[Header]
Application Name,LabSolutions
Version,5.97 SP1
Data File Name,C:\Users\cremerlab\Desktop\Richa\Sep_2nd_2022_scfa_rt50min_final\Sep 2nd yield expt_922022_001_017.lcd
Output Date,9/3/2022
Output Time,7:22:02 AM

[File Information]
Type,Data File
Generated,9/3/2022 6:31:42 AM
Generated by,System Administrator
Modified,9/3/2022 7:22:02 AM
Modified by,System Administrator

[Sample Information]
Operator Name,System Administrator
Acquired,9/3/2022 6:32:00 AM
Sample Type,0:Unknown
Level,0
Sample Name,090222_C.aerofaciens_4
Sample ID,001
ISTD Amount1,1
ISTD Amount2,1
ISTD Amount3,1
ISTD Amount4,1
ISTD Amount5,1
ISTD Amount6,1
ISTD Amount7,1
ISTD Amount8,1
ISTD Amount9,1
ISTD Amount10,1
ISTD Amount11,1
ISTD Amount12,1
ISTD Amount13,1
ISTD Amount14,1
ISTD Amount15,1
ISTD Amount16,1
ISTD Amount17,1
ISTD Amount18,1
ISTD Amount19,1
ISTD Amount20,1
ISTD Amount21,1
ISTD Amount22,1
ISTD Amount23,1
ISTD Amount24,1
ISTD Amount25,1
ISTD Amount26,1
ISTD Amount27,1
ISTD Amount28,1
ISTD Amount29,1
ISTD Amount30,1
ISTD Amount31,1
ISTD Amount32,1
Sample Amount,1
Dilution Factor,1
Vial#,16
Injection Volume,20

[Original Files]
Data File,C:\Users\cremerlab\Desktop\Richa\Sep_2nd_2022_scfa_rt50min_final\Sep 2nd yield expt_922022_001_017.lcd
Method File,C:\Users\cremerlab\Desktop\Richa\acetate_excretion.lcm
Batch File,C:\Users\cremerlab\Desktop\Richa\Sep_2nd_2022_scfa_rt50min_final\Sep 2nd yield expt.lcb
Report Format File,c:\LabSolutions\System\DEFAULT.lsr

[File Description]


[Configuration]
Instrument Name,HPLC-PC-Instrument1
Instrument #,1
Line #,1
# of Detectors,2
Detector ID,Detector A,Detector B
Detector Name,Detector A,Detector B
# of Channels,1,1

[Peak Table(Detector A)]
# of Peaks,0

[Peak Table(Detector B)]
# of Peaks,12
Peak#,R.Time,I.Time,F.Time,Area,Height,A/H,Conc.,Mark,ID#,Name,k',Plate #,Plate Ht.,Tailing,Resolution,Sep.Factor,Area Ratio,Height Ratio,Conc. %,Norm Conc.
1,11.014,10.267,12.300,2269683,116099,19.550,0.000,   ,,,0.000,7543,19.886,0.968,0.000,0.000,0,0,0.000,0.000
2,14.328,12.658,15.183,3569726,76887,46.428,0.000,   ,,,0.301,2507,59.827,0.657,4.012,0.000,0,0,0.000,0.000
3,15.753,15.183,17.142,1263182,43397,29.108,0.000, V ,,,0.430,6924,21.665,1.136,1.499,1.430,0,0,0.000,0.000
4,17.873,17.417,18.400,7328,256,28.651,0.000,   ,,,0.623,8124,18.463,1.026,2.735,1.447,0,0,0.000,0.000
5,19.096,18.417,19.758,13534,317,42.757,0.000,   ,,,0.734,4290,34.965,0.967,1.248,1.178,0,0,0.000,0.000
6,20.302,19.758,20.867,21904,606,36.120,0.000,   ,,,0.843,7101,21.124,0.000,1.133,1.149,0,0,0.000,0.000
7,21.537,20.867,22.542,159559,3975,40.138,0.000, V ,,,0.955,7177,20.901,1.146,1.247,1.133,0,0,0.000,0.000
8,23.132,22.550,24.175,15921,425,37.505,0.000,   ,,,1.100,9448,15.876,1.338,1.620,1.152,0,0,0.000,0.000
9,25.078,24.300,26.400,156623,3833,40.857,0.000,   ,,,1.277,9090,16.501,1.134,1.942,1.161,0,0,0.000,0.000
10,29.237,28.367,30.625,140471,2890,48.610,0.000,   ,,,1.654,8832,16.984,1.175,3.621,1.296,0,0,0.000,0.000
11,32.521,31.667,34.350,45126,614,73.539,0.000,   ,,,1.953,2273,65.995,1.503,1.653,1.180,0,0,0.000,0.000
12,41.529,40.433,43.883,40071,459,87.371,0.000,   ,,,2.770,6013,24.945,1.562,3.699,1.419,0,0,0.000,0.000

[LC Chromatogram(Detector B-Ch1)]
Interval(msec),500
# of Points,6001
Start Time(min),0.000
End Time(min),50.000
Intensity Units,mV
Intensity Multiplier,0.001
R.Time (min),Intensity
0.00000,-25
0.00833,-25
0.01667,-8
0.02500,-1
0.03333,-2
0.04167,-2
0.05000,-3
0.05833,-4
0.06667,-4
0.07500,-5
0.08333,-5
0.09167,-6
0.10000,-7
0.10833,-7
0.11667,-8
0.12500,-9
0.13333,-9
0.14167,-10
0.15000,-10
0.15833,-11
0.16667,-12
0.17500,-12
0.18333,-13
0.19167,-13
0.20000,-14
0.20833,-14
0.21667,-15
0.22500,-16
0.23333,-16
0.24167,-17
0.25000,-17
0.25833,-18
0.26667,-18
0.27500,-19
0.28333,-19
0.29167,-20
0.30000,-20
0.30833,-21
0.31667,-21
0.32500,-22
0.33333,-22
0.34167,-22
0.35000,-22
0.35833,-23
0.36667,-23
0.37500,-24
0.38333,-24
0.39167,-24
0.40000,-24
0.40833,-25
0.41667,-25
0.42500,-25
0.43333,-25
0.44167,-26
0.45000,-26
0.45833,-27
0.46667,-27
0.47500,-28
0.48333,-28
0.49167,-28
0.50000,-28
0.50833,-28
0.51667,-27
0.52500,-27
0.53333,-28
0.54167,-28
0.55000,-28
0.55833,-29
0.56667,-29
0.57500,-29
0.58333,-29
0.59167,-29
0.60000,-29
0.60833,-29
0.61667,-30
0.62500,-30
0.63333,-30
0.64167,-30
0.65000,-30
0.65833,-30
0.66667,-30
0.67500,-30
0.68333,-30
0.69167,-31
0.70000,-31
0.70833,-31
0.71667,-31
0.72500,-32
0.73333,-32
0.74167,-32
0.75000,-32
0.75833,-32
0.76667,-32
0.77500,-32
0.78333,-32
0.79167,-31
0.80000,-32
0.80833,-31
0.81667,-31
0.82500,-31
0.83333,-32
0.84167,-32
0.85000,-32
0.85833,-32
0.86667,-32
0.87500,-32
0.88333,-33
0.89167,-32
0.90000,-32
0.90833,-32
0.91667,-33
0.92500,-33
0.93333,-33
0.94167,-32
0.95000,-32
0.95833,-32
0.96667,-32
0.97500,-32
0.98333,-32
0.99167,-32
1.00000,-31
1.00833,-31
1.01667,-30
1.02500,-30
1.03333,-30
1.04167,-30
1.05000,-30
1.05833,-29
1.06667,-29
1.07500,-29
1.08333,-29
1.09167,-29
1.10000,-29
1.10833,-28
1.11667,-28
1.12500,-28
1.13333,-28
1.14167,-28
1.15000,-28
1.15833,-27
1.16667,-27
1.17500,-28
1.18333,-28
1.19167,-28
1.20000,-28
1.20833,-28
1.21667,-28
1.22500,-28
1.23333,-28
1.24167,-28
1.25000,-27
1.25833,-27
1.26667,-27
1.27500,-27
1.28333,-26
1.29167,-26
1.30000,-26
1.30833,-26
1.31667,-26
1.32500,-25
1.33333,-25
1.34167,-25
1.35000,-25
1.35833,-24
1.36667,-24
1.37500,-24
1.38333,-24
1.39167,-24
1.40000,-24
1.40833,-24
1.41667,-24
1.42500,-23
1.43333,-23
1.44167,-23
1.45000,-23
1.45833,-23
1.46667,-23
1.47500,-23
1.48333,-22
1.49167,-22
1.50000,-22
1.50833,-22
1.51667,-22
1.52500,-21
1.53333,-21
1.54167,-21
1.55000,-21
1.55833,-20
1.56667,-20
1.57500,-20
1.58333,-20
1.59167,-19
1.60000,-19
1.60833,-19
1.61667,-19
1.62500,-18
1.63333,-18
1.64167,-18
1.65000,-19
1.65833,-19
1.66667,-19
1.67500,-18
1.68333,-18
1.69167,-18
1.70000,-18
1.70833,-17
1.71667,-17
1.72500,-17
1.73333,-17
1.74167,-17
1.75000,-17
1.75833,-17
1.76667,-17
1.77500,-17
1.78333,-17
1.79167,-17
1.80000,-17
1.80833,-17
1.81667,-17
1.82500,-17
1.83333,-17
1.84167,-17
1.85000,-16
1.85833,-16
1.86667,-16
1.87500,-15
1.88333,-15
1.89167,-15
1.90000,-15
1.90833,-15
1.91667,-15
1.92500,-14
1.93333,-14
1.94167,-14
1.95000,-14
1.95833,-13
1.96667,-13
1.97500,-13
1.98333,-13
1.99167,-13
2.00000,-13
2.00833,-13
2.01667,-12
2.02500,-12
2.03333,-12
2.04167,-12
2.05000,-12
2.05833,-12
2.06667,-12
2.07500,-12
2.08333,-12
2.09167,-12
2.10000,-13
2.10833,-13
2.11667,-13
2.12500,-13
2.13333,-13
2.14167,-13
2.15000,-13
2.15833,-13
2.16667,-12
2.17500,-12
2.18333,-12
2.19167,-12
2.20000,-11
2.20833,-11
2.21667,-11
2.22500,-11
2.23333,-11
2.24167,-11
2.25000,-11
2.25833,-12
2.26667,-12
2.27500,-12
2.28333,-12
2.29167,-11
2.30000,-12
2.30833,-12
2.31667,-12
2.32500,-11
2.33333,-11
2.34167,-10
2.35000,-10
2.35833,-10
2.36667,-11
2.37500,-11
2.38333,-12
2.39167,-12
2.40000,-12
2.40833,-11
2.41667,-11
2.42500,-11
2.43333,-11
2.44167,-11
2.45000,-12
2.45833,-12
2.46667,-12
2.47500,-12
2.48333,-11
2.49167,-11
2.50000,-11
2.50833,-11
2.51667,-12
2.52500,-12
2.53333,-12
2.54167,-11
2.55000,-11
2.55833,-11
2.56667,-11
2.57500,-12
2.58333,-12
2.59167,-12
2.60000,-12
2.60833,-13
2.61667,-13
2.62500,-14
2.63333,-14
2.64167,-14
2.65000,-13
2.65833,-13
2.66667,-13
2.67500,-13
2.68333,-13
2.69167,-14
2.70000,-14
2.70833,-14
2.71667,-14
2.72500,-14
2.73333,-13
2.74167,-13
2.75000,-13
2.75833,-14
2.76667,-14
2.77500,-14
2.78333,-14
2.79167,-14
2.80000,-14
2.80833,-14
2.81667,-15
2.82500,-15
2.83333,-15
2.84167,-15
2.85000,-15
2.85833,-16
2.86667,-16
2.87500,-16
2.88333,-16
2.89167,-16
2.90000,-16
2.90833,-16
2.91667,-16
2.92500,-16
2.93333,-16
2.94167,-16
2.95000,-16
2.95833,-16
2.96667,-16
2.97500,-16
2.98333,-16
2.99167,-17
3.00000,-17
3.00833,-17
3.01667,-17
3.02500,-17
3.03333,-17
3.04167,-17
3.05000,-17
3.05833,-17
3.06667,-17
3.07500,-17
3.08333,-17
3.09167,-17
3.10000,-17
3.10833,-17
3.11667,-17
3.12500,-17
3.13333,-17
3.14167,-17
3.15000,-17
3.15833,-17
3.16667,-17
3.17500,-18
3.18333,-18
3.19167,-18
3.20000,-18
3.20833,-18
3.21667,-18
3.22500,-18
3.23333,-18
3.24167,-18
3.25000,-18
3.25833,-18
3.26667,-18
3.27500,-18
3.28333,-18
3.29167,-18
3.30000,-18
3.30833,-18
3.31667,-18
3.32500,-18
3.33333,-18
3.34167,-18
3.35000,-17
3.35833,-17
3.36667,-17
3.37500,-18
3.38333,-18
3.39167,-19
3.40000,-19
3.40833,-19
3.41667,-19
3.42500,-19
3.43333,-19
3.44167,-19
3.45000,-19
3.45833,-19
3.46667,-19
3.47500,-19
3.48333,-19
3.49167,-18
3.50000,-18
3.50833,-18
3.51667,-17
3.52500,-17
3.53333,-17
3.54167,-17
3.55000,-17
3.55833,-17
3.56667,-17
3.57500,-17
3.58333,-17
3.59167,-17
3.60000,-17
3.60833,-17
3.61667,-17
3.62500,-18
3.63333,-18
3.64167,-17
3.65000,-17
3.65833,-17
3.66667,-17
3.67500,-17
3.68333,-16
3.69167,-16
3.70000,-16
3.70833,-15
3.71667,-15
3.72500,-15
3.73333,-14
3.74167,-14
3.75000,-14
3.75833,-15
3.76667,-14
3.77500,-14
3.78333,-14
3.79167,-14
3.80000,-14
3.80833,-13
3.81667,-13
3.82500,-13
3.83333,-12
3.84167,-12
3.85000,-12
3.85833,-11
3.86667,-11
3.87500,-11
3.88333,-11
3.89167,-10
3.90000,-10
3.90833,-10
3.91667,-9
3.92500,-9
3.93333,-9
3.94167,-9
3.95000,-9
3.95833,-9
3.96667,-9
3.97500,-8
3.98333,-7
3.99167,-7
4.00000,-6
4.00833,-6
4.01667,-6
4.02500,-6
4.03333,-5
4.04167,-5
4.05000,-5
4.05833,-4
4.06667,-4
4.07500,-3
4.08333,-3
4.09167,-3
4.10000,-3
4.10833,-2
4.11667,-2
4.12500,-1
4.13333,-1
4.14167,0
4.15000,1
4.15833,1
4.16667,2
4.17500,2
4.18333,2
4.19167,3
4.20000,3
4.20833,4
4.21667,5
4.22500,5
4.23333,5
4.24167,6
4.25000,6
4.25833,7
4.26667,8
4.27500,9
4.28333,9
4.29167,10
4.30000,11
4.30833,11
4.31667,11
4.32500,12
4.33333,12
4.34167,13
4.35000,14
4.35833,14
4.36667,15
4.37500,16
4.38333,16
4.39167,17
4.40000,18
4.40833,19
4.41667,20
4.42500,20
4.43333,21
4.44167,21
4.45000,22
4.45833,23
4.46667,24
4.47500,24
4.48333,25
4.49167,25
4.50000,26
4.50833,26
4.51667,27
4.52500,27
4.53333,28
4.54167,29
4.55000,30
4.55833,31
4.56667,32
4.57500,33
4.58333,33
4.59167,34
4.60000,35
4.60833,35
4.61667,36
4.62500,36
4.63333,37
4.64167,37
4.65000,37
4.65833,38
4.66667,38
4.67500,39
4.68333,40
4.69167,41
4.70000,42
4.70833,42
4.71667,43
4.72500,44
4.73333,44
4.74167,45
4.75000,45
4.75833,46
4.76667,46
4.77500,47
4.78333,47
4.79167,48
4.80000,48
4.80833,48
4.81667,48
4.82500,48
4.83333,49
4.84167,49
4.85000,49
4.85833,50
4.86667,50
4.87500,50
4.88333,51
4.89167,52
4.90000,52
4.90833,52
4.91667,52
4.92500,53
4.93333,53
4.94167,53
4.95000,54
4.95833,54
4.96667,54
4.97500,55
4.98333,55
4.99167,55
5.00000,55
5.00833,55
5.01667,55
5.02500,55
5.03333,55
5.04167,55
5.05000,55
5.05833,55
5.06667,55
5.07500,55
5.08333,55
5.09167,55
5.10000,55
5.10833,55
5.11667,55
5.12500,55
5.13333,55
5.14167,55
5.15000,55
5.15833,55
5.16667,55
5.17500,55
5.18333,55
5.19167,55
5.20000,55
5.20833,55
5.21667,54
5.22500,54
5.23333,54
5.24167,53
5.25000,54
5.25833,53
5.26667,53
5.27500,53
5.28333,52
5.29167,52
5.30000,52
5.30833,51
5.31667,51
5.32500,51
5.33333,50
5.34167,50
5.35000,50
5.35833,50
5.36667,50
5.37500,50
5.38333,50
5.39167,49
5.40000,49
5.40833,48
5.41667,47
5.42500,47
5.43333,46
5.44167,46
5.45000,45
5.45833,45
5.46667,44
5.47500,44
5.48333,44
5.49167,43
5.50000,43
5.50833,42
5.51667,41
5.52500,41
5.53333,40
5.54167,39
5.55000,39
5.55833,38
5.56667,37
5.57500,37
5.58333,37
5.59167,36
5.60000,36
5.60833,36
5.61667,35
5.62500,34
5.63333,34
5.64167,33
5.65000,33
5.65833,32
5.66667,32
5.67500,31
5.68333,30
5.69167,30
5.70000,29
5.70833,29
5.71667,28
5.72500,27
5.73333,26
5.74167,25
5.75000,24
5.75833,23
5.76667,23
5.77500,22
5.78333,21
5.79167,20
5.80000,20
5.80833,19
5.81667,19
5.82500,18
5.83333,17
5.84167,16
5.85000,15
5.85833,14
5.86667,13
5.87500,13
5.88333,12
5.89167,12
5.90000,11
5.90833,10
5.91667,9
5.92500,8
5.93333,7
5.94167,6
5.95000,5
5.95833,5
5.96667,4
5.97500,4
5.98333,3
5.99167,3
6.00000,2
6.00833,1
6.01667,-0
6.02500,-1
6.03333,-2
6.04167,-3
6.05000,-4
6.05833,-5
6.06667,-6
6.07500,-6
6.08333,-7
6.09167,-8
6.10000,-8
6.10833,-9
6.11667,-10
6.12500,-11
6.13333,-11
6.14167,-12
6.15000,-13
6.15833,-14
6.16667,-15
6.17500,-15
6.18333,-16
6.19167,-17
6.20000,-17
6.20833,-18
6.21667,-19
6.22500,-19
6.23333,-20
6.24167,-21
6.25000,-21
6.25833,-22
6.26667,-23
6.27500,-24
6.28333,-24
6.29167,-25
6.30000,-26
6.30833,-26
6.31667,-27
6.32500,-27
6.33333,-27
6.34167,-28
6.35000,-28
6.35833,-29
6.36667,-30
6.37500,-31
6.38333,-32
6.39167,-32
6.40000,-32
6.40833,-33
6.41667,-33
6.42500,-34
6.43333,-34
6.44167,-34
6.45000,-35
6.45833,-36
6.46667,-36
6.47500,-37
6.48333,-38
6.49167,-38
6.50000,-38
6.50833,-38
6.51667,-39
6.52500,-39
6.53333,-39
6.54167,-39
6.55000,-40
6.55833,-40
6.56667,-41
6.57500,-41
6.58333,-41
6.59167,-41
6.60000,-42
6.60833,-42
6.61667,-43
6.62500,-43
6.63333,-44
6.64167,-44
6.65000,-44
6.65833,-44
6.66667,-44
6.67500,-44
6.68333,-45
6.69167,-45
6.70000,-46
6.70833,-46
6.71667,-46
6.72500,-46
6.73333,-46
6.74167,-46
6.75000,-46
6.75833,-47
6.76667,-47
6.77500,-47
6.78333,-47
6.79167,-47
6.80000,-47
6.80833,-48
6.81667,-48
6.82500,-49
6.83333,-49
6.84167,-48
6.85000,-48
6.85833,-49
6.86667,-49
6.87500,-49
6.88333,-49
6.89167,-49
6.90000,-49
6.90833,-49
6.91667,-49
6.92500,-49
6.93333,-49
6.94167,-50
6.95000,-50
6.95833,-50
6.96667,-50
6.97500,-51
6.98333,-51
6.99167,-51
7.00000,-51
7.00833,-51
7.01667,-51
7.02500,-51
7.03333,-51
7.04167,-51
7.05000,-51
7.05833,-51
7.06667,-51
7.07500,-51
7.08333,-51
7.09167,-51
7.10000,-51
7.10833,-51
7.11667,-51
7.12500,-51
7.13333,-51
7.14167,-51
7.15000,-51
7.15833,-50
7.16667,-50
7.17500,-50
7.18333,-51
7.19167,-51
7.20000,-51
7.20833,-52
7.21667,-52
7.22500,-51
7.23333,-51
7.24167,-51
7.25000,-51
7.25833,-51
7.26667,-51
7.27500,-51
7.28333,-52
7.29167,-52
7.30000,-52
7.30833,-52
7.31667,-52
7.32500,-52
7.33333,-52
7.34167,-52
7.35000,-52
7.35833,-52
7.36667,-52
7.37500,-52
7.38333,-53
7.39167,-52
7.40000,-52
7.40833,-52
7.41667,-52
7.42500,-52
7.43333,-52
7.44167,-52
7.45000,-52
7.45833,-52
7.46667,-52
7.47500,-52
7.48333,-52
7.49167,-52
7.50000,-53
7.50833,-53
7.51667,-53
7.52500,-53
7.53333,-53
7.54167,-53
7.55000,-54
7.55833,-53
7.56667,-53
7.57500,-53
7.58333,-53
7.59167,-53
7.60000,-53
7.60833,-53
7.61667,-53
7.62500,-54
7.63333,-54
7.64167,-54
7.65000,-54
7.65833,-54
7.66667,-54
7.67500,-54
7.68333,-54
7.69167,-54
7.70000,-54
7.70833,-54
7.71667,-54
7.72500,-54
7.73333,-54
7.74167,-54
7.75000,-54
7.75833,-54
7.76667,-54
7.77500,-54
7.78333,-54
7.79167,-53
7.80000,-53
7.80833,-53
7.81667,-53
7.82500,-53
7.83333,-53
7.84167,-53
7.85000,-53
7.85833,-53
7.86667,-54
7.87500,-54
7.88333,-55
7.89167,-55
7.90000,-55
7.90833,-55
7.91667,-55
7.92500,-55
7.93333,-55
7.94167,-55
7.95000,-55
7.95833,-55
7.96667,-55
7.97500,-54
7.98333,-54
7.99167,-54
8.00000,-55
8.00833,-55
8.01667,-55
8.02500,-55
8.03333,-55
8.04167,-55
8.05000,-55
8.05833,-55
8.06667,-55
8.07500,-55
8.08333,-54
8.09167,-54
8.10000,-54
8.10833,-54
8.11667,-54
8.12500,-54
8.13333,-54
8.14167,-54
8.15000,-54
8.15833,-55
8.16667,-55
8.17500,-55
8.18333,-55
8.19167,-55
8.20000,-55
8.20833,-55
8.21667,-55
8.22500,-55
8.23333,-55
8.24167,-55
8.25000,-56
8.25833,-56
8.26667,-56
8.27500,-56
8.28333,-56
8.29167,-56
8.30000,-56
8.30833,-55
8.31667,-56
8.32500,-55
8.33333,-55
8.34167,-55
8.35000,-55
8.35833,-55
8.36667,-55
8.37500,-55
8.38333,-55
8.39167,-55
8.40000,-55
8.40833,-55
8.41667,-56
8.42500,-56
8.43333,-56
8.44167,-56
8.45000,-56
8.45833,-56
8.46667,-56
8.47500,-56
8.48333,-56
8.49167,-56
8.50000,-56
8.50833,-56
8.51667,-56
8.52500,-56
8.53333,-56
8.54167,-56
8.55000,-55
8.55833,-55
8.56667,-55
8.57500,-55
8.58333,-55
8.59167,-56
8.60000,-56
8.60833,-56
8.61667,-56
8.62500,-56
8.63333,-56
8.64167,-56
8.65000,-56
8.65833,-56
8.66667,-56
8.67500,-56
8.68333,-56
8.69167,-56
8.70000,-56
8.70833,-55
8.71667,-55
8.72500,-55
8.73333,-56
8.74167,-56
8.75000,-56
8.75833,-56
8.76667,-56
8.77500,-57
8.78333,-57
8.79167,-57
8.80000,-57
8.80833,-56
8.81667,-56
8.82500,-56
8.83333,-56
8.84167,-56
8.85000,-56
8.85833,-56
8.86667,-56
8.87500,-56
8.88333,-56
8.89167,-56
8.90000,-56
8.90833,-56
8.91667,-57
8.92500,-57
8.93333,-57
8.94167,-57
8.95000,-57
8.95833,-57
8.96667,-57
8.97500,-57
8.98333,-56
8.99167,-56
9.00000,-56
9.00833,-57
9.01667,-57
9.02500,-57
9.03333,-57
9.04167,-57
9.05000,-57
9.05833,-57
9.06667,-56
9.07500,-56
9.08333,-55
9.09167,-55
9.10000,-55
9.10833,-55
9.11667,-56
9.12500,-55
9.13333,-55
9.14167,-55
9.15000,-56
9.15833,-56
9.16667,-57
9.17500,-57
9.18333,-57
9.19167,-56
9.20000,-56
9.20833,-56
9.21667,-56
9.22500,-57
9.23333,-57
9.24167,-57
9.25000,-57
9.25833,-57
9.26667,-57
9.27500,-56
9.28333,-56
9.29167,-56
9.30000,-56
9.30833,-56
9.31667,-56
9.32500,-56
9.33333,-56
9.34167,-55
9.35000,-55
9.35833,-56
9.36667,-56
9.37500,-56
9.38333,-55
9.39167,-55
9.40000,-55
9.40833,-55
9.41667,-55
9.42500,-55
9.43333,-55
9.44167,-55
9.45000,-55
9.45833,-55
9.46667,-55
9.47500,-55
9.48333,-55
9.49167,-55
9.50000,-55
9.50833,-55
9.51667,-55
9.52500,-55
9.53333,-55
9.54167,-55
9.55000,-55
9.55833,-55
9.56667,-55
9.57500,-55
9.58333,-55
9.59167,-55
9.60000,-54
9.60833,-54
9.61667,-55
9.62500,-55
9.63333,-55
9.64167,-54
9.65000,-54
9.65833,-54
9.66667,-54
9.67500,-54
9.68333,-53
9.69167,-54
9.70000,-54
9.70833,-54
9.71667,-54
9.72500,-54
9.73333,-54
9.74167,-54
9.75000,-54
9.75833,-54
9.76667,-53
9.77500,-53
9.78333,-53
9.79167,-53
9.80000,-53
9.80833,-53
9.81667,-53
9.82500,-53
9.83333,-53
9.84167,-53
9.85000,-53
9.85833,-53
9.86667,-53
9.87500,-53
9.88333,-53
9.89167,-53
9.90000,-53
9.90833,-53
9.91667,-53
9.92500,-54
9.93333,-54
9.94167,-53
9.95000,-53
9.95833,-53
9.96667,-52
9.97500,-52
9.98333,-52
9.99167,-52
10.00000,-52
10.00833,-51
10.01667,-51
10.02500,-51
10.03333,-51
10.04167,-51
10.05000,-51
10.05833,-50
10.06667,-50
10.07500,-50
10.08333,-50
10.09167,-49
10.10000,-49
10.10833,-48
10.11667,-47
10.12500,-46
10.13333,-45
10.14167,-44
10.15000,-44
10.15833,-43
10.16667,-42
10.17500,-41
10.18333,-40
10.19167,-38
10.20000,-37
10.20833,-35
10.21667,-34
10.22500,-32
10.23333,-30
10.24167,-28
10.25000,-27
10.25833,-25
10.26667,-22
10.27500,-19
10.28333,-16
10.29167,-11
10.30000,-6
10.30833,1
10.31667,8
10.32500,17
10.33333,26
10.34167,38
10.35000,51
10.35833,66
10.36667,82
10.37500,101
10.38333,120
10.39167,141
10.40000,162
10.40833,184
10.41667,205
10.42500,225
10.43333,243
10.44167,259
10.45000,273
10.45833,283
10.46667,289
10.47500,293
10.48333,294
10.49167,293
10.50000,293
10.50833,295
10.51667,301
10.52500,316
10.53333,342
10.54167,385
10.55000,448
10.55833,538
10.56667,660
10.57500,819
10.58333,1023
10.59167,1275
10.60000,1584
10.60833,1955
10.61667,2394
10.62500,2907
10.63333,3500
10.64167,4179
10.65000,4948
10.65833,5813
10.66667,6779
10.67500,7849
10.68333,9028
10.69167,10318
10.70000,11723
10.70833,13245
10.71667,14887
10.72500,16651
10.73333,18537
10.74167,20547
10.75000,22681
10.75833,24939
10.76667,27321
10.77500,29826
10.78333,32453
10.79167,35200
10.80000,38065
10.80833,41045
10.81667,44136
10.82500,47336
10.83333,50637
10.84167,54036
10.85000,57526
10.85833,61099
10.86667,64746
10.87500,68456
10.88333,72217
10.89167,76014
10.90000,79828
10.90833,83639
10.91667,87424
10.92500,91153
10.93333,94794
10.94167,98310
10.95000,101660
10.95833,104798
10.96667,107673
10.97500,110230
10.98333,112414
10.99167,114168
11.00000,115435
11.00833,116164
11.01667,116309
11.02500,115832
11.03333,114709
11.04167,112928
11.05000,110497
11.05833,107439
11.06667,103796
11.07500,99629
11.08333,95010
11.09167,90025
11.10000,84765
11.10833,79328
11.11667,73806
11.12500,68291
11.13333,62862
11.14167,57592
11.15000,52540
11.15833,47750
11.16667,43258
11.17500,39085
11.18333,35242
11.19167,31729
11.20000,28540
11.20833,25664
11.21667,23084
11.22500,20780
11.23333,18732
11.24167,16916
11.25000,15312
11.25833,13896
11.26667,12649
11.27500,11552
11.28333,10586
11.29167,9736
11.30000,8987
11.30833,8326
11.31667,7742
11.32500,7224
11.33333,6764
11.34167,6353
11.35000,5986
11.35833,5656
11.36667,5359
11.37500,5089
11.38333,4844
11.39167,4620
11.40000,4415
11.40833,4226
11.41667,4052
11.42500,3890
11.43333,3739
11.44167,3598
11.45000,3465
11.45833,3340
11.46667,3222
11.47500,3111
11.48333,3006
11.49167,2907
11.50000,2812
11.50833,2721
11.51667,2634
11.52500,2551
11.53333,2471
11.54167,2395
11.55000,2323
11.55833,2253
11.56667,2186
11.57500,2121
11.58333,2059
11.59167,1999
11.60000,1942
11.60833,1887
11.61667,1834
11.62500,1783
11.63333,1734
11.64167,1686
11.65000,1641
11.65833,1597
11.66667,1555
11.67500,1515
11.68333,1476
11.69167,1438
11.70000,1402
11.70833,1368
11.71667,1334
11.72500,1302
11.73333,1271
11.74167,1241
11.75000,1213
11.75833,1186
11.76667,1160
11.77500,1134
11.78333,1110
11.79167,1087
11.80000,1065
11.80833,1044
11.81667,1023
11.82500,1004
11.83333,985
11.84167,967
11.85000,950
11.85833,934
11.86667,918
11.87500,903
11.88333,889
11.89167,875
11.90000,861
11.90833,848
11.91667,836
11.92500,824
11.93333,813
11.94167,802
11.95000,791
11.95833,781
11.96667,771
11.97500,762
11.98333,753
11.99167,745
12.00000,737
12.00833,730
12.01667,722
12.02500,715
12.03333,708
12.04167,701
12.05000,695
12.05833,689
12.06667,683
12.07500,678
12.08333,673
12.09167,668
12.10000,663
12.10833,658
12.11667,654
12.12500,650
12.13333,646
12.14167,642
12.15000,639
12.15833,636
12.16667,633
12.17500,630
12.18333,627
12.19167,625
12.20000,623
12.20833,621
12.21667,620
12.22500,618
12.23333,616
12.24167,615
12.25000,613
12.25833,612
12.26667,612
12.27500,611
12.28333,611
12.29167,610
12.30000,609
12.30833,610
12.31667,610
12.32500,610
12.33333,610
12.34167,610
12.35000,610
12.35833,610
12.36667,610
12.37500,610
12.38333,610
12.39167,610
12.40000,609
12.40833,609
12.41667,609
12.42500,608
12.43333,608
12.44167,607
12.45000,607
12.45833,606
12.46667,605
12.47500,604
12.48333,604
12.49167,603
12.50000,602
12.50833,600
12.51667,599
12.52500,597
12.53333,596
12.54167,594
12.55000,592
12.55833,590
12.56667,588
12.57500,586
12.58333,584
12.59167,581
12.60000,579
12.60833,577
12.61667,576
12.62500,574
12.63333,572
12.64167,571
12.65000,570
12.65833,570
12.66667,570
12.67500,570
12.68333,572
12.69167,574
12.70000,577
12.70833,581
12.71667,587
12.72500,594
12.73333,604
12.74167,615
12.75000,627
12.75833,643
12.76667,661
12.77500,682
12.78333,706
12.79167,733
12.80000,764
12.80833,800
12.81667,839
12.82500,882
12.83333,930
12.84167,983
12.85000,1041
12.85833,1103
12.86667,1171
12.87500,1244
12.88333,1322
12.89167,1406
12.90000,1495
12.90833,1590
12.91667,1690
12.92500,1797
12.93333,1908
12.94167,2026
12.95000,2150
12.95833,2279
12.96667,2415
12.97500,2556
12.98333,2703
12.99167,2856
13.00000,3015
13.00833,3179
13.01667,3350
13.02500,3526
13.03333,3707
13.04167,3894
13.05000,4087
13.05833,4285
13.06667,4488
13.07500,4697
13.08333,4911
13.09167,5129
13.10000,5353
13.10833,5582
13.11667,5816
13.12500,6055
13.13333,6298
13.14167,6545
13.15000,6798
13.15833,7054
13.16667,7314
13.17500,7579
13.18333,7848
13.19167,8122
13.20000,8399
13.20833,8680
13.21667,8965
13.22500,9254
13.23333,9547
13.24167,9843
13.25000,10143
13.25833,10446
13.26667,10752
13.27500,11062
13.28333,11375
13.29167,11692
13.30000,12011
13.30833,12334
13.31667,12661
13.32500,12990
13.33333,13322
13.34167,13658
13.35000,13998
13.35833,14340
13.36667,14686
13.37500,15034
13.38333,15386
13.39167,15740
13.40000,16098
13.40833,16458
13.41667,16821
13.42500,17188
13.43333,17557
13.44167,17930
13.45000,18306
13.45833,18685
13.46667,19066
13.47500,19451
13.48333,19839
13.49167,20230
13.50000,20624
13.50833,21021
13.51667,21421
13.52500,21825
13.53333,22232
13.54167,22642
13.55000,23056
13.55833,23472
13.56667,23892
13.57500,24315
13.58333,24741
13.59167,25171
13.60000,25604
13.60833,26040
13.61667,26480
13.62500,26923
13.63333,27370
13.64167,27820
13.65000,28274
13.65833,28731
13.66667,29193
13.67500,29658
13.68333,30126
13.69167,30598
13.70000,31074
13.70833,31554
13.71667,32037
13.72500,32524
13.73333,33015
13.74167,33511
13.75000,34010
13.75833,34513
13.76667,35021
13.77500,35533
13.78333,36049
13.79167,36569
13.80000,37094
13.80833,37623
13.81667,38156
13.82500,38694
13.83333,39236
13.84167,39783
13.85000,40334
13.85833,40889
13.86667,41450
13.87500,42015
13.88333,42585
13.89167,43160
13.90000,43740
13.90833,44324
13.91667,44914
13.92500,45509
13.93333,46109
13.94167,46714
13.95000,47324
13.95833,47940
13.96667,48561
13.97500,49188
13.98333,49819
13.99167,50457
14.00000,51100
14.00833,51748
14.01667,52402
14.02500,53062
14.03333,53728
14.04167,54400
14.05000,55078
14.05833,55762
14.06667,56452
14.07500,57148
14.08333,57850
14.09167,58558
14.10000,59273
14.10833,59995
14.11667,60723
14.12500,61458
14.13333,62200
14.14167,62949
14.15000,63705
14.15833,64469
14.16667,65239
14.17500,66016
14.18333,66800
14.19167,67590
14.20000,68387
14.20833,69188
14.21667,69992
14.22500,70795
14.23333,71594
14.24167,72381
14.25000,73150
14.25833,73892
14.26667,74597
14.27500,75253
14.28333,75847
14.29167,76367
14.30000,76801
14.30833,77136
14.31667,77361
14.32500,77467
14.33333,77445
14.34167,77288
14.35000,76991
14.35833,76551
14.36667,75964
14.37500,75227
14.38333,74338
14.39167,73295
14.40000,72096
14.40833,70738
14.41667,69220
14.42500,67541
14.43333,65701
14.44167,63701
14.45000,61546
14.45833,59244
14.46667,56805
14.47500,54245
14.48333,51583
14.49167,48838
14.50000,46037
14.50833,43204
14.51667,40368
14.52500,37555
14.53333,34792
14.54167,32104
14.55000,29512
14.55833,27036
14.56667,24689
14.57500,22485
14.58333,20431
14.59167,18529
14.60000,16781
14.60833,15185
14.61667,13735
14.62500,12426
14.63333,11248
14.64167,10193
14.65000,9252
14.65833,8414
14.66667,7671
14.67500,7013
14.68333,6431
14.69167,5916
14.70000,5462
14.70833,5061
14.71667,4706
14.72500,4392
14.73333,4114
14.74167,3867
14.75000,3648
14.75833,3452
14.76667,3277
14.77500,3120
14.78333,2979
14.79167,2851
14.80000,2735
14.80833,2630
14.81667,2534
14.82500,2445
14.83333,2364
14.84167,2289
14.85000,2219
14.85833,2154
14.86667,2094
14.87500,2038
14.88333,1985
14.89167,1935
14.90000,1888
14.90833,1844
14.91667,1802
14.92500,1763
14.93333,1725
14.94167,1689
14.95000,1655
14.95833,1623
14.96667,1592
14.97500,1563
14.98333,1535
14.99167,1508
15.00000,1483
15.00833,1459
15.01667,1437
15.02500,1415
15.03333,1395
15.04167,1375
15.05000,1357
15.05833,1340
15.06667,1323
15.07500,1307
15.08333,1292
15.09167,1278
15.10000,1264
15.10833,1252
15.11667,1241
15.12500,1231
15.13333,1222
15.14167,1213
15.15000,1205
15.15833,1199
15.16667,1194
15.17500,1191
15.18333,1190
15.19167,1192
15.20000,1196
15.20833,1205
15.21667,1217
15.22500,1235
15.23333,1258
15.24167,1289
15.25000,1328
15.25833,1376
15.26667,1436
15.27500,1509
15.28333,1597
15.29167,1702
15.30000,1826
15.30833,1972
15.31667,2143
15.32500,2341
15.33333,2570
15.34167,2831
15.35000,3128
15.35833,3463
15.36667,3841
15.37500,4262
15.38333,4731
15.39167,5250
15.40000,5819
15.40833,6442
15.41667,7119
15.42500,7851
15.43333,8640
15.44167,9485
15.45000,10385
15.45833,11339
15.46667,12345
15.47500,13401
15.48333,14504
15.49167,15649
15.50000,16834
15.50833,18053
15.51667,19301
15.52500,20573
15.53333,21863
15.54167,23165
15.55000,24472
15.55833,25779
15.56667,27078
15.57500,28364
15.58333,29630
15.59167,30870
15.60000,32078
15.60833,33250
15.61667,34379
15.62500,35462
15.63333,36493
15.64167,37468
15.65000,38384
15.65833,39238
15.66667,40027
15.67500,40748
15.68333,41401
15.69167,41982
15.70000,42491
15.70833,42926
15.71667,43288
15.72500,43574
15.73333,43786
15.74167,43923
15.75000,43985
15.75833,43972
15.76667,43886
15.77500,43726
15.78333,43494
15.79167,43192
15.80000,42819
15.80833,42379
15.81667,41873
15.82500,41304
15.83333,40673
15.84167,39984
15.85000,39240
15.85833,38444
15.86667,37600
15.87500,36710
15.88333,35778
15.89167,34810
15.90000,33809
15.90833,32780
15.91667,31728
15.92500,30656
15.93333,29569
15.94167,28471
15.95000,27368
15.95833,26263
15.96667,25160
15.97500,24064
15.98333,22978
15.99167,21907
16.00000,20853
16.00833,19819
16.01667,18809
16.02500,17825
16.03333,16869
16.04167,15943
16.05000,15049
16.05833,14188
16.06667,13361
16.07500,12569
16.08333,11813
16.09167,11093
16.10000,10409
16.10833,9759
16.11667,9145
16.12500,8566
16.13333,8021
16.14167,7509
16.15000,7029
16.15833,6579
16.16667,6160
16.17500,5769
16.18333,5406
16.19167,5068
16.20000,4755
16.20833,4465
16.21667,4197
16.22500,3950
16.23333,3721
16.24167,3511
16.25000,3318
16.25833,3140
16.26667,2977
16.27500,2827
16.28333,2690
16.29167,2564
16.30000,2448
16.30833,2342
16.31667,2245
16.32500,2156
16.33333,2074
16.34167,1998
16.35000,1929
16.35833,1866
16.36667,1807
16.37500,1753
16.38333,1702
16.39167,1656
16.40000,1612
16.40833,1571
16.41667,1533
16.42500,1497
16.43333,1464
16.44167,1432
16.45000,1403
16.45833,1375
16.46667,1348
16.47500,1322
16.48333,1297
16.49167,1274
16.50000,1250
16.50833,1228
16.51667,1206
16.52500,1185
16.53333,1165
16.54167,1144
16.55000,1124
16.55833,1105
16.56667,1085
16.57500,1066
16.58333,1047
16.59167,1029
16.60000,1011
16.60833,994
16.61667,977
16.62500,960
16.63333,943
16.64167,927
16.65000,910
16.65833,895
16.66667,879
16.67500,864
16.68333,849
16.69167,835
16.70000,821
16.70833,807
16.71667,794
16.72500,782
16.73333,770
16.74167,758
16.75000,747
16.75833,737
16.76667,726
16.77500,717
16.78333,708
16.79167,700
16.80000,692
16.80833,684
16.81667,678
16.82500,671
16.83333,666
16.84167,660
16.85000,655
16.85833,650
16.86667,645
16.87500,641
16.88333,637
16.89167,634
16.90000,630
16.90833,627
16.91667,624
16.92500,621
16.93333,619
16.94167,617
16.95000,616
16.95833,614
16.96667,613
16.97500,611
16.98333,610
16.99167,608
17.00000,607
17.00833,606
17.01667,605
17.02500,605
17.03333,604
17.04167,604
17.05000,603
17.05833,602
17.06667,601
17.07500,600
17.08333,599
17.09167,599
17.10000,598
17.10833,598
17.11667,597
17.12500,597
17.13333,596
17.14167,596
17.15000,596
17.15833,595
17.16667,595
17.17500,594
17.18333,594
17.19167,593
17.20000,592
17.20833,591
17.21667,590
17.22500,589
17.23333,588
17.24167,587
17.25000,586
17.25833,586
17.26667,585
17.27500,584
17.28333,583
17.29167,582
17.30000,581
17.30833,580
17.31667,580
17.32500,579
17.33333,578
17.34167,577
17.35000,576
17.35833,575
17.36667,574
17.37500,574
17.38333,574
17.39167,574
17.40000,574
17.40833,574
17.41667,575
17.42500,576
17.43333,577
17.44167,578
17.45000,579
17.45833,581
17.46667,583
17.47500,586
17.48333,588
17.49167,591
17.50000,594
17.50833,597
17.51667,601
17.52500,605
17.53333,610
17.54167,614
17.55000,619
17.55833,624
17.56667,629
17.57500,635
17.58333,641
17.59167,647
17.60000,653
17.60833,659
17.61667,666
17.62500,672
17.63333,678
17.64167,684
17.65000,690
17.65833,697
17.66667,703
17.67500,709
17.68333,715
17.69167,721
17.70000,727
17.70833,733
17.71667,738
17.72500,744
17.73333,749
17.74167,754
17.75000,759
17.75833,764
17.76667,768
17.77500,772
17.78333,775
17.79167,778
17.80000,781
17.80833,784
17.81667,786
17.82500,789
17.83333,791
17.84167,792
17.85000,793
17.85833,793
17.86667,794
17.87500,794
17.88333,794
17.89167,793
17.90000,792
17.90833,790
17.91667,787
17.92500,785
17.93333,782
17.94167,778
17.95000,775
17.95833,771
17.96667,767
17.97500,762
17.98333,757
17.99167,752
18.00000,746
18.00833,740
18.01667,734
18.02500,727
18.03333,720
18.04167,714
18.05000,707
18.05833,700
18.06667,692
18.07500,685
18.08333,678
18.09167,671
18.10000,663
18.10833,656
18.11667,649
18.12500,642
18.13333,635
18.14167,628
18.15000,621
18.15833,613
18.16667,606
18.17500,599
18.18333,591
18.19167,585
18.20000,578
18.20833,572
18.21667,565
18.22500,559
18.23333,554
18.24167,548
18.25000,542
18.25833,537
18.26667,533
18.27500,528
18.28333,524
18.29167,520
18.30000,516
18.30833,513
18.31667,510
18.32500,507
18.33333,505
18.34167,503
18.35000,501
18.35833,499
18.36667,498
18.37500,497
18.38333,496
18.39167,496
18.40000,496
18.40833,496
18.41667,496
18.42500,497
18.43333,498
18.44167,499
18.45000,500
18.45833,502
18.46667,504
18.47500,507
18.48333,509
18.49167,512
18.50000,514
18.50833,517
18.51667,520
18.52500,524
18.53333,527
18.54167,531
18.55000,534
18.55833,538
18.56667,542
18.57500,547
18.58333,551
18.59167,556
18.60000,561
18.60833,565
18.61667,569
18.62500,574
18.63333,579
18.64167,584
18.65000,588
18.65833,593
18.66667,598
18.67500,603
18.68333,607
18.69167,612
18.70000,617
18.70833,622
18.71667,628
18.72500,633
18.73333,638
18.74167,642
18.75000,646
18.75833,651
18.76667,655
18.77500,660
18.78333,664
18.79167,668
18.80000,672
18.80833,677
18.81667,681
18.82500,685
18.83333,689
18.84167,693
18.85000,697
18.85833,701
18.86667,705
18.87500,709
18.88333,713
18.89167,717
18.90000,721
18.90833,724
18.91667,727
18.92500,730
18.93333,733
18.94167,736
18.95000,739
18.95833,742
18.96667,745
18.97500,747
18.98333,749
18.99167,752
19.00000,753
19.00833,755
19.01667,757
19.02500,759
19.03333,760
19.04167,761
19.05000,763
19.05833,764
19.06667,765
19.07500,765
19.08333,766
19.09167,766
19.10000,766
19.10833,766
19.11667,765
19.12500,765
19.13333,764
19.14167,763
19.15000,761
19.15833,760
19.16667,758
19.17500,755
19.18333,753
19.19167,751
19.20000,748
19.20833,745
19.21667,742
19.22500,738
19.23333,735
19.24167,731
19.25000,727
19.25833,723
19.26667,718
19.27500,714
19.28333,709
19.29167,704
19.30000,698
19.30833,693
19.31667,687
19.32500,681
19.33333,675
19.34167,669
19.35000,664
19.35833,657
19.36667,651
19.37500,645
19.38333,638
19.39167,632
19.40000,625
19.40833,618
19.41667,611
19.42500,604
19.43333,598
19.44167,590
19.45000,583
19.45833,576
19.46667,569
19.47500,563
19.48333,556
19.49167,549
19.50000,542
19.50833,535
19.51667,528
19.52500,521
19.53333,515
19.54167,508
19.55000,502
19.55833,496
19.56667,490
19.57500,484
19.58333,478
19.59167,472
19.60000,466
19.60833,461
19.61667,455
19.62500,450
19.63333,445
19.64167,441
19.65000,436
19.65833,432
19.66667,428
19.67500,424
19.68333,420
19.69167,417
19.70000,414
19.70833,412
19.71667,410
19.72500,408
19.73333,406
19.74167,405
19.75000,404
19.75833,404
19.76667,404
19.77500,404
19.78333,406
19.79167,407
19.80000,409
19.80833,411
19.81667,414
19.82500,418
19.83333,422
19.84167,427
19.85000,432
19.85833,437
19.86667,443
19.87500,450
19.88333,458
19.89167,466
19.90000,475
19.90833,485
19.91667,495
19.92500,505
19.93333,516
19.94167,528
19.95000,540
19.95833,553
19.96667,566
19.97500,579
19.98333,593
19.99167,607
20.00000,622
20.00833,636
20.01667,651
20.02500,666
20.03333,682
20.04167,697
20.05000,712
20.05833,728
20.06667,743
20.07500,758
20.08333,773
20.09167,788
20.10000,803
20.10833,817
20.11667,830
20.12500,843
20.13333,856
20.14167,869
20.15000,881
20.15833,893
20.16667,904
20.17500,914
20.18333,923
20.19167,932
20.20000,941
20.20833,949
20.21667,956
20.22500,963
20.23333,969
20.24167,975
20.25000,979
20.25833,983
20.26667,987
20.27500,989
20.28333,991
20.29167,992
20.30000,993
20.30833,993
20.31667,992
20.32500,991
20.33333,989
20.34167,987
20.35000,984
20.35833,980
20.36667,976
20.37500,970
20.38333,965
20.39167,959
20.40000,952
20.40833,945
20.41667,937
20.42500,929
20.43333,920
20.44167,911
20.45000,902
20.45833,892
20.46667,882
20.47500,871
20.48333,861
20.49167,850
20.50000,839
20.50833,828
20.51667,817
20.52500,806
20.53333,794
20.54167,783
20.55000,771
20.55833,759
20.56667,748
20.57500,737
20.58333,726
20.59167,715
20.60000,704
20.60833,694
20.61667,684
20.62500,674
20.63333,664
20.64167,655
20.65000,646
20.65833,638
20.66667,629
20.67500,621
20.68333,613
20.69167,605
20.70000,598
20.70833,591
20.71667,585
20.72500,578
20.73333,572
20.74167,566
20.75000,561
20.75833,556
20.76667,552
20.77500,547
20.78333,543
20.79167,539
20.80000,536
20.80833,533
20.81667,531
20.82500,528
20.83333,526
20.84167,525
20.85000,523
20.85833,523
20.86667,523
20.87500,523
20.88333,523
20.89167,525
20.90000,527
20.90833,530
20.91667,534
20.92500,539
20.93333,544
20.94167,551
20.95000,559
20.95833,568
20.96667,579
20.97500,591
20.98333,606
20.99167,623
21.00000,641
21.00833,662
21.01667,686
21.02500,712
21.03333,741
21.04167,772
21.05000,807
21.05833,844
21.06667,885
21.07500,928
21.08333,975
21.09167,1026
21.10000,1080
21.10833,1138
21.11667,1200
21.12500,1265
21.13333,1333
21.14167,1404
21.15000,1477
21.15833,1554
21.16667,1634
21.17500,1716
21.18333,1801
21.19167,1887
21.20000,1976
21.20833,2066
21.21667,2157
21.22500,2249
21.23333,2341
21.24167,2434
21.25000,2526
21.25833,2619
21.26667,2711
21.27500,2802
21.28333,2891
21.29167,2979
21.30000,3065
21.30833,3149
21.31667,3231
21.32500,3310
21.33333,3387
21.34167,3461
21.35000,3532
21.35833,3601
21.36667,3666
21.37500,3728
21.38333,3788
21.39167,3844
21.40000,3897
21.40833,3947
21.41667,3994
21.42500,4037
21.43333,4077
21.44167,4114
21.45000,4148
21.45833,4180
21.46667,4208
21.47500,4233
21.48333,4255
21.49167,4274
21.50000,4290
21.50833,4303
21.51667,4313
21.52500,4319
21.53333,4323
21.54167,4323
21.55000,4319
21.55833,4312
21.56667,4302
21.57500,4288
21.58333,4271
21.59167,4251
21.60000,4226
21.60833,4199
21.61667,4167
21.62500,4131
21.63333,4092
21.64167,4050
21.65000,4005
21.65833,3956
21.66667,3904
21.67500,3849
21.68333,3791
21.69167,3731
21.70000,3667
21.70833,3602
21.71667,3535
21.72500,3465
21.73333,3394
21.74167,3322
21.75000,3248
21.75833,3173
21.76667,3097
21.77500,3021
21.78333,2945
21.79167,2869
21.80000,2794
21.80833,2718
21.81667,2644
21.82500,2570
21.83333,2497
21.84167,2425
21.85000,2355
21.85833,2286
21.86667,2219
21.87500,2153
21.88333,2090
21.89167,2028
21.90000,1968
21.90833,1909
21.91667,1853
21.92500,1799
21.93333,1746
21.94167,1696
21.95000,1647
21.95833,1600
21.96667,1555
21.97500,1511
21.98333,1469
21.99167,1428
22.00000,1389
22.00833,1351
22.01667,1315
22.02500,1280
22.03333,1246
22.04167,1213
22.05000,1181
22.05833,1150
22.06667,1119
22.07500,1090
22.08333,1060
22.09167,1032
22.10000,1005
22.10833,978
22.11667,952
22.12500,926
22.13333,901
22.14167,876
22.15000,852
22.15833,829
22.16667,806
22.17500,783
22.18333,761
22.19167,739
22.20000,718
22.20833,697
22.21667,676
22.22500,656
22.23333,637
22.24167,619
22.25000,601
22.25833,583
22.26667,566
22.27500,550
22.28333,534
22.29167,519
22.30000,505
22.30833,491
22.31667,478
22.32500,465
22.33333,453
22.34167,442
22.35000,432
22.35833,422
22.36667,412
22.37500,402
22.38333,393
22.39167,385
22.40000,377
22.40833,370
22.41667,364
22.42500,358
22.43333,352
22.44167,347
22.45000,342
22.45833,338
22.46667,334
22.47500,330
22.48333,327
22.49167,325
22.50000,323
22.50833,320
22.51667,318
22.52500,317
22.53333,316
22.54167,316
22.55000,316
22.55833,317
22.56667,318
22.57500,318
22.58333,320
22.59167,322
22.60000,324
22.60833,327
22.61667,330
22.62500,333
22.63333,337
22.64167,341
22.65000,346
22.65833,351
22.66667,356
22.67500,362
22.68333,368
22.69167,374
22.70000,381
22.70833,388
22.71667,395
22.72500,403
22.73333,411
22.74167,420
22.75000,429
22.75833,438
22.76667,447
22.77500,456
22.78333,466
22.79167,475
22.80000,485
22.80833,495
22.81667,505
22.82500,516
22.83333,526
22.84167,536
22.85000,546
22.85833,556
22.86667,566
22.87500,576
22.88333,586
22.89167,595
22.90000,604
22.90833,613
22.91667,623
22.92500,632
22.93333,641
22.94167,649
22.95000,658
22.95833,666
22.96667,674
22.97500,681
22.98333,688
22.99167,695
23.00000,701
23.00833,707
23.01667,713
23.02500,719
23.03333,724
23.04167,729
23.05000,733
23.05833,737
23.06667,741
23.07500,744
23.08333,747
23.09167,749
23.10000,751
23.10833,753
23.11667,754
23.12500,755
23.13333,755
23.14167,755
23.15000,754
23.15833,753
23.16667,751
23.17500,750
23.18333,747
23.19167,744
23.20000,741
23.20833,737
23.21667,733
23.22500,728
23.23333,722
23.24167,716
23.25000,710
23.25833,704
23.26667,697
23.27500,690
23.28333,683
23.29167,675
23.30000,667
23.30833,660
23.31667,651
23.32500,643
23.33333,635
23.34167,626
23.35000,617
23.35833,608
23.36667,600
23.37500,591
23.38333,583
23.39167,574
23.40000,566
23.40833,557
23.41667,550
23.42500,542
23.43333,534
23.44167,527
23.45000,520
23.45833,513
23.46667,506
23.47500,499
23.48333,493
23.49167,487
23.50000,481
23.50833,475
23.51667,470
23.52500,465
23.53333,460
23.54167,455
23.55000,450
23.55833,446
23.56667,442
23.57500,438
23.58333,434
23.59167,430
23.60000,427
23.60833,424
23.61667,421
23.62500,418
23.63333,415
23.64167,413
23.65000,411
23.65833,409
23.66667,407
23.67500,405
23.68333,403
23.69167,402
23.70000,400
23.70833,399
23.71667,397
23.72500,396
23.73333,395
23.74167,393
23.75000,392
23.75833,392
23.76667,391
23.77500,390
23.78333,389
23.79167,388
23.80000,387
23.80833,386
23.81667,385
23.82500,384
23.83333,383
23.84167,383
23.85000,382
23.85833,381
23.86667,380
23.87500,379
23.88333,378
23.89167,378
23.90000,377
23.90833,377
23.91667,376
23.92500,375
23.93333,375
23.94167,374
23.95000,373
23.95833,372
23.96667,371
23.97500,371
23.98333,370
23.99167,370
24.00000,369
24.00833,368
24.01667,368
24.02500,367
24.03333,366
24.04167,366
24.05000,365
24.05833,365
24.06667,364
24.07500,363
24.08333,362
24.09167,362
24.10000,361
24.10833,360
24.11667,360
24.12500,359
24.13333,358
24.14167,358
24.15000,357
24.15833,357
24.16667,356
24.17500,356
24.18333,356
24.19167,355
24.20000,354
24.20833,354
24.21667,354
24.22500,354
24.23333,354
24.24167,354
24.25000,354
24.25833,354
24.26667,354
24.27500,355
24.28333,355
24.29167,355
24.30000,356
24.30833,357
24.31667,358
24.32500,359
24.33333,361
24.34167,363
24.35000,365
24.35833,367
24.36667,370
24.37500,374
24.38333,379
24.39167,384
24.40000,389
24.40833,395
24.41667,403
24.42500,411
24.43333,420
24.44167,430
24.45000,442
24.45833,455
24.46667,469
24.47500,484
24.48333,502
24.49167,521
24.50000,542
24.50833,564
24.51667,588
24.52500,615
24.53333,644
24.54167,675
24.55000,709
24.55833,745
24.56667,784
24.57500,825
24.58333,868
24.59167,914
24.60000,962
24.60833,1014
24.61667,1067
24.62500,1123
24.63333,1182
24.64167,1244
24.65000,1307
24.65833,1373
24.66667,1441
24.67500,1511
24.68333,1582
24.69167,1655
24.70000,1729
24.70833,1805
24.71667,1882
24.72500,1960
24.73333,2039
24.74167,2118
24.75000,2198
24.75833,2277
24.76667,2357
24.77500,2436
24.78333,2515
24.79167,2594
24.80000,2672
24.80833,2749
24.81667,2824
24.82500,2898
24.83333,2971
24.84167,3042
24.85000,3111
24.85833,3178
24.86667,3243
24.87500,3307
24.88333,3368
24.89167,3428
24.90000,3485
24.90833,3539
24.91667,3591
24.92500,3641
24.93333,3689
24.94167,3734
24.95000,3777
24.95833,3818
24.96667,3856
24.97500,3891
24.98333,3924
24.99167,3954
25.00000,3982
25.00833,4007
25.01667,4029
25.02500,4048
25.03333,4065
25.04167,4079
25.05000,4090
25.05833,4098
25.06667,4104
25.07500,4107
25.08333,4107
25.09167,4103
25.10000,4097
25.10833,4088
25.11667,4075
25.12500,4060
25.13333,4040
25.14167,4017
25.15000,3991
25.15833,3962
25.16667,3930
25.17500,3894
25.18333,3856
25.19167,3813
25.20000,3768
25.20833,3720
25.21667,3669
25.22500,3615
25.23333,3559
25.24167,3500
25.25000,3439
25.25833,3375
25.26667,3309
25.27500,3242
25.28333,3172
25.29167,3100
25.30000,3027
25.30833,2953
25.31667,2878
25.32500,2802
25.33333,2726
25.34167,2649
25.35000,2572
25.35833,2495
25.36667,2418
25.37500,2341
25.38333,2265
25.39167,2189
25.40000,2114
25.40833,2040
25.41667,1967
25.42500,1896
25.43333,1826
25.44167,1757
25.45000,1690
25.45833,1624
25.46667,1561
25.47500,1499
25.48333,1439
25.49167,1381
25.50000,1325
25.50833,1271
25.51667,1220
25.52500,1170
25.53333,1122
25.54167,1077
25.55000,1033
25.55833,991
25.56667,952
25.57500,914
25.58333,878
25.59167,844
25.60000,811
25.60833,780
25.61667,751
25.62500,724
25.63333,698
25.64167,674
25.65000,651
25.65833,629
25.66667,609
25.67500,589
25.68333,571
25.69167,554
25.70000,538
25.70833,523
25.71667,509
25.72500,496
25.73333,483
25.74167,471
25.75000,460
25.75833,449
25.76667,440
25.77500,430
25.78333,421
25.79167,413
25.80000,404
25.80833,396
25.81667,389
25.82500,382
25.83333,375
25.84167,369
25.85000,362
25.85833,357
25.86667,351
25.87500,345
25.88333,340
25.89167,335
25.90000,330
25.90833,324
25.91667,319
25.92500,314
25.93333,309
25.94167,304
25.95000,300
25.95833,295
25.96667,291
25.97500,286
25.98333,282
25.99167,277
26.00000,273
26.00833,268
26.01667,264
26.02500,260
26.03333,256
26.04167,252
26.05000,248
26.05833,243
26.06667,239
26.07500,235
26.08333,231
26.09167,227
26.10000,223
26.10833,219
26.11667,215
26.12500,211
26.13333,208
26.14167,204
26.15000,201
26.15833,198
26.16667,194
26.17500,191
26.18333,187
26.19167,184
26.20000,181
26.20833,178
26.21667,175
26.22500,172
26.23333,169
26.24167,166
26.25000,164
26.25833,162
26.26667,159
26.27500,157
26.28333,155
26.29167,153
26.30000,151
26.30833,149
26.31667,147
26.32500,146
26.33333,144
26.34167,142
26.35000,140
26.35833,139
26.36667,138
26.37500,137
26.38333,136
26.39167,134
26.40000,133
26.40833,132
26.41667,132
26.42500,131
26.43333,130
26.44167,129
26.45000,128
26.45833,127
26.46667,126
26.47500,126
26.48333,125
26.49167,125
26.50000,125
26.50833,124
26.51667,124
26.52500,124
26.53333,124
26.54167,124
26.55000,124
26.55833,124
26.56667,124
26.57500,124
26.58333,123
26.59167,124
26.60000,124
26.60833,123
26.61667,124
26.62500,124
26.63333,124
26.64167,124
26.65000,124
26.65833,123
26.66667,124
26.67500,124
26.68333,124
26.69167,124
26.70000,123
26.70833,123
26.71667,124
26.72500,123
26.73333,123
26.74167,123
26.75000,123
26.75833,123
26.76667,123
26.77500,123
26.78333,123
26.79167,124
26.80000,124
26.80833,124
26.81667,124
26.82500,124
26.83333,124
26.84167,124
26.85000,124
26.85833,124
26.86667,125
26.87500,125
26.88333,126
26.89167,126
26.90000,126
26.90833,126
26.91667,126
26.92500,126
26.93333,126
26.94167,126
26.95000,126
26.95833,126
26.96667,126
26.97500,127
26.98333,127
26.99167,127
27.00000,127
27.00833,127
27.01667,127
27.02500,127
27.03333,128
27.04167,128
27.05000,128
27.05833,128
27.06667,128
27.07500,127
27.08333,127
27.09167,128
27.10000,128
27.10833,129
27.11667,129
27.12500,129
27.13333,129
27.14167,129
27.15000,129
27.15833,129
27.16667,129
27.17500,129
27.18333,129
27.19167,129
27.20000,129
27.20833,130
27.21667,129
27.22500,129
27.23333,130
27.24167,130
27.25000,130
27.25833,130
27.26667,130
27.27500,130
27.28333,130
27.29167,130
27.30000,130
27.30833,130
27.31667,129
27.32500,129
27.33333,128
27.34167,128
27.35000,128
27.35833,128
27.36667,127
27.37500,127
27.38333,127
27.39167,126
27.40000,126
27.40833,126
27.41667,126
27.42500,125
27.43333,125
27.44167,124
27.45000,123
27.45833,122
27.46667,121
27.47500,121
27.48333,120
27.49167,120
27.50000,119
27.50833,119
27.51667,118
27.52500,118
27.53333,118
27.54167,117
27.55000,117
27.55833,116
27.56667,115
27.57500,115
27.58333,114
27.59167,113
27.60000,113
27.60833,112
27.61667,111
27.62500,110
27.63333,109
27.64167,108
27.65000,107
27.65833,106
27.66667,105
27.67500,105
27.68333,104
27.69167,103
27.70000,102
27.70833,101
27.71667,100
27.72500,99
27.73333,98
27.74167,98
27.75000,97
27.75833,96
27.76667,95
27.77500,95
27.78333,94
27.79167,93
27.80000,93
27.80833,92
27.81667,91
27.82500,90
27.83333,89
27.84167,89
27.85000,89
27.85833,88
27.86667,88
27.87500,87
27.88333,87
27.89167,86
27.90000,86
27.90833,85
27.91667,85
27.92500,85
27.93333,84
27.94167,84
27.95000,84
27.95833,84
27.96667,83
27.97500,83
27.98333,83
27.99167,83
28.00000,82
28.00833,82
28.01667,82
28.02500,82
28.03333,83
28.04167,83
28.05000,83
28.05833,84
28.06667,84
28.07500,84
28.08333,85
28.09167,86
28.10000,86
28.10833,87
28.11667,87
28.12500,87
28.13333,87
28.14167,87
28.15000,88
28.15833,88
28.16667,88
28.17500,89
28.18333,89
28.19167,89
28.20000,90
28.20833,90
28.21667,90
28.22500,90
28.23333,91
28.24167,91
28.25000,92
28.25833,93
28.26667,93
28.27500,94
28.28333,95
28.29167,95
28.30000,96
28.30833,96
28.31667,97
28.32500,98
28.33333,98
28.34167,99
28.35000,100
28.35833,101
28.36667,103
28.37500,104
28.38333,105
28.39167,107
28.40000,108
28.40833,110
28.41667,112
28.42500,114
28.43333,117
28.44167,120
28.45000,123
28.45833,127
28.46667,131
28.47500,136
28.48333,141
28.49167,147
28.50000,153
28.50833,160
28.51667,167
28.52500,176
28.53333,185
28.54167,195
28.55000,205
28.55833,216
28.56667,229
28.57500,242
28.58333,256
28.59167,273
28.60000,290
28.60833,308
28.61667,327
28.62500,347
28.63333,368
28.64167,391
28.65000,415
28.65833,441
28.66667,467
28.67500,496
28.68333,525
28.69167,557
28.70000,590
28.70833,624
28.71667,659
28.72500,696
28.73333,735
28.74167,775
28.75000,816
28.75833,858
28.76667,902
28.77500,947
28.78333,994
28.79167,1041
28.80000,1090
28.80833,1139
28.81667,1190
28.82500,1241
28.83333,1293
28.84167,1345
28.85000,1398
28.85833,1451
28.86667,1504
28.87500,1558
28.88333,1612
28.89167,1665
28.90000,1719
28.90833,1773
28.91667,1826
28.92500,1879
28.93333,1931
28.94167,1981
28.95000,2032
28.95833,2081
28.96667,2130
28.97500,2177
28.98333,2224
28.99167,2269
29.00000,2313
29.00833,2355
29.01667,2396
29.02500,2436
29.03333,2474
29.04167,2511
29.05000,2546
29.05833,2580
29.06667,2612
29.07500,2642
29.08333,2670
29.09167,2698
29.10000,2723
29.10833,2747
29.11667,2769
29.12500,2790
29.13333,2809
29.14167,2827
29.15000,2842
29.15833,2857
29.16667,2870
29.17500,2881
29.18333,2891
29.19167,2899
29.20000,2906
29.20833,2911
29.21667,2915
29.22500,2918
29.23333,2919
29.24167,2919
29.25000,2917
29.25833,2914
29.26667,2910
29.27500,2904
29.28333,2896
29.29167,2887
29.30000,2877
29.30833,2865
29.31667,2852
29.32500,2837
29.33333,2821
29.34167,2803
29.35000,2784
29.35833,2763
29.36667,2741
29.37500,2717
29.38333,2691
29.39167,2665
29.40000,2637
29.40833,2608
29.41667,2577
29.42500,2545
29.43333,2512
29.44167,2477
29.45000,2441
29.45833,2404
29.46667,2365
29.47500,2325
29.48333,2284
29.49167,2242
29.50000,2200
29.50833,2157
29.51667,2112
29.52500,2067
29.53333,2020
29.54167,1974
29.55000,1927
29.55833,1879
29.56667,1832
29.57500,1784
29.58333,1736
29.59167,1688
29.60000,1640
29.60833,1592
29.61667,1544
29.62500,1496
29.63333,1449
29.64167,1401
29.65000,1354
29.65833,1308
29.66667,1263
29.67500,1218
29.68333,1174
29.69167,1130
29.70000,1088
29.70833,1046
29.71667,1006
29.72500,966
29.73333,927
29.74167,889
29.75000,853
29.75833,817
29.76667,783
29.77500,749
29.78333,717
29.79167,685
29.80000,655
29.80833,627
29.81667,598
29.82500,571
29.83333,545
29.84167,520
29.85000,496
29.85833,473
29.86667,451
29.87500,431
29.88333,411
29.89167,392
29.90000,374
29.90833,357
29.91667,340
29.92500,325
29.93333,310
29.94167,295
29.95000,282
29.95833,270
29.96667,258
29.97500,246
29.98333,235
29.99167,224
30.00000,214
30.00833,204
30.01667,195
30.02500,187
30.03333,179
30.04167,171
30.05000,163
30.05833,156
30.06667,149
30.07500,142
30.08333,136
30.09167,130
30.10000,124
30.10833,118
30.11667,112
30.12500,107
30.13333,102
30.14167,96
30.15000,92
30.15833,87
30.16667,82
30.17500,77
30.18333,73
30.19167,68
30.20000,64
30.20833,59
30.21667,55
30.22500,50
30.23333,46
30.24167,41
30.25000,37
30.25833,33
30.26667,28
30.27500,24
30.28333,20
30.29167,16
30.30000,12
30.30833,8
30.31667,4
30.32500,0
30.33333,-4
30.34167,-8
30.35000,-12
30.35833,-16
30.36667,-20
30.37500,-23
30.38333,-27
30.39167,-30
30.40000,-34
30.40833,-37
30.41667,-41
30.42500,-44
30.43333,-48
30.44167,-51
30.45000,-54
30.45833,-56
30.46667,-59
30.47500,-62
30.48333,-65
30.49167,-67
30.50000,-70
30.50833,-72
30.51667,-74
30.52500,-76
30.53333,-77
30.54167,-79
30.55000,-80
30.55833,-82
30.56667,-83
30.57500,-84
30.58333,-86
30.59167,-86
30.60000,-87
30.60833,-87
30.61667,-88
30.62500,-88
30.63333,-87
30.64167,-87
30.65000,-87
30.65833,-86
30.66667,-85
30.67500,-84
30.68333,-83
30.69167,-82
30.70000,-80
30.70833,-78
30.71667,-76
30.72500,-74
30.73333,-72
30.74167,-70
30.75000,-67
30.75833,-64
30.76667,-62
30.77500,-59
30.78333,-56
30.79167,-53
30.80000,-50
30.80833,-46
30.81667,-42
30.82500,-39
30.83333,-35
30.84167,-32
30.85000,-28
30.85833,-24
30.86667,-19
30.87500,-15
30.88333,-11
30.89167,-6
30.90000,-2
30.90833,3
30.91667,7
30.92500,12
30.93333,17
30.94167,22
30.95000,27
30.95833,32
30.96667,36
30.97500,41
30.98333,46
30.99167,50
31.00000,55
31.00833,60
31.01667,65
31.02500,69
31.03333,74
31.04167,78
31.05000,82
31.05833,87
31.06667,91
31.07500,95
31.08333,99
31.09167,103
31.10000,107
31.10833,111
31.11667,115
31.12500,118
31.13333,122
31.14167,125
31.15000,128
31.15833,132
31.16667,135
31.17500,138
31.18333,141
31.19167,144
31.20000,146
31.20833,148
31.21667,150
31.22500,153
31.23333,155
31.24167,157
31.25000,159
31.25833,161
31.26667,163
31.27500,164
31.28333,165
31.29167,167
31.30000,168
31.30833,169
31.31667,169
31.32500,170
31.33333,171
31.34167,172
31.35000,172
31.35833,173
31.36667,173
31.37500,174
31.38333,174
31.39167,174
31.40000,174
31.40833,174
31.41667,173
31.42500,173
31.43333,173
31.44167,172
31.45000,172
31.45833,171
31.46667,171
31.47500,171
31.48333,170
31.49167,170
31.50000,170
31.50833,169
31.51667,168
31.52500,167
31.53333,166
31.54167,166
31.55000,165
31.55833,165
31.56667,164
31.57500,163
31.58333,163
31.59167,163
31.60000,162
31.60833,162
31.61667,162
31.62500,162
31.63333,163
31.64167,163
31.65000,164
31.65833,164
31.66667,164
31.67500,165
31.68333,167
31.69167,168
31.70000,170
31.70833,172
31.71667,174
31.72500,176
31.73333,178
31.74167,180
31.75000,183
31.75833,185
31.76667,188
31.77500,191
31.78333,195
31.79167,198
31.80000,202
31.80833,207
31.81667,212
31.82500,217
31.83333,222
31.84167,228
31.85000,233
31.85833,239
31.86667,245
31.87500,252
31.88333,259
31.89167,266
31.90000,273
31.90833,280
31.91667,287
31.92500,295
31.93333,304
31.94167,312
31.95000,321
31.95833,329
31.96667,338
31.97500,346
31.98333,355
31.99167,364
32.00000,373
32.00833,382
32.01667,391
32.02500,401
32.03333,410
32.04167,420
32.05000,429
32.05833,439
32.06667,448
32.07500,457
32.08333,466
32.09167,476
32.10000,485
32.10833,494
32.11667,503
32.12500,512
32.13333,521
32.14167,530
32.15000,539
32.15833,547
32.16667,555
32.17500,563
32.18333,571
32.19167,579
32.20000,586
32.20833,593
32.21667,601
32.22500,607
32.23333,614
32.24167,621
32.25000,627
32.25833,634
32.26667,641
32.27500,647
32.28333,653
32.29167,659
32.30000,665
32.30833,670
32.31667,676
32.32500,680
32.33333,685
32.34167,689
32.35000,694
32.35833,698
32.36667,702
32.37500,707
32.38333,711
32.39167,714
32.40000,718
32.40833,721
32.41667,724
32.42500,727
32.43333,730
32.44167,732
32.45000,734
32.45833,736
32.46667,737
32.47500,739
32.48333,740
32.49167,741
32.50000,742
32.50833,742
32.51667,743
32.52500,743
32.53333,742
32.54167,742
32.55000,741
32.55833,740
32.56667,739
32.57500,738
32.58333,736
32.59167,734
32.60000,732
32.60833,729
32.61667,727
32.62500,724
32.63333,721
32.64167,718
32.65000,714
32.65833,710
32.66667,706
32.67500,702
32.68333,697
32.69167,692
32.70000,687
32.70833,682
32.71667,677
32.72500,672
32.73333,667
32.74167,662
32.75000,656
32.75833,650
32.76667,644
32.77500,639
32.78333,633
32.79167,627
32.80000,621
32.80833,616
32.81667,610
32.82500,604
32.83333,598
32.84167,593
32.85000,588
32.85833,582
32.86667,577
32.87500,572
32.88333,566
32.89167,561
32.90000,556
32.90833,551
32.91667,547
32.92500,542
32.93333,537
32.94167,532
32.95000,528
32.95833,524
32.96667,520
32.97500,516
32.98333,512
32.99167,509
33.00000,506
33.00833,503
33.01667,499
33.02500,496
33.03333,492
33.04167,489
33.05000,486
33.05833,484
33.06667,481
33.07500,479
33.08333,476
33.09167,474
33.10000,471
33.10833,469
33.11667,466
33.12500,464
33.13333,461
33.14167,459
33.15000,457
33.15833,455
33.16667,453
33.17500,451
33.18333,449
33.19167,446
33.20000,444
33.20833,441
33.21667,439
33.22500,436
33.23333,434
33.24167,432
33.25000,430
33.25833,427
33.26667,425
33.27500,422
33.28333,419
33.29167,417
33.30000,414
33.30833,411
33.31667,408
33.32500,405
33.33333,402
33.34167,399
33.35000,396
33.35833,393
33.36667,390
33.37500,386
33.38333,383
33.39167,380
33.40000,376
33.40833,373
33.41667,369
33.42500,365
33.43333,361
33.44167,357
33.45000,353
33.45833,349
33.46667,345
33.47500,341
33.48333,337
33.49167,333
33.50000,330
33.50833,326
33.51667,322
33.52500,317
33.53333,313
33.54167,309
33.55000,304
33.55833,300
33.56667,296
33.57500,291
33.58333,287
33.59167,283
33.60000,278
33.60833,274
33.61667,270
33.62500,265
33.63333,261
33.64167,257
33.65000,252
33.65833,247
33.66667,243
33.67500,238
33.68333,234
33.69167,229
33.70000,225
33.70833,221
33.71667,217
33.72500,213
33.73333,209
33.74167,205
33.75000,201
33.75833,197
33.76667,193
33.77500,189
33.78333,185
33.79167,181
33.80000,177
33.80833,173
33.81667,170
33.82500,166
33.83333,163
33.84167,160
33.85000,156
33.85833,152
33.86667,149
33.87500,145
33.88333,142
33.89167,138
33.90000,136
33.90833,133
33.91667,130
33.92500,127
33.93333,124
33.94167,122
33.95000,119
33.95833,116
33.96667,114
33.97500,111
33.98333,109
33.99167,106
34.00000,104
34.00833,101
34.01667,99
34.02500,97
34.03333,94
34.04167,92
34.05000,90
34.05833,89
34.06667,87
34.07500,85
34.08333,83
34.09167,82
34.10000,80
34.10833,79
34.11667,77
34.12500,76
34.13333,75
34.14167,74
34.15000,73
34.15833,72
34.16667,71
34.17500,70
34.18333,69
34.19167,68
34.20000,67
34.20833,66
34.21667,65
34.22500,64
34.23333,63
34.24167,63
34.25000,62
34.25833,62
34.26667,61
34.27500,60
34.28333,59
34.29167,58
34.30000,57
34.30833,56
34.31667,55
34.32500,55
34.33333,54
34.34167,54
34.35000,53
34.35833,53
34.36667,53
34.37500,53
34.38333,53
34.39167,52
34.40000,52
34.40833,52
34.41667,51
34.42500,51
34.43333,50
34.44167,49
34.45000,49
34.45833,49
34.46667,48
34.47500,48
34.48333,48
34.49167,48
34.50000,47
34.50833,47
34.51667,47
34.52500,47
34.53333,46
34.54167,47
34.55000,47
34.55833,46
34.56667,46
34.57500,46
34.58333,46
34.59167,45
34.60000,45
34.60833,44
34.61667,44
34.62500,43
34.63333,43
34.64167,43
34.65000,43
34.65833,43
34.66667,43
34.67500,43
34.68333,42
34.69167,42
34.70000,42
34.70833,41
34.71667,41
34.72500,41
34.73333,40
34.74167,40
34.75000,39
34.75833,39
34.76667,39
34.77500,39
34.78333,39
34.79167,39
34.80000,39
34.80833,38
34.81667,38
34.82500,38
34.83333,38
34.84167,38
34.85000,37
34.85833,37
34.86667,38
34.87500,37
34.88333,37
34.89167,37
34.90000,37
34.90833,36
34.91667,36
34.92500,36
34.93333,36
34.94167,36
34.95000,36
34.95833,36
34.96667,36
34.97500,36
34.98333,36
34.99167,36
35.00000,36
35.00833,36
35.01667,36
35.02500,36
35.03333,36
35.04167,36
35.05000,35
35.05833,35
35.06667,35
35.07500,35
35.08333,35
35.09167,36
35.10000,36
35.10833,37
35.11667,37
35.12500,37
35.13333,37
35.14167,37
35.15000,37
35.15833,37
35.16667,38
35.17500,38
35.18333,39
35.19167,40
35.20000,40
35.20833,40
35.21667,41
35.22500,41
35.23333,42
35.24167,42
35.25000,42
35.25833,43
35.26667,44
35.27500,44
35.28333,45
35.29167,46
35.30000,46
35.30833,47
35.31667,48
35.32500,48
35.33333,49
35.34167,50
35.35000,51
35.35833,52
35.36667,52
35.37500,53
35.38333,54
35.39167,55
35.40000,56
35.40833,57
35.41667,58
35.42500,58
35.43333,59
35.44167,60
35.45000,61
35.45833,63
35.46667,64
35.47500,65
35.48333,66
35.49167,67
35.50000,68
35.50833,70
35.51667,71
35.52500,71
35.53333,72
35.54167,73
35.55000,73
35.55833,74
35.56667,75
35.57500,76
35.58333,77
35.59167,78
35.60000,79
35.60833,80
35.61667,81
35.62500,82
35.63333,83
35.64167,84
35.65000,85
35.65833,86
35.66667,86
35.67500,87
35.68333,87
35.69167,88
35.70000,89
35.70833,90
35.71667,91
35.72500,92
35.73333,93
35.74167,93
35.75000,94
35.75833,95
35.76667,96
35.77500,97
35.78333,97
35.79167,98
35.80000,99
35.80833,99
35.81667,100
35.82500,100
35.83333,101
35.84167,101
35.85000,101
35.85833,102
35.86667,102
35.87500,103
35.88333,103
35.89167,103
35.90000,103
35.90833,104
35.91667,104
35.92500,104
35.93333,104
35.94167,104
35.95000,105
35.95833,105
35.96667,105
35.97500,106
35.98333,106
35.99167,106
36.00000,106
36.00833,106
36.01667,106
36.02500,107
36.03333,107
36.04167,107
36.05000,107
36.05833,107
36.06667,107
36.07500,106
36.08333,106
36.09167,106
36.10000,106
36.10833,105
36.11667,105
36.12500,105
36.13333,105
36.14167,105
36.15000,105
36.15833,105
36.16667,105
36.17500,104
36.18333,104
36.19167,103
36.20000,103
36.20833,103
36.21667,102
36.22500,102
36.23333,101
36.24167,100
36.25000,100
36.25833,100
36.26667,100
36.27500,99
36.28333,99
36.29167,98
36.30000,98
36.30833,97
36.31667,96
36.32500,96
36.33333,95
36.34167,95
36.35000,95
36.35833,94
36.36667,94
36.37500,93
36.38333,93
36.39167,92
36.40000,92
36.40833,91
36.41667,91
36.42500,90
36.43333,89
36.44167,88
36.45000,88
36.45833,87
36.46667,87
36.47500,87
36.48333,86
36.49167,86
36.50000,85
36.50833,84
36.51667,83
36.52500,83
36.53333,82
36.54167,82
36.55000,81
36.55833,81
36.56667,80
36.57500,80
36.58333,80
36.59167,80
36.60000,79
36.60833,79
36.61667,78
36.62500,78
36.63333,78
36.64167,78
36.65000,77
36.65833,76
36.66667,76
36.67500,75
36.68333,75
36.69167,75
36.70000,75
36.70833,75
36.71667,75
36.72500,75
36.73333,75
36.74167,75
36.75000,75
36.75833,75
36.76667,75
36.77500,75
36.78333,74
36.79167,74
36.80000,74
36.80833,75
36.81667,75
36.82500,75
36.83333,75
36.84167,75
36.85000,75
36.85833,76
36.86667,76
36.87500,76
36.88333,76
36.89167,77
36.90000,77
36.90833,78
36.91667,78
36.92500,79
36.93333,79
36.94167,79
36.95000,80
36.95833,80
36.96667,81
36.97500,81
36.98333,82
36.99167,83
37.00000,83
37.00833,84
37.01667,84
37.02500,85
37.03333,85
37.04167,85
37.05000,86
37.05833,87
37.06667,87
37.07500,88
37.08333,89
37.09167,89
37.10000,89
37.10833,90
37.11667,91
37.12500,92
37.13333,92
37.14167,93
37.15000,94
37.15833,94
37.16667,95
37.17500,96
37.18333,97
37.19167,97
37.20000,98
37.20833,99
37.21667,99
37.22500,100
37.23333,101
37.24167,102
37.25000,103
37.25833,104
37.26667,104
37.27500,105
37.28333,106
37.29167,107
37.30000,108
37.30833,109
37.31667,109
37.32500,110
37.33333,111
37.34167,112
37.35000,113
37.35833,114
37.36667,115
37.37500,116
37.38333,117
37.39167,118
37.40000,119
37.40833,120
37.41667,121
37.42500,121
37.43333,122
37.44167,123
37.45000,124
37.45833,125
37.46667,126
37.47500,127
37.48333,128
37.49167,129
37.50000,130
37.50833,131
37.51667,132
37.52500,133
37.53333,134
37.54167,135
37.55000,136
37.55833,137
37.56667,138
37.57500,139
37.58333,140
37.59167,140
37.60000,141
37.60833,142
37.61667,143
37.62500,144
37.63333,144
37.64167,145
37.65000,146
37.65833,147
37.66667,148
37.67500,148
37.68333,149
37.69167,150
37.70000,150
37.70833,151
37.71667,152
37.72500,153
37.73333,154
37.74167,155
37.75000,155
37.75833,156
37.76667,156
37.77500,157
37.78333,157
37.79167,158
37.80000,158
37.80833,158
37.81667,158
37.82500,159
37.83333,159
37.84167,159
37.85000,160
37.85833,160
37.86667,160
37.87500,160
37.88333,160
37.89167,161
37.90000,161
37.90833,161
37.91667,161
37.92500,161
37.93333,161
37.94167,161
37.95000,161
37.95833,160
37.96667,160
37.97500,160
37.98333,159
37.99167,159
38.00000,159
38.00833,159
38.01667,159
38.02500,159
38.03333,158
38.04167,158
38.05000,158
38.05833,158
38.06667,157
38.07500,156
38.08333,156
38.09167,156
38.10000,155
38.10833,154
38.11667,154
38.12500,153
38.13333,152
38.14167,152
38.15000,151
38.15833,151
38.16667,150
38.17500,149
38.18333,149
38.19167,148
38.20000,147
38.20833,146
38.21667,145
38.22500,144
38.23333,143
38.24167,142
38.25000,141
38.25833,140
38.26667,139
38.27500,138
38.28333,136
38.29167,135
38.30000,134
38.30833,133
38.31667,132
38.32500,131
38.33333,130
38.34167,129
38.35000,128
38.35833,127
38.36667,126
38.37500,124
38.38333,123
38.39167,122
38.40000,120
38.40833,119
38.41667,117
38.42500,115
38.43333,114
38.44167,114
38.45000,113
38.45833,111
38.46667,110
38.47500,108
38.48333,107
38.49167,106
38.50000,105
38.50833,104
38.51667,103
38.52500,102
38.53333,101
38.54167,100
38.55000,98
38.55833,96
38.56667,95
38.57500,93
38.58333,92
38.59167,91
38.60000,90
38.60833,88
38.61667,86
38.62500,85
38.63333,84
38.64167,83
38.65000,82
38.65833,80
38.66667,80
38.67500,79
38.68333,77
38.69167,76
38.70000,75
38.70833,73
38.71667,72
38.72500,71
38.73333,70
38.74167,68
38.75000,67
38.75833,65
38.76667,64
38.77500,63
38.78333,62
38.79167,61
38.80000,60
38.80833,59
38.81667,58
38.82500,57
38.83333,57
38.84167,56
38.85000,54
38.85833,53
38.86667,52
38.87500,51
38.88333,50
38.89167,49
38.90000,49
38.90833,48
38.91667,47
38.92500,46
38.93333,45
38.94167,44
38.95000,43
38.95833,43
38.96667,42
38.97500,41
38.98333,41
38.99167,40
39.00000,39
39.00833,38
39.01667,37
39.02500,36
39.03333,35
39.04167,35
39.05000,34
39.05833,34
39.06667,33
39.07500,33
39.08333,32
39.09167,31
39.10000,31
39.10833,31
39.11667,31
39.12500,31
39.13333,31
39.14167,30
39.15000,29
39.15833,29
39.16667,28
39.17500,28
39.18333,27
39.19167,27
39.20000,27
39.20833,26
39.21667,26
39.22500,26
39.23333,25
39.24167,25
39.25000,24
39.25833,24
39.26667,24
39.27500,23
39.28333,23
39.29167,24
39.30000,24
39.30833,24
39.31667,24
39.32500,23
39.33333,23
39.34167,23
39.35000,23
39.35833,22
39.36667,22
39.37500,22
39.38333,23
39.39167,23
39.40000,23
39.40833,22
39.41667,22
39.42500,22
39.43333,22
39.44167,21
39.45000,21
39.45833,21
39.46667,21
39.47500,21
39.48333,21
39.49167,20
39.50000,20
39.50833,20
39.51667,20
39.52500,20
39.53333,20
39.54167,20
39.55000,19
39.55833,19
39.56667,19
39.57500,19
39.58333,19
39.59167,19
39.60000,19
39.60833,19
39.61667,20
39.62500,20
39.63333,20
39.64167,20
39.65000,20
39.65833,20
39.66667,20
39.67500,20
39.68333,20
39.69167,20
39.70000,20
39.70833,19
39.71667,19
39.72500,19
39.73333,19
39.74167,19
39.75000,19
39.75833,19
39.76667,19
39.77500,19
39.78333,19
39.79167,19
39.80000,19
39.80833,19
39.81667,19
39.82500,19
39.83333,19
39.84167,19
39.85000,19
39.85833,19
39.86667,19
39.87500,19
39.88333,19
39.89167,19
39.90000,19
39.90833,19
39.91667,19
39.92500,19
39.93333,19
39.94167,19
39.95000,19
39.95833,19
39.96667,19
39.97500,19
39.98333,18
39.99167,18
40.00000,18
40.00833,18
40.01667,18
40.02500,19
40.03333,19
40.04167,19
40.05000,19
40.05833,18
40.06667,18
40.07500,19
40.08333,19
40.09167,19
40.10000,19
40.10833,19
40.11667,19
40.12500,19
40.13333,20
40.14167,20
40.15000,20
40.15833,20
40.16667,20
40.17500,20
40.18333,20
40.19167,20
40.20000,20
40.20833,21
40.21667,21
40.22500,21
40.23333,22
40.24167,22
40.25000,22
40.25833,23
40.26667,23
40.27500,23
40.28333,23
40.29167,23
40.30000,24
40.30833,24
40.31667,25
40.32500,25
40.33333,26
40.34167,26
40.35000,27
40.35833,28
40.36667,29
40.37500,30
40.38333,31
40.39167,32
40.40000,33
40.40833,34
40.41667,35
40.42500,36
40.43333,38
40.44167,39
40.45000,41
40.45833,42
40.46667,44
40.47500,46
40.48333,47
40.49167,49
40.50000,51
40.50833,53
40.51667,55
40.52500,58
40.53333,60
40.54167,62
40.55000,65
40.55833,67
40.56667,70
40.57500,72
40.58333,75
40.59167,78
40.60000,81
40.60833,84
40.61667,88
40.62500,91
40.63333,94
40.64167,98
40.65000,101
40.65833,105
40.66667,109
40.67500,113
40.68333,117
40.69167,121
40.70000,126
40.70833,130
40.71667,135
40.72500,139
40.73333,144
40.74167,148
40.75000,153
40.75833,158
40.76667,163
40.77500,168
40.78333,173
40.79167,178
40.80000,183
40.80833,189
40.81667,194
40.82500,200
40.83333,205
40.84167,211
40.85000,216
40.85833,222
40.86667,228
40.87500,234
40.88333,239
40.89167,245
40.90000,250
40.90833,256
40.91667,262
40.92500,267
40.93333,273
40.94167,278
40.95000,284
40.95833,289
40.96667,295
40.97500,301
40.98333,307
40.99167,312
41.00000,317
41.00833,323
41.01667,328
41.02500,333
41.03333,339
41.04167,344
41.05000,350
41.05833,355
41.06667,359
41.07500,364
41.08333,369
41.09167,374
41.10000,379
41.10833,384
41.11667,388
41.12500,393
41.13333,397
41.14167,401
41.15000,406
41.15833,409
41.16667,414
41.17500,418
41.18333,422
41.19167,426
41.20000,430
41.20833,433
41.21667,437
41.22500,441
41.23333,444
41.24167,447
41.25000,451
41.25833,454
41.26667,457
41.27500,459
41.28333,462
41.29167,465
41.30000,468
41.30833,471
41.31667,473
41.32500,476
41.33333,479
41.34167,481
41.35000,483
41.35833,485
41.36667,487
41.37500,490
41.38333,492
41.39167,494
41.40000,495
41.40833,497
41.41667,498
41.42500,500
41.43333,501
41.44167,502
41.45000,503
41.45833,504
41.46667,505
41.47500,506
41.48333,507
41.49167,507
41.50000,508
41.50833,509
41.51667,509
41.52500,509
41.53333,509
41.54167,509
41.55000,509
41.55833,509
41.56667,508
41.57500,508
41.58333,508
41.59167,508
41.60000,507
41.60833,507
41.61667,506
41.62500,505
41.63333,504
41.64167,503
41.65000,502
41.65833,500
41.66667,499
41.67500,498
41.68333,496
41.69167,494
41.70000,492
41.70833,490
41.71667,489
41.72500,487
41.73333,484
41.74167,482
41.75000,479
41.75833,476
41.76667,472
41.77500,470
41.78333,467
41.79167,464
41.80000,461
41.80833,458
41.81667,454
41.82500,451
41.83333,448
41.84167,445
41.85000,441
41.85833,438
41.86667,434
41.87500,431
41.88333,427
41.89167,423
41.90000,420
41.90833,416
41.91667,412
41.92500,409
41.93333,405
41.94167,401
41.95000,398
41.95833,394
41.96667,390
41.97500,386
41.98333,382
41.99167,378
42.00000,374
42.00833,370
42.01667,366
42.02500,362
42.03333,358
42.04167,354
42.05000,350
42.05833,347
42.06667,343
42.07500,339
42.08333,335
42.09167,332
42.10000,329
42.10833,325
42.11667,321
42.12500,318
42.13333,314
42.14167,311
42.15000,307
42.15833,304
42.16667,300
42.17500,297
42.18333,294
42.19167,291
42.20000,289
42.20833,286
42.21667,283
42.22500,280
42.23333,277
42.24167,275
42.25000,272
42.25833,269
42.26667,267
42.27500,265
42.28333,262
42.29167,259
42.30000,257
42.30833,255
42.31667,252
42.32500,250
42.33333,247
42.34167,245
42.35000,243
42.35833,241
42.36667,239
42.37500,237
42.38333,236
42.39167,234
42.40000,232
42.40833,230
42.41667,228
42.42500,226
42.43333,225
42.44167,224
42.45000,223
42.45833,221
42.46667,220
42.47500,218
42.48333,216
42.49167,214
42.50000,213
42.50833,211
42.51667,210
42.52500,209
42.53333,208
42.54167,207
42.55000,205
42.55833,204
42.56667,203
42.57500,202
42.58333,201
42.59167,200
42.60000,200
42.60833,199
42.61667,198
42.62500,197
42.63333,196
42.64167,195
42.65000,194
42.65833,193
42.66667,192
42.67500,191
42.68333,190
42.69167,188
42.70000,187
42.70833,186
42.71667,185
42.72500,184
42.73333,183
42.74167,182
42.75000,181
42.75833,181
42.76667,180
42.77500,179
42.78333,178
42.79167,178
42.80000,176
42.80833,175
42.81667,174
42.82500,173
42.83333,172
42.84167,171
42.85000,171
42.85833,169
42.86667,168
42.87500,167
42.88333,166
42.89167,165
42.90000,164
42.90833,164
42.91667,163
42.92500,162
42.93333,162
42.94167,161
42.95000,160
42.95833,159
42.96667,158
42.97500,157
42.98333,157
42.99167,156
43.00000,155
43.00833,154
43.01667,153
43.02500,152
43.03333,152
43.04167,151
43.05000,150
43.05833,149
43.06667,148
43.07500,148
43.08333,147
43.09167,146
43.10000,145
43.10833,144
43.11667,143
43.12500,142
43.13333,141
43.14167,140
43.15000,139
43.15833,138
43.16667,138
43.17500,137
43.18333,137
43.19167,136
43.20000,135
43.20833,134
43.21667,133
43.22500,133
43.23333,132
43.24167,131
43.25000,130
43.25833,129
43.26667,129
43.27500,128
43.28333,127
43.29167,126
43.30000,126
43.30833,125
43.31667,124
43.32500,123
43.33333,123
43.34167,123
43.35000,122
43.35833,121
43.36667,120
43.37500,119
43.38333,118
43.39167,118
43.40000,117
43.40833,116
43.41667,116
43.42500,115
43.43333,115
43.44167,115
43.45000,114
43.45833,113
43.46667,112
43.47500,111
43.48333,111
43.49167,110
43.50000,110
43.50833,109
43.51667,108
43.52500,107
43.53333,106
43.54167,105
43.55000,104
43.55833,104
43.56667,104
43.57500,103
43.58333,102
43.59167,102
43.60000,101
43.60833,100
43.61667,99
43.62500,99
43.63333,99
43.64167,98
43.65000,97
43.65833,97
43.66667,96
43.67500,95
43.68333,94
43.69167,94
43.70000,94
43.70833,93
43.71667,92
43.72500,91
43.73333,90
43.74167,90
43.75000,89
43.75833,89
43.76667,88
43.77500,87
43.78333,86
43.79167,86
43.80000,85
43.80833,84
43.81667,83
43.82500,82
43.83333,82
43.84167,81
43.85000,81
43.85833,80
43.86667,80
43.87500,79
43.88333,79
43.89167,79
43.90000,78
43.90833,78
43.91667,77
43.92500,77
43.93333,76
43.94167,76
43.95000,75
43.95833,74
43.96667,73
43.97500,72
43.98333,72
43.99167,71
44.00000,71
44.00833,70
44.01667,69
44.02500,68
44.03333,68
44.04167,67
44.05000,67
44.05833,66
44.06667,66
44.07500,65
44.08333,65
44.09167,65
44.10000,64
44.10833,64
44.11667,63
44.12500,62
44.13333,62
44.14167,61
44.15000,61
44.15833,60
44.16667,59
44.17500,59
44.18333,58
44.19167,58
44.20000,57
44.20833,57
44.21667,57
44.22500,56
44.23333,55
44.24167,54
44.25000,54
44.25833,53
44.26667,53
44.27500,53
44.28333,53
44.29167,53
44.30000,52
44.30833,52
44.31667,51
44.32500,51
44.33333,51
44.34167,50
44.35000,50
44.35833,49
44.36667,48
44.37500,48
44.38333,47
44.39167,47
44.40000,47
44.40833,46
44.41667,46
44.42500,45
44.43333,45
44.44167,44
44.45000,44
44.45833,43
44.46667,43
44.47500,43
44.48333,43
44.49167,42
44.50000,42
44.50833,42
44.51667,41
44.52500,40
44.53333,40
44.54167,40
44.55000,39
44.55833,39
44.56667,39
44.57500,39
44.58333,39
44.59167,39
44.60000,38
44.60833,37
44.61667,37
44.62500,36
44.63333,35
44.64167,35
44.65000,35
44.65833,34
44.66667,34
44.67500,34
44.68333,33
44.69167,33
44.70000,33
44.70833,33
44.71667,32
44.72500,32
44.73333,32
44.74167,32
44.75000,32
44.75833,32
44.76667,31
44.77500,31
44.78333,31
44.79167,30
44.80000,30
44.80833,29
44.81667,29
44.82500,29
44.83333,29
44.84167,28
44.85000,28
44.85833,27
44.86667,27
44.87500,27
44.88333,27
44.89167,27
44.90000,27
44.90833,26
44.91667,26
44.92500,26
44.93333,26
44.94167,26
44.95000,25
44.95833,25
44.96667,25
44.97500,25
44.98333,25
44.99167,25
45.00000,24
45.00833,24
45.01667,24
45.02500,24
45.03333,24
45.04167,23
45.05000,23
45.05833,23
45.06667,23
45.07500,22
45.08333,22
45.09167,22
45.10000,22
45.10833,22
45.11667,22
45.12500,22
45.13333,21
45.14167,21
45.15000,21
45.15833,21
45.16667,21
45.17500,21
45.18333,21
45.19167,21
45.20000,21
45.20833,21
45.21667,21
45.22500,21
45.23333,21
45.24167,21
45.25000,21
45.25833,20
45.26667,20
45.27500,20
45.28333,20
45.29167,20
45.30000,20
45.30833,20
45.31667,20
45.32500,20
45.33333,20
45.34167,20
45.35000,20
45.35833,20
45.36667,19
45.37500,19
45.38333,19
45.39167,19
45.40000,19
45.40833,19
45.41667,18
45.42500,19
45.43333,19
45.44167,19
45.45000,19
45.45833,19
45.46667,19
45.47500,19
45.48333,19
45.49167,20
45.50000,20
45.50833,20
45.51667,20
45.52500,20
45.53333,20
45.54167,20
45.55000,19
45.55833,19
45.56667,19
45.57500,19
45.58333,19
45.59167,19
45.60000,19
45.60833,19
45.61667,19
45.62500,19
45.63333,19
45.64167,19
45.65000,19
45.65833,19
45.66667,18
45.67500,18
45.68333,18
45.69167,18
45.70000,18
45.70833,18
45.71667,18
45.72500,18
45.73333,18
45.74167,17
45.75000,17
45.75833,17
45.76667,17
45.77500,17
45.78333,17
45.79167,17
45.80000,17
45.80833,17
45.81667,17
45.82500,16
45.83333,16
45.84167,16
45.85000,16
45.85833,16
45.86667,16
45.87500,16
45.88333,16
45.89167,16
45.90000,16
45.90833,15
45.91667,15
45.92500,15
45.93333,15
45.94167,15
45.95000,15
45.95833,15
45.96667,15
45.97500,15
45.98333,14
45.99167,14
46.00000,14
46.00833,13
46.01667,13
46.02500,14
46.03333,14
46.04167,14
46.05000,14
46.05833,13
46.06667,13
46.07500,12
46.08333,12
46.09167,12
46.10000,11
46.10833,11
46.11667,11
46.12500,11
46.13333,11
46.14167,12
46.15000,12
46.15833,11
46.16667,11
46.17500,11
46.18333,10
46.19167,10
46.20000,10
46.20833,11
46.21667,11
46.22500,11
46.23333,10
46.24167,10
46.25000,10
46.25833,10
46.26667,10
46.27500,10
46.28333,9
46.29167,9
46.30000,8
46.30833,8
46.31667,8
46.32500,8
46.33333,8
46.34167,7
46.35000,7
46.35833,7
46.36667,6
46.37500,6
46.38333,6
46.39167,5
46.40000,5
46.40833,5
46.41667,5
46.42500,5
46.43333,5
46.44167,5
46.45000,5
46.45833,5
46.46667,5
46.47500,4
46.48333,4
46.49167,3
46.50000,3
46.50833,3
46.51667,3
46.52500,2
46.53333,2
46.54167,2
46.55000,2
46.55833,1
46.56667,1
46.57500,1
46.58333,1
46.59167,0
46.60000,-0
46.60833,-0
46.61667,-0
46.62500,-1
46.63333,-1
46.64167,-1
46.65000,-1
46.65833,-2
46.66667,-2
46.67500,-2
46.68333,-2
46.69167,-2
46.70000,-2
46.70833,-2
46.71667,-2
46.72500,-2
46.73333,-2
46.74167,-2
46.75000,-3
46.75833,-3
46.76667,-4
46.77500,-4
46.78333,-4
46.79167,-4
46.80000,-4
46.80833,-4
46.81667,-4
46.82500,-4
46.83333,-4
46.84167,-4
46.85000,-5
46.85833,-5
46.86667,-5
46.87500,-5
46.88333,-5
46.89167,-5
46.90000,-6
46.90833,-6
46.91667,-5
46.92500,-5
46.93333,-5
46.94167,-6
46.95000,-6
46.95833,-7
46.96667,-7
46.97500,-7
46.98333,-7
46.99167,-7
47.00000,-7
47.00833,-7
47.01667,-7
47.02500,-7
47.03333,-6
47.04167,-6
47.05000,-7
47.05833,-7
47.06667,-7
47.07500,-7
47.08333,-6
47.09167,-6
47.10000,-5
47.10833,-5
47.11667,-5
47.12500,-5
47.13333,-5
47.14167,-5
47.15000,-6
47.15833,-5
47.16667,-5
47.17500,-4
47.18333,-4
47.19167,-4
47.20000,-4
47.20833,-4
47.21667,-3
47.22500,-3
47.23333,-3
47.24167,-3
47.25000,-2
47.25833,-2
47.26667,-2
47.27500,-1
47.28333,-1
47.29167,-1
47.30000,-1
47.30833,-0
47.31667,-0
47.32500,0
47.33333,1
47.34167,1
47.35000,2
47.35833,3
47.36667,3
47.37500,3
47.38333,4
47.39167,5
47.40000,6
47.40833,6
47.41667,7
47.42500,7
47.43333,8
47.44167,9
47.45000,9
47.45833,9
47.46667,10
47.47500,11
47.48333,11
47.49167,12
47.50000,13
47.50833,14
47.51667,15
47.52500,15
47.53333,16
47.54167,16
47.55000,17
47.55833,18
47.56667,19
47.57500,19
47.58333,20
47.59167,21
47.60000,22
47.60833,23
47.61667,23
47.62500,24
47.63333,25
47.64167,26
47.65000,26
47.65833,27
47.66667,28
47.67500,30
47.68333,31
47.69167,31
47.70000,32
47.70833,33
47.71667,34
47.72500,35
47.73333,36
47.74167,37
47.75000,38
47.75833,39
47.76667,39
47.77500,40
47.78333,41
47.79167,42
47.80000,43
47.80833,44
47.81667,45
47.82500,45
47.83333,45
47.84167,46
47.85000,46
47.85833,47
47.86667,48
47.87500,49
47.88333,49
47.89167,50
47.90000,51
47.90833,52
47.91667,52
47.92500,53
47.93333,54
47.94167,55
47.95000,56
47.95833,57
47.96667,58
47.97500,58
47.98333,59
47.99167,59
48.00000,59
48.00833,60
48.01667,61
48.02500,61
48.03333,61
48.04167,62
48.05000,63
48.05833,63
48.06667,63
48.07500,64
48.08333,64
48.09167,65
48.10000,65
48.10833,65
48.11667,65
48.12500,66
48.13333,66
48.14167,67
48.15000,68
48.15833,68
48.16667,69
48.17500,70
48.18333,70
48.19167,70
48.20000,70
48.20833,71
48.21667,71
48.22500,71
48.23333,71
48.24167,72
48.25000,72
48.25833,73
48.26667,73
48.27500,74
48.28333,74
48.29167,74
48.30000,74
48.30833,75
48.31667,75
48.32500,75
48.33333,75
48.34167,76
48.35000,76
48.35833,76
48.36667,76
48.37500,76
48.38333,77
48.39167,77
48.40000,77
48.40833,77
48.41667,77
48.42500,77
48.43333,77
48.44167,77
48.45000,77
48.45833,77
48.46667,77
48.47500,78
48.48333,78
48.49167,78
48.50000,79
48.50833,79
48.51667,79
48.52500,79
48.53333,78
48.54167,78
48.55000,78
48.55833,78
48.56667,78
48.57500,78
48.58333,78
48.59167,78
48.60000,78
48.60833,78
48.61667,78
48.62500,78
48.63333,79
48.64167,79
48.65000,79
48.65833,79
48.66667,79
48.67500,79
48.68333,79
48.69167,79
48.70000,80
48.70833,80
48.71667,80
48.72500,81
48.73333,81
48.74167,80
48.75000,80
48.75833,80
48.76667,80
48.77500,80
48.78333,80
48.79167,80
48.80000,80
48.80833,80
48.81667,80
48.82500,80
48.83333,80
48.84167,80
48.85000,80
48.85833,80
48.86667,80
48.87500,80
48.88333,80
48.89167,80
48.90000,80
48.90833,80
48.91667,80
48.92500,81
48.93333,81
48.94167,81
48.95000,81
48.95833,82
48.96667,82
48.97500,82
48.98333,81
48.99167,82
49.00000,82
49.00833,82
49.01667,82
49.02500,82
49.03333,83
49.04167,83
49.05000,83
49.05833,83
49.06667,82
49.07500,82
49.08333,82
49.09167,82
49.10000,82
49.10833,82
49.11667,82
49.12500,82
49.13333,82
49.14167,82
49.15000,82
49.15833,82
49.16667,82
49.17500,82
49.18333,82
49.19167,82
49.20000,82
49.20833,82
49.21667,82
49.22500,82
49.23333,82
49.24167,82
49.25000,82
49.25833,82
49.26667,82
49.27500,82
49.28333,82
49.29167,82
49.30000,81
49.30833,81
49.31667,81
49.32500,81
49.33333,81
49.34167,81
49.35000,80
49.35833,80
49.36667,80
49.37500,79
49.38333,79
49.39167,79
49.40000,79
49.40833,79
49.41667,79
49.42500,79
49.43333,79
49.44167,79
49.45000,79
49.45833,78
49.46667,78
49.47500,78
49.48333,78
49.49167,78
49.50000,78
49.50833,77
49.51667,77
49.52500,77
49.53333,77
49.54167,77
49.55000,77
49.55833,77
49.56667,76
49.57500,76
49.58333,76
49.59167,76
49.60000,75
49.60833,74
49.61667,74
49.62500,73
49.63333,73
49.64167,72
49.65000,72
49.65833,71
49.66667,71
49.67500,71
49.68333,70
49.69167,70
49.70000,70
49.70833,69
49.71667,69
49.72500,68
49.73333,68
49.74167,67
49.75000,67
49.75833,67
49.76667,66
49.77500,65
49.78333,65
49.79167,65
49.80000,65
49.80833,64
49.81667,64
49.82500,64
49.83333,63
49.84167,63
49.85000,62
49.85833,61
49.86667,60
49.87500,59
49.88333,58
49.89167,58
49.90000,57
49.90833,57
49.91667,56
49.92500,56
49.93333,56
49.94167,55
49.95000,55
49.95833,54
49.96667,54
49.97500,53
49.98333,52
49.99167,51
50.00000,51

