[Header]
Application Name,LabSolutions
Version,5.97 SP1
Data File Name,C:\Users\cremerlab\Desktop\Richa\Sep_2nd_2022_scfa_rt50min_final\Sep 2nd yield expt_922022_001_015.lcd
Output Date,9/3/2022
Output Time,5:41:22 AM

[File Information]
Type,Data File
Generated,9/3/2022 4:51:02 AM
Generated by,System Administrator
Modified,9/3/2022 5:41:22 AM
Modified by,System Administrator

[Sample Information]
Operator Name,System Administrator
Acquired,9/3/2022 4:51:21 AM
Sample Type,0:Unknown
Level,0
Sample Name,090222_C.aerofaciens_2
Sample ID,001
ISTD Amount1,1
ISTD Amount2,1
ISTD Amount3,1
ISTD Amount4,1
ISTD Amount5,1
ISTD Amount6,1
ISTD Amount7,1
ISTD Amount8,1
ISTD Amount9,1
ISTD Amount10,1
ISTD Amount11,1
ISTD Amount12,1
ISTD Amount13,1
ISTD Amount14,1
ISTD Amount15,1
ISTD Amount16,1
ISTD Amount17,1
ISTD Amount18,1
ISTD Amount19,1
ISTD Amount20,1
ISTD Amount21,1
ISTD Amount22,1
ISTD Amount23,1
ISTD Amount24,1
ISTD Amount25,1
ISTD Amount26,1
ISTD Amount27,1
ISTD Amount28,1
ISTD Amount29,1
ISTD Amount30,1
ISTD Amount31,1
ISTD Amount32,1
Sample Amount,1
Dilution Factor,1
Vial#,14
Injection Volume,20

[Original Files]
Data File,C:\Users\cremerlab\Desktop\Richa\Sep_2nd_2022_scfa_rt50min_final\Sep 2nd yield expt_922022_001_015.lcd
Method File,C:\Users\cremerlab\Desktop\Richa\acetate_excretion.lcm
Batch File,C:\Users\cremerlab\Desktop\Richa\Sep_2nd_2022_scfa_rt50min_final\Sep 2nd yield expt.lcb
Report Format File,c:\LabSolutions\System\DEFAULT.lsr

[File Description]


[Configuration]
Instrument Name,HPLC-PC-Instrument1
Instrument #,1
Line #,1
# of Detectors,2
Detector ID,Detector A,Detector B
Detector Name,Detector A,Detector B
# of Channels,1,1

[Peak Table(Detector A)]
# of Peaks,0

[Peak Table(Detector B)]
# of Peaks,11
Peak#,R.Time,I.Time,F.Time,Area,Height,A/H,Conc.,Mark,ID#,Name,k',Plate #,Plate Ht.,Tailing,Resolution,Sep.Factor,Area Ratio,Height Ratio,Conc. %,Norm Conc.
1,11.016,10.258,12.317,2266934,115983,19.545,0.000,   ,,,0.000,7549,19.870,0.968,0.000,0.000,0,0,0.000,0.000
2,14.329,12.667,15.183,3566892,76814,46.436,0.000,   ,,,0.301,2508,59.817,0.657,4.012,0.000,0,0,0.000,0.000
3,15.756,15.183,17.375,1396516,47786,29.225,0.000, V ,,,0.430,6928,21.650,1.141,1.500,1.431,0,0,0.000,0.000
4,17.868,17.375,18.408,9939,299,33.249,0.000, V ,,,0.622,6416,23.380,0.000,2.561,1.446,0,0,0.000,0.000
5,19.094,18.433,19.775,13229,314,42.159,0.000,   ,,,0.733,4337,34.589,0.982,1.195,1.179,0,0,0.000,0.000
6,20.307,19.775,20.900,22107,608,36.358,0.000,   ,,,0.843,7105,21.112,0.000,1.142,1.150,0,0,0.000,0.000
7,21.568,20.900,22.567,93478,2117,44.162,0.000, V ,,,0.958,5787,25.919,0.000,1.202,1.136,0,0,0.000,0.000
8,23.148,22.583,24.217,16098,297,54.122,0.000,   ,,,1.101,6455,23.237,0.000,1.382,1.150,0,0,0.000,0.000
9,25.083,24.217,26.508,155576,3669,42.407,0.000, V ,,,1.277,8807,17.033,1.119,1.742,1.159,0,0,0.000,0.000
10,29.238,28.350,30.633,140755,2859,49.236,0.000,   ,,,1.654,8713,17.216,1.215,3.579,1.295,0,0,0.000,0.000
11,32.510,31.675,34.425,42254,566,74.620,0.000,   ,,,1.951,5383,27.868,1.565,2.163,1.180,0,0,0.000,0.000

[LC Chromatogram(Detector B-Ch1)]
Interval(msec),500
# of Points,6001
Start Time(min),0.000
End Time(min),50.000
Intensity Units,mV
Intensity Multiplier,0.001
R.Time (min),Intensity
0.00000,-20
0.00833,-20
0.01667,-0
0.02500,-1
0.03333,-2
0.04167,-2
0.05000,-3
0.05833,-4
0.06667,-4
0.07500,-5
0.08333,-6
0.09167,-7
0.10000,-7
0.10833,-8
0.11667,-8
0.12500,-9
0.13333,-10
0.14167,-11
0.15000,-11
0.15833,-12
0.16667,-12
0.17500,-13
0.18333,-13
0.19167,-13
0.20000,-13
0.20833,-14
0.21667,-14
0.22500,-15
0.23333,-15
0.24167,-16
0.25000,-16
0.25833,-17
0.26667,-17
0.27500,-18
0.28333,-18
0.29167,-18
0.30000,-19
0.30833,-19
0.31667,-19
0.32500,-20
0.33333,-21
0.34167,-21
0.35000,-22
0.35833,-22
0.36667,-22
0.37500,-22
0.38333,-23
0.39167,-23
0.40000,-24
0.40833,-24
0.41667,-24
0.42500,-24
0.43333,-24
0.44167,-24
0.45000,-25
0.45833,-26
0.46667,-26
0.47500,-27
0.48333,-27
0.49167,-27
0.50000,-27
0.50833,-27
0.51667,-27
0.52500,-27
0.53333,-27
0.54167,-28
0.55000,-28
0.55833,-28
0.56667,-28
0.57500,-28
0.58333,-28
0.59167,-29
0.60000,-29
0.60833,-29
0.61667,-29
0.62500,-28
0.63333,-28
0.64167,-28
0.65000,-28
0.65833,-28
0.66667,-29
0.67500,-29
0.68333,-29
0.69167,-29
0.70000,-29
0.70833,-29
0.71667,-29
0.72500,-30
0.73333,-30
0.74167,-30
0.75000,-30
0.75833,-30
0.76667,-30
0.77500,-30
0.78333,-30
0.79167,-30
0.80000,-30
0.80833,-31
0.81667,-31
0.82500,-31
0.83333,-30
0.84167,-30
0.85000,-30
0.85833,-30
0.86667,-30
0.87500,-30
0.88333,-31
0.89167,-31
0.90000,-31
0.90833,-31
0.91667,-31
0.92500,-31
0.93333,-30
0.94167,-30
0.95000,-30
0.95833,-30
0.96667,-30
0.97500,-29
0.98333,-29
0.99167,-29
1.00000,-29
1.00833,-29
1.01667,-29
1.02500,-28
1.03333,-28
1.04167,-28
1.05000,-27
1.05833,-27
1.06667,-27
1.07500,-28
1.08333,-28
1.09167,-27
1.10000,-27
1.10833,-27
1.11667,-28
1.12500,-28
1.13333,-27
1.14167,-27
1.15000,-27
1.15833,-27
1.16667,-27
1.17500,-26
1.18333,-26
1.19167,-26
1.20000,-26
1.20833,-26
1.21667,-26
1.22500,-26
1.23333,-26
1.24167,-26
1.25000,-25
1.25833,-25
1.26667,-25
1.27500,-25
1.28333,-24
1.29167,-24
1.30000,-24
1.30833,-24
1.31667,-24
1.32500,-24
1.33333,-24
1.34167,-24
1.35000,-23
1.35833,-23
1.36667,-22
1.37500,-22
1.38333,-22
1.39167,-22
1.40000,-22
1.40833,-22
1.41667,-22
1.42500,-21
1.43333,-21
1.44167,-21
1.45000,-21
1.45833,-21
1.46667,-21
1.47500,-21
1.48333,-21
1.49167,-20
1.50000,-20
1.50833,-20
1.51667,-20
1.52500,-19
1.53333,-19
1.54167,-19
1.55000,-19
1.55833,-20
1.56667,-19
1.57500,-19
1.58333,-18
1.59167,-18
1.60000,-18
1.60833,-18
1.61667,-18
1.62500,-18
1.63333,-18
1.64167,-18
1.65000,-18
1.65833,-18
1.66667,-18
1.67500,-18
1.68333,-18
1.69167,-18
1.70000,-18
1.70833,-18
1.71667,-17
1.72500,-17
1.73333,-17
1.74167,-16
1.75000,-16
1.75833,-17
1.76667,-17
1.77500,-17
1.78333,-16
1.79167,-16
1.80000,-16
1.80833,-16
1.81667,-15
1.82500,-15
1.83333,-15
1.84167,-14
1.85000,-14
1.85833,-14
1.86667,-14
1.87500,-14
1.88333,-14
1.89167,-13
1.90000,-13
1.90833,-13
1.91667,-13
1.92500,-13
1.93333,-13
1.94167,-14
1.95000,-14
1.95833,-14
1.96667,-14
1.97500,-13
1.98333,-13
1.99167,-12
2.00000,-13
2.00833,-13
2.01667,-13
2.02500,-12
2.03333,-12
2.04167,-12
2.05000,-12
2.05833,-12
2.06667,-12
2.07500,-12
2.08333,-12
2.09167,-12
2.10000,-12
2.10833,-12
2.11667,-12
2.12500,-12
2.13333,-12
2.14167,-12
2.15000,-12
2.15833,-12
2.16667,-12
2.17500,-12
2.18333,-12
2.19167,-12
2.20000,-12
2.20833,-12
2.21667,-12
2.22500,-12
2.23333,-11
2.24167,-11
2.25000,-10
2.25833,-10
2.26667,-11
2.27500,-11
2.28333,-11
2.29167,-11
2.30000,-10
2.30833,-10
2.31667,-10
2.32500,-11
2.33333,-11
2.34167,-11
2.35000,-11
2.35833,-11
2.36667,-11
2.37500,-11
2.38333,-11
2.39167,-11
2.40000,-11
2.40833,-11
2.41667,-11
2.42500,-11
2.43333,-11
2.44167,-12
2.45000,-12
2.45833,-12
2.46667,-12
2.47500,-12
2.48333,-13
2.49167,-13
2.50000,-13
2.50833,-12
2.51667,-12
2.52500,-12
2.53333,-11
2.54167,-11
2.55000,-11
2.55833,-11
2.56667,-11
2.57500,-12
2.58333,-12
2.59167,-12
2.60000,-13
2.60833,-14
2.61667,-14
2.62500,-14
2.63333,-14
2.64167,-14
2.65000,-14
2.65833,-14
2.66667,-14
2.67500,-13
2.68333,-14
2.69167,-14
2.70000,-14
2.70833,-14
2.71667,-14
2.72500,-15
2.73333,-15
2.74167,-15
2.75000,-15
2.75833,-15
2.76667,-15
2.77500,-15
2.78333,-15
2.79167,-15
2.80000,-15
2.80833,-16
2.81667,-15
2.82500,-15
2.83333,-15
2.84167,-15
2.85000,-15
2.85833,-15
2.86667,-15
2.87500,-15
2.88333,-16
2.89167,-16
2.90000,-16
2.90833,-16
2.91667,-16
2.92500,-15
2.93333,-15
2.94167,-16
2.95000,-16
2.95833,-16
2.96667,-16
2.97500,-16
2.98333,-17
2.99167,-17
3.00000,-18
3.00833,-17
3.01667,-17
3.02500,-17
3.03333,-17
3.04167,-17
3.05000,-17
3.05833,-17
3.06667,-17
3.07500,-17
3.08333,-18
3.09167,-18
3.10000,-18
3.10833,-18
3.11667,-18
3.12500,-18
3.13333,-19
3.14167,-19
3.15000,-19
3.15833,-19
3.16667,-19
3.17500,-19
3.18333,-19
3.19167,-19
3.20000,-19
3.20833,-18
3.21667,-18
3.22500,-18
3.23333,-19
3.24167,-19
3.25000,-19
3.25833,-19
3.26667,-20
3.27500,-19
3.28333,-19
3.29167,-19
3.30000,-19
3.30833,-19
3.31667,-19
3.32500,-19
3.33333,-19
3.34167,-18
3.35000,-18
3.35833,-18
3.36667,-18
3.37500,-18
3.38333,-19
3.39167,-19
3.40000,-19
3.40833,-19
3.41667,-19
3.42500,-19
3.43333,-19
3.44167,-19
3.45000,-19
3.45833,-19
3.46667,-19
3.47500,-18
3.48333,-18
3.49167,-19
3.50000,-19
3.50833,-19
3.51667,-19
3.52500,-19
3.53333,-18
3.54167,-18
3.55000,-18
3.55833,-18
3.56667,-18
3.57500,-18
3.58333,-18
3.59167,-18
3.60000,-17
3.60833,-17
3.61667,-17
3.62500,-17
3.63333,-17
3.64167,-17
3.65000,-16
3.65833,-16
3.66667,-16
3.67500,-15
3.68333,-15
3.69167,-15
3.70000,-15
3.70833,-15
3.71667,-14
3.72500,-14
3.73333,-15
3.74167,-15
3.75000,-14
3.75833,-14
3.76667,-14
3.77500,-14
3.78333,-14
3.79167,-14
3.80000,-14
3.80833,-13
3.81667,-13
3.82500,-13
3.83333,-13
3.84167,-13
3.85000,-13
3.85833,-13
3.86667,-12
3.87500,-12
3.88333,-11
3.89167,-11
3.90000,-10
3.90833,-10
3.91667,-10
3.92500,-10
3.93333,-10
3.94167,-9
3.95000,-9
3.95833,-9
3.96667,-9
3.97500,-8
3.98333,-8
3.99167,-8
4.00000,-7
4.00833,-7
4.01667,-7
4.02500,-7
4.03333,-6
4.04167,-6
4.05000,-5
4.05833,-5
4.06667,-4
4.07500,-4
4.08333,-3
4.09167,-3
4.10000,-2
4.10833,-2
4.11667,-2
4.12500,-1
4.13333,-1
4.14167,-0
4.15000,0
4.15833,1
4.16667,1
4.17500,2
4.18333,3
4.19167,3
4.20000,4
4.20833,4
4.21667,5
4.22500,6
4.23333,6
4.24167,6
4.25000,6
4.25833,6
4.26667,7
4.27500,8
4.28333,8
4.29167,9
4.30000,10
4.30833,10
4.31667,11
4.32500,11
4.33333,12
4.34167,13
4.35000,14
4.35833,15
4.36667,16
4.37500,16
4.38333,17
4.39167,17
4.40000,18
4.40833,18
4.41667,19
4.42500,20
4.43333,21
4.44167,22
4.45000,22
4.45833,23
4.46667,23
4.47500,24
4.48333,24
4.49167,25
4.50000,26
4.50833,27
4.51667,28
4.52500,29
4.53333,30
4.54167,31
4.55000,31
4.55833,32
4.56667,32
4.57500,32
4.58333,33
4.59167,33
4.60000,34
4.60833,35
4.61667,36
4.62500,37
4.63333,38
4.64167,38
4.65000,39
4.65833,40
4.66667,40
4.67500,41
4.68333,41
4.69167,42
4.70000,43
4.70833,43
4.71667,43
4.72500,44
4.73333,44
4.74167,44
4.75000,45
4.75833,46
4.76667,46
4.77500,47
4.78333,47
4.79167,48
4.80000,48
4.80833,48
4.81667,49
4.82500,49
4.83333,50
4.84167,50
4.85000,51
4.85833,51
4.86667,52
4.87500,52
4.88333,52
4.89167,53
4.90000,53
4.90833,54
4.91667,54
4.92500,54
4.93333,54
4.94167,54
4.95000,54
4.95833,54
4.96667,54
4.97500,54
4.98333,54
4.99167,54
5.00000,55
5.00833,55
5.01667,55
5.02500,55
5.03333,55
5.04167,56
5.05000,56
5.05833,56
5.06667,56
5.07500,55
5.08333,55
5.09167,55
5.10000,55
5.10833,55
5.11667,55
5.12500,54
5.13333,54
5.14167,54
5.15000,54
5.15833,54
5.16667,55
5.17500,55
5.18333,55
5.19167,54
5.20000,54
5.20833,54
5.21667,54
5.22500,53
5.23333,53
5.24167,53
5.25000,52
5.25833,52
5.26667,52
5.27500,52
5.28333,51
5.29167,51
5.30000,51
5.30833,51
5.31667,51
5.32500,51
5.33333,50
5.34167,50
5.35000,49
5.35833,49
5.36667,49
5.37500,48
5.38333,48
5.39167,48
5.40000,48
5.40833,47
5.41667,47
5.42500,46
5.43333,45
5.44167,45
5.45000,45
5.45833,45
5.46667,44
5.47500,44
5.48333,43
5.49167,43
5.50000,43
5.50833,42
5.51667,42
5.52500,41
5.53333,41
5.54167,40
5.55000,39
5.55833,38
5.56667,38
5.57500,37
5.58333,37
5.59167,37
5.60000,36
5.60833,36
5.61667,35
5.62500,34
5.63333,33
5.64167,33
5.65000,32
5.65833,32
5.66667,31
5.67500,30
5.68333,29
5.69167,28
5.70000,28
5.70833,27
5.71667,27
5.72500,26
5.73333,26
5.74167,25
5.75000,24
5.75833,24
5.76667,23
5.77500,22
5.78333,21
5.79167,21
5.80000,20
5.80833,19
5.81667,18
5.82500,17
5.83333,16
5.84167,16
5.85000,15
5.85833,15
5.86667,14
5.87500,13
5.88333,13
5.89167,12
5.90000,11
5.90833,11
5.91667,10
5.92500,9
5.93333,8
5.94167,7
5.95000,7
5.95833,6
5.96667,5
5.97500,4
5.98333,2
5.99167,1
6.00000,1
6.00833,-0
6.01667,-1
6.02500,-2
6.03333,-2
6.04167,-3
6.05000,-3
6.05833,-4
6.06667,-5
6.07500,-6
6.08333,-7
6.09167,-7
6.10000,-8
6.10833,-9
6.11667,-9
6.12500,-10
6.13333,-10
6.14167,-11
6.15000,-11
6.15833,-12
6.16667,-13
6.17500,-14
6.18333,-15
6.19167,-16
6.20000,-17
6.20833,-17
6.21667,-18
6.22500,-19
6.23333,-20
6.24167,-21
6.25000,-21
6.25833,-22
6.26667,-23
6.27500,-23
6.28333,-23
6.29167,-23
6.30000,-24
6.30833,-25
6.31667,-25
6.32500,-26
6.33333,-27
6.34167,-28
6.35000,-28
6.35833,-28
6.36667,-29
6.37500,-29
6.38333,-30
6.39167,-31
6.40000,-31
6.40833,-32
6.41667,-32
6.42500,-33
6.43333,-33
6.44167,-34
6.45000,-34
6.45833,-34
6.46667,-35
6.47500,-35
6.48333,-36
6.49167,-37
6.50000,-37
6.50833,-38
6.51667,-38
6.52500,-38
6.53333,-39
6.54167,-39
6.55000,-39
6.55833,-39
6.56667,-39
6.57500,-40
6.58333,-40
6.59167,-40
6.60000,-41
6.60833,-41
6.61667,-41
6.62500,-41
6.63333,-41
6.64167,-42
6.65000,-42
6.65833,-42
6.66667,-43
6.67500,-43
6.68333,-43
6.69167,-44
6.70000,-44
6.70833,-44
6.71667,-44
6.72500,-44
6.73333,-45
6.74167,-45
6.75000,-45
6.75833,-45
6.76667,-45
6.77500,-45
6.78333,-45
6.79167,-46
6.80000,-46
6.80833,-47
6.81667,-47
6.82500,-47
6.83333,-47
6.84167,-47
6.85000,-48
6.85833,-48
6.86667,-48
6.87500,-48
6.88333,-48
6.89167,-48
6.90000,-48
6.90833,-48
6.91667,-48
6.92500,-48
6.93333,-48
6.94167,-48
6.95000,-48
6.95833,-48
6.96667,-48
6.97500,-48
6.98333,-48
6.99167,-49
7.00000,-49
7.00833,-49
7.01667,-49
7.02500,-49
7.03333,-49
7.04167,-50
7.05000,-50
7.05833,-50
7.06667,-50
7.07500,-50
7.08333,-50
7.09167,-50
7.10000,-50
7.10833,-50
7.11667,-50
7.12500,-50
7.13333,-50
7.14167,-51
7.15000,-51
7.15833,-50
7.16667,-50
7.17500,-50
7.18333,-50
7.19167,-50
7.20000,-50
7.20833,-50
7.21667,-50
7.22500,-50
7.23333,-50
7.24167,-50
7.25000,-50
7.25833,-50
7.26667,-51
7.27500,-51
7.28333,-50
7.29167,-50
7.30000,-51
7.30833,-51
7.31667,-51
7.32500,-51
7.33333,-51
7.34167,-51
7.35000,-51
7.35833,-51
7.36667,-51
7.37500,-51
7.38333,-51
7.39167,-51
7.40000,-51
7.40833,-51
7.41667,-51
7.42500,-51
7.43333,-52
7.44167,-52
7.45000,-52
7.45833,-52
7.46667,-52
7.47500,-52
7.48333,-51
7.49167,-51
7.50000,-51
7.50833,-51
7.51667,-52
7.52500,-51
7.53333,-52
7.54167,-52
7.55000,-51
7.55833,-51
7.56667,-51
7.57500,-51
7.58333,-51
7.59167,-51
7.60000,-51
7.60833,-51
7.61667,-51
7.62500,-51
7.63333,-51
7.64167,-51
7.65000,-51
7.65833,-51
7.66667,-51
7.67500,-51
7.68333,-51
7.69167,-51
7.70000,-51
7.70833,-51
7.71667,-51
7.72500,-51
7.73333,-51
7.74167,-51
7.75000,-52
7.75833,-52
7.76667,-52
7.77500,-52
7.78333,-52
7.79167,-52
7.80000,-52
7.80833,-52
7.81667,-52
7.82500,-52
7.83333,-52
7.84167,-52
7.85000,-52
7.85833,-52
7.86667,-53
7.87500,-53
7.88333,-52
7.89167,-52
7.90000,-52
7.90833,-52
7.91667,-52
7.92500,-52
7.93333,-53
7.94167,-53
7.95000,-53
7.95833,-52
7.96667,-52
7.97500,-52
7.98333,-53
7.99167,-53
8.00000,-53
8.00833,-53
8.01667,-53
8.02500,-53
8.03333,-53
8.04167,-53
8.05000,-53
8.05833,-53
8.06667,-53
8.07500,-53
8.08333,-53
8.09167,-53
8.10000,-53
8.10833,-53
8.11667,-53
8.12500,-52
8.13333,-52
8.14167,-52
8.15000,-52
8.15833,-53
8.16667,-53
8.17500,-53
8.18333,-53
8.19167,-54
8.20000,-54
8.20833,-54
8.21667,-54
8.22500,-54
8.23333,-54
8.24167,-53
8.25000,-53
8.25833,-53
8.26667,-53
8.27500,-53
8.28333,-53
8.29167,-53
8.30000,-53
8.30833,-53
8.31667,-53
8.32500,-53
8.33333,-53
8.34167,-53
8.35000,-53
8.35833,-53
8.36667,-53
8.37500,-53
8.38333,-53
8.39167,-53
8.40000,-53
8.40833,-54
8.41667,-54
8.42500,-54
8.43333,-54
8.44167,-54
8.45000,-54
8.45833,-54
8.46667,-54
8.47500,-54
8.48333,-54
8.49167,-55
8.50000,-55
8.50833,-55
8.51667,-54
8.52500,-54
8.53333,-54
8.54167,-53
8.55000,-53
8.55833,-53
8.56667,-53
8.57500,-53
8.58333,-53
8.59167,-53
8.60000,-54
8.60833,-54
8.61667,-54
8.62500,-54
8.63333,-55
8.64167,-55
8.65000,-55
8.65833,-55
8.66667,-55
8.67500,-55
8.68333,-54
8.69167,-54
8.70000,-54
8.70833,-54
8.71667,-54
8.72500,-54
8.73333,-54
8.74167,-54
8.75000,-54
8.75833,-54
8.76667,-54
8.77500,-54
8.78333,-54
8.79167,-54
8.80000,-54
8.80833,-54
8.81667,-54
8.82500,-54
8.83333,-54
8.84167,-54
8.85000,-55
8.85833,-55
8.86667,-55
8.87500,-55
8.88333,-55
8.89167,-55
8.90000,-55
8.90833,-55
8.91667,-55
8.92500,-55
8.93333,-55
8.94167,-54
8.95000,-54
8.95833,-54
8.96667,-54
8.97500,-54
8.98333,-55
8.99167,-54
9.00000,-54
9.00833,-54
9.01667,-54
9.02500,-55
9.03333,-55
9.04167,-55
9.05000,-55
9.05833,-55
9.06667,-55
9.07500,-55
9.08333,-54
9.09167,-54
9.10000,-54
9.10833,-54
9.11667,-55
9.12500,-55
9.13333,-55
9.14167,-55
9.15000,-55
9.15833,-55
9.16667,-55
9.17500,-55
9.18333,-55
9.19167,-54
9.20000,-54
9.20833,-53
9.21667,-53
9.22500,-53
9.23333,-53
9.24167,-53
9.25000,-53
9.25833,-54
9.26667,-53
9.27500,-53
9.28333,-54
9.29167,-54
9.30000,-54
9.30833,-54
9.31667,-54
9.32500,-54
9.33333,-54
9.34167,-54
9.35000,-54
9.35833,-54
9.36667,-53
9.37500,-53
9.38333,-53
9.39167,-53
9.40000,-53
9.40833,-53
9.41667,-53
9.42500,-53
9.43333,-53
9.44167,-53
9.45000,-53
9.45833,-53
9.46667,-53
9.47500,-53
9.48333,-53
9.49167,-53
9.50000,-53
9.50833,-53
9.51667,-53
9.52500,-53
9.53333,-53
9.54167,-53
9.55000,-53
9.55833,-54
9.56667,-54
9.57500,-54
9.58333,-54
9.59167,-54
9.60000,-54
9.60833,-54
9.61667,-54
9.62500,-54
9.63333,-54
9.64167,-53
9.65000,-53
9.65833,-53
9.66667,-53
9.67500,-53
9.68333,-53
9.69167,-53
9.70000,-53
9.70833,-53
9.71667,-53
9.72500,-53
9.73333,-53
9.74167,-53
9.75000,-53
9.75833,-53
9.76667,-53
9.77500,-53
9.78333,-53
9.79167,-53
9.80000,-52
9.80833,-52
9.81667,-52
9.82500,-52
9.83333,-52
9.84167,-52
9.85000,-52
9.85833,-52
9.86667,-52
9.87500,-52
9.88333,-51
9.89167,-51
9.90000,-51
9.90833,-51
9.91667,-51
9.92500,-51
9.93333,-51
9.94167,-51
9.95000,-51
9.95833,-51
9.96667,-51
9.97500,-51
9.98333,-50
9.99167,-50
10.00000,-50
10.00833,-50
10.01667,-49
10.02500,-49
10.03333,-49
10.04167,-49
10.05000,-49
10.05833,-49
10.06667,-49
10.07500,-48
10.08333,-48
10.09167,-48
10.10000,-47
10.10833,-47
10.11667,-46
10.12500,-46
10.13333,-45
10.14167,-44
10.15000,-42
10.15833,-41
10.16667,-41
10.17500,-40
10.18333,-39
10.19167,-38
10.20000,-37
10.20833,-35
10.21667,-34
10.22500,-33
10.23333,-31
10.24167,-29
10.25000,-27
10.25833,-24
10.26667,-21
10.27500,-18
10.28333,-14
10.29167,-10
10.30000,-5
10.30833,1
10.31667,8
10.32500,16
10.33333,25
10.34167,36
10.35000,49
10.35833,64
10.36667,79
10.37500,97
10.38333,116
10.39167,137
10.40000,158
10.40833,179
10.41667,200
10.42500,220
10.43333,239
10.44167,255
10.45000,269
10.45833,279
10.46667,286
10.47500,290
10.48333,291
10.49167,290
10.50000,289
10.50833,290
10.51667,295
10.52500,308
10.53333,332
10.54167,371
10.55000,431
10.55833,515
10.56667,631
10.57500,784
10.58333,978
10.59167,1222
10.60000,1520
10.60833,1880
10.61667,2308
10.62500,2808
10.63333,3388
10.64167,4052
10.65000,4805
10.65833,5654
10.66667,6603
10.67500,7656
10.68333,8816
10.69167,10088
10.70000,11474
10.70833,12977
10.71667,14599
10.72500,16342
10.73333,18209
10.74167,20198
10.75000,22312
10.75833,24549
10.76667,26910
10.77500,29395
10.78333,32001
10.79167,34728
10.80000,37573
10.80833,40533
10.81667,43605
10.82500,46785
10.83333,50069
10.84167,53451
10.85000,56924
10.85833,60481
10.86667,64113
10.87500,67810
10.88333,71559
10.89167,75346
10.90000,79153
10.90833,82961
10.91667,86746
10.92500,90481
10.93333,94133
10.94167,97667
10.95000,101042
10.95833,104211
10.96667,107126
10.97500,109732
10.98333,111975
10.99167,113796
11.00000,115140
11.00833,115955
11.01667,116192
11.02500,115812
11.03333,114789
11.04167,113110
11.05000,110779
11.05833,107816
11.06667,104261
11.07500,100171
11.08333,95617
11.09167,90684
11.10000,85462
11.10833,80047
11.11667,74535
11.12500,69015
11.13333,63573
11.14167,58279
11.15000,53195
11.15833,48370
11.16667,43838
11.17500,39623
11.18333,35736
11.19167,32181
11.20000,28951
11.20833,26035
11.21667,23418
11.22500,21080
11.23333,19001
11.24167,17156
11.25000,15525
11.25833,14086
11.26667,12818
11.27500,11702
11.28333,10719
11.29167,9854
11.30000,9092
11.30833,8419
11.31667,7824
11.32500,7297
11.33333,6829
11.34167,6411
11.35000,6037
11.35833,5702
11.36667,5399
11.37500,5126
11.38333,4877
11.39167,4651
11.40000,4443
11.40833,4252
11.41667,4075
11.42500,3911
11.43333,3758
11.44167,3615
11.45000,3481
11.45833,3356
11.46667,3237
11.47500,3125
11.48333,3019
11.49167,2917
11.50000,2821
11.50833,2730
11.51667,2643
11.52500,2560
11.53333,2480
11.54167,2404
11.55000,2331
11.55833,2260
11.56667,2193
11.57500,2129
11.58333,2067
11.59167,2008
11.60000,1950
11.60833,1895
11.61667,1842
11.62500,1791
11.63333,1742
11.64167,1695
11.65000,1649
11.65833,1606
11.66667,1563
11.67500,1522
11.68333,1483
11.69167,1446
11.70000,1409
11.70833,1374
11.71667,1341
11.72500,1309
11.73333,1278
11.74167,1249
11.75000,1221
11.75833,1193
11.76667,1167
11.77500,1142
11.78333,1118
11.79167,1095
11.80000,1072
11.80833,1051
11.81667,1030
11.82500,1011
11.83333,991
11.84167,973
11.85000,956
11.85833,940
11.86667,924
11.87500,909
11.88333,894
11.89167,880
11.90000,866
11.90833,853
11.91667,841
11.92500,828
11.93333,817
11.94167,806
11.95000,795
11.95833,785
11.96667,775
11.97500,766
11.98333,757
11.99167,749
12.00000,741
12.00833,733
12.01667,725
12.02500,718
12.03333,711
12.04167,705
12.05000,698
12.05833,692
12.06667,686
12.07500,680
12.08333,675
12.09167,670
12.10000,665
12.10833,660
12.11667,656
12.12500,652
12.13333,648
12.14167,644
12.15000,641
12.15833,638
12.16667,635
12.17500,632
12.18333,629
12.19167,626
12.20000,624
12.20833,622
12.21667,621
12.22500,619
12.23333,618
12.24167,616
12.25000,615
12.25833,614
12.26667,613
12.27500,612
12.28333,612
12.29167,611
12.30000,611
12.30833,610
12.31667,610
12.32500,610
12.33333,610
12.34167,610
12.35000,609
12.35833,609
12.36667,609
12.37500,609
12.38333,609
12.39167,609
12.40000,609
12.40833,609
12.41667,608
12.42500,608
12.43333,607
12.44167,606
12.45000,606
12.45833,605
12.46667,604
12.47500,604
12.48333,603
12.49167,602
12.50000,600
12.50833,599
12.51667,597
12.52500,596
12.53333,594
12.54167,592
12.55000,591
12.55833,588
12.56667,586
12.57500,585
12.58333,583
12.59167,581
12.60000,579
12.60833,577
12.61667,575
12.62500,573
12.63333,571
12.64167,569
12.65000,568
12.65833,567
12.66667,567
12.67500,567
12.68333,568
12.69167,570
12.70000,573
12.70833,576
12.71667,581
12.72500,588
12.73333,596
12.74167,606
12.75000,619
12.75833,633
12.76667,651
12.77500,671
12.78333,695
12.79167,722
12.80000,752
12.80833,786
12.81667,825
12.82500,868
12.83333,914
12.84167,966
12.85000,1022
12.85833,1083
12.86667,1149
12.87500,1220
12.88333,1296
12.89167,1379
12.90000,1467
12.90833,1560
12.91667,1659
12.92500,1764
12.93333,1875
12.94167,1992
12.95000,2114
12.95833,2242
12.96667,2376
12.97500,2516
12.98333,2662
12.99167,2814
13.00000,2972
13.00833,3135
13.01667,3304
13.02500,3479
13.03333,3660
13.04167,3846
13.05000,4038
13.05833,4234
13.06667,4436
13.07500,4643
13.08333,4856
13.09167,5073
13.10000,5296
13.10833,5524
13.11667,5757
13.12500,5994
13.13333,6236
13.14167,6482
13.15000,6734
13.15833,6990
13.16667,7250
13.17500,7514
13.18333,7782
13.19167,8055
13.20000,8331
13.20833,8611
13.21667,8894
13.22500,9182
13.23333,9473
13.24167,9769
13.25000,10068
13.25833,10370
13.26667,10676
13.27500,10985
13.28333,11297
13.29167,11613
13.30000,11932
13.30833,12255
13.31667,12580
13.32500,12909
13.33333,13241
13.34167,13576
13.35000,13915
13.35833,14256
13.36667,14601
13.37500,14948
13.38333,15298
13.39167,15652
13.40000,16008
13.40833,16367
13.41667,16730
13.42500,17095
13.43333,17464
13.44167,17835
13.45000,18210
13.45833,18587
13.46667,18968
13.47500,19352
13.48333,19739
13.49167,20129
13.50000,20522
13.50833,20918
13.51667,21318
13.52500,21720
13.53333,22125
13.54167,22533
13.55000,22945
13.55833,23360
13.56667,23779
13.57500,24201
13.58333,24626
13.59167,25054
13.60000,25486
13.60833,25921
13.61667,26359
13.62500,26801
13.63333,27247
13.64167,27695
13.65000,28148
13.65833,28604
13.66667,29064
13.67500,29527
13.68333,29994
13.69167,30464
13.70000,30939
13.70833,31418
13.71667,31900
13.72500,32386
13.73333,32876
13.74167,33370
13.75000,33869
13.75833,34371
13.76667,34877
13.77500,35387
13.78333,35901
13.79167,36419
13.80000,36943
13.80833,37470
13.81667,38002
13.82500,38538
13.83333,39078
13.84167,39623
13.85000,40172
13.85833,40726
13.86667,41284
13.87500,41848
13.88333,42416
13.89167,42989
13.90000,43567
13.90833,44150
13.91667,44738
13.92500,45331
13.93333,45929
13.94167,46533
13.95000,47141
13.95833,47754
13.96667,48373
13.97500,48997
13.98333,49627
13.99167,50262
14.00000,50903
14.00833,51549
14.01667,52202
14.02500,52860
14.03333,53524
14.04167,54194
14.05000,54869
14.05833,55551
14.06667,56239
14.07500,56933
14.08333,57633
14.09167,58339
14.10000,59052
14.10833,59772
14.11667,60498
14.12500,61230
14.13333,61970
14.14167,62716
14.15000,63469
14.15833,64230
14.16667,64997
14.17500,65772
14.18333,66553
14.19167,67342
14.20000,68136
14.20833,68935
14.21667,69737
14.22500,70540
14.23333,71339
14.24167,72128
14.25000,72901
14.25833,73649
14.26667,74362
14.27500,75028
14.28333,75635
14.29167,76172
14.30000,76624
14.30833,76980
14.31667,77227
14.32500,77358
14.33333,77361
14.34167,77232
14.35000,76963
14.35833,76552
14.36667,75993
14.37500,75286
14.38333,74427
14.39167,73415
14.40000,72246
14.40833,70920
14.41667,69434
14.42500,67786
14.43333,65977
14.44167,64007
14.45000,61882
14.45833,59607
14.46667,57194
14.47500,54656
14.48333,52011
14.49167,49280
14.50000,46487
14.50833,43658
14.51667,40820
14.52500,38000
14.53333,35226
14.54167,32523
14.55000,29913
14.55833,27415
14.56667,25045
14.57500,22815
14.58333,20734
14.59167,18806
14.60000,17032
14.60833,15410
14.61667,13936
14.62500,12604
14.63333,11405
14.64167,10331
14.65000,9372
14.65833,8518
14.66667,7761
14.67500,7089
14.68333,6495
14.69167,5971
14.70000,5507
14.70833,5098
14.71667,4735
14.72500,4415
14.73333,4132
14.74167,3881
14.75000,3657
14.75833,3458
14.76667,3279
14.77500,3119
14.78333,2975
14.79167,2846
14.80000,2728
14.80833,2620
14.81667,2522
14.82500,2432
14.83333,2350
14.84167,2274
14.85000,2203
14.85833,2138
14.86667,2077
14.87500,2019
14.88333,1966
14.89167,1915
14.90000,1868
14.90833,1823
14.91667,1781
14.92500,1741
14.93333,1703
14.94167,1667
14.95000,1632
14.95833,1599
14.96667,1568
14.97500,1539
14.98333,1511
14.99167,1484
15.00000,1459
15.00833,1435
15.01667,1412
15.02500,1390
15.03333,1369
15.04167,1349
15.05000,1330
15.05833,1313
15.06667,1296
15.07500,1280
15.08333,1265
15.09167,1250
15.10000,1237
15.10833,1224
15.11667,1213
15.12500,1202
15.13333,1192
15.14167,1184
15.15000,1176
15.15833,1170
15.16667,1165
15.17500,1162
15.18333,1161
15.19167,1163
15.20000,1168
15.20833,1176
15.21667,1188
15.22500,1206
15.23333,1230
15.24167,1261
15.25000,1300
15.25833,1350
15.26667,1412
15.27500,1487
15.28333,1578
15.29167,1686
15.30000,1815
15.30833,1967
15.31667,2145
15.32500,2351
15.33333,2589
15.34167,2862
15.35000,3172
15.35833,3525
15.36667,3921
15.37500,4366
15.38333,4861
15.39167,5409
15.40000,6013
15.40833,6674
15.41667,7395
15.42500,8176
15.43333,9019
15.44167,9924
15.45000,10890
15.45833,11916
15.46667,13001
15.47500,14142
15.48333,15336
15.49167,16580
15.50000,17868
15.50833,19197
15.51667,20561
15.52500,21953
15.53333,23369
15.54167,24799
15.55000,26240
15.55833,27682
15.56667,29120
15.57500,30545
15.58333,31951
15.59167,33332
15.60000,34680
15.60833,35989
15.61667,37253
15.62500,38468
15.63333,39628
15.64167,40728
15.65000,41764
15.65833,42732
15.66667,43630
15.67500,44454
15.68333,45203
15.69167,45874
15.70000,46465
15.70833,46976
15.71667,47406
15.72500,47753
15.73333,48017
15.74167,48200
15.75000,48299
15.75833,48317
15.76667,48253
15.77500,48109
15.78333,47884
15.79167,47582
15.80000,47203
15.80833,46749
15.81667,46221
15.82500,45624
15.83333,44958
15.84167,44227
15.85000,43434
15.85833,42582
15.86667,41675
15.87500,40716
15.88333,39711
15.89167,38664
15.90000,37579
15.90833,36460
15.91667,35313
15.92500,34143
15.93333,32954
15.94167,31751
15.95000,30540
15.95833,29325
15.96667,28110
15.97500,26901
15.98333,25702
15.99167,24516
16.00000,23349
16.00833,22202
16.01667,21080
16.02500,19985
16.03333,18921
16.04167,17888
16.05000,16890
16.05833,15928
16.06667,15002
16.07500,14115
16.08333,13267
16.09167,12458
16.10000,11689
16.10833,10959
16.11667,10268
16.12500,9615
16.13333,8999
16.14167,8420
16.15000,7877
16.15833,7369
16.16667,6894
16.17500,6451
16.18333,6038
16.19167,5655
16.20000,5299
16.20833,4969
16.21667,4664
16.22500,4382
16.23333,4121
16.24167,3882
16.25000,3661
16.25833,3458
16.26667,3272
16.27500,3100
16.28333,2943
16.29167,2799
16.30000,2667
16.30833,2545
16.31667,2434
16.32500,2332
16.33333,2238
16.34167,2151
16.35000,2072
16.35833,1998
16.36667,1931
16.37500,1870
16.38333,1813
16.39167,1760
16.40000,1711
16.40833,1665
16.41667,1622
16.42500,1583
16.43333,1546
16.44167,1511
16.45000,1478
16.45833,1447
16.46667,1417
16.47500,1388
16.48333,1361
16.49167,1334
16.50000,1309
16.50833,1284
16.51667,1260
16.52500,1237
16.53333,1215
16.54167,1193
16.55000,1172
16.55833,1151
16.56667,1131
16.57500,1111
16.58333,1092
16.59167,1073
16.60000,1054
16.60833,1035
16.61667,1017
16.62500,999
16.63333,981
16.64167,964
16.65000,947
16.65833,930
16.66667,914
16.67500,899
16.68333,883
16.69167,868
16.70000,854
16.70833,840
16.71667,826
16.72500,813
16.73333,801
16.74167,788
16.75000,777
16.75833,766
16.76667,756
16.77500,746
16.78333,736
16.79167,727
16.80000,719
16.80833,711
16.81667,703
16.82500,696
16.83333,690
16.84167,684
16.85000,679
16.85833,673
16.86667,668
16.87500,663
16.88333,659
16.89167,655
16.90000,651
16.90833,648
16.91667,645
16.92500,642
16.93333,640
16.94167,637
16.95000,635
16.95833,633
16.96667,631
16.97500,629
16.98333,628
16.99167,626
17.00000,624
17.00833,622
17.01667,621
17.02500,620
17.03333,619
17.04167,618
17.05000,618
17.05833,617
17.06667,616
17.07500,616
17.08333,615
17.09167,615
17.10000,614
17.10833,613
17.11667,613
17.12500,612
17.13333,611
17.14167,611
17.15000,610
17.15833,610
17.16667,609
17.17500,608
17.18333,608
17.19167,607
17.20000,606
17.20833,605
17.21667,605
17.22500,604
17.23333,603
17.24167,602
17.25000,601
17.25833,601
17.26667,600
17.27500,599
17.28333,598
17.29167,597
17.30000,596
17.30833,595
17.31667,594
17.32500,593
17.33333,592
17.34167,592
17.35000,591
17.35833,591
17.36667,590
17.37500,590
17.38333,590
17.39167,590
17.40000,590
17.40833,590
17.41667,590
17.42500,590
17.43333,591
17.44167,592
17.45000,593
17.45833,596
17.46667,598
17.47500,601
17.48333,603
17.49167,605
17.50000,608
17.50833,611
17.51667,615
17.52500,620
17.53333,624
17.54167,629
17.55000,633
17.55833,638
17.56667,644
17.57500,649
17.58333,654
17.59167,660
17.60000,666
17.60833,672
17.61667,678
17.62500,684
17.63333,690
17.64167,697
17.65000,703
17.65833,709
17.66667,715
17.67500,721
17.68333,728
17.69167,733
17.70000,739
17.70833,745
17.71667,750
17.72500,756
17.73333,761
17.74167,766
17.75000,770
17.75833,775
17.76667,779
17.77500,783
17.78333,787
17.79167,791
17.80000,794
17.80833,797
17.81667,799
17.82500,801
17.83333,803
17.84167,804
17.85000,806
17.85833,806
17.86667,806
17.87500,806
17.88333,806
17.89167,805
17.90000,803
17.90833,801
17.91667,799
17.92500,797
17.93333,794
17.94167,791
17.95000,788
17.95833,784
17.96667,780
17.97500,775
17.98333,771
17.99167,766
18.00000,760
18.00833,754
18.01667,748
18.02500,741
18.03333,735
18.04167,728
18.05000,722
18.05833,715
18.06667,708
18.07500,701
18.08333,693
18.09167,686
18.10000,678
18.10833,670
18.11667,662
18.12500,654
18.13333,647
18.14167,639
18.15000,632
18.15833,625
18.16667,618
18.17500,611
18.18333,603
18.19167,596
18.20000,590
18.20833,583
18.21667,577
18.22500,571
18.23333,566
18.24167,560
18.25000,554
18.25833,549
18.26667,544
18.27500,539
18.28333,535
18.29167,530
18.30000,526
18.30833,523
18.31667,519
18.32500,516
18.33333,514
18.34167,511
18.35000,509
18.35833,507
18.36667,506
18.37500,504
18.38333,503
18.39167,502
18.40000,501
18.40833,501
18.41667,501
18.42500,501
18.43333,502
18.44167,503
18.45000,504
18.45833,505
18.46667,506
18.47500,508
18.48333,510
18.49167,512
18.50000,514
18.50833,517
18.51667,520
18.52500,524
18.53333,527
18.54167,531
18.55000,535
18.55833,539
18.56667,543
18.57500,547
18.58333,551
18.59167,555
18.60000,559
18.60833,563
18.61667,568
18.62500,572
18.63333,577
18.64167,582
18.65000,587
18.65833,591
18.66667,595
18.67500,600
18.68333,605
18.69167,609
18.70000,614
18.70833,619
18.71667,624
18.72500,629
18.73333,634
18.74167,639
18.75000,643
18.75833,648
18.76667,652
18.77500,657
18.78333,661
18.79167,666
18.80000,670
18.80833,675
18.81667,679
18.82500,683
18.83333,687
18.84167,692
18.85000,696
18.85833,700
18.86667,704
18.87500,708
18.88333,712
18.89167,716
18.90000,720
18.90833,723
18.91667,727
18.92500,730
18.93333,733
18.94167,737
18.95000,740
18.95833,744
18.96667,747
18.97500,750
18.98333,752
18.99167,755
19.00000,757
19.00833,759
19.01667,762
19.02500,764
19.03333,766
19.04167,768
19.05000,769
19.05833,770
19.06667,771
19.07500,772
19.08333,773
19.09167,773
19.10000,773
19.10833,773
19.11667,772
19.12500,772
19.13333,771
19.14167,770
19.15000,769
19.15833,768
19.16667,766
19.17500,764
19.18333,762
19.19167,759
19.20000,757
19.20833,754
19.21667,751
19.22500,748
19.23333,745
19.24167,741
19.25000,737
19.25833,733
19.26667,729
19.27500,725
19.28333,721
19.29167,716
19.30000,711
19.30833,705
19.31667,700
19.32500,694
19.33333,689
19.34167,683
19.35000,676
19.35833,670
19.36667,664
19.37500,658
19.38333,652
19.39167,645
19.40000,639
19.40833,632
19.41667,625
19.42500,618
19.43333,612
19.44167,605
19.45000,598
19.45833,590
19.46667,583
19.47500,576
19.48333,570
19.49167,563
19.50000,556
19.50833,549
19.51667,542
19.52500,535
19.53333,528
19.54167,521
19.55000,515
19.55833,508
19.56667,502
19.57500,496
19.58333,490
19.59167,483
19.60000,478
19.60833,472
19.61667,467
19.62500,462
19.63333,457
19.64167,452
19.65000,447
19.65833,443
19.66667,439
19.67500,435
19.68333,432
19.69167,429
19.70000,426
19.70833,423
19.71667,421
19.72500,419
19.73333,418
19.74167,417
19.75000,416
19.75833,415
19.76667,415
19.77500,415
19.78333,416
19.79167,417
19.80000,419
19.80833,421
19.81667,424
19.82500,427
19.83333,431
19.84167,435
19.85000,440
19.85833,446
19.86667,452
19.87500,459
19.88333,467
19.89167,475
19.90000,483
19.90833,492
19.91667,502
19.92500,512
19.93333,523
19.94167,534
19.95000,546
19.95833,558
19.96667,572
19.97500,585
19.98333,599
19.99167,614
20.00000,628
20.00833,643
20.01667,657
20.02500,672
20.03333,687
20.04167,703
20.05000,719
20.05833,734
20.06667,749
20.07500,764
20.08333,779
20.09167,793
20.10000,808
20.10833,822
20.11667,835
20.12500,848
20.13333,861
20.14167,874
20.15000,886
20.15833,898
20.16667,910
20.17500,920
20.18333,930
20.19167,940
20.20000,949
20.20833,957
20.21667,964
20.22500,971
20.23333,978
20.24167,983
20.25000,989
20.25833,993
20.26667,996
20.27500,999
20.28333,1001
20.29167,1002
20.30000,1003
20.30833,1004
20.31667,1003
20.32500,1002
20.33333,1000
20.34167,998
20.35000,995
20.35833,991
20.36667,987
20.37500,982
20.38333,977
20.39167,971
20.40000,964
20.40833,957
20.41667,950
20.42500,941
20.43333,933
20.44167,924
20.45000,914
20.45833,904
20.46667,894
20.47500,884
20.48333,873
20.49167,863
20.50000,852
20.50833,841
20.51667,829
20.52500,818
20.53333,806
20.54167,795
20.55000,783
20.55833,772
20.56667,761
20.57500,749
20.58333,738
20.59167,727
20.60000,716
20.60833,705
20.61667,695
20.62500,685
20.63333,675
20.64167,665
20.65000,655
20.65833,646
20.66667,637
20.67500,628
20.68333,620
20.69167,612
20.70000,605
20.70833,597
20.71667,590
20.72500,583
20.73333,577
20.74167,571
20.75000,566
20.75833,560
20.76667,555
20.77500,550
20.78333,546
20.79167,542
20.80000,538
20.80833,534
20.81667,531
20.82500,528
20.83333,525
20.84167,523
20.85000,521
20.85833,519
20.86667,518
20.87500,517
20.88333,516
20.89167,515
20.90000,514
20.90833,515
20.91667,516
20.92500,517
20.93333,519
20.94167,521
20.95000,524
20.95833,528
20.96667,533
20.97500,539
20.98333,545
20.99167,552
21.00000,560
21.00833,570
21.01667,581
21.02500,593
21.03333,606
21.04167,621
21.05000,637
21.05833,655
21.06667,675
21.07500,697
21.08333,720
21.09167,744
21.10000,771
21.10833,799
21.11667,829
21.12500,860
21.13333,893
21.14167,928
21.15000,964
21.15833,1002
21.16667,1042
21.17500,1082
21.18333,1124
21.19167,1167
21.20000,1211
21.20833,1256
21.21667,1301
21.22500,1348
21.23333,1394
21.24167,1440
21.25000,1486
21.25833,1532
21.26667,1578
21.27500,1623
21.28333,1668
21.29167,1712
21.30000,1756
21.30833,1798
21.31667,1840
21.32500,1880
21.33333,1920
21.34167,1957
21.35000,1994
21.35833,2029
21.36667,2063
21.37500,2095
21.38333,2126
21.39167,2156
21.40000,2184
21.40833,2210
21.41667,2236
21.42500,2260
21.43333,2283
21.44167,2304
21.45000,2324
21.45833,2343
21.46667,2360
21.47500,2376
21.48333,2390
21.49167,2404
21.50000,2416
21.50833,2427
21.51667,2436
21.52500,2445
21.53333,2452
21.54167,2458
21.55000,2462
21.55833,2465
21.56667,2466
21.57500,2465
21.58333,2463
21.59167,2460
21.60000,2454
21.60833,2447
21.61667,2439
21.62500,2429
21.63333,2417
21.64167,2403
21.65000,2387
21.65833,2370
21.66667,2351
21.67500,2331
21.68333,2310
21.69167,2287
21.70000,2262
21.70833,2235
21.71667,2208
21.72500,2179
21.73333,2150
21.74167,2119
21.75000,2087
21.75833,2054
21.76667,2021
21.77500,1988
21.78333,1954
21.79167,1920
21.80000,1886
21.80833,1852
21.81667,1817
21.82500,1783
21.83333,1749
21.84167,1716
21.85000,1682
21.85833,1649
21.86667,1617
21.87500,1585
21.88333,1554
21.89167,1524
21.90000,1494
21.90833,1464
21.91667,1436
21.92500,1408
21.93333,1380
21.94167,1354
21.95000,1328
21.95833,1303
21.96667,1278
21.97500,1254
21.98333,1230
21.99167,1206
22.00000,1183
22.00833,1161
22.01667,1139
22.02500,1117
22.03333,1095
22.04167,1074
22.05000,1052
22.05833,1031
22.06667,1010
22.07500,990
22.08333,969
22.09167,949
22.10000,928
22.10833,908
22.11667,887
22.12500,867
22.13333,847
22.14167,827
22.15000,807
22.15833,788
22.16667,768
22.17500,749
22.18333,730
22.19167,711
22.20000,692
22.20833,673
22.21667,655
22.22500,637
22.23333,620
22.24167,603
22.25000,587
22.25833,571
22.26667,556
22.27500,541
22.28333,526
22.29167,513
22.30000,499
22.30833,486
22.31667,474
22.32500,462
22.33333,451
22.34167,440
22.35000,429
22.35833,419
22.36667,409
22.37500,401
22.38333,392
22.39167,384
22.40000,377
22.40833,370
22.41667,364
22.42500,358
22.43333,352
22.44167,347
22.45000,342
22.45833,338
22.46667,334
22.47500,331
22.48333,327
22.49167,324
22.50000,321
22.50833,319
22.51667,317
22.52500,316
22.53333,314
22.54167,313
22.55000,313
22.55833,312
22.56667,312
22.57500,312
22.58333,313
22.59167,313
22.60000,314
22.60833,316
22.61667,317
22.62500,319
22.63333,321
22.64167,323
22.65000,326
22.65833,329
22.66667,332
22.67500,336
22.68333,339
22.69167,343
22.70000,347
22.70833,351
22.71667,356
22.72500,361
22.73333,366
22.74167,371
22.75000,376
22.75833,381
22.76667,387
22.77500,392
22.78333,398
22.79167,404
22.80000,410
22.80833,417
22.81667,423
22.82500,429
22.83333,435
22.84167,441
22.85000,448
22.85833,454
22.86667,460
22.87500,466
22.88333,473
22.89167,479
22.90000,485
22.90833,490
22.91667,496
22.92500,502
22.93333,508
22.94167,513
22.95000,518
22.95833,524
22.96667,529
22.97500,534
22.98333,538
22.99167,543
23.00000,547
23.00833,551
23.01667,554
23.02500,558
23.03333,562
23.04167,565
23.05000,569
23.05833,572
23.06667,574
23.07500,577
23.08333,579
23.09167,581
23.10000,583
23.10833,583
23.11667,584
23.12500,584
23.13333,585
23.14167,585
23.15000,585
23.15833,585
23.16667,585
23.17500,584
23.18333,583
23.19167,581
23.20000,580
23.20833,578
23.21667,576
23.22500,574
23.23333,571
23.24167,568
23.25000,565
23.25833,561
23.26667,558
23.27500,555
23.28333,551
23.29167,547
23.30000,543
23.30833,539
23.31667,534
23.32500,530
23.33333,525
23.34167,521
23.35000,516
23.35833,512
23.36667,507
23.37500,502
23.38333,498
23.39167,493
23.40000,489
23.40833,484
23.41667,480
23.42500,476
23.43333,472
23.44167,468
23.45000,464
23.45833,460
23.46667,456
23.47500,452
23.48333,449
23.49167,446
23.50000,443
23.50833,439
23.51667,436
23.52500,434
23.53333,431
23.54167,428
23.55000,426
23.55833,424
23.56667,421
23.57500,419
23.58333,417
23.59167,415
23.60000,413
23.60833,412
23.61667,411
23.62500,409
23.63333,408
23.64167,407
23.65000,405
23.65833,405
23.66667,404
23.67500,403
23.68333,402
23.69167,400
23.70000,399
23.70833,399
23.71667,398
23.72500,397
23.73333,396
23.74167,395
23.75000,394
23.75833,394
23.76667,393
23.77500,392
23.78333,391
23.79167,391
23.80000,390
23.80833,390
23.81667,390
23.82500,389
23.83333,388
23.84167,387
23.85000,387
23.85833,386
23.86667,385
23.87500,384
23.88333,384
23.89167,383
23.90000,382
23.90833,381
23.91667,380
23.92500,380
23.93333,379
23.94167,379
23.95000,378
23.95833,377
23.96667,376
23.97500,375
23.98333,375
23.99167,374
24.00000,373
24.00833,373
24.01667,372
24.02500,372
24.03333,371
24.04167,370
24.05000,370
24.05833,369
24.06667,368
24.07500,368
24.08333,367
24.09167,366
24.10000,366
24.10833,365
24.11667,364
24.12500,364
24.13333,363
24.14167,362
24.15000,362
24.15833,361
24.16667,361
24.17500,360
24.18333,359
24.19167,359
24.20000,359
24.20833,358
24.21667,358
24.22500,358
24.23333,358
24.24167,358
24.25000,358
24.25833,358
24.26667,357
24.27500,357
24.28333,358
24.29167,358
24.30000,359
24.30833,360
24.31667,360
24.32500,361
24.33333,363
24.34167,364
24.35000,366
24.35833,368
24.36667,371
24.37500,374
24.38333,378
24.39167,382
24.40000,387
24.40833,393
24.41667,399
24.42500,406
24.43333,414
24.44167,424
24.45000,434
24.45833,445
24.46667,458
24.47500,472
24.48333,488
24.49167,505
24.50000,524
24.50833,544
24.51667,567
24.52500,591
24.53333,617
24.54167,645
24.55000,676
24.55833,708
24.56667,743
24.57500,781
24.58333,820
24.59167,862
24.60000,906
24.60833,953
24.61667,1002
24.62500,1054
24.63333,1108
24.64167,1164
24.65000,1223
24.65833,1283
24.66667,1346
24.67500,1410
24.68333,1476
24.69167,1544
24.70000,1613
24.70833,1683
24.71667,1754
24.72500,1826
24.73333,1900
24.74167,1975
24.75000,2050
24.75833,2125
24.76667,2199
24.77500,2274
24.78333,2347
24.79167,2421
24.80000,2493
24.80833,2565
24.81667,2637
24.82500,2707
24.83333,2776
24.84167,2843
24.85000,2909
24.85833,2973
24.86667,3035
24.87500,3095
24.88333,3153
24.89167,3209
24.90000,3263
24.90833,3315
24.91667,3365
24.92500,3413
24.93333,3458
24.94167,3502
24.95000,3543
24.95833,3581
24.96667,3617
24.97500,3651
24.98333,3683
24.99167,3712
25.00000,3739
25.00833,3764
25.01667,3786
25.02500,3806
25.03333,3823
25.04167,3837
25.05000,3849
25.05833,3859
25.06667,3866
25.07500,3870
25.08333,3871
25.09167,3869
25.10000,3865
25.10833,3857
25.11667,3846
25.12500,3832
25.13333,3815
25.14167,3795
25.15000,3773
25.15833,3748
25.16667,3719
25.17500,3687
25.18333,3652
25.19167,3615
25.20000,3574
25.20833,3530
25.21667,3484
25.22500,3435
25.23333,3383
25.24167,3329
25.25000,3273
25.25833,3214
25.26667,3153
25.27500,3091
25.28333,3027
25.29167,2962
25.30000,2894
25.30833,2826
25.31667,2756
25.32500,2685
25.33333,2613
25.34167,2541
25.35000,2468
25.35833,2396
25.36667,2324
25.37500,2252
25.38333,2180
25.39167,2109
25.40000,2039
25.40833,1969
25.41667,1901
25.42500,1834
25.43333,1768
25.44167,1703
25.45000,1639
25.45833,1578
25.46667,1518
25.47500,1460
25.48333,1403
25.49167,1348
25.50000,1295
25.50833,1244
25.51667,1195
25.52500,1148
25.53333,1102
25.54167,1058
25.55000,1017
25.55833,977
25.56667,939
25.57500,903
25.58333,869
25.59167,836
25.60000,805
25.60833,775
25.61667,748
25.62500,722
25.63333,697
25.64167,673
25.65000,651
25.65833,630
25.66667,610
25.67500,592
25.68333,574
25.69167,558
25.70000,542
25.70833,527
25.71667,514
25.72500,502
25.73333,490
25.74167,478
25.75000,468
25.75833,457
25.76667,448
25.77500,439
25.78333,430
25.79167,422
25.80000,414
25.80833,406
25.81667,399
25.82500,393
25.83333,386
25.84167,380
25.85000,374
25.85833,368
25.86667,363
25.87500,357
25.88333,352
25.89167,348
25.90000,343
25.90833,337
25.91667,332
25.92500,327
25.93333,323
25.94167,319
25.95000,314
25.95833,310
25.96667,306
25.97500,302
25.98333,298
25.99167,293
26.00000,289
26.00833,284
26.01667,279
26.02500,275
26.03333,271
26.04167,267
26.05000,262
26.05833,258
26.06667,254
26.07500,250
26.08333,246
26.09167,242
26.10000,238
26.10833,234
26.11667,230
26.12500,227
26.13333,223
26.14167,219
26.15000,216
26.15833,212
26.16667,209
26.17500,206
26.18333,203
26.19167,199
26.20000,197
26.20833,194
26.21667,190
26.22500,188
26.23333,185
26.24167,182
26.25000,180
26.25833,177
26.26667,174
26.27500,172
26.28333,170
26.29167,168
26.30000,166
26.30833,164
26.31667,162
26.32500,160
26.33333,159
26.34167,157
26.35000,156
26.35833,154
26.36667,154
26.37500,152
26.38333,151
26.39167,150
26.40000,149
26.40833,148
26.41667,147
26.42500,146
26.43333,146
26.44167,145
26.45000,144
26.45833,143
26.46667,142
26.47500,141
26.48333,140
26.49167,140
26.50000,140
26.50833,139
26.51667,139
26.52500,139
26.53333,139
26.54167,139
26.55000,138
26.55833,138
26.56667,138
26.57500,138
26.58333,137
26.59167,137
26.60000,137
26.60833,137
26.61667,137
26.62500,137
26.63333,137
26.64167,136
26.65000,136
26.65833,136
26.66667,136
26.67500,137
26.68333,137
26.69167,137
26.70000,137
26.70833,137
26.71667,138
26.72500,138
26.73333,138
26.74167,138
26.75000,138
26.75833,138
26.76667,138
26.77500,138
26.78333,139
26.79167,139
26.80000,139
26.80833,139
26.81667,139
26.82500,139
26.83333,139
26.84167,140
26.85000,140
26.85833,139
26.86667,139
26.87500,140
26.88333,140
26.89167,140
26.90000,140
26.90833,140
26.91667,139
26.92500,139
26.93333,139
26.94167,139
26.95000,139
26.95833,139
26.96667,139
26.97500,139
26.98333,139
26.99167,140
27.00000,140
27.00833,140
27.01667,141
27.02500,141
27.03333,141
27.04167,141
27.05000,141
27.05833,141
27.06667,141
27.07500,141
27.08333,141
27.09167,142
27.10000,142
27.10833,142
27.11667,142
27.12500,142
27.13333,143
27.14167,143
27.15000,143
27.15833,143
27.16667,143
27.17500,143
27.18333,143
27.19167,142
27.20000,142
27.20833,142
27.21667,143
27.22500,143
27.23333,144
27.24167,144
27.25000,143
27.25833,143
27.26667,143
27.27500,142
27.28333,142
27.29167,142
27.30000,142
27.30833,142
27.31667,142
27.32500,142
27.33333,142
27.34167,142
27.35000,142
27.35833,141
27.36667,141
27.37500,141
27.38333,141
27.39167,140
27.40000,140
27.40833,140
27.41667,139
27.42500,139
27.43333,138
27.44167,138
27.45000,137
27.45833,137
27.46667,136
27.47500,136
27.48333,135
27.49167,135
27.50000,134
27.50833,134
27.51667,133
27.52500,133
27.53333,132
27.54167,132
27.55000,131
27.55833,131
27.56667,130
27.57500,130
27.58333,129
27.59167,129
27.60000,128
27.60833,127
27.61667,127
27.62500,126
27.63333,125
27.64167,124
27.65000,124
27.65833,123
27.66667,123
27.67500,122
27.68333,121
27.69167,121
27.70000,120
27.70833,119
27.71667,118
27.72500,117
27.73333,115
27.74167,114
27.75000,114
27.75833,113
27.76667,113
27.77500,112
27.78333,112
27.79167,111
27.80000,111
27.80833,110
27.81667,109
27.82500,109
27.83333,108
27.84167,108
27.85000,107
27.85833,106
27.86667,106
27.87500,106
27.88333,105
27.89167,105
27.90000,105
27.90833,105
27.91667,105
27.92500,105
27.93333,104
27.94167,104
27.95000,104
27.95833,103
27.96667,103
27.97500,104
27.98333,104
27.99167,104
28.00000,104
28.00833,103
28.01667,103
28.02500,102
28.03333,102
28.04167,103
28.05000,103
28.05833,103
28.06667,103
28.07500,104
28.08333,104
28.09167,104
28.10000,105
28.10833,105
28.11667,105
28.12500,105
28.13333,106
28.14167,106
28.15000,107
28.15833,107
28.16667,108
28.17500,108
28.18333,108
28.19167,109
28.20000,109
28.20833,109
28.21667,110
28.22500,110
28.23333,111
28.24167,111
28.25000,111
28.25833,111
28.26667,111
28.27500,112
28.28333,113
28.29167,113
28.30000,114
28.30833,114
28.31667,115
28.32500,116
28.33333,117
28.34167,118
28.35000,119
28.35833,120
28.36667,121
28.37500,122
28.38333,123
28.39167,125
28.40000,127
28.40833,129
28.41667,131
28.42500,133
28.43333,136
28.44167,139
28.45000,142
28.45833,146
28.46667,150
28.47500,154
28.48333,158
28.49167,163
28.50000,168
28.50833,175
28.51667,182
28.52500,190
28.53333,198
28.54167,207
28.55000,217
28.55833,228
28.56667,240
28.57500,253
28.58333,267
28.59167,281
28.60000,297
28.60833,314
28.61667,332
28.62500,351
28.63333,372
28.64167,393
28.65000,416
28.65833,440
28.66667,466
28.67500,493
28.68333,522
28.69167,553
28.70000,585
28.70833,618
28.71667,652
28.72500,688
28.73333,725
28.74167,764
28.75000,804
28.75833,846
28.76667,888
28.77500,932
28.78333,977
28.79167,1024
28.80000,1071
28.80833,1119
28.81667,1168
28.82500,1218
28.83333,1269
28.84167,1320
28.85000,1372
28.85833,1424
28.86667,1476
28.87500,1528
28.88333,1581
28.89167,1634
28.90000,1686
28.90833,1739
28.91667,1791
28.92500,1843
28.93333,1894
28.94167,1945
28.95000,1995
28.95833,2044
28.96667,2092
28.97500,2139
28.98333,2185
28.99167,2230
29.00000,2274
29.00833,2316
29.01667,2356
29.02500,2396
29.03333,2434
29.04167,2471
29.05000,2506
29.05833,2539
29.06667,2571
29.07500,2602
29.08333,2630
29.09167,2657
29.10000,2683
29.10833,2707
29.11667,2729
29.12500,2750
29.13333,2769
29.14167,2787
29.15000,2803
29.15833,2817
29.16667,2830
29.17500,2842
29.18333,2853
29.19167,2861
29.20000,2868
29.20833,2874
29.21667,2878
29.22500,2881
29.23333,2882
29.24167,2883
29.25000,2881
29.25833,2879
29.26667,2875
29.27500,2869
29.28333,2863
29.29167,2855
29.30000,2845
29.30833,2834
29.31667,2821
29.32500,2807
29.33333,2791
29.34167,2774
29.35000,2756
29.35833,2736
29.36667,2715
29.37500,2693
29.38333,2668
29.39167,2642
29.40000,2616
29.40833,2587
29.41667,2557
29.42500,2526
29.43333,2494
29.44167,2460
29.45000,2425
29.45833,2389
29.46667,2352
29.47500,2313
29.48333,2274
29.49167,2233
29.50000,2192
29.50833,2149
29.51667,2106
29.52500,2062
29.53333,2018
29.54167,1972
29.55000,1927
29.55833,1880
29.56667,1834
29.57500,1787
29.58333,1740
29.59167,1693
29.60000,1645
29.60833,1598
29.61667,1551
29.62500,1504
29.63333,1457
29.64167,1411
29.65000,1365
29.65833,1320
29.66667,1275
29.67500,1230
29.68333,1187
29.69167,1144
29.70000,1102
29.70833,1061
29.71667,1021
29.72500,982
29.73333,943
29.74167,905
29.75000,869
29.75833,833
29.76667,799
29.77500,766
29.78333,734
29.79167,702
29.80000,672
29.80833,643
29.81667,615
29.82500,588
29.83333,562
29.84167,537
29.85000,514
29.85833,491
29.86667,469
29.87500,449
29.88333,428
29.89167,409
29.90000,390
29.90833,373
29.91667,357
29.92500,341
29.93333,325
29.94167,311
29.95000,297
29.95833,284
29.96667,272
29.97500,260
29.98333,249
29.99167,238
30.00000,228
30.00833,219
30.01667,209
30.02500,200
30.03333,191
30.04167,183
30.05000,175
30.05833,167
30.06667,160
30.07500,153
30.08333,146
30.09167,140
30.10000,134
30.10833,127
30.11667,121
30.12500,115
30.13333,109
30.14167,103
30.15000,97
30.15833,91
30.16667,86
30.17500,80
30.18333,75
30.19167,69
30.20000,64
30.20833,59
30.21667,54
30.22500,49
30.23333,44
30.24167,38
30.25000,33
30.25833,28
30.26667,23
30.27500,18
30.28333,13
30.29167,8
30.30000,3
30.30833,-2
30.31667,-6
30.32500,-11
30.33333,-16
30.34167,-21
30.35000,-25
30.35833,-30
30.36667,-35
30.37500,-40
30.38333,-45
30.39167,-49
30.40000,-53
30.40833,-58
30.41667,-62
30.42500,-66
30.43333,-70
30.44167,-74
30.45000,-78
30.45833,-83
30.46667,-87
30.47500,-90
30.48333,-93
30.49167,-96
30.50000,-99
30.50833,-102
30.51667,-105
30.52500,-108
30.53333,-110
30.54167,-113
30.55000,-115
30.55833,-117
30.56667,-119
30.57500,-121
30.58333,-122
30.59167,-123
30.60000,-124
30.60833,-125
30.61667,-125
30.62500,-125
30.63333,-126
30.64167,-125
30.65000,-125
30.65833,-125
30.66667,-125
30.67500,-124
30.68333,-124
30.69167,-123
30.70000,-121
30.70833,-120
30.71667,-118
30.72500,-116
30.73333,-114
30.74167,-112
30.75000,-109
30.75833,-106
30.76667,-103
30.77500,-100
30.78333,-96
30.79167,-92
30.80000,-88
30.80833,-85
30.81667,-81
30.82500,-77
30.83333,-73
30.84167,-69
30.85000,-64
30.85833,-60
30.86667,-55
30.87500,-51
30.88333,-46
30.89167,-41
30.90000,-35
30.90833,-29
30.91667,-24
30.92500,-19
30.93333,-13
30.94167,-7
30.95000,-2
30.95833,4
30.96667,9
30.97500,15
30.98333,21
30.99167,26
31.00000,32
31.00833,37
31.01667,42
31.02500,48
31.03333,53
31.04167,58
31.05000,64
31.05833,69
31.06667,75
31.07500,80
31.08333,85
31.09167,89
31.10000,94
31.10833,99
31.11667,104
31.12500,108
31.13333,112
31.14167,117
31.15000,121
31.15833,124
31.16667,128
31.17500,132
31.18333,136
31.19167,140
31.20000,143
31.20833,147
31.21667,150
31.22500,152
31.23333,155
31.24167,158
31.25000,161
31.25833,163
31.26667,165
31.27500,167
31.28333,169
31.29167,170
31.30000,172
31.30833,174
31.31667,175
31.32500,177
31.33333,178
31.34167,179
31.35000,179
31.35833,180
31.36667,181
31.37500,182
31.38333,182
31.39167,183
31.40000,183
31.40833,183
31.41667,183
31.42500,183
31.43333,183
31.44167,183
31.45000,183
31.45833,182
31.46667,182
31.47500,182
31.48333,181
31.49167,180
31.50000,180
31.50833,179
31.51667,179
31.52500,178
31.53333,178
31.54167,177
31.55000,177
31.55833,177
31.56667,176
31.57500,176
31.58333,176
31.59167,176
31.60000,175
31.60833,175
31.61667,175
31.62500,175
31.63333,175
31.64167,175
31.65000,175
31.65833,175
31.66667,176
31.67500,177
31.68333,178
31.69167,178
31.70000,179
31.70833,181
31.71667,182
31.72500,184
31.73333,186
31.74167,188
31.75000,191
31.75833,193
31.76667,196
31.77500,199
31.78333,202
31.79167,205
31.80000,209
31.80833,212
31.81667,216
31.82500,220
31.83333,225
31.84167,229
31.85000,235
31.85833,240
31.86667,246
31.87500,252
31.88333,258
31.89167,264
31.90000,271
31.90833,277
31.91667,284
31.92500,292
31.93333,299
31.94167,307
31.95000,314
31.95833,322
31.96667,330
31.97500,338
31.98333,347
31.99167,355
32.00000,364
32.00833,373
32.01667,382
32.02500,390
32.03333,399
32.04167,408
32.05000,417
32.05833,425
32.06667,434
32.07500,443
32.08333,451
32.09167,460
32.10000,468
32.10833,477
32.11667,485
32.12500,493
32.13333,501
32.14167,509
32.15000,517
32.15833,525
32.16667,533
32.17500,541
32.18333,548
32.19167,555
32.20000,562
32.20833,570
32.21667,577
32.22500,583
32.23333,590
32.24167,596
32.25000,602
32.25833,608
32.26667,614
32.27500,620
32.28333,626
32.29167,632
32.30000,637
32.30833,642
32.31667,646
32.32500,651
32.33333,656
32.34167,660
32.35000,664
32.35833,668
32.36667,672
32.37500,676
32.38333,680
32.39167,684
32.40000,687
32.40833,691
32.41667,694
32.42500,696
32.43333,698
32.44167,700
32.45000,701
32.45833,703
32.46667,704
32.47500,705
32.48333,706
32.49167,707
32.50000,708
32.50833,708
32.51667,708
32.52500,707
32.53333,707
32.54167,706
32.55000,705
32.55833,704
32.56667,703
32.57500,702
32.58333,700
32.59167,698
32.60000,696
32.60833,694
32.61667,690
32.62500,687
32.63333,684
32.64167,680
32.65000,677
32.65833,674
32.66667,670
32.67500,665
32.68333,661
32.69167,656
32.70000,651
32.70833,646
32.71667,642
32.72500,637
32.73333,632
32.74167,626
32.75000,621
32.75833,616
32.76667,610
32.77500,604
32.78333,599
32.79167,593
32.80000,588
32.80833,583
32.81667,577
32.82500,572
32.83333,567
32.84167,562
32.85000,556
32.85833,551
32.86667,546
32.87500,541
32.88333,536
32.89167,531
32.90000,526
32.90833,522
32.91667,518
32.92500,513
32.93333,509
32.94167,505
32.95000,501
32.95833,497
32.96667,493
32.97500,490
32.98333,487
32.99167,484
33.00000,481
33.00833,478
33.01667,475
33.02500,473
33.03333,471
33.04167,468
33.05000,465
33.05833,463
33.06667,461
33.07500,459
33.08333,457
33.09167,455
33.10000,453
33.10833,451
33.11667,449
33.12500,447
33.13333,446
33.14167,444
33.15000,442
33.15833,441
33.16667,439
33.17500,438
33.18333,437
33.19167,435
33.20000,433
33.20833,432
33.21667,430
33.22500,429
33.23333,427
33.24167,425
33.25000,423
33.25833,421
33.26667,419
33.27500,417
33.28333,415
33.29167,413
33.30000,411
33.30833,409
33.31667,406
33.32500,404
33.33333,402
33.34167,400
33.35000,398
33.35833,395
33.36667,393
33.37500,390
33.38333,387
33.39167,384
33.40000,381
33.40833,378
33.41667,375
33.42500,373
33.43333,370
33.44167,367
33.45000,364
33.45833,361
33.46667,358
33.47500,355
33.48333,351
33.49167,347
33.50000,344
33.50833,341
33.51667,337
33.52500,333
33.53333,330
33.54167,326
33.55000,321
33.55833,317
33.56667,313
33.57500,309
33.58333,306
33.59167,302
33.60000,298
33.60833,294
33.61667,290
33.62500,286
33.63333,282
33.64167,278
33.65000,274
33.65833,270
33.66667,265
33.67500,261
33.68333,257
33.69167,253
33.70000,249
33.70833,245
33.71667,241
33.72500,237
33.73333,233
33.74167,229
33.75000,225
33.75833,221
33.76667,217
33.77500,213
33.78333,209
33.79167,205
33.80000,201
33.80833,197
33.81667,193
33.82500,190
33.83333,186
33.84167,182
33.85000,178
33.85833,174
33.86667,171
33.87500,167
33.88333,163
33.89167,160
33.90000,157
33.90833,154
33.91667,151
33.92500,147
33.93333,144
33.94167,141
33.95000,137
33.95833,135
33.96667,132
33.97500,130
33.98333,127
33.99167,124
34.00000,122
34.00833,119
34.01667,117
34.02500,115
34.03333,113
34.04167,111
34.05000,109
34.05833,107
34.06667,105
34.07500,102
34.08333,101
34.09167,99
34.10000,97
34.10833,95
34.11667,93
34.12500,92
34.13333,90
34.14167,89
34.15000,87
34.15833,86
34.16667,85
34.17500,84
34.18333,83
34.19167,82
34.20000,81
34.20833,80
34.21667,79
34.22500,77
34.23333,76
34.24167,75
34.25000,74
34.25833,73
34.26667,72
34.27500,72
34.28333,72
34.29167,71
34.30000,71
34.30833,70
34.31667,69
34.32500,68
34.33333,67
34.34167,67
34.35000,66
34.35833,66
34.36667,65
34.37500,64
34.38333,64
34.39167,64
34.40000,63
34.40833,63
34.41667,62
34.42500,62
34.43333,61
34.44167,61
34.45000,61
34.45833,61
34.46667,61
34.47500,60
34.48333,60
34.49167,59
34.50000,59
34.50833,59
34.51667,58
34.52500,58
34.53333,58
34.54167,58
34.55000,57
34.55833,57
34.56667,57
34.57500,57
34.58333,56
34.59167,56
34.60000,56
34.60833,56
34.61667,55
34.62500,55
34.63333,55
34.64167,54
34.65000,54
34.65833,54
34.66667,54
34.67500,53
34.68333,53
34.69167,53
34.70000,53
34.70833,52
34.71667,52
34.72500,52
34.73333,52
34.74167,51
34.75000,51
34.75833,51
34.76667,50
34.77500,50
34.78333,50
34.79167,50
34.80000,49
34.80833,49
34.81667,49
34.82500,48
34.83333,48
34.84167,48
34.85000,48
34.85833,48
34.86667,47
34.87500,47
34.88333,47
34.89167,47
34.90000,47
34.90833,47
34.91667,46
34.92500,46
34.93333,46
34.94167,46
34.95000,46
34.95833,46
34.96667,46
34.97500,46
34.98333,46
34.99167,46
35.00000,46
35.00833,46
35.01667,46
35.02500,46
35.03333,45
35.04167,45
35.05000,45
35.05833,45
35.06667,45
35.07500,46
35.08333,46
35.09167,46
35.10000,46
35.10833,46
35.11667,46
35.12500,47
35.13333,47
35.14167,47
35.15000,47
35.15833,47
35.16667,47
35.17500,47
35.18333,48
35.19167,48
35.20000,49
35.20833,49
35.21667,49
35.22500,50
35.23333,50
35.24167,51
35.25000,51
35.25833,52
35.26667,53
35.27500,53
35.28333,54
35.29167,54
35.30000,54
35.30833,55
35.31667,55
35.32500,55
35.33333,56
35.34167,57
35.35000,58
35.35833,59
35.36667,59
35.37500,60
35.38333,61
35.39167,62
35.40000,62
35.40833,63
35.41667,64
35.42500,65
35.43333,65
35.44167,66
35.45000,67
35.45833,67
35.46667,68
35.47500,69
35.48333,70
35.49167,70
35.50000,71
35.50833,72
35.51667,74
35.52500,75
35.53333,76
35.54167,76
35.55000,77
35.55833,77
35.56667,78
35.57500,79
35.58333,80
35.59167,80
35.60000,81
35.60833,81
35.61667,82
35.62500,82
35.63333,83
35.64167,84
35.65000,84
35.65833,85
35.66667,86
35.67500,86
35.68333,88
35.69167,89
35.70000,89
35.70833,90
35.71667,90
35.72500,91
35.73333,91
35.74167,92
35.75000,92
35.75833,93
35.76667,93
35.77500,94
35.78333,95
35.79167,95
35.80000,95
35.80833,96
35.81667,96
35.82500,97
35.83333,97
35.84167,98
35.85000,98
35.85833,98
35.86667,99
35.87500,99
35.88333,99
35.89167,99
35.90000,100
35.90833,100
35.91667,100
35.92500,100
35.93333,100
35.94167,101
35.95000,101
35.95833,101
35.96667,102
35.97500,102
35.98333,102
35.99167,102
36.00000,102
36.00833,102
36.01667,102
36.02500,103
36.03333,103
36.04167,103
36.05000,103
36.05833,103
36.06667,103
36.07500,103
36.08333,103
36.09167,103
36.10000,103
36.10833,103
36.11667,103
36.12500,103
36.13333,103
36.14167,103
36.15000,103
36.15833,103
36.16667,103
36.17500,103
36.18333,103
36.19167,102
36.20000,102
36.20833,102
36.21667,102
36.22500,101
36.23333,101
36.24167,101
36.25000,100
36.25833,100
36.26667,100
36.27500,99
36.28333,98
36.29167,98
36.30000,98
36.30833,97
36.31667,97
36.32500,97
36.33333,96
36.34167,96
36.35000,96
36.35833,96
36.36667,95
36.37500,95
36.38333,94
36.39167,94
36.40000,93
36.40833,93
36.41667,93
36.42500,92
36.43333,92
36.44167,92
36.45000,91
36.45833,91
36.46667,90
36.47500,90
36.48333,89
36.49167,88
36.50000,88
36.50833,88
36.51667,88
36.52500,88
36.53333,88
36.54167,88
36.55000,87
36.55833,86
36.56667,86
36.57500,86
36.58333,86
36.59167,85
36.60000,85
36.60833,84
36.61667,84
36.62500,84
36.63333,84
36.64167,84
36.65000,84
36.65833,84
36.66667,84
36.67500,84
36.68333,83
36.69167,83
36.70000,83
36.70833,83
36.71667,83
36.72500,83
36.73333,83
36.74167,83
36.75000,83
36.75833,84
36.76667,84
36.77500,84
36.78333,84
36.79167,84
36.80000,84
36.80833,84
36.81667,85
36.82500,85
36.83333,85
36.84167,85
36.85000,85
36.85833,85
36.86667,86
36.87500,86
36.88333,87
36.89167,87
36.90000,87
36.90833,88
36.91667,88
36.92500,88
36.93333,89
36.94167,89
36.95000,90
36.95833,90
36.96667,90
36.97500,91
36.98333,91
36.99167,92
37.00000,93
37.00833,93
37.01667,94
37.02500,94
37.03333,94
37.04167,95
37.05000,95
37.05833,96
37.06667,96
37.07500,97
37.08333,97
37.09167,98
37.10000,98
37.10833,99
37.11667,101
37.12500,101
37.13333,102
37.14167,103
37.15000,104
37.15833,105
37.16667,106
37.17500,106
37.18333,107
37.19167,108
37.20000,108
37.20833,109
37.21667,109
37.22500,110
37.23333,110
37.24167,111
37.25000,112
37.25833,112
37.26667,113
37.27500,113
37.28333,114
37.29167,114
37.30000,115
37.30833,116
37.31667,117
37.32500,118
37.33333,119
37.34167,120
37.35000,121
37.35833,122
37.36667,123
37.37500,124
37.38333,125
37.39167,126
37.40000,127
37.40833,128
37.41667,129
37.42500,130
37.43333,131
37.44167,132
37.45000,133
37.45833,134
37.46667,135
37.47500,136
37.48333,137
37.49167,138
37.50000,139
37.50833,140
37.51667,140
37.52500,141
37.53333,142
37.54167,143
37.55000,144
37.55833,145
37.56667,145
37.57500,146
37.58333,147
37.59167,148
37.60000,149
37.60833,150
37.61667,150
37.62500,151
37.63333,152
37.64167,153
37.65000,154
37.65833,154
37.66667,155
37.67500,156
37.68333,156
37.69167,157
37.70000,157
37.70833,158
37.71667,159
37.72500,160
37.73333,160
37.74167,161
37.75000,162
37.75833,162
37.76667,162
37.77500,163
37.78333,163
37.79167,164
37.80000,164
37.80833,164
37.81667,165
37.82500,165
37.83333,165
37.84167,165
37.85000,165
37.85833,165
37.86667,165
37.87500,165
37.88333,165
37.89167,165
37.90000,165
37.90833,165
37.91667,165
37.92500,165
37.93333,165
37.94167,165
37.95000,165
37.95833,165
37.96667,165
37.97500,164
37.98333,164
37.99167,163
38.00000,163
38.00833,162
38.01667,162
38.02500,162
38.03333,162
38.04167,162
38.05000,162
38.05833,161
38.06667,160
38.07500,159
38.08333,159
38.09167,158
38.10000,158
38.10833,157
38.11667,156
38.12500,155
38.13333,154
38.14167,153
38.15000,153
38.15833,152
38.16667,152
38.17500,151
38.18333,150
38.19167,149
38.20000,148
38.20833,148
38.21667,147
38.22500,146
38.23333,145
38.24167,144
38.25000,143
38.25833,142
38.26667,141
38.27500,139
38.28333,138
38.29167,137
38.30000,135
38.30833,134
38.31667,133
38.32500,132
38.33333,131
38.34167,130
38.35000,129
38.35833,128
38.36667,127
38.37500,125
38.38333,124
38.39167,123
38.40000,122
38.40833,121
38.41667,119
38.42500,118
38.43333,117
38.44167,115
38.45000,113
38.45833,112
38.46667,111
38.47500,110
38.48333,108
38.49167,107
38.50000,106
38.50833,105
38.51667,104
38.52500,103
38.53333,101
38.54167,100
38.55000,99
38.55833,97
38.56667,96
38.57500,95
38.58333,93
38.59167,92
38.60000,91
38.60833,89
38.61667,88
38.62500,87
38.63333,85
38.64167,84
38.65000,83
38.65833,82
38.66667,81
38.67500,80
38.68333,78
38.69167,78
38.70000,77
38.70833,75
38.71667,74
38.72500,73
38.73333,72
38.74167,71
38.75000,69
38.75833,68
38.76667,67
38.77500,65
38.78333,64
38.79167,63
38.80000,62
38.80833,61
38.81667,60
38.82500,60
38.83333,59
38.84167,58
38.85000,57
38.85833,56
38.86667,56
38.87500,55
38.88333,54
38.89167,53
38.90000,52
38.90833,52
38.91667,51
38.92500,50
38.93333,49
38.94167,48
38.95000,48
38.95833,47
38.96667,46
38.97500,45
38.98333,44
38.99167,44
39.00000,44
39.00833,43
39.01667,43
39.02500,42
39.03333,42
39.04167,41
39.05000,41
39.05833,41
39.06667,40
39.07500,40
39.08333,39
39.09167,39
39.10000,39
39.10833,39
39.11667,39
39.12500,38
39.13333,38
39.14167,38
39.15000,37
39.15833,37
39.16667,37
39.17500,37
39.18333,37
39.19167,36
39.20000,36
39.20833,36
39.21667,35
39.22500,35
39.23333,34
39.24167,34
39.25000,34
39.25833,34
39.26667,34
39.27500,34
39.28333,34
39.29167,33
39.30000,33
39.30833,33
39.31667,33
39.32500,33
39.33333,33
39.34167,33
39.35000,33
39.35833,33
39.36667,33
39.37500,33
39.38333,32
39.39167,32
39.40000,32
39.40833,32
39.41667,31
39.42500,31
39.43333,31
39.44167,31
39.45000,31
39.45833,31
39.46667,31
39.47500,31
39.48333,31
39.49167,31
39.50000,31
39.50833,31
39.51667,31
39.52500,31
39.53333,31
39.54167,31
39.55000,31
39.55833,31
39.56667,31
39.57500,31
39.58333,31
39.59167,31
39.60000,31
39.60833,31
39.61667,31
39.62500,31
39.63333,31
39.64167,31
39.65000,31
39.65833,31
39.66667,31
39.67500,31
39.68333,31
39.69167,31
39.70000,31
39.70833,31
39.71667,31
39.72500,31
39.73333,31
39.74167,31
39.75000,31
39.75833,31
39.76667,32
39.77500,32
39.78333,32
39.79167,32
39.80000,32
39.80833,31
39.81667,31
39.82500,31
39.83333,31
39.84167,31
39.85000,31
39.85833,31
39.86667,31
39.87500,31
39.88333,31
39.89167,31
39.90000,31
39.90833,31
39.91667,31
39.92500,31
39.93333,30
39.94167,30
39.95000,30
39.95833,30
39.96667,30
39.97500,30
39.98333,30
39.99167,31
40.00000,31
40.00833,31
40.01667,31
40.02500,31
40.03333,30
40.04167,30
40.05000,30
40.05833,30
40.06667,30
40.07500,30
40.08333,30
40.09167,30
40.10000,30
40.10833,31
40.11667,31
40.12500,31
40.13333,31
40.14167,31
40.15000,31
40.15833,31
40.16667,31
40.17500,32
40.18333,32
40.19167,32
40.20000,33
40.20833,33
40.21667,33
40.22500,33
40.23333,33
40.24167,33
40.25000,33
40.25833,33
40.26667,33
40.27500,34
40.28333,34
40.29167,34
40.30000,34
40.30833,35
40.31667,35
40.32500,35
40.33333,36
40.34167,36
40.35000,36
40.35833,36
40.36667,37
40.37500,37
40.38333,38
40.39167,38
40.40000,39
40.40833,39
40.41667,40
40.42500,41
40.43333,42
40.44167,42
40.45000,43
40.45833,44
40.46667,45
40.47500,47
40.48333,48
40.49167,49
40.50000,51
40.50833,52
40.51667,53
40.52500,54
40.53333,55
40.54167,56
40.55000,57
40.55833,58
40.56667,60
40.57500,62
40.58333,63
40.59167,65
40.60000,67
40.60833,69
40.61667,71
40.62500,73
40.63333,75
40.64167,77
40.65000,79
40.65833,81
40.66667,83
40.67500,86
40.68333,89
40.69167,91
40.70000,94
40.70833,96
40.71667,99
40.72500,101
40.73333,104
40.74167,107
40.75000,111
40.75833,114
40.76667,116
40.77500,119
40.78333,122
40.79167,125
40.80000,128
40.80833,131
40.81667,134
40.82500,137
40.83333,140
40.84167,144
40.85000,147
40.85833,151
40.86667,154
40.87500,158
40.88333,161
40.89167,165
40.90000,168
40.90833,172
40.91667,175
40.92500,179
40.93333,182
40.94167,186
40.95000,190
40.95833,194
40.96667,197
40.97500,200
40.98333,204
40.99167,207
41.00000,210
41.00833,214
41.01667,217
41.02500,221
41.03333,225
41.04167,228
41.05000,231
41.05833,235
41.06667,238
41.07500,241
41.08333,245
41.09167,248
41.10000,252
41.10833,254
41.11667,257
41.12500,260
41.13333,263
41.14167,265
41.15000,268
41.15833,271
41.16667,273
41.17500,276
41.18333,278
41.19167,281
41.20000,284
41.20833,287
41.21667,289
41.22500,292
41.23333,294
41.24167,297
41.25000,299
41.25833,302
41.26667,304
41.27500,307
41.28333,309
41.29167,310
41.30000,313
41.30833,315
41.31667,317
41.32500,319
41.33333,321
41.34167,323
41.35000,325
41.35833,327
41.36667,329
41.37500,330
41.38333,332
41.39167,334
41.40000,335
41.40833,337
41.41667,338
41.42500,339
41.43333,341
41.44167,342
41.45000,343
41.45833,345
41.46667,346
41.47500,347
41.48333,349
41.49167,350
41.50000,352
41.50833,353
41.51667,353
41.52500,354
41.53333,354
41.54167,355
41.55000,356
41.55833,356
41.56667,356
41.57500,356
41.58333,356
41.59167,357
41.60000,356
41.60833,356
41.61667,357
41.62500,357
41.63333,357
41.64167,358
41.65000,358
41.65833,358
41.66667,358
41.67500,357
41.68333,357
41.69167,356
41.70000,356
41.70833,356
41.71667,355
41.72500,354
41.73333,353
41.74167,352
41.75000,352
41.75833,351
41.76667,350
41.77500,349
41.78333,348
41.79167,347
41.80000,345
41.80833,344
41.81667,342
41.82500,341
41.83333,340
41.84167,339
41.85000,337
41.85833,336
41.86667,334
41.87500,332
41.88333,331
41.89167,329
41.90000,327
41.90833,326
41.91667,324
41.92500,323
41.93333,320
41.94167,318
41.95000,316
41.95833,314
41.96667,313
41.97500,311
41.98333,309
41.99167,307
42.00000,305
42.00833,304
42.01667,302
42.02500,300
42.03333,298
42.04167,296
42.05000,294
42.05833,292
42.06667,290
42.07500,288
42.08333,287
42.09167,285
42.10000,283
42.10833,281
42.11667,279
42.12500,277
42.13333,275
42.14167,273
42.15000,271
42.15833,270
42.16667,268
42.17500,266
42.18333,264
42.19167,262
42.20000,261
42.20833,259
42.21667,258
42.22500,256
42.23333,255
42.24167,253
42.25000,252
42.25833,250
42.26667,249
42.27500,247
42.28333,246
42.29167,244
42.30000,243
42.30833,241
42.31667,240
42.32500,238
42.33333,237
42.34167,236
42.35000,235
42.35833,234
42.36667,233
42.37500,232
42.38333,231
42.39167,230
42.40000,229
42.40833,227
42.41667,226
42.42500,225
42.43333,223
42.44167,222
42.45000,221
42.45833,220
42.46667,219
42.47500,219
42.48333,219
42.49167,218
42.50000,218
42.50833,217
42.51667,216
42.52500,215
42.53333,214
42.54167,213
42.55000,212
42.55833,211
42.56667,210
42.57500,209
42.58333,208
42.59167,207
42.60000,207
42.60833,205
42.61667,205
42.62500,204
42.63333,203
42.64167,202
42.65000,201
42.65833,200
42.66667,200
42.67500,198
42.68333,197
42.69167,197
42.70000,196
42.70833,195
42.71667,195
42.72500,194
42.73333,193
42.74167,192
42.75000,191
42.75833,190
42.76667,189
42.77500,188
42.78333,187
42.79167,186
42.80000,186
42.80833,185
42.81667,184
42.82500,184
42.83333,183
42.84167,182
42.85000,181
42.85833,180
42.86667,178
42.87500,177
42.88333,176
42.89167,176
42.90000,175
42.90833,174
42.91667,174
42.92500,173
42.93333,172
42.94167,171
42.95000,170
42.95833,169
42.96667,168
42.97500,167
42.98333,167
42.99167,166
43.00000,165
43.00833,164
43.01667,163
43.02500,163
43.03333,162
43.04167,161
43.05000,160
43.05833,160
43.06667,159
43.07500,158
43.08333,158
43.09167,157
43.10000,156
43.10833,155
43.11667,154
43.12500,153
43.13333,152
43.14167,151
43.15000,151
43.15833,150
43.16667,150
43.17500,149
43.18333,148
43.19167,147
43.20000,146
43.20833,145
43.21667,145
43.22500,144
43.23333,144
43.24167,143
43.25000,142
43.25833,141
43.26667,140
43.27500,139
43.28333,138
43.29167,137
43.30000,136
43.30833,135
43.31667,135
43.32500,134
43.33333,133
43.34167,133
43.35000,132
43.35833,132
43.36667,131
43.37500,131
43.38333,130
43.39167,129
43.40000,128
43.40833,128
43.41667,127
43.42500,126
43.43333,125
43.44167,124
43.45000,123
43.45833,123
43.46667,122
43.47500,122
43.48333,122
43.49167,121
43.50000,121
43.50833,120
43.51667,120
43.52500,119
43.53333,118
43.54167,118
43.55000,117
43.55833,115
43.56667,114
43.57500,113
43.58333,113
43.59167,112
43.60000,111
43.60833,110
43.61667,110
43.62500,109
43.63333,109
43.64167,108
43.65000,107
43.65833,106
43.66667,106
43.67500,105
43.68333,104
43.69167,103
43.70000,103
43.70833,102
43.71667,101
43.72500,101
43.73333,100
43.74167,100
43.75000,99
43.75833,99
43.76667,99
43.77500,98
43.78333,98
43.79167,97
43.80000,96
43.80833,95
43.81667,95
43.82500,94
43.83333,93
43.84167,93
43.85000,92
43.85833,92
43.86667,91
43.87500,90
43.88333,89
43.89167,88
43.90000,88
43.90833,87
43.91667,87
43.92500,86
43.93333,86
43.94167,85
43.95000,84
43.95833,83
43.96667,83
43.97500,82
43.98333,81
43.99167,81
44.00000,80
44.00833,79
44.01667,79
44.02500,78
44.03333,78
44.04167,77
44.05000,77
44.05833,77
44.06667,77
44.07500,76
44.08333,75
44.09167,74
44.10000,74
44.10833,73
44.11667,72
44.12500,72
44.13333,71
44.14167,71
44.15000,70
44.15833,70
44.16667,70
44.17500,69
44.18333,69
44.19167,69
44.20000,68
44.20833,68
44.21667,67
44.22500,67
44.23333,66
44.24167,66
44.25000,65
44.25833,64
44.26667,64
44.27500,63
44.28333,63
44.29167,63
44.30000,62
44.30833,62
44.31667,61
44.32500,60
44.33333,59
44.34167,59
44.35000,58
44.35833,58
44.36667,57
44.37500,57
44.38333,56
44.39167,56
44.40000,55
44.40833,55
44.41667,54
44.42500,54
44.43333,53
44.44167,53
44.45000,53
44.45833,53
44.46667,53
44.47500,53
44.48333,52
44.49167,51
44.50000,51
44.50833,51
44.51667,51
44.52500,51
44.53333,50
44.54167,50
44.55000,50
44.55833,49
44.56667,49
44.57500,48
44.58333,48
44.59167,47
44.60000,47
44.60833,47
44.61667,46
44.62500,46
44.63333,45
44.64167,45
44.65000,46
44.65833,45
44.66667,45
44.67500,45
44.68333,44
44.69167,45
44.70000,44
44.70833,44
44.71667,44
44.72500,43
44.73333,43
44.74167,43
44.75000,42
44.75833,42
44.76667,41
44.77500,41
44.78333,40
44.79167,40
44.80000,40
44.80833,40
44.81667,40
44.82500,40
44.83333,40
44.84167,39
44.85000,39
44.85833,39
44.86667,38
44.87500,38
44.88333,37
44.89167,37
44.90000,37
44.90833,37
44.91667,36
44.92500,36
44.93333,37
44.94167,36
44.95000,36
44.95833,36
44.96667,35
44.97500,35
44.98333,35
44.99167,34
45.00000,34
45.00833,34
45.01667,34
45.02500,34
45.03333,34
45.04167,34
45.05000,33
45.05833,33
45.06667,33
45.07500,32
45.08333,32
45.09167,32
45.10000,33
45.10833,33
45.11667,33
45.12500,33
45.13333,33
45.14167,32
45.15000,32
45.15833,32
45.16667,32
45.17500,32
45.18333,32
45.19167,31
45.20000,31
45.20833,31
45.21667,31
45.22500,31
45.23333,31
45.24167,31
45.25000,31
45.25833,31
45.26667,31
45.27500,31
45.28333,31
45.29167,31
45.30000,31
45.30833,31
45.31667,31
45.32500,32
45.33333,32
45.34167,32
45.35000,32
45.35833,32
45.36667,32
45.37500,31
45.38333,31
45.39167,31
45.40000,31
45.40833,31
45.41667,31
45.42500,30
45.43333,30
45.44167,30
45.45000,30
45.45833,30
45.46667,30
45.47500,30
45.48333,30
45.49167,30
45.50000,30
45.50833,30
45.51667,30
45.52500,30
45.53333,30
45.54167,30
45.55000,30
45.55833,30
45.56667,29
45.57500,29
45.58333,29
45.59167,30
45.60000,30
45.60833,30
45.61667,31
45.62500,30
45.63333,30
45.64167,29
45.65000,29
45.65833,29
45.66667,28
45.67500,28
45.68333,28
45.69167,28
45.70000,28
45.70833,29
45.71667,29
45.72500,29
45.73333,29
45.74167,29
45.75000,28
45.75833,28
45.76667,28
45.77500,28
45.78333,28
45.79167,28
45.80000,28
45.80833,27
45.81667,27
45.82500,27
45.83333,27
45.84167,27
45.85000,27
45.85833,27
45.86667,27
45.87500,26
45.88333,26
45.89167,26
45.90000,27
45.90833,27
45.91667,27
45.92500,27
45.93333,27
45.94167,27
45.95000,27
45.95833,27
45.96667,27
45.97500,26
45.98333,26
45.99167,26
46.00000,26
46.00833,25
46.01667,25
46.02500,26
46.03333,25
46.04167,25
46.05000,25
46.05833,24
46.06667,24
46.07500,24
46.08333,24
46.09167,24
46.10000,24
46.10833,24
46.11667,24
46.12500,24
46.13333,23
46.14167,23
46.15000,23
46.15833,23
46.16667,23
46.17500,23
46.18333,23
46.19167,23
46.20000,23
46.20833,23
46.21667,23
46.22500,22
46.23333,22
46.24167,22
46.25000,22
46.25833,21
46.26667,21
46.27500,21
46.28333,20
46.29167,20
46.30000,20
46.30833,20
46.31667,20
46.32500,20
46.33333,20
46.34167,20
46.35000,19
46.35833,19
46.36667,19
46.37500,19
46.38333,18
46.39167,18
46.40000,17
46.40833,16
46.41667,16
46.42500,16
46.43333,16
46.44167,17
46.45000,16
46.45833,16
46.46667,16
46.47500,16
46.48333,16
46.49167,15
46.50000,15
46.50833,14
46.51667,14
46.52500,14
46.53333,14
46.54167,13
46.55000,13
46.55833,13
46.56667,12
46.57500,12
46.58333,12
46.59167,12
46.60000,12
46.60833,12
46.61667,11
46.62500,11
46.63333,11
46.64167,11
46.65000,11
46.65833,11
46.66667,11
46.67500,11
46.68333,11
46.69167,11
46.70000,11
46.70833,11
46.71667,11
46.72500,11
46.73333,10
46.74167,10
46.75000,10
46.75833,10
46.76667,10
46.77500,10
46.78333,10
46.79167,10
46.80000,10
46.80833,10
46.81667,10
46.82500,9
46.83333,9
46.84167,9
46.85000,8
46.85833,8
46.86667,8
46.87500,7
46.88333,7
46.89167,7
46.90000,7
46.90833,7
46.91667,7
46.92500,7
46.93333,7
46.94167,6
46.95000,6
46.95833,6
46.96667,7
46.97500,7
46.98333,7
46.99167,7
47.00000,7
47.00833,6
47.01667,6
47.02500,6
47.03333,6
47.04167,6
47.05000,6
47.05833,6
47.06667,5
47.07500,5
47.08333,5
47.09167,6
47.10000,6
47.10833,6
47.11667,6
47.12500,6
47.13333,6
47.14167,6
47.15000,6
47.15833,7
47.16667,7
47.17500,7
47.18333,7
47.19167,8
47.20000,8
47.20833,8
47.21667,8
47.22500,8
47.23333,8
47.24167,9
47.25000,9
47.25833,10
47.26667,10
47.27500,11
47.28333,11
47.29167,12
47.30000,12
47.30833,13
47.31667,13
47.32500,13
47.33333,13
47.34167,14
47.35000,14
47.35833,15
47.36667,15
47.37500,16
47.38333,17
47.39167,17
47.40000,18
47.40833,18
47.41667,18
47.42500,19
47.43333,20
47.44167,20
47.45000,21
47.45833,21
47.46667,22
47.47500,23
47.48333,23
47.49167,24
47.50000,25
47.50833,25
47.51667,26
47.52500,26
47.53333,27
47.54167,28
47.55000,29
47.55833,29
47.56667,30
47.57500,31
47.58333,32
47.59167,33
47.60000,33
47.60833,35
47.61667,36
47.62500,36
47.63333,37
47.64167,38
47.65000,38
47.65833,39
47.66667,40
47.67500,40
47.68333,41
47.69167,42
47.70000,43
47.70833,44
47.71667,45
47.72500,46
47.73333,46
47.74167,46
47.75000,47
47.75833,48
47.76667,49
47.77500,50
47.78333,51
47.79167,52
47.80000,53
47.80833,53
47.81667,54
47.82500,55
47.83333,56
47.84167,58
47.85000,58
47.85833,59
47.86667,60
47.87500,61
47.88333,61
47.89167,62
47.90000,62
47.90833,63
47.91667,63
47.92500,64
47.93333,65
47.94167,65
47.95000,66
47.95833,66
47.96667,67
47.97500,67
47.98333,68
47.99167,68
48.00000,69
48.00833,70
48.01667,71
48.02500,72
48.03333,72
48.04167,73
48.05000,73
48.05833,74
48.06667,74
48.07500,75
48.08333,75
48.09167,76
48.10000,76
48.10833,77
48.11667,77
48.12500,78
48.13333,79
48.14167,79
48.15000,80
48.15833,81
48.16667,81
48.17500,81
48.18333,81
48.19167,81
48.20000,82
48.20833,82
48.21667,82
48.22500,82
48.23333,82
48.24167,82
48.25000,83
48.25833,83
48.26667,84
48.27500,84
48.28333,85
48.29167,85
48.30000,85
48.30833,85
48.31667,85
48.32500,86
48.33333,86
48.34167,86
48.35000,87
48.35833,87
48.36667,87
48.37500,87
48.38333,88
48.39167,88
48.40000,88
48.40833,88
48.41667,88
48.42500,88
48.43333,88
48.44167,88
48.45000,88
48.45833,88
48.46667,88
48.47500,88
48.48333,89
48.49167,89
48.50000,89
48.50833,89
48.51667,89
48.52500,90
48.53333,90
48.54167,90
48.55000,90
48.55833,90
48.56667,90
48.57500,90
48.58333,90
48.59167,90
48.60000,90
48.60833,90
48.61667,90
48.62500,90
48.63333,90
48.64167,90
48.65000,90
48.65833,90
48.66667,90
48.67500,90
48.68333,91
48.69167,91
48.70000,91
48.70833,91
48.71667,91
48.72500,91
48.73333,91
48.74167,92
48.75000,92
48.75833,92
48.76667,92
48.77500,91
48.78333,91
48.79167,91
48.80000,91
48.80833,91
48.81667,91
48.82500,91
48.83333,91
48.84167,91
48.85000,92
48.85833,92
48.86667,92
48.87500,93
48.88333,93
48.89167,93
48.90000,93
48.90833,93
48.91667,92
48.92500,92
48.93333,92
48.94167,93
48.95000,93
48.95833,93
48.96667,93
48.97500,92
48.98333,92
48.99167,92
49.00000,93
49.00833,93
49.01667,93
49.02500,93
49.03333,93
49.04167,94
49.05000,94
49.05833,94
49.06667,93
49.07500,94
49.08333,94
49.09167,94
49.10000,94
49.10833,94
49.11667,94
49.12500,94
49.13333,94
49.14167,94
49.15000,94
49.15833,94
49.16667,94
49.17500,94
49.18333,94
49.19167,94
49.20000,94
49.20833,94
49.21667,94
49.22500,93
49.23333,93
49.24167,93
49.25000,93
49.25833,93
49.26667,93
49.27500,93
49.28333,93
49.29167,93
49.30000,92
49.30833,92
49.31667,92
49.32500,92
49.33333,92
49.34167,91
49.35000,91
49.35833,91
49.36667,91
49.37500,91
49.38333,91
49.39167,91
49.40000,91
49.40833,91
49.41667,91
49.42500,91
49.43333,91
49.44167,90
49.45000,90
49.45833,90
49.46667,89
49.47500,89
49.48333,88
49.49167,88
49.50000,88
49.50833,88
49.51667,87
49.52500,87
49.53333,87
49.54167,87
49.55000,87
49.55833,87
49.56667,87
49.57500,87
49.58333,87
49.59167,87
49.60000,87
49.60833,87
49.61667,86
49.62500,86
49.63333,85
49.64167,85
49.65000,85
49.65833,84
49.66667,84
49.67500,83
49.68333,83
49.69167,82
49.70000,82
49.70833,81
49.71667,81
49.72500,81
49.73333,80
49.74167,80
49.75000,79
49.75833,79
49.76667,78
49.77500,78
49.78333,77
49.79167,77
49.80000,77
49.80833,76
49.81667,76
49.82500,76
49.83333,76
49.84167,76
49.85000,75
49.85833,74
49.86667,74
49.87500,73
49.88333,72
49.89167,72
49.90000,71
49.90833,70
49.91667,69
49.92500,69
49.93333,68
49.94167,68
49.95000,67
49.95833,67
49.96667,66
49.97500,65
49.98333,64
49.99167,63
50.00000,62

