[Header]
Application Name,LabSolutions
Version,5.97 SP1
Data File Name,C:\Users\cremerlab\Desktop\Richa\Sep_2nd_2022_scfa_rt50min_final\Sep 2nd yield expt_922022_001_014.lcd
Output Date,9/3/2022
Output Time,4:51:01 AM

[File Information]
Type,Data File
Generated,9/3/2022 4:00:42 AM
Generated by,System Administrator
Modified,9/3/2022 4:51:01 AM
Modified by,System Administrator

[Sample Information]
Operator Name,System Administrator
Acquired,9/3/2022 4:01:01 AM
Sample Type,0:Unknown
Level,0
Sample Name,090222_C.aerofaciens_1
Sample ID,001
ISTD Amount1,1
ISTD Amount2,1
ISTD Amount3,1
ISTD Amount4,1
ISTD Amount5,1
ISTD Amount6,1
ISTD Amount7,1
ISTD Amount8,1
ISTD Amount9,1
ISTD Amount10,1
ISTD Amount11,1
ISTD Amount12,1
ISTD Amount13,1
ISTD Amount14,1
ISTD Amount15,1
ISTD Amount16,1
ISTD Amount17,1
ISTD Amount18,1
ISTD Amount19,1
ISTD Amount20,1
ISTD Amount21,1
ISTD Amount22,1
ISTD Amount23,1
ISTD Amount24,1
ISTD Amount25,1
ISTD Amount26,1
ISTD Amount27,1
ISTD Amount28,1
ISTD Amount29,1
ISTD Amount30,1
ISTD Amount31,1
ISTD Amount32,1
Sample Amount,1
Dilution Factor,1
Vial#,13
Injection Volume,20

[Original Files]
Data File,C:\Users\cremerlab\Desktop\Richa\Sep_2nd_2022_scfa_rt50min_final\Sep 2nd yield expt_922022_001_014.lcd
Method File,C:\Users\cremerlab\Desktop\Richa\acetate_excretion.lcm
Batch File,C:\Users\cremerlab\Desktop\Richa\Sep_2nd_2022_scfa_rt50min_final\Sep 2nd yield expt.lcb
Report Format File,c:\LabSolutions\System\DEFAULT.lsr

[File Description]


[Configuration]
Instrument Name,HPLC-PC-Instrument1
Instrument #,1
Line #,1
# of Detectors,2
Detector ID,Detector A,Detector B
Detector Name,Detector A,Detector B
# of Channels,1,1

[Peak Table(Detector A)]
# of Peaks,0

[Peak Table(Detector B)]
# of Peaks,10
Peak#,R.Time,I.Time,F.Time,Area,Height,A/H,Conc.,Mark,ID#,Name,k',Plate #,Plate Ht.,Tailing,Resolution,Sep.Factor,Area Ratio,Height Ratio,Conc. %,Norm Conc.
1,11.015,10.250,12.317,2268619,116064,19.546,0.000,   ,,,0.000,7548,19.872,0.968,0.000,0.000,0,0,0.000,0.000
2,14.327,12.667,15.175,3562913,76800,46.392,0.000,   ,,,0.301,2510,59.760,0.656,4.013,0.000,0,0,0.000,0.000
3,15.754,15.175,17.142,1465015,50480,29.022,0.000, V ,,,0.430,6954,21.571,1.139,1.502,1.431,0,0,0.000,0.000
4,17.872,17.425,18.408,7334,256,28.675,0.000,   ,,,0.623,8188,18.318,1.037,2.741,1.447,0,0,0.000,0.000
5,19.080,18.425,19.758,13309,312,42.597,0.000,   ,,,0.732,3925,38.219,0.998,1.203,1.176,0,0,0.000,0.000
6,20.306,19.758,20.917,22374,609,36.716,0.000,   ,,,0.844,7074,21.204,0.000,1.123,1.152,0,0,0.000,0.000
7,21.651,20.917,22.583,56997,1129,50.504,0.000, V ,,,0.966,4108,36.515,0.000,1.161,1.145,0,0,0.000,0.000
8,25.079,24.300,26.425,140491,3422,41.052,0.000,   ,,,1.277,9087,16.508,1.158,2.852,1.322,0,0,0.000,0.000
9,29.234,28.367,30.642,139454,2832,49.236,0.000,   ,,,1.654,8705,17.231,1.223,3.605,1.295,0,0,0.000,0.000
10,32.498,31.700,34.400,38369,512,74.940,0.000,   ,,,1.950,1081,138.717,1.606,1.254,1.179,0,0,0.000,0.000

[LC Chromatogram(Detector B-Ch1)]
Interval(msec),500
# of Points,6001
Start Time(min),0.000
End Time(min),50.000
Intensity Units,mV
Intensity Multiplier,0.001
R.Time (min),Intensity
0.00000,-10
0.00833,-10
0.01667,-0
0.02500,-1
0.03333,-2
0.04167,-2
0.05000,-3
0.05833,-4
0.06667,-4
0.07500,-5
0.08333,-5
0.09167,-6
0.10000,-7
0.10833,-8
0.11667,-9
0.12500,-9
0.13333,-10
0.14167,-10
0.15000,-10
0.15833,-11
0.16667,-11
0.17500,-12
0.18333,-13
0.19167,-14
0.20000,-15
0.20833,-15
0.21667,-16
0.22500,-16
0.23333,-17
0.24167,-18
0.25000,-18
0.25833,-18
0.26667,-19
0.27500,-19
0.28333,-19
0.29167,-20
0.30000,-20
0.30833,-20
0.31667,-21
0.32500,-21
0.33333,-22
0.34167,-22
0.35000,-22
0.35833,-23
0.36667,-23
0.37500,-24
0.38333,-24
0.39167,-25
0.40000,-25
0.40833,-25
0.41667,-25
0.42500,-25
0.43333,-24
0.44167,-25
0.45000,-25
0.45833,-26
0.46667,-26
0.47500,-27
0.48333,-27
0.49167,-27
0.50000,-28
0.50833,-28
0.51667,-28
0.52500,-28
0.53333,-28
0.54167,-28
0.55000,-28
0.55833,-28
0.56667,-28
0.57500,-29
0.58333,-29
0.59167,-29
0.60000,-29
0.60833,-29
0.61667,-29
0.62500,-29
0.63333,-29
0.64167,-29
0.65000,-30
0.65833,-30
0.66667,-30
0.67500,-30
0.68333,-30
0.69167,-30
0.70000,-29
0.70833,-29
0.71667,-30
0.72500,-30
0.73333,-30
0.74167,-30
0.75000,-30
0.75833,-31
0.76667,-31
0.77500,-30
0.78333,-30
0.79167,-31
0.80000,-31
0.80833,-32
0.81667,-32
0.82500,-31
0.83333,-31
0.84167,-31
0.85000,-31
0.85833,-31
0.86667,-30
0.87500,-30
0.88333,-30
0.89167,-30
0.90000,-30
0.90833,-30
0.91667,-30
0.92500,-30
0.93333,-30
0.94167,-30
0.95000,-30
0.95833,-30
0.96667,-30
0.97500,-30
0.98333,-29
0.99167,-29
1.00000,-29
1.00833,-28
1.01667,-28
1.02500,-28
1.03333,-28
1.04167,-28
1.05000,-28
1.05833,-28
1.06667,-28
1.07500,-28
1.08333,-28
1.09167,-27
1.10000,-27
1.10833,-27
1.11667,-26
1.12500,-26
1.13333,-26
1.14167,-26
1.15000,-26
1.15833,-26
1.16667,-26
1.17500,-26
1.18333,-26
1.19167,-25
1.20000,-25
1.20833,-25
1.21667,-25
1.22500,-25
1.23333,-25
1.24167,-25
1.25000,-25
1.25833,-25
1.26667,-25
1.27500,-24
1.28333,-24
1.29167,-24
1.30000,-24
1.30833,-24
1.31667,-24
1.32500,-23
1.33333,-23
1.34167,-23
1.35000,-22
1.35833,-22
1.36667,-22
1.37500,-22
1.38333,-21
1.39167,-21
1.40000,-21
1.40833,-21
1.41667,-20
1.42500,-20
1.43333,-21
1.44167,-21
1.45000,-20
1.45833,-20
1.46667,-20
1.47500,-20
1.48333,-19
1.49167,-19
1.50000,-19
1.50833,-19
1.51667,-19
1.52500,-19
1.53333,-19
1.54167,-19
1.55000,-18
1.55833,-18
1.56667,-18
1.57500,-18
1.58333,-17
1.59167,-16
1.60000,-16
1.60833,-16
1.61667,-16
1.62500,-16
1.63333,-16
1.64167,-16
1.65000,-15
1.65833,-15
1.66667,-15
1.67500,-15
1.68333,-15
1.69167,-15
1.70000,-15
1.70833,-14
1.71667,-14
1.72500,-14
1.73333,-14
1.74167,-14
1.75000,-14
1.75833,-14
1.76667,-14
1.77500,-14
1.78333,-14
1.79167,-14
1.80000,-14
1.80833,-14
1.81667,-14
1.82500,-14
1.83333,-13
1.84167,-13
1.85000,-13
1.85833,-13
1.86667,-13
1.87500,-13
1.88333,-13
1.89167,-12
1.90000,-12
1.90833,-13
1.91667,-13
1.92500,-13
1.93333,-12
1.94167,-12
1.95000,-12
1.95833,-12
1.96667,-12
1.97500,-12
1.98333,-12
1.99167,-12
2.00000,-11
2.00833,-11
2.01667,-11
2.02500,-11
2.03333,-11
2.04167,-11
2.05000,-11
2.05833,-11
2.06667,-11
2.07500,-12
2.08333,-12
2.09167,-12
2.10000,-12
2.10833,-12
2.11667,-11
2.12500,-11
2.13333,-11
2.14167,-10
2.15000,-10
2.15833,-10
2.16667,-10
2.17500,-11
2.18333,-11
2.19167,-11
2.20000,-11
2.20833,-11
2.21667,-10
2.22500,-11
2.23333,-11
2.24167,-11
2.25000,-11
2.25833,-11
2.26667,-11
2.27500,-11
2.28333,-11
2.29167,-11
2.30000,-11
2.30833,-11
2.31667,-11
2.32500,-10
2.33333,-10
2.34167,-10
2.35000,-10
2.35833,-10
2.36667,-9
2.37500,-9
2.38333,-10
2.39167,-10
2.40000,-10
2.40833,-10
2.41667,-10
2.42500,-10
2.43333,-10
2.44167,-10
2.45000,-10
2.45833,-10
2.46667,-10
2.47500,-10
2.48333,-10
2.49167,-10
2.50000,-10
2.50833,-10
2.51667,-11
2.52500,-11
2.53333,-11
2.54167,-11
2.55000,-12
2.55833,-12
2.56667,-12
2.57500,-12
2.58333,-12
2.59167,-12
2.60000,-12
2.60833,-12
2.61667,-12
2.62500,-12
2.63333,-12
2.64167,-12
2.65000,-13
2.65833,-13
2.66667,-13
2.67500,-13
2.68333,-13
2.69167,-14
2.70000,-14
2.70833,-13
2.71667,-13
2.72500,-14
2.73333,-14
2.74167,-14
2.75000,-14
2.75833,-14
2.76667,-14
2.77500,-14
2.78333,-14
2.79167,-14
2.80000,-14
2.80833,-14
2.81667,-13
2.82500,-13
2.83333,-13
2.84167,-13
2.85000,-13
2.85833,-13
2.86667,-13
2.87500,-14
2.88333,-14
2.89167,-14
2.90000,-15
2.90833,-15
2.91667,-15
2.92500,-14
2.93333,-14
2.94167,-14
2.95000,-15
2.95833,-15
2.96667,-15
2.97500,-16
2.98333,-16
2.99167,-15
3.00000,-15
3.00833,-15
3.01667,-15
3.02500,-15
3.03333,-15
3.04167,-15
3.05000,-15
3.05833,-15
3.06667,-15
3.07500,-15
3.08333,-15
3.09167,-15
3.10000,-15
3.10833,-15
3.11667,-15
3.12500,-15
3.13333,-15
3.14167,-15
3.15000,-15
3.15833,-15
3.16667,-16
3.17500,-16
3.18333,-16
3.19167,-16
3.20000,-16
3.20833,-16
3.21667,-16
3.22500,-16
3.23333,-16
3.24167,-16
3.25000,-16
3.25833,-16
3.26667,-16
3.27500,-16
3.28333,-16
3.29167,-16
3.30000,-16
3.30833,-15
3.31667,-15
3.32500,-15
3.33333,-15
3.34167,-16
3.35000,-15
3.35833,-15
3.36667,-15
3.37500,-14
3.38333,-15
3.39167,-15
3.40000,-15
3.40833,-15
3.41667,-15
3.42500,-16
3.43333,-15
3.44167,-15
3.45000,-14
3.45833,-14
3.46667,-14
3.47500,-14
3.48333,-14
3.49167,-14
3.50000,-14
3.50833,-13
3.51667,-13
3.52500,-13
3.53333,-13
3.54167,-13
3.55000,-13
3.55833,-13
3.56667,-13
3.57500,-13
3.58333,-12
3.59167,-12
3.60000,-12
3.60833,-12
3.61667,-12
3.62500,-12
3.63333,-12
3.64167,-12
3.65000,-12
3.65833,-12
3.66667,-12
3.67500,-12
3.68333,-11
3.69167,-11
3.70000,-10
3.70833,-10
3.71667,-10
3.72500,-10
3.73333,-10
3.74167,-10
3.75000,-9
3.75833,-9
3.76667,-9
3.77500,-9
3.78333,-9
3.79167,-8
3.80000,-8
3.80833,-7
3.81667,-7
3.82500,-7
3.83333,-7
3.84167,-6
3.85000,-6
3.85833,-6
3.86667,-5
3.87500,-5
3.88333,-5
3.89167,-5
3.90000,-4
3.90833,-4
3.91667,-4
3.92500,-3
3.93333,-3
3.94167,-2
3.95000,-1
3.95833,-1
3.96667,-1
3.97500,-1
3.98333,-0
3.99167,-0
4.00000,0
4.00833,0
4.01667,1
4.02500,1
4.03333,1
4.04167,1
4.05000,1
4.05833,2
4.06667,3
4.07500,3
4.08333,4
4.09167,5
4.10000,5
4.10833,6
4.11667,6
4.12500,7
4.13333,8
4.14167,8
4.15000,9
4.15833,9
4.16667,9
4.17500,10
4.18333,10
4.19167,11
4.20000,11
4.20833,11
4.21667,12
4.22500,13
4.23333,14
4.24167,14
4.25000,14
4.25833,15
4.26667,15
4.27500,16
4.28333,17
4.29167,18
4.30000,18
4.30833,18
4.31667,19
4.32500,20
4.33333,20
4.34167,21
4.35000,21
4.35833,22
4.36667,23
4.37500,23
4.38333,24
4.39167,25
4.40000,26
4.40833,27
4.41667,28
4.42500,28
4.43333,29
4.44167,30
4.45000,30
4.45833,31
4.46667,32
4.47500,33
4.48333,33
4.49167,34
4.50000,35
4.50833,36
4.51667,37
4.52500,37
4.53333,38
4.54167,39
4.55000,39
4.55833,40
4.56667,40
4.57500,41
4.58333,42
4.59167,42
4.60000,43
4.60833,43
4.61667,44
4.62500,44
4.63333,45
4.64167,45
4.65000,46
4.65833,47
4.66667,48
4.67500,49
4.68333,49
4.69167,50
4.70000,50
4.70833,50
4.71667,51
4.72500,51
4.73333,52
4.74167,53
4.75000,54
4.75833,54
4.76667,55
4.77500,55
4.78333,55
4.79167,56
4.80000,56
4.80833,57
4.81667,57
4.82500,57
4.83333,58
4.84167,58
4.85000,59
4.85833,59
4.86667,59
4.87500,59
4.88333,60
4.89167,60
4.90000,61
4.90833,61
4.91667,62
4.92500,62
4.93333,62
4.94167,62
4.95000,62
4.95833,62
4.96667,62
4.97500,62
4.98333,62
4.99167,62
5.00000,62
5.00833,61
5.01667,62
5.02500,62
5.03333,62
5.04167,62
5.05000,63
5.05833,63
5.06667,63
5.07500,62
5.08333,62
5.09167,62
5.10000,62
5.10833,62
5.11667,62
5.12500,62
5.13333,62
5.14167,62
5.15000,62
5.15833,62
5.16667,62
5.17500,62
5.18333,62
5.19167,62
5.20000,62
5.20833,61
5.21667,61
5.22500,60
5.23333,60
5.24167,60
5.25000,60
5.25833,60
5.26667,60
5.27500,59
5.28333,59
5.29167,59
5.30000,58
5.30833,58
5.31667,58
5.32500,57
5.33333,57
5.34167,57
5.35000,56
5.35833,56
5.36667,56
5.37500,56
5.38333,56
5.39167,55
5.40000,55
5.40833,54
5.41667,54
5.42500,53
5.43333,53
5.44167,52
5.45000,52
5.45833,52
5.46667,51
5.47500,51
5.48333,50
5.49167,49
5.50000,48
5.50833,48
5.51667,47
5.52500,47
5.53333,47
5.54167,46
5.55000,46
5.55833,46
5.56667,45
5.57500,44
5.58333,44
5.59167,43
5.60000,42
5.60833,41
5.61667,40
5.62500,39
5.63333,39
5.64167,39
5.65000,38
5.65833,38
5.66667,37
5.67500,36
5.68333,36
5.69167,35
5.70000,34
5.70833,33
5.71667,32
5.72500,31
5.73333,30
5.74167,30
5.75000,29
5.75833,29
5.76667,28
5.77500,28
5.78333,27
5.79167,26
5.80000,25
5.80833,24
5.81667,24
5.82500,23
5.83333,22
5.84167,21
5.85000,21
5.85833,20
5.86667,20
5.87500,19
5.88333,18
5.89167,17
5.90000,16
5.90833,15
5.91667,14
5.92500,13
5.93333,13
5.94167,12
5.95000,11
5.95833,10
5.96667,9
5.97500,9
5.98333,8
5.99167,7
6.00000,7
6.00833,6
6.01667,5
6.02500,4
6.03333,4
6.04167,3
6.05000,2
6.05833,1
6.06667,-0
6.07500,-1
6.08333,-2
6.09167,-3
6.10000,-4
6.10833,-4
6.11667,-5
6.12500,-5
6.13333,-6
6.14167,-6
6.15000,-7
6.15833,-8
6.16667,-9
6.17500,-10
6.18333,-11
6.19167,-11
6.20000,-12
6.20833,-12
6.21667,-13
6.22500,-13
6.23333,-14
6.24167,-14
6.25000,-15
6.25833,-16
6.26667,-17
6.27500,-18
6.28333,-18
6.29167,-19
6.30000,-19
6.30833,-20
6.31667,-20
6.32500,-21
6.33333,-21
6.34167,-22
6.35000,-23
6.35833,-24
6.36667,-24
6.37500,-25
6.38333,-26
6.39167,-26
6.40000,-27
6.40833,-27
6.41667,-28
6.42500,-28
6.43333,-29
6.44167,-29
6.45000,-30
6.45833,-30
6.46667,-30
6.47500,-31
6.48333,-31
6.49167,-32
6.50000,-33
6.50833,-33
6.51667,-34
6.52500,-34
6.53333,-34
6.54167,-34
6.55000,-34
6.55833,-34
6.56667,-35
6.57500,-35
6.58333,-36
6.59167,-36
6.60000,-36
6.60833,-37
6.61667,-37
6.62500,-37
6.63333,-38
6.64167,-38
6.65000,-38
6.65833,-39
6.66667,-39
6.67500,-39
6.68333,-40
6.69167,-40
6.70000,-40
6.70833,-40
6.71667,-41
6.72500,-41
6.73333,-41
6.74167,-41
6.75000,-42
6.75833,-42
6.76667,-42
6.77500,-42
6.78333,-42
6.79167,-42
6.80000,-42
6.80833,-43
6.81667,-43
6.82500,-43
6.83333,-43
6.84167,-43
6.85000,-43
6.85833,-44
6.86667,-44
6.87500,-44
6.88333,-44
6.89167,-44
6.90000,-44
6.90833,-44
6.91667,-44
6.92500,-44
6.93333,-44
6.94167,-44
6.95000,-44
6.95833,-45
6.96667,-45
6.97500,-45
6.98333,-45
6.99167,-45
7.00000,-45
7.00833,-46
7.01667,-45
7.02500,-45
7.03333,-45
7.04167,-45
7.05000,-45
7.05833,-45
7.06667,-46
7.07500,-46
7.08333,-45
7.09167,-45
7.10000,-45
7.10833,-45
7.11667,-45
7.12500,-46
7.13333,-46
7.14167,-46
7.15000,-46
7.15833,-46
7.16667,-46
7.17500,-46
7.18333,-46
7.19167,-46
7.20000,-46
7.20833,-46
7.21667,-47
7.22500,-46
7.23333,-46
7.24167,-46
7.25000,-46
7.25833,-47
7.26667,-47
7.27500,-46
7.28333,-47
7.29167,-47
7.30000,-47
7.30833,-47
7.31667,-47
7.32500,-47
7.33333,-47
7.34167,-47
7.35000,-48
7.35833,-48
7.36667,-48
7.37500,-48
7.38333,-48
7.39167,-48
7.40000,-48
7.40833,-48
7.41667,-48
7.42500,-48
7.43333,-48
7.44167,-48
7.45000,-47
7.45833,-47
7.46667,-47
7.47500,-47
7.48333,-47
7.49167,-47
7.50000,-47
7.50833,-48
7.51667,-48
7.52500,-48
7.53333,-48
7.54167,-48
7.55000,-48
7.55833,-48
7.56667,-48
7.57500,-48
7.58333,-48
7.59167,-48
7.60000,-48
7.60833,-48
7.61667,-49
7.62500,-49
7.63333,-49
7.64167,-49
7.65000,-49
7.65833,-49
7.66667,-49
7.67500,-49
7.68333,-49
7.69167,-49
7.70000,-49
7.70833,-49
7.71667,-49
7.72500,-49
7.73333,-49
7.74167,-49
7.75000,-50
7.75833,-50
7.76667,-50
7.77500,-50
7.78333,-49
7.79167,-50
7.80000,-50
7.80833,-50
7.81667,-50
7.82500,-50
7.83333,-50
7.84167,-50
7.85000,-49
7.85833,-49
7.86667,-49
7.87500,-49
7.88333,-49
7.89167,-50
7.90000,-50
7.90833,-50
7.91667,-50
7.92500,-50
7.93333,-51
7.94167,-51
7.95000,-51
7.95833,-50
7.96667,-50
7.97500,-50
7.98333,-50
7.99167,-50
8.00000,-50
8.00833,-50
8.01667,-50
8.02500,-50
8.03333,-49
8.04167,-49
8.05000,-49
8.05833,-49
8.06667,-49
8.07500,-50
8.08333,-50
8.09167,-50
8.10000,-50
8.10833,-51
8.11667,-51
8.12500,-51
8.13333,-51
8.14167,-51
8.15000,-51
8.15833,-51
8.16667,-51
8.17500,-51
8.18333,-51
8.19167,-51
8.20000,-51
8.20833,-51
8.21667,-51
8.22500,-51
8.23333,-51
8.24167,-51
8.25000,-51
8.25833,-51
8.26667,-51
8.27500,-51
8.28333,-51
8.29167,-51
8.30000,-51
8.30833,-52
8.31667,-52
8.32500,-52
8.33333,-52
8.34167,-52
8.35000,-52
8.35833,-52
8.36667,-52
8.37500,-52
8.38333,-52
8.39167,-52
8.40000,-52
8.40833,-52
8.41667,-52
8.42500,-52
8.43333,-52
8.44167,-51
8.45000,-51
8.45833,-50
8.46667,-51
8.47500,-51
8.48333,-51
8.49167,-51
8.50000,-51
8.50833,-51
8.51667,-52
8.52500,-52
8.53333,-52
8.54167,-52
8.55000,-52
8.55833,-52
8.56667,-52
8.57500,-52
8.58333,-52
8.59167,-52
8.60000,-52
8.60833,-52
8.61667,-52
8.62500,-52
8.63333,-52
8.64167,-52
8.65000,-52
8.65833,-52
8.66667,-52
8.67500,-52
8.68333,-52
8.69167,-52
8.70000,-52
8.70833,-52
8.71667,-52
8.72500,-52
8.73333,-52
8.74167,-52
8.75000,-52
8.75833,-52
8.76667,-52
8.77500,-52
8.78333,-52
8.79167,-52
8.80000,-52
8.80833,-51
8.81667,-51
8.82500,-51
8.83333,-52
8.84167,-52
8.85000,-52
8.85833,-52
8.86667,-52
8.87500,-52
8.88333,-52
8.89167,-51
8.90000,-52
8.90833,-52
8.91667,-52
8.92500,-52
8.93333,-52
8.94167,-52
8.95000,-52
8.95833,-52
8.96667,-52
8.97500,-52
8.98333,-52
8.99167,-52
9.00000,-52
9.00833,-52
9.01667,-52
9.02500,-52
9.03333,-53
9.04167,-53
9.05000,-53
9.05833,-52
9.06667,-52
9.07500,-52
9.08333,-52
9.09167,-52
9.10000,-52
9.10833,-52
9.11667,-52
9.12500,-53
9.13333,-53
9.14167,-53
9.15000,-53
9.15833,-53
9.16667,-52
9.17500,-52
9.18333,-52
9.19167,-52
9.20000,-51
9.20833,-51
9.21667,-51
9.22500,-51
9.23333,-51
9.24167,-51
9.25000,-51
9.25833,-51
9.26667,-51
9.27500,-52
9.28333,-52
9.29167,-52
9.30000,-52
9.30833,-51
9.31667,-51
9.32500,-51
9.33333,-51
9.34167,-51
9.35000,-51
9.35833,-51
9.36667,-51
9.37500,-51
9.38333,-51
9.39167,-50
9.40000,-50
9.40833,-50
9.41667,-50
9.42500,-50
9.43333,-50
9.44167,-50
9.45000,-50
9.45833,-51
9.46667,-51
9.47500,-51
9.48333,-51
9.49167,-52
9.50000,-52
9.50833,-51
9.51667,-51
9.52500,-51
9.53333,-52
9.54167,-52
9.55000,-51
9.55833,-51
9.56667,-51
9.57500,-51
9.58333,-51
9.59167,-51
9.60000,-51
9.60833,-50
9.61667,-50
9.62500,-50
9.63333,-50
9.64167,-50
9.65000,-50
9.65833,-50
9.66667,-50
9.67500,-50
9.68333,-50
9.69167,-50
9.70000,-50
9.70833,-50
9.71667,-50
9.72500,-49
9.73333,-49
9.74167,-49
9.75000,-49
9.75833,-49
9.76667,-49
9.77500,-49
9.78333,-49
9.79167,-49
9.80000,-49
9.80833,-49
9.81667,-49
9.82500,-49
9.83333,-49
9.84167,-49
9.85000,-49
9.85833,-49
9.86667,-50
9.87500,-49
9.88333,-50
9.89167,-50
9.90000,-50
9.90833,-49
9.91667,-49
9.92500,-49
9.93333,-49
9.94167,-49
9.95000,-49
9.95833,-49
9.96667,-49
9.97500,-49
9.98333,-49
9.99167,-48
10.00000,-48
10.00833,-48
10.01667,-47
10.02500,-47
10.03333,-47
10.04167,-47
10.05000,-46
10.05833,-46
10.06667,-46
10.07500,-46
10.08333,-46
10.09167,-45
10.10000,-45
10.10833,-44
10.11667,-43
10.12500,-43
10.13333,-42
10.14167,-41
10.15000,-40
10.15833,-39
10.16667,-38
10.17500,-37
10.18333,-35
10.19167,-34
10.20000,-32
10.20833,-31
10.21667,-29
10.22500,-28
10.23333,-26
10.24167,-24
10.25000,-22
10.25833,-19
10.26667,-16
10.27500,-13
10.28333,-10
10.29167,-5
10.30000,-0
10.30833,6
10.31667,13
10.32500,21
10.33333,31
10.34167,42
10.35000,55
10.35833,70
10.36667,86
10.37500,104
10.38333,123
10.39167,143
10.40000,163
10.40833,185
10.41667,205
10.42500,225
10.43333,244
10.44167,260
10.45000,274
10.45833,283
10.46667,290
10.47500,293
10.48333,294
10.49167,293
10.50000,292
10.50833,294
10.51667,300
10.52500,313
10.53333,339
10.54167,380
10.55000,443
10.55833,531
10.56667,652
10.57500,809
10.58333,1009
10.59167,1259
10.60000,1565
10.60833,1932
10.61667,2367
10.62500,2876
10.63333,3464
10.64167,4138
10.65000,4903
10.65833,5763
10.66667,6723
10.67500,7787
10.68333,8959
10.69167,10243
10.70000,11641
10.70833,13157
10.71667,14792
10.72500,16548
10.73333,18427
10.74167,20430
10.75000,22557
10.75833,24809
10.76667,27184
10.77500,29682
10.78333,32302
10.79167,35042
10.80000,37900
10.80833,40874
10.81667,43959
10.82500,47153
10.83333,50450
10.84167,53845
10.85000,57331
10.85833,60899
10.86667,64542
10.87500,68249
10.88333,72007
10.89167,75800
10.90000,79613
10.90833,83424
10.91667,87209
10.92500,90941
10.93333,94587
10.94167,98110
10.95000,101469
10.95833,104618
10.96667,107507
10.97500,110081
10.98333,112284
10.99167,114059
11.00000,115350
11.00833,116105
11.01667,116278
11.02500,115830
11.03333,114736
11.04167,112985
11.05000,110582
11.05833,107551
11.06667,103933
11.07500,99786
11.08333,95183
11.09167,90210
11.10000,84959
11.10833,79525
11.11667,74004
11.12500,68486
11.13333,63053
11.14167,57776
11.15000,52715
11.15833,47917
11.16667,43415
11.17500,39231
11.18333,35377
11.19167,31853
11.20000,28655
11.20833,25770
11.21667,23181
11.22500,20870
11.23333,18814
11.24167,16992
11.25000,15382
11.25833,13961
11.26667,12709
11.27500,11607
11.28333,10636
11.29167,9782
11.30000,9029
11.30833,8364
11.31667,7776
11.32500,7255
11.33333,6792
11.34167,6379
11.35000,6009
11.35833,5677
11.36667,5378
11.37500,5107
11.38333,4860
11.39167,4635
11.40000,4429
11.40833,4238
11.41667,4063
11.42500,3900
11.43333,3748
11.44167,3606
11.45000,3473
11.45833,3348
11.46667,3230
11.47500,3119
11.48333,3013
11.49167,2913
11.50000,2817
11.50833,2726
11.51667,2639
11.52500,2555
11.53333,2476
11.54167,2400
11.55000,2327
11.55833,2258
11.56667,2191
11.57500,2127
11.58333,2065
11.59167,2006
11.60000,1949
11.60833,1894
11.61667,1842
11.62500,1791
11.63333,1742
11.64167,1696
11.65000,1651
11.65833,1607
11.66667,1565
11.67500,1525
11.68333,1486
11.69167,1449
11.70000,1413
11.70833,1378
11.71667,1345
11.72500,1313
11.73333,1283
11.74167,1254
11.75000,1225
11.75833,1198
11.76667,1171
11.77500,1146
11.78333,1121
11.79167,1098
11.80000,1076
11.80833,1054
11.81667,1034
11.82500,1014
11.83333,995
11.84167,977
11.85000,960
11.85833,944
11.86667,928
11.87500,913
11.88333,899
11.89167,885
11.90000,871
11.90833,858
11.91667,845
11.92500,833
11.93333,821
11.94167,810
11.95000,800
11.95833,790
11.96667,780
11.97500,770
11.98333,761
11.99167,753
12.00000,745
12.00833,737
12.01667,729
12.02500,722
12.03333,715
12.04167,708
12.05000,702
12.05833,696
12.06667,690
12.07500,684
12.08333,679
12.09167,674
12.10000,669
12.10833,664
12.11667,660
12.12500,656
12.13333,651
12.14167,648
12.15000,644
12.15833,641
12.16667,638
12.17500,635
12.18333,632
12.19167,630
12.20000,628
12.20833,626
12.21667,624
12.22500,622
12.23333,621
12.24167,620
12.25000,619
12.25833,618
12.26667,617
12.27500,616
12.28333,615
12.29167,614
12.30000,614
12.30833,614
12.31667,613
12.32500,613
12.33333,613
12.34167,614
12.35000,613
12.35833,613
12.36667,613
12.37500,612
12.38333,612
12.39167,612
12.40000,612
12.40833,612
12.41667,611
12.42500,610
12.43333,609
12.44167,609
12.45000,608
12.45833,607
12.46667,606
12.47500,606
12.48333,605
12.49167,604
12.50000,603
12.50833,602
12.51667,600
12.52500,598
12.53333,596
12.54167,594
12.55000,592
12.55833,590
12.56667,589
12.57500,587
12.58333,585
12.59167,583
12.60000,580
12.60833,578
12.61667,576
12.62500,573
12.63333,572
12.64167,570
12.65000,569
12.65833,569
12.66667,569
12.67500,569
12.68333,571
12.69167,573
12.70000,576
12.70833,580
12.71667,585
12.72500,592
12.73333,601
12.74167,612
12.75000,625
12.75833,640
12.76667,657
12.77500,678
12.78333,702
12.79167,730
12.80000,761
12.80833,795
12.81667,834
12.82500,877
12.83333,925
12.84167,978
12.85000,1035
12.85833,1097
12.86667,1164
12.87500,1237
12.88333,1315
12.89167,1398
12.90000,1487
12.90833,1582
12.91667,1682
12.92500,1788
12.93333,1900
12.94167,2018
12.95000,2142
12.95833,2272
12.96667,2408
12.97500,2550
12.98333,2697
12.99167,2851
13.00000,3010
13.00833,3175
13.01667,3346
13.02500,3523
13.03333,3705
13.04167,3893
13.05000,4086
13.05833,4285
13.06667,4489
13.07500,4699
13.08333,4915
13.09167,5135
13.10000,5361
13.10833,5592
13.11667,5827
13.12500,6067
13.13333,6311
13.14167,6561
13.15000,6815
13.15833,7073
13.16667,7335
13.17500,7601
13.18333,7872
13.19167,8146
13.20000,8425
13.20833,8707
13.21667,8993
13.22500,9283
13.23333,9576
13.24167,9874
13.25000,10174
13.25833,10479
13.26667,10786
13.27500,11096
13.28333,11410
13.29167,11727
13.30000,12047
13.30833,12370
13.31667,12697
13.32500,13026
13.33333,13359
13.34167,13694
13.35000,14032
13.35833,14374
13.36667,14719
13.37500,15066
13.38333,15417
13.39167,15771
13.40000,16127
13.40833,16486
13.41667,16848
13.42500,17214
13.43333,17582
13.44167,17954
13.45000,18328
13.45833,18706
13.46667,19085
13.47500,19468
13.48333,19855
13.49167,20244
13.50000,20637
13.50833,21033
13.51667,21432
13.52500,21834
13.53333,22239
13.54167,22648
13.55000,23060
13.55833,23475
13.56667,23893
13.57500,24315
13.58333,24740
13.59167,25168
13.60000,25599
13.60833,26034
13.61667,26473
13.62500,26915
13.63333,27361
13.64167,27810
13.65000,28262
13.65833,28719
13.66667,29178
13.67500,29642
13.68333,30109
13.69167,30580
13.70000,31055
13.70833,31534
13.71667,32017
13.72500,32504
13.73333,32994
13.74167,33489
13.75000,33987
13.75833,34490
13.76667,34996
13.77500,35507
13.78333,36022
13.79167,36542
13.80000,37065
13.80833,37594
13.81667,38126
13.82500,38663
13.83333,39205
13.84167,39751
13.85000,40302
13.85833,40858
13.86667,41418
13.87500,41982
13.88333,42551
13.89167,43125
13.90000,43704
13.90833,44288
13.91667,44877
13.92500,45472
13.93333,46071
13.94167,46676
13.95000,47285
13.95833,47900
13.96667,48520
13.97500,49145
13.98333,49776
13.99167,50413
14.00000,51055
14.00833,51703
14.01667,52356
14.02500,53016
14.03333,53681
14.04167,54352
14.05000,55029
14.05833,55712
14.06667,56401
14.07500,57097
14.08333,57798
14.09167,58507
14.10000,59221
14.10833,59942
14.11667,60670
14.12500,61404
14.13333,62146
14.14167,62894
14.15000,63649
14.15833,64412
14.16667,65182
14.17500,65958
14.18333,66742
14.19167,67532
14.20000,68328
14.20833,69129
14.21667,69932
14.22500,70734
14.23333,71532
14.24167,72318
14.25000,73087
14.25833,73828
14.26667,74532
14.27500,75187
14.28333,75780
14.29167,76299
14.30000,76731
14.30833,77063
14.31667,77285
14.32500,77387
14.33333,77362
14.34167,77201
14.35000,76900
14.35833,76455
14.36667,75863
14.37500,75121
14.38333,74226
14.39167,73177
14.40000,71972
14.40833,70608
14.41667,69085
14.42500,67400
14.43333,65554
14.44167,63548
14.45000,61388
14.45833,59081
14.46667,56637
14.47500,54072
14.48333,51405
14.49167,48656
14.50000,45851
14.50833,43016
14.51667,40179
14.52500,37366
14.53333,34604
14.54167,31918
14.55000,29330
14.55833,26858
14.56667,24518
14.57500,22320
14.58333,20272
14.59167,18378
14.60000,16638
14.60833,15049
14.61667,13606
14.62500,12304
14.63333,11134
14.64167,10087
14.65000,9152
14.65833,8321
14.66667,7584
14.67500,6931
14.68333,6354
14.69167,5843
14.70000,5393
14.70833,4996
14.71667,4644
14.72500,4333
14.73333,4058
14.74167,3814
14.75000,3596
14.75833,3402
14.76667,3228
14.77500,3072
14.78333,2931
14.79167,2804
14.80000,2689
14.80833,2584
14.81667,2489
14.82500,2401
14.83333,2320
14.84167,2245
14.85000,2175
14.85833,2111
14.86667,2050
14.87500,1994
14.88333,1941
14.89167,1892
14.90000,1845
14.90833,1801
14.91667,1759
14.92500,1719
14.93333,1682
14.94167,1646
14.95000,1612
14.95833,1580
14.96667,1549
14.97500,1520
14.98333,1492
14.99167,1465
15.00000,1440
15.00833,1415
15.01667,1392
15.02500,1371
15.03333,1350
15.04167,1330
15.05000,1311
15.05833,1293
15.06667,1276
15.07500,1260
15.08333,1245
15.09167,1231
15.10000,1218
15.10833,1206
15.11667,1194
15.12500,1184
15.13333,1174
15.14167,1165
15.15000,1158
15.15833,1152
15.16667,1148
15.17500,1146
15.18333,1146
15.19167,1149
15.20000,1155
15.20833,1165
15.21667,1180
15.22500,1201
15.23333,1228
15.24167,1264
15.25000,1309
15.25833,1365
15.26667,1434
15.27500,1518
15.28333,1619
15.29167,1740
15.30000,1883
15.30833,2050
15.31667,2246
15.32500,2473
15.33333,2734
15.34167,3032
15.35000,3372
15.35833,3757
15.36667,4189
15.37500,4673
15.38333,5210
15.39167,5805
15.40000,6460
15.40833,7177
15.41667,7957
15.42500,8802
15.43333,9712
15.44167,10687
15.45000,11727
15.45833,12830
15.46667,13995
15.47500,15218
15.48333,16497
15.49167,17828
15.50000,19206
15.50833,20625
15.51667,22079
15.52500,23563
15.53333,25068
15.54167,26589
15.55000,28118
15.55833,29647
15.56667,31168
15.57500,32675
15.58333,34160
15.59167,35615
15.60000,37034
15.60833,38411
15.61667,39738
15.62500,41010
15.63333,42222
15.64167,43369
15.65000,44447
15.65833,45452
15.66667,46382
15.67500,47232
15.68333,48002
15.69167,48689
15.70000,49292
15.70833,49808
15.71667,50238
15.72500,50581
15.73333,50836
15.74167,51004
15.75000,51084
15.75833,51078
15.76667,50987
15.77500,50810
15.78333,50550
15.79167,50207
15.80000,49783
15.80833,49281
15.81667,48702
15.82500,48049
15.83333,47325
15.84167,46533
15.85000,45677
15.85833,44760
15.86667,43785
15.87500,42758
15.88333,41681
15.89167,40562
15.90000,39403
15.90833,38211
15.91667,36990
15.92500,35746
15.93333,34483
15.94167,33208
15.95000,31924
15.95833,30638
15.96667,29353
15.97500,28076
15.98333,26810
15.99167,25559
16.00000,24328
16.00833,23121
16.01667,21941
16.02500,20790
16.03333,19672
16.04167,18589
16.05000,17542
16.05833,16534
16.06667,15566
16.07500,14638
16.08333,13751
16.09167,12906
16.10000,12103
16.10833,11341
16.11667,10620
16.12500,9939
16.13333,9299
16.14167,8697
16.15000,8133
16.15833,7605
16.16667,7112
16.17500,6651
16.18333,6223
16.19167,5825
16.20000,5456
16.20833,5114
16.21667,4799
16.22500,4507
16.23333,4239
16.24167,3991
16.25000,3763
16.25833,3554
16.26667,3361
16.27500,3184
16.28333,3021
16.29167,2872
16.30000,2735
16.30833,2610
16.31667,2495
16.32500,2389
16.33333,2292
16.34167,2203
16.35000,2122
16.35833,2047
16.36667,1977
16.37500,1913
16.38333,1854
16.39167,1799
16.40000,1748
16.40833,1701
16.41667,1656
16.42500,1615
16.43333,1576
16.44167,1539
16.45000,1505
16.45833,1472
16.46667,1442
16.47500,1412
16.48333,1384
16.49167,1357
16.50000,1331
16.50833,1306
16.51667,1281
16.52500,1258
16.53333,1235
16.54167,1212
16.55000,1191
16.55833,1169
16.56667,1148
16.57500,1128
16.58333,1108
16.59167,1089
16.60000,1069
16.60833,1050
16.61667,1031
16.62500,1013
16.63333,995
16.64167,977
16.65000,960
16.65833,943
16.66667,927
16.67500,911
16.68333,896
16.69167,881
16.70000,866
16.70833,852
16.71667,838
16.72500,825
16.73333,813
16.74167,801
16.75000,789
16.75833,778
16.76667,768
16.77500,758
16.78333,748
16.79167,739
16.80000,731
16.80833,722
16.81667,715
16.82500,708
16.83333,701
16.84167,695
16.85000,689
16.85833,684
16.86667,679
16.87500,674
16.88333,670
16.89167,666
16.90000,662
16.90833,659
16.91667,656
16.92500,653
16.93333,650
16.94167,647
16.95000,645
16.95833,643
16.96667,640
16.97500,638
16.98333,637
16.99167,635
17.00000,634
17.00833,633
17.01667,631
17.02500,630
17.03333,629
17.04167,628
17.05000,627
17.05833,626
17.06667,625
17.07500,625
17.08333,624
17.09167,623
17.10000,623
17.10833,622
17.11667,621
17.12500,621
17.13333,620
17.14167,620
17.15000,620
17.15833,619
17.16667,619
17.17500,617
17.18333,617
17.19167,616
17.20000,615
17.20833,614
17.21667,613
17.22500,612
17.23333,611
17.24167,610
17.25000,609
17.25833,608
17.26667,607
17.27500,607
17.28333,606
17.29167,605
17.30000,604
17.30833,602
17.31667,601
17.32500,600
17.33333,599
17.34167,599
17.35000,598
17.35833,598
17.36667,597
17.37500,596
17.38333,596
17.39167,596
17.40000,596
17.40833,596
17.41667,597
17.42500,598
17.43333,599
17.44167,600
17.45000,601
17.45833,603
17.46667,605
17.47500,607
17.48333,609
17.49167,612
17.50000,616
17.50833,619
17.51667,623
17.52500,627
17.53333,631
17.54167,636
17.55000,641
17.55833,646
17.56667,651
17.57500,657
17.58333,662
17.59167,668
17.60000,674
17.60833,680
17.61667,686
17.62500,692
17.63333,699
17.64167,705
17.65000,711
17.65833,717
17.66667,723
17.67500,729
17.68333,735
17.69167,741
17.70000,746
17.70833,752
17.71667,757
17.72500,762
17.73333,767
17.74167,772
17.75000,777
17.75833,781
17.76667,785
17.77500,790
17.78333,794
17.79167,797
17.80000,800
17.80833,802
17.81667,805
17.82500,806
17.83333,808
17.84167,809
17.85000,810
17.85833,810
17.86667,811
17.87500,811
17.88333,810
17.89167,809
17.90000,808
17.90833,806
17.91667,804
17.92500,801
17.93333,798
17.94167,795
17.95000,791
17.95833,787
17.96667,783
17.97500,778
17.98333,773
17.99167,767
18.00000,761
18.00833,755
18.01667,749
18.02500,742
18.03333,736
18.04167,729
18.05000,722
18.05833,715
18.06667,708
18.07500,700
18.08333,693
18.09167,685
18.10000,678
18.10833,670
18.11667,663
18.12500,655
18.13333,648
18.14167,640
18.15000,632
18.15833,625
18.16667,617
18.17500,610
18.18333,603
18.19167,596
18.20000,590
18.20833,583
18.21667,577
18.22500,571
18.23333,565
18.24167,559
18.25000,554
18.25833,549
18.26667,544
18.27500,539
18.28333,535
18.29167,531
18.30000,528
18.30833,524
18.31667,521
18.32500,518
18.33333,515
18.34167,513
18.35000,511
18.35833,509
18.36667,507
18.37500,506
18.38333,505
18.39167,505
18.40000,504
18.40833,504
18.41667,504
18.42500,504
18.43333,505
18.44167,507
18.45000,508
18.45833,509
18.46667,511
18.47500,513
18.48333,515
18.49167,518
18.50000,520
18.50833,522
18.51667,525
18.52500,528
18.53333,532
18.54167,535
18.55000,539
18.55833,543
18.56667,547
18.57500,551
18.58333,555
18.59167,559
18.60000,564
18.60833,569
18.61667,574
18.62500,578
18.63333,582
18.64167,586
18.65000,591
18.65833,595
18.66667,600
18.67500,605
18.68333,610
18.69167,615
18.70000,620
18.70833,625
18.71667,629
18.72500,634
18.73333,639
18.74167,644
18.75000,649
18.75833,653
18.76667,658
18.77500,662
18.78333,667
18.79167,672
18.80000,676
18.80833,680
18.81667,685
18.82500,689
18.83333,693
18.84167,697
18.85000,701
18.85833,705
18.86667,709
18.87500,713
18.88333,717
18.89167,721
18.90000,724
18.90833,728
18.91667,731
18.92500,735
18.93333,738
18.94167,741
18.95000,744
18.95833,747
18.96667,750
18.97500,753
18.98333,755
18.99167,758
19.00000,760
19.00833,762
19.01667,764
19.02500,766
19.03333,768
19.04167,769
19.05000,770
19.05833,771
19.06667,772
19.07500,773
19.08333,773
19.09167,773
19.10000,772
19.10833,772
19.11667,772
19.12500,771
19.13333,771
19.14167,770
19.15000,769
19.15833,767
19.16667,766
19.17500,764
19.18333,762
19.19167,759
19.20000,757
19.20833,754
19.21667,751
19.22500,747
19.23333,744
19.24167,740
19.25000,736
19.25833,732
19.26667,727
19.27500,722
19.28333,717
19.29167,713
19.30000,707
19.30833,702
19.31667,696
19.32500,691
19.33333,685
19.34167,680
19.35000,674
19.35833,668
19.36667,662
19.37500,656
19.38333,649
19.39167,642
19.40000,635
19.40833,628
19.41667,622
19.42500,615
19.43333,608
19.44167,601
19.45000,594
19.45833,587
19.46667,580
19.47500,574
19.48333,566
19.49167,559
19.50000,551
19.50833,544
19.51667,538
19.52500,531
19.53333,525
19.54167,518
19.55000,512
19.55833,506
19.56667,499
19.57500,493
19.58333,487
19.59167,481
19.60000,476
19.60833,470
19.61667,465
19.62500,460
19.63333,455
19.64167,451
19.65000,446
19.65833,442
19.66667,438
19.67500,434
19.68333,431
19.69167,428
19.70000,425
19.70833,423
19.71667,421
19.72500,419
19.73333,418
19.74167,416
19.75000,415
19.75833,415
19.76667,415
19.77500,415
19.78333,416
19.79167,418
19.80000,419
19.80833,422
19.81667,425
19.82500,428
19.83333,432
19.84167,437
19.85000,442
19.85833,448
19.86667,455
19.87500,462
19.88333,469
19.89167,477
19.90000,486
19.90833,495
19.91667,505
19.92500,516
19.93333,527
19.94167,539
19.95000,551
19.95833,564
19.96667,576
19.97500,590
19.98333,604
19.99167,618
20.00000,632
20.00833,647
20.01667,661
20.02500,676
20.03333,692
20.04167,707
20.05000,722
20.05833,738
20.06667,753
20.07500,768
20.08333,783
20.09167,797
20.10000,811
20.10833,826
20.11667,839
20.12500,853
20.13333,865
20.14167,878
20.15000,889
20.15833,901
20.16667,912
20.17500,922
20.18333,932
20.19167,941
20.20000,950
20.20833,958
20.21667,965
20.22500,972
20.23333,978
20.24167,983
20.25000,988
20.25833,992
20.26667,995
20.27500,997
20.28333,999
20.29167,1000
20.30000,1001
20.30833,1001
20.31667,1001
20.32500,1000
20.33333,998
20.34167,995
20.35000,992
20.35833,988
20.36667,984
20.37500,978
20.38333,973
20.39167,967
20.40000,960
20.40833,952
20.41667,944
20.42500,935
20.43333,926
20.44167,917
20.45000,908
20.45833,898
20.46667,889
20.47500,879
20.48333,868
20.49167,857
20.50000,846
20.50833,834
20.51667,823
20.52500,811
20.53333,799
20.54167,788
20.55000,777
20.55833,765
20.56667,754
20.57500,743
20.58333,732
20.59167,720
20.60000,709
20.60833,698
20.61667,688
20.62500,678
20.63333,668
20.64167,658
20.65000,648
20.65833,639
20.66667,630
20.67500,622
20.68333,614
20.69167,606
20.70000,598
20.70833,591
20.71667,583
20.72500,577
20.73333,570
20.74167,565
20.75000,559
20.75833,554
20.76667,549
20.77500,544
20.78333,540
20.79167,536
20.80000,532
20.80833,528
20.81667,525
20.82500,521
20.83333,519
20.84167,517
20.85000,515
20.85833,513
20.86667,511
20.87500,509
20.88333,508
20.89167,507
20.90000,506
20.90833,505
20.91667,504
20.92500,504
20.93333,505
20.94167,506
20.95000,506
20.95833,507
20.96667,509
20.97500,511
20.98333,513
20.99167,516
21.00000,519
21.00833,524
21.01667,529
21.02500,535
21.03333,540
21.04167,547
21.05000,554
21.05833,562
21.06667,571
21.07500,580
21.08333,591
21.09167,601
21.10000,613
21.10833,625
21.11667,638
21.12500,652
21.13333,667
21.14167,683
21.15000,699
21.15833,716
21.16667,733
21.17500,751
21.18333,770
21.19167,789
21.20000,809
21.20833,828
21.21667,849
21.22500,869
21.23333,889
21.24167,909
21.25000,930
21.25833,950
21.26667,970
21.27500,990
21.28333,1010
21.29167,1029
21.30000,1048
21.30833,1066
21.31667,1084
21.32500,1102
21.33333,1119
21.34167,1136
21.35000,1152
21.35833,1168
21.36667,1183
21.37500,1197
21.38333,1211
21.39167,1225
21.40000,1238
21.40833,1251
21.41667,1264
21.42500,1276
21.43333,1287
21.44167,1298
21.45000,1309
21.45833,1320
21.46667,1330
21.47500,1340
21.48333,1349
21.49167,1359
21.50000,1368
21.50833,1376
21.51667,1385
21.52500,1393
21.53333,1401
21.54167,1409
21.55000,1416
21.55833,1424
21.56667,1430
21.57500,1437
21.58333,1442
21.59167,1447
21.60000,1452
21.60833,1455
21.61667,1458
21.62500,1461
21.63333,1462
21.64167,1464
21.65000,1464
21.65833,1464
21.66667,1463
21.67500,1461
21.68333,1458
21.69167,1455
21.70000,1451
21.70833,1446
21.71667,1441
21.72500,1435
21.73333,1428
21.74167,1420
21.75000,1412
21.75833,1403
21.76667,1394
21.77500,1384
21.78333,1373
21.79167,1362
21.80000,1351
21.80833,1339
21.81667,1327
21.82500,1315
21.83333,1303
21.84167,1290
21.85000,1278
21.85833,1265
21.86667,1253
21.87500,1241
21.88333,1228
21.89167,1216
21.90000,1203
21.90833,1190
21.91667,1178
21.92500,1165
21.93333,1152
21.94167,1140
21.95000,1127
21.95833,1113
21.96667,1100
21.97500,1086
21.98333,1073
21.99167,1059
22.00000,1045
22.00833,1032
22.01667,1018
22.02500,1004
22.03333,990
22.04167,975
22.05000,960
22.05833,944
22.06667,929
22.07500,913
22.08333,897
22.09167,880
22.10000,864
22.10833,847
22.11667,830
22.12500,813
22.13333,796
22.14167,778
22.15000,761
22.15833,743
22.16667,726
22.17500,708
22.18333,691
22.19167,674
22.20000,658
22.20833,641
22.21667,624
22.22500,608
22.23333,592
22.24167,576
22.25000,561
22.25833,545
22.26667,530
22.27500,516
22.28333,502
22.29167,489
22.30000,476
22.30833,464
22.31667,453
22.32500,442
22.33333,431
22.34167,420
22.35000,410
22.35833,401
22.36667,392
22.37500,384
22.38333,376
22.39167,369
22.40000,362
22.40833,356
22.41667,350
22.42500,344
22.43333,338
22.44167,333
22.45000,329
22.45833,324
22.46667,321
22.47500,317
22.48333,314
22.49167,311
22.50000,308
22.50833,306
22.51667,304
22.52500,302
22.53333,301
22.54167,299
22.55000,298
22.55833,298
22.56667,297
22.57500,297
22.58333,297
22.59167,297
22.60000,296
22.60833,297
22.61667,297
22.62500,298
22.63333,299
22.64167,300
22.65000,301
22.65833,302
22.66667,303
22.67500,305
22.68333,306
22.69167,308
22.70000,311
22.70833,313
22.71667,315
22.72500,318
22.73333,320
22.74167,323
22.75000,326
22.75833,328
22.76667,331
22.77500,334
22.78333,337
22.79167,340
22.80000,343
22.80833,346
22.81667,348
22.82500,351
22.83333,354
22.84167,358
22.85000,361
22.85833,364
22.86667,366
22.87500,369
22.88333,372
22.89167,375
22.90000,378
22.90833,382
22.91667,385
22.92500,388
22.93333,391
22.94167,394
22.95000,396
22.95833,399
22.96667,401
22.97500,404
22.98333,407
22.99167,409
23.00000,411
23.00833,413
23.01667,415
23.02500,417
23.03333,419
23.04167,420
23.05000,422
23.05833,424
23.06667,426
23.07500,427
23.08333,429
23.09167,430
23.10000,431
23.10833,432
23.11667,433
23.12500,434
23.13333,435
23.14167,435
23.15000,436
23.15833,436
23.16667,436
23.17500,436
23.18333,436
23.19167,436
23.20000,436
23.20833,436
23.21667,435
23.22500,435
23.23333,434
23.24167,434
23.25000,433
23.25833,432
23.26667,431
23.27500,430
23.28333,429
23.29167,427
23.30000,426
23.30833,425
23.31667,424
23.32500,423
23.33333,421
23.34167,420
23.35000,419
23.35833,417
23.36667,416
23.37500,415
23.38333,413
23.39167,412
23.40000,410
23.40833,410
23.41667,409
23.42500,408
23.43333,406
23.44167,405
23.45000,404
23.45833,403
23.46667,402
23.47500,401
23.48333,400
23.49167,399
23.50000,398
23.50833,397
23.51667,396
23.52500,395
23.53333,395
23.54167,394
23.55000,394
23.55833,394
23.56667,393
23.57500,393
23.58333,393
23.59167,392
23.60000,392
23.60833,391
23.61667,391
23.62500,390
23.63333,390
23.64167,389
23.65000,389
23.65833,389
23.66667,388
23.67500,388
23.68333,388
23.69167,387
23.70000,387
23.70833,387
23.71667,386
23.72500,386
23.73333,385
23.74167,384
23.75000,384
23.75833,384
23.76667,384
23.77500,384
23.78333,383
23.79167,383
23.80000,382
23.80833,381
23.81667,381
23.82500,381
23.83333,380
23.84167,380
23.85000,379
23.85833,378
23.86667,377
23.87500,377
23.88333,376
23.89167,376
23.90000,375
23.90833,374
23.91667,374
23.92500,373
23.93333,373
23.94167,372
23.95000,371
23.95833,371
23.96667,370
23.97500,369
23.98333,368
23.99167,367
24.00000,366
24.00833,365
24.01667,365
24.02500,364
24.03333,363
24.04167,362
24.05000,362
24.05833,361
24.06667,361
24.07500,360
24.08333,359
24.09167,358
24.10000,357
24.10833,357
24.11667,356
24.12500,356
24.13333,356
24.14167,355
24.15000,355
24.15833,354
24.16667,354
24.17500,353
24.18333,352
24.19167,352
24.20000,352
24.20833,352
24.21667,352
24.22500,351
24.23333,351
24.24167,351
24.25000,350
24.25833,350
24.26667,350
24.27500,350
24.28333,351
24.29167,351
24.30000,352
24.30833,353
24.31667,354
24.32500,355
24.33333,356
24.34167,358
24.35000,361
24.35833,363
24.36667,366
24.37500,369
24.38333,373
24.39167,377
24.40000,381
24.40833,387
24.41667,393
24.42500,400
24.43333,408
24.44167,417
24.45000,427
24.45833,439
24.46667,452
24.47500,466
24.48333,481
24.49167,498
24.50000,516
24.50833,536
24.51667,558
24.52500,583
24.53333,608
24.54167,636
24.55000,667
24.55833,699
24.56667,733
24.57500,769
24.58333,808
24.59167,849
24.60000,891
24.60833,937
24.61667,984
24.62500,1034
24.63333,1087
24.64167,1141
24.65000,1198
24.65833,1256
24.66667,1316
24.67500,1378
24.68333,1442
24.69167,1507
24.70000,1573
24.70833,1640
24.71667,1708
24.72500,1778
24.73333,1848
24.74167,1919
24.75000,1990
24.75833,2061
24.76667,2133
24.77500,2204
24.78333,2275
24.79167,2344
24.80000,2414
24.80833,2482
24.81667,2549
24.82500,2615
24.83333,2680
24.84167,2743
24.85000,2805
24.85833,2866
24.86667,2924
24.87500,2981
24.88333,3035
24.89167,3088
24.90000,3139
24.90833,3187
24.91667,3234
24.92500,3279
24.93333,3321
24.94167,3361
24.95000,3399
24.95833,3435
24.96667,3469
24.97500,3501
24.98333,3530
24.99167,3558
25.00000,3583
25.00833,3605
25.01667,3625
25.02500,3643
25.03333,3658
25.04167,3671
25.05000,3681
25.05833,3689
25.06667,3694
25.07500,3696
25.08333,3696
25.09167,3694
25.10000,3688
25.10833,3680
25.11667,3669
25.12500,3655
25.13333,3638
25.14167,3618
25.15000,3595
25.15833,3569
25.16667,3541
25.17500,3509
25.18333,3475
25.19167,3438
25.20000,3398
25.20833,3356
25.21667,3311
25.22500,3263
25.23333,3213
25.24167,3160
25.25000,3105
25.25833,3049
25.26667,2990
25.27500,2929
25.28333,2867
25.29167,2803
25.30000,2738
25.30833,2672
25.31667,2606
25.32500,2538
25.33333,2470
25.34167,2402
25.35000,2333
25.35833,2264
25.36667,2195
25.37500,2126
25.38333,2059
25.39167,1991
25.40000,1925
25.40833,1859
25.41667,1795
25.42500,1731
25.43333,1669
25.44167,1607
25.45000,1548
25.45833,1489
25.46667,1433
25.47500,1379
25.48333,1326
25.49167,1274
25.50000,1224
25.50833,1176
25.51667,1130
25.52500,1085
25.53333,1043
25.54167,1002
25.55000,964
25.55833,927
25.56667,891
25.57500,858
25.58333,826
25.59167,795
25.60000,767
25.60833,739
25.61667,713
25.62500,689
25.63333,666
25.64167,644
25.65000,624
25.65833,604
25.66667,586
25.67500,569
25.68333,552
25.69167,537
25.70000,523
25.70833,510
25.71667,498
25.72500,486
25.73333,475
25.74167,464
25.75000,454
25.75833,445
25.76667,436
25.77500,427
25.78333,418
25.79167,410
25.80000,403
25.80833,397
25.81667,390
25.82500,384
25.83333,378
25.84167,373
25.85000,367
25.85833,361
25.86667,356
25.87500,351
25.88333,345
25.89167,340
25.90000,336
25.90833,331
25.91667,326
25.92500,322
25.93333,317
25.94167,312
25.95000,308
25.95833,303
25.96667,299
25.97500,294
25.98333,290
25.99167,286
26.00000,282
26.00833,278
26.01667,274
26.02500,269
26.03333,264
26.04167,260
26.05000,256
26.05833,252
26.06667,248
26.07500,244
26.08333,240
26.09167,236
26.10000,232
26.10833,229
26.11667,225
26.12500,222
26.13333,218
26.14167,214
26.15000,211
26.15833,207
26.16667,204
26.17500,201
26.18333,198
26.19167,194
26.20000,191
26.20833,188
26.21667,185
26.22500,182
26.23333,179
26.24167,177
26.25000,174
26.25833,172
26.26667,169
26.27500,167
26.28333,164
26.29167,162
26.30000,160
26.30833,158
26.31667,156
26.32500,154
26.33333,153
26.34167,151
26.35000,150
26.35833,149
26.36667,148
26.37500,147
26.38333,145
26.39167,144
26.40000,143
26.40833,142
26.41667,141
26.42500,140
26.43333,139
26.44167,139
26.45000,138
26.45833,137
26.46667,136
26.47500,136
26.48333,135
26.49167,135
26.50000,135
26.50833,134
26.51667,134
26.52500,134
26.53333,134
26.54167,134
26.55000,133
26.55833,133
26.56667,133
26.57500,133
26.58333,133
26.59167,133
26.60000,133
26.60833,133
26.61667,133
26.62500,133
26.63333,133
26.64167,133
26.65000,133
26.65833,133
26.66667,133
26.67500,133
26.68333,133
26.69167,133
26.70000,132
26.70833,132
26.71667,132
26.72500,132
26.73333,133
26.74167,133
26.75000,133
26.75833,134
26.76667,134
26.77500,134
26.78333,134
26.79167,134
26.80000,134
26.80833,134
26.81667,134
26.82500,134
26.83333,134
26.84167,134
26.85000,134
26.85833,135
26.86667,135
26.87500,135
26.88333,135
26.89167,135
26.90000,134
26.90833,134
26.91667,134
26.92500,134
26.93333,134
26.94167,134
26.95000,135
26.95833,135
26.96667,135
26.97500,135
26.98333,135
26.99167,135
27.00000,135
27.00833,135
27.01667,135
27.02500,135
27.03333,135
27.04167,135
27.05000,135
27.05833,135
27.06667,135
27.07500,135
27.08333,136
27.09167,136
27.10000,136
27.10833,136
27.11667,136
27.12500,136
27.13333,136
27.14167,136
27.15000,136
27.15833,136
27.16667,136
27.17500,136
27.18333,136
27.19167,136
27.20000,136
27.20833,136
27.21667,136
27.22500,136
27.23333,136
27.24167,136
27.25000,136
27.25833,136
27.26667,136
27.27500,136
27.28333,136
27.29167,136
27.30000,136
27.30833,137
27.31667,137
27.32500,136
27.33333,136
27.34167,136
27.35000,136
27.35833,135
27.36667,135
27.37500,135
27.38333,135
27.39167,135
27.40000,134
27.40833,134
27.41667,134
27.42500,133
27.43333,133
27.44167,133
27.45000,132
27.45833,132
27.46667,131
27.47500,131
27.48333,130
27.49167,130
27.50000,129
27.50833,129
27.51667,129
27.52500,128
27.53333,128
27.54167,127
27.55000,127
27.55833,126
27.56667,126
27.57500,125
27.58333,125
27.59167,124
27.60000,123
27.60833,123
27.61667,122
27.62500,121
27.63333,121
27.64167,121
27.65000,120
27.65833,120
27.66667,119
27.67500,119
27.68333,118
27.69167,118
27.70000,117
27.70833,117
27.71667,116
27.72500,116
27.73333,115
27.74167,115
27.75000,114
27.75833,113
27.76667,112
27.77500,111
27.78333,110
27.79167,109
27.80000,109
27.80833,109
27.81667,109
27.82500,108
27.83333,107
27.84167,107
27.85000,107
27.85833,106
27.86667,106
27.87500,106
27.88333,106
27.89167,105
27.90000,105
27.90833,105
27.91667,105
27.92500,104
27.93333,104
27.94167,104
27.95000,104
27.95833,104
27.96667,104
27.97500,103
27.98333,104
27.99167,104
28.00000,104
28.00833,104
28.01667,104
28.02500,103
28.03333,103
28.04167,102
28.05000,103
28.05833,103
28.06667,103
28.07500,103
28.08333,103
28.09167,103
28.10000,104
28.10833,104
28.11667,104
28.12500,104
28.13333,105
28.14167,105
28.15000,106
28.15833,106
28.16667,106
28.17500,106
28.18333,107
28.19167,107
28.20000,108
28.20833,108
28.21667,109
28.22500,109
28.23333,109
28.24167,109
28.25000,110
28.25833,110
28.26667,110
28.27500,111
28.28333,111
28.29167,111
28.30000,111
28.30833,112
28.31667,112
28.32500,113
28.33333,114
28.34167,115
28.35000,116
28.35833,116
28.36667,117
28.37500,118
28.38333,120
28.39167,121
28.40000,123
28.40833,124
28.41667,127
28.42500,129
28.43333,132
28.44167,135
28.45000,138
28.45833,141
28.46667,145
28.47500,149
28.48333,154
28.49167,160
28.50000,166
28.50833,173
28.51667,180
28.52500,188
28.53333,197
28.54167,206
28.55000,217
28.55833,228
28.56667,240
28.57500,253
28.58333,267
28.59167,281
28.60000,297
28.60833,314
28.61667,332
28.62500,352
28.63333,373
28.64167,396
28.65000,420
28.65833,445
28.66667,471
28.67500,499
28.68333,529
28.69167,559
28.70000,591
28.70833,624
28.71667,659
28.72500,695
28.73333,732
28.74167,771
28.75000,811
28.75833,853
28.76667,896
28.77500,940
28.78333,985
28.79167,1032
28.80000,1079
28.80833,1127
28.81667,1176
28.82500,1226
28.83333,1277
28.84167,1328
28.85000,1379
28.85833,1431
28.86667,1483
28.87500,1535
28.88333,1587
28.89167,1639
28.90000,1691
28.90833,1743
28.91667,1795
28.92500,1846
28.93333,1896
28.94167,1946
28.95000,1995
28.95833,2044
28.96667,2091
28.97500,2137
28.98333,2182
28.99167,2226
29.00000,2268
29.00833,2309
29.01667,2349
29.02500,2387
29.03333,2425
29.04167,2460
29.05000,2494
29.05833,2527
29.06667,2558
29.07500,2587
29.08333,2615
29.09167,2641
29.10000,2665
29.10833,2688
29.11667,2710
29.12500,2729
29.13333,2747
29.14167,2764
29.15000,2779
29.15833,2793
29.16667,2805
29.17500,2816
29.18333,2825
29.19167,2832
29.20000,2838
29.20833,2843
29.21667,2847
29.22500,2849
29.23333,2850
29.24167,2849
29.25000,2848
29.25833,2844
29.26667,2839
29.27500,2833
29.28333,2825
29.29167,2816
29.30000,2806
29.30833,2794
29.31667,2781
29.32500,2766
29.33333,2750
29.34167,2733
29.35000,2714
29.35833,2694
29.36667,2672
29.37500,2649
29.38333,2625
29.39167,2599
29.40000,2571
29.40833,2542
29.41667,2511
29.42500,2480
29.43333,2447
29.44167,2413
29.45000,2378
29.45833,2342
29.46667,2304
29.47500,2265
29.48333,2226
29.49167,2185
29.50000,2143
29.50833,2101
29.51667,2058
29.52500,2013
29.53333,1969
29.54167,1923
29.55000,1878
29.55833,1832
29.56667,1786
29.57500,1739
29.58333,1692
29.59167,1645
29.60000,1599
29.60833,1552
29.61667,1506
29.62500,1459
29.63333,1412
29.64167,1366
29.65000,1321
29.65833,1276
29.66667,1232
29.67500,1189
29.68333,1146
29.69167,1104
29.70000,1063
29.70833,1022
29.71667,982
29.72500,943
29.73333,906
29.74167,869
29.75000,833
29.75833,799
29.76667,765
29.77500,733
29.78333,702
29.79167,673
29.80000,644
29.80833,615
29.81667,588
29.82500,562
29.83333,537
29.84167,512
29.85000,489
29.85833,467
29.86667,445
29.87500,425
29.88333,406
29.89167,387
29.90000,370
29.90833,353
29.91667,337
29.92500,322
29.93333,307
29.94167,294
29.95000,281
29.95833,268
29.96667,256
29.97500,244
29.98333,233
29.99167,223
30.00000,212
30.00833,203
30.01667,194
30.02500,185
30.03333,177
30.04167,169
30.05000,161
30.05833,154
30.06667,146
30.07500,140
30.08333,133
30.09167,126
30.10000,120
30.10833,114
30.11667,107
30.12500,101
30.13333,95
30.14167,89
30.15000,84
30.15833,78
30.16667,72
30.17500,66
30.18333,60
30.19167,55
30.20000,50
30.20833,45
30.21667,39
30.22500,34
30.23333,29
30.24167,24
30.25000,19
30.25833,15
30.26667,9
30.27500,4
30.28333,-1
30.29167,-6
30.30000,-11
30.30833,-17
30.31667,-22
30.32500,-27
30.33333,-32
30.34167,-37
30.35000,-42
30.35833,-47
30.36667,-52
30.37500,-56
30.38333,-61
30.39167,-65
30.40000,-70
30.40833,-74
30.41667,-79
30.42500,-83
30.43333,-87
30.44167,-91
30.45000,-95
30.45833,-99
30.46667,-103
30.47500,-106
30.48333,-110
30.49167,-113
30.50000,-116
30.50833,-119
30.51667,-122
30.52500,-125
30.53333,-128
30.54167,-130
30.55000,-132
30.55833,-134
30.56667,-136
30.57500,-137
30.58333,-139
30.59167,-140
30.60000,-141
30.60833,-142
30.61667,-143
30.62500,-143
30.63333,-144
30.64167,-144
30.65000,-144
30.65833,-144
30.66667,-143
30.67500,-143
30.68333,-142
30.69167,-141
30.70000,-139
30.70833,-138
30.71667,-136
30.72500,-134
30.73333,-131
30.74167,-128
30.75000,-125
30.75833,-122
30.76667,-120
30.77500,-116
30.78333,-113
30.79167,-110
30.80000,-106
30.80833,-102
30.81667,-98
30.82500,-94
30.83333,-89
30.84167,-85
30.85000,-80
30.85833,-75
30.86667,-71
30.87500,-66
30.88333,-61
30.89167,-55
30.90000,-50
30.90833,-44
30.91667,-39
30.92500,-33
30.93333,-27
30.94167,-21
30.95000,-15
30.95833,-10
30.96667,-4
30.97500,2
30.98333,7
30.99167,13
31.00000,18
31.00833,24
31.01667,30
31.02500,36
31.03333,42
31.04167,47
31.05000,53
31.05833,58
31.06667,64
31.07500,69
31.08333,74
31.09167,79
31.10000,84
31.10833,88
31.11667,93
31.12500,98
31.13333,103
31.14167,107
31.15000,111
31.15833,115
31.16667,119
31.17500,123
31.18333,127
31.19167,130
31.20000,133
31.20833,137
31.21667,139
31.22500,142
31.23333,145
31.24167,148
31.25000,151
31.25833,153
31.26667,156
31.27500,158
31.28333,160
31.29167,162
31.30000,163
31.30833,165
31.31667,166
31.32500,168
31.33333,169
31.34167,169
31.35000,170
31.35833,171
31.36667,172
31.37500,172
31.38333,173
31.39167,174
31.40000,174
31.40833,174
31.41667,175
31.42500,175
31.43333,174
31.44167,175
31.45000,175
31.45833,174
31.46667,174
31.47500,174
31.48333,173
31.49167,173
31.50000,172
31.50833,172
31.51667,171
31.52500,171
31.53333,170
31.54167,170
31.55000,169
31.55833,169
31.56667,168
31.57500,168
31.58333,167
31.59167,167
31.60000,167
31.60833,167
31.61667,166
31.62500,166
31.63333,166
31.64167,166
31.65000,167
31.65833,167
31.66667,167
31.67500,167
31.68333,168
31.69167,168
31.70000,169
31.70833,170
31.71667,172
31.72500,173
31.73333,175
31.74167,177
31.75000,179
31.75833,181
31.76667,184
31.77500,187
31.78333,190
31.79167,193
31.80000,197
31.80833,200
31.81667,204
31.82500,208
31.83333,212
31.84167,217
31.85000,222
31.85833,227
31.86667,232
31.87500,238
31.88333,244
31.89167,250
31.90000,256
31.90833,262
31.91667,269
31.92500,275
31.93333,282
31.94167,288
31.95000,295
31.95833,303
31.96667,310
31.97500,317
31.98333,325
31.99167,332
32.00000,340
32.00833,348
32.01667,355
32.02500,363
32.03333,371
32.04167,379
32.05000,388
32.05833,395
32.06667,403
32.07500,412
32.08333,419
32.09167,427
32.10000,435
32.10833,443
32.11667,451
32.12500,459
32.13333,467
32.14167,474
32.15000,482
32.15833,489
32.16667,496
32.17500,503
32.18333,510
32.19167,516
32.20000,522
32.20833,529
32.21667,535
32.22500,541
32.23333,547
32.24167,552
32.25000,558
32.25833,563
32.26667,568
32.27500,574
32.28333,579
32.29167,584
32.30000,588
32.30833,593
32.31667,597
32.32500,601
32.33333,605
32.34167,610
32.35000,614
32.35833,617
32.36667,620
32.37500,623
32.38333,626
32.39167,629
32.40000,632
32.40833,635
32.41667,637
32.42500,639
32.43333,641
32.44167,643
32.45000,644
32.45833,646
32.46667,647
32.47500,649
32.48333,649
32.49167,650
32.50000,650
32.50833,650
32.51667,649
32.52500,649
32.53333,648
32.54167,647
32.55000,646
32.55833,645
32.56667,643
32.57500,642
32.58333,640
32.59167,638
32.60000,635
32.60833,633
32.61667,630
32.62500,627
32.63333,624
32.64167,620
32.65000,616
32.65833,613
32.66667,609
32.67500,605
32.68333,601
32.69167,596
32.70000,592
32.70833,587
32.71667,582
32.72500,578
32.73333,573
32.74167,567
32.75000,563
32.75833,558
32.76667,554
32.77500,549
32.78333,544
32.79167,539
32.80000,534
32.80833,528
32.81667,523
32.82500,517
32.83333,512
32.84167,507
32.85000,503
32.85833,498
32.86667,493
32.87500,489
32.88333,485
32.89167,481
32.90000,477
32.90833,473
32.91667,470
32.92500,466
32.93333,462
32.94167,458
32.95000,455
32.95833,452
32.96667,449
32.97500,445
32.98333,442
32.99167,440
33.00000,437
33.00833,435
33.01667,433
33.02500,431
33.03333,428
33.04167,426
33.05000,424
33.05833,422
33.06667,420
33.07500,419
33.08333,418
33.09167,416
33.10000,414
33.10833,413
33.11667,411
33.12500,411
33.13333,410
33.14167,409
33.15000,408
33.15833,406
33.16667,405
33.17500,404
33.18333,403
33.19167,401
33.20000,400
33.20833,399
33.21667,398
33.22500,397
33.23333,395
33.24167,394
33.25000,392
33.25833,391
33.26667,389
33.27500,388
33.28333,386
33.29167,385
33.30000,383
33.30833,382
33.31667,380
33.32500,378
33.33333,376
33.34167,374
33.35000,372
33.35833,370
33.36667,368
33.37500,366
33.38333,364
33.39167,362
33.40000,360
33.40833,357
33.41667,355
33.42500,353
33.43333,350
33.44167,347
33.45000,345
33.45833,342
33.46667,339
33.47500,336
33.48333,333
33.49167,330
33.50000,326
33.50833,323
33.51667,320
33.52500,317
33.53333,314
33.54167,311
33.55000,307
33.55833,304
33.56667,301
33.57500,297
33.58333,293
33.59167,290
33.60000,287
33.60833,283
33.61667,279
33.62500,276
33.63333,272
33.64167,268
33.65000,264
33.65833,260
33.66667,257
33.67500,253
33.68333,249
33.69167,246
33.70000,242
33.70833,238
33.71667,235
33.72500,231
33.73333,227
33.74167,223
33.75000,219
33.75833,215
33.76667,211
33.77500,207
33.78333,203
33.79167,200
33.80000,196
33.80833,193
33.81667,189
33.82500,186
33.83333,182
33.84167,178
33.85000,175
33.85833,171
33.86667,168
33.87500,164
33.88333,161
33.89167,158
33.90000,155
33.90833,151
33.91667,148
33.92500,145
33.93333,142
33.94167,139
33.95000,136
33.95833,133
33.96667,130
33.97500,127
33.98333,124
33.99167,122
34.00000,119
34.00833,117
34.01667,114
34.02500,112
34.03333,110
34.04167,108
34.05000,107
34.05833,105
34.06667,103
34.07500,101
34.08333,99
34.09167,97
34.10000,95
34.10833,93
34.11667,92
34.12500,91
34.13333,89
34.14167,88
34.15000,87
34.15833,85
34.16667,84
34.17500,82
34.18333,81
34.19167,80
34.20000,78
34.20833,77
34.21667,77
34.22500,76
34.23333,75
34.24167,74
34.25000,74
34.25833,73
34.26667,73
34.27500,72
34.28333,71
34.29167,70
34.30000,69
34.30833,69
34.31667,68
34.32500,68
34.33333,67
34.34167,67
34.35000,66
34.35833,66
34.36667,65
34.37500,64
34.38333,64
34.39167,64
34.40000,63
34.40833,63
34.41667,63
34.42500,63
34.43333,62
34.44167,62
34.45000,61
34.45833,61
34.46667,60
34.47500,60
34.48333,59
34.49167,59
34.50000,58
34.50833,58
34.51667,58
34.52500,58
34.53333,58
34.54167,58
34.55000,57
34.55833,57
34.56667,57
34.57500,56
34.58333,56
34.59167,56
34.60000,55
34.60833,55
34.61667,55
34.62500,55
34.63333,54
34.64167,54
34.65000,54
34.65833,54
34.66667,54
34.67500,53
34.68333,53
34.69167,52
34.70000,52
34.70833,52
34.71667,52
34.72500,51
34.73333,51
34.74167,52
34.75000,51
34.75833,51
34.76667,51
34.77500,51
34.78333,50
34.79167,50
34.80000,50
34.80833,50
34.81667,49
34.82500,49
34.83333,49
34.84167,48
34.85000,48
34.85833,48
34.86667,49
34.87500,49
34.88333,48
34.89167,48
34.90000,48
34.90833,47
34.91667,47
34.92500,47
34.93333,47
34.94167,47
34.95000,46
34.95833,46
34.96667,46
34.97500,46
34.98333,46
34.99167,46
35.00000,46
35.00833,46
35.01667,45
35.02500,45
35.03333,45
35.04167,46
35.05000,47
35.05833,47
35.06667,47
35.07500,47
35.08333,47
35.09167,47
35.10000,47
35.10833,47
35.11667,48
35.12500,48
35.13333,48
35.14167,49
35.15000,49
35.15833,49
35.16667,49
35.17500,49
35.18333,50
35.19167,50
35.20000,50
35.20833,50
35.21667,50
35.22500,50
35.23333,50
35.24167,50
35.25000,51
35.25833,52
35.26667,52
35.27500,53
35.28333,54
35.29167,55
35.30000,55
35.30833,55
35.31667,56
35.32500,56
35.33333,56
35.34167,56
35.35000,57
35.35833,57
35.36667,58
35.37500,59
35.38333,59
35.39167,60
35.40000,60
35.40833,61
35.41667,61
35.42500,62
35.43333,62
35.44167,63
35.45000,63
35.45833,64
35.46667,65
35.47500,66
35.48333,67
35.49167,67
35.50000,68
35.50833,68
35.51667,69
35.52500,69
35.53333,70
35.54167,70
35.55000,71
35.55833,72
35.56667,72
35.57500,73
35.58333,73
35.59167,74
35.60000,74
35.60833,75
35.61667,76
35.62500,77
35.63333,77
35.64167,78
35.65000,78
35.65833,79
35.66667,79
35.67500,80
35.68333,80
35.69167,81
35.70000,82
35.70833,82
35.71667,83
35.72500,83
35.73333,83
35.74167,83
35.75000,83
35.75833,83
35.76667,83
35.77500,84
35.78333,85
35.79167,85
35.80000,86
35.80833,86
35.81667,86
35.82500,86
35.83333,86
35.84167,87
35.85000,87
35.85833,87
35.86667,88
35.87500,88
35.88333,88
35.89167,89
35.90000,89
35.90833,89
35.91667,90
35.92500,90
35.93333,90
35.94167,91
35.95000,91
35.95833,91
35.96667,92
35.97500,92
35.98333,92
35.99167,93
36.00000,93
36.00833,93
36.01667,93
36.02500,93
36.03333,93
36.04167,93
36.05000,93
36.05833,93
36.06667,93
36.07500,94
36.08333,94
36.09167,94
36.10000,94
36.10833,94
36.11667,94
36.12500,94
36.13333,94
36.14167,94
36.15000,94
36.15833,94
36.16667,94
36.17500,93
36.18333,93
36.19167,93
36.20000,93
36.20833,93
36.21667,93
36.22500,93
36.23333,92
36.24167,92
36.25000,92
36.25833,92
36.26667,92
36.27500,92
36.28333,92
36.29167,92
36.30000,92
36.30833,91
36.31667,91
36.32500,91
36.33333,91
36.34167,91
36.35000,91
36.35833,91
36.36667,91
36.37500,91
36.38333,90
36.39167,89
36.40000,89
36.40833,88
36.41667,88
36.42500,88
36.43333,88
36.44167,88
36.45000,88
36.45833,88
36.46667,88
36.47500,88
36.48333,88
36.49167,88
36.50000,87
36.50833,87
36.51667,87
36.52500,87
36.53333,86
36.54167,86
36.55000,86
36.55833,87
36.56667,87
36.57500,87
36.58333,87
36.59167,86
36.60000,86
36.60833,87
36.61667,87
36.62500,87
36.63333,87
36.64167,86
36.65000,86
36.65833,86
36.66667,86
36.67500,87
36.68333,87
36.69167,87
36.70000,87
36.70833,87
36.71667,87
36.72500,88
36.73333,88
36.74167,88
36.75000,88
36.75833,88
36.76667,88
36.77500,88
36.78333,89
36.79167,89
36.80000,90
36.80833,90
36.81667,90
36.82500,91
36.83333,91
36.84167,91
36.85000,92
36.85833,92
36.86667,92
36.87500,92
36.88333,93
36.89167,93
36.90000,93
36.90833,94
36.91667,94
36.92500,94
36.93333,95
36.94167,96
36.95000,96
36.95833,97
36.96667,97
36.97500,98
36.98333,98
36.99167,99
37.00000,100
37.00833,100
37.01667,101
37.02500,101
37.03333,102
37.04167,103
37.05000,104
37.05833,105
37.06667,106
37.07500,107
37.08333,107
37.09167,108
37.10000,108
37.10833,109
37.11667,109
37.12500,109
37.13333,110
37.14167,111
37.15000,112
37.15833,113
37.16667,114
37.17500,114
37.18333,115
37.19167,116
37.20000,116
37.20833,117
37.21667,118
37.22500,119
37.23333,119
37.24167,120
37.25000,121
37.25833,122
37.26667,123
37.27500,124
37.28333,125
37.29167,126
37.30000,127
37.30833,128
37.31667,129
37.32500,130
37.33333,130
37.34167,131
37.35000,132
37.35833,133
37.36667,134
37.37500,135
37.38333,136
37.39167,137
37.40000,138
37.40833,139
37.41667,141
37.42500,142
37.43333,143
37.44167,144
37.45000,145
37.45833,145
37.46667,147
37.47500,147
37.48333,148
37.49167,149
37.50000,150
37.50833,151
37.51667,152
37.52500,153
37.53333,154
37.54167,155
37.55000,156
37.55833,157
37.56667,158
37.57500,159
37.58333,160
37.59167,161
37.60000,162
37.60833,162
37.61667,163
37.62500,164
37.63333,165
37.64167,166
37.65000,167
37.65833,167
37.66667,168
37.67500,169
37.68333,170
37.69167,170
37.70000,171
37.70833,171
37.71667,172
37.72500,173
37.73333,173
37.74167,174
37.75000,174
37.75833,175
37.76667,175
37.77500,175
37.78333,176
37.79167,176
37.80000,176
37.80833,176
37.81667,176
37.82500,176
37.83333,176
37.84167,176
37.85000,176
37.85833,176
37.86667,176
37.87500,176
37.88333,176
37.89167,176
37.90000,176
37.90833,176
37.91667,176
37.92500,176
37.93333,175
37.94167,175
37.95000,175
37.95833,175
37.96667,174
37.97500,174
37.98333,173
37.99167,172
38.00000,172
38.00833,172
38.01667,171
38.02500,171
38.03333,170
38.04167,170
38.05000,169
38.05833,168
38.06667,168
38.07500,167
38.08333,167
38.09167,167
38.10000,166
38.10833,165
38.11667,164
38.12500,163
38.13333,162
38.14167,162
38.15000,161
38.15833,160
38.16667,159
38.17500,158
38.18333,157
38.19167,156
38.20000,155
38.20833,154
38.21667,153
38.22500,152
38.23333,151
38.24167,150
38.25000,149
38.25833,148
38.26667,147
38.27500,146
38.28333,144
38.29167,143
38.30000,142
38.30833,141
38.31667,140
38.32500,139
38.33333,138
38.34167,136
38.35000,135
38.35833,133
38.36667,132
38.37500,131
38.38333,130
38.39167,128
38.40000,127
38.40833,125
38.41667,124
38.42500,123
38.43333,121
38.44167,120
38.45000,119
38.45833,117
38.46667,116
38.47500,115
38.48333,114
38.49167,113
38.50000,112
38.50833,110
38.51667,109
38.52500,107
38.53333,106
38.54167,104
38.55000,103
38.55833,101
38.56667,100
38.57500,99
38.58333,98
38.59167,97
38.60000,95
38.60833,94
38.61667,93
38.62500,92
38.63333,90
38.64167,89
38.65000,87
38.65833,86
38.66667,85
38.67500,84
38.68333,83
38.69167,81
38.70000,80
38.70833,79
38.71667,79
38.72500,77
38.73333,76
38.74167,75
38.75000,74
38.75833,73
38.76667,72
38.77500,71
38.78333,70
38.79167,69
38.80000,68
38.80833,67
38.81667,67
38.82500,66
38.83333,65
38.84167,64
38.85000,63
38.85833,62
38.86667,61
38.87500,60
38.88333,60
38.89167,59
38.90000,58
38.90833,58
38.91667,57
38.92500,57
38.93333,57
38.94167,56
38.95000,56
38.95833,55
38.96667,54
38.97500,54
38.98333,53
38.99167,53
39.00000,52
39.00833,51
39.01667,51
39.02500,50
39.03333,50
39.04167,49
39.05000,49
39.05833,49
39.06667,49
39.07500,49
39.08333,48
39.09167,48
39.10000,47
39.10833,47
39.11667,47
39.12500,46
39.13333,46
39.14167,46
39.15000,45
39.15833,46
39.16667,46
39.17500,46
39.18333,46
39.19167,45
39.20000,45
39.20833,45
39.21667,45
39.22500,45
39.23333,45
39.24167,45
39.25000,45
39.25833,44
39.26667,44
39.27500,44
39.28333,44
39.29167,44
39.30000,44
39.30833,44
39.31667,44
39.32500,44
39.33333,44
39.34167,44
39.35000,44
39.35833,43
39.36667,43
39.37500,43
39.38333,43
39.39167,43
39.40000,43
39.40833,43
39.41667,43
39.42500,43
39.43333,43
39.44167,43
39.45000,42
39.45833,42
39.46667,42
39.47500,42
39.48333,42
39.49167,42
39.50000,42
39.50833,42
39.51667,42
39.52500,42
39.53333,42
39.54167,42
39.55000,42
39.55833,42
39.56667,41
39.57500,41
39.58333,41
39.59167,41
39.60000,41
39.60833,41
39.61667,41
39.62500,41
39.63333,42
39.64167,42
39.65000,42
39.65833,42
39.66667,42
39.67500,42
39.68333,42
39.69167,42
39.70000,42
39.70833,42
39.71667,43
39.72500,43
39.73333,42
39.74167,42
39.75000,42
39.75833,42
39.76667,42
39.77500,41
39.78333,41
39.79167,41
39.80000,41
39.80833,41
39.81667,41
39.82500,41
39.83333,41
39.84167,41
39.85000,41
39.85833,40
39.86667,40
39.87500,41
39.88333,41
39.89167,41
39.90000,41
39.90833,41
39.91667,41
39.92500,41
39.93333,41
39.94167,41
39.95000,41
39.95833,41
39.96667,41
39.97500,41
39.98333,41
39.99167,41
40.00000,41
40.00833,41
40.01667,41
40.02500,41
40.03333,41
40.04167,41
40.05000,41
40.05833,41
40.06667,41
40.07500,41
40.08333,40
40.09167,40
40.10000,40
40.10833,41
40.11667,41
40.12500,40
40.13333,40
40.14167,40
40.15000,40
40.15833,40
40.16667,40
40.17500,40
40.18333,41
40.19167,41
40.20000,41
40.20833,41
40.21667,41
40.22500,41
40.23333,41
40.24167,41
40.25000,41
40.25833,41
40.26667,41
40.27500,41
40.28333,41
40.29167,42
40.30000,42
40.30833,42
40.31667,42
40.32500,42
40.33333,43
40.34167,43
40.35000,43
40.35833,43
40.36667,44
40.37500,45
40.38333,45
40.39167,46
40.40000,46
40.40833,46
40.41667,47
40.42500,47
40.43333,47
40.44167,48
40.45000,48
40.45833,48
40.46667,49
40.47500,49
40.48333,50
40.49167,50
40.50000,51
40.50833,51
40.51667,52
40.52500,53
40.53333,54
40.54167,55
40.55000,55
40.55833,56
40.56667,56
40.57500,56
40.58333,57
40.59167,58
40.60000,58
40.60833,59
40.61667,60
40.62500,61
40.63333,63
40.64167,64
40.65000,65
40.65833,65
40.66667,66
40.67500,67
40.68333,69
40.69167,70
40.70000,71
40.70833,72
40.71667,73
40.72500,75
40.73333,76
40.74167,78
40.75000,79
40.75833,80
40.76667,81
40.77500,83
40.78333,84
40.79167,85
40.80000,87
40.80833,89
40.81667,90
40.82500,92
40.83333,93
40.84167,95
40.85000,97
40.85833,98
40.86667,100
40.87500,102
40.88333,104
40.89167,105
40.90000,107
40.90833,109
40.91667,111
40.92500,113
40.93333,114
40.94167,116
40.95000,118
40.95833,120
40.96667,122
40.97500,124
40.98333,125
40.99167,128
41.00000,130
41.00833,131
41.01667,133
41.02500,134
41.03333,136
41.04167,138
41.05000,140
41.05833,141
41.06667,143
41.07500,145
41.08333,146
41.09167,148
41.10000,150
41.10833,152
41.11667,154
41.12500,156
41.13333,157
41.14167,159
41.15000,160
41.15833,162
41.16667,164
41.17500,166
41.18333,168
41.19167,169
41.20000,171
41.20833,172
41.21667,173
41.22500,175
41.23333,177
41.24167,179
41.25000,181
41.25833,182
41.26667,183
41.27500,184
41.28333,186
41.29167,187
41.30000,189
41.30833,191
41.31667,192
41.32500,194
41.33333,195
41.34167,196
41.35000,198
41.35833,199
41.36667,200
41.37500,202
41.38333,204
41.39167,206
41.40000,207
41.40833,208
41.41667,209
41.42500,211
41.43333,212
41.44167,214
41.45000,215
41.45833,216
41.46667,218
41.47500,219
41.48333,220
41.49167,221
41.50000,222
41.50833,224
41.51667,225
41.52500,226
41.53333,227
41.54167,228
41.55000,229
41.55833,230
41.56667,231
41.57500,232
41.58333,233
41.59167,234
41.60000,235
41.60833,236
41.61667,237
41.62500,237
41.63333,238
41.64167,239
41.65000,240
41.65833,241
41.66667,242
41.67500,243
41.68333,244
41.69167,244
41.70000,245
41.70833,245
41.71667,246
41.72500,246
41.73333,246
41.74167,247
41.75000,247
41.75833,248
41.76667,248
41.77500,248
41.78333,248
41.79167,249
41.80000,248
41.80833,249
41.81667,249
41.82500,250
41.83333,250
41.84167,250
41.85000,250
41.85833,251
41.86667,251
41.87500,252
41.88333,252
41.89167,252
41.90000,252
41.90833,252
41.91667,252
41.92500,252
41.93333,251
41.94167,251
41.95000,251
41.95833,250
41.96667,250
41.97500,249
41.98333,249
41.99167,248
42.00000,248
42.00833,248
42.01667,247
42.02500,247
42.03333,247
42.04167,247
42.05000,246
42.05833,246
42.06667,245
42.07500,245
42.08333,244
42.09167,244
42.10000,243
42.10833,243
42.11667,242
42.12500,242
42.13333,242
42.14167,241
42.15000,241
42.15833,240
42.16667,239
42.17500,238
42.18333,238
42.19167,237
42.20000,237
42.20833,237
42.21667,237
42.22500,236
42.23333,236
42.24167,236
42.25000,235
42.25833,235
42.26667,234
42.27500,233
42.28333,233
42.29167,233
42.30000,232
42.30833,232
42.31667,231
42.32500,231
42.33333,230
42.34167,230
42.35000,229
42.35833,229
42.36667,228
42.37500,228
42.38333,227
42.39167,227
42.40000,226
42.40833,225
42.41667,225
42.42500,224
42.43333,223
42.44167,223
42.45000,222
42.45833,221
42.46667,221
42.47500,220
42.48333,220
42.49167,219
42.50000,218
42.50833,218
42.51667,218
42.52500,217
42.53333,216
42.54167,216
42.55000,215
42.55833,214
42.56667,213
42.57500,213
42.58333,212
42.59167,211
42.60000,210
42.60833,209
42.61667,209
42.62500,208
42.63333,207
42.64167,207
42.65000,206
42.65833,205
42.66667,205
42.67500,204
42.68333,203
42.69167,202
42.70000,202
42.70833,201
42.71667,201
42.72500,200
42.73333,199
42.74167,198
42.75000,198
42.75833,197
42.76667,196
42.77500,195
42.78333,194
42.79167,193
42.80000,192
42.80833,192
42.81667,191
42.82500,190
42.83333,190
42.84167,189
42.85000,188
42.85833,187
42.86667,186
42.87500,186
42.88333,185
42.89167,184
42.90000,184
42.90833,183
42.91667,182
42.92500,181
42.93333,180
42.94167,179
42.95000,179
42.95833,178
42.96667,177
42.97500,176
42.98333,175
42.99167,174
43.00000,174
43.00833,173
43.01667,173
43.02500,172
43.03333,171
43.04167,170
43.05000,169
43.05833,168
43.06667,167
43.07500,167
43.08333,166
43.09167,166
43.10000,165
43.10833,164
43.11667,163
43.12500,162
43.13333,161
43.14167,160
43.15000,159
43.15833,159
43.16667,158
43.17500,157
43.18333,156
43.19167,155
43.20000,154
43.20833,154
43.21667,153
43.22500,152
43.23333,152
43.24167,151
43.25000,151
43.25833,150
43.26667,149
43.27500,148
43.28333,148
43.29167,147
43.30000,147
43.30833,146
43.31667,145
43.32500,144
43.33333,144
43.34167,143
43.35000,143
43.35833,142
43.36667,141
43.37500,140
43.38333,140
43.39167,139
43.40000,138
43.40833,137
43.41667,136
43.42500,135
43.43333,134
43.44167,134
43.45000,133
43.45833,132
43.46667,131
43.47500,130
43.48333,130
43.49167,130
43.50000,129
43.50833,129
43.51667,128
43.52500,127
43.53333,127
43.54167,127
43.55000,126
43.55833,126
43.56667,125
43.57500,124
43.58333,123
43.59167,123
43.60000,122
43.60833,121
43.61667,121
43.62500,120
43.63333,119
43.64167,119
43.65000,118
43.65833,117
43.66667,116
43.67500,115
43.68333,114
43.69167,113
43.70000,112
43.70833,112
43.71667,111
43.72500,110
43.73333,109
43.74167,109
43.75000,109
43.75833,109
43.76667,108
43.77500,108
43.78333,108
43.79167,107
43.80000,106
43.80833,106
43.81667,105
43.82500,104
43.83333,103
43.84167,103
43.85000,102
43.85833,102
43.86667,102
43.87500,101
43.88333,101
43.89167,100
43.90000,99
43.90833,98
43.91667,97
43.92500,96
43.93333,96
43.94167,95
43.95000,95
43.95833,94
43.96667,94
43.97500,93
43.98333,93
43.99167,92
44.00000,92
44.00833,91
44.01667,91
44.02500,90
44.03333,89
44.04167,89
44.05000,88
44.05833,87
44.06667,87
44.07500,86
44.08333,86
44.09167,85
44.10000,84
44.10833,84
44.11667,83
44.12500,83
44.13333,82
44.14167,82
44.15000,82
44.15833,81
44.16667,81
44.17500,81
44.18333,80
44.19167,80
44.20000,80
44.20833,80
44.21667,79
44.22500,78
44.23333,77
44.24167,76
44.25000,76
44.25833,76
44.26667,75
44.27500,75
44.28333,74
44.29167,74
44.30000,73
44.30833,73
44.31667,72
44.32500,72
44.33333,71
44.34167,71
44.35000,70
44.35833,70
44.36667,70
44.37500,70
44.38333,70
44.39167,69
44.40000,69
44.40833,69
44.41667,69
44.42500,68
44.43333,67
44.44167,67
44.45000,66
44.45833,66
44.46667,66
44.47500,65
44.48333,65
44.49167,65
44.50000,65
44.50833,64
44.51667,64
44.52500,63
44.53333,63
44.54167,62
44.55000,62
44.55833,61
44.56667,61
44.57500,61
44.58333,61
44.59167,60
44.60000,60
44.60833,59
44.61667,59
44.62500,59
44.63333,58
44.64167,58
44.65000,58
44.65833,57
44.66667,57
44.67500,56
44.68333,56
44.69167,56
44.70000,55
44.70833,54
44.71667,54
44.72500,54
44.73333,54
44.74167,53
44.75000,53
44.75833,53
44.76667,53
44.77500,53
44.78333,52
44.79167,52
44.80000,52
44.80833,51
44.81667,51
44.82500,51
44.83333,51
44.84167,51
44.85000,51
44.85833,50
44.86667,50
44.87500,49
44.88333,49
44.89167,48
44.90000,48
44.90833,48
44.91667,48
44.92500,48
44.93333,48
44.94167,48
44.95000,48
44.95833,47
44.96667,47
44.97500,47
44.98333,47
44.99167,47
45.00000,47
45.00833,47
45.01667,47
45.02500,46
45.03333,46
45.04167,46
45.05000,47
45.05833,47
45.06667,46
45.07500,46
45.08333,46
45.09167,45
45.10000,45
45.10833,45
45.11667,45
45.12500,45
45.13333,45
45.14167,45
45.15000,45
45.15833,45
45.16667,44
45.17500,44
45.18333,44
45.19167,44
45.20000,44
45.20833,44
45.21667,44
45.22500,43
45.23333,43
45.24167,43
45.25000,42
45.25833,42
45.26667,42
45.27500,42
45.28333,42
45.29167,42
45.30000,42
45.30833,42
45.31667,43
45.32500,43
45.33333,43
45.34167,43
45.35000,42
45.35833,42
45.36667,42
45.37500,42
45.38333,42
45.39167,43
45.40000,43
45.40833,43
45.41667,42
45.42500,42
45.43333,42
45.44167,42
45.45000,42
45.45833,42
45.46667,42
45.47500,42
45.48333,42
45.49167,42
45.50000,42
45.50833,42
45.51667,42
45.52500,42
45.53333,42
45.54167,42
45.55000,42
45.55833,42
45.56667,42
45.57500,42
45.58333,42
45.59167,42
45.60000,42
45.60833,42
45.61667,41
45.62500,41
45.63333,41
45.64167,41
45.65000,41
45.65833,41
45.66667,41
45.67500,41
45.68333,41
45.69167,41
45.70000,40
45.70833,40
45.71667,40
45.72500,40
45.73333,40
45.74167,40
45.75000,39
45.75833,39
45.76667,39
45.77500,39
45.78333,40
45.79167,40
45.80000,40
45.80833,40
45.81667,40
45.82500,40
45.83333,40
45.84167,40
45.85000,39
45.85833,39
45.86667,38
45.87500,38
45.88333,38
45.89167,38
45.90000,38
45.90833,38
45.91667,38
45.92500,38
45.93333,38
45.94167,38
45.95000,37
45.95833,37
45.96667,37
45.97500,36
45.98333,36
45.99167,36
46.00000,36
46.00833,36
46.01667,36
46.02500,36
46.03333,36
46.04167,36
46.05000,36
46.05833,36
46.06667,36
46.07500,36
46.08333,36
46.09167,35
46.10000,35
46.10833,35
46.11667,35
46.12500,35
46.13333,34
46.14167,34
46.15000,34
46.15833,34
46.16667,34
46.17500,33
46.18333,33
46.19167,33
46.20000,33
46.20833,33
46.21667,33
46.22500,32
46.23333,32
46.24167,32
46.25000,32
46.25833,32
46.26667,32
46.27500,32
46.28333,31
46.29167,30
46.30000,30
46.30833,30
46.31667,30
46.32500,30
46.33333,29
46.34167,29
46.35000,29
46.35833,29
46.36667,28
46.37500,28
46.38333,28
46.39167,28
46.40000,28
46.40833,28
46.41667,28
46.42500,28
46.43333,28
46.44167,28
46.45000,28
46.45833,28
46.46667,28
46.47500,28
46.48333,28
46.49167,28
46.50000,27
46.50833,27
46.51667,26
46.52500,26
46.53333,25
46.54167,24
46.55000,24
46.55833,24
46.56667,24
46.57500,23
46.58333,23
46.59167,23
46.60000,23
46.60833,23
46.61667,23
46.62500,22
46.63333,22
46.64167,22
46.65000,22
46.65833,22
46.66667,21
46.67500,21
46.68333,20
46.69167,20
46.70000,20
46.70833,20
46.71667,19
46.72500,19
46.73333,19
46.74167,19
46.75000,19
46.75833,19
46.76667,19
46.77500,19
46.78333,19
46.79167,19
46.80000,18
46.80833,18
46.81667,18
46.82500,18
46.83333,17
46.84167,17
46.85000,16
46.85833,16
46.86667,16
46.87500,16
46.88333,16
46.89167,16
46.90000,16
46.90833,16
46.91667,16
46.92500,16
46.93333,16
46.94167,16
46.95000,16
46.95833,16
46.96667,15
46.97500,15
46.98333,15
46.99167,15
47.00000,15
47.00833,15
47.01667,15
47.02500,15
47.03333,15
47.04167,15
47.05000,15
47.05833,16
47.06667,16
47.07500,16
47.08333,17
47.09167,17
47.10000,17
47.10833,17
47.11667,16
47.12500,16
47.13333,16
47.14167,16
47.15000,16
47.15833,16
47.16667,17
47.17500,17
47.18333,17
47.19167,17
47.20000,18
47.20833,18
47.21667,18
47.22500,18
47.23333,18
47.24167,19
47.25000,19
47.25833,20
47.26667,20
47.27500,21
47.28333,21
47.29167,21
47.30000,21
47.30833,21
47.31667,21
47.32500,22
47.33333,22
47.34167,23
47.35000,23
47.35833,23
47.36667,24
47.37500,25
47.38333,26
47.39167,26
47.40000,27
47.40833,27
47.41667,28
47.42500,29
47.43333,29
47.44167,29
47.45000,29
47.45833,30
47.46667,30
47.47500,31
47.48333,32
47.49167,33
47.50000,34
47.50833,35
47.51667,36
47.52500,36
47.53333,37
47.54167,38
47.55000,38
47.55833,39
47.56667,39
47.57500,40
47.58333,41
47.59167,41
47.60000,42
47.60833,43
47.61667,44
47.62500,45
47.63333,46
47.64167,47
47.65000,47
47.65833,49
47.66667,50
47.67500,51
47.68333,51
47.69167,52
47.70000,53
47.70833,54
47.71667,54
47.72500,55
47.73333,55
47.74167,56
47.75000,57
47.75833,58
47.76667,59
47.77500,59
47.78333,60
47.79167,61
47.80000,62
47.80833,63
47.81667,64
47.82500,65
47.83333,65
47.84167,66
47.85000,66
47.85833,67
47.86667,68
47.87500,68
47.88333,69
47.89167,70
47.90000,71
47.90833,72
47.91667,73
47.92500,74
47.93333,74
47.94167,75
47.95000,76
47.95833,77
47.96667,77
47.97500,78
47.98333,78
47.99167,79
48.00000,80
48.00833,81
48.01667,81
48.02500,81
48.03333,82
48.04167,82
48.05000,82
48.05833,83
48.06667,83
48.07500,83
48.08333,84
48.09167,84
48.10000,85
48.10833,85
48.11667,86
48.12500,87
48.13333,87
48.14167,87
48.15000,87
48.15833,88
48.16667,88
48.17500,88
48.18333,89
48.19167,89
48.20000,90
48.20833,90
48.21667,91
48.22500,91
48.23333,91
48.24167,92
48.25000,92
48.25833,93
48.26667,93
48.27500,93
48.28333,93
48.29167,94
48.30000,94
48.30833,94
48.31667,94
48.32500,94
48.33333,95
48.34167,95
48.35000,96
48.35833,96
48.36667,96
48.37500,96
48.38333,96
48.39167,96
48.40000,96
48.40833,96
48.41667,96
48.42500,96
48.43333,96
48.44167,96
48.45000,97
48.45833,97
48.46667,97
48.47500,97
48.48333,97
48.49167,97
48.50000,97
48.50833,97
48.51667,98
48.52500,98
48.53333,98
48.54167,98
48.55000,98
48.55833,98
48.56667,99
48.57500,98
48.58333,98
48.59167,98
48.60000,98
48.60833,98
48.61667,98
48.62500,99
48.63333,99
48.64167,99
48.65000,99
48.65833,99
48.66667,99
48.67500,99
48.68333,99
48.69167,99
48.70000,98
48.70833,98
48.71667,98
48.72500,99
48.73333,99
48.74167,99
48.75000,100
48.75833,100
48.76667,100
48.77500,99
48.78333,99
48.79167,99
48.80000,99
48.80833,99
48.81667,99
48.82500,99
48.83333,99
48.84167,99
48.85000,100
48.85833,100
48.86667,100
48.87500,100
48.88333,100
48.89167,100
48.90000,100
48.90833,100
48.91667,100
48.92500,100
48.93333,100
48.94167,100
48.95000,100
48.95833,100
48.96667,100
48.97500,100
48.98333,100
48.99167,100
49.00000,100
49.00833,99
49.01667,99
49.02500,99
49.03333,99
49.04167,100
49.05000,100
49.05833,101
49.06667,101
49.07500,101
49.08333,101
49.09167,101
49.10000,101
49.10833,101
49.11667,101
49.12500,101
49.13333,101
49.14167,102
49.15000,101
49.15833,101
49.16667,101
49.17500,101
49.18333,100
49.19167,100
49.20000,100
49.20833,100
49.21667,100
49.22500,100
49.23333,100
49.24167,100
49.25000,100
49.25833,100
49.26667,100
49.27500,100
49.28333,99
49.29167,99
49.30000,99
49.30833,99
49.31667,98
49.32500,98
49.33333,98
49.34167,98
49.35000,99
49.35833,99
49.36667,99
49.37500,99
49.38333,98
49.39167,98
49.40000,99
49.40833,99
49.41667,99
49.42500,98
49.43333,98
49.44167,98
49.45000,98
49.45833,98
49.46667,98
49.47500,98
49.48333,97
49.49167,97
49.50000,97
49.50833,97
49.51667,97
49.52500,96
49.53333,96
49.54167,96
49.55000,96
49.55833,95
49.56667,95
49.57500,94
49.58333,94
49.59167,94
49.60000,93
49.60833,93
49.61667,93
49.62500,92
49.63333,92
49.64167,91
49.65000,91
49.65833,91
49.66667,91
49.67500,91
49.68333,91
49.69167,90
49.70000,90
49.70833,90
49.71667,89
49.72500,89
49.73333,88
49.74167,88
49.75000,87
49.75833,86
49.76667,86
49.77500,85
49.78333,85
49.79167,84
49.80000,84
49.80833,83
49.81667,83
49.82500,83
49.83333,82
49.84167,82
49.85000,81
49.85833,81
49.86667,80
49.87500,79
49.88333,79
49.89167,78
49.90000,77
49.90833,76
49.91667,76
49.92500,75
49.93333,75
49.94167,74
49.95000,74
49.95833,74
49.96667,73
49.97500,73
49.98333,72
49.99167,71
50.00000,70

