[Header]
Application Name,LabSolutions
Version,5.97 SP1
Data File Name,C:\Users\cremerlab\Desktop\Richa\Sep_2nd_2022_scfa_rt50min_final\Sep 2nd yield expt_922022_001_011.lcd
Output Date,9/3/2022
Output Time,2:20:02 AM

[File Information]
Type,Data File
Generated,9/3/2022 1:29:42 AM
Generated by,System Administrator
Modified,9/3/2022 2:20:02 AM
Modified by,System Administrator

[Sample Information]
Operator Name,System Administrator
Acquired,9/3/2022 1:30:01 AM
Sample Type,0:Unknown
Level,0
Sample Name,090222_B.theta_2
Sample ID,001
ISTD Amount1,1
ISTD Amount2,1
ISTD Amount3,1
ISTD Amount4,1
ISTD Amount5,1
ISTD Amount6,1
ISTD Amount7,1
ISTD Amount8,1
ISTD Amount9,1
ISTD Amount10,1
ISTD Amount11,1
ISTD Amount12,1
ISTD Amount13,1
ISTD Amount14,1
ISTD Amount15,1
ISTD Amount16,1
ISTD Amount17,1
ISTD Amount18,1
ISTD Amount19,1
ISTD Amount20,1
ISTD Amount21,1
ISTD Amount22,1
ISTD Amount23,1
ISTD Amount24,1
ISTD Amount25,1
ISTD Amount26,1
ISTD Amount27,1
ISTD Amount28,1
ISTD Amount29,1
ISTD Amount30,1
ISTD Amount31,1
ISTD Amount32,1
Sample Amount,1
Dilution Factor,1
Vial#,10
Injection Volume,20

[Original Files]
Data File,C:\Users\cremerlab\Desktop\Richa\Sep_2nd_2022_scfa_rt50min_final\Sep 2nd yield expt_922022_001_011.lcd
Method File,C:\Users\cremerlab\Desktop\Richa\acetate_excretion.lcm
Batch File,C:\Users\cremerlab\Desktop\Richa\Sep_2nd_2022_scfa_rt50min_final\Sep 2nd yield expt.lcb
Report Format File,c:\LabSolutions\System\DEFAULT.lsr

[File Description]


[Configuration]
Instrument Name,HPLC-PC-Instrument1
Instrument #,1
Line #,1
# of Detectors,2
Detector ID,Detector A,Detector B
Detector Name,Detector A,Detector B
# of Channels,1,1

[Peak Table(Detector A)]
# of Peaks,0

[Peak Table(Detector B)]
# of Peaks,11
Peak#,R.Time,I.Time,F.Time,Area,Height,A/H,Conc.,Mark,ID#,Name,k',Plate #,Plate Ht.,Tailing,Resolution,Sep.Factor,Area Ratio,Height Ratio,Conc. %,Norm Conc.
1,11.016,10.258,12.325,2263984,115852,19.542,0.000,   ,,,0.000,7561,19.839,0.970,0.000,0.000,0,0,0.000,0.000
2,14.329,12.667,15.183,3566973,76780,46.457,0.000,   ,,,0.301,2509,59.784,0.657,4.014,0.000,0,0,0.000,0.000
3,15.756,15.183,18.408,1475910,50290,29.348,0.000,SV ,,,0.430,6936,21.625,1.141,1.501,1.431,0,0,0.000,0.000
4,17.866,17.425,18.383,7258,254,28.563,0.000,T  ,,,0.622,8413,17.829,1.072,2.747,1.445,0,0,0.000,0.000
5,19.085,18.425,19.758,13265,311,42.638,0.000,   ,,,0.732,3890,38.557,0.997,1.217,1.178,0,0,0.000,0.000
6,20.313,19.767,20.667,21483,629,34.172,0.000,   ,,,0.844,4238,35.395,0.000,0.994,1.152,0,0,0.000,0.000
7,20.899,20.667,21.333,18310,492,37.200,0.000, V ,,,0.897,595,251.927,0.000,0.251,1.063,0,0,0.000,0.000
8,21.807,21.333,22.600,30656,687,44.590,0.000, V ,,,0.980,4247,35.316,0.000,0.381,1.092,0,0,0.000,0.000
9,25.084,24.308,26.425,144288,3513,41.070,0.000,   ,,,1.277,9082,16.515,1.155,2.741,1.304,0,0,0.000,0.000
10,29.240,28.358,30.642,144340,2915,49.520,0.000,   ,,,1.654,8707,17.227,1.239,3.604,1.295,0,0,0.000,0.000
11,32.515,31.700,34.400,35774,459,77.910,0.000,   ,,,1.952,1211,123.852,1.594,1.313,1.180,0,0,0.000,0.000

[LC Chromatogram(Detector B-Ch1)]
Interval(msec),500
# of Points,6001
Start Time(min),0.000
End Time(min),50.000
Intensity Units,mV
Intensity Multiplier,0.001
R.Time (min),Intensity
0.00000,-26
0.00833,-26
0.01667,-9
0.02500,-1
0.03333,-1
0.04167,-2
0.05000,-3
0.05833,-3
0.06667,-4
0.07500,-4
0.08333,-5
0.09167,-6
0.10000,-6
0.10833,-6
0.11667,-7
0.12500,-7
0.13333,-8
0.14167,-9
0.15000,-10
0.15833,-10
0.16667,-11
0.17500,-11
0.18333,-12
0.19167,-13
0.20000,-13
0.20833,-14
0.21667,-14
0.22500,-14
0.23333,-15
0.24167,-16
0.25000,-17
0.25833,-17
0.26667,-18
0.27500,-18
0.28333,-19
0.29167,-19
0.30000,-19
0.30833,-20
0.31667,-20
0.32500,-21
0.33333,-21
0.34167,-22
0.35000,-22
0.35833,-22
0.36667,-22
0.37500,-23
0.38333,-24
0.39167,-24
0.40000,-24
0.40833,-24
0.41667,-24
0.42500,-25
0.43333,-25
0.44167,-26
0.45000,-26
0.45833,-26
0.46667,-26
0.47500,-26
0.48333,-26
0.49167,-26
0.50000,-27
0.50833,-27
0.51667,-27
0.52500,-28
0.53333,-28
0.54167,-28
0.55000,-28
0.55833,-28
0.56667,-29
0.57500,-29
0.58333,-29
0.59167,-29
0.60000,-30
0.60833,-30
0.61667,-30
0.62500,-30
0.63333,-31
0.64167,-31
0.65000,-31
0.65833,-31
0.66667,-31
0.67500,-31
0.68333,-31
0.69167,-31
0.70000,-31
0.70833,-32
0.71667,-32
0.72500,-31
0.73333,-31
0.74167,-31
0.75000,-32
0.75833,-32
0.76667,-32
0.77500,-32
0.78333,-32
0.79167,-32
0.80000,-32
0.80833,-32
0.81667,-32
0.82500,-32
0.83333,-32
0.84167,-32
0.85000,-32
0.85833,-32
0.86667,-32
0.87500,-32
0.88333,-32
0.89167,-31
0.90000,-31
0.90833,-31
0.91667,-31
0.92500,-30
0.93333,-30
0.94167,-30
0.95000,-30
0.95833,-30
0.96667,-31
0.97500,-31
0.98333,-31
0.99167,-31
1.00000,-31
1.00833,-31
1.01667,-30
1.02500,-30
1.03333,-30
1.04167,-30
1.05000,-29
1.05833,-29
1.06667,-29
1.07500,-28
1.08333,-28
1.09167,-28
1.10000,-27
1.10833,-27
1.11667,-27
1.12500,-27
1.13333,-27
1.14167,-27
1.15000,-27
1.15833,-27
1.16667,-27
1.17500,-27
1.18333,-27
1.19167,-26
1.20000,-26
1.20833,-26
1.21667,-25
1.22500,-25
1.23333,-25
1.24167,-25
1.25000,-25
1.25833,-26
1.26667,-26
1.27500,-26
1.28333,-26
1.29167,-26
1.30000,-25
1.30833,-25
1.31667,-25
1.32500,-25
1.33333,-25
1.34167,-24
1.35000,-24
1.35833,-24
1.36667,-23
1.37500,-23
1.38333,-23
1.39167,-23
1.40000,-23
1.40833,-23
1.41667,-23
1.42500,-23
1.43333,-23
1.44167,-23
1.45000,-23
1.45833,-22
1.46667,-22
1.47500,-22
1.48333,-21
1.49167,-21
1.50000,-21
1.50833,-20
1.51667,-20
1.52500,-20
1.53333,-20
1.54167,-20
1.55000,-20
1.55833,-20
1.56667,-19
1.57500,-19
1.58333,-19
1.59167,-19
1.60000,-19
1.60833,-19
1.61667,-19
1.62500,-19
1.63333,-19
1.64167,-19
1.65000,-18
1.65833,-18
1.66667,-18
1.67500,-18
1.68333,-18
1.69167,-18
1.70000,-17
1.70833,-17
1.71667,-17
1.72500,-17
1.73333,-17
1.74167,-17
1.75000,-17
1.75833,-17
1.76667,-17
1.77500,-17
1.78333,-16
1.79167,-16
1.80000,-16
1.80833,-16
1.81667,-15
1.82500,-15
1.83333,-16
1.84167,-16
1.85000,-16
1.85833,-16
1.86667,-16
1.87500,-15
1.88333,-15
1.89167,-15
1.90000,-15
1.90833,-15
1.91667,-15
1.92500,-15
1.93333,-15
1.94167,-15
1.95000,-15
1.95833,-15
1.96667,-15
1.97500,-15
1.98333,-14
1.99167,-14
2.00000,-14
2.00833,-14
2.01667,-14
2.02500,-13
2.03333,-13
2.04167,-13
2.05000,-13
2.05833,-13
2.06667,-13
2.07500,-13
2.08333,-13
2.09167,-14
2.10000,-14
2.10833,-14
2.11667,-14
2.12500,-14
2.13333,-14
2.14167,-14
2.15000,-14
2.15833,-14
2.16667,-14
2.17500,-14
2.18333,-14
2.19167,-14
2.20000,-14
2.20833,-13
2.21667,-13
2.22500,-13
2.23333,-13
2.24167,-13
2.25000,-13
2.25833,-13
2.26667,-14
2.27500,-14
2.28333,-14
2.29167,-14
2.30000,-15
2.30833,-15
2.31667,-14
2.32500,-14
2.33333,-14
2.34167,-14
2.35000,-14
2.35833,-15
2.36667,-15
2.37500,-15
2.38333,-15
2.39167,-14
2.40000,-15
2.40833,-15
2.41667,-15
2.42500,-15
2.43333,-15
2.44167,-15
2.45000,-15
2.45833,-15
2.46667,-15
2.47500,-16
2.48333,-16
2.49167,-16
2.50000,-16
2.50833,-16
2.51667,-15
2.52500,-16
2.53333,-16
2.54167,-16
2.55000,-16
2.55833,-17
2.56667,-17
2.57500,-17
2.58333,-17
2.59167,-17
2.60000,-17
2.60833,-17
2.61667,-17
2.62500,-17
2.63333,-17
2.64167,-16
2.65000,-17
2.65833,-17
2.66667,-18
2.67500,-18
2.68333,-18
2.69167,-18
2.70000,-18
2.70833,-19
2.71667,-19
2.72500,-19
2.73333,-19
2.74167,-18
2.75000,-18
2.75833,-19
2.76667,-19
2.77500,-19
2.78333,-20
2.79167,-20
2.80000,-19
2.80833,-19
2.81667,-19
2.82500,-20
2.83333,-20
2.84167,-20
2.85000,-20
2.85833,-20
2.86667,-20
2.87500,-20
2.88333,-20
2.89167,-20
2.90000,-20
2.90833,-20
2.91667,-21
2.92500,-21
2.93333,-21
2.94167,-21
2.95000,-21
2.95833,-21
2.96667,-21
2.97500,-21
2.98333,-21
2.99167,-21
3.00000,-21
3.00833,-21
3.01667,-21
3.02500,-22
3.03333,-22
3.04167,-22
3.05000,-22
3.05833,-22
3.06667,-22
3.07500,-22
3.08333,-22
3.09167,-22
3.10000,-22
3.10833,-22
3.11667,-22
3.12500,-22
3.13333,-21
3.14167,-21
3.15000,-21
3.15833,-21
3.16667,-22
3.17500,-22
3.18333,-22
3.19167,-22
3.20000,-22
3.20833,-23
3.21667,-23
3.22500,-23
3.23333,-23
3.24167,-23
3.25000,-23
3.25833,-23
3.26667,-23
3.27500,-22
3.28333,-22
3.29167,-22
3.30000,-22
3.30833,-22
3.31667,-22
3.32500,-22
3.33333,-22
3.34167,-22
3.35000,-22
3.35833,-22
3.36667,-22
3.37500,-22
3.38333,-22
3.39167,-23
3.40000,-22
3.40833,-22
3.41667,-22
3.42500,-22
3.43333,-22
3.44167,-22
3.45000,-21
3.45833,-21
3.46667,-21
3.47500,-21
3.48333,-21
3.49167,-21
3.50000,-21
3.50833,-21
3.51667,-21
3.52500,-20
3.53333,-20
3.54167,-21
3.55000,-21
3.55833,-21
3.56667,-21
3.57500,-20
3.58333,-20
3.59167,-20
3.60000,-19
3.60833,-19
3.61667,-19
3.62500,-18
3.63333,-18
3.64167,-18
3.65000,-18
3.65833,-18
3.66667,-18
3.67500,-18
3.68333,-18
3.69167,-17
3.70000,-17
3.70833,-16
3.71667,-17
3.72500,-17
3.73333,-17
3.74167,-17
3.75000,-17
3.75833,-17
3.76667,-17
3.77500,-17
3.78333,-17
3.79167,-16
3.80000,-16
3.80833,-15
3.81667,-14
3.82500,-14
3.83333,-14
3.84167,-14
3.85000,-13
3.85833,-13
3.86667,-13
3.87500,-13
3.88333,-12
3.89167,-12
3.90000,-12
3.90833,-12
3.91667,-12
3.92500,-12
3.93333,-11
3.94167,-11
3.95000,-10
3.95833,-10
3.96667,-9
3.97500,-9
3.98333,-9
3.99167,-8
4.00000,-8
4.00833,-7
4.01667,-7
4.02500,-6
4.03333,-6
4.04167,-5
4.05000,-5
4.05833,-4
4.06667,-4
4.07500,-4
4.08333,-4
4.09167,-4
4.10000,-3
4.10833,-3
4.11667,-3
4.12500,-2
4.13333,-2
4.14167,-1
4.15000,-1
4.15833,-0
4.16667,-0
4.17500,0
4.18333,1
4.19167,1
4.20000,2
4.20833,3
4.21667,4
4.22500,4
4.23333,5
4.24167,5
4.25000,5
4.25833,6
4.26667,6
4.27500,7
4.28333,8
4.29167,8
4.30000,9
4.30833,10
4.31667,10
4.32500,10
4.33333,11
4.34167,12
4.35000,13
4.35833,13
4.36667,14
4.37500,15
4.38333,16
4.39167,17
4.40000,18
4.40833,18
4.41667,18
4.42500,19
4.43333,19
4.44167,20
4.45000,20
4.45833,21
4.46667,21
4.47500,22
4.48333,22
4.49167,23
4.50000,24
4.50833,24
4.51667,25
4.52500,26
4.53333,26
4.54167,28
4.55000,28
4.55833,29
4.56667,30
4.57500,30
4.58333,31
4.59167,32
4.60000,32
4.60833,33
4.61667,34
4.62500,35
4.63333,35
4.64167,36
4.65000,36
4.65833,37
4.66667,38
4.67500,39
4.68333,39
4.69167,40
4.70000,41
4.70833,41
4.71667,41
4.72500,42
4.73333,42
4.74167,43
4.75000,44
4.75833,44
4.76667,44
4.77500,45
4.78333,45
4.79167,46
4.80000,46
4.80833,46
4.81667,46
4.82500,47
4.83333,47
4.84167,48
4.85000,48
4.85833,48
4.86667,49
4.87500,49
4.88333,50
4.89167,50
4.90000,50
4.90833,51
4.91667,52
4.92500,52
4.93333,52
4.94167,52
4.95000,53
4.95833,53
4.96667,53
4.97500,53
4.98333,53
4.99167,53
5.00000,53
5.00833,53
5.01667,53
5.02500,53
5.03333,53
5.04167,53
5.05000,53
5.05833,53
5.06667,53
5.07500,53
5.08333,53
5.09167,53
5.10000,53
5.10833,54
5.11667,54
5.12500,53
5.13333,53
5.14167,53
5.15000,53
5.15833,53
5.16667,52
5.17500,52
5.18333,52
5.19167,52
5.20000,52
5.20833,52
5.21667,52
5.22500,52
5.23333,52
5.24167,51
5.25000,51
5.25833,50
5.26667,50
5.27500,50
5.28333,50
5.29167,50
5.30000,49
5.30833,49
5.31667,49
5.32500,49
5.33333,48
5.34167,48
5.35000,48
5.35833,47
5.36667,47
5.37500,47
5.38333,47
5.39167,46
5.40000,45
5.40833,45
5.41667,44
5.42500,44
5.43333,43
5.44167,43
5.45000,43
5.45833,42
5.46667,42
5.47500,41
5.48333,41
5.49167,40
5.50000,40
5.50833,39
5.51667,39
5.52500,38
5.53333,37
5.54167,37
5.55000,36
5.55833,36
5.56667,36
5.57500,35
5.58333,34
5.59167,33
5.60000,32
5.60833,31
5.61667,31
5.62500,30
5.63333,30
5.64167,29
5.65000,28
5.65833,28
5.66667,27
5.67500,26
5.68333,26
5.69167,26
5.70000,25
5.70833,24
5.71667,24
5.72500,23
5.73333,22
5.74167,21
5.75000,20
5.75833,19
5.76667,19
5.77500,18
5.78333,18
5.79167,17
5.80000,16
5.80833,15
5.81667,14
5.82500,13
5.83333,13
5.84167,12
5.85000,12
5.85833,11
5.86667,10
5.87500,10
5.88333,9
5.89167,8
5.90000,7
5.90833,6
5.91667,5
5.92500,4
5.93333,4
5.94167,3
5.95000,3
5.95833,2
5.96667,1
5.97500,0
5.98333,-1
5.99167,-1
6.00000,-2
6.00833,-3
6.01667,-3
6.02500,-4
6.03333,-5
6.04167,-6
6.05000,-7
6.05833,-8
6.06667,-9
6.07500,-10
6.08333,-10
6.09167,-11
6.10000,-12
6.10833,-13
6.11667,-13
6.12500,-14
6.13333,-15
6.14167,-16
6.15000,-17
6.15833,-18
6.16667,-19
6.17500,-19
6.18333,-20
6.19167,-21
6.20000,-22
6.20833,-23
6.21667,-24
6.22500,-25
6.23333,-25
6.24167,-26
6.25000,-26
6.25833,-27
6.26667,-27
6.27500,-27
6.28333,-28
6.29167,-28
6.30000,-28
6.30833,-29
6.31667,-29
6.32500,-30
6.33333,-30
6.34167,-31
6.35000,-32
6.35833,-33
6.36667,-34
6.37500,-35
6.38333,-35
6.39167,-36
6.40000,-36
6.40833,-37
6.41667,-37
6.42500,-38
6.43333,-38
6.44167,-39
6.45000,-39
6.45833,-40
6.46667,-41
6.47500,-41
6.48333,-41
6.49167,-41
6.50000,-42
6.50833,-42
6.51667,-43
6.52500,-43
6.53333,-43
6.54167,-43
6.55000,-44
6.55833,-44
6.56667,-44
6.57500,-45
6.58333,-45
6.59167,-46
6.60000,-46
6.60833,-46
6.61667,-46
6.62500,-47
6.63333,-47
6.64167,-47
6.65000,-47
6.65833,-47
6.66667,-47
6.67500,-47
6.68333,-47
6.69167,-48
6.70000,-48
6.70833,-49
6.71667,-49
6.72500,-50
6.73333,-50
6.74167,-50
6.75000,-51
6.75833,-51
6.76667,-51
6.77500,-51
6.78333,-51
6.79167,-52
6.80000,-52
6.80833,-52
6.81667,-52
6.82500,-52
6.83333,-52
6.84167,-53
6.85000,-53
6.85833,-53
6.86667,-53
6.87500,-54
6.88333,-54
6.89167,-54
6.90000,-54
6.90833,-55
6.91667,-55
6.92500,-55
6.93333,-55
6.94167,-55
6.95000,-55
6.95833,-55
6.96667,-55
6.97500,-55
6.98333,-55
6.99167,-55
7.00000,-55
7.00833,-55
7.01667,-56
7.02500,-56
7.03333,-56
7.04167,-56
7.05000,-56
7.05833,-56
7.06667,-56
7.07500,-56
7.08333,-57
7.09167,-57
7.10000,-57
7.10833,-57
7.11667,-57
7.12500,-57
7.13333,-57
7.14167,-57
7.15000,-57
7.15833,-57
7.16667,-57
7.17500,-57
7.18333,-57
7.19167,-57
7.20000,-57
7.20833,-57
7.21667,-57
7.22500,-57
7.23333,-57
7.24167,-57
7.25000,-57
7.25833,-57
7.26667,-58
7.27500,-57
7.28333,-57
7.29167,-57
7.30000,-57
7.30833,-57
7.31667,-57
7.32500,-57
7.33333,-57
7.34167,-58
7.35000,-58
7.35833,-58
7.36667,-58
7.37500,-58
7.38333,-58
7.39167,-58
7.40000,-58
7.40833,-58
7.41667,-58
7.42500,-58
7.43333,-58
7.44167,-58
7.45000,-58
7.45833,-57
7.46667,-57
7.47500,-57
7.48333,-57
7.49167,-57
7.50000,-57
7.50833,-58
7.51667,-58
7.52500,-58
7.53333,-58
7.54167,-58
7.55000,-58
7.55833,-58
7.56667,-59
7.57500,-59
7.58333,-58
7.59167,-58
7.60000,-59
7.60833,-59
7.61667,-59
7.62500,-59
7.63333,-59
7.64167,-59
7.65000,-59
7.65833,-59
7.66667,-59
7.67500,-59
7.68333,-59
7.69167,-59
7.70000,-59
7.70833,-59
7.71667,-59
7.72500,-60
7.73333,-60
7.74167,-60
7.75000,-60
7.75833,-60
7.76667,-60
7.77500,-60
7.78333,-60
7.79167,-60
7.80000,-60
7.80833,-60
7.81667,-60
7.82500,-60
7.83333,-60
7.84167,-60
7.85000,-61
7.85833,-61
7.86667,-61
7.87500,-61
7.88333,-61
7.89167,-61
7.90000,-61
7.90833,-61
7.91667,-61
7.92500,-61
7.93333,-61
7.94167,-61
7.95000,-61
7.95833,-61
7.96667,-61
7.97500,-61
7.98333,-61
7.99167,-61
8.00000,-61
8.00833,-61
8.01667,-61
8.02500,-62
8.03333,-62
8.04167,-62
8.05000,-61
8.05833,-61
8.06667,-61
8.07500,-61
8.08333,-61
8.09167,-61
8.10000,-61
8.10833,-61
8.11667,-61
8.12500,-60
8.13333,-60
8.14167,-61
8.15000,-62
8.15833,-62
8.16667,-62
8.17500,-62
8.18333,-62
8.19167,-63
8.20000,-62
8.20833,-62
8.21667,-62
8.22500,-62
8.23333,-62
8.24167,-62
8.25000,-62
8.25833,-62
8.26667,-62
8.27500,-62
8.28333,-62
8.29167,-62
8.30000,-63
8.30833,-63
8.31667,-63
8.32500,-63
8.33333,-63
8.34167,-63
8.35000,-63
8.35833,-63
8.36667,-63
8.37500,-62
8.38333,-62
8.39167,-62
8.40000,-63
8.40833,-63
8.41667,-63
8.42500,-63
8.43333,-63
8.44167,-63
8.45000,-63
8.45833,-63
8.46667,-62
8.47500,-62
8.48333,-62
8.49167,-62
8.50000,-62
8.50833,-62
8.51667,-62
8.52500,-62
8.53333,-62
8.54167,-62
8.55000,-63
8.55833,-63
8.56667,-63
8.57500,-63
8.58333,-62
8.59167,-62
8.60000,-62
8.60833,-63
8.61667,-63
8.62500,-63
8.63333,-63
8.64167,-63
8.65000,-63
8.65833,-63
8.66667,-63
8.67500,-63
8.68333,-63
8.69167,-63
8.70000,-63
8.70833,-63
8.71667,-64
8.72500,-64
8.73333,-64
8.74167,-64
8.75000,-64
8.75833,-64
8.76667,-64
8.77500,-64
8.78333,-64
8.79167,-64
8.80000,-64
8.80833,-65
8.81667,-65
8.82500,-65
8.83333,-64
8.84167,-64
8.85000,-65
8.85833,-64
8.86667,-64
8.87500,-64
8.88333,-64
8.89167,-63
8.90000,-63
8.90833,-63
8.91667,-63
8.92500,-63
8.93333,-63
8.94167,-63
8.95000,-63
8.95833,-64
8.96667,-64
8.97500,-64
8.98333,-64
8.99167,-64
9.00000,-64
9.00833,-64
9.01667,-64
9.02500,-64
9.03333,-64
9.04167,-64
9.05000,-64
9.05833,-64
9.06667,-65
9.07500,-64
9.08333,-65
9.09167,-65
9.10000,-65
9.10833,-64
9.11667,-64
9.12500,-64
9.13333,-63
9.14167,-63
9.15000,-63
9.15833,-63
9.16667,-64
9.17500,-64
9.18333,-64
9.19167,-64
9.20000,-64
9.20833,-64
9.21667,-64
9.22500,-64
9.23333,-64
9.24167,-63
9.25000,-63
9.25833,-62
9.26667,-62
9.27500,-62
9.28333,-62
9.29167,-62
9.30000,-63
9.30833,-63
9.31667,-63
9.32500,-63
9.33333,-62
9.34167,-62
9.35000,-62
9.35833,-61
9.36667,-61
9.37500,-61
9.38333,-62
9.39167,-62
9.40000,-62
9.40833,-63
9.41667,-63
9.42500,-63
9.43333,-62
9.44167,-62
9.45000,-62
9.45833,-62
9.46667,-62
9.47500,-62
9.48333,-62
9.49167,-62
9.50000,-62
9.50833,-62
9.51667,-62
9.52500,-62
9.53333,-62
9.54167,-61
9.55000,-61
9.55833,-62
9.56667,-62
9.57500,-62
9.58333,-62
9.59167,-62
9.60000,-62
9.60833,-62
9.61667,-62
9.62500,-62
9.63333,-62
9.64167,-62
9.65000,-62
9.65833,-62
9.66667,-61
9.67500,-61
9.68333,-61
9.69167,-61
9.70000,-61
9.70833,-62
9.71667,-62
9.72500,-62
9.73333,-61
9.74167,-61
9.75000,-61
9.75833,-61
9.76667,-61
9.77500,-60
9.78333,-60
9.79167,-60
9.80000,-60
9.80833,-60
9.81667,-61
9.82500,-61
9.83333,-61
9.84167,-61
9.85000,-61
9.85833,-61
9.86667,-61
9.87500,-60
9.88333,-60
9.89167,-60
9.90000,-60
9.90833,-60
9.91667,-60
9.92500,-60
9.93333,-60
9.94167,-61
9.95000,-61
9.95833,-61
9.96667,-60
9.97500,-60
9.98333,-60
9.99167,-60
10.00000,-60
10.00833,-59
10.01667,-59
10.02500,-59
10.03333,-59
10.04167,-58
10.05000,-58
10.05833,-57
10.06667,-57
10.07500,-56
10.08333,-56
10.09167,-56
10.10000,-56
10.10833,-55
10.11667,-55
10.12500,-55
10.13333,-54
10.14167,-53
10.15000,-52
10.15833,-51
10.16667,-50
10.17500,-49
10.18333,-48
10.19167,-46
10.20000,-45
10.20833,-43
10.21667,-42
10.22500,-40
10.23333,-38
10.24167,-36
10.25000,-34
10.25833,-32
10.26667,-29
10.27500,-26
10.28333,-23
10.29167,-19
10.30000,-15
10.30833,-9
10.31667,-2
10.32500,6
10.33333,15
10.34167,26
10.35000,39
10.35833,53
10.36667,69
10.37500,87
10.38333,106
10.39167,125
10.40000,146
10.40833,167
10.41667,188
10.42500,208
10.43333,226
10.44167,242
10.45000,255
10.45833,265
10.46667,271
10.47500,275
10.48333,275
10.49167,274
10.50000,273
10.50833,273
10.51667,277
10.52500,289
10.53333,312
10.54167,350
10.55000,408
10.55833,491
10.56667,604
10.57500,753
10.58333,945
10.59167,1185
10.60000,1479
10.60833,1835
10.61667,2257
10.62500,2752
10.63333,3326
10.64167,3985
10.65000,4733
10.65833,5575
10.66667,6516
10.67500,7561
10.68333,8713
10.69167,9977
10.70000,11354
10.70833,12849
10.71667,14461
10.72500,16195
10.73333,18051
10.74167,20031
10.75000,22135
10.75833,24363
10.76667,26714
10.77500,29189
10.78333,31786
10.79167,34503
10.80000,37340
10.80833,40291
10.81667,43355
10.82500,46528
10.83333,49804
10.84167,53179
10.85000,56646
10.85833,60197
10.86667,63824
10.87500,67516
10.88333,71262
10.89167,75047
10.90000,78853
10.90833,82661
10.91667,86447
10.92500,90185
10.93333,93842
10.94167,97382
10.95000,100764
10.95833,103943
10.96667,106870
10.97500,109490
10.98333,111749
10.99167,113588
11.00000,114953
11.00833,115789
11.01667,116049
11.02500,115694
11.03333,114696
11.04167,113043
11.05000,110737
11.05833,107798
11.06667,104266
11.07500,100197
11.08333,95662
11.09167,90743
11.10000,85532
11.10833,80126
11.11667,74619
11.12500,69102
11.13333,63661
11.14167,58366
11.15000,53279
11.15833,48449
11.16667,43912
11.17500,39691
11.18333,35798
11.19167,32237
11.20000,29001
11.20833,26081
11.21667,23459
11.22500,21118
11.23333,19034
11.24167,17187
11.25000,15554
11.25833,14114
11.26667,12845
11.27500,11728
11.28333,10745
11.29167,9879
11.30000,9117
11.30833,8445
11.31667,7851
11.32500,7324
11.33333,6857
11.34167,6439
11.35000,6066
11.35833,5731
11.36667,5429
11.37500,5155
11.38333,4906
11.39167,4679
11.40000,4472
11.40833,4280
11.41667,4103
11.42500,3938
11.43333,3784
11.44167,3640
11.45000,3505
11.45833,3378
11.46667,3258
11.47500,3145
11.48333,3038
11.49167,2936
11.50000,2839
11.50833,2747
11.51667,2659
11.52500,2574
11.53333,2493
11.54167,2415
11.55000,2341
11.55833,2270
11.56667,2202
11.57500,2136
11.58333,2073
11.59167,2013
11.60000,1955
11.60833,1899
11.61667,1845
11.62500,1794
11.63333,1744
11.64167,1697
11.65000,1651
11.65833,1607
11.66667,1565
11.67500,1524
11.68333,1484
11.69167,1446
11.70000,1410
11.70833,1375
11.71667,1341
11.72500,1309
11.73333,1278
11.74167,1248
11.75000,1219
11.75833,1192
11.76667,1165
11.77500,1140
11.78333,1115
11.79167,1092
11.80000,1069
11.80833,1047
11.81667,1026
11.82500,1006
11.83333,987
11.84167,968
11.85000,950
11.85833,933
11.86667,917
11.87500,901
11.88333,886
11.89167,872
11.90000,858
11.90833,844
11.91667,832
11.92500,820
11.93333,808
11.94167,798
11.95000,787
11.95833,776
11.96667,766
11.97500,756
11.98333,747
11.99167,738
12.00000,730
12.00833,722
12.01667,714
12.02500,707
12.03333,700
12.04167,693
12.05000,686
12.05833,680
12.06667,673
12.07500,667
12.08333,662
12.09167,657
12.10000,651
12.10833,646
12.11667,642
12.12500,637
12.13333,634
12.14167,630
12.15000,627
12.15833,623
12.16667,620
12.17500,616
12.18333,613
12.19167,610
12.20000,608
12.20833,605
12.21667,604
12.22500,602
12.23333,601
12.24167,599
12.25000,598
12.25833,597
12.26667,595
12.27500,594
12.28333,594
12.29167,593
12.30000,593
12.30833,592
12.31667,592
12.32500,592
12.33333,592
12.34167,592
12.35000,591
12.35833,591
12.36667,591
12.37500,590
12.38333,589
12.39167,589
12.40000,589
12.40833,589
12.41667,589
12.42500,588
12.43333,588
12.44167,587
12.45000,587
12.45833,586
12.46667,585
12.47500,583
12.48333,582
12.49167,581
12.50000,579
12.50833,578
12.51667,576
12.52500,575
12.53333,573
12.54167,571
12.55000,569
12.55833,568
12.56667,566
12.57500,564
12.58333,562
12.59167,559
12.60000,557
12.60833,556
12.61667,554
12.62500,552
12.63333,550
12.64167,548
12.65000,547
12.65833,546
12.66667,546
12.67500,547
12.68333,548
12.69167,549
12.70000,552
12.70833,556
12.71667,561
12.72500,568
12.73333,576
12.74167,586
12.75000,599
12.75833,614
12.76667,631
12.77500,651
12.78333,675
12.79167,701
12.80000,732
12.80833,766
12.81667,804
12.82500,846
12.83333,893
12.84167,944
12.85000,1001
12.85833,1061
12.86667,1127
12.87500,1199
12.88333,1276
12.89167,1358
12.90000,1446
12.90833,1539
12.91667,1639
12.92500,1744
12.93333,1855
12.94167,1972
12.95000,2095
12.95833,2224
12.96667,2359
12.97500,2500
12.98333,2646
12.99167,2799
13.00000,2957
13.00833,3121
13.01667,3291
13.02500,3467
13.03333,3649
13.04167,3837
13.05000,4030
13.05833,4229
13.06667,4433
13.07500,4642
13.08333,4857
13.09167,5077
13.10000,5301
13.10833,5531
13.11667,5766
13.12500,6006
13.13333,6250
13.14167,6500
13.15000,6753
13.15833,7011
13.16667,7273
13.17500,7540
13.18333,7810
13.19167,8085
13.20000,8363
13.20833,8645
13.21667,8930
13.22500,9220
13.23333,9513
13.24167,9810
13.25000,10110
13.25833,10413
13.26667,10720
13.27500,11030
13.28333,11344
13.29167,11661
13.30000,11981
13.30833,12304
13.31667,12630
13.32500,12958
13.33333,13290
13.34167,13625
13.35000,13962
13.35833,14303
13.36667,14646
13.37500,14992
13.38333,15342
13.39167,15694
13.40000,16048
13.40833,16406
13.41667,16766
13.42500,17130
13.43333,17497
13.44167,17867
13.45000,18241
13.45833,18617
13.46667,18995
13.47500,19377
13.48333,19761
13.49167,20149
13.50000,20540
13.50833,20933
13.51667,21331
13.52500,21731
13.53333,22135
13.54167,22541
13.55000,22951
13.55833,23364
13.56667,23780
13.57500,24199
13.58333,24622
13.59167,25048
13.60000,25478
13.60833,25912
13.61667,26349
13.62500,26790
13.63333,27234
13.64167,27681
13.65000,28133
13.65833,28588
13.66667,29046
13.67500,29508
13.68333,29973
13.69167,30443
13.70000,30916
13.70833,31394
13.71667,31875
13.72500,32360
13.73333,32850
13.74167,33343
13.75000,33840
13.75833,34341
13.76667,34847
13.77500,35356
13.78333,35870
13.79167,36388
13.80000,36910
13.80833,37436
13.81667,37967
13.82500,38502
13.83333,39042
13.84167,39587
13.85000,40136
13.85833,40690
13.86667,41249
13.87500,41812
13.88333,42380
13.89167,42952
13.90000,43530
13.90833,44112
13.91667,44700
13.92500,45293
13.93333,45890
13.94167,46493
13.95000,47102
13.95833,47715
13.96667,48333
13.97500,48957
13.98333,49587
13.99167,50222
14.00000,50862
14.00833,51508
14.01667,52160
14.02500,52817
14.03333,53481
14.04167,54150
14.05000,54826
14.05833,55508
14.06667,56196
14.07500,56889
14.08333,57589
14.09167,58295
14.10000,59008
14.10833,59728
14.11667,60454
14.12500,61186
14.13333,61925
14.14167,62672
14.15000,63425
14.15833,64185
14.16667,64952
14.17500,65726
14.18333,66507
14.19167,67295
14.20000,68090
14.20833,68889
14.21667,69691
14.22500,70494
14.23333,71292
14.24167,72082
14.25000,72854
14.25833,73602
14.26667,74314
14.27500,74980
14.28333,75587
14.29167,76122
14.30000,76573
14.30833,76927
14.31667,77173
14.32500,77302
14.33333,77304
14.34167,77173
14.35000,76903
14.35833,76489
14.36667,75928
14.37500,75218
14.38333,74356
14.39167,73340
14.40000,72168
14.40833,70838
14.41667,69349
14.42500,67699
14.43333,65886
14.44167,63914
14.45000,61786
14.45833,59510
14.46667,57095
14.47500,54555
14.48333,51909
14.49167,49178
14.50000,46386
14.50833,43558
14.51667,40722
14.52500,37906
14.53333,35136
14.54167,32436
14.55000,29830
14.55833,27337
14.56667,24973
14.57500,22749
14.58333,20673
14.59167,18751
14.60000,16981
14.60833,15364
14.61667,13894
14.62500,12564
14.63333,11369
14.64167,10297
14.65000,9341
14.65833,8490
14.66667,7734
14.67500,7064
14.68333,6472
14.69167,5948
14.70000,5485
14.70833,5076
14.71667,4715
14.72500,4395
14.73333,4112
14.74167,3861
14.75000,3637
14.75833,3438
14.76667,3259
14.77500,3100
14.78333,2956
14.79167,2826
14.80000,2708
14.80833,2601
14.81667,2503
14.82500,2413
14.83333,2330
14.84167,2254
14.85000,2183
14.85833,2117
14.86667,2055
14.87500,1998
14.88333,1944
14.89167,1893
14.90000,1846
14.90833,1801
14.91667,1758
14.92500,1718
14.93333,1680
14.94167,1643
14.95000,1609
14.95833,1576
14.96667,1545
14.97500,1515
14.98333,1487
14.99167,1460
15.00000,1435
15.00833,1411
15.01667,1388
15.02500,1366
15.03333,1345
15.04167,1325
15.05000,1307
15.05833,1288
15.06667,1271
15.07500,1255
15.08333,1240
15.09167,1226
15.10000,1213
15.10833,1201
15.11667,1189
15.12500,1179
15.13333,1169
15.14167,1160
15.15000,1153
15.15833,1146
15.16667,1142
15.17500,1139
15.18333,1139
15.19167,1141
15.20000,1147
15.20833,1156
15.21667,1170
15.22500,1189
15.23333,1214
15.24167,1247
15.25000,1289
15.25833,1341
15.26667,1406
15.27500,1485
15.28333,1580
15.29167,1694
15.30000,1828
15.30833,1987
15.31667,2173
15.32500,2389
15.33333,2638
15.34167,2923
15.35000,3248
15.35833,3616
15.36667,4031
15.37500,4496
15.38333,5014
15.39167,5588
15.40000,6220
15.40833,6913
15.41667,7669
15.42500,8488
15.43333,9372
15.44167,10321
15.45000,11335
15.45833,12412
15.46667,13551
15.47500,14750
15.48333,16005
15.49167,17313
15.50000,18669
15.50833,20068
15.51667,21504
15.52500,22970
15.53333,24461
15.54167,25969
15.55000,27487
15.55833,29008
15.56667,30524
15.57500,32027
15.58333,33511
15.59167,34968
15.60000,36390
15.60833,37771
15.61667,39106
15.62500,40387
15.63333,41611
15.64167,42772
15.65000,43865
15.65833,44887
15.66667,45834
15.67500,46705
15.68333,47495
15.69167,48204
15.70000,48829
15.70833,49368
15.71667,49823
15.72500,50191
15.73333,50472
15.74167,50666
15.75000,50774
15.75833,50795
15.76667,50731
15.77500,50581
15.78333,50349
15.79167,50034
15.80000,49638
15.80833,49163
15.81667,48612
15.82500,47987
15.83333,47289
15.84167,46523
15.85000,45691
15.85833,44797
15.86667,43845
15.87500,42839
15.88333,41784
15.89167,40684
15.90000,39543
15.90833,38367
15.91667,37161
15.92500,35930
15.93333,34678
15.94167,33413
15.95000,32137
15.95833,30858
15.96667,29579
15.97500,28306
15.98333,27042
15.99167,25793
16.00000,24562
16.00833,23353
16.01667,22169
16.02500,21014
16.03333,19891
16.04167,18802
16.05000,17749
16.05833,16733
16.06667,15756
16.07500,14821
16.08333,13926
16.09167,13073
16.10000,12261
16.10833,11490
16.11667,10760
16.12500,10071
16.13333,9422
16.14167,8811
16.15000,8239
16.15833,7702
16.16667,7201
16.17500,6733
16.18333,6297
16.19167,5893
16.20000,5517
16.20833,5169
16.21667,4848
16.22500,4550
16.23333,4276
16.24167,4024
16.25000,3792
16.25833,3578
16.26667,3381
16.27500,3201
16.28333,3035
16.29167,2883
16.30000,2744
16.30833,2616
16.31667,2500
16.32500,2392
16.33333,2294
16.34167,2203
16.35000,2120
16.35833,2044
16.36667,1974
16.37500,1909
16.38333,1850
16.39167,1795
16.40000,1744
16.40833,1697
16.41667,1653
16.42500,1612
16.43333,1574
16.44167,1539
16.45000,1505
16.45833,1473
16.46667,1443
16.47500,1415
16.48333,1388
16.49167,1362
16.50000,1337
16.50833,1314
16.51667,1291
16.52500,1269
16.53333,1248
16.54167,1227
16.55000,1207
16.55833,1187
16.56667,1168
16.57500,1149
16.58333,1130
16.59167,1112
16.60000,1094
16.60833,1076
16.61667,1059
16.62500,1042
16.63333,1026
16.64167,1010
16.65000,994
16.65833,978
16.66667,963
16.67500,948
16.68333,934
16.69167,920
16.70000,906
16.70833,893
16.71667,881
16.72500,869
16.73333,858
16.74167,847
16.75000,836
16.75833,825
16.76667,815
16.77500,806
16.78333,797
16.79167,789
16.80000,781
16.80833,774
16.81667,767
16.82500,761
16.83333,755
16.84167,749
16.85000,743
16.85833,738
16.86667,733
16.87500,729
16.88333,725
16.89167,721
16.90000,718
16.90833,714
16.91667,712
16.92500,709
16.93333,706
16.94167,704
16.95000,701
16.95833,699
16.96667,697
16.97500,694
16.98333,692
16.99167,690
17.00000,688
17.00833,685
17.01667,684
17.02500,682
17.03333,680
17.04167,679
17.05000,677
17.05833,676
17.06667,674
17.07500,673
17.08333,671
17.09167,670
17.10000,668
17.10833,667
17.11667,665
17.12500,664
17.13333,662
17.14167,661
17.15000,659
17.15833,658
17.16667,656
17.17500,654
17.18333,653
17.19167,651
17.20000,649
17.20833,646
17.21667,644
17.22500,642
17.23333,640
17.24167,637
17.25000,635
17.25833,632
17.26667,630
17.27500,627
17.28333,625
17.29167,623
17.30000,620
17.30833,617
17.31667,615
17.32500,612
17.33333,610
17.34167,607
17.35000,605
17.35833,603
17.36667,601
17.37500,600
17.38333,599
17.39167,598
17.40000,596
17.40833,595
17.41667,595
17.42500,594
17.43333,595
17.44167,595
17.45000,595
17.45833,596
17.46667,597
17.47500,599
17.48333,601
17.49167,603
17.50000,605
17.50833,608
17.51667,612
17.52500,615
17.53333,619
17.54167,623
17.55000,627
17.55833,632
17.56667,636
17.57500,641
17.58333,647
17.59167,652
17.60000,658
17.60833,664
17.61667,669
17.62500,675
17.63333,681
17.64167,687
17.65000,693
17.65833,699
17.66667,705
17.67500,711
17.68333,717
17.69167,722
17.70000,728
17.70833,733
17.71667,739
17.72500,744
17.73333,749
17.74167,754
17.75000,758
17.75833,762
17.76667,766
17.77500,770
17.78333,774
17.79167,777
17.80000,780
17.80833,782
17.81667,784
17.82500,786
17.83333,788
17.84167,790
17.85000,791
17.85833,792
17.86667,792
17.87500,792
17.88333,791
17.89167,790
17.90000,789
17.90833,787
17.91667,784
17.92500,782
17.93333,778
17.94167,775
17.95000,772
17.95833,767
17.96667,763
17.97500,757
17.98333,752
17.99167,747
18.00000,741
18.00833,735
18.01667,729
18.02500,722
18.03333,715
18.04167,709
18.05000,701
18.05833,694
18.06667,686
18.07500,678
18.08333,671
18.09167,663
18.10000,655
18.10833,647
18.11667,639
18.12500,631
18.13333,623
18.14167,615
18.15000,607
18.15833,600
18.16667,592
18.17500,585
18.18333,577
18.19167,570
18.20000,563
18.20833,556
18.21667,550
18.22500,543
18.23333,537
18.24167,531
18.25000,525
18.25833,519
18.26667,514
18.27500,509
18.28333,504
18.29167,500
18.30000,497
18.30833,493
18.31667,489
18.32500,486
18.33333,484
18.34167,481
18.35000,478
18.35833,475
18.36667,474
18.37500,472
18.38333,471
18.39167,470
18.40000,470
18.40833,470
18.41667,470
18.42500,470
18.43333,471
18.44167,472
18.45000,473
18.45833,474
18.46667,476
18.47500,479
18.48333,481
18.49167,483
18.50000,486
18.50833,489
18.51667,492
18.52500,495
18.53333,499
18.54167,503
18.55000,507
18.55833,511
18.56667,515
18.57500,519
18.58333,524
18.59167,528
18.60000,533
18.60833,537
18.61667,541
18.62500,545
18.63333,550
18.64167,555
18.65000,560
18.65833,565
18.66667,570
18.67500,575
18.68333,580
18.69167,585
18.70000,590
18.70833,595
18.71667,600
18.72500,605
18.73333,610
18.74167,615
18.75000,620
18.75833,625
18.76667,630
18.77500,635
18.78333,640
18.79167,644
18.80000,648
18.80833,652
18.81667,657
18.82500,661
18.83333,665
18.84167,669
18.85000,673
18.85833,677
18.86667,682
18.87500,685
18.88333,689
18.89167,693
18.90000,697
18.90833,701
18.91667,704
18.92500,707
18.93333,710
18.94167,713
18.95000,716
18.95833,719
18.96667,722
18.97500,725
18.98333,727
18.99167,730
19.00000,732
19.00833,734
19.01667,736
19.02500,738
19.03333,739
19.04167,741
19.05000,742
19.05833,743
19.06667,744
19.07500,745
19.08333,745
19.09167,745
19.10000,745
19.10833,744
19.11667,744
19.12500,743
19.13333,742
19.14167,740
19.15000,739
19.15833,737
19.16667,736
19.17500,734
19.18333,732
19.19167,729
19.20000,727
19.20833,724
19.21667,721
19.22500,718
19.23333,714
19.24167,711
19.25000,707
19.25833,702
19.26667,698
19.27500,693
19.28333,689
19.29167,684
19.30000,679
19.30833,674
19.31667,668
19.32500,663
19.33333,657
19.34167,652
19.35000,647
19.35833,641
19.36667,635
19.37500,630
19.38333,623
19.39167,617
19.40000,611
19.40833,604
19.41667,597
19.42500,591
19.43333,585
19.44167,578
19.45000,572
19.45833,565
19.46667,559
19.47500,552
19.48333,545
19.49167,538
19.50000,531
19.50833,524
19.51667,518
19.52500,511
19.53333,505
19.54167,499
19.55000,493
19.55833,487
19.56667,481
19.57500,475
19.58333,470
19.59167,464
19.60000,459
19.60833,453
19.61667,448
19.62500,443
19.63333,438
19.64167,433
19.65000,429
19.65833,425
19.66667,421
19.67500,418
19.68333,414
19.69167,411
19.70000,408
19.70833,406
19.71667,404
19.72500,402
19.73333,400
19.74167,398
19.75000,397
19.75833,397
19.76667,397
19.77500,397
19.78333,398
19.79167,399
19.80000,400
19.80833,403
19.81667,405
19.82500,409
19.83333,413
19.84167,417
19.85000,422
19.85833,428
19.86667,434
19.87500,441
19.88333,448
19.89167,456
19.90000,465
19.90833,474
19.91667,483
19.92500,493
19.93333,504
19.94167,516
19.95000,529
19.95833,541
19.96667,555
19.97500,568
19.98333,582
19.99167,596
20.00000,611
20.00833,626
20.01667,641
20.02500,657
20.03333,672
20.04167,688
20.05000,704
20.05833,719
20.06667,734
20.07500,750
20.08333,765
20.09167,780
20.10000,794
20.10833,809
20.11667,823
20.12500,837
20.13333,850
20.14167,864
20.15000,876
20.15833,889
20.16667,900
20.17500,911
20.18333,921
20.19167,931
20.20000,940
20.20833,948
20.21667,956
20.22500,963
20.23333,969
20.24167,975
20.25000,980
20.25833,985
20.26667,989
20.27500,992
20.28333,995
20.29167,997
20.30000,998
20.30833,999
20.31667,999
20.32500,998
20.33333,996
20.34167,994
20.35000,992
20.35833,989
20.36667,985
20.37500,981
20.38333,977
20.39167,972
20.40000,966
20.40833,960
20.41667,954
20.42500,947
20.43333,940
20.44167,933
20.45000,926
20.45833,919
20.46667,912
20.47500,905
20.48333,897
20.49167,889
20.50000,882
20.50833,875
20.51667,868
20.52500,861
20.53333,855
20.54167,849
20.55000,842
20.55833,836
20.56667,831
20.57500,826
20.58333,822
20.59167,818
20.60000,814
20.60833,811
20.61667,808
20.62500,806
20.63333,804
20.64167,802
20.65000,801
20.65833,800
20.66667,800
20.67500,800
20.68333,800
20.69167,800
20.70000,801
20.70833,802
20.71667,803
20.72500,804
20.73333,806
20.74167,807
20.75000,809
20.75833,811
20.76667,812
20.77500,814
20.78333,816
20.79167,818
20.80000,820
20.80833,822
20.81667,823
20.82500,825
20.83333,827
20.84167,828
20.85000,830
20.85833,831
20.86667,832
20.87500,833
20.88333,833
20.89167,834
20.90000,834
20.90833,834
20.91667,834
20.92500,833
20.93333,832
20.94167,832
20.95000,831
20.95833,830
20.96667,829
20.97500,827
20.98333,826
20.99167,824
21.00000,822
21.00833,819
21.01667,817
21.02500,814
21.03333,812
21.04167,809
21.05000,806
21.05833,803
21.06667,800
21.07500,797
21.08333,794
21.09167,790
21.10000,787
21.10833,784
21.11667,781
21.12500,777
21.13333,774
21.14167,771
21.15000,769
21.15833,766
21.16667,763
21.17500,761
21.18333,758
21.19167,756
21.20000,753
21.20833,751
21.21667,750
21.22500,748
21.23333,746
21.24167,745
21.25000,744
21.25833,743
21.26667,742
21.27500,741
21.28333,740
21.29167,739
21.30000,739
21.30833,738
21.31667,738
21.32500,737
21.33333,737
21.34167,738
21.35000,738
21.35833,738
21.36667,739
21.37500,740
21.38333,741
21.39167,742
21.40000,743
21.40833,744
21.41667,746
21.42500,747
21.43333,750
21.44167,753
21.45000,756
21.45833,759
21.46667,763
21.47500,767
21.48333,771
21.49167,775
21.50000,780
21.50833,785
21.51667,791
21.52500,797
21.53333,804
21.54167,810
21.55000,818
21.55833,825
21.56667,832
21.57500,840
21.58333,848
21.59167,856
21.60000,864
21.60833,871
21.61667,880
21.62500,888
21.63333,896
21.64167,903
21.65000,911
21.65833,918
21.66667,925
21.67500,932
21.68333,938
21.69167,945
21.70000,951
21.70833,956
21.71667,961
21.72500,965
21.73333,969
21.74167,973
21.75000,976
21.75833,978
21.76667,981
21.77500,983
21.78333,984
21.79167,985
21.80000,985
21.80833,985
21.81667,985
21.82500,984
21.83333,983
21.84167,982
21.85000,980
21.85833,978
21.86667,976
21.87500,972
21.88333,969
21.89167,966
21.90000,962
21.90833,958
21.91667,954
21.92500,949
21.93333,945
21.94167,939
21.95000,933
21.95833,927
21.96667,921
21.97500,914
21.98333,907
21.99167,899
22.00000,891
22.00833,882
22.01667,874
22.02500,865
22.03333,855
22.04167,845
22.05000,834
22.05833,822
22.06667,810
22.07500,798
22.08333,786
22.09167,773
22.10000,760
22.10833,747
22.11667,733
22.12500,719
22.13333,705
22.14167,690
22.15000,676
22.15833,661
22.16667,646
22.17500,632
22.18333,617
22.19167,602
22.20000,588
22.20833,573
22.21667,559
22.22500,545
22.23333,531
22.24167,517
22.25000,503
22.25833,489
22.26667,477
22.27500,464
22.28333,451
22.29167,439
22.30000,428
22.30833,416
22.31667,406
22.32500,396
22.33333,386
22.34167,376
22.35000,367
22.35833,359
22.36667,351
22.37500,344
22.38333,337
22.39167,330
22.40000,324
22.40833,318
22.41667,312
22.42500,307
22.43333,302
22.44167,297
22.45000,293
22.45833,289
22.46667,285
22.47500,282
22.48333,279
22.49167,276
22.50000,273
22.50833,271
22.51667,269
22.52500,267
22.53333,265
22.54167,264
22.55000,262
22.55833,262
22.56667,261
22.57500,260
22.58333,260
22.59167,259
22.60000,259
22.60833,259
22.61667,259
22.62500,260
22.63333,260
22.64167,261
22.65000,261
22.65833,262
22.66667,262
22.67500,263
22.68333,264
22.69167,266
22.70000,267
22.70833,268
22.71667,270
22.72500,271
22.73333,272
22.74167,274
22.75000,276
22.75833,277
22.76667,279
22.77500,280
22.78333,282
22.79167,283
22.80000,285
22.80833,288
22.81667,290
22.82500,292
22.83333,294
22.84167,296
22.85000,298
22.85833,300
22.86667,302
22.87500,304
22.88333,305
22.89167,307
22.90000,309
22.90833,311
22.91667,313
22.92500,315
22.93333,317
22.94167,319
22.95000,321
22.95833,323
22.96667,325
22.97500,326
22.98333,328
22.99167,329
23.00000,331
23.00833,332
23.01667,333
23.02500,335
23.03333,336
23.04167,338
23.05000,339
23.05833,341
23.06667,342
23.07500,344
23.08333,345
23.09167,346
23.10000,347
23.10833,348
23.11667,349
23.12500,350
23.13333,351
23.14167,351
23.15000,352
23.15833,353
23.16667,353
23.17500,354
23.18333,354
23.19167,355
23.20000,355
23.20833,355
23.21667,355
23.22500,355
23.23333,355
23.24167,355
23.25000,355
23.25833,355
23.26667,355
23.27500,355
23.28333,355
23.29167,355
23.30000,355
23.30833,354
23.31667,354
23.32500,353
23.33333,353
23.34167,352
23.35000,352
23.35833,352
23.36667,352
23.37500,351
23.38333,351
23.39167,351
23.40000,350
23.40833,350
23.41667,349
23.42500,349
23.43333,349
23.44167,349
23.45000,349
23.45833,348
23.46667,348
23.47500,348
23.48333,349
23.49167,349
23.50000,348
23.50833,348
23.51667,348
23.52500,348
23.53333,348
23.54167,349
23.55000,349
23.55833,349
23.56667,349
23.57500,349
23.58333,348
23.59167,348
23.60000,348
23.60833,348
23.61667,349
23.62500,349
23.63333,349
23.64167,349
23.65000,349
23.65833,349
23.66667,349
23.67500,349
23.68333,349
23.69167,349
23.70000,348
23.70833,348
23.71667,348
23.72500,348
23.73333,348
23.74167,348
23.75000,348
23.75833,347
23.76667,347
23.77500,347
23.78333,347
23.79167,347
23.80000,346
23.80833,346
23.81667,345
23.82500,345
23.83333,344
23.84167,344
23.85000,343
23.85833,343
23.86667,342
23.87500,342
23.88333,341
23.89167,341
23.90000,340
23.90833,340
23.91667,339
23.92500,338
23.93333,338
23.94167,337
23.95000,337
23.95833,336
23.96667,335
23.97500,334
23.98333,334
23.99167,334
24.00000,333
24.00833,332
24.01667,332
24.02500,331
24.03333,330
24.04167,330
24.05000,329
24.05833,328
24.06667,327
24.07500,326
24.08333,325
24.09167,324
24.10000,324
24.10833,323
24.11667,323
24.12500,323
24.13333,322
24.14167,322
24.15000,322
24.15833,321
24.16667,321
24.17500,320
24.18333,319
24.19167,319
24.20000,318
24.20833,318
24.21667,317
24.22500,316
24.23333,316
24.24167,316
24.25000,316
24.25833,316
24.26667,315
24.27500,315
24.28333,315
24.29167,316
24.30000,316
24.30833,317
24.31667,319
24.32500,320
24.33333,321
24.34167,323
24.35000,325
24.35833,327
24.36667,330
24.37500,333
24.38333,337
24.39167,341
24.40000,345
24.40833,350
24.41667,356
24.42500,363
24.43333,371
24.44167,380
24.45000,390
24.45833,401
24.46667,414
24.47500,427
24.48333,441
24.49167,458
24.50000,476
24.50833,495
24.51667,517
24.52500,540
24.53333,566
24.54167,593
24.55000,623
24.55833,654
24.56667,688
24.57500,724
24.58333,762
24.59167,803
24.60000,846
24.60833,891
24.61667,939
24.62500,990
24.63333,1042
24.64167,1097
24.65000,1154
24.65833,1212
24.66667,1273
24.67500,1336
24.68333,1400
24.69167,1467
24.70000,1534
24.70833,1603
24.71667,1673
24.72500,1743
24.73333,1815
24.74167,1887
24.75000,1960
24.75833,2033
24.76667,2106
24.77500,2179
24.78333,2252
24.79167,2324
24.80000,2395
24.80833,2465
24.81667,2535
24.82500,2603
24.83333,2670
24.84167,2736
24.85000,2801
24.85833,2864
24.86667,2925
24.87500,2984
24.88333,3042
24.89167,3097
24.90000,3151
24.90833,3202
24.91667,3251
24.92500,3298
24.93333,3343
24.94167,3385
24.95000,3425
24.95833,3463
24.96667,3499
24.97500,3533
24.98333,3564
24.99167,3593
25.00000,3620
25.00833,3644
25.01667,3666
25.02500,3686
25.03333,3703
25.04167,3718
25.05000,3730
25.05833,3739
25.06667,3746
25.07500,3750
25.08333,3751
25.09167,3750
25.10000,3746
25.10833,3739
25.11667,3729
25.12500,3717
25.13333,3701
25.14167,3682
25.15000,3660
25.15833,3635
25.16667,3608
25.17500,3577
25.18333,3544
25.19167,3508
25.20000,3468
25.20833,3426
25.21667,3382
25.22500,3334
25.23333,3284
25.24167,3232
25.25000,3177
25.25833,3120
25.26667,3060
25.27500,2999
25.28333,2937
25.29167,2872
25.30000,2807
25.30833,2740
25.31667,2672
25.32500,2603
25.33333,2533
25.34167,2463
25.35000,2393
25.35833,2322
25.36667,2251
25.37500,2180
25.38333,2110
25.39167,2041
25.40000,1972
25.40833,1904
25.41667,1837
25.42500,1771
25.43333,1706
25.44167,1643
25.45000,1581
25.45833,1520
25.46667,1461
25.47500,1404
25.48333,1348
25.49167,1295
25.50000,1243
25.50833,1193
25.51667,1145
25.52500,1098
25.53333,1054
25.54167,1011
25.55000,970
25.55833,931
25.56667,893
25.57500,858
25.58333,824
25.59167,792
25.60000,762
25.60833,733
25.61667,706
25.62500,680
25.63333,656
25.64167,632
25.65000,610
25.65833,590
25.66667,570
25.67500,552
25.68333,534
25.69167,518
25.70000,503
25.70833,489
25.71667,475
25.72500,463
25.73333,451
25.74167,440
25.75000,429
25.75833,420
25.76667,410
25.77500,401
25.78333,393
25.79167,384
25.80000,376
25.80833,369
25.81667,361
25.82500,355
25.83333,348
25.84167,342
25.85000,336
25.85833,330
25.86667,325
25.87500,319
25.88333,314
25.89167,309
25.90000,304
25.90833,299
25.91667,294
25.92500,289
25.93333,285
25.94167,280
25.95000,276
25.95833,272
25.96667,267
25.97500,262
25.98333,258
25.99167,253
26.00000,249
26.00833,244
26.01667,240
26.02500,235
26.03333,231
26.04167,227
26.05000,222
26.05833,218
26.06667,214
26.07500,210
26.08333,206
26.09167,201
26.10000,197
26.10833,193
26.11667,189
26.12500,186
26.13333,182
26.14167,178
26.15000,175
26.15833,171
26.16667,167
26.17500,164
26.18333,160
26.19167,157
26.20000,154
26.20833,151
26.21667,148
26.22500,146
26.23333,143
26.24167,140
26.25000,137
26.25833,134
26.26667,131
26.27500,129
26.28333,126
26.29167,124
26.30000,122
26.30833,120
26.31667,118
26.32500,116
26.33333,114
26.34167,113
26.35000,111
26.35833,110
26.36667,109
26.37500,107
26.38333,106
26.39167,105
26.40000,104
26.40833,103
26.41667,101
26.42500,100
26.43333,100
26.44167,99
26.45000,98
26.45833,98
26.46667,97
26.47500,96
26.48333,96
26.49167,95
26.50000,95
26.50833,94
26.51667,93
26.52500,93
26.53333,93
26.54167,93
26.55000,93
26.55833,93
26.56667,93
26.57500,93
26.58333,93
26.59167,92
26.60000,92
26.60833,92
26.61667,92
26.62500,92
26.63333,92
26.64167,92
26.65000,92
26.65833,93
26.66667,93
26.67500,92
26.68333,92
26.69167,92
26.70000,92
26.70833,92
26.71667,91
26.72500,92
26.73333,92
26.74167,92
26.75000,92
26.75833,92
26.76667,92
26.77500,92
26.78333,92
26.79167,92
26.80000,92
26.80833,92
26.81667,92
26.82500,92
26.83333,92
26.84167,92
26.85000,91
26.85833,91
26.86667,91
26.87500,91
26.88333,91
26.89167,91
26.90000,91
26.90833,92
26.91667,92
26.92500,93
26.93333,93
26.94167,93
26.95000,93
26.95833,93
26.96667,93
26.97500,93
26.98333,93
26.99167,93
27.00000,93
27.00833,93
27.01667,93
27.02500,93
27.03333,94
27.04167,94
27.05000,94
27.05833,94
27.06667,93
27.07500,93
27.08333,93
27.09167,93
27.10000,93
27.10833,93
27.11667,93
27.12500,93
27.13333,94
27.14167,94
27.15000,94
27.15833,94
27.16667,94
27.17500,94
27.18333,94
27.19167,94
27.20000,94
27.20833,94
27.21667,94
27.22500,94
27.23333,94
27.24167,94
27.25000,94
27.25833,94
27.26667,94
27.27500,94
27.28333,94
27.29167,94
27.30000,93
27.30833,93
27.31667,93
27.32500,93
27.33333,93
27.34167,93
27.35000,92
27.35833,92
27.36667,92
27.37500,92
27.38333,91
27.39167,91
27.40000,90
27.40833,90
27.41667,90
27.42500,89
27.43333,89
27.44167,89
27.45000,89
27.45833,89
27.46667,89
27.47500,89
27.48333,88
27.49167,88
27.50000,88
27.50833,88
27.51667,87
27.52500,87
27.53333,87
27.54167,86
27.55000,86
27.55833,85
27.56667,84
27.57500,84
27.58333,84
27.59167,84
27.60000,83
27.60833,83
27.61667,82
27.62500,81
27.63333,81
27.64167,80
27.65000,80
27.65833,79
27.66667,79
27.67500,78
27.68333,78
27.69167,78
27.70000,77
27.70833,77
27.71667,76
27.72500,75
27.73333,75
27.74167,74
27.75000,73
27.75833,72
27.76667,72
27.77500,72
27.78333,71
27.79167,70
27.80000,70
27.80833,70
27.81667,69
27.82500,69
27.83333,68
27.84167,68
27.85000,67
27.85833,67
27.86667,67
27.87500,66
27.88333,66
27.89167,65
27.90000,65
27.90833,64
27.91667,64
27.92500,63
27.93333,63
27.94167,63
27.95000,63
27.95833,63
27.96667,63
27.97500,62
27.98333,62
27.99167,62
28.00000,62
28.00833,62
28.01667,62
28.02500,62
28.03333,62
28.04167,62
28.05000,62
28.05833,62
28.06667,62
28.07500,62
28.08333,62
28.09167,62
28.10000,62
28.10833,62
28.11667,62
28.12500,63
28.13333,63
28.14167,64
28.15000,64
28.15833,64
28.16667,65
28.17500,65
28.18333,65
28.19167,65
28.20000,65
28.20833,66
28.21667,66
28.22500,66
28.23333,67
28.24167,67
28.25000,67
28.25833,68
28.26667,68
28.27500,68
28.28333,69
28.29167,70
28.30000,70
28.30833,70
28.31667,71
28.32500,71
28.33333,72
28.34167,72
28.35000,73
28.35833,73
28.36667,74
28.37500,75
28.38333,76
28.39167,77
28.40000,79
28.40833,81
28.41667,83
28.42500,85
28.43333,87
28.44167,90
28.45000,93
28.45833,96
28.46667,100
28.47500,104
28.48333,109
28.49167,114
28.50000,120
28.50833,126
28.51667,133
28.52500,141
28.53333,149
28.54167,158
28.55000,167
28.55833,178
28.56667,190
28.57500,202
28.58333,216
28.59167,230
28.60000,245
28.60833,261
28.61667,279
28.62500,298
28.63333,319
28.64167,341
28.65000,364
28.65833,389
28.66667,415
28.67500,442
28.68333,471
28.69167,501
28.70000,533
28.70833,566
28.71667,600
28.72500,636
28.73333,674
28.74167,712
28.75000,753
28.75833,794
28.76667,837
28.77500,881
28.78333,926
28.79167,972
28.80000,1020
28.80833,1069
28.81667,1118
28.82500,1168
28.83333,1220
28.84167,1272
28.85000,1324
28.85833,1377
28.86667,1431
28.87500,1484
28.88333,1538
28.89167,1592
28.90000,1645
28.90833,1699
28.91667,1752
28.92500,1805
28.93333,1857
28.94167,1908
28.95000,1959
28.95833,2009
28.96667,2058
28.97500,2106
28.98333,2153
28.99167,2200
29.00000,2244
29.00833,2287
29.01667,2329
29.02500,2370
29.03333,2409
29.04167,2447
29.05000,2483
29.05833,2518
29.06667,2551
29.07500,2582
29.08333,2611
29.09167,2639
29.10000,2665
29.10833,2690
29.11667,2713
29.12500,2735
29.13333,2755
29.14167,2774
29.15000,2791
29.15833,2807
29.16667,2820
29.17500,2832
29.18333,2843
29.19167,2852
29.20000,2860
29.20833,2866
29.21667,2871
29.22500,2874
29.23333,2875
29.24167,2876
29.25000,2875
29.25833,2872
29.26667,2868
29.27500,2863
29.28333,2856
29.29167,2848
29.30000,2839
29.30833,2829
29.31667,2817
29.32500,2803
29.33333,2788
29.34167,2771
29.35000,2753
29.35833,2733
29.36667,2712
29.37500,2690
29.38333,2667
29.39167,2641
29.40000,2614
29.40833,2586
29.41667,2556
29.42500,2525
29.43333,2492
29.44167,2458
29.45000,2423
29.45833,2386
29.46667,2348
29.47500,2310
29.48333,2270
29.49167,2229
29.50000,2187
29.50833,2144
29.51667,2101
29.52500,2056
29.53333,2011
29.54167,1966
29.55000,1919
29.55833,1872
29.56667,1824
29.57500,1776
29.58333,1728
29.59167,1679
29.60000,1631
29.60833,1583
29.61667,1534
29.62500,1486
29.63333,1438
29.64167,1391
29.65000,1345
29.65833,1298
29.66667,1253
29.67500,1208
29.68333,1163
29.69167,1120
29.70000,1076
29.70833,1034
29.71667,992
29.72500,952
29.73333,913
29.74167,875
29.75000,837
29.75833,801
29.76667,766
29.77500,732
29.78333,699
29.79167,667
29.80000,636
29.80833,606
29.81667,577
29.82500,549
29.83333,522
29.84167,497
29.85000,472
29.85833,449
29.86667,426
29.87500,405
29.88333,385
29.89167,365
29.90000,346
29.90833,328
29.91667,311
29.92500,294
29.93333,279
29.94167,263
29.95000,249
29.95833,235
29.96667,222
29.97500,210
29.98333,198
29.99167,187
30.00000,177
30.00833,167
30.01667,157
30.02500,148
30.03333,140
30.04167,131
30.05000,122
30.05833,114
30.06667,107
30.07500,99
30.08333,92
30.09167,84
30.10000,77
30.10833,70
30.11667,64
30.12500,57
30.13333,51
30.14167,45
30.15000,39
30.15833,33
30.16667,27
30.17500,21
30.18333,15
30.19167,9
30.20000,3
30.20833,-3
30.21667,-9
30.22500,-15
30.23333,-21
30.24167,-26
30.25000,-32
30.25833,-38
30.26667,-43
30.27500,-49
30.28333,-54
30.29167,-60
30.30000,-65
30.30833,-71
30.31667,-76
30.32500,-82
30.33333,-87
30.34167,-93
30.35000,-98
30.35833,-104
30.36667,-109
30.37500,-115
30.38333,-120
30.39167,-125
30.40000,-131
30.40833,-136
30.41667,-141
30.42500,-145
30.43333,-150
30.44167,-154
30.45000,-159
30.45833,-163
30.46667,-167
30.47500,-171
30.48333,-175
30.49167,-179
30.50000,-182
30.50833,-186
30.51667,-189
30.52500,-192
30.53333,-196
30.54167,-199
30.55000,-202
30.55833,-204
30.56667,-206
30.57500,-208
30.58333,-210
30.59167,-212
30.60000,-213
30.60833,-215
30.61667,-216
30.62500,-217
30.63333,-218
30.64167,-218
30.65000,-218
30.65833,-217
30.66667,-217
30.67500,-217
30.68333,-216
30.69167,-215
30.70000,-214
30.70833,-212
30.71667,-211
30.72500,-209
30.73333,-207
30.74167,-204
30.75000,-201
30.75833,-198
30.76667,-195
30.77500,-192
30.78333,-189
30.79167,-185
30.80000,-181
30.80833,-177
30.81667,-173
30.82500,-168
30.83333,-163
30.84167,-158
30.85000,-153
30.85833,-148
30.86667,-143
30.87500,-137
30.88333,-132
30.89167,-126
30.90000,-120
30.90833,-115
30.91667,-109
30.92500,-102
30.93333,-96
30.94167,-90
30.95000,-84
30.95833,-78
30.96667,-72
30.97500,-66
30.98333,-60
30.99167,-54
31.00000,-48
31.00833,-41
31.01667,-35
31.02500,-28
31.03333,-22
31.04167,-16
31.05000,-9
31.05833,-3
31.06667,2
31.07500,8
31.08333,14
31.09167,19
31.10000,25
31.10833,30
31.11667,35
31.12500,40
31.13333,45
31.14167,51
31.15000,55
31.15833,60
31.16667,64
31.17500,69
31.18333,73
31.19167,78
31.20000,82
31.20833,86
31.21667,89
31.22500,93
31.23333,96
31.24167,100
31.25000,102
31.25833,105
31.26667,107
31.27500,109
31.28333,111
31.29167,113
31.30000,115
31.30833,117
31.31667,119
31.32500,121
31.33333,122
31.34167,123
31.35000,125
31.35833,126
31.36667,127
31.37500,128
31.38333,129
31.39167,130
31.40000,131
31.40833,131
31.41667,131
31.42500,131
31.43333,132
31.44167,132
31.45000,132
31.45833,131
31.46667,131
31.47500,130
31.48333,130
31.49167,129
31.50000,129
31.50833,129
31.51667,129
31.52500,128
31.53333,128
31.54167,128
31.55000,127
31.55833,126
31.56667,126
31.57500,126
31.58333,126
31.59167,125
31.60000,124
31.60833,124
31.61667,123
31.62500,123
31.63333,123
31.64167,123
31.65000,123
31.65833,123
31.66667,124
31.67500,124
31.68333,125
31.69167,126
31.70000,126
31.70833,127
31.71667,127
31.72500,128
31.73333,130
31.74167,131
31.75000,133
31.75833,135
31.76667,137
31.77500,140
31.78333,143
31.79167,145
31.80000,147
31.80833,150
31.81667,153
31.82500,156
31.83333,160
31.84167,163
31.85000,167
31.85833,171
31.86667,176
31.87500,180
31.88333,185
31.89167,190
31.90000,195
31.90833,201
31.91667,206
31.92500,212
31.93333,219
31.94167,225
31.95000,232
31.95833,238
31.96667,245
31.97500,251
31.98333,257
31.99167,264
32.00000,271
32.00833,278
32.01667,285
32.02500,292
32.03333,300
32.04167,307
32.05000,314
32.05833,321
32.06667,327
32.07500,334
32.08333,341
32.09167,348
32.10000,355
32.10833,362
32.11667,369
32.12500,376
32.13333,382
32.14167,389
32.15000,396
32.15833,403
32.16667,409
32.17500,415
32.18333,421
32.19167,427
32.20000,433
32.20833,439
32.21667,445
32.22500,450
32.23333,456
32.24167,461
32.25000,467
32.25833,472
32.26667,477
32.27500,482
32.28333,486
32.29167,491
32.30000,495
32.30833,499
32.31667,503
32.32500,506
32.33333,510
32.34167,514
32.35000,517
32.35833,521
32.36667,524
32.37500,526
32.38333,529
32.39167,532
32.40000,535
32.40833,537
32.41667,540
32.42500,542
32.43333,544
32.44167,546
32.45000,547
32.45833,548
32.46667,549
32.47500,550
32.48333,551
32.49167,551
32.50000,552
32.50833,553
32.51667,553
32.52500,553
32.53333,552
32.54167,551
32.55000,551
32.55833,550
32.56667,549
32.57500,548
32.58333,547
32.59167,545
32.60000,543
32.60833,541
32.61667,538
32.62500,536
32.63333,533
32.64167,530
32.65000,527
32.65833,524
32.66667,521
32.67500,517
32.68333,514
32.69167,511
32.70000,507
32.70833,504
32.71667,500
32.72500,495
32.73333,491
32.74167,487
32.75000,483
32.75833,478
32.76667,474
32.77500,469
32.78333,465
32.79167,461
32.80000,457
32.80833,453
32.81667,449
32.82500,445
32.83333,442
32.84167,438
32.85000,433
32.85833,429
32.86667,425
32.87500,421
32.88333,418
32.89167,414
32.90000,411
32.90833,408
32.91667,405
32.92500,401
32.93333,398
32.94167,395
32.95000,393
32.95833,390
32.96667,388
32.97500,386
32.98333,384
32.99167,382
33.00000,379
33.00833,377
33.01667,376
33.02500,374
33.03333,372
33.04167,371
33.05000,369
33.05833,367
33.06667,366
33.07500,365
33.08333,364
33.09167,363
33.10000,361
33.10833,360
33.11667,359
33.12500,358
33.13333,357
33.14167,356
33.15000,355
33.15833,354
33.16667,354
33.17500,353
33.18333,352
33.19167,351
33.20000,351
33.20833,350
33.21667,349
33.22500,348
33.23333,347
33.24167,346
33.25000,345
33.25833,344
33.26667,342
33.27500,341
33.28333,339
33.29167,338
33.30000,337
33.30833,335
33.31667,334
33.32500,333
33.33333,331
33.34167,329
33.35000,328
33.35833,327
33.36667,325
33.37500,323
33.38333,321
33.39167,319
33.40000,316
33.40833,314
33.41667,312
33.42500,309
33.43333,307
33.44167,304
33.45000,301
33.45833,299
33.46667,296
33.47500,293
33.48333,290
33.49167,288
33.50000,285
33.50833,282
33.51667,279
33.52500,276
33.53333,273
33.54167,270
33.55000,267
33.55833,263
33.56667,260
33.57500,256
33.58333,253
33.59167,250
33.60000,247
33.60833,243
33.61667,240
33.62500,236
33.63333,233
33.64167,229
33.65000,225
33.65833,221
33.66667,217
33.67500,214
33.68333,210
33.69167,206
33.70000,202
33.70833,199
33.71667,195
33.72500,191
33.73333,188
33.74167,184
33.75000,180
33.75833,176
33.76667,172
33.77500,168
33.78333,164
33.79167,161
33.80000,157
33.80833,153
33.81667,150
33.82500,146
33.83333,142
33.84167,139
33.85000,135
33.85833,131
33.86667,128
33.87500,124
33.88333,120
33.89167,117
33.90000,114
33.90833,110
33.91667,107
33.92500,104
33.93333,101
33.94167,98
33.95000,95
33.95833,92
33.96667,89
33.97500,87
33.98333,84
33.99167,82
34.00000,79
34.00833,77
34.01667,74
34.02500,72
34.03333,69
34.04167,67
34.05000,65
34.05833,63
34.06667,61
34.07500,59
34.08333,56
34.09167,54
34.10000,52
34.10833,51
34.11667,49
34.12500,48
34.13333,46
34.14167,45
34.15000,44
34.15833,42
34.16667,41
34.17500,39
34.18333,38
34.19167,37
34.20000,36
34.20833,34
34.21667,33
34.22500,32
34.23333,31
34.24167,31
34.25000,30
34.25833,29
34.26667,28
34.27500,27
34.28333,26
34.29167,26
34.30000,25
34.30833,24
34.31667,24
34.32500,23
34.33333,22
34.34167,22
34.35000,21
34.35833,20
34.36667,20
34.37500,19
34.38333,19
34.39167,18
34.40000,18
34.40833,18
34.41667,17
34.42500,17
34.43333,16
34.44167,16
34.45000,16
34.45833,15
34.46667,15
34.47500,15
34.48333,14
34.49167,14
34.50000,13
34.50833,13
34.51667,12
34.52500,12
34.53333,12
34.54167,12
34.55000,11
34.55833,11
34.56667,11
34.57500,11
34.58333,10
34.59167,9
34.60000,9
34.60833,8
34.61667,8
34.62500,7
34.63333,7
34.64167,7
34.65000,7
34.65833,7
34.66667,7
34.67500,7
34.68333,6
34.69167,6
34.70000,6
34.70833,5
34.71667,5
34.72500,5
34.73333,5
34.74167,4
34.75000,4
34.75833,4
34.76667,3
34.77500,3
34.78333,3
34.79167,3
34.80000,3
34.80833,3
34.81667,2
34.82500,2
34.83333,2
34.84167,1
34.85000,1
34.85833,1
34.86667,1
34.87500,0
34.88333,0
34.89167,0
34.90000,0
34.90833,-0
34.91667,-0
34.92500,-1
34.93333,-1
34.94167,-1
34.95000,-2
34.95833,-2
34.96667,-2
34.97500,-2
34.98333,-2
34.99167,-1
35.00000,-1
35.00833,-1
35.01667,-1
35.02500,-1
35.03333,-1
35.04167,-1
35.05000,-1
35.05833,-2
35.06667,-2
35.07500,-2
35.08333,-2
35.09167,-2
35.10000,-1
35.10833,-1
35.11667,-1
35.12500,-1
35.13333,-1
35.14167,-1
35.15000,-1
35.15833,-0
35.16667,0
35.17500,1
35.18333,1
35.19167,2
35.20000,2
35.20833,2
35.21667,2
35.22500,2
35.23333,3
35.24167,3
35.25000,3
35.25833,4
35.26667,4
35.27500,5
35.28333,6
35.29167,6
35.30000,7
35.30833,7
35.31667,7
35.32500,8
35.33333,8
35.34167,8
35.35000,9
35.35833,10
35.36667,10
35.37500,11
35.38333,12
35.39167,13
35.40000,14
35.40833,15
35.41667,15
35.42500,16
35.43333,17
35.44167,17
35.45000,18
35.45833,19
35.46667,20
35.47500,21
35.48333,22
35.49167,23
35.50000,24
35.50833,24
35.51667,25
35.52500,26
35.53333,27
35.54167,28
35.55000,29
35.55833,29
35.56667,30
35.57500,31
35.58333,31
35.59167,32
35.60000,33
35.60833,33
35.61667,34
35.62500,35
35.63333,36
35.64167,36
35.65000,37
35.65833,38
35.66667,39
35.67500,39
35.68333,40
35.69167,41
35.70000,41
35.70833,42
35.71667,43
35.72500,43
35.73333,44
35.74167,44
35.75000,45
35.75833,45
35.76667,46
35.77500,46
35.78333,47
35.79167,47
35.80000,48
35.80833,48
35.81667,49
35.82500,49
35.83333,49
35.84167,50
35.85000,50
35.85833,50
35.86667,51
35.87500,51
35.88333,52
35.89167,52
35.90000,53
35.90833,53
35.91667,53
35.92500,54
35.93333,54
35.94167,55
35.95000,55
35.95833,55
35.96667,55
35.97500,55
35.98333,55
35.99167,55
36.00000,55
36.00833,55
36.01667,55
36.02500,55
36.03333,55
36.04167,55
36.05000,55
36.05833,56
36.06667,56
36.07500,56
36.08333,56
36.09167,56
36.10000,56
36.10833,56
36.11667,56
36.12500,55
36.13333,55
36.14167,55
36.15000,55
36.15833,56
36.16667,56
36.17500,55
36.18333,55
36.19167,55
36.20000,55
36.20833,55
36.21667,55
36.22500,55
36.23333,54
36.24167,54
36.25000,53
36.25833,53
36.26667,53
36.27500,53
36.28333,52
36.29167,52
36.30000,51
36.30833,51
36.31667,51
36.32500,50
36.33333,50
36.34167,50
36.35000,49
36.35833,48
36.36667,48
36.37500,48
36.38333,47
36.39167,47
36.40000,47
36.40833,46
36.41667,46
36.42500,46
36.43333,45
36.44167,45
36.45000,45
36.45833,44
36.46667,44
36.47500,43
36.48333,42
36.49167,42
36.50000,41
36.50833,41
36.51667,41
36.52500,41
36.53333,40
36.54167,40
36.55000,40
36.55833,40
36.56667,39
36.57500,39
36.58333,39
36.59167,39
36.60000,38
36.60833,38
36.61667,38
36.62500,38
36.63333,38
36.64167,38
36.65000,38
36.65833,38
36.66667,38
36.67500,38
36.68333,38
36.69167,38
36.70000,38
36.70833,38
36.71667,38
36.72500,38
36.73333,38
36.74167,38
36.75000,39
36.75833,39
36.76667,38
36.77500,38
36.78333,38
36.79167,38
36.80000,38
36.80833,39
36.81667,39
36.82500,39
36.83333,39
36.84167,39
36.85000,40
36.85833,40
36.86667,40
36.87500,40
36.88333,41
36.89167,41
36.90000,41
36.90833,42
36.91667,43
36.92500,43
36.93333,43
36.94167,44
36.95000,44
36.95833,44
36.96667,45
36.97500,45
36.98333,46
36.99167,46
37.00000,47
37.00833,47
37.01667,48
37.02500,49
37.03333,49
37.04167,50
37.05000,50
37.05833,51
37.06667,52
37.07500,52
37.08333,53
37.09167,54
37.10000,55
37.10833,55
37.11667,56
37.12500,56
37.13333,57
37.14167,58
37.15000,58
37.15833,59
37.16667,60
37.17500,61
37.18333,61
37.19167,62
37.20000,63
37.20833,63
37.21667,64
37.22500,65
37.23333,66
37.24167,67
37.25000,68
37.25833,68
37.26667,69
37.27500,70
37.28333,71
37.29167,72
37.30000,73
37.30833,73
37.31667,74
37.32500,75
37.33333,76
37.34167,78
37.35000,79
37.35833,80
37.36667,81
37.37500,81
37.38333,82
37.39167,83
37.40000,84
37.40833,85
37.41667,85
37.42500,87
37.43333,88
37.44167,89
37.45000,90
37.45833,91
37.46667,92
37.47500,93
37.48333,94
37.49167,95
37.50000,96
37.50833,97
37.51667,98
37.52500,99
37.53333,100
37.54167,100
37.55000,101
37.55833,101
37.56667,102
37.57500,103
37.58333,104
37.59167,105
37.60000,106
37.60833,107
37.61667,108
37.62500,109
37.63333,110
37.64167,110
37.65000,111
37.65833,112
37.66667,113
37.67500,113
37.68333,114
37.69167,115
37.70000,115
37.70833,115
37.71667,116
37.72500,116
37.73333,117
37.74167,117
37.75000,118
37.75833,118
37.76667,118
37.77500,118
37.78333,118
37.79167,118
37.80000,118
37.80833,118
37.81667,118
37.82500,119
37.83333,119
37.84167,120
37.85000,120
37.85833,121
37.86667,121
37.87500,121
37.88333,122
37.89167,122
37.90000,122
37.90833,121
37.91667,121
37.92500,121
37.93333,121
37.94167,121
37.95000,120
37.95833,120
37.96667,119
37.97500,119
37.98333,118
37.99167,118
38.00000,118
38.00833,117
38.01667,117
38.02500,116
38.03333,116
38.04167,115
38.05000,114
38.05833,114
38.06667,113
38.07500,113
38.08333,112
38.09167,111
38.10000,110
38.10833,109
38.11667,108
38.12500,107
38.13333,106
38.14167,105
38.15000,104
38.15833,103
38.16667,103
38.17500,102
38.18333,101
38.19167,100
38.20000,99
38.20833,98
38.21667,97
38.22500,97
38.23333,95
38.24167,94
38.25000,93
38.25833,92
38.26667,91
38.27500,90
38.28333,89
38.29167,87
38.30000,86
38.30833,85
38.31667,83
38.32500,82
38.33333,81
38.34167,80
38.35000,79
38.35833,77
38.36667,76
38.37500,74
38.38333,73
38.39167,71
38.40000,70
38.40833,69
38.41667,67
38.42500,66
38.43333,64
38.44167,63
38.45000,62
38.45833,61
38.46667,59
38.47500,58
38.48333,57
38.49167,55
38.50000,54
38.50833,52
38.51667,51
38.52500,50
38.53333,49
38.54167,47
38.55000,46
38.55833,44
38.56667,43
38.57500,41
38.58333,40
38.59167,39
38.60000,38
38.60833,37
38.61667,35
38.62500,34
38.63333,33
38.64167,31
38.65000,30
38.65833,29
38.66667,28
38.67500,27
38.68333,26
38.69167,25
38.70000,23
38.70833,22
38.71667,21
38.72500,20
38.73333,19
38.74167,18
38.75000,17
38.75833,16
38.76667,15
38.77500,14
38.78333,13
38.79167,12
38.80000,11
38.80833,10
38.81667,9
38.82500,8
38.83333,7
38.84167,6
38.85000,5
38.85833,5
38.86667,4
38.87500,4
38.88333,3
38.89167,2
38.90000,1
38.90833,0
38.91667,-0
38.92500,-1
38.93333,-1
38.94167,-2
38.95000,-2
38.95833,-3
38.96667,-3
38.97500,-4
38.98333,-5
38.99167,-5
39.00000,-6
39.00833,-6
39.01667,-7
39.02500,-7
39.03333,-8
39.04167,-8
39.05000,-8
39.05833,-9
39.06667,-9
39.07500,-9
39.08333,-9
39.09167,-10
39.10000,-10
39.10833,-11
39.11667,-11
39.12500,-12
39.13333,-12
39.14167,-13
39.15000,-13
39.15833,-13
39.16667,-13
39.17500,-13
39.18333,-14
39.19167,-14
39.20000,-14
39.20833,-14
39.21667,-14
39.22500,-15
39.23333,-15
39.24167,-15
39.25000,-15
39.25833,-15
39.26667,-15
39.27500,-15
39.28333,-15
39.29167,-15
39.30000,-15
39.30833,-15
39.31667,-16
39.32500,-16
39.33333,-16
39.34167,-16
39.35000,-15
39.35833,-15
39.36667,-16
39.37500,-16
39.38333,-16
39.39167,-16
39.40000,-16
39.40833,-17
39.41667,-17
39.42500,-17
39.43333,-17
39.44167,-17
39.45000,-17
39.45833,-17
39.46667,-17
39.47500,-17
39.48333,-17
39.49167,-17
39.50000,-17
39.50833,-17
39.51667,-17
39.52500,-17
39.53333,-17
39.54167,-17
39.55000,-17
39.55833,-17
39.56667,-17
39.57500,-17
39.58333,-16
39.59167,-17
39.60000,-17
39.60833,-17
39.61667,-17
39.62500,-17
39.63333,-17
39.64167,-17
39.65000,-17
39.65833,-16
39.66667,-16
39.67500,-17
39.68333,-17
39.69167,-17
39.70000,-18
39.70833,-18
39.71667,-18
39.72500,-18
39.73333,-18
39.74167,-18
39.75000,-18
39.75833,-18
39.76667,-18
39.77500,-18
39.78333,-18
39.79167,-18
39.80000,-18
39.80833,-18
39.81667,-18
39.82500,-18
39.83333,-18
39.84167,-18
39.85000,-18
39.85833,-19
39.86667,-19
39.87500,-19
39.88333,-19
39.89167,-19
39.90000,-19
39.90833,-19
39.91667,-19
39.92500,-19
39.93333,-19
39.94167,-19
39.95000,-19
39.95833,-19
39.96667,-18
39.97500,-18
39.98333,-19
39.99167,-19
40.00000,-19
40.00833,-19
40.01667,-19
40.02500,-19
40.03333,-19
40.04167,-19
40.05000,-19
40.05833,-19
40.06667,-19
40.07500,-19
40.08333,-19
40.09167,-19
40.10000,-19
40.10833,-19
40.11667,-19
40.12500,-19
40.13333,-19
40.14167,-19
40.15000,-19
40.15833,-19
40.16667,-19
40.17500,-19
40.18333,-19
40.19167,-19
40.20000,-19
40.20833,-19
40.21667,-19
40.22500,-19
40.23333,-19
40.24167,-19
40.25000,-19
40.25833,-19
40.26667,-19
40.27500,-19
40.28333,-19
40.29167,-19
40.30000,-18
40.30833,-18
40.31667,-19
40.32500,-19
40.33333,-18
40.34167,-18
40.35000,-17
40.35833,-17
40.36667,-17
40.37500,-17
40.38333,-17
40.39167,-18
40.40000,-17
40.40833,-17
40.41667,-17
40.42500,-16
40.43333,-16
40.44167,-16
40.45000,-16
40.45833,-15
40.46667,-15
40.47500,-14
40.48333,-14
40.49167,-13
40.50000,-13
40.50833,-13
40.51667,-13
40.52500,-12
40.53333,-12
40.54167,-11
40.55000,-11
40.55833,-10
40.56667,-9
40.57500,-9
40.58333,-9
40.59167,-9
40.60000,-8
40.60833,-8
40.61667,-7
40.62500,-7
40.63333,-6
40.64167,-4
40.65000,-3
40.65833,-3
40.66667,-2
40.67500,-1
40.68333,-0
40.69167,0
40.70000,1
40.70833,2
40.71667,3
40.72500,3
40.73333,4
40.74167,5
40.75000,6
40.75833,7
40.76667,7
40.77500,8
40.78333,9
40.79167,9
40.80000,10
40.80833,11
40.81667,12
40.82500,13
40.83333,14
40.84167,16
40.85000,17
40.85833,18
40.86667,20
40.87500,21
40.88333,22
40.89167,24
40.90000,25
40.90833,26
40.91667,28
40.92500,29
40.93333,30
40.94167,31
40.95000,33
40.95833,34
40.96667,35
40.97500,36
40.98333,37
40.99167,39
41.00000,40
41.00833,42
41.01667,43
41.02500,44
41.03333,46
41.04167,47
41.05000,49
41.05833,50
41.06667,51
41.07500,52
41.08333,54
41.09167,55
41.10000,56
41.10833,57
41.11667,59
41.12500,60
41.13333,61
41.14167,63
41.15000,64
41.15833,65
41.16667,67
41.17500,69
41.18333,70
41.19167,72
41.20000,73
41.20833,75
41.21667,77
41.22500,78
41.23333,79
41.24167,80
41.25000,82
41.25833,83
41.26667,84
41.27500,86
41.28333,87
41.29167,89
41.30000,90
41.30833,91
41.31667,92
41.32500,93
41.33333,94
41.34167,96
41.35000,97
41.35833,99
41.36667,100
41.37500,101
41.38333,102
41.39167,104
41.40000,105
41.40833,107
41.41667,108
41.42500,110
41.43333,110
41.44167,112
41.45000,113
41.45833,114
41.46667,116
41.47500,118
41.48333,119
41.49167,121
41.50000,122
41.50833,123
41.51667,125
41.52500,126
41.53333,127
41.54167,128
41.55000,129
41.55833,130
41.56667,132
41.57500,133
41.58333,134
41.59167,135
41.60000,136
41.60833,137
41.61667,139
41.62500,140
41.63333,141
41.64167,141
41.65000,142
41.65833,144
41.66667,145
41.67500,146
41.68333,146
41.69167,147
41.70000,148
41.70833,149
41.71667,150
41.72500,151
41.73333,152
41.74167,153
41.75000,154
41.75833,155
41.76667,155
41.77500,156
41.78333,157
41.79167,157
41.80000,158
41.80833,159
41.81667,159
41.82500,160
41.83333,160
41.84167,161
41.85000,161
41.85833,162
41.86667,162
41.87500,162
41.88333,163
41.89167,164
41.90000,164
41.90833,164
41.91667,165
41.92500,165
41.93333,165
41.94167,165
41.95000,166
41.95833,166
41.96667,166
41.97500,166
41.98333,166
41.99167,167
42.00000,167
42.00833,167
42.01667,167
42.02500,168
42.03333,168
42.04167,168
42.05000,168
42.05833,168
42.06667,169
42.07500,169
42.08333,169
42.09167,169
42.10000,169
42.10833,169
42.11667,169
42.12500,169
42.13333,169
42.14167,168
42.15000,168
42.15833,168
42.16667,168
42.17500,168
42.18333,167
42.19167,167
42.20000,167
42.20833,167
42.21667,168
42.22500,168
42.23333,168
42.24167,168
42.25000,167
42.25833,167
42.26667,167
42.27500,166
42.28333,166
42.29167,165
42.30000,165
42.30833,164
42.31667,164
42.32500,164
42.33333,164
42.34167,164
42.35000,163
42.35833,164
42.36667,164
42.37500,163
42.38333,163
42.39167,163
42.40000,162
42.40833,162
42.41667,162
42.42500,161
42.43333,160
42.44167,160
42.45000,159
42.45833,159
42.46667,158
42.47500,158
42.48333,157
42.49167,156
42.50000,155
42.50833,155
42.51667,155
42.52500,154
42.53333,153
42.54167,153
42.55000,152
42.55833,152
42.56667,152
42.57500,151
42.58333,151
42.59167,151
42.60000,150
42.60833,150
42.61667,149
42.62500,149
42.63333,148
42.64167,148
42.65000,147
42.65833,146
42.66667,146
42.67500,145
42.68333,144
42.69167,143
42.70000,143
42.70833,142
42.71667,141
42.72500,140
42.73333,140
42.74167,139
42.75000,138
42.75833,137
42.76667,136
42.77500,136
42.78333,135
42.79167,134
42.80000,133
42.80833,132
42.81667,131
42.82500,130
42.83333,129
42.84167,129
42.85000,128
42.85833,127
42.86667,127
42.87500,126
42.88333,126
42.89167,125
42.90000,124
42.90833,124
42.91667,123
42.92500,122
42.93333,121
42.94167,120
42.95000,119
42.95833,118
42.96667,117
42.97500,116
42.98333,116
42.99167,115
43.00000,114
43.00833,114
43.01667,113
43.02500,112
43.03333,111
43.04167,110
43.05000,109
43.05833,108
43.06667,107
43.07500,106
43.08333,106
43.09167,105
43.10000,104
43.10833,104
43.11667,103
43.12500,102
43.13333,101
43.14167,101
43.15000,100
43.15833,99
43.16667,99
43.17500,98
43.18333,97
43.19167,96
43.20000,96
43.20833,95
43.21667,94
43.22500,93
43.23333,92
43.24167,92
43.25000,91
43.25833,90
43.26667,89
43.27500,89
43.28333,88
43.29167,87
43.30000,87
43.30833,86
43.31667,85
43.32500,84
43.33333,83
43.34167,82
43.35000,81
43.35833,81
43.36667,80
43.37500,80
43.38333,79
43.39167,79
43.40000,78
43.40833,77
43.41667,76
43.42500,75
43.43333,74
43.44167,74
43.45000,73
43.45833,72
43.46667,72
43.47500,71
43.48333,71
43.49167,70
43.50000,70
43.50833,69
43.51667,68
43.52500,67
43.53333,66
43.54167,66
43.55000,65
43.55833,64
43.56667,64
43.57500,63
43.58333,63
43.59167,62
43.60000,62
43.60833,61
43.61667,61
43.62500,60
43.63333,59
43.64167,59
43.65000,58
43.65833,57
43.66667,56
43.67500,56
43.68333,55
43.69167,54
43.70000,54
43.70833,53
43.71667,52
43.72500,51
43.73333,51
43.74167,50
43.75000,49
43.75833,49
43.76667,48
43.77500,47
43.78333,47
43.79167,46
43.80000,46
43.80833,45
43.81667,44
43.82500,44
43.83333,43
43.84167,43
43.85000,42
43.85833,41
43.86667,41
43.87500,40
43.88333,39
43.89167,38
43.90000,37
43.90833,37
43.91667,37
43.92500,36
43.93333,35
43.94167,35
43.95000,34
43.95833,33
43.96667,33
43.97500,32
43.98333,32
43.99167,32
44.00000,31
44.00833,30
44.01667,30
44.02500,29
44.03333,28
44.04167,28
44.05000,28
44.05833,27
44.06667,27
44.07500,26
44.08333,25
44.09167,24
44.10000,24
44.10833,23
44.11667,22
44.12500,22
44.13333,21
44.14167,21
44.15000,21
44.15833,21
44.16667,20
44.17500,20
44.18333,19
44.19167,19
44.20000,18
44.20833,18
44.21667,17
44.22500,16
44.23333,16
44.24167,16
44.25000,15
44.25833,15
44.26667,14
44.27500,14
44.28333,13
44.29167,12
44.30000,12
44.30833,11
44.31667,11
44.32500,10
44.33333,10
44.34167,10
44.35000,9
44.35833,9
44.36667,8
44.37500,8
44.38333,7
44.39167,6
44.40000,6
44.40833,5
44.41667,5
44.42500,4
44.43333,4
44.44167,3
44.45000,3
44.45833,3
44.46667,2
44.47500,2
44.48333,2
44.49167,1
44.50000,1
44.50833,1
44.51667,1
44.52500,0
44.53333,0
44.54167,-0
44.55000,-1
44.55833,-1
44.56667,-2
44.57500,-2
44.58333,-2
44.59167,-2
44.60000,-3
44.60833,-3
44.61667,-3
44.62500,-4
44.63333,-4
44.64167,-5
44.65000,-5
44.65833,-5
44.66667,-6
44.67500,-6
44.68333,-7
44.69167,-7
44.70000,-7
44.70833,-7
44.71667,-7
44.72500,-7
44.73333,-7
44.74167,-8
44.75000,-8
44.75833,-8
44.76667,-9
44.77500,-10
44.78333,-10
44.79167,-10
44.80000,-10
44.80833,-11
44.81667,-11
44.82500,-11
44.83333,-11
44.84167,-12
44.85000,-12
44.85833,-13
44.86667,-13
44.87500,-13
44.88333,-13
44.89167,-13
44.90000,-13
44.90833,-13
44.91667,-14
44.92500,-14
44.93333,-14
44.94167,-14
44.95000,-14
44.95833,-14
44.96667,-14
44.97500,-14
44.98333,-15
44.99167,-16
45.00000,-15
45.00833,-15
45.01667,-15
45.02500,-15
45.03333,-15
45.04167,-15
45.05000,-16
45.05833,-16
45.06667,-17
45.07500,-17
45.08333,-16
45.09167,-16
45.10000,-16
45.10833,-16
45.11667,-16
45.12500,-17
45.13333,-17
45.14167,-17
45.15000,-17
45.15833,-18
45.16667,-18
45.17500,-18
45.18333,-18
45.19167,-18
45.20000,-19
45.20833,-19
45.21667,-19
45.22500,-19
45.23333,-19
45.24167,-19
45.25000,-19
45.25833,-19
45.26667,-19
45.27500,-19
45.28333,-19
45.29167,-19
45.30000,-19
45.30833,-19
45.31667,-19
45.32500,-19
45.33333,-19
45.34167,-19
45.35000,-19
45.35833,-19
45.36667,-20
45.37500,-20
45.38333,-20
45.39167,-20
45.40000,-20
45.40833,-20
45.41667,-20
45.42500,-20
45.43333,-20
45.44167,-20
45.45000,-20
45.45833,-20
45.46667,-20
45.47500,-20
45.48333,-20
45.49167,-20
45.50000,-20
45.50833,-21
45.51667,-21
45.52500,-22
45.53333,-21
45.54167,-21
45.55000,-21
45.55833,-21
45.56667,-20
45.57500,-20
45.58333,-20
45.59167,-20
45.60000,-20
45.60833,-20
45.61667,-20
45.62500,-20
45.63333,-20
45.64167,-20
45.65000,-20
45.65833,-20
45.66667,-20
45.67500,-21
45.68333,-21
45.69167,-20
45.70000,-20
45.70833,-21
45.71667,-21
45.72500,-21
45.73333,-21
45.74167,-21
45.75000,-21
45.75833,-21
45.76667,-21
45.77500,-21
45.78333,-21
45.79167,-21
45.80000,-21
45.80833,-21
45.81667,-22
45.82500,-22
45.83333,-22
45.84167,-23
45.85000,-23
45.85833,-23
45.86667,-23
45.87500,-24
45.88333,-24
45.89167,-24
45.90000,-23
45.90833,-23
45.91667,-23
45.92500,-23
45.93333,-23
45.94167,-23
45.95000,-24
45.95833,-24
45.96667,-24
45.97500,-24
45.98333,-25
45.99167,-24
46.00000,-24
46.00833,-24
46.01667,-25
46.02500,-25
46.03333,-25
46.04167,-25
46.05000,-25
46.05833,-25
46.06667,-25
46.07500,-25
46.08333,-25
46.09167,-26
46.10000,-26
46.10833,-27
46.11667,-27
46.12500,-28
46.13333,-28
46.14167,-28
46.15000,-28
46.15833,-28
46.16667,-28
46.17500,-29
46.18333,-29
46.19167,-29
46.20000,-29
46.20833,-29
46.21667,-29
46.22500,-29
46.23333,-30
46.24167,-30
46.25000,-30
46.25833,-30
46.26667,-31
46.27500,-31
46.28333,-31
46.29167,-31
46.30000,-31
46.30833,-31
46.31667,-31
46.32500,-32
46.33333,-32
46.34167,-32
46.35000,-32
46.35833,-32
46.36667,-33
46.37500,-33
46.38333,-33
46.39167,-34
46.40000,-34
46.40833,-34
46.41667,-35
46.42500,-35
46.43333,-35
46.44167,-35
46.45000,-35
46.45833,-36
46.46667,-36
46.47500,-36
46.48333,-37
46.49167,-37
46.50000,-37
46.50833,-38
46.51667,-38
46.52500,-38
46.53333,-38
46.54167,-38
46.55000,-38
46.55833,-38
46.56667,-38
46.57500,-39
46.58333,-39
46.59167,-40
46.60000,-40
46.60833,-40
46.61667,-41
46.62500,-41
46.63333,-41
46.64167,-41
46.65000,-41
46.65833,-41
46.66667,-41
46.67500,-41
46.68333,-42
46.69167,-42
46.70000,-42
46.70833,-42
46.71667,-42
46.72500,-42
46.73333,-43
46.74167,-43
46.75000,-43
46.75833,-44
46.76667,-44
46.77500,-44
46.78333,-44
46.79167,-44
46.80000,-44
46.80833,-44
46.81667,-44
46.82500,-44
46.83333,-45
46.84167,-45
46.85000,-46
46.85833,-46
46.86667,-46
46.87500,-46
46.88333,-46
46.89167,-46
46.90000,-46
46.90833,-46
46.91667,-46
46.92500,-46
46.93333,-46
46.94167,-46
46.95000,-46
46.95833,-46
46.96667,-46
46.97500,-47
46.98333,-47
46.99167,-46
47.00000,-46
47.00833,-46
47.01667,-47
47.02500,-47
47.03333,-47
47.04167,-47
47.05000,-47
47.05833,-47
47.06667,-47
47.07500,-46
47.08333,-46
47.09167,-46
47.10000,-46
47.10833,-46
47.11667,-46
47.12500,-46
47.13333,-46
47.14167,-46
47.15000,-46
47.15833,-46
47.16667,-45
47.17500,-45
47.18333,-45
47.19167,-45
47.20000,-45
47.20833,-44
47.21667,-44
47.22500,-44
47.23333,-44
47.24167,-43
47.25000,-43
47.25833,-43
47.26667,-43
47.27500,-43
47.28333,-43
47.29167,-42
47.30000,-42
47.30833,-41
47.31667,-41
47.32500,-41
47.33333,-40
47.34167,-40
47.35000,-39
47.35833,-39
47.36667,-38
47.37500,-38
47.38333,-37
47.39167,-37
47.40000,-36
47.40833,-35
47.41667,-35
47.42500,-34
47.43333,-33
47.44167,-33
47.45000,-32
47.45833,-32
47.46667,-31
47.47500,-31
47.48333,-30
47.49167,-30
47.50000,-29
47.50833,-28
47.51667,-27
47.52500,-27
47.53333,-26
47.54167,-26
47.55000,-25
47.55833,-24
47.56667,-24
47.57500,-23
47.58333,-22
47.59167,-22
47.60000,-21
47.60833,-21
47.61667,-20
47.62500,-18
47.63333,-17
47.64167,-16
47.65000,-15
47.65833,-14
47.66667,-13
47.67500,-12
47.68333,-11
47.69167,-11
47.70000,-10
47.70833,-9
47.71667,-8
47.72500,-8
47.73333,-7
47.74167,-6
47.75000,-5
47.75833,-5
47.76667,-4
47.77500,-3
47.78333,-2
47.79167,-2
47.80000,-1
47.80833,0
47.81667,1
47.82500,2
47.83333,3
47.84167,4
47.85000,5
47.85833,5
47.86667,6
47.87500,7
47.88333,7
47.89167,8
47.90000,9
47.90833,10
47.91667,10
47.92500,11
47.93333,12
47.94167,12
47.95000,13
47.95833,13
47.96667,14
47.97500,15
47.98333,16
47.99167,16
48.00000,17
48.00833,18
48.01667,18
48.02500,19
48.03333,19
48.04167,20
48.05000,21
48.05833,21
48.06667,22
48.07500,22
48.08333,23
48.09167,23
48.10000,24
48.10833,24
48.11667,25
48.12500,25
48.13333,26
48.14167,26
48.15000,27
48.15833,27
48.16667,27
48.17500,27
48.18333,28
48.19167,28
48.20000,29
48.20833,29
48.21667,30
48.22500,30
48.23333,31
48.24167,31
48.25000,32
48.25833,32
48.26667,32
48.27500,32
48.28333,33
48.29167,33
48.30000,33
48.30833,34
48.31667,34
48.32500,34
48.33333,34
48.34167,34
48.35000,34
48.35833,34
48.36667,34
48.37500,35
48.38333,35
48.39167,35
48.40000,35
48.40833,35
48.41667,35
48.42500,36
48.43333,36
48.44167,36
48.45000,36
48.45833,36
48.46667,36
48.47500,36
48.48333,36
48.49167,37
48.50000,37
48.50833,37
48.51667,37
48.52500,37
48.53333,37
48.54167,37
48.55000,38
48.55833,38
48.56667,38
48.57500,39
48.58333,38
48.59167,38
48.60000,38
48.60833,38
48.61667,38
48.62500,38
48.63333,38
48.64167,38
48.65000,38
48.65833,38
48.66667,38
48.67500,38
48.68333,38
48.69167,38
48.70000,38
48.70833,38
48.71667,39
48.72500,39
48.73333,39
48.74167,39
48.75000,39
48.75833,39
48.76667,39
48.77500,38
48.78333,39
48.79167,39
48.80000,39
48.80833,39
48.81667,39
48.82500,39
48.83333,39
48.84167,39
48.85000,39
48.85833,39
48.86667,40
48.87500,40
48.88333,39
48.89167,39
48.90000,39
48.90833,39
48.91667,40
48.92500,40
48.93333,40
48.94167,41
48.95000,41
48.95833,41
48.96667,40
48.97500,40
48.98333,40
48.99167,40
49.00000,40
49.00833,39
49.01667,39
49.02500,39
49.03333,39
49.04167,40
49.05000,40
49.05833,40
49.06667,41
49.07500,41
49.08333,41
49.09167,41
49.10000,41
49.10833,41
49.11667,42
49.12500,42
49.13333,42
49.14167,42
49.15000,42
49.15833,42
49.16667,42
49.17500,42
49.18333,41
49.19167,41
49.20000,41
49.20833,41
49.21667,41
49.22500,41
49.23333,41
49.24167,41
49.25000,41
49.25833,41
49.26667,41
49.27500,41
49.28333,42
49.29167,41
49.30000,41
49.30833,41
49.31667,41
49.32500,41
49.33333,41
49.34167,41
49.35000,41
49.35833,40
49.36667,40
49.37500,39
49.38333,39
49.39167,39
49.40000,39
49.40833,39
49.41667,39
49.42500,39
49.43333,39
49.44167,39
49.45000,38
49.45833,38
49.46667,38
49.47500,38
49.48333,37
49.49167,37
49.50000,37
49.50833,37
49.51667,37
49.52500,37
49.53333,37
49.54167,37
49.55000,36
49.55833,36
49.56667,36
49.57500,36
49.58333,35
49.59167,35
49.60000,34
49.60833,34
49.61667,33
49.62500,33
49.63333,33
49.64167,33
49.65000,33
49.65833,33
49.66667,32
49.67500,32
49.68333,31
49.69167,31
49.70000,30
49.70833,30
49.71667,30
49.72500,29
49.73333,29
49.74167,29
49.75000,28
49.75833,27
49.76667,27
49.77500,26
49.78333,26
49.79167,26
49.80000,26
49.80833,26
49.81667,25
49.82500,25
49.83333,24
49.84167,24
49.85000,23
49.85833,23
49.86667,22
49.87500,21
49.88333,21
49.89167,20
49.90000,20
49.90833,19
49.91667,19
49.92500,18
49.93333,17
49.94167,16
49.95000,16
49.95833,15
49.96667,15
49.97500,14
49.98333,13
49.99167,12
50.00000,11

