[Header]
Application Name,LabSolutions
Version,5.97 SP1
Data File Name,C:\Users\cremerlab\Desktop\Richa\Sep_2nd_2022_scfa_rt50min_final\Sep 2nd yield expt_922022_001_013.lcd
Output Date,9/3/2022
Output Time,4:00:41 AM

[File Information]
Type,Data File
Generated,9/3/2022 3:10:22 AM
Generated by,System Administrator
Modified,9/3/2022 4:00:41 AM
Modified by,System Administrator

[Sample Information]
Operator Name,System Administrator
Acquired,9/3/2022 3:10:40 AM
Sample Type,0:Unknown
Level,0
Sample Name,090222_B.theta_4
Sample ID,001
ISTD Amount1,1
ISTD Amount2,1
ISTD Amount3,1
ISTD Amount4,1
ISTD Amount5,1
ISTD Amount6,1
ISTD Amount7,1
ISTD Amount8,1
ISTD Amount9,1
ISTD Amount10,1
ISTD Amount11,1
ISTD Amount12,1
ISTD Amount13,1
ISTD Amount14,1
ISTD Amount15,1
ISTD Amount16,1
ISTD Amount17,1
ISTD Amount18,1
ISTD Amount19,1
ISTD Amount20,1
ISTD Amount21,1
ISTD Amount22,1
ISTD Amount23,1
ISTD Amount24,1
ISTD Amount25,1
ISTD Amount26,1
ISTD Amount27,1
ISTD Amount28,1
ISTD Amount29,1
ISTD Amount30,1
ISTD Amount31,1
ISTD Amount32,1
Sample Amount,1
Dilution Factor,1
Vial#,12
Injection Volume,20

[Original Files]
Data File,C:\Users\cremerlab\Desktop\Richa\Sep_2nd_2022_scfa_rt50min_final\Sep 2nd yield expt_922022_001_013.lcd
Method File,C:\Users\cremerlab\Desktop\Richa\acetate_excretion.lcm
Batch File,C:\Users\cremerlab\Desktop\Richa\Sep_2nd_2022_scfa_rt50min_final\Sep 2nd yield expt.lcb
Report Format File,c:\LabSolutions\System\DEFAULT.lsr

[File Description]


[Configuration]
Instrument Name,HPLC-PC-Instrument1
Instrument #,1
Line #,1
# of Detectors,2
Detector ID,Detector A,Detector B
Detector Name,Detector A,Detector B
# of Channels,1,1

[Peak Table(Detector A)]
# of Peaks,0

[Peak Table(Detector B)]
# of Peaks,13
Peak#,R.Time,I.Time,F.Time,Area,Height,A/H,Conc.,Mark,ID#,Name,k',Plate #,Plate Ht.,Tailing,Resolution,Sep.Factor,Area Ratio,Height Ratio,Conc. %,Norm Conc.
1,10.475,10.258,10.508,1749,236,7.407,0.000,   ,,,0.000,3856,38.902,0.000,0.000,0.000,0,0,0.000,0.000
2,11.016,10.508,12.325,2260628,115751,19.530,0.000, V ,,,0.052,7554,19.858,0.969,0.916,0.000,0,0,0.000,0.000
3,14.329,12.667,15.183,3567368,76797,46.452,0.000,   ,,,0.368,2508,59.797,0.657,4.013,7.123,0,0,0.000,0.000
4,15.756,15.183,18.417,1364583,46288,29.480,0.000,SV ,,,0.504,6921,21.672,1.141,1.500,1.370,0,0,0.000,0.000
5,17.861,17.458,18.367,6863,245,28.003,0.000,T  ,,,0.705,8736,17.171,1.114,2.767,1.399,0,0,0.000,0.000
6,19.095,18.433,19.767,13228,312,42.388,0.000,   ,,,0.823,4276,35.077,0.982,1.277,1.167,0,0,0.000,0.000
7,20.316,19.767,20.525,18171,640,28.386,0.000,   ,,,0.939,1795,83.587,0.000,0.791,1.142,0,0,0.000,0.000
8,20.942,20.525,21.200,34146,973,35.078,0.000, V ,,,0.999,1017,147.512,0.000,0.276,1.064,0,0,0.000,0.000
9,21.636,21.200,22.558,52868,1059,49.905,0.000, V ,,,1.065,991,151.321,0.000,0.258,1.066,0,0,0.000,0.000
10,23.155,22.600,23.850,7195,204,35.340,0.000,   ,,,1.211,10048,14.928,1.120,0.827,1.136,0,0,0.000,0.000
11,25.082,24.292,26.433,157263,3836,40.995,0.000,   ,,,1.394,9068,16.543,1.142,1.949,1.152,0,0,0.000,0.000
12,29.242,28.350,30.625,146344,2998,48.812,0.000,   ,,,1.792,8795,17.055,1.186,3.616,1.285,0,0,0.000,0.000
13,32.529,31.717,34.367,35657,462,77.175,0.000,   ,,,2.105,926,161.945,1.558,1.190,1.175,0,0,0.000,0.000

[LC Chromatogram(Detector B-Ch1)]
Interval(msec),500
# of Points,6001
Start Time(min),0.000
End Time(min),50.000
Intensity Units,mV
Intensity Multiplier,0.001
R.Time (min),Intensity
0.00000,-26
0.00833,-26
0.01667,-6
0.02500,-1
0.03333,-1
0.04167,-2
0.05000,-2
0.05833,-3
0.06667,-4
0.07500,-4
0.08333,-5
0.09167,-5
0.10000,-6
0.10833,-6
0.11667,-7
0.12500,-7
0.13333,-8
0.14167,-8
0.15000,-9
0.15833,-9
0.16667,-10
0.17500,-10
0.18333,-11
0.19167,-12
0.20000,-13
0.20833,-14
0.21667,-14
0.22500,-15
0.23333,-16
0.24167,-17
0.25000,-17
0.25833,-18
0.26667,-18
0.27500,-19
0.28333,-19
0.29167,-19
0.30000,-20
0.30833,-20
0.31667,-20
0.32500,-21
0.33333,-21
0.34167,-21
0.35000,-21
0.35833,-22
0.36667,-22
0.37500,-22
0.38333,-23
0.39167,-23
0.40000,-24
0.40833,-24
0.41667,-24
0.42500,-25
0.43333,-25
0.44167,-25
0.45000,-26
0.45833,-26
0.46667,-26
0.47500,-26
0.48333,-27
0.49167,-27
0.50000,-28
0.50833,-28
0.51667,-29
0.52500,-29
0.53333,-29
0.54167,-29
0.55000,-30
0.55833,-30
0.56667,-30
0.57500,-31
0.58333,-31
0.59167,-31
0.60000,-31
0.60833,-31
0.61667,-31
0.62500,-31
0.63333,-31
0.64167,-31
0.65000,-32
0.65833,-32
0.66667,-32
0.67500,-32
0.68333,-32
0.69167,-32
0.70000,-32
0.70833,-32
0.71667,-32
0.72500,-33
0.73333,-33
0.74167,-33
0.75000,-33
0.75833,-33
0.76667,-32
0.77500,-32
0.78333,-32
0.79167,-32
0.80000,-32
0.80833,-32
0.81667,-33
0.82500,-33
0.83333,-33
0.84167,-33
0.85000,-33
0.85833,-33
0.86667,-33
0.87500,-33
0.88333,-33
0.89167,-32
0.90000,-32
0.90833,-32
0.91667,-32
0.92500,-32
0.93333,-32
0.94167,-32
0.95000,-32
0.95833,-32
0.96667,-32
0.97500,-32
0.98333,-32
0.99167,-32
1.00000,-32
1.00833,-32
1.01667,-32
1.02500,-31
1.03333,-30
1.04167,-30
1.05000,-30
1.05833,-30
1.06667,-30
1.07500,-30
1.08333,-30
1.09167,-30
1.10000,-30
1.10833,-30
1.11667,-30
1.12500,-29
1.13333,-29
1.14167,-29
1.15000,-29
1.15833,-30
1.16667,-29
1.17500,-29
1.18333,-28
1.19167,-28
1.20000,-28
1.20833,-28
1.21667,-28
1.22500,-27
1.23333,-27
1.24167,-27
1.25000,-27
1.25833,-27
1.26667,-27
1.27500,-27
1.28333,-27
1.29167,-27
1.30000,-27
1.30833,-27
1.31667,-26
1.32500,-26
1.33333,-26
1.34167,-26
1.35000,-25
1.35833,-25
1.36667,-25
1.37500,-25
1.38333,-25
1.39167,-25
1.40000,-25
1.40833,-25
1.41667,-24
1.42500,-24
1.43333,-24
1.44167,-24
1.45000,-24
1.45833,-24
1.46667,-24
1.47500,-24
1.48333,-23
1.49167,-23
1.50000,-23
1.50833,-23
1.51667,-22
1.52500,-23
1.53333,-22
1.54167,-22
1.55000,-22
1.55833,-22
1.56667,-22
1.57500,-22
1.58333,-22
1.59167,-21
1.60000,-21
1.60833,-21
1.61667,-20
1.62500,-20
1.63333,-20
1.64167,-20
1.65000,-20
1.65833,-20
1.66667,-20
1.67500,-20
1.68333,-19
1.69167,-19
1.70000,-19
1.70833,-18
1.71667,-18
1.72500,-18
1.73333,-18
1.74167,-18
1.75000,-18
1.75833,-18
1.76667,-18
1.77500,-18
1.78333,-18
1.79167,-18
1.80000,-18
1.80833,-18
1.81667,-18
1.82500,-18
1.83333,-18
1.84167,-18
1.85000,-18
1.85833,-18
1.86667,-18
1.87500,-18
1.88333,-18
1.89167,-18
1.90000,-17
1.90833,-17
1.91667,-17
1.92500,-17
1.93333,-17
1.94167,-17
1.95000,-18
1.95833,-18
1.96667,-17
1.97500,-17
1.98333,-16
1.99167,-16
2.00000,-16
2.00833,-15
2.01667,-16
2.02500,-16
2.03333,-16
2.04167,-16
2.05000,-16
2.05833,-16
2.06667,-16
2.07500,-15
2.08333,-15
2.09167,-15
2.10000,-15
2.10833,-15
2.11667,-15
2.12500,-14
2.13333,-14
2.14167,-14
2.15000,-14
2.15833,-14
2.16667,-14
2.17500,-15
2.18333,-15
2.19167,-15
2.20000,-15
2.20833,-15
2.21667,-15
2.22500,-15
2.23333,-15
2.24167,-16
2.25000,-16
2.25833,-16
2.26667,-16
2.27500,-16
2.28333,-15
2.29167,-15
2.30000,-15
2.30833,-14
2.31667,-14
2.32500,-14
2.33333,-14
2.34167,-14
2.35000,-14
2.35833,-14
2.36667,-14
2.37500,-14
2.38333,-14
2.39167,-14
2.40000,-14
2.40833,-15
2.41667,-15
2.42500,-15
2.43333,-15
2.44167,-15
2.45000,-15
2.45833,-16
2.46667,-16
2.47500,-16
2.48333,-16
2.49167,-16
2.50000,-16
2.50833,-17
2.51667,-17
2.52500,-17
2.53333,-17
2.54167,-17
2.55000,-17
2.55833,-17
2.56667,-17
2.57500,-17
2.58333,-17
2.59167,-16
2.60000,-16
2.60833,-17
2.61667,-17
2.62500,-17
2.63333,-16
2.64167,-16
2.65000,-16
2.65833,-17
2.66667,-17
2.67500,-17
2.68333,-17
2.69167,-17
2.70000,-17
2.70833,-17
2.71667,-17
2.72500,-17
2.73333,-18
2.74167,-18
2.75000,-18
2.75833,-17
2.76667,-18
2.77500,-18
2.78333,-18
2.79167,-19
2.80000,-19
2.80833,-19
2.81667,-19
2.82500,-19
2.83333,-19
2.84167,-20
2.85000,-20
2.85833,-21
2.86667,-21
2.87500,-21
2.88333,-21
2.89167,-21
2.90000,-21
2.90833,-21
2.91667,-21
2.92500,-21
2.93333,-21
2.94167,-21
2.95000,-21
2.95833,-21
2.96667,-21
2.97500,-21
2.98333,-20
2.99167,-20
3.00000,-21
3.00833,-21
3.01667,-21
3.02500,-21
3.03333,-21
3.04167,-21
3.05000,-21
3.05833,-21
3.06667,-21
3.07500,-21
3.08333,-21
3.09167,-21
3.10000,-21
3.10833,-21
3.11667,-21
3.12500,-21
3.13333,-22
3.14167,-22
3.15000,-21
3.15833,-21
3.16667,-22
3.17500,-22
3.18333,-22
3.19167,-22
3.20000,-22
3.20833,-22
3.21667,-22
3.22500,-22
3.23333,-22
3.24167,-22
3.25000,-22
3.25833,-22
3.26667,-22
3.27500,-22
3.28333,-22
3.29167,-22
3.30000,-22
3.30833,-22
3.31667,-22
3.32500,-22
3.33333,-22
3.34167,-22
3.35000,-22
3.35833,-22
3.36667,-22
3.37500,-22
3.38333,-22
3.39167,-22
3.40000,-22
3.40833,-22
3.41667,-22
3.42500,-21
3.43333,-21
3.44167,-21
3.45000,-21
3.45833,-21
3.46667,-21
3.47500,-22
3.48333,-22
3.49167,-22
3.50000,-22
3.50833,-22
3.51667,-21
3.52500,-21
3.53333,-20
3.54167,-20
3.55000,-19
3.55833,-19
3.56667,-18
3.57500,-18
3.58333,-18
3.59167,-18
3.60000,-18
3.60833,-18
3.61667,-18
3.62500,-18
3.63333,-18
3.64167,-18
3.65000,-18
3.65833,-18
3.66667,-18
3.67500,-18
3.68333,-17
3.69167,-17
3.70000,-17
3.70833,-17
3.71667,-16
3.72500,-16
3.73333,-16
3.74167,-17
3.75000,-17
3.75833,-16
3.76667,-16
3.77500,-15
3.78333,-15
3.79167,-15
3.80000,-14
3.80833,-14
3.81667,-13
3.82500,-13
3.83333,-12
3.84167,-12
3.85000,-12
3.85833,-11
3.86667,-11
3.87500,-10
3.88333,-10
3.89167,-10
3.90000,-10
3.90833,-10
3.91667,-10
3.92500,-10
3.93333,-9
3.94167,-9
3.95000,-9
3.95833,-9
3.96667,-9
3.97500,-8
3.98333,-8
3.99167,-7
4.00000,-6
4.00833,-6
4.01667,-5
4.02500,-5
4.03333,-4
4.04167,-4
4.05000,-4
4.05833,-4
4.06667,-3
4.07500,-3
4.08333,-3
4.09167,-3
4.10000,-2
4.10833,-2
4.11667,-1
4.12500,-1
4.13333,-0
4.14167,1
4.15000,1
4.15833,1
4.16667,2
4.17500,3
4.18333,3
4.19167,4
4.20000,4
4.20833,4
4.21667,5
4.22500,6
4.23333,6
4.24167,6
4.25000,6
4.25833,7
4.26667,7
4.27500,8
4.28333,8
4.29167,9
4.30000,10
4.30833,11
4.31667,11
4.32500,12
4.33333,12
4.34167,13
4.35000,13
4.35833,14
4.36667,15
4.37500,16
4.38333,16
4.39167,17
4.40000,18
4.40833,19
4.41667,19
4.42500,20
4.43333,20
4.44167,21
4.45000,22
4.45833,23
4.46667,24
4.47500,24
4.48333,25
4.49167,26
4.50000,27
4.50833,28
4.51667,29
4.52500,30
4.53333,30
4.54167,31
4.55000,31
4.55833,32
4.56667,32
4.57500,33
4.58333,34
4.59167,34
4.60000,35
4.60833,35
4.61667,36
4.62500,37
4.63333,37
4.64167,38
4.65000,38
4.65833,39
4.66667,39
4.67500,40
4.68333,41
4.69167,41
4.70000,42
4.70833,43
4.71667,43
4.72500,43
4.73333,44
4.74167,44
4.75000,45
4.75833,46
4.76667,46
4.77500,47
4.78333,48
4.79167,48
4.80000,49
4.80833,49
4.81667,50
4.82500,50
4.83333,50
4.84167,50
4.85000,50
4.85833,50
4.86667,50
4.87500,50
4.88333,51
4.89167,52
4.90000,52
4.90833,53
4.91667,53
4.92500,53
4.93333,54
4.94167,54
4.95000,55
4.95833,55
4.96667,55
4.97500,55
4.98333,56
4.99167,56
5.00000,56
5.00833,56
5.01667,56
5.02500,57
5.03333,57
5.04167,56
5.05000,56
5.05833,56
5.06667,56
5.07500,56
5.08333,56
5.09167,56
5.10000,56
5.10833,56
5.11667,56
5.12500,56
5.13333,55
5.14167,55
5.15000,55
5.15833,55
5.16667,55
5.17500,56
5.18333,56
5.19167,56
5.20000,56
5.20833,56
5.21667,56
5.22500,55
5.23333,55
5.24167,55
5.25000,54
5.25833,54
5.26667,54
5.27500,54
5.28333,53
5.29167,53
5.30000,53
5.30833,52
5.31667,52
5.32500,52
5.33333,52
5.34167,51
5.35000,51
5.35833,50
5.36667,50
5.37500,50
5.38333,49
5.39167,49
5.40000,49
5.40833,48
5.41667,48
5.42500,47
5.43333,47
5.44167,46
5.45000,46
5.45833,45
5.46667,45
5.47500,45
5.48333,45
5.49167,44
5.50000,43
5.50833,43
5.51667,42
5.52500,42
5.53333,41
5.54167,41
5.55000,41
5.55833,40
5.56667,40
5.57500,39
5.58333,39
5.59167,38
5.60000,38
5.60833,37
5.61667,37
5.62500,36
5.63333,35
5.64167,35
5.65000,34
5.65833,33
5.66667,32
5.67500,32
5.68333,31
5.69167,30
5.70000,30
5.70833,30
5.71667,29
5.72500,28
5.73333,27
5.74167,26
5.75000,25
5.75833,25
5.76667,24
5.77500,23
5.78333,23
5.79167,22
5.80000,21
5.80833,20
5.81667,20
5.82500,19
5.83333,19
5.84167,18
5.85000,17
5.85833,16
5.86667,15
5.87500,14
5.88333,13
5.89167,13
5.90000,12
5.90833,11
5.91667,11
5.92500,10
5.93333,10
5.94167,9
5.95000,8
5.95833,7
5.96667,6
5.97500,5
5.98333,5
5.99167,3
6.00000,2
6.00833,1
6.01667,-0
6.02500,-1
6.03333,-2
6.04167,-3
6.05000,-3
6.05833,-4
6.06667,-5
6.07500,-6
6.08333,-7
6.09167,-7
6.10000,-8
6.10833,-8
6.11667,-9
6.12500,-10
6.13333,-10
6.14167,-10
6.15000,-11
6.15833,-12
6.16667,-13
6.17500,-14
6.18333,-14
6.19167,-15
6.20000,-16
6.20833,-17
6.21667,-17
6.22500,-18
6.23333,-19
6.24167,-20
6.25000,-21
6.25833,-21
6.26667,-22
6.27500,-22
6.28333,-23
6.29167,-24
6.30000,-24
6.30833,-25
6.31667,-25
6.32500,-26
6.33333,-27
6.34167,-28
6.35000,-28
6.35833,-29
6.36667,-29
6.37500,-30
6.38333,-30
6.39167,-30
6.40000,-30
6.40833,-31
6.41667,-31
6.42500,-32
6.43333,-33
6.44167,-33
6.45000,-34
6.45833,-35
6.46667,-35
6.47500,-36
6.48333,-36
6.49167,-37
6.50000,-37
6.50833,-37
6.51667,-37
6.52500,-38
6.53333,-38
6.54167,-39
6.55000,-39
6.55833,-40
6.56667,-40
6.57500,-40
6.58333,-40
6.59167,-41
6.60000,-41
6.60833,-41
6.61667,-41
6.62500,-42
6.63333,-42
6.64167,-43
6.65000,-43
6.65833,-43
6.66667,-43
6.67500,-43
6.68333,-43
6.69167,-43
6.70000,-43
6.70833,-44
6.71667,-44
6.72500,-44
6.73333,-45
6.74167,-45
6.75000,-45
6.75833,-45
6.76667,-46
6.77500,-46
6.78333,-46
6.79167,-46
6.80000,-46
6.80833,-47
6.81667,-47
6.82500,-47
6.83333,-48
6.84167,-48
6.85000,-48
6.85833,-48
6.86667,-48
6.87500,-48
6.88333,-48
6.89167,-48
6.90000,-48
6.90833,-48
6.91667,-48
6.92500,-48
6.93333,-48
6.94167,-49
6.95000,-49
6.95833,-49
6.96667,-49
6.97500,-49
6.98333,-49
6.99167,-49
7.00000,-49
7.00833,-49
7.01667,-49
7.02500,-49
7.03333,-49
7.04167,-49
7.05000,-49
7.05833,-49
7.06667,-49
7.07500,-49
7.08333,-49
7.09167,-49
7.10000,-49
7.10833,-49
7.11667,-49
7.12500,-49
7.13333,-49
7.14167,-50
7.15000,-50
7.15833,-50
7.16667,-50
7.17500,-50
7.18333,-51
7.19167,-51
7.20000,-51
7.20833,-51
7.21667,-51
7.22500,-51
7.23333,-51
7.24167,-51
7.25000,-51
7.25833,-51
7.26667,-51
7.27500,-51
7.28333,-51
7.29167,-51
7.30000,-51
7.30833,-51
7.31667,-51
7.32500,-51
7.33333,-51
7.34167,-50
7.35000,-50
7.35833,-51
7.36667,-51
7.37500,-51
7.38333,-51
7.39167,-51
7.40000,-51
7.40833,-51
7.41667,-51
7.42500,-51
7.43333,-51
7.44167,-51
7.45000,-52
7.45833,-51
7.46667,-51
7.47500,-51
7.48333,-51
7.49167,-51
7.50000,-51
7.50833,-51
7.51667,-51
7.52500,-51
7.53333,-51
7.54167,-51
7.55000,-51
7.55833,-51
7.56667,-51
7.57500,-51
7.58333,-51
7.59167,-51
7.60000,-51
7.60833,-52
7.61667,-52
7.62500,-52
7.63333,-52
7.64167,-52
7.65000,-52
7.65833,-52
7.66667,-52
7.67500,-52
7.68333,-51
7.69167,-51
7.70000,-52
7.70833,-52
7.71667,-51
7.72500,-51
7.73333,-51
7.74167,-52
7.75000,-52
7.75833,-52
7.76667,-52
7.77500,-51
7.78333,-51
7.79167,-51
7.80000,-51
7.80833,-51
7.81667,-51
7.82500,-51
7.83333,-52
7.84167,-52
7.85000,-52
7.85833,-52
7.86667,-52
7.87500,-52
7.88333,-52
7.89167,-52
7.90000,-53
7.90833,-53
7.91667,-53
7.92500,-53
7.93333,-53
7.94167,-53
7.95000,-53
7.95833,-53
7.96667,-53
7.97500,-52
7.98333,-52
7.99167,-53
8.00000,-53
8.00833,-53
8.01667,-53
8.02500,-53
8.03333,-53
8.04167,-52
8.05000,-53
8.05833,-53
8.06667,-52
8.07500,-52
8.08333,-52
8.09167,-52
8.10000,-52
8.10833,-52
8.11667,-52
8.12500,-52
8.13333,-53
8.14167,-53
8.15000,-54
8.15833,-54
8.16667,-54
8.17500,-54
8.18333,-54
8.19167,-54
8.20000,-54
8.20833,-54
8.21667,-54
8.22500,-54
8.23333,-54
8.24167,-54
8.25000,-54
8.25833,-54
8.26667,-54
8.27500,-54
8.28333,-54
8.29167,-54
8.30000,-54
8.30833,-54
8.31667,-54
8.32500,-54
8.33333,-54
8.34167,-54
8.35000,-54
8.35833,-53
8.36667,-53
8.37500,-53
8.38333,-53
8.39167,-53
8.40000,-54
8.40833,-54
8.41667,-54
8.42500,-55
8.43333,-54
8.44167,-54
8.45000,-54
8.45833,-54
8.46667,-54
8.47500,-54
8.48333,-55
8.49167,-55
8.50000,-55
8.50833,-55
8.51667,-54
8.52500,-54
8.53333,-54
8.54167,-54
8.55000,-54
8.55833,-54
8.56667,-55
8.57500,-55
8.58333,-54
8.59167,-54
8.60000,-54
8.60833,-54
8.61667,-55
8.62500,-54
8.63333,-54
8.64167,-55
8.65000,-55
8.65833,-55
8.66667,-55
8.67500,-55
8.68333,-55
8.69167,-55
8.70000,-55
8.70833,-55
8.71667,-55
8.72500,-55
8.73333,-55
8.74167,-55
8.75000,-54
8.75833,-54
8.76667,-54
8.77500,-54
8.78333,-53
8.79167,-53
8.80000,-53
8.80833,-53
8.81667,-54
8.82500,-54
8.83333,-54
8.84167,-55
8.85000,-54
8.85833,-54
8.86667,-54
8.87500,-54
8.88333,-54
8.89167,-55
8.90000,-54
8.90833,-54
8.91667,-54
8.92500,-54
8.93333,-54
8.94167,-54
8.95000,-54
8.95833,-54
8.96667,-54
8.97500,-54
8.98333,-54
8.99167,-54
9.00000,-54
9.00833,-54
9.01667,-54
9.02500,-54
9.03333,-54
9.04167,-54
9.05000,-54
9.05833,-54
9.06667,-54
9.07500,-55
9.08333,-55
9.09167,-55
9.10000,-55
9.10833,-55
9.11667,-55
9.12500,-55
9.13333,-55
9.14167,-55
9.15000,-55
9.15833,-55
9.16667,-56
9.17500,-56
9.18333,-55
9.19167,-55
9.20000,-55
9.20833,-54
9.21667,-55
9.22500,-55
9.23333,-55
9.24167,-55
9.25000,-55
9.25833,-55
9.26667,-55
9.27500,-55
9.28333,-55
9.29167,-55
9.30000,-55
9.30833,-54
9.31667,-54
9.32500,-55
9.33333,-55
9.34167,-55
9.35000,-54
9.35833,-54
9.36667,-54
9.37500,-54
9.38333,-54
9.39167,-54
9.40000,-54
9.40833,-54
9.41667,-54
9.42500,-54
9.43333,-54
9.44167,-55
9.45000,-55
9.45833,-55
9.46667,-55
9.47500,-54
9.48333,-53
9.49167,-53
9.50000,-53
9.50833,-53
9.51667,-53
9.52500,-52
9.53333,-52
9.54167,-52
9.55000,-52
9.55833,-52
9.56667,-52
9.57500,-52
9.58333,-52
9.59167,-52
9.60000,-52
9.60833,-52
9.61667,-52
9.62500,-52
9.63333,-52
9.64167,-53
9.65000,-53
9.65833,-53
9.66667,-53
9.67500,-53
9.68333,-53
9.69167,-53
9.70000,-53
9.70833,-53
9.71667,-53
9.72500,-53
9.73333,-52
9.74167,-52
9.75000,-52
9.75833,-52
9.76667,-52
9.77500,-52
9.78333,-52
9.79167,-52
9.80000,-52
9.80833,-53
9.81667,-52
9.82500,-52
9.83333,-52
9.84167,-52
9.85000,-52
9.85833,-51
9.86667,-51
9.87500,-51
9.88333,-51
9.89167,-51
9.90000,-52
9.90833,-52
9.91667,-52
9.92500,-51
9.93333,-51
9.94167,-51
9.95000,-51
9.95833,-51
9.96667,-51
9.97500,-50
9.98333,-50
9.99167,-50
10.00000,-50
10.00833,-49
10.01667,-49
10.02500,-48
10.03333,-48
10.04167,-48
10.05000,-48
10.05833,-48
10.06667,-47
10.07500,-47
10.08333,-47
10.09167,-47
10.10000,-46
10.10833,-45
10.11667,-44
10.12500,-44
10.13333,-43
10.14167,-43
10.15000,-42
10.15833,-41
10.16667,-40
10.17500,-39
10.18333,-38
10.19167,-37
10.20000,-35
10.20833,-34
10.21667,-32
10.22500,-31
10.23333,-29
10.24167,-27
10.25000,-25
10.25833,-22
10.26667,-20
10.27500,-17
10.28333,-13
10.29167,-10
10.30000,-5
10.30833,1
10.31667,7
10.32500,15
10.33333,24
10.34167,35
10.35000,47
10.35833,61
10.36667,77
10.37500,94
10.38333,113
10.39167,133
10.40000,154
10.40833,174
10.41667,195
10.42500,214
10.43333,232
10.44167,248
10.45000,261
10.45833,270
10.46667,276
10.47500,279
10.48333,278
10.49167,276
10.50000,274
10.50833,274
10.51667,278
10.52500,289
10.53333,311
10.54167,349
10.55000,406
10.55833,489
10.56667,602
10.57500,751
10.58333,943
10.59167,1182
10.60000,1476
10.60833,1831
10.61667,2254
10.62500,2748
10.63333,3322
10.64167,3980
10.65000,4727
10.65833,5569
10.66667,6510
10.67500,7554
10.68333,8706
10.69167,9969
10.70000,11345
10.70833,12839
10.71667,14451
10.72500,16184
10.73333,18039
10.74167,20017
10.75000,22119
10.75833,24346
10.76667,26695
10.77500,29168
10.78333,31763
10.79167,34478
10.80000,37310
10.80833,40258
10.81667,43319
10.82500,46487
10.83333,49760
10.84167,53131
10.85000,56594
10.85833,60142
10.86667,63765
10.87500,67453
10.88333,71195
10.89167,74974
10.90000,78776
10.90833,82580
10.91667,86361
10.92500,90094
10.93333,93747
10.94167,97284
10.95000,100663
10.95833,103839
10.96667,106764
10.97500,109383
10.98333,111641
10.99167,113482
11.00000,114849
11.00833,115689
11.01667,115956
11.02500,115609
11.03333,114622
11.04167,112980
11.05000,110687
11.05833,107762
11.06667,104245
11.07500,100190
11.08333,95668
11.09167,90763
11.10000,85565
11.10833,80169
11.11667,74672
11.12500,69162
11.13333,63725
11.14167,58433
11.15000,53347
11.15833,48517
11.16667,43979
11.17500,39754
11.18333,35857
11.19167,32291
11.20000,29051
11.20833,26126
11.21667,23500
11.22500,21153
11.23333,19065
11.24167,17214
11.25000,15577
11.25833,14132
11.26667,12858
11.27500,11738
11.28333,10752
11.29167,9885
11.30000,9121
11.30833,8446
11.31667,7851
11.32500,7323
11.33333,6854
11.34167,6436
11.35000,6062
11.35833,5726
11.36667,5424
11.37500,5151
11.38333,4902
11.39167,4675
11.40000,4466
11.40833,4275
11.41667,4097
11.42500,3933
11.43333,3780
11.44167,3637
11.45000,3502
11.45833,3375
11.46667,3255
11.47500,3142
11.48333,3035
11.49167,2932
11.50000,2835
11.50833,2743
11.51667,2655
11.52500,2570
11.53333,2489
11.54167,2412
11.55000,2338
11.55833,2267
11.56667,2198
11.57500,2133
11.58333,2070
11.59167,2009
11.60000,1951
11.60833,1896
11.61667,1843
11.62500,1791
11.63333,1741
11.64167,1693
11.65000,1647
11.65833,1603
11.66667,1561
11.67500,1520
11.68333,1481
11.69167,1443
11.70000,1407
11.70833,1372
11.71667,1338
11.72500,1306
11.73333,1275
11.74167,1245
11.75000,1216
11.75833,1188
11.76667,1162
11.77500,1136
11.78333,1111
11.79167,1088
11.80000,1065
11.80833,1044
11.81667,1023
11.82500,1004
11.83333,985
11.84167,967
11.85000,949
11.85833,933
11.86667,916
11.87500,901
11.88333,886
11.89167,871
11.90000,858
11.90833,844
11.91667,831
11.92500,819
11.93333,808
11.94167,796
11.95000,786
11.95833,776
11.96667,766
11.97500,757
11.98333,748
11.99167,740
12.00000,732
12.00833,724
12.01667,716
12.02500,708
12.03333,701
12.04167,694
12.05000,688
12.05833,682
12.06667,676
12.07500,670
12.08333,665
12.09167,659
12.10000,654
12.10833,650
12.11667,645
12.12500,641
12.13333,637
12.14167,633
12.15000,630
12.15833,626
12.16667,623
12.17500,620
12.18333,617
12.19167,614
12.20000,611
12.20833,609
12.21667,608
12.22500,606
12.23333,604
12.24167,603
12.25000,602
12.25833,601
12.26667,600
12.27500,600
12.28333,599
12.29167,598
12.30000,598
12.30833,597
12.31667,597
12.32500,596
12.33333,596
12.34167,596
12.35000,596
12.35833,596
12.36667,596
12.37500,596
12.38333,596
12.39167,596
12.40000,596
12.40833,596
12.41667,595
12.42500,594
12.43333,593
12.44167,593
12.45000,592
12.45833,591
12.46667,591
12.47500,590
12.48333,588
12.49167,587
12.50000,586
12.50833,585
12.51667,584
12.52500,582
12.53333,581
12.54167,579
12.55000,577
12.55833,575
12.56667,573
12.57500,571
12.58333,569
12.59167,567
12.60000,565
12.60833,564
12.61667,563
12.62500,561
12.63333,559
12.64167,558
12.65000,557
12.65833,557
12.66667,557
12.67500,557
12.68333,558
12.69167,560
12.70000,563
12.70833,567
12.71667,573
12.72500,580
12.73333,588
12.74167,599
12.75000,611
12.75833,626
12.76667,644
12.77500,664
12.78333,688
12.79167,714
12.80000,745
12.80833,779
12.81667,817
12.82500,859
12.83333,906
12.84167,958
12.85000,1014
12.85833,1075
12.86667,1142
12.87500,1213
12.88333,1290
12.89167,1372
12.90000,1460
12.90833,1554
12.91667,1653
12.92500,1758
12.93333,1868
12.94167,1985
12.95000,2107
12.95833,2236
12.96667,2370
12.97500,2511
12.98333,2657
12.99167,2809
13.00000,2967
13.00833,3131
13.01667,3301
13.02500,3476
13.03333,3657
13.04167,3844
13.05000,4036
13.05833,4234
13.06667,4437
13.07500,4645
13.08333,4859
13.09167,5078
13.10000,5302
13.10833,5532
13.11667,5766
13.12500,6004
13.13333,6248
13.14167,6496
13.15000,6749
13.15833,7006
13.16667,7267
13.17500,7532
13.18333,7802
13.19167,8075
13.20000,8353
13.20833,8634
13.21667,8919
13.22500,9208
13.23333,9501
13.24167,9797
13.25000,10096
13.25833,10400
13.26667,10706
13.27500,11016
13.28333,11329
13.29167,11645
13.30000,11965
13.30833,12288
13.31667,12613
13.32500,12942
13.33333,13274
13.34167,13609
13.35000,13946
13.35833,14287
13.36667,14630
13.37500,14977
13.38333,15327
13.39167,15679
13.40000,16035
13.40833,16393
13.41667,16754
13.42500,17119
13.43333,17486
13.44167,17856
13.45000,18230
13.45833,18606
13.46667,18985
13.47500,19367
13.48333,19753
13.49167,20141
13.50000,20532
13.50833,20927
13.51667,21324
13.52500,21725
13.53333,22129
13.54167,22536
13.55000,22946
13.55833,23359
13.56667,23776
13.57500,24196
13.58333,24620
13.59167,25047
13.60000,25477
13.60833,25911
13.61667,26348
13.62500,26789
13.63333,27234
13.64167,27682
13.65000,28133
13.65833,28589
13.66667,29047
13.67500,29510
13.68333,29976
13.69167,30446
13.70000,30919
13.70833,31397
13.71667,31878
13.72500,32364
13.73333,32853
13.74167,33346
13.75000,33843
13.75833,34345
13.76667,34850
13.77500,35360
13.78333,35874
13.79167,36392
13.80000,36915
13.80833,37442
13.81667,37973
13.82500,38508
13.83333,39048
13.84167,39593
13.85000,40142
13.85833,40695
13.86667,41254
13.87500,41817
13.88333,42385
13.89167,42958
13.90000,43535
13.90833,44118
13.91667,44706
13.92500,45299
13.93333,45896
13.94167,46499
13.95000,47107
13.95833,47720
13.96667,48338
13.97500,48963
13.98333,49592
13.99167,50227
14.00000,50868
14.00833,51515
14.01667,52168
14.02500,52826
14.03333,53490
14.04167,54160
14.05000,54835
14.05833,55517
14.06667,56205
14.07500,56899
14.08333,57599
14.09167,58305
14.10000,59018
14.10833,59738
14.11667,60464
14.12500,61197
14.13333,61936
14.14167,62682
14.15000,63436
14.15833,64196
14.16667,64963
14.17500,65738
14.18333,66519
14.19167,67308
14.20000,68103
14.20833,68902
14.21667,69705
14.22500,70508
14.23333,71306
14.24167,72096
14.25000,72869
14.25833,73616
14.26667,74329
14.27500,74995
14.28333,75603
14.29167,76139
14.30000,76591
14.30833,76947
14.31667,77196
14.32500,77327
14.33333,77332
14.34167,77204
14.35000,76938
14.35833,76528
14.36667,75971
14.37500,75265
14.38333,74407
14.39167,73396
14.40000,72229
14.40833,70904
14.41667,69419
14.42500,67773
14.43333,65965
14.44167,63997
14.45000,61874
14.45833,59602
14.46667,57191
14.47500,54655
14.48333,52013
14.49167,49285
14.50000,46495
14.50833,43669
14.51667,40835
14.52500,38019
14.53333,35249
14.54167,32549
14.55000,29942
14.55833,27446
14.56667,25079
14.57500,22851
14.58333,20770
14.59167,18842
14.60000,17067
14.60833,15444
14.61667,13967
14.62500,12632
14.63333,11430
14.64167,10353
14.65000,9390
14.65833,8533
14.66667,7772
14.67500,7098
14.68333,6501
14.69167,5974
14.70000,5507
14.70833,5095
14.71667,4731
14.72500,4409
14.73333,4124
14.74167,3870
14.75000,3644
14.75833,3444
14.76667,3264
14.77500,3103
14.78333,2958
14.79167,2827
14.80000,2709
14.80833,2601
14.81667,2502
14.82500,2412
14.83333,2329
14.84167,2253
14.85000,2182
14.85833,2116
14.86667,2054
14.87500,1996
14.88333,1942
14.89167,1892
14.90000,1844
14.90833,1799
14.91667,1757
14.92500,1716
14.93333,1678
14.94167,1642
14.95000,1607
14.95833,1575
14.96667,1544
14.97500,1515
14.98333,1486
14.99167,1460
15.00000,1434
15.00833,1411
15.01667,1388
15.02500,1367
15.03333,1346
15.04167,1327
15.05000,1308
15.05833,1291
15.06667,1274
15.07500,1259
15.08333,1244
15.09167,1231
15.10000,1218
15.10833,1206
15.11667,1195
15.12500,1185
15.13333,1176
15.14167,1167
15.15000,1160
15.15833,1154
15.16667,1150
15.17500,1147
15.18333,1147
15.19167,1149
15.20000,1154
15.20833,1162
15.21667,1175
15.22500,1192
15.23333,1216
15.24167,1247
15.25000,1286
15.25833,1334
15.26667,1395
15.27500,1468
15.28333,1557
15.29167,1663
15.30000,1788
15.30833,1936
15.31667,2109
15.32500,2309
15.33333,2541
15.34167,2807
15.35000,3109
15.35833,3451
15.36667,3836
15.37500,4267
15.38333,4747
15.39167,5279
15.40000,5865
15.40833,6507
15.41667,7206
15.42500,7965
15.43333,8782
15.44167,9659
15.45000,10596
15.45833,11590
15.46667,12642
15.47500,13748
15.48333,14905
15.49167,16109
15.50000,17357
15.50833,18643
15.51667,19963
15.52500,21312
15.53333,22682
15.54167,24068
15.55000,25461
15.55833,26857
15.56667,28248
15.57500,29627
15.58333,30987
15.59167,32322
15.60000,33625
15.60833,34890
15.61667,36113
15.62500,37287
15.63333,38407
15.64167,39470
15.65000,40472
15.65833,41408
15.66667,42276
15.67500,43072
15.68333,43796
15.69167,44444
15.70000,45016
15.70833,45510
15.71667,45925
15.72500,46261
15.73333,46517
15.74167,46693
15.75000,46789
15.75833,46805
15.76667,46743
15.77500,46602
15.78333,46385
15.79167,46091
15.80000,45723
15.80833,45283
15.81667,44772
15.82500,44192
15.83333,43546
15.84167,42837
15.85000,42068
15.85833,41242
15.86667,40362
15.87500,39434
15.88333,38460
15.89167,37445
15.90000,36393
15.90833,35309
15.91667,34198
15.92500,33064
15.93333,31913
15.94167,30748
15.95000,29575
15.95833,28398
15.96667,27222
15.97500,26051
15.98333,24890
15.99167,23742
16.00000,22611
16.00833,21501
16.01667,20415
16.02500,19355
16.03333,18325
16.04167,17325
16.05000,16360
16.05833,15429
16.06667,14534
16.07500,13675
16.08333,12855
16.09167,12072
16.10000,11327
16.10833,10620
16.11667,9951
16.12500,9319
16.13333,8724
16.14167,8165
16.15000,7640
16.15833,7148
16.16667,6688
16.17500,6260
16.18333,5861
16.19167,5490
16.20000,5146
16.20833,4827
16.21667,4532
16.22500,4260
16.23333,4008
16.24167,3776
16.25000,3563
16.25833,3367
16.26667,3187
16.27500,3021
16.28333,2869
16.29167,2730
16.30000,2603
16.30833,2486
16.31667,2379
16.32500,2281
16.33333,2191
16.34167,2108
16.35000,2032
16.35833,1962
16.36667,1899
16.37500,1840
16.38333,1786
16.39167,1735
16.40000,1689
16.40833,1646
16.41667,1607
16.42500,1570
16.43333,1535
16.44167,1502
16.45000,1472
16.45833,1444
16.46667,1417
16.47500,1392
16.48333,1368
16.49167,1345
16.50000,1323
16.50833,1302
16.51667,1282
16.52500,1262
16.53333,1243
16.54167,1225
16.55000,1207
16.55833,1190
16.56667,1172
16.57500,1155
16.58333,1139
16.59167,1122
16.60000,1106
16.60833,1090
16.61667,1074
16.62500,1059
16.63333,1044
16.64167,1030
16.65000,1015
16.65833,1001
16.66667,987
16.67500,974
16.68333,960
16.69167,948
16.70000,935
16.70833,923
16.71667,912
16.72500,900
16.73333,890
16.74167,880
16.75000,870
16.75833,862
16.76667,853
16.77500,846
16.78333,839
16.79167,832
16.80000,825
16.80833,820
16.81667,814
16.82500,809
16.83333,804
16.84167,800
16.85000,796
16.85833,793
16.86667,790
16.87500,787
16.88333,784
16.89167,781
16.90000,779
16.90833,777
16.91667,775
16.92500,774
16.93333,772
16.94167,771
16.95000,770
16.95833,769
16.96667,768
16.97500,766
16.98333,765
16.99167,764
17.00000,763
17.00833,762
17.01667,760
17.02500,759
17.03333,758
17.04167,756
17.05000,754
17.05833,753
17.06667,752
17.07500,750
17.08333,749
17.09167,747
17.10000,746
17.10833,744
17.11667,742
17.12500,740
17.13333,738
17.14167,736
17.15000,734
17.15833,731
17.16667,729
17.17500,726
17.18333,723
17.19167,720
17.20000,717
17.20833,714
17.21667,711
17.22500,708
17.23333,704
17.24167,701
17.25000,697
17.25833,693
17.26667,689
17.27500,685
17.28333,681
17.29167,677
17.30000,673
17.30833,669
17.31667,664
17.32500,660
17.33333,656
17.34167,653
17.35000,649
17.35833,646
17.36667,642
17.37500,639
17.38333,636
17.39167,634
17.40000,631
17.40833,629
17.41667,627
17.42500,626
17.43333,625
17.44167,624
17.45000,623
17.45833,623
17.46667,623
17.47500,624
17.48333,625
17.49167,627
17.50000,629
17.50833,631
17.51667,634
17.52500,637
17.53333,640
17.54167,643
17.55000,647
17.55833,651
17.56667,655
17.57500,660
17.58333,665
17.59167,670
17.60000,675
17.60833,681
17.61667,687
17.62500,692
17.63333,698
17.64167,704
17.65000,710
17.65833,716
17.66667,722
17.67500,727
17.68333,733
17.69167,739
17.70000,744
17.70833,749
17.71667,754
17.72500,759
17.73333,764
17.74167,769
17.75000,774
17.75833,778
17.76667,782
17.77500,786
17.78333,790
17.79167,793
17.80000,796
17.80833,799
17.81667,801
17.82500,803
17.83333,805
17.84167,806
17.85000,807
17.85833,808
17.86667,808
17.87500,807
17.88333,807
17.89167,805
17.90000,804
17.90833,802
17.91667,800
17.92500,797
17.93333,794
17.94167,791
17.95000,787
17.95833,783
17.96667,779
17.97500,774
17.98333,768
17.99167,762
18.00000,756
18.00833,750
18.01667,744
18.02500,737
18.03333,730
18.04167,723
18.05000,715
18.05833,708
18.06667,700
18.07500,693
18.08333,685
18.09167,677
18.10000,669
18.10833,661
18.11667,653
18.12500,645
18.13333,637
18.14167,629
18.15000,621
18.15833,614
18.16667,606
18.17500,599
18.18333,592
18.19167,585
18.20000,578
18.20833,571
18.21667,564
18.22500,558
18.23333,552
18.24167,546
18.25000,540
18.25833,535
18.26667,530
18.27500,524
18.28333,519
18.29167,515
18.30000,510
18.30833,506
18.31667,503
18.32500,499
18.33333,496
18.34167,493
18.35000,490
18.35833,488
18.36667,487
18.37500,486
18.38333,485
18.39167,484
18.40000,484
18.40833,484
18.41667,484
18.42500,484
18.43333,484
18.44167,485
18.45000,486
18.45833,488
18.46667,489
18.47500,491
18.48333,494
18.49167,497
18.50000,500
18.50833,503
18.51667,506
18.52500,509
18.53333,512
18.54167,516
18.55000,520
18.55833,523
18.56667,527
18.57500,531
18.58333,535
18.59167,539
18.60000,544
18.60833,548
18.61667,553
18.62500,558
18.63333,563
18.64167,568
18.65000,572
18.65833,577
18.66667,582
18.67500,587
18.68333,593
18.69167,598
18.70000,603
18.70833,608
18.71667,613
18.72500,617
18.73333,622
18.74167,627
18.75000,632
18.75833,637
18.76667,642
18.77500,647
18.78333,652
18.79167,657
18.80000,662
18.80833,666
18.81667,671
18.82500,676
18.83333,680
18.84167,685
18.85000,690
18.85833,694
18.86667,698
18.87500,702
18.88333,706
18.89167,710
18.90000,713
18.90833,717
18.91667,721
18.92500,724
18.93333,728
18.94167,731
18.95000,734
18.95833,737
18.96667,740
18.97500,742
18.98333,745
18.99167,747
19.00000,749
19.00833,752
19.01667,754
19.02500,756
19.03333,758
19.04167,759
19.05000,760
19.05833,761
19.06667,762
19.07500,762
19.08333,763
19.09167,763
19.10000,763
19.10833,763
19.11667,762
19.12500,761
19.13333,760
19.14167,759
19.15000,758
19.15833,757
19.16667,755
19.17500,753
19.18333,751
19.19167,749
19.20000,746
19.20833,743
19.21667,740
19.22500,737
19.23333,734
19.24167,730
19.25000,726
19.25833,722
19.26667,718
19.27500,713
19.28333,708
19.29167,704
19.30000,699
19.30833,694
19.31667,689
19.32500,683
19.33333,678
19.34167,672
19.35000,666
19.35833,660
19.36667,654
19.37500,648
19.38333,642
19.39167,636
19.40000,630
19.40833,623
19.41667,617
19.42500,610
19.43333,604
19.44167,598
19.45000,591
19.45833,584
19.46667,577
19.47500,571
19.48333,564
19.49167,557
19.50000,550
19.50833,544
19.51667,537
19.52500,531
19.53333,524
19.54167,518
19.55000,512
19.55833,506
19.56667,500
19.57500,494
19.58333,488
19.59167,482
19.60000,477
19.60833,472
19.61667,467
19.62500,462
19.63333,457
19.64167,452
19.65000,448
19.65833,444
19.66667,441
19.67500,437
19.68333,433
19.69167,430
19.70000,428
19.70833,425
19.71667,423
19.72500,421
19.73333,419
19.74167,418
19.75000,417
19.75833,416
19.76667,416
19.77500,417
19.78333,418
19.79167,419
19.80000,421
19.80833,423
19.81667,426
19.82500,430
19.83333,434
19.84167,438
19.85000,443
19.85833,450
19.86667,456
19.87500,463
19.88333,471
19.89167,479
19.90000,488
19.90833,497
19.91667,507
19.92500,518
19.93333,530
19.94167,542
19.95000,554
19.95833,567
19.96667,580
19.97500,594
19.98333,608
19.99167,622
20.00000,637
20.00833,653
20.01667,668
20.02500,684
20.03333,700
20.04167,715
20.05000,731
20.05833,747
20.06667,762
20.07500,778
20.08333,794
20.09167,810
20.10000,825
20.10833,840
20.11667,855
20.12500,869
20.13333,882
20.14167,895
20.15000,908
20.15833,920
20.16667,931
20.17500,943
20.18333,953
20.19167,963
20.20000,972
20.20833,981
20.21667,989
20.22500,996
20.23333,1003
20.24167,1009
20.25000,1014
20.25833,1019
20.26667,1023
20.27500,1026
20.28333,1029
20.29167,1031
20.30000,1033
20.30833,1033
20.31667,1034
20.32500,1033
20.33333,1032
20.34167,1030
20.35000,1028
20.35833,1026
20.36667,1023
20.37500,1020
20.38333,1017
20.39167,1013
20.40000,1009
20.40833,1005
20.41667,1001
20.42500,997
20.43333,993
20.44167,989
20.45000,985
20.45833,981
20.46667,978
20.47500,975
20.48333,972
20.49167,970
20.50000,968
20.50833,967
20.51667,967
20.52500,967
20.53333,967
20.54167,968
20.55000,970
20.55833,972
20.56667,976
20.57500,980
20.58333,985
20.59167,991
20.60000,997
20.60833,1004
20.61667,1012
20.62500,1021
20.63333,1031
20.64167,1041
20.65000,1052
20.65833,1064
20.66667,1075
20.67500,1086
20.68333,1098
20.69167,1111
20.70000,1122
20.70833,1134
20.71667,1146
20.72500,1158
20.73333,1171
20.74167,1183
20.75000,1195
20.75833,1207
20.76667,1218
20.77500,1228
20.78333,1238
20.79167,1249
20.80000,1258
20.80833,1268
20.81667,1277
20.82500,1285
20.83333,1293
20.84167,1300
20.85000,1307
20.85833,1313
20.86667,1318
20.87500,1323
20.88333,1328
20.89167,1331
20.90000,1334
20.90833,1337
20.91667,1339
20.92500,1340
20.93333,1341
20.94167,1341
20.95000,1341
20.95833,1340
20.96667,1339
20.97500,1337
20.98333,1335
20.99167,1332
21.00000,1329
21.00833,1326
21.01667,1323
21.02500,1319
21.03333,1314
21.04167,1310
21.05000,1305
21.05833,1300
21.06667,1296
21.07500,1291
21.08333,1286
21.09167,1281
21.10000,1277
21.10833,1272
21.11667,1268
21.12500,1264
21.13333,1261
21.14167,1257
21.15000,1254
21.15833,1252
21.16667,1250
21.17500,1248
21.18333,1247
21.19167,1246
21.20000,1245
21.20833,1245
21.21667,1246
21.22500,1247
21.23333,1248
21.24167,1249
21.25000,1250
21.25833,1252
21.26667,1253
21.27500,1256
21.28333,1258
21.29167,1260
21.30000,1263
21.30833,1265
21.31667,1268
21.32500,1271
21.33333,1275
21.34167,1278
21.35000,1282
21.35833,1285
21.36667,1288
21.37500,1292
21.38333,1295
21.39167,1299
21.40000,1302
21.40833,1306
21.41667,1309
21.42500,1313
21.43333,1317
21.44167,1321
21.45000,1324
21.45833,1328
21.46667,1333
21.47500,1337
21.48333,1341
21.49167,1346
21.50000,1350
21.50833,1354
21.51667,1359
21.52500,1363
21.53333,1367
21.54167,1371
21.55000,1375
21.55833,1379
21.56667,1383
21.57500,1386
21.58333,1389
21.59167,1392
21.60000,1394
21.60833,1396
21.61667,1397
21.62500,1398
21.63333,1398
21.64167,1398
21.65000,1397
21.65833,1396
21.66667,1394
21.67500,1392
21.68333,1388
21.69167,1384
21.70000,1379
21.70833,1374
21.71667,1367
21.72500,1360
21.73333,1353
21.74167,1345
21.75000,1337
21.75833,1328
21.76667,1318
21.77500,1308
21.78333,1298
21.79167,1287
21.80000,1276
21.80833,1265
21.81667,1254
21.82500,1243
21.83333,1231
21.84167,1219
21.85000,1207
21.85833,1194
21.86667,1182
21.87500,1170
21.88333,1158
21.89167,1146
21.90000,1133
21.90833,1121
21.91667,1109
21.92500,1096
21.93333,1084
21.94167,1072
21.95000,1060
21.95833,1048
21.96667,1036
21.97500,1024
21.98333,1011
21.99167,999
22.00000,987
22.00833,974
22.01667,961
22.02500,948
22.03333,934
22.04167,921
22.05000,907
22.05833,893
22.06667,878
22.07500,864
22.08333,849
22.09167,834
22.10000,819
22.10833,804
22.11667,788
22.12500,773
22.13333,757
22.14167,742
22.15000,726
22.15833,710
22.16667,694
22.17500,678
22.18333,661
22.19167,646
22.20000,630
22.20833,615
22.21667,600
22.22500,585
22.23333,570
22.24167,556
22.25000,542
22.25833,528
22.26667,515
22.27500,502
22.28333,490
22.29167,478
22.30000,466
22.30833,455
22.31667,444
22.32500,433
22.33333,423
22.34167,414
22.35000,404
22.35833,396
22.36667,388
22.37500,380
22.38333,372
22.39167,365
22.40000,359
22.40833,353
22.41667,347
22.42500,342
22.43333,337
22.44167,333
22.45000,329
22.45833,325
22.46667,321
22.47500,318
22.48333,315
22.49167,312
22.50000,310
22.50833,307
22.51667,306
22.52500,304
22.53333,303
22.54167,302
22.55000,301
22.55833,301
22.56667,301
22.57500,301
22.58333,302
22.59167,302
22.60000,303
22.60833,304
22.61667,304
22.62500,306
22.63333,307
22.64167,309
22.65000,312
22.65833,315
22.66667,317
22.67500,320
22.68333,324
22.69167,327
22.70000,331
22.70833,334
22.71667,338
22.72500,342
22.73333,346
22.74167,350
22.75000,355
22.75833,360
22.76667,365
22.77500,369
22.78333,375
22.79167,380
22.80000,385
22.80833,391
22.81667,396
22.82500,402
22.83333,407
22.84167,413
22.85000,418
22.85833,424
22.86667,429
22.87500,435
22.88333,440
22.89167,445
22.90000,451
22.90833,456
22.91667,461
22.92500,466
22.93333,470
22.94167,475
22.95000,480
22.95833,484
22.96667,488
22.97500,493
22.98333,497
22.99167,501
23.00000,504
23.00833,507
23.01667,511
23.02500,514
23.03333,517
23.04167,520
23.05000,523
23.05833,526
23.06667,528
23.07500,530
23.08333,533
23.09167,535
23.10000,536
23.10833,538
23.11667,539
23.12500,540
23.13333,540
23.14167,540
23.15000,541
23.15833,541
23.16667,540
23.17500,540
23.18333,539
23.19167,538
23.20000,537
23.20833,536
23.21667,534
23.22500,532
23.23333,530
23.24167,527
23.25000,525
23.25833,522
23.26667,519
23.27500,516
23.28333,513
23.29167,510
23.30000,506
23.30833,503
23.31667,499
23.32500,496
23.33333,492
23.34167,489
23.35000,485
23.35833,481
23.36667,477
23.37500,473
23.38333,469
23.39167,465
23.40000,462
23.40833,458
23.41667,455
23.42500,451
23.43333,448
23.44167,445
23.45000,442
23.45833,439
23.46667,436
23.47500,433
23.48333,430
23.49167,427
23.50000,425
23.50833,423
23.51667,420
23.52500,418
23.53333,415
23.54167,413
23.55000,411
23.55833,410
23.56667,408
23.57500,406
23.58333,404
23.59167,403
23.60000,401
23.60833,400
23.61667,399
23.62500,398
23.63333,397
23.64167,396
23.65000,395
23.65833,394
23.66667,393
23.67500,392
23.68333,391
23.69167,390
23.70000,390
23.70833,389
23.71667,389
23.72500,388
23.73333,387
23.74167,386
23.75000,385
23.75833,385
23.76667,384
23.77500,384
23.78333,383
23.79167,383
23.80000,382
23.80833,382
23.81667,381
23.82500,381
23.83333,380
23.84167,380
23.85000,380
23.85833,379
23.86667,379
23.87500,378
23.88333,377
23.89167,377
23.90000,376
23.90833,375
23.91667,375
23.92500,374
23.93333,373
23.94167,372
23.95000,372
23.95833,371
23.96667,371
23.97500,370
23.98333,369
23.99167,368
24.00000,368
24.00833,368
24.01667,367
24.02500,367
24.03333,366
24.04167,365
24.05000,365
24.05833,364
24.06667,363
24.07500,362
24.08333,362
24.09167,361
24.10000,360
24.10833,360
24.11667,360
24.12500,359
24.13333,358
24.14167,358
24.15000,358
24.15833,357
24.16667,356
24.17500,355
24.18333,355
24.19167,354
24.20000,353
24.20833,353
24.21667,353
24.22500,352
24.23333,352
24.24167,352
24.25000,352
24.25833,352
24.26667,353
24.27500,353
24.28333,353
24.29167,354
24.30000,354
24.30833,355
24.31667,357
24.32500,358
24.33333,360
24.34167,362
24.35000,364
24.35833,367
24.36667,369
24.37500,372
24.38333,376
24.39167,381
24.40000,386
24.40833,392
24.41667,399
24.42500,406
24.43333,415
24.44167,425
24.45000,437
24.45833,450
24.46667,464
24.47500,479
24.48333,495
24.49167,513
24.50000,533
24.50833,556
24.51667,580
24.52500,606
24.53333,635
24.54167,665
24.55000,698
24.55833,733
24.56667,770
24.57500,810
24.58333,853
24.59167,897
24.60000,945
24.60833,995
24.61667,1047
24.62500,1102
24.63333,1160
24.64167,1220
24.65000,1283
24.65833,1348
24.66667,1415
24.67500,1483
24.68333,1554
24.69167,1626
24.70000,1699
24.70833,1775
24.71667,1851
24.72500,1929
24.73333,2008
24.74167,2087
24.75000,2166
24.75833,2246
24.76667,2326
24.77500,2405
24.78333,2485
24.79167,2563
24.80000,2641
24.80833,2718
24.81667,2794
24.82500,2869
24.83333,2942
24.84167,3014
24.85000,3084
24.85833,3152
24.86667,3218
24.87500,3282
24.88333,3344
24.89167,3404
24.90000,3462
24.90833,3518
24.91667,3571
24.92500,3622
24.93333,3671
24.94167,3716
24.95000,3760
24.95833,3801
24.96667,3841
24.97500,3877
24.98333,3911
24.99167,3942
25.00000,3971
25.00833,3997
25.01667,4020
25.02500,4041
25.03333,4058
25.04167,4074
25.05000,4086
25.05833,4096
25.06667,4103
25.07500,4107
25.08333,4108
25.09167,4106
25.10000,4101
25.10833,4093
25.11667,4082
25.12500,4067
25.13333,4049
25.14167,4028
25.15000,4004
25.15833,3976
25.16667,3945
25.17500,3911
25.18333,3874
25.19167,3833
25.20000,3790
25.20833,3744
25.21667,3694
25.22500,3642
25.23333,3587
25.24167,3529
25.25000,3468
25.25833,3405
25.26667,3341
25.27500,3274
25.28333,3205
25.29167,3134
25.30000,3062
25.30833,2989
25.31667,2915
25.32500,2839
25.33333,2764
25.34167,2687
25.35000,2611
25.35833,2534
25.36667,2457
25.37500,2380
25.38333,2304
25.39167,2227
25.40000,2152
25.40833,2078
25.41667,2004
25.42500,1932
25.43333,1861
25.44167,1792
25.45000,1724
25.45833,1658
25.46667,1595
25.47500,1532
25.48333,1472
25.49167,1414
25.50000,1357
25.50833,1302
25.51667,1250
25.52500,1199
25.53333,1151
25.54167,1104
25.55000,1060
25.55833,1018
25.56667,977
25.57500,939
25.58333,902
25.59167,867
25.60000,834
25.60833,803
25.61667,773
25.62500,745
25.63333,718
25.64167,693
25.65000,669
25.65833,646
25.66667,626
25.67500,606
25.68333,588
25.69167,570
25.70000,553
25.70833,538
25.71667,524
25.72500,510
25.73333,497
25.74167,485
25.75000,474
25.75833,463
25.76667,452
25.77500,443
25.78333,434
25.79167,425
25.80000,417
25.80833,409
25.81667,402
25.82500,394
25.83333,387
25.84167,381
25.85000,374
25.85833,368
25.86667,362
25.87500,356
25.88333,351
25.89167,345
25.90000,340
25.90833,335
25.91667,330
25.92500,325
25.93333,320
25.94167,316
25.95000,311
25.95833,306
25.96667,302
25.97500,297
25.98333,292
25.99167,288
26.00000,283
26.00833,279
26.01667,274
26.02500,270
26.03333,265
26.04167,261
26.05000,257
26.05833,253
26.06667,248
26.07500,244
26.08333,240
26.09167,236
26.10000,231
26.10833,227
26.11667,223
26.12500,219
26.13333,215
26.14167,211
26.15000,208
26.15833,204
26.16667,201
26.17500,197
26.18333,194
26.19167,190
26.20000,187
26.20833,184
26.21667,181
26.22500,178
26.23333,175
26.24167,172
26.25000,169
26.25833,167
26.26667,165
26.27500,162
26.28333,160
26.29167,158
26.30000,156
26.30833,154
26.31667,152
26.32500,150
26.33333,148
26.34167,147
26.35000,145
26.35833,143
26.36667,142
26.37500,140
26.38333,139
26.39167,138
26.40000,137
26.40833,136
26.41667,135
26.42500,134
26.43333,133
26.44167,132
26.45000,131
26.45833,130
26.46667,130
26.47500,130
26.48333,129
26.49167,128
26.50000,128
26.50833,127
26.51667,127
26.52500,126
26.53333,126
26.54167,126
26.55000,126
26.55833,126
26.56667,126
26.57500,126
26.58333,126
26.59167,126
26.60000,126
26.60833,126
26.61667,126
26.62500,126
26.63333,126
26.64167,126
26.65000,126
26.65833,125
26.66667,125
26.67500,125
26.68333,125
26.69167,125
26.70000,125
26.70833,125
26.71667,125
26.72500,125
26.73333,125
26.74167,125
26.75000,126
26.75833,126
26.76667,126
26.77500,126
26.78333,126
26.79167,126
26.80000,126
26.80833,126
26.81667,126
26.82500,127
26.83333,127
26.84167,126
26.85000,126
26.85833,126
26.86667,126
26.87500,126
26.88333,126
26.89167,126
26.90000,126
26.90833,126
26.91667,127
26.92500,127
26.93333,127
26.94167,127
26.95000,127
26.95833,127
26.96667,127
26.97500,127
26.98333,127
26.99167,127
27.00000,127
27.00833,127
27.01667,127
27.02500,127
27.03333,127
27.04167,127
27.05000,127
27.05833,127
27.06667,127
27.07500,126
27.08333,126
27.09167,127
27.10000,127
27.10833,127
27.11667,127
27.12500,127
27.13333,127
27.14167,127
27.15000,127
27.15833,127
27.16667,127
27.17500,127
27.18333,128
27.19167,128
27.20000,128
27.20833,128
27.21667,128
27.22500,128
27.23333,127
27.24167,127
27.25000,128
27.25833,127
27.26667,127
27.27500,127
27.28333,127
27.29167,127
27.30000,127
27.30833,127
27.31667,126
27.32500,126
27.33333,125
27.34167,125
27.35000,125
27.35833,125
27.36667,125
27.37500,125
27.38333,125
27.39167,125
27.40000,124
27.40833,124
27.41667,124
27.42500,124
27.43333,124
27.44167,123
27.45000,123
27.45833,123
27.46667,122
27.47500,121
27.48333,120
27.49167,119
27.50000,119
27.50833,119
27.51667,118
27.52500,118
27.53333,118
27.54167,117
27.55000,117
27.55833,116
27.56667,116
27.57500,115
27.58333,114
27.59167,114
27.60000,113
27.60833,113
27.61667,112
27.62500,112
27.63333,111
27.64167,110
27.65000,110
27.65833,109
27.66667,109
27.67500,108
27.68333,107
27.69167,107
27.70000,106
27.70833,105
27.71667,105
27.72500,104
27.73333,103
27.74167,103
27.75000,102
27.75833,101
27.76667,100
27.77500,100
27.78333,99
27.79167,99
27.80000,98
27.80833,97
27.81667,97
27.82500,96
27.83333,95
27.84167,95
27.85000,95
27.85833,94
27.86667,94
27.87500,93
27.88333,93
27.89167,93
27.90000,92
27.90833,92
27.91667,91
27.92500,91
27.93333,90
27.94167,90
27.95000,90
27.95833,90
27.96667,90
27.97500,90
27.98333,90
27.99167,90
28.00000,90
28.00833,90
28.01667,90
28.02500,90
28.03333,90
28.04167,90
28.05000,90
28.05833,90
28.06667,90
28.07500,91
28.08333,91
28.09167,91
28.10000,91
28.10833,91
28.11667,91
28.12500,91
28.13333,91
28.14167,92
28.15000,92
28.15833,92
28.16667,93
28.17500,94
28.18333,94
28.19167,94
28.20000,94
28.20833,94
28.21667,94
28.22500,95
28.23333,96
28.24167,97
28.25000,97
28.25833,97
28.26667,97
28.27500,97
28.28333,97
28.29167,98
28.30000,99
28.30833,99
28.31667,100
28.32500,101
28.33333,102
28.34167,103
28.35000,103
28.35833,104
28.36667,105
28.37500,105
28.38333,107
28.39167,109
28.40000,110
28.40833,112
28.41667,115
28.42500,116
28.43333,119
28.44167,122
28.45000,125
28.45833,129
28.46667,133
28.47500,137
28.48333,142
28.49167,148
28.50000,154
28.50833,161
28.51667,168
28.52500,176
28.53333,184
28.54167,193
28.55000,203
28.55833,214
28.56667,226
28.57500,239
28.58333,253
28.59167,268
28.60000,284
28.60833,301
28.61667,320
28.62500,340
28.63333,361
28.64167,383
28.65000,408
28.65833,433
28.66667,460
28.67500,488
28.68333,518
28.69167,549
28.70000,582
28.70833,617
28.71667,653
28.72500,690
28.73333,729
28.74167,770
28.75000,811
28.75833,855
28.76667,899
28.77500,945
28.78333,992
28.79167,1040
28.80000,1090
28.80833,1140
28.81667,1191
28.82500,1243
28.83333,1296
28.84167,1350
28.85000,1404
28.85833,1459
28.86667,1515
28.87500,1570
28.88333,1626
28.89167,1681
28.90000,1737
28.90833,1792
28.91667,1847
28.92500,1901
28.93333,1956
28.94167,2009
28.95000,2061
28.95833,2113
28.96667,2164
28.97500,2214
28.98333,2263
28.99167,2311
29.00000,2357
29.00833,2402
29.01667,2446
29.02500,2488
29.03333,2529
29.04167,2568
29.05000,2605
29.05833,2641
29.06667,2675
29.07500,2707
29.08333,2738
29.09167,2767
29.10000,2795
29.10833,2821
29.11667,2845
29.12500,2867
29.13333,2888
29.14167,2907
29.15000,2924
29.15833,2940
29.16667,2955
29.17500,2967
29.18333,2979
29.19167,2988
29.20000,2997
29.20833,3004
29.21667,3009
29.22500,3013
29.23333,3016
29.24167,3017
29.25000,3016
29.25833,3013
29.26667,3010
29.27500,3004
29.28333,2998
29.29167,2990
29.30000,2980
29.30833,2969
29.31667,2956
29.32500,2942
29.33333,2926
29.34167,2909
29.35000,2890
29.35833,2870
29.36667,2848
29.37500,2825
29.38333,2800
29.39167,2774
29.40000,2746
29.40833,2717
29.41667,2686
29.42500,2653
29.43333,2620
29.44167,2585
29.45000,2548
29.45833,2511
29.46667,2472
29.47500,2432
29.48333,2391
29.49167,2348
29.50000,2304
29.50833,2259
29.51667,2214
29.52500,2168
29.53333,2121
29.54167,2073
29.55000,2025
29.55833,1976
29.56667,1927
29.57500,1877
29.58333,1828
29.59167,1778
29.60000,1728
29.60833,1678
29.61667,1629
29.62500,1579
29.63333,1530
29.64167,1481
29.65000,1432
29.65833,1384
29.66667,1336
29.67500,1289
29.68333,1242
29.69167,1197
29.70000,1153
29.70833,1109
29.71667,1066
29.72500,1024
29.73333,983
29.74167,944
29.75000,904
29.75833,866
29.76667,830
29.77500,794
29.78333,759
29.79167,726
29.80000,694
29.80833,663
29.81667,634
29.82500,605
29.83333,578
29.84167,551
29.85000,525
29.85833,501
29.86667,478
29.87500,455
29.88333,434
29.89167,414
29.90000,395
29.90833,376
29.91667,358
29.92500,341
29.93333,325
29.94167,310
29.95000,296
29.95833,282
29.96667,269
29.97500,257
29.98333,245
29.99167,233
30.00000,222
30.00833,212
30.01667,202
30.02500,193
30.03333,185
30.04167,176
30.05000,168
30.05833,161
30.06667,153
30.07500,146
30.08333,139
30.09167,132
30.10000,125
30.10833,119
30.11667,113
30.12500,107
30.13333,102
30.14167,96
30.15000,91
30.15833,85
30.16667,80
30.17500,74
30.18333,69
30.19167,65
30.20000,60
30.20833,54
30.21667,49
30.22500,44
30.23333,40
30.24167,35
30.25000,31
30.25833,26
30.26667,21
30.27500,16
30.28333,12
30.29167,7
30.30000,3
30.30833,-1
30.31667,-6
30.32500,-10
30.33333,-14
30.34167,-19
30.35000,-23
30.35833,-28
30.36667,-32
30.37500,-36
30.38333,-40
30.39167,-44
30.40000,-48
30.40833,-52
30.41667,-56
30.42500,-60
30.43333,-64
30.44167,-67
30.45000,-71
30.45833,-74
30.46667,-77
30.47500,-81
30.48333,-84
30.49167,-87
30.50000,-90
30.50833,-93
30.51667,-95
30.52500,-97
30.53333,-99
30.54167,-101
30.55000,-103
30.55833,-105
30.56667,-106
30.57500,-108
30.58333,-109
30.59167,-110
30.60000,-111
30.60833,-112
30.61667,-112
30.62500,-112
30.63333,-112
30.64167,-112
30.65000,-111
30.65833,-111
30.66667,-110
30.67500,-110
30.68333,-109
30.69167,-108
30.70000,-106
30.70833,-105
30.71667,-103
30.72500,-101
30.73333,-98
30.74167,-96
30.75000,-94
30.75833,-91
30.76667,-88
30.77500,-85
30.78333,-81
30.79167,-78
30.80000,-75
30.80833,-71
30.81667,-68
30.82500,-64
30.83333,-59
30.84167,-55
30.85000,-51
30.85833,-47
30.86667,-43
30.87500,-38
30.88333,-34
30.89167,-29
30.90000,-24
30.90833,-19
30.91667,-14
30.92500,-9
30.93333,-4
30.94167,1
30.95000,6
30.95833,11
30.96667,16
30.97500,21
30.98333,27
30.99167,31
31.00000,36
31.00833,41
31.01667,46
31.02500,51
31.03333,56
31.04167,61
31.05000,67
31.05833,72
31.06667,76
31.07500,81
31.08333,86
31.09167,90
31.10000,95
31.10833,99
31.11667,103
31.12500,108
31.13333,112
31.14167,116
31.15000,120
31.15833,123
31.16667,126
31.17500,129
31.18333,133
31.19167,136
31.20000,139
31.20833,141
31.21667,144
31.22500,146
31.23333,149
31.24167,151
31.25000,153
31.25833,155
31.26667,157
31.27500,159
31.28333,160
31.29167,162
31.30000,164
31.30833,165
31.31667,166
31.32500,167
31.33333,168
31.34167,169
31.35000,170
31.35833,171
31.36667,171
31.37500,171
31.38333,171
31.39167,172
31.40000,172
31.40833,172
31.41667,172
31.42500,172
31.43333,171
31.44167,171
31.45000,171
31.45833,171
31.46667,171
31.47500,170
31.48333,170
31.49167,170
31.50000,169
31.50833,168
31.51667,168
31.52500,168
31.53333,167
31.54167,167
31.55000,166
31.55833,166
31.56667,165
31.57500,165
31.58333,165
31.59167,164
31.60000,164
31.60833,163
31.61667,163
31.62500,163
31.63333,162
31.64167,162
31.65000,162
31.65833,162
31.66667,162
31.67500,162
31.68333,163
31.69167,163
31.70000,163
31.70833,164
31.71667,166
31.72500,167
31.73333,169
31.74167,170
31.75000,172
31.75833,173
31.76667,176
31.77500,178
31.78333,181
31.79167,184
31.80000,187
31.80833,190
31.81667,193
31.82500,197
31.83333,201
31.84167,204
31.85000,208
31.85833,212
31.86667,216
31.87500,221
31.88333,226
31.89167,231
31.90000,237
31.90833,242
31.91667,248
31.92500,253
31.93333,259
31.94167,265
31.95000,271
31.95833,278
31.96667,284
31.97500,290
31.98333,297
31.99167,304
32.00000,311
32.00833,318
32.01667,325
32.02500,333
32.03333,340
32.04167,347
32.05000,355
32.05833,362
32.06667,369
32.07500,376
32.08333,383
32.09167,390
32.10000,397
32.10833,403
32.11667,410
32.12500,417
32.13333,424
32.14167,431
32.15000,438
32.15833,444
32.16667,451
32.17500,457
32.18333,463
32.19167,469
32.20000,474
32.20833,480
32.21667,486
32.22500,491
32.23333,497
32.24167,502
32.25000,507
32.25833,512
32.26667,517
32.27500,522
32.28333,526
32.29167,531
32.30000,535
32.30833,540
32.31667,544
32.32500,548
32.33333,552
32.34167,556
32.35000,559
32.35833,562
32.36667,565
32.37500,568
32.38333,571
32.39167,574
32.40000,576
32.40833,579
32.41667,581
32.42500,582
32.43333,584
32.44167,586
32.45000,588
32.45833,589
32.46667,590
32.47500,591
32.48333,592
32.49167,593
32.50000,593
32.50833,593
32.51667,593
32.52500,594
32.53333,594
32.54167,593
32.55000,592
32.55833,591
32.56667,590
32.57500,589
32.58333,587
32.59167,585
32.60000,583
32.60833,581
32.61667,579
32.62500,576
32.63333,574
32.64167,571
32.65000,568
32.65833,566
32.66667,563
32.67500,559
32.68333,556
32.69167,553
32.70000,549
32.70833,545
32.71667,541
32.72500,538
32.73333,533
32.74167,529
32.75000,525
32.75833,521
32.76667,516
32.77500,512
32.78333,508
32.79167,504
32.80000,500
32.80833,495
32.81667,491
32.82500,487
32.83333,483
32.84167,479
32.85000,475
32.85833,471
32.86667,467
32.87500,464
32.88333,460
32.89167,457
32.90000,453
32.90833,450
32.91667,446
32.92500,443
32.93333,440
32.94167,437
32.95000,434
32.95833,431
32.96667,429
32.97500,426
32.98333,424
32.99167,422
33.00000,420
33.00833,418
33.01667,416
33.02500,415
33.03333,413
33.04167,411
33.05000,410
33.05833,408
33.06667,407
33.07500,405
33.08333,404
33.09167,403
33.10000,402
33.10833,400
33.11667,399
33.12500,398
33.13333,398
33.14167,397
33.15000,396
33.15833,395
33.16667,393
33.17500,392
33.18333,391
33.19167,390
33.20000,389
33.20833,387
33.21667,386
33.22500,385
33.23333,384
33.24167,383
33.25000,382
33.25833,380
33.26667,379
33.27500,377
33.28333,376
33.29167,374
33.30000,373
33.30833,371
33.31667,369
33.32500,368
33.33333,366
33.34167,364
33.35000,362
33.35833,360
33.36667,357
33.37500,355
33.38333,352
33.39167,350
33.40000,348
33.40833,346
33.41667,343
33.42500,341
33.43333,338
33.44167,336
33.45000,333
33.45833,330
33.46667,327
33.47500,324
33.48333,321
33.49167,318
33.50000,315
33.50833,312
33.51667,309
33.52500,306
33.53333,303
33.54167,300
33.55000,296
33.55833,293
33.56667,289
33.57500,286
33.58333,282
33.59167,278
33.60000,275
33.60833,271
33.61667,267
33.62500,264
33.63333,260
33.64167,256
33.65000,253
33.65833,249
33.66667,245
33.67500,241
33.68333,237
33.69167,233
33.70000,229
33.70833,226
33.71667,222
33.72500,219
33.73333,215
33.74167,211
33.75000,208
33.75833,204
33.76667,200
33.77500,196
33.78333,192
33.79167,188
33.80000,184
33.80833,180
33.81667,177
33.82500,173
33.83333,170
33.84167,166
33.85000,163
33.85833,160
33.86667,156
33.87500,153
33.88333,150
33.89167,146
33.90000,143
33.90833,140
33.91667,137
33.92500,134
33.93333,131
33.94167,128
33.95000,125
33.95833,122
33.96667,119
33.97500,117
33.98333,114
33.99167,112
34.00000,110
34.00833,107
34.01667,105
34.02500,103
34.03333,101
34.04167,99
34.05000,96
34.05833,94
34.06667,92
34.07500,90
34.08333,88
34.09167,86
34.10000,85
34.10833,83
34.11667,81
34.12500,80
34.13333,78
34.14167,77
34.15000,76
34.15833,75
34.16667,73
34.17500,72
34.18333,71
34.19167,70
34.20000,69
34.20833,68
34.21667,67
34.22500,66
34.23333,65
34.24167,64
34.25000,63
34.25833,62
34.26667,62
34.27500,61
34.28333,60
34.29167,60
34.30000,59
34.30833,58
34.31667,57
34.32500,57
34.33333,56
34.34167,55
34.35000,55
34.35833,54
34.36667,54
34.37500,54
34.38333,54
34.39167,53
34.40000,52
34.40833,52
34.41667,51
34.42500,51
34.43333,51
34.44167,50
34.45000,49
34.45833,49
34.46667,49
34.47500,48
34.48333,48
34.49167,48
34.50000,48
34.50833,48
34.51667,48
34.52500,48
34.53333,47
34.54167,47
34.55000,47
34.55833,46
34.56667,46
34.57500,46
34.58333,46
34.59167,45
34.60000,45
34.60833,45
34.61667,45
34.62500,44
34.63333,43
34.64167,43
34.65000,43
34.65833,43
34.66667,43
34.67500,42
34.68333,42
34.69167,42
34.70000,41
34.70833,41
34.71667,41
34.72500,41
34.73333,41
34.74167,41
34.75000,40
34.75833,40
34.76667,40
34.77500,39
34.78333,39
34.79167,39
34.80000,38
34.80833,38
34.81667,38
34.82500,37
34.83333,37
34.84167,37
34.85000,37
34.85833,36
34.86667,36
34.87500,37
34.88333,37
34.89167,37
34.90000,36
34.90833,36
34.91667,36
34.92500,36
34.93333,36
34.94167,35
34.95000,35
34.95833,35
34.96667,35
34.97500,34
34.98333,34
34.99167,35
35.00000,35
35.00833,36
35.01667,36
35.02500,36
35.03333,36
35.04167,35
35.05000,35
35.05833,35
35.06667,35
35.07500,35
35.08333,35
35.09167,36
35.10000,36
35.10833,37
35.11667,37
35.12500,37
35.13333,37
35.14167,37
35.15000,38
35.15833,37
35.16667,37
35.17500,38
35.18333,38
35.19167,38
35.20000,38
35.20833,39
35.21667,39
35.22500,40
35.23333,40
35.24167,41
35.25000,41
35.25833,42
35.26667,42
35.27500,43
35.28333,43
35.29167,44
35.30000,45
35.30833,46
35.31667,46
35.32500,47
35.33333,48
35.34167,49
35.35000,50
35.35833,51
35.36667,51
35.37500,52
35.38333,53
35.39167,54
35.40000,55
35.40833,56
35.41667,57
35.42500,58
35.43333,59
35.44167,59
35.45000,60
35.45833,61
35.46667,62
35.47500,63
35.48333,64
35.49167,65
35.50000,67
35.50833,68
35.51667,69
35.52500,71
35.53333,72
35.54167,73
35.55000,73
35.55833,74
35.56667,74
35.57500,75
35.58333,76
35.59167,77
35.60000,78
35.60833,79
35.61667,80
35.62500,81
35.63333,82
35.64167,83
35.65000,84
35.65833,85
35.66667,86
35.67500,87
35.68333,88
35.69167,88
35.70000,89
35.70833,90
35.71667,90
35.72500,91
35.73333,92
35.74167,92
35.75000,93
35.75833,94
35.76667,95
35.77500,95
35.78333,96
35.79167,96
35.80000,97
35.80833,98
35.81667,98
35.82500,99
35.83333,99
35.84167,100
35.85000,100
35.85833,101
35.86667,101
35.87500,102
35.88333,102
35.89167,103
35.90000,103
35.90833,104
35.91667,104
35.92500,104
35.93333,104
35.94167,104
35.95000,105
35.95833,105
35.96667,105
35.97500,105
35.98333,105
35.99167,105
36.00000,105
36.00833,106
36.01667,106
36.02500,106
36.03333,107
36.04167,107
36.05000,107
36.05833,107
36.06667,107
36.07500,107
36.08333,107
36.09167,107
36.10000,107
36.10833,107
36.11667,107
36.12500,106
36.13333,106
36.14167,107
36.15000,107
36.15833,107
36.16667,107
36.17500,106
36.18333,106
36.19167,105
36.20000,105
36.20833,104
36.21667,104
36.22500,103
36.23333,103
36.24167,102
36.25000,102
36.25833,101
36.26667,100
36.27500,100
36.28333,99
36.29167,99
36.30000,98
36.30833,98
36.31667,98
36.32500,97
36.33333,97
36.34167,97
36.35000,96
36.35833,96
36.36667,95
36.37500,95
36.38333,94
36.39167,93
36.40000,92
36.40833,92
36.41667,91
36.42500,91
36.43333,91
36.44167,91
36.45000,90
36.45833,90
36.46667,89
36.47500,88
36.48333,87
36.49167,87
36.50000,87
36.50833,86
36.51667,86
36.52500,85
36.53333,85
36.54167,84
36.55000,84
36.55833,83
36.56667,82
36.57500,82
36.58333,82
36.59167,82
36.60000,81
36.60833,81
36.61667,81
36.62500,80
36.63333,79
36.64167,79
36.65000,79
36.65833,79
36.66667,79
36.67500,78
36.68333,78
36.69167,78
36.70000,78
36.70833,78
36.71667,78
36.72500,78
36.73333,78
36.74167,78
36.75000,78
36.75833,78
36.76667,78
36.77500,77
36.78333,77
36.79167,77
36.80000,77
36.80833,77
36.81667,77
36.82500,78
36.83333,78
36.84167,78
36.85000,78
36.85833,78
36.86667,78
36.87500,78
36.88333,79
36.89167,79
36.90000,80
36.90833,80
36.91667,80
36.92500,80
36.93333,80
36.94167,81
36.95000,81
36.95833,81
36.96667,81
36.97500,82
36.98333,82
36.99167,83
37.00000,83
37.00833,84
37.01667,86
37.02500,86
37.03333,87
37.04167,87
37.05000,87
37.05833,88
37.06667,88
37.07500,89
37.08333,90
37.09167,90
37.10000,91
37.10833,92
37.11667,93
37.12500,94
37.13333,94
37.14167,95
37.15000,96
37.15833,96
37.16667,96
37.17500,97
37.18333,98
37.19167,99
37.20000,101
37.20833,102
37.21667,102
37.22500,103
37.23333,104
37.24167,105
37.25000,106
37.25833,106
37.26667,107
37.27500,108
37.28333,109
37.29167,110
37.30000,111
37.30833,111
37.31667,112
37.32500,113
37.33333,114
37.34167,115
37.35000,116
37.35833,117
37.36667,118
37.37500,119
37.38333,120
37.39167,121
37.40000,122
37.40833,123
37.41667,124
37.42500,125
37.43333,125
37.44167,126
37.45000,127
37.45833,128
37.46667,129
37.47500,130
37.48333,131
37.49167,132
37.50000,133
37.50833,134
37.51667,135
37.52500,136
37.53333,137
37.54167,138
37.55000,139
37.55833,140
37.56667,141
37.57500,141
37.58333,142
37.59167,143
37.60000,143
37.60833,144
37.61667,144
37.62500,145
37.63333,146
37.64167,147
37.65000,148
37.65833,149
37.66667,150
37.67500,151
37.68333,152
37.69167,152
37.70000,153
37.70833,153
37.71667,154
37.72500,155
37.73333,155
37.74167,155
37.75000,156
37.75833,156
37.76667,156
37.77500,157
37.78333,158
37.79167,158
37.80000,158
37.80833,158
37.81667,158
37.82500,158
37.83333,158
37.84167,158
37.85000,158
37.85833,159
37.86667,159
37.87500,159
37.88333,159
37.89167,159
37.90000,158
37.90833,158
37.91667,158
37.92500,157
37.93333,157
37.94167,157
37.95000,156
37.95833,156
37.96667,156
37.97500,155
37.98333,155
37.99167,154
38.00000,154
38.00833,154
38.01667,153
38.02500,152
38.03333,152
38.04167,151
38.05000,150
38.05833,150
38.06667,149
38.07500,148
38.08333,148
38.09167,147
38.10000,147
38.10833,147
38.11667,146
38.12500,145
38.13333,144
38.14167,143
38.15000,142
38.15833,141
38.16667,141
38.17500,140
38.18333,139
38.19167,138
38.20000,137
38.20833,136
38.21667,135
38.22500,134
38.23333,133
38.24167,131
38.25000,130
38.25833,129
38.26667,128
38.27500,127
38.28333,126
38.29167,125
38.30000,124
38.30833,123
38.31667,122
38.32500,120
38.33333,119
38.34167,118
38.35000,117
38.35833,115
38.36667,114
38.37500,112
38.38333,111
38.39167,110
38.40000,108
38.40833,107
38.41667,105
38.42500,104
38.43333,102
38.44167,100
38.45000,99
38.45833,98
38.46667,96
38.47500,95
38.48333,95
38.49167,94
38.50000,93
38.50833,92
38.51667,90
38.52500,89
38.53333,88
38.54167,87
38.55000,85
38.55833,84
38.56667,82
38.57500,81
38.58333,79
38.59167,78
38.60000,77
38.60833,75
38.61667,74
38.62500,73
38.63333,72
38.64167,70
38.65000,69
38.65833,68
38.66667,67
38.67500,65
38.68333,64
38.69167,63
38.70000,62
38.70833,60
38.71667,59
38.72500,58
38.73333,57
38.74167,56
38.75000,55
38.75833,54
38.76667,53
38.77500,52
38.78333,51
38.79167,50
38.80000,49
38.80833,47
38.81667,46
38.82500,46
38.83333,45
38.84167,45
38.85000,44
38.85833,43
38.86667,43
38.87500,42
38.88333,41
38.89167,40
38.90000,40
38.90833,39
38.91667,38
38.92500,37
38.93333,36
38.94167,36
38.95000,35
38.95833,35
38.96667,34
38.97500,34
38.98333,34
38.99167,33
39.00000,33
39.00833,33
39.01667,32
39.02500,32
39.03333,31
39.04167,31
39.05000,30
39.05833,29
39.06667,29
39.07500,28
39.08333,28
39.09167,28
39.10000,27
39.10833,26
39.11667,26
39.12500,25
39.13333,25
39.14167,25
39.15000,24
39.15833,24
39.16667,24
39.17500,24
39.18333,24
39.19167,24
39.20000,23
39.20833,23
39.21667,23
39.22500,23
39.23333,23
39.24167,23
39.25000,23
39.25833,23
39.26667,22
39.27500,22
39.28333,22
39.29167,21
39.30000,21
39.30833,20
39.31667,20
39.32500,21
39.33333,21
39.34167,21
39.35000,20
39.35833,20
39.36667,21
39.37500,21
39.38333,21
39.39167,21
39.40000,21
39.40833,21
39.41667,22
39.42500,22
39.43333,22
39.44167,21
39.45000,21
39.45833,21
39.46667,20
39.47500,20
39.48333,21
39.49167,21
39.50000,21
39.50833,21
39.51667,22
39.52500,21
39.53333,21
39.54167,21
39.55000,21
39.55833,21
39.56667,20
39.57500,20
39.58333,21
39.59167,21
39.60000,21
39.60833,21
39.61667,20
39.62500,20
39.63333,20
39.64167,19
39.65000,19
39.65833,20
39.66667,20
39.67500,20
39.68333,20
39.69167,20
39.70000,20
39.70833,20
39.71667,20
39.72500,20
39.73333,20
39.74167,20
39.75000,20
39.75833,20
39.76667,20
39.77500,20
39.78333,20
39.79167,20
39.80000,20
39.80833,20
39.81667,20
39.82500,20
39.83333,20
39.84167,20
39.85000,20
39.85833,20
39.86667,19
39.87500,19
39.88333,19
39.89167,20
39.90000,20
39.90833,19
39.91667,19
39.92500,19
39.93333,19
39.94167,19
39.95000,19
39.95833,19
39.96667,19
39.97500,19
39.98333,19
39.99167,19
40.00000,19
40.00833,19
40.01667,19
40.02500,19
40.03333,19
40.04167,19
40.05000,19
40.05833,19
40.06667,19
40.07500,19
40.08333,19
40.09167,20
40.10000,20
40.10833,20
40.11667,20
40.12500,20
40.13333,20
40.14167,19
40.15000,19
40.15833,19
40.16667,19
40.17500,19
40.18333,19
40.19167,19
40.20000,19
40.20833,19
40.21667,19
40.22500,19
40.23333,20
40.24167,20
40.25000,20
40.25833,20
40.26667,20
40.27500,20
40.28333,21
40.29167,21
40.30000,21
40.30833,21
40.31667,22
40.32500,22
40.33333,22
40.34167,22
40.35000,23
40.35833,22
40.36667,23
40.37500,23
40.38333,23
40.39167,23
40.40000,23
40.40833,23
40.41667,23
40.42500,23
40.43333,24
40.44167,25
40.45000,25
40.45833,26
40.46667,26
40.47500,27
40.48333,27
40.49167,27
40.50000,28
40.50833,29
40.51667,30
40.52500,31
40.53333,31
40.54167,32
40.55000,32
40.55833,33
40.56667,34
40.57500,35
40.58333,35
40.59167,36
40.60000,37
40.60833,38
40.61667,39
40.62500,40
40.63333,41
40.64167,42
40.65000,43
40.65833,44
40.66667,45
40.67500,46
40.68333,48
40.69167,49
40.70000,50
40.70833,51
40.71667,53
40.72500,54
40.73333,55
40.74167,57
40.75000,58
40.75833,60
40.76667,61
40.77500,63
40.78333,64
40.79167,66
40.80000,67
40.80833,69
40.81667,70
40.82500,72
40.83333,74
40.84167,76
40.85000,77
40.85833,79
40.86667,80
40.87500,82
40.88333,83
40.89167,85
40.90000,87
40.90833,89
40.91667,91
40.92500,92
40.93333,94
40.94167,96
40.95000,98
40.95833,100
40.96667,102
40.97500,104
40.98333,106
40.99167,107
41.00000,109
41.00833,111
41.01667,113
41.02500,115
41.03333,117
41.04167,119
41.05000,121
41.05833,122
41.06667,124
41.07500,126
41.08333,128
41.09167,130
41.10000,132
41.10833,133
41.11667,135
41.12500,137
41.13333,138
41.14167,140
41.15000,142
41.15833,144
41.16667,146
41.17500,148
41.18333,150
41.19167,151
41.20000,153
41.20833,155
41.21667,157
41.22500,159
41.23333,161
41.24167,162
41.25000,163
41.25833,165
41.26667,167
41.27500,168
41.28333,170
41.29167,171
41.30000,173
41.30833,175
41.31667,176
41.32500,178
41.33333,179
41.34167,181
41.35000,182
41.35833,184
41.36667,185
41.37500,187
41.38333,188
41.39167,189
41.40000,191
41.40833,192
41.41667,194
41.42500,195
41.43333,197
41.44167,198
41.45000,199
41.45833,200
41.46667,202
41.47500,204
41.48333,205
41.49167,207
41.50000,208
41.50833,209
41.51667,210
41.52500,211
41.53333,212
41.54167,213
41.55000,214
41.55833,215
41.56667,216
41.57500,217
41.58333,218
41.59167,219
41.60000,220
41.60833,220
41.61667,221
41.62500,222
41.63333,223
41.64167,224
41.65000,225
41.65833,225
41.66667,226
41.67500,227
41.68333,227
41.69167,228
41.70000,229
41.70833,229
41.71667,230
41.72500,230
41.73333,231
41.74167,231
41.75000,231
41.75833,232
41.76667,232
41.77500,232
41.78333,233
41.79167,233
41.80000,233
41.80833,233
41.81667,234
41.82500,234
41.83333,234
41.84167,234
41.85000,234
41.85833,234
41.86667,234
41.87500,234
41.88333,234
41.89167,234
41.90000,234
41.90833,234
41.91667,233
41.92500,233
41.93333,232
41.94167,232
41.95000,232
41.95833,231
41.96667,231
41.97500,230
41.98333,230
41.99167,229
42.00000,229
42.00833,229
42.01667,228
42.02500,228
42.03333,228
42.04167,228
42.05000,227
42.05833,227
42.06667,227
42.07500,226
42.08333,226
42.09167,225
42.10000,225
42.10833,225
42.11667,225
42.12500,224
42.13333,224
42.14167,223
42.15000,223
42.15833,222
42.16667,222
42.17500,221
42.18333,220
42.19167,219
42.20000,219
42.20833,218
42.21667,218
42.22500,217
42.23333,217
42.24167,216
42.25000,215
42.25833,215
42.26667,215
42.27500,214
42.28333,214
42.29167,213
42.30000,213
42.30833,212
42.31667,212
42.32500,211
42.33333,211
42.34167,210
42.35000,209
42.35833,209
42.36667,208
42.37500,208
42.38333,207
42.39167,207
42.40000,206
42.40833,205
42.41667,204
42.42500,204
42.43333,204
42.44167,203
42.45000,203
42.45833,202
42.46667,202
42.47500,201
42.48333,200
42.49167,200
42.50000,199
42.50833,199
42.51667,198
42.52500,198
42.53333,197
42.54167,196
42.55000,196
42.55833,195
42.56667,195
42.57500,194
42.58333,194
42.59167,193
42.60000,192
42.60833,192
42.61667,191
42.62500,191
42.63333,190
42.64167,190
42.65000,189
42.65833,188
42.66667,187
42.67500,186
42.68333,185
42.69167,184
42.70000,184
42.70833,183
42.71667,183
42.72500,182
42.73333,181
42.74167,181
42.75000,180
42.75833,179
42.76667,178
42.77500,178
42.78333,177
42.79167,176
42.80000,175
42.80833,174
42.81667,173
42.82500,173
42.83333,172
42.84167,172
42.85000,171
42.85833,170
42.86667,169
42.87500,169
42.88333,168
42.89167,168
42.90000,167
42.90833,166
42.91667,165
42.92500,164
42.93333,163
42.94167,162
42.95000,161
42.95833,161
42.96667,160
42.97500,159
42.98333,158
42.99167,157
43.00000,157
43.00833,156
43.01667,156
43.02500,155
43.03333,154
43.04167,153
43.05000,152
43.05833,151
43.06667,150
43.07500,149
43.08333,148
43.09167,147
43.10000,146
43.10833,145
43.11667,145
43.12500,144
43.13333,144
43.14167,143
43.15000,142
43.15833,142
43.16667,141
43.17500,140
43.18333,140
43.19167,139
43.20000,138
43.20833,136
43.21667,135
43.22500,135
43.23333,134
43.24167,133
43.25000,133
43.25833,132
43.26667,131
43.27500,131
43.28333,130
43.29167,129
43.30000,129
43.30833,128
43.31667,127
43.32500,126
43.33333,126
43.34167,125
43.35000,125
43.35833,124
43.36667,123
43.37500,122
43.38333,121
43.39167,120
43.40000,120
43.40833,119
43.41667,119
43.42500,118
43.43333,117
43.44167,116
43.45000,116
43.45833,115
43.46667,115
43.47500,114
43.48333,114
43.49167,112
43.50000,111
43.50833,110
43.51667,109
43.52500,108
43.53333,107
43.54167,107
43.55000,106
43.55833,106
43.56667,105
43.57500,104
43.58333,103
43.59167,103
43.60000,102
43.60833,101
43.61667,100
43.62500,99
43.63333,99
43.64167,98
43.65000,97
43.65833,97
43.66667,96
43.67500,96
43.68333,95
43.69167,95
43.70000,94
43.70833,93
43.71667,93
43.72500,92
43.73333,92
43.74167,91
43.75000,90
43.75833,90
43.76667,89
43.77500,88
43.78333,87
43.79167,86
43.80000,86
43.80833,85
43.81667,85
43.82500,84
43.83333,84
43.84167,83
43.85000,82
43.85833,82
43.86667,81
43.87500,80
43.88333,80
43.89167,79
43.90000,78
43.90833,78
43.91667,77
43.92500,76
43.93333,75
43.94167,74
43.95000,74
43.95833,73
43.96667,73
43.97500,73
43.98333,72
43.99167,71
44.00000,71
44.00833,71
44.01667,70
44.02500,69
44.03333,69
44.04167,68
44.05000,67
44.05833,66
44.06667,65
44.07500,65
44.08333,64
44.09167,64
44.10000,64
44.10833,63
44.11667,63
44.12500,62
44.13333,62
44.14167,61
44.15000,61
44.15833,60
44.16667,60
44.17500,59
44.18333,59
44.19167,58
44.20000,58
44.20833,57
44.21667,56
44.22500,56
44.23333,55
44.24167,55
44.25000,54
44.25833,54
44.26667,53
44.27500,53
44.28333,53
44.29167,52
44.30000,52
44.30833,51
44.31667,51
44.32500,51
44.33333,50
44.34167,50
44.35000,50
44.35833,50
44.36667,49
44.37500,49
44.38333,48
44.39167,48
44.40000,47
44.40833,46
44.41667,46
44.42500,45
44.43333,45
44.44167,44
44.45000,44
44.45833,44
44.46667,43
44.47500,43
44.48333,43
44.49167,42
44.50000,42
44.50833,41
44.51667,41
44.52500,41
44.53333,40
44.54167,40
44.55000,40
44.55833,40
44.56667,39
44.57500,39
44.58333,38
44.59167,38
44.60000,37
44.60833,37
44.61667,37
44.62500,37
44.63333,36
44.64167,35
44.65000,35
44.65833,35
44.66667,35
44.67500,35
44.68333,35
44.69167,35
44.70000,34
44.70833,34
44.71667,33
44.72500,33
44.73333,33
44.74167,32
44.75000,32
44.75833,32
44.76667,31
44.77500,31
44.78333,31
44.79167,31
44.80000,30
44.80833,30
44.81667,30
44.82500,30
44.83333,30
44.84167,30
44.85000,30
44.85833,29
44.86667,29
44.87500,28
44.88333,27
44.89167,27
44.90000,27
44.90833,27
44.91667,27
44.92500,27
44.93333,27
44.94167,26
44.95000,26
44.95833,26
44.96667,26
44.97500,25
44.98333,25
44.99167,25
45.00000,25
45.00833,25
45.01667,25
45.02500,25
45.03333,25
45.04167,24
45.05000,24
45.05833,24
45.06667,25
45.07500,25
45.08333,25
45.09167,24
45.10000,24
45.10833,24
45.11667,23
45.12500,23
45.13333,22
45.14167,22
45.15000,22
45.15833,22
45.16667,22
45.17500,22
45.18333,22
45.19167,22
45.20000,22
45.20833,22
45.21667,22
45.22500,23
45.23333,23
45.24167,23
45.25000,23
45.25833,23
45.26667,22
45.27500,22
45.28333,22
45.29167,22
45.30000,22
45.30833,22
45.31667,21
45.32500,21
45.33333,21
45.34167,21
45.35000,22
45.35833,22
45.36667,22
45.37500,22
45.38333,22
45.39167,22
45.40000,21
45.40833,21
45.41667,21
45.42500,21
45.43333,21
45.44167,21
45.45000,21
45.45833,21
45.46667,21
45.47500,21
45.48333,21
45.49167,21
45.50000,20
45.50833,21
45.51667,21
45.52500,21
45.53333,21
45.54167,21
45.55000,21
45.55833,21
45.56667,21
45.57500,21
45.58333,21
45.59167,21
45.60000,21
45.60833,21
45.61667,21
45.62500,21
45.63333,21
45.64167,21
45.65000,21
45.65833,20
45.66667,20
45.67500,20
45.68333,20
45.69167,19
45.70000,19
45.70833,19
45.71667,19
45.72500,19
45.73333,19
45.74167,19
45.75000,19
45.75833,19
45.76667,19
45.77500,19
45.78333,19
45.79167,19
45.80000,19
45.80833,19
45.81667,19
45.82500,19
45.83333,19
45.84167,18
45.85000,19
45.85833,19
45.86667,19
45.87500,19
45.88333,19
45.89167,19
45.90000,18
45.90833,19
45.91667,19
45.92500,18
45.93333,18
45.94167,18
45.95000,18
45.95833,18
45.96667,17
45.97500,17
45.98333,17
45.99167,17
46.00000,17
46.00833,17
46.01667,16
46.02500,16
46.03333,16
46.04167,16
46.05000,16
46.05833,16
46.06667,15
46.07500,15
46.08333,15
46.09167,14
46.10000,14
46.10833,14
46.11667,14
46.12500,14
46.13333,14
46.14167,14
46.15000,14
46.15833,14
46.16667,14
46.17500,13
46.18333,13
46.19167,13
46.20000,13
46.20833,12
46.21667,12
46.22500,11
46.23333,11
46.24167,11
46.25000,11
46.25833,11
46.26667,11
46.27500,10
46.28333,10
46.29167,10
46.30000,10
46.30833,10
46.31667,10
46.32500,9
46.33333,8
46.34167,8
46.35000,8
46.35833,7
46.36667,7
46.37500,7
46.38333,7
46.39167,7
46.40000,7
46.40833,7
46.41667,7
46.42500,6
46.43333,5
46.44167,5
46.45000,5
46.45833,5
46.46667,5
46.47500,5
46.48333,4
46.49167,4
46.50000,4
46.50833,3
46.51667,3
46.52500,3
46.53333,3
46.54167,3
46.55000,3
46.55833,3
46.56667,3
46.57500,3
46.58333,3
46.59167,3
46.60000,3
46.60833,2
46.61667,1
46.62500,1
46.63333,1
46.64167,1
46.65000,1
46.65833,0
46.66667,0
46.67500,-0
46.68333,-0
46.69167,0
46.70000,-0
46.70833,-0
46.71667,-0
46.72500,-1
46.73333,-1
46.74167,-1
46.75000,-2
46.75833,-2
46.76667,-2
46.77500,-2
46.78333,-2
46.79167,-2
46.80000,-2
46.80833,-2
46.81667,-2
46.82500,-3
46.83333,-3
46.84167,-3
46.85000,-3
46.85833,-3
46.86667,-3
46.87500,-4
46.88333,-4
46.89167,-4
46.90000,-4
46.90833,-4
46.91667,-4
46.92500,-4
46.93333,-4
46.94167,-4
46.95000,-4
46.95833,-4
46.96667,-5
46.97500,-5
46.98333,-5
46.99167,-5
47.00000,-5
47.00833,-4
47.01667,-4
47.02500,-5
47.03333,-4
47.04167,-4
47.05000,-4
47.05833,-4
47.06667,-4
47.07500,-4
47.08333,-5
47.09167,-5
47.10000,-5
47.10833,-5
47.11667,-5
47.12500,-5
47.13333,-5
47.14167,-4
47.15000,-4
47.15833,-4
47.16667,-4
47.17500,-3
47.18333,-3
47.19167,-3
47.20000,-3
47.20833,-3
47.21667,-2
47.22500,-2
47.23333,-2
47.24167,-1
47.25000,-0
47.25833,0
47.26667,1
47.27500,1
47.28333,1
47.29167,1
47.30000,2
47.30833,2
47.31667,2
47.32500,3
47.33333,3
47.34167,4
47.35000,4
47.35833,4
47.36667,5
47.37500,5
47.38333,5
47.39167,5
47.40000,6
47.40833,6
47.41667,7
47.42500,7
47.43333,8
47.44167,9
47.45000,9
47.45833,10
47.46667,11
47.47500,11
47.48333,12
47.49167,13
47.50000,13
47.50833,14
47.51667,14
47.52500,15
47.53333,16
47.54167,17
47.55000,17
47.55833,18
47.56667,19
47.57500,20
47.58333,20
47.59167,21
47.60000,21
47.60833,22
47.61667,23
47.62500,24
47.63333,25
47.64167,26
47.65000,27
47.65833,27
47.66667,28
47.67500,29
47.68333,30
47.69167,31
47.70000,32
47.70833,32
47.71667,33
47.72500,34
47.73333,35
47.74167,36
47.75000,37
47.75833,38
47.76667,38
47.77500,39
47.78333,40
47.79167,41
47.80000,42
47.80833,43
47.81667,44
47.82500,45
47.83333,46
47.84167,47
47.85000,47
47.85833,48
47.86667,49
47.87500,50
47.88333,50
47.89167,51
47.90000,51
47.90833,52
47.91667,53
47.92500,53
47.93333,54
47.94167,55
47.95000,56
47.95833,56
47.96667,57
47.97500,58
47.98333,58
47.99167,59
48.00000,60
48.00833,60
48.01667,60
48.02500,61
48.03333,62
48.04167,62
48.05000,62
48.05833,63
48.06667,63
48.07500,64
48.08333,64
48.09167,65
48.10000,65
48.10833,66
48.11667,66
48.12500,66
48.13333,67
48.14167,67
48.15000,67
48.15833,68
48.16667,69
48.17500,69
48.18333,70
48.19167,70
48.20000,70
48.20833,70
48.21667,70
48.22500,70
48.23333,71
48.24167,71
48.25000,71
48.25833,72
48.26667,73
48.27500,73
48.28333,74
48.29167,75
48.30000,75
48.30833,76
48.31667,76
48.32500,76
48.33333,76
48.34167,77
48.35000,77
48.35833,77
48.36667,77
48.37500,78
48.38333,78
48.39167,78
48.40000,78
48.40833,78
48.41667,78
48.42500,78
48.43333,78
48.44167,78
48.45000,78
48.45833,79
48.46667,79
48.47500,78
48.48333,78
48.49167,79
48.50000,79
48.50833,79
48.51667,79
48.52500,79
48.53333,79
48.54167,79
48.55000,80
48.55833,80
48.56667,80
48.57500,80
48.58333,80
48.59167,80
48.60000,80
48.60833,80
48.61667,80
48.62500,80
48.63333,80
48.64167,80
48.65000,81
48.65833,81
48.66667,81
48.67500,81
48.68333,81
48.69167,81
48.70000,81
48.70833,81
48.71667,81
48.72500,82
48.73333,82
48.74167,82
48.75000,81
48.75833,81
48.76667,81
48.77500,81
48.78333,81
48.79167,80
48.80000,80
48.80833,80
48.81667,80
48.82500,80
48.83333,79
48.84167,80
48.85000,80
48.85833,80
48.86667,80
48.87500,80
48.88333,81
48.89167,80
48.90000,81
48.90833,81
48.91667,81
48.92500,81
48.93333,81
48.94167,81
48.95000,81
48.95833,81
48.96667,81
48.97500,81
48.98333,82
48.99167,82
49.00000,82
49.00833,82
49.01667,83
49.02500,83
49.03333,83
49.04167,83
49.05000,83
49.05833,82
49.06667,83
49.07500,83
49.08333,83
49.09167,83
49.10000,83
49.10833,83
49.11667,83
49.12500,83
49.13333,83
49.14167,83
49.15000,83
49.15833,83
49.16667,83
49.17500,84
49.18333,83
49.19167,83
49.20000,83
49.20833,83
49.21667,83
49.22500,83
49.23333,83
49.24167,83
49.25000,83
49.25833,83
49.26667,83
49.27500,83
49.28333,83
49.29167,82
49.30000,82
49.30833,82
49.31667,82
49.32500,82
49.33333,82
49.34167,82
49.35000,82
49.35833,82
49.36667,81
49.37500,81
49.38333,81
49.39167,81
49.40000,80
49.40833,80
49.41667,80
49.42500,80
49.43333,80
49.44167,80
49.45000,80
49.45833,80
49.46667,80
49.47500,79
49.48333,79
49.49167,79
49.50000,79
49.50833,79
49.51667,79
49.52500,79
49.53333,79
49.54167,78
49.55000,78
49.55833,78
49.56667,78
49.57500,78
49.58333,77
49.59167,77
49.60000,76
49.60833,76
49.61667,75
49.62500,75
49.63333,75
49.64167,74
49.65000,74
49.65833,73
49.66667,73
49.67500,72
49.68333,72
49.69167,72
49.70000,71
49.70833,71
49.71667,71
49.72500,71
49.73333,70
49.74167,70
49.75000,70
49.75833,70
49.76667,69
49.77500,69
49.78333,69
49.79167,68
49.80000,68
49.80833,67
49.81667,67
49.82500,66
49.83333,66
49.84167,65
49.85000,64
49.85833,63
49.86667,62
49.87500,62
49.88333,62
49.89167,62
49.90000,61
49.90833,61
49.91667,60
49.92500,60
49.93333,59
49.94167,58
49.95000,57
49.95833,57
49.96667,56
49.97500,55
49.98333,54
49.99167,54
50.00000,53

