[Header]
Application Name,LabSolutions
Version,5.97 SP1
Data File Name,C:\Users\cremerlab\Desktop\Richa\Sep_2nd_2022_scfa_rt50min_final\Sep 2nd yield expt_922022_001_016.lcd
Output Date,9/3/2022
Output Time,6:31:41 AM

[File Information]
Type,Data File
Generated,9/3/2022 5:41:23 AM
Generated by,System Administrator
Modified,9/3/2022 6:31:41 AM
Modified by,System Administrator

[Sample Information]
Operator Name,System Administrator
Acquired,9/3/2022 5:41:41 AM
Sample Type,0:Unknown
Level,0
Sample Name,090222_C.aerofaciens_3
Sample ID,001
ISTD Amount1,1
ISTD Amount2,1
ISTD Amount3,1
ISTD Amount4,1
ISTD Amount5,1
ISTD Amount6,1
ISTD Amount7,1
ISTD Amount8,1
ISTD Amount9,1
ISTD Amount10,1
ISTD Amount11,1
ISTD Amount12,1
ISTD Amount13,1
ISTD Amount14,1
ISTD Amount15,1
ISTD Amount16,1
ISTD Amount17,1
ISTD Amount18,1
ISTD Amount19,1
ISTD Amount20,1
ISTD Amount21,1
ISTD Amount22,1
ISTD Amount23,1
ISTD Amount24,1
ISTD Amount25,1
ISTD Amount26,1
ISTD Amount27,1
ISTD Amount28,1
ISTD Amount29,1
ISTD Amount30,1
ISTD Amount31,1
ISTD Amount32,1
Sample Amount,1
Dilution Factor,1
Vial#,15
Injection Volume,20

[Original Files]
Data File,C:\Users\cremerlab\Desktop\Richa\Sep_2nd_2022_scfa_rt50min_final\Sep 2nd yield expt_922022_001_016.lcd
Method File,C:\Users\cremerlab\Desktop\Richa\acetate_excretion.lcm
Batch File,C:\Users\cremerlab\Desktop\Richa\Sep_2nd_2022_scfa_rt50min_final\Sep 2nd yield expt.lcb
Report Format File,c:\LabSolutions\System\DEFAULT.lsr

[File Description]


[Configuration]
Instrument Name,HPLC-PC-Instrument1
Instrument #,1
Line #,1
# of Detectors,2
Detector ID,Detector A,Detector B
Detector Name,Detector A,Detector B
# of Channels,1,1

[Peak Table(Detector A)]
# of Peaks,0

[Peak Table(Detector B)]
# of Peaks,12
Peak#,R.Time,I.Time,F.Time,Area,Height,A/H,Conc.,Mark,ID#,Name,k',Plate #,Plate Ht.,Tailing,Resolution,Sep.Factor,Area Ratio,Height Ratio,Conc. %,Norm Conc.
1,11.015,10.258,12.308,2268094,115988,19.555,0.000,   ,,,0.000,7541,19.893,0.968,0.000,0.000,0,0,0.000,0.000
2,14.328,12.667,15.183,3565973,76845,46.405,0.000,   ,,,0.301,2508,59.803,0.657,4.012,0.000,0,0,0.000,0.000
3,15.754,15.183,17.125,1346139,46281,29.086,0.000, V ,,,0.430,6928,21.652,1.138,1.500,1.430,0,0,0.000,0.000
4,17.873,17.417,18.408,7398,256,28.885,0.000,   ,,,0.623,8145,18.416,1.029,2.736,1.447,0,0,0.000,0.000
5,19.104,18.425,19.758,13382,316,42.415,0.000,   ,,,0.734,4166,36.005,0.962,1.246,1.179,0,0,0.000,0.000
6,20.301,19.758,20.883,22070,609,36.253,0.000,   ,,,0.843,7116,21.080,0.000,1.116,1.148,0,0,0.000,0.000
7,21.551,20.883,22.550,114673,2706,42.381,0.000, V ,,,0.957,6416,23.378,0.000,1.226,1.135,0,0,0.000,0.000
8,23.141,22.575,24.192,12383,319,38.843,0.000,   ,,,1.101,9054,16.567,1.395,1.552,1.151,0,0,0.000,0.000
9,25.079,24.300,26.442,150495,3677,40.931,0.000,   ,,,1.277,9101,16.482,1.144,1.915,1.160,0,0,0.000,0.000
10,29.237,28.367,30.625,140770,2870,49.040,0.000,   ,,,1.654,8769,17.105,1.206,3.615,1.296,0,0,0.000,0.000
11,32.519,31.675,34.367,42778,577,74.143,0.000,   ,,,1.952,1823,82.287,1.526,1.528,1.180,0,0,0.000,0.000
12,41.592,40.508,44.050,33429,354,94.547,0.000,   ,,,2.776,5201,28.840,1.619,3.389,1.422,0,0,0.000,0.000

[LC Chromatogram(Detector B-Ch1)]
Interval(msec),500
# of Points,6001
Start Time(min),0.000
End Time(min),50.000
Intensity Units,mV
Intensity Multiplier,0.001
R.Time (min),Intensity
0.00000,-24
0.00833,-24
0.01667,-2
0.02500,-1
0.03333,-2
0.04167,-2
0.05000,-3
0.05833,-4
0.06667,-4
0.07500,-5
0.08333,-5
0.09167,-6
0.10000,-6
0.10833,-7
0.11667,-7
0.12500,-8
0.13333,-8
0.14167,-9
0.15000,-9
0.15833,-10
0.16667,-11
0.17500,-11
0.18333,-12
0.19167,-12
0.20000,-13
0.20833,-13
0.21667,-14
0.22500,-14
0.23333,-15
0.24167,-15
0.25000,-16
0.25833,-16
0.26667,-17
0.27500,-17
0.28333,-18
0.29167,-18
0.30000,-19
0.30833,-19
0.31667,-20
0.32500,-20
0.33333,-21
0.34167,-21
0.35000,-21
0.35833,-21
0.36667,-21
0.37500,-21
0.38333,-22
0.39167,-22
0.40000,-22
0.40833,-23
0.41667,-23
0.42500,-23
0.43333,-23
0.44167,-24
0.45000,-24
0.45833,-24
0.46667,-25
0.47500,-25
0.48333,-25
0.49167,-25
0.50000,-25
0.50833,-26
0.51667,-26
0.52500,-26
0.53333,-26
0.54167,-26
0.55000,-26
0.55833,-26
0.56667,-26
0.57500,-27
0.58333,-27
0.59167,-28
0.60000,-28
0.60833,-28
0.61667,-28
0.62500,-28
0.63333,-28
0.64167,-28
0.65000,-28
0.65833,-28
0.66667,-28
0.67500,-29
0.68333,-29
0.69167,-29
0.70000,-29
0.70833,-29
0.71667,-29
0.72500,-29
0.73333,-29
0.74167,-29
0.75000,-29
0.75833,-29
0.76667,-30
0.77500,-30
0.78333,-29
0.79167,-29
0.80000,-29
0.80833,-29
0.81667,-29
0.82500,-28
0.83333,-28
0.84167,-29
0.85000,-29
0.85833,-30
0.86667,-30
0.87500,-30
0.88333,-30
0.89167,-30
0.90000,-29
0.90833,-29
0.91667,-29
0.92500,-29
0.93333,-29
0.94167,-29
0.95000,-28
0.95833,-28
0.96667,-28
0.97500,-28
0.98333,-28
0.99167,-28
1.00000,-28
1.00833,-28
1.01667,-28
1.02500,-27
1.03333,-27
1.04167,-27
1.05000,-27
1.05833,-27
1.06667,-26
1.07500,-26
1.08333,-26
1.09167,-26
1.10000,-26
1.10833,-26
1.11667,-26
1.12500,-26
1.13333,-26
1.14167,-26
1.15000,-26
1.15833,-26
1.16667,-26
1.17500,-25
1.18333,-25
1.19167,-25
1.20000,-25
1.20833,-25
1.21667,-25
1.22500,-24
1.23333,-24
1.24167,-24
1.25000,-24
1.25833,-24
1.26667,-24
1.27500,-23
1.28333,-23
1.29167,-23
1.30000,-24
1.30833,-24
1.31667,-23
1.32500,-23
1.33333,-23
1.34167,-22
1.35000,-22
1.35833,-22
1.36667,-22
1.37500,-22
1.38333,-22
1.39167,-22
1.40000,-22
1.40833,-22
1.41667,-22
1.42500,-21
1.43333,-21
1.44167,-21
1.45000,-21
1.45833,-21
1.46667,-20
1.47500,-20
1.48333,-19
1.49167,-19
1.50000,-19
1.50833,-19
1.51667,-19
1.52500,-19
1.53333,-19
1.54167,-19
1.55000,-18
1.55833,-18
1.56667,-18
1.57500,-17
1.58333,-17
1.59167,-17
1.60000,-17
1.60833,-17
1.61667,-17
1.62500,-18
1.63333,-18
1.64167,-18
1.65000,-17
1.65833,-17
1.66667,-17
1.67500,-17
1.68333,-17
1.69167,-17
1.70000,-17
1.70833,-16
1.71667,-16
1.72500,-16
1.73333,-15
1.74167,-15
1.75000,-15
1.75833,-15
1.76667,-15
1.77500,-14
1.78333,-14
1.79167,-14
1.80000,-14
1.80833,-14
1.81667,-14
1.82500,-14
1.83333,-14
1.84167,-14
1.85000,-14
1.85833,-14
1.86667,-14
1.87500,-14
1.88333,-13
1.89167,-13
1.90000,-13
1.90833,-13
1.91667,-13
1.92500,-13
1.93333,-12
1.94167,-12
1.95000,-12
1.95833,-12
1.96667,-12
1.97500,-12
1.98333,-12
1.99167,-12
2.00000,-12
2.00833,-12
2.01667,-11
2.02500,-11
2.03333,-11
2.04167,-11
2.05000,-11
2.05833,-11
2.06667,-11
2.07500,-11
2.08333,-11
2.09167,-11
2.10000,-11
2.10833,-11
2.11667,-11
2.12500,-11
2.13333,-11
2.14167,-10
2.15000,-10
2.15833,-10
2.16667,-10
2.17500,-10
2.18333,-10
2.19167,-10
2.20000,-10
2.20833,-10
2.21667,-10
2.22500,-10
2.23333,-10
2.24167,-10
2.25000,-10
2.25833,-10
2.26667,-9
2.27500,-9
2.28333,-9
2.29167,-9
2.30000,-9
2.30833,-9
2.31667,-9
2.32500,-9
2.33333,-9
2.34167,-9
2.35000,-9
2.35833,-9
2.36667,-9
2.37500,-9
2.38333,-9
2.39167,-10
2.40000,-10
2.40833,-9
2.41667,-9
2.42500,-9
2.43333,-9
2.44167,-9
2.45000,-10
2.45833,-10
2.46667,-10
2.47500,-10
2.48333,-10
2.49167,-10
2.50000,-10
2.50833,-10
2.51667,-10
2.52500,-10
2.53333,-10
2.54167,-10
2.55000,-10
2.55833,-10
2.56667,-10
2.57500,-10
2.58333,-10
2.59167,-10
2.60000,-10
2.60833,-10
2.61667,-10
2.62500,-11
2.63333,-11
2.64167,-11
2.65000,-11
2.65833,-11
2.66667,-12
2.67500,-12
2.68333,-12
2.69167,-12
2.70000,-12
2.70833,-12
2.71667,-12
2.72500,-12
2.73333,-12
2.74167,-12
2.75000,-12
2.75833,-12
2.76667,-12
2.77500,-12
2.78333,-12
2.79167,-12
2.80000,-13
2.80833,-13
2.81667,-13
2.82500,-13
2.83333,-13
2.84167,-13
2.85000,-13
2.85833,-13
2.86667,-13
2.87500,-13
2.88333,-13
2.89167,-13
2.90000,-14
2.90833,-14
2.91667,-14
2.92500,-14
2.93333,-14
2.94167,-14
2.95000,-14
2.95833,-14
2.96667,-13
2.97500,-13
2.98333,-13
2.99167,-14
3.00000,-14
3.00833,-14
3.01667,-14
3.02500,-14
3.03333,-15
3.04167,-15
3.05000,-15
3.05833,-15
3.06667,-15
3.07500,-16
3.08333,-16
3.09167,-16
3.10000,-16
3.10833,-16
3.11667,-16
3.12500,-17
3.13333,-17
3.14167,-17
3.15000,-17
3.15833,-17
3.16667,-17
3.17500,-17
3.18333,-17
3.19167,-17
3.20000,-16
3.20833,-16
3.21667,-15
3.22500,-15
3.23333,-15
3.24167,-15
3.25000,-15
3.25833,-15
3.26667,-16
3.27500,-16
3.28333,-16
3.29167,-17
3.30000,-17
3.30833,-17
3.31667,-17
3.32500,-17
3.33333,-17
3.34167,-17
3.35000,-17
3.35833,-16
3.36667,-16
3.37500,-16
3.38333,-16
3.39167,-16
3.40000,-16
3.40833,-16
3.41667,-16
3.42500,-16
3.43333,-16
3.44167,-16
3.45000,-16
3.45833,-16
3.46667,-16
3.47500,-16
3.48333,-16
3.49167,-15
3.50000,-15
3.50833,-15
3.51667,-15
3.52500,-15
3.53333,-15
3.54167,-15
3.55000,-15
3.55833,-15
3.56667,-15
3.57500,-15
3.58333,-15
3.59167,-15
3.60000,-15
3.60833,-15
3.61667,-15
3.62500,-14
3.63333,-14
3.64167,-14
3.65000,-13
3.65833,-13
3.66667,-12
3.67500,-12
3.68333,-12
3.69167,-12
3.70000,-12
3.70833,-12
3.71667,-12
3.72500,-12
3.73333,-11
3.74167,-11
3.75000,-11
3.75833,-11
3.76667,-11
3.77500,-11
3.78333,-11
3.79167,-11
3.80000,-11
3.80833,-11
3.81667,-11
3.82500,-11
3.83333,-11
3.84167,-10
3.85000,-10
3.85833,-10
3.86667,-10
3.87500,-9
3.88333,-9
3.89167,-8
3.90000,-8
3.90833,-8
3.91667,-7
3.92500,-7
3.93333,-6
3.94167,-6
3.95000,-6
3.95833,-6
3.96667,-5
3.97500,-5
3.98333,-5
3.99167,-5
4.00000,-4
4.00833,-4
4.01667,-4
4.02500,-4
4.03333,-3
4.04167,-3
4.05000,-3
4.05833,-3
4.06667,-2
4.07500,-2
4.08333,-1
4.09167,-1
4.10000,-0
4.10833,1
4.11667,1
4.12500,2
4.13333,3
4.14167,3
4.15000,4
4.15833,4
4.16667,4
4.17500,5
4.18333,5
4.19167,6
4.20000,7
4.20833,7
4.21667,8
4.22500,8
4.23333,9
4.24167,9
4.25000,10
4.25833,10
4.26667,11
4.27500,11
4.28333,12
4.29167,12
4.30000,12
4.30833,13
4.31667,13
4.32500,14
4.33333,14
4.34167,15
4.35000,16
4.35833,17
4.36667,18
4.37500,19
4.38333,19
4.39167,19
4.40000,20
4.40833,21
4.41667,22
4.42500,23
4.43333,23
4.44167,24
4.45000,24
4.45833,25
4.46667,26
4.47500,27
4.48333,28
4.49167,28
4.50000,29
4.50833,30
4.51667,30
4.52500,31
4.53333,32
4.54167,32
4.55000,33
4.55833,33
4.56667,34
4.57500,35
4.58333,36
4.59167,36
4.60000,37
4.60833,37
4.61667,38
4.62500,39
4.63333,39
4.64167,40
4.65000,40
4.65833,41
4.66667,41
4.67500,42
4.68333,42
4.69167,43
4.70000,44
4.70833,44
4.71667,45
4.72500,46
4.73333,46
4.74167,47
4.75000,48
4.75833,48
4.76667,48
4.77500,49
4.78333,49
4.79167,50
4.80000,50
4.80833,51
4.81667,51
4.82500,52
4.83333,52
4.84167,52
4.85000,53
4.85833,53
4.86667,54
4.87500,54
4.88333,54
4.89167,54
4.90000,55
4.90833,55
4.91667,55
4.92500,55
4.93333,55
4.94167,56
4.95000,56
4.95833,56
4.96667,57
4.97500,57
4.98333,57
4.99167,58
5.00000,58
5.00833,58
5.01667,58
5.02500,57
5.03333,57
5.04167,57
5.05000,57
5.05833,57
5.06667,57
5.07500,57
5.08333,57
5.09167,57
5.10000,57
5.10833,57
5.11667,57
5.12500,57
5.13333,57
5.14167,57
5.15000,57
5.15833,57
5.16667,57
5.17500,57
5.18333,57
5.19167,56
5.20000,56
5.20833,56
5.21667,55
5.22500,55
5.23333,55
5.24167,55
5.25000,55
5.25833,55
5.26667,55
5.27500,54
5.28333,54
5.29167,54
5.30000,54
5.30833,53
5.31667,53
5.32500,53
5.33333,53
5.34167,52
5.35000,51
5.35833,51
5.36667,50
5.37500,50
5.38333,49
5.39167,49
5.40000,48
5.40833,48
5.41667,48
5.42500,47
5.43333,47
5.44167,46
5.45000,46
5.45833,46
5.46667,45
5.47500,45
5.48333,44
5.49167,44
5.50000,44
5.50833,43
5.51667,43
5.52500,42
5.53333,42
5.54167,41
5.55000,41
5.55833,40
5.56667,39
5.57500,39
5.58333,38
5.59167,38
5.60000,37
5.60833,37
5.61667,36
5.62500,36
5.63333,35
5.64167,34
5.65000,33
5.65833,33
5.66667,32
5.67500,32
5.68333,31
5.69167,30
5.70000,29
5.70833,29
5.71667,28
5.72500,27
5.73333,26
5.74167,25
5.75000,24
5.75833,24
5.76667,23
5.77500,22
5.78333,21
5.79167,21
5.80000,20
5.80833,19
5.81667,18
5.82500,17
5.83333,16
5.84167,15
5.85000,15
5.85833,14
5.86667,14
5.87500,13
5.88333,12
5.89167,11
5.90000,10
5.90833,9
5.91667,8
5.92500,7
5.93333,6
5.94167,6
5.95000,5
5.95833,4
5.96667,4
5.97500,3
5.98333,1
5.99167,0
6.00000,-1
6.00833,-2
6.01667,-2
6.02500,-3
6.03333,-3
6.04167,-4
6.05000,-5
6.05833,-5
6.06667,-6
6.07500,-7
6.08333,-7
6.09167,-8
6.10000,-9
6.10833,-10
6.11667,-10
6.12500,-11
6.13333,-12
6.14167,-13
6.15000,-14
6.15833,-15
6.16667,-16
6.17500,-16
6.18333,-17
6.19167,-18
6.20000,-19
6.20833,-19
6.21667,-19
6.22500,-20
6.23333,-20
6.24167,-21
6.25000,-22
6.25833,-23
6.26667,-23
6.27500,-24
6.28333,-24
6.29167,-25
6.30000,-25
6.30833,-26
6.31667,-27
6.32500,-28
6.33333,-29
6.34167,-29
6.35000,-30
6.35833,-30
6.36667,-31
6.37500,-31
6.38333,-31
6.39167,-32
6.40000,-32
6.40833,-33
6.41667,-33
6.42500,-34
6.43333,-34
6.44167,-35
6.45000,-36
6.45833,-37
6.46667,-37
6.47500,-37
6.48333,-38
6.49167,-38
6.50000,-38
6.50833,-38
6.51667,-38
6.52500,-38
6.53333,-39
6.54167,-39
6.55000,-40
6.55833,-41
6.56667,-42
6.57500,-42
6.58333,-42
6.59167,-42
6.60000,-43
6.60833,-43
6.61667,-43
6.62500,-43
6.63333,-44
6.64167,-44
6.65000,-44
6.65833,-43
6.66667,-43
6.67500,-44
6.68333,-44
6.69167,-44
6.70000,-44
6.70833,-44
6.71667,-45
6.72500,-45
6.73333,-46
6.74167,-46
6.75000,-47
6.75833,-47
6.76667,-47
6.77500,-47
6.78333,-47
6.79167,-47
6.80000,-47
6.80833,-48
6.81667,-48
6.82500,-48
6.83333,-48
6.84167,-48
6.85000,-48
6.85833,-48
6.86667,-48
6.87500,-48
6.88333,-49
6.89167,-49
6.90000,-50
6.90833,-50
6.91667,-50
6.92500,-50
6.93333,-50
6.94167,-50
6.95000,-50
6.95833,-50
6.96667,-50
6.97500,-50
6.98333,-49
6.99167,-49
7.00000,-50
7.00833,-50
7.01667,-50
7.02500,-51
7.03333,-51
7.04167,-51
7.05000,-51
7.05833,-50
7.06667,-50
7.07500,-51
7.08333,-51
7.09167,-51
7.10000,-51
7.10833,-51
7.11667,-52
7.12500,-52
7.13333,-52
7.14167,-53
7.15000,-52
7.15833,-52
7.16667,-53
7.17500,-53
7.18333,-53
7.19167,-53
7.20000,-53
7.20833,-53
7.21667,-53
7.22500,-53
7.23333,-53
7.24167,-53
7.25000,-52
7.25833,-52
7.26667,-52
7.27500,-52
7.28333,-53
7.29167,-52
7.30000,-52
7.30833,-52
7.31667,-52
7.32500,-52
7.33333,-52
7.34167,-52
7.35000,-52
7.35833,-52
7.36667,-52
7.37500,-52
7.38333,-52
7.39167,-53
7.40000,-53
7.40833,-53
7.41667,-53
7.42500,-53
7.43333,-53
7.44167,-52
7.45000,-52
7.45833,-53
7.46667,-53
7.47500,-53
7.48333,-53
7.49167,-53
7.50000,-53
7.50833,-53
7.51667,-54
7.52500,-54
7.53333,-54
7.54167,-54
7.55000,-54
7.55833,-54
7.56667,-54
7.57500,-54
7.58333,-54
7.59167,-54
7.60000,-54
7.60833,-54
7.61667,-54
7.62500,-54
7.63333,-54
7.64167,-54
7.65000,-53
7.65833,-53
7.66667,-53
7.67500,-54
7.68333,-54
7.69167,-54
7.70000,-54
7.70833,-54
7.71667,-54
7.72500,-54
7.73333,-54
7.74167,-54
7.75000,-54
7.75833,-54
7.76667,-54
7.77500,-54
7.78333,-54
7.79167,-54
7.80000,-54
7.80833,-54
7.81667,-55
7.82500,-55
7.83333,-55
7.84167,-55
7.85000,-55
7.85833,-55
7.86667,-55
7.87500,-55
7.88333,-55
7.89167,-54
7.90000,-55
7.90833,-55
7.91667,-55
7.92500,-55
7.93333,-55
7.94167,-55
7.95000,-55
7.95833,-55
7.96667,-55
7.97500,-55
7.98333,-55
7.99167,-55
8.00000,-55
8.00833,-55
8.01667,-55
8.02500,-55
8.03333,-55
8.04167,-55
8.05000,-56
8.05833,-56
8.06667,-55
8.07500,-55
8.08333,-55
8.09167,-55
8.10000,-55
8.10833,-55
8.11667,-55
8.12500,-55
8.13333,-55
8.14167,-56
8.15000,-56
8.15833,-56
8.16667,-56
8.17500,-56
8.18333,-56
8.19167,-56
8.20000,-56
8.20833,-56
8.21667,-57
8.22500,-57
8.23333,-57
8.24167,-57
8.25000,-57
8.25833,-57
8.26667,-56
8.27500,-56
8.28333,-56
8.29167,-56
8.30000,-56
8.30833,-56
8.31667,-56
8.32500,-56
8.33333,-56
8.34167,-56
8.35000,-56
8.35833,-56
8.36667,-57
8.37500,-56
8.38333,-56
8.39167,-56
8.40000,-56
8.40833,-56
8.41667,-56
8.42500,-56
8.43333,-56
8.44167,-56
8.45000,-56
8.45833,-56
8.46667,-56
8.47500,-57
8.48333,-57
8.49167,-57
8.50000,-57
8.50833,-57
8.51667,-57
8.52500,-57
8.53333,-56
8.54167,-57
8.55000,-57
8.55833,-57
8.56667,-57
8.57500,-57
8.58333,-57
8.59167,-57
8.60000,-57
8.60833,-57
8.61667,-57
8.62500,-57
8.63333,-57
8.64167,-57
8.65000,-57
8.65833,-57
8.66667,-57
8.67500,-57
8.68333,-57
8.69167,-57
8.70000,-57
8.70833,-57
8.71667,-57
8.72500,-57
8.73333,-57
8.74167,-57
8.75000,-57
8.75833,-58
8.76667,-58
8.77500,-58
8.78333,-58
8.79167,-57
8.80000,-57
8.80833,-57
8.81667,-57
8.82500,-57
8.83333,-58
8.84167,-58
8.85000,-58
8.85833,-57
8.86667,-57
8.87500,-57
8.88333,-57
8.89167,-57
8.90000,-57
8.90833,-58
8.91667,-58
8.92500,-58
8.93333,-57
8.94167,-57
8.95000,-57
8.95833,-57
8.96667,-57
8.97500,-57
8.98333,-57
8.99167,-57
9.00000,-57
9.00833,-57
9.01667,-57
9.02500,-57
9.03333,-57
9.04167,-58
9.05000,-58
9.05833,-57
9.06667,-57
9.07500,-57
9.08333,-57
9.09167,-57
9.10000,-57
9.10833,-57
9.11667,-57
9.12500,-57
9.13333,-57
9.14167,-57
9.15000,-57
9.15833,-57
9.16667,-57
9.17500,-57
9.18333,-57
9.19167,-57
9.20000,-57
9.20833,-57
9.21667,-57
9.22500,-57
9.23333,-57
9.24167,-58
9.25000,-58
9.25833,-58
9.26667,-58
9.27500,-59
9.28333,-59
9.29167,-59
9.30000,-59
9.30833,-59
9.31667,-59
9.32500,-58
9.33333,-58
9.34167,-57
9.35000,-57
9.35833,-57
9.36667,-57
9.37500,-57
9.38333,-57
9.39167,-57
9.40000,-58
9.40833,-58
9.41667,-58
9.42500,-58
9.43333,-58
9.44167,-58
9.45000,-58
9.45833,-58
9.46667,-58
9.47500,-58
9.48333,-57
9.49167,-57
9.50000,-57
9.50833,-57
9.51667,-57
9.52500,-57
9.53333,-57
9.54167,-57
9.55000,-57
9.55833,-57
9.56667,-56
9.57500,-56
9.58333,-56
9.59167,-56
9.60000,-56
9.60833,-56
9.61667,-56
9.62500,-56
9.63333,-56
9.64167,-57
9.65000,-57
9.65833,-57
9.66667,-57
9.67500,-57
9.68333,-57
9.69167,-57
9.70000,-57
9.70833,-57
9.71667,-57
9.72500,-57
9.73333,-57
9.74167,-57
9.75000,-57
9.75833,-57
9.76667,-56
9.77500,-56
9.78333,-56
9.79167,-56
9.80000,-56
9.80833,-56
9.81667,-56
9.82500,-56
9.83333,-55
9.84167,-55
9.85000,-55
9.85833,-55
9.86667,-55
9.87500,-55
9.88333,-55
9.89167,-55
9.90000,-55
9.90833,-55
9.91667,-55
9.92500,-55
9.93333,-54
9.94167,-54
9.95000,-54
9.95833,-54
9.96667,-54
9.97500,-54
9.98333,-54
9.99167,-54
10.00000,-54
10.00833,-54
10.01667,-54
10.02500,-54
10.03333,-53
10.04167,-53
10.05000,-53
10.05833,-52
10.06667,-52
10.07500,-52
10.08333,-52
10.09167,-51
10.10000,-50
10.10833,-49
10.11667,-48
10.12500,-48
10.13333,-47
10.14167,-46
10.15000,-45
10.15833,-45
10.16667,-44
10.17500,-44
10.18333,-42
10.19167,-41
10.20000,-40
10.20833,-38
10.21667,-37
10.22500,-35
10.23333,-34
10.24167,-32
10.25000,-30
10.25833,-27
10.26667,-24
10.27500,-21
10.28333,-17
10.29167,-12
10.30000,-7
10.30833,-1
10.31667,7
10.32500,15
10.33333,25
10.34167,36
10.35000,48
10.35833,63
10.36667,79
10.37500,97
10.38333,116
10.39167,136
10.40000,158
10.40833,179
10.41667,200
10.42500,221
10.43333,239
10.44167,255
10.45000,268
10.45833,278
10.46667,285
10.47500,288
10.48333,289
10.49167,288
10.50000,287
10.50833,289
10.51667,295
10.52500,309
10.53333,335
10.54167,377
10.55000,439
10.55833,527
10.56667,647
10.57500,804
10.58333,1005
10.59167,1256
10.60000,1562
10.60833,1930
10.61667,2366
10.62500,2876
10.63333,3466
10.64167,4141
10.65000,4906
10.65833,5767
10.66667,6728
10.67500,7793
10.68333,8966
10.69167,10251
10.70000,11650
10.70833,13167
10.71667,14803
10.72500,16560
10.73333,18440
10.74167,20443
10.75000,22571
10.75833,24822
10.76667,27197
10.77500,29695
10.78333,32314
10.79167,35054
10.80000,37911
10.80833,40883
10.81667,43967
10.82500,47159
10.83333,50453
10.84167,53845
10.85000,57328
10.85833,60894
10.86667,64535
10.87500,68238
10.88333,71993
10.89167,75783
10.90000,79591
10.90833,83398
10.91667,87178
10.92500,90905
10.93333,94545
10.94167,98064
10.95000,101418
10.95833,104561
10.96667,107444
10.97500,110013
10.98333,112211
10.99167,113983
11.00000,115271
11.00833,116025
11.01667,116196
11.02500,115748
11.03333,114656
11.04167,112908
11.05000,110509
11.05833,107483
11.06667,103871
11.07500,99732
11.08333,95137
11.09167,90172
11.10000,84929
11.10833,79503
11.11667,73990
11.12500,68479
11.13333,63051
11.14167,57779
11.15000,52722
11.15833,47926
11.16667,43426
11.17500,39242
11.18333,35387
11.19167,31863
11.20000,28664
11.20833,25778
11.21667,23188
11.22500,20876
11.23333,18819
11.24167,16995
11.25000,15383
11.25833,13961
11.26667,12707
11.27500,11604
11.28333,10633
11.29167,9778
11.30000,9024
11.30833,8359
11.31667,7771
11.32500,7250
11.33333,6786
11.34167,6373
11.35000,6004
11.35833,5672
11.36667,5373
11.37500,5102
11.38333,4856
11.39167,4631
11.40000,4424
11.40833,4234
11.41667,4059
11.42500,3896
11.43333,3744
11.44167,3603
11.45000,3469
11.45833,3344
11.46667,3226
11.47500,3115
11.48333,3009
11.49167,2908
11.50000,2813
11.50833,2722
11.51667,2635
11.52500,2552
11.53333,2473
11.54167,2396
11.55000,2323
11.55833,2253
11.56667,2186
11.57500,2122
11.58333,2060
11.59167,2000
11.60000,1943
11.60833,1888
11.61667,1835
11.62500,1784
11.63333,1735
11.64167,1688
11.65000,1642
11.65833,1599
11.66667,1556
11.67500,1516
11.68333,1477
11.69167,1439
11.70000,1403
11.70833,1368
11.71667,1335
11.72500,1303
11.73333,1273
11.74167,1244
11.75000,1215
11.75833,1188
11.76667,1162
11.77500,1137
11.78333,1113
11.79167,1090
11.80000,1067
11.80833,1046
11.81667,1025
11.82500,1005
11.83333,987
11.84167,969
11.85000,951
11.85833,935
11.86667,919
11.87500,904
11.88333,890
11.89167,876
11.90000,862
11.90833,849
11.91667,837
11.92500,824
11.93333,813
11.94167,802
11.95000,791
11.95833,781
11.96667,772
11.97500,762
11.98333,754
11.99167,745
12.00000,737
12.00833,729
12.01667,722
12.02500,715
12.03333,708
12.04167,702
12.05000,696
12.05833,689
12.06667,684
12.07500,678
12.08333,673
12.09167,668
12.10000,663
12.10833,658
12.11667,654
12.12500,650
12.13333,646
12.14167,642
12.15000,639
12.15833,636
12.16667,632
12.17500,630
12.18333,627
12.19167,624
12.20000,622
12.20833,620
12.21667,618
12.22500,616
12.23333,614
12.24167,613
12.25000,612
12.25833,612
12.26667,611
12.27500,611
12.28333,610
12.29167,610
12.30000,609
12.30833,609
12.31667,609
12.32500,609
12.33333,609
12.34167,609
12.35000,609
12.35833,608
12.36667,608
12.37500,608
12.38333,608
12.39167,608
12.40000,608
12.40833,608
12.41667,607
12.42500,607
12.43333,606
12.44167,605
12.45000,605
12.45833,604
12.46667,603
12.47500,602
12.48333,601
12.49167,600
12.50000,599
12.50833,598
12.51667,597
12.52500,595
12.53333,593
12.54167,592
12.55000,590
12.55833,588
12.56667,586
12.57500,584
12.58333,582
12.59167,580
12.60000,578
12.60833,576
12.61667,574
12.62500,572
12.63333,570
12.64167,569
12.65000,568
12.65833,567
12.66667,567
12.67500,568
12.68333,569
12.69167,571
12.70000,574
12.70833,578
12.71667,584
12.72500,591
12.73333,599
12.74167,610
12.75000,623
12.75833,639
12.76667,657
12.77500,678
12.78333,702
12.79167,729
12.80000,760
12.80833,795
12.81667,834
12.82500,877
12.83333,924
12.84167,977
12.85000,1034
12.85833,1096
12.86667,1163
12.87500,1235
12.88333,1313
12.89167,1396
12.90000,1485
12.90833,1579
12.91667,1679
12.92500,1786
12.93333,1898
12.94167,2016
12.95000,2139
12.95833,2269
12.96667,2404
12.97500,2545
12.98333,2692
12.99167,2845
13.00000,3003
13.00833,3167
13.01667,3337
13.02500,3513
13.03333,3694
13.04167,3881
13.05000,4074
13.05833,4272
13.06667,4475
13.07500,4684
13.08333,4897
13.09167,5116
13.10000,5340
13.10833,5569
13.11667,5802
13.12500,6040
13.13333,6283
13.14167,6530
13.15000,6782
13.15833,7039
13.16667,7300
13.17500,7565
13.18333,7834
13.19167,8108
13.20000,8385
13.20833,8666
13.21667,8950
13.22500,9239
13.23333,9531
13.24167,9827
13.25000,10126
13.25833,10429
13.26667,10736
13.27500,11046
13.28333,11359
13.29167,11676
13.30000,11996
13.30833,12319
13.31667,12645
13.32500,12974
13.33333,13307
13.34167,13643
13.35000,13982
13.35833,14324
13.36667,14670
13.37500,15018
13.38333,15369
13.39167,15723
13.40000,16081
13.40833,16441
13.41667,16804
13.42500,17170
13.43333,17540
13.44167,17912
13.45000,18287
13.45833,18666
13.46667,19047
13.47500,19432
13.48333,19820
13.49167,20210
13.50000,20604
13.50833,21002
13.51667,21402
13.52500,21806
13.53333,22213
13.54167,22622
13.55000,23035
13.55833,23452
13.56667,23871
13.57500,24294
13.58333,24720
13.59167,25150
13.60000,25582
13.60833,26018
13.61667,26458
13.62500,26901
13.63333,27348
13.64167,27798
13.65000,28251
13.65833,28709
13.66667,29170
13.67500,29634
13.68333,30103
13.69167,30575
13.70000,31050
13.70833,31529
13.71667,32012
13.72500,32499
13.73333,32990
13.74167,33486
13.75000,33985
13.75833,34489
13.76667,34997
13.77500,35508
13.78333,36024
13.79167,36545
13.80000,37069
13.80833,37597
13.81667,38130
13.82500,38667
13.83333,39209
13.84167,39755
13.85000,40306
13.85833,40862
13.86667,41422
13.87500,41987
13.88333,42556
13.89167,43130
13.90000,43710
13.90833,44295
13.91667,44885
13.92500,45479
13.93333,46078
13.94167,46683
13.95000,47293
13.95833,47908
13.96667,48529
13.97500,49155
13.98333,49786
13.99167,50423
14.00000,51065
14.00833,51713
14.01667,52367
14.02500,53027
14.03333,53692
14.04167,54363
14.05000,55040
14.05833,55723
14.06667,56413
14.07500,57109
14.08333,57811
14.09167,58519
14.10000,59234
14.10833,59956
14.11667,60685
14.12500,61420
14.13333,62161
14.14167,62910
14.15000,63666
14.15833,64428
14.16667,65198
14.17500,65975
14.18333,66759
14.19167,67549
14.20000,68346
14.20833,69146
14.21667,69949
14.22500,70752
14.23333,71549
14.24167,72337
14.25000,73106
14.25833,73848
14.26667,74553
14.27500,75209
14.28333,75804
14.29167,76325
14.30000,76759
14.30833,77095
14.31667,77321
14.32500,77427
14.33333,77405
14.34167,77249
14.35000,76953
14.35833,76513
14.36667,75925
14.37500,75188
14.38333,74299
14.39167,73255
14.40000,72055
14.40833,70695
14.41667,69176
14.42500,67495
14.43333,65653
14.44167,63651
14.45000,61493
14.45833,59189
14.46667,56748
14.47500,54186
14.48333,51520
14.49167,48774
14.50000,45971
14.50833,43137
14.51667,40300
14.52500,37487
14.53333,34724
14.54167,32037
14.55000,29447
14.55833,26973
14.56667,24629
14.57500,22428
14.58333,20376
14.59167,18477
14.60000,16732
14.60833,15139
14.61667,13692
14.62500,12385
14.63333,11210
14.64167,10158
14.65000,9220
14.65833,8385
14.66667,7644
14.67500,6988
14.68333,6407
14.69167,5894
14.70000,5441
14.70833,5041
14.71667,4688
14.72500,4375
14.73333,4098
14.74167,3852
14.75000,3632
14.75833,3437
14.76667,3262
14.77500,3106
14.78333,2964
14.79167,2837
14.80000,2722
14.80833,2617
14.81667,2521
14.82500,2432
14.83333,2351
14.84167,2276
14.85000,2206
14.85833,2142
14.86667,2082
14.87500,2025
14.88333,1973
14.89167,1923
14.90000,1876
14.90833,1831
14.91667,1789
14.92500,1749
14.93333,1712
14.94167,1676
14.95000,1642
14.95833,1610
14.96667,1579
14.97500,1550
14.98333,1522
14.99167,1496
15.00000,1471
15.00833,1447
15.01667,1424
15.02500,1402
15.03333,1381
15.04167,1362
15.05000,1343
15.05833,1325
15.06667,1309
15.07500,1293
15.08333,1278
15.09167,1264
15.10000,1251
15.10833,1238
15.11667,1227
15.12500,1217
15.13333,1207
15.14167,1199
15.15000,1192
15.15833,1186
15.16667,1182
15.17500,1179
15.18333,1178
15.19167,1180
15.20000,1186
15.20833,1195
15.21667,1208
15.22500,1226
15.23333,1251
15.24167,1283
15.25000,1324
15.25833,1376
15.26667,1439
15.27500,1515
15.28333,1608
15.29167,1719
15.30000,1850
15.30833,2005
15.31667,2185
15.32500,2394
15.33333,2635
15.34167,2910
15.35000,3222
15.35833,3576
15.36667,3974
15.37500,4418
15.38333,4913
15.39167,5460
15.40000,6062
15.40833,6720
15.41667,7436
15.42500,8211
15.43333,9047
15.44167,9941
15.45000,10895
15.45833,11906
15.46667,12974
15.47500,14095
15.48333,15266
15.49167,16485
15.50000,17746
15.50833,19044
15.51667,20374
15.52500,21730
15.53333,23106
15.54167,24496
15.55000,25892
15.55833,27288
15.56667,28678
15.57500,30054
15.58333,31409
15.59167,32737
15.60000,34032
15.60833,35288
15.61667,36499
15.62500,37661
15.63333,38767
15.64167,39816
15.65000,40801
15.65833,41720
15.66667,42570
15.67500,43348
15.68333,44052
15.69167,44680
15.70000,45231
15.70833,45704
15.71667,46098
15.72500,46412
15.73333,46646
15.74167,46801
15.75000,46875
15.75833,46870
15.76667,46787
15.77500,46625
15.78333,46386
15.79167,46072
15.80000,45683
15.80833,45223
15.81667,44692
15.82500,44093
15.83333,43429
15.84167,42702
15.85000,41916
15.85833,41073
15.86667,40179
15.87500,39237
15.88333,38250
15.89167,37223
15.90000,36160
15.90833,35067
15.91667,33948
15.92500,32807
15.93333,31649
15.94167,30480
15.95000,29304
15.95833,28125
15.96667,26949
15.97500,25779
15.98333,24620
15.99167,23476
16.00000,22349
16.00833,21244
16.01667,20164
16.02500,19111
16.03333,18088
16.04167,17096
16.05000,16139
16.05833,15216
16.06667,14330
16.07500,13481
16.08333,12669
16.09167,11896
16.10000,11160
16.10833,10463
16.11667,9804
16.12500,9182
16.13333,8595
16.14167,8044
16.15000,7527
16.15833,7043
16.16667,6590
16.17500,6168
16.18333,5776
16.19167,5411
16.20000,5073
16.20833,4760
16.21667,4471
16.22500,4204
16.23333,3957
16.24167,3730
16.25000,3521
16.25833,3329
16.26667,3152
16.27500,2990
16.28333,2840
16.29167,2704
16.30000,2578
16.30833,2463
16.31667,2358
16.32500,2261
16.33333,2172
16.34167,2091
16.35000,2016
16.35833,1947
16.36667,1883
16.37500,1824
16.38333,1770
16.39167,1719
16.40000,1672
16.40833,1628
16.41667,1588
16.42500,1550
16.43333,1514
16.44167,1480
16.45000,1449
16.45833,1418
16.46667,1390
16.47500,1363
16.48333,1336
16.49167,1311
16.50000,1286
16.50833,1262
16.51667,1240
16.52500,1217
16.53333,1196
16.54167,1174
16.55000,1154
16.55833,1134
16.56667,1114
16.57500,1094
16.58333,1074
16.59167,1055
16.60000,1036
16.60833,1018
16.61667,1000
16.62500,982
16.63333,964
16.64167,947
16.65000,930
16.65833,914
16.66667,899
16.67500,883
16.68333,868
16.69167,853
16.70000,839
16.70833,826
16.71667,813
16.72500,801
16.73333,789
16.74167,777
16.75000,766
16.75833,755
16.76667,744
16.77500,734
16.78333,725
16.79167,717
16.80000,709
16.80833,702
16.81667,695
16.82500,688
16.83333,682
16.84167,676
16.85000,670
16.85833,665
16.86667,660
16.87500,655
16.88333,651
16.89167,647
16.90000,643
16.90833,640
16.91667,637
16.92500,634
16.93333,631
16.94167,629
16.95000,627
16.95833,625
16.96667,624
16.97500,622
16.98333,621
16.99167,619
17.00000,617
17.00833,616
17.01667,614
17.02500,613
17.03333,612
17.04167,611
17.05000,611
17.05833,610
17.06667,610
17.07500,609
17.08333,608
17.09167,607
17.10000,607
17.10833,607
17.11667,606
17.12500,606
17.13333,605
17.14167,605
17.15000,604
17.15833,604
17.16667,603
17.17500,602
17.18333,601
17.19167,600
17.20000,599
17.20833,598
17.21667,597
17.22500,596
17.23333,595
17.24167,595
17.25000,594
17.25833,593
17.26667,593
17.27500,592
17.28333,592
17.29167,591
17.30000,590
17.30833,589
17.31667,588
17.32500,587
17.33333,586
17.34167,585
17.35000,585
17.35833,584
17.36667,584
17.37500,583
17.38333,582
17.39167,582
17.40000,583
17.40833,583
17.41667,584
17.42500,585
17.43333,585
17.44167,586
17.45000,588
17.45833,589
17.46667,592
17.47500,595
17.48333,598
17.49167,601
17.50000,604
17.50833,608
17.51667,612
17.52500,616
17.53333,620
17.54167,624
17.55000,629
17.55833,634
17.56667,639
17.57500,645
17.58333,651
17.59167,656
17.60000,662
17.60833,668
17.61667,674
17.62500,681
17.63333,687
17.64167,693
17.65000,699
17.65833,706
17.66667,712
17.67500,718
17.68333,724
17.69167,730
17.70000,736
17.70833,741
17.71667,747
17.72500,752
17.73333,756
17.74167,761
17.75000,766
17.75833,770
17.76667,774
17.77500,778
17.78333,782
17.79167,785
17.80000,788
17.80833,790
17.81667,793
17.82500,795
17.83333,796
17.84167,798
17.85000,799
17.85833,800
17.86667,800
17.87500,800
17.88333,800
17.89167,799
17.90000,797
17.90833,795
17.91667,793
17.92500,791
17.93333,788
17.94167,785
17.95000,781
17.95833,778
17.96667,773
17.97500,768
17.98333,763
17.99167,758
18.00000,752
18.00833,746
18.01667,740
18.02500,734
18.03333,728
18.04167,721
18.05000,714
18.05833,707
18.06667,700
18.07500,692
18.08333,685
18.09167,677
18.10000,670
18.10833,662
18.11667,655
18.12500,647
18.13333,640
18.14167,632
18.15000,625
18.15833,618
18.16667,610
18.17500,603
18.18333,596
18.19167,590
18.20000,583
18.20833,577
18.21667,570
18.22500,564
18.23333,558
18.24167,552
18.25000,547
18.25833,542
18.26667,537
18.27500,532
18.28333,528
18.29167,524
18.30000,520
18.30833,517
18.31667,514
18.32500,511
18.33333,509
18.34167,506
18.35000,504
18.35833,502
18.36667,500
18.37500,499
18.38333,498
18.39167,498
18.40000,497
18.40833,497
18.41667,497
18.42500,498
18.43333,498
18.44167,499
18.45000,501
18.45833,502
18.46667,504
18.47500,506
18.48333,508
18.49167,511
18.50000,513
18.50833,517
18.51667,520
18.52500,523
18.53333,527
18.54167,531
18.55000,535
18.55833,539
18.56667,543
18.57500,547
18.58333,550
18.59167,554
18.60000,559
18.60833,564
18.61667,568
18.62500,573
18.63333,578
18.64167,582
18.65000,587
18.65833,591
18.66667,596
18.67500,600
18.68333,605
18.69167,610
18.70000,615
18.70833,620
18.71667,625
18.72500,629
18.73333,634
18.74167,638
18.75000,643
18.75833,647
18.76667,651
18.77500,656
18.78333,660
18.79167,665
18.80000,669
18.80833,673
18.81667,678
18.82500,682
18.83333,686
18.84167,691
18.85000,696
18.85833,700
18.86667,704
18.87500,708
18.88333,712
18.89167,715
18.90000,719
18.90833,722
18.91667,726
18.92500,729
18.93333,732
18.94167,736
18.95000,739
18.95833,742
18.96667,745
18.97500,748
18.98333,751
18.99167,753
19.00000,756
19.00833,758
19.01667,760
19.02500,761
19.03333,763
19.04167,764
19.05000,765
19.05833,766
19.06667,767
19.07500,768
19.08333,768
19.09167,769
19.10000,769
19.10833,769
19.11667,769
19.12500,768
19.13333,767
19.14167,766
19.15000,765
19.15833,763
19.16667,762
19.17500,760
19.18333,757
19.19167,755
19.20000,753
19.20833,750
19.21667,747
19.22500,743
19.23333,740
19.24167,736
19.25000,732
19.25833,727
19.26667,723
19.27500,719
19.28333,714
19.29167,709
19.30000,704
19.30833,699
19.31667,694
19.32500,688
19.33333,683
19.34167,677
19.35000,671
19.35833,664
19.36667,658
19.37500,651
19.38333,645
19.39167,639
19.40000,632
19.40833,625
19.41667,618
19.42500,611
19.43333,605
19.44167,598
19.45000,591
19.45833,584
19.46667,576
19.47500,569
19.48333,562
19.49167,555
19.50000,548
19.50833,541
19.51667,534
19.52500,528
19.53333,521
19.54167,514
19.55000,508
19.55833,501
19.56667,495
19.57500,489
19.58333,483
19.59167,477
19.60000,472
19.60833,466
19.61667,462
19.62500,456
19.63333,451
19.64167,447
19.65000,442
19.65833,438
19.66667,434
19.67500,431
19.68333,428
19.69167,424
19.70000,421
19.70833,418
19.71667,416
19.72500,414
19.73333,413
19.74167,412
19.75000,411
19.75833,410
19.76667,410
19.77500,411
19.78333,412
19.79167,413
19.80000,415
19.80833,417
19.81667,420
19.82500,423
19.83333,427
19.84167,432
19.85000,438
19.85833,443
19.86667,450
19.87500,456
19.88333,464
19.89167,472
19.90000,481
19.90833,491
19.91667,501
19.92500,512
19.93333,523
19.94167,534
19.95000,546
19.95833,559
19.96667,571
19.97500,585
19.98333,598
19.99167,613
20.00000,627
20.00833,642
20.01667,656
20.02500,671
20.03333,687
20.04167,702
20.05000,717
20.05833,732
20.06667,748
20.07500,763
20.08333,778
20.09167,792
20.10000,807
20.10833,821
20.11667,835
20.12500,848
20.13333,862
20.14167,874
20.15000,887
20.15833,899
20.16667,910
20.17500,920
20.18333,930
20.19167,939
20.20000,948
20.20833,956
20.21667,963
20.22500,970
20.23333,976
20.24167,981
20.25000,986
20.25833,990
20.26667,993
20.27500,996
20.28333,998
20.29167,999
20.30000,1000
20.30833,1000
20.31667,999
20.32500,997
20.33333,995
20.34167,993
20.35000,990
20.35833,986
20.36667,982
20.37500,977
20.38333,972
20.39167,966
20.40000,959
20.40833,952
20.41667,944
20.42500,936
20.43333,927
20.44167,918
20.45000,909
20.45833,899
20.46667,889
20.47500,879
20.48333,868
20.49167,857
20.50000,845
20.50833,834
20.51667,823
20.52500,811
20.53333,800
20.54167,788
20.55000,776
20.55833,765
20.56667,753
20.57500,742
20.58333,731
20.59167,720
20.60000,709
20.60833,698
20.61667,688
20.62500,678
20.63333,669
20.64167,659
20.65000,650
20.65833,641
20.66667,632
20.67500,623
20.68333,615
20.69167,608
20.70000,600
20.70833,593
20.71667,586
20.72500,580
20.73333,574
20.74167,568
20.75000,563
20.75833,557
20.76667,552
20.77500,548
20.78333,543
20.79167,539
20.80000,536
20.80833,533
20.81667,530
20.82500,527
20.83333,524
20.84167,522
20.85000,521
20.85833,519
20.86667,518
20.87500,517
20.88333,517
20.89167,517
20.90000,518
20.90833,520
20.91667,521
20.92500,523
20.93333,526
20.94167,530
20.95000,535
20.95833,541
20.96667,548
20.97500,556
20.98333,565
20.99167,575
21.00000,587
21.00833,601
21.01667,616
21.02500,632
21.03333,651
21.04167,671
21.05000,693
21.05833,718
21.06667,744
21.07500,773
21.08333,804
21.09167,837
21.10000,873
21.10833,911
21.11667,951
21.12500,993
21.13333,1038
21.14167,1084
21.15000,1133
21.15833,1184
21.16667,1236
21.17500,1291
21.18333,1346
21.19167,1404
21.20000,1462
21.20833,1521
21.21667,1581
21.22500,1641
21.23333,1702
21.24167,1764
21.25000,1825
21.25833,1885
21.26667,1946
21.27500,2005
21.28333,2065
21.29167,2123
21.30000,2179
21.30833,2235
21.31667,2289
21.32500,2341
21.33333,2392
21.34167,2441
21.35000,2489
21.35833,2534
21.36667,2578
21.37500,2619
21.38333,2659
21.39167,2696
21.40000,2732
21.40833,2766
21.41667,2798
21.42500,2828
21.43333,2856
21.44167,2882
21.45000,2906
21.45833,2929
21.46667,2949
21.47500,2968
21.48333,2985
21.49167,3000
21.50000,3014
21.50833,3025
21.51667,3035
21.52500,3043
21.53333,3048
21.54167,3051
21.55000,3053
21.55833,3052
21.56667,3049
21.57500,3044
21.58333,3037
21.59167,3027
21.60000,3016
21.60833,3002
21.61667,2986
21.62500,2967
21.63333,2946
21.64167,2923
21.65000,2898
21.65833,2871
21.66667,2841
21.67500,2810
21.68333,2776
21.69167,2741
21.70000,2703
21.70833,2664
21.71667,2624
21.72500,2582
21.73333,2539
21.74167,2495
21.75000,2450
21.75833,2405
21.76667,2358
21.77500,2312
21.78333,2264
21.79167,2217
21.80000,2169
21.80833,2122
21.81667,2075
21.82500,2028
21.83333,1982
21.84167,1936
21.85000,1891
21.85833,1847
21.86667,1803
21.87500,1761
21.88333,1720
21.89167,1679
21.90000,1640
21.90833,1602
21.91667,1564
21.92500,1528
21.93333,1493
21.94167,1459
21.95000,1426
21.95833,1394
21.96667,1362
21.97500,1332
21.98333,1302
21.99167,1273
22.00000,1245
22.00833,1217
22.01667,1191
22.02500,1165
22.03333,1139
22.04167,1114
22.05000,1089
22.05833,1065
22.06667,1041
22.07500,1017
22.08333,993
22.09167,971
22.10000,948
22.10833,926
22.11667,904
22.12500,882
22.13333,860
22.14167,839
22.15000,817
22.15833,796
22.16667,776
22.17500,756
22.18333,736
22.19167,716
22.20000,696
22.20833,677
22.21667,659
22.22500,641
22.23333,623
22.24167,606
22.25000,589
22.25833,572
22.26667,557
22.27500,542
22.28333,527
22.29167,513
22.30000,499
22.30833,486
22.31667,473
22.32500,461
22.33333,449
22.34167,437
22.35000,427
22.35833,417
22.36667,408
22.37500,399
22.38333,391
22.39167,382
22.40000,375
22.40833,367
22.41667,361
22.42500,355
22.43333,349
22.44167,344
22.45000,339
22.45833,334
22.46667,330
22.47500,327
22.48333,323
22.49167,321
22.50000,318
22.50833,316
22.51667,315
22.52500,313
22.53333,312
22.54167,312
22.55000,311
22.55833,312
22.56667,312
22.57500,312
22.58333,313
22.59167,314
22.60000,316
22.60833,317
22.61667,320
22.62500,322
22.63333,326
22.64167,329
22.65000,332
22.65833,336
22.66667,340
22.67500,344
22.68333,348
22.69167,353
22.70000,358
22.70833,363
22.71667,369
22.72500,375
22.73333,381
22.74167,387
22.75000,394
22.75833,401
22.76667,408
22.77500,416
22.78333,423
22.79167,430
22.80000,438
22.80833,445
22.81667,452
22.82500,460
22.83333,467
22.84167,475
22.85000,483
22.85833,490
22.86667,498
22.87500,506
22.88333,514
22.89167,521
22.90000,528
22.90833,535
22.91667,542
22.92500,549
22.93333,556
22.94167,563
22.95000,569
22.95833,575
22.96667,581
22.97500,586
22.98333,592
22.99167,597
23.00000,602
23.00833,607
23.01667,611
23.02500,616
23.03333,620
23.04167,624
23.05000,627
23.05833,630
23.06667,632
23.07500,635
23.08333,638
23.09167,640
23.10000,642
23.10833,644
23.11667,645
23.12500,645
23.13333,646
23.14167,646
23.15000,646
23.15833,645
23.16667,645
23.17500,643
23.18333,642
23.19167,640
23.20000,637
23.20833,635
23.21667,632
23.22500,628
23.23333,625
23.24167,621
23.25000,617
23.25833,612
23.26667,607
23.27500,602
23.28333,597
23.29167,591
23.30000,586
23.30833,580
23.31667,575
23.32500,569
23.33333,563
23.34167,557
23.35000,551
23.35833,545
23.36667,539
23.37500,533
23.38333,527
23.39167,521
23.40000,515
23.40833,509
23.41667,504
23.42500,498
23.43333,493
23.44167,487
23.45000,482
23.45833,477
23.46667,473
23.47500,468
23.48333,463
23.49167,459
23.50000,454
23.50833,450
23.51667,446
23.52500,443
23.53333,439
23.54167,436
23.55000,432
23.55833,429
23.56667,426
23.57500,424
23.58333,421
23.59167,418
23.60000,416
23.60833,413
23.61667,411
23.62500,410
23.63333,408
23.64167,407
23.65000,405
23.65833,403
23.66667,402
23.67500,400
23.68333,399
23.69167,398
23.70000,397
23.70833,396
23.71667,395
23.72500,394
23.73333,393
23.74167,392
23.75000,391
23.75833,391
23.76667,390
23.77500,389
23.78333,388
23.79167,387
23.80000,386
23.80833,385
23.81667,385
23.82500,384
23.83333,383
23.84167,382
23.85000,381
23.85833,381
23.86667,380
23.87500,379
23.88333,378
23.89167,378
23.90000,377
23.90833,376
23.91667,376
23.92500,375
23.93333,374
23.94167,374
23.95000,373
23.95833,372
23.96667,371
23.97500,370
23.98333,370
23.99167,369
24.00000,368
24.00833,368
24.01667,367
24.02500,366
24.03333,366
24.04167,365
24.05000,365
24.05833,364
24.06667,363
24.07500,362
24.08333,362
24.09167,361
24.10000,360
24.10833,360
24.11667,359
24.12500,358
24.13333,358
24.14167,357
24.15000,356
24.15833,356
24.16667,355
24.17500,355
24.18333,355
24.19167,354
24.20000,354
24.20833,353
24.21667,353
24.22500,352
24.23333,352
24.24167,352
24.25000,352
24.25833,353
24.26667,353
24.27500,353
24.28333,353
24.29167,353
24.30000,354
24.30833,355
24.31667,356
24.32500,357
24.33333,358
24.34167,360
24.35000,362
24.35833,365
24.36667,368
24.37500,371
24.38333,375
24.39167,379
24.40000,384
24.40833,390
24.41667,397
24.42500,405
24.43333,413
24.44167,423
24.45000,433
24.45833,445
24.46667,459
24.47500,474
24.48333,491
24.49167,509
24.50000,529
24.50833,550
24.51667,574
24.52500,599
24.53333,627
24.54167,657
24.55000,688
24.55833,722
24.56667,759
24.57500,798
24.58333,839
24.59167,883
24.60000,929
24.60833,978
24.61667,1029
24.62500,1083
24.63333,1138
24.64167,1197
24.65000,1257
24.65833,1320
24.66667,1384
24.67500,1450
24.68333,1519
24.69167,1588
24.70000,1659
24.70833,1732
24.71667,1806
24.72500,1881
24.73333,1957
24.74167,2033
24.75000,2109
24.75833,2185
24.76667,2262
24.77500,2338
24.78333,2414
24.79167,2489
24.80000,2563
24.80833,2636
24.81667,2708
24.82500,2779
24.83333,2849
24.84167,2917
24.85000,2984
24.85833,3049
24.86667,3112
24.87500,3173
24.88333,3233
24.89167,3290
24.90000,3345
24.90833,3398
24.91667,3448
24.92500,3497
24.93333,3543
24.94167,3587
24.95000,3628
24.95833,3667
24.96667,3704
24.97500,3738
24.98333,3770
24.99167,3799
25.00000,3826
25.00833,3850
25.01667,3872
25.02500,3891
25.03333,3907
25.04167,3921
25.05000,3932
25.05833,3941
25.06667,3947
25.07500,3950
25.08333,3950
25.09167,3946
25.10000,3940
25.10833,3932
25.11667,3920
25.12500,3905
25.13333,3887
25.14167,3865
25.15000,3841
25.15833,3814
25.16667,3783
25.17500,3750
25.18333,3713
25.19167,3674
25.20000,3632
25.20833,3586
25.21667,3538
25.22500,3487
25.23333,3433
25.24167,3377
25.25000,3319
25.25833,3258
25.26667,3195
25.27500,3131
25.28333,3064
25.29167,2996
25.30000,2926
25.30833,2856
25.31667,2784
25.32500,2711
25.33333,2638
25.34167,2564
25.35000,2490
25.35833,2415
25.36667,2341
25.37500,2268
25.38333,2195
25.39167,2122
25.40000,2050
25.40833,1979
25.41667,1910
25.42500,1841
25.43333,1774
25.44167,1708
25.45000,1643
25.45833,1580
25.46667,1519
25.47500,1460
25.48333,1403
25.49167,1347
25.50000,1294
25.50833,1242
25.51667,1193
25.52500,1145
25.53333,1099
25.54167,1054
25.55000,1012
25.55833,972
25.56667,934
25.57500,897
25.58333,863
25.59167,829
25.60000,798
25.60833,768
25.61667,740
25.62500,713
25.63333,688
25.64167,665
25.65000,642
25.65833,622
25.66667,602
25.67500,583
25.68333,565
25.69167,549
25.70000,534
25.70833,519
25.71667,506
25.72500,493
25.73333,480
25.74167,469
25.75000,458
25.75833,447
25.76667,437
25.77500,428
25.78333,419
25.79167,411
25.80000,404
25.80833,396
25.81667,390
25.82500,383
25.83333,376
25.84167,370
25.85000,364
25.85833,358
25.86667,352
25.87500,347
25.88333,342
25.89167,337
25.90000,332
25.90833,327
25.91667,322
25.92500,317
25.93333,312
25.94167,307
25.95000,303
25.95833,298
25.96667,294
25.97500,290
25.98333,286
25.99167,281
26.00000,276
26.00833,272
26.01667,268
26.02500,263
26.03333,259
26.04167,255
26.05000,250
26.05833,246
26.06667,242
26.07500,238
26.08333,234
26.09167,231
26.10000,227
26.10833,222
26.11667,218
26.12500,214
26.13333,211
26.14167,207
26.15000,204
26.15833,200
26.16667,197
26.17500,193
26.18333,190
26.19167,187
26.20000,184
26.20833,181
26.21667,179
26.22500,176
26.23333,173
26.24167,170
26.25000,167
26.25833,165
26.26667,162
26.27500,160
26.28333,158
26.29167,156
26.30000,154
26.30833,153
26.31667,151
26.32500,149
26.33333,147
26.34167,145
26.35000,143
26.35833,142
26.36667,141
26.37500,139
26.38333,138
26.39167,137
26.40000,136
26.40833,135
26.41667,134
26.42500,133
26.43333,132
26.44167,131
26.45000,131
26.45833,130
26.46667,130
26.47500,129
26.48333,129
26.49167,129
26.50000,128
26.50833,128
26.51667,128
26.52500,127
26.53333,127
26.54167,127
26.55000,126
26.55833,126
26.56667,126
26.57500,126
26.58333,126
26.59167,126
26.60000,126
26.60833,126
26.61667,126
26.62500,126
26.63333,126
26.64167,126
26.65000,126
26.65833,126
26.66667,125
26.67500,125
26.68333,125
26.69167,125
26.70000,126
26.70833,126
26.71667,126
26.72500,126
26.73333,126
26.74167,125
26.75000,125
26.75833,125
26.76667,126
26.77500,126
26.78333,126
26.79167,125
26.80000,125
26.80833,125
26.81667,125
26.82500,126
26.83333,126
26.84167,127
26.85000,126
26.85833,126
26.86667,126
26.87500,126
26.88333,126
26.89167,127
26.90000,127
26.90833,127
26.91667,126
26.92500,126
26.93333,126
26.94167,127
26.95000,127
26.95833,128
26.96667,128
26.97500,128
26.98333,128
26.99167,128
27.00000,129
27.00833,129
27.01667,128
27.02500,128
27.03333,128
27.04167,128
27.05000,128
27.05833,128
27.06667,128
27.07500,128
27.08333,128
27.09167,128
27.10000,128
27.10833,128
27.11667,128
27.12500,128
27.13333,128
27.14167,128
27.15000,129
27.15833,129
27.16667,130
27.17500,130
27.18333,130
27.19167,130
27.20000,130
27.20833,130
27.21667,130
27.22500,130
27.23333,130
27.24167,129
27.25000,129
27.25833,129
27.26667,129
27.27500,129
27.28333,129
27.29167,129
27.30000,129
27.30833,129
27.31667,129
27.32500,129
27.33333,129
27.34167,128
27.35000,128
27.35833,127
27.36667,127
27.37500,127
27.38333,127
27.39167,127
27.40000,126
27.40833,126
27.41667,126
27.42500,125
27.43333,125
27.44167,125
27.45000,125
27.45833,124
27.46667,124
27.47500,123
27.48333,123
27.49167,122
27.50000,121
27.50833,121
27.51667,120
27.52500,120
27.53333,119
27.54167,118
27.55000,117
27.55833,116
27.56667,116
27.57500,115
27.58333,115
27.59167,114
27.60000,113
27.60833,113
27.61667,112
27.62500,112
27.63333,111
27.64167,110
27.65000,110
27.65833,109
27.66667,108
27.67500,107
27.68333,107
27.69167,106
27.70000,105
27.70833,105
27.71667,104
27.72500,103
27.73333,102
27.74167,102
27.75000,101
27.75833,100
27.76667,99
27.77500,99
27.78333,98
27.79167,98
27.80000,97
27.80833,97
27.81667,96
27.82500,95
27.83333,95
27.84167,94
27.85000,94
27.85833,93
27.86667,92
27.87500,92
27.88333,91
27.89167,91
27.90000,90
27.90833,90
27.91667,90
27.92500,90
27.93333,90
27.94167,89
27.95000,89
27.95833,89
27.96667,89
27.97500,89
27.98333,89
27.99167,89
28.00000,89
28.00833,88
28.01667,88
28.02500,88
28.03333,89
28.04167,89
28.05000,89
28.05833,89
28.06667,89
28.07500,89
28.08333,89
28.09167,89
28.10000,90
28.10833,90
28.11667,90
28.12500,90
28.13333,91
28.14167,91
28.15000,91
28.15833,92
28.16667,92
28.17500,93
28.18333,93
28.19167,93
28.20000,94
28.20833,94
28.21667,95
28.22500,95
28.23333,95
28.24167,96
28.25000,96
28.25833,97
28.26667,97
28.27500,97
28.28333,97
28.29167,97
28.30000,98
28.30833,99
28.31667,100
28.32500,100
28.33333,101
28.34167,102
28.35000,103
28.35833,104
28.36667,105
28.37500,106
28.38333,107
28.39167,109
28.40000,110
28.40833,112
28.41667,114
28.42500,117
28.43333,119
28.44167,122
28.45000,126
28.45833,129
28.46667,133
28.47500,138
28.48333,143
28.49167,148
28.50000,154
28.50833,161
28.51667,169
28.52500,177
28.53333,185
28.54167,194
28.55000,205
28.55833,216
28.56667,228
28.57500,242
28.58333,256
28.59167,271
28.60000,287
28.60833,305
28.61667,323
28.62500,343
28.63333,364
28.64167,387
28.65000,410
28.65833,436
28.66667,463
28.67500,491
28.68333,520
28.69167,551
28.70000,583
28.70833,616
28.71667,651
28.72500,688
28.73333,726
28.74167,765
28.75000,806
28.75833,848
28.76667,891
28.77500,936
28.78333,982
28.79167,1029
28.80000,1076
28.80833,1125
28.81667,1175
28.82500,1225
28.83333,1276
28.84167,1328
28.85000,1380
28.85833,1432
28.86667,1485
28.87500,1538
28.88333,1591
28.89167,1644
28.90000,1697
28.90833,1750
28.91667,1803
28.92500,1855
28.93333,1906
28.94167,1957
28.95000,2007
28.95833,2056
28.96667,2103
28.97500,2150
28.98333,2196
28.99167,2240
29.00000,2284
29.00833,2326
29.01667,2366
29.02500,2406
29.03333,2444
29.04167,2481
29.05000,2515
29.05833,2549
29.06667,2580
29.07500,2610
29.08333,2638
29.09167,2665
29.10000,2690
29.10833,2714
29.11667,2736
29.12500,2757
29.13333,2776
29.14167,2793
29.15000,2809
29.15833,2823
29.16667,2835
29.17500,2846
29.18333,2856
29.19167,2864
29.20000,2871
29.20833,2877
29.21667,2881
29.22500,2883
29.23333,2884
29.24167,2884
29.25000,2883
29.25833,2879
29.26667,2875
29.27500,2869
29.28333,2861
29.29167,2852
29.30000,2842
29.30833,2830
29.31667,2817
29.32500,2803
29.33333,2787
29.34167,2769
29.35000,2751
29.35833,2731
29.36667,2709
29.37500,2685
29.38333,2660
29.39167,2634
29.40000,2606
29.40833,2577
29.41667,2547
29.42500,2516
29.43333,2483
29.44167,2449
29.45000,2413
29.45833,2376
29.46667,2338
29.47500,2298
29.48333,2258
29.49167,2217
29.50000,2175
29.50833,2131
29.51667,2087
29.52500,2043
29.53333,1998
29.54167,1953
29.55000,1907
29.55833,1860
29.56667,1813
29.57500,1765
29.58333,1717
29.59167,1670
29.60000,1622
29.60833,1575
29.61667,1527
29.62500,1480
29.63333,1433
29.64167,1386
29.65000,1340
29.65833,1295
29.66667,1250
29.67500,1206
29.68333,1163
29.69167,1120
29.70000,1078
29.70833,1036
29.71667,996
29.72500,956
29.73333,918
29.74167,880
29.75000,844
29.75833,809
29.76667,775
29.77500,741
29.78333,709
29.79167,678
29.80000,648
29.80833,619
29.81667,592
29.82500,565
29.83333,539
29.84167,514
29.85000,491
29.85833,468
29.86667,446
29.87500,425
29.88333,406
29.89167,387
29.90000,369
29.90833,352
29.91667,336
29.92500,320
29.93333,305
29.94167,291
29.95000,277
29.95833,265
29.96667,252
29.97500,240
29.98333,229
29.99167,218
30.00000,208
30.00833,199
30.01667,190
30.02500,181
30.03333,173
30.04167,165
30.05000,157
30.05833,150
30.06667,143
30.07500,136
30.08333,129
30.09167,122
30.10000,115
30.10833,109
30.11667,102
30.12500,97
30.13333,91
30.14167,85
30.15000,80
30.15833,74
30.16667,69
30.17500,64
30.18333,59
30.19167,54
30.20000,49
30.20833,44
30.21667,39
30.22500,34
30.23333,29
30.24167,23
30.25000,18
30.25833,13
30.26667,9
30.27500,4
30.28333,-0
30.29167,-5
30.30000,-10
30.30833,-15
30.31667,-19
30.32500,-24
30.33333,-29
30.34167,-34
30.35000,-38
30.35833,-42
30.36667,-47
30.37500,-51
30.38333,-55
30.39167,-60
30.40000,-64
30.40833,-68
30.41667,-72
30.42500,-76
30.43333,-80
30.44167,-84
30.45000,-88
30.45833,-91
30.46667,-95
30.47500,-98
30.48333,-101
30.49167,-104
30.50000,-107
30.50833,-110
30.51667,-112
30.52500,-115
30.53333,-117
30.54167,-119
30.55000,-121
30.55833,-123
30.56667,-125
30.57500,-127
30.58333,-128
30.59167,-130
30.60000,-130
30.60833,-131
30.61667,-131
30.62500,-131
30.63333,-131
30.64167,-131
30.65000,-130
30.65833,-130
30.66667,-129
30.67500,-129
30.68333,-128
30.69167,-126
30.70000,-125
30.70833,-123
30.71667,-122
30.72500,-120
30.73333,-117
30.74167,-115
30.75000,-112
30.75833,-110
30.76667,-107
30.77500,-104
30.78333,-101
30.79167,-98
30.80000,-95
30.80833,-90
30.81667,-86
30.82500,-83
30.83333,-79
30.84167,-74
30.85000,-70
30.85833,-65
30.86667,-60
30.87500,-55
30.88333,-51
30.89167,-46
30.90000,-41
30.90833,-35
30.91667,-30
30.92500,-25
30.93333,-20
30.94167,-15
30.95000,-9
30.95833,-3
30.96667,2
30.97500,8
30.98333,14
30.99167,19
31.00000,24
31.00833,29
31.01667,34
31.02500,39
31.03333,44
31.04167,49
31.05000,54
31.05833,60
31.06667,65
31.07500,69
31.08333,74
31.09167,79
31.10000,84
31.10833,88
31.11667,92
31.12500,96
31.13333,100
31.14167,104
31.15000,108
31.15833,112
31.16667,115
31.17500,119
31.18333,123
31.19167,126
31.20000,129
31.20833,132
31.21667,135
31.22500,138
31.23333,140
31.24167,143
31.25000,145
31.25833,147
31.26667,149
31.27500,151
31.28333,153
31.29167,155
31.30000,157
31.30833,158
31.31667,159
31.32500,160
31.33333,161
31.34167,163
31.35000,163
31.35833,164
31.36667,165
31.37500,165
31.38333,165
31.39167,166
31.40000,166
31.40833,166
31.41667,166
31.42500,165
31.43333,165
31.44167,165
31.45000,164
31.45833,164
31.46667,163
31.47500,163
31.48333,163
31.49167,162
31.50000,162
31.50833,162
31.51667,161
31.52500,161
31.53333,161
31.54167,160
31.55000,160
31.55833,159
31.56667,159
31.57500,159
31.58333,158
31.59167,158
31.60000,158
31.60833,157
31.61667,157
31.62500,157
31.63333,158
31.64167,158
31.65000,158
31.65833,159
31.66667,159
31.67500,160
31.68333,160
31.69167,161
31.70000,162
31.70833,164
31.71667,165
31.72500,167
31.73333,169
31.74167,171
31.75000,174
31.75833,176
31.76667,179
31.77500,183
31.78333,186
31.79167,190
31.80000,194
31.80833,198
31.81667,202
31.82500,207
31.83333,211
31.84167,216
31.85000,222
31.85833,227
31.86667,233
31.87500,239
31.88333,245
31.89167,251
31.90000,258
31.90833,265
31.91667,272
31.92500,280
31.93333,287
31.94167,295
31.95000,303
31.95833,311
31.96667,319
31.97500,328
31.98333,336
31.99167,345
32.00000,353
32.00833,362
32.01667,371
32.02500,380
32.03333,389
32.04167,398
32.05000,406
32.05833,415
32.06667,423
32.07500,432
32.08333,441
32.09167,450
32.10000,459
32.10833,467
32.11667,476
32.12500,484
32.13333,492
32.14167,501
32.15000,509
32.15833,517
32.16667,524
32.17500,532
32.18333,539
32.19167,546
32.20000,553
32.20833,561
32.21667,568
32.22500,574
32.23333,581
32.24167,588
32.25000,594
32.25833,600
32.26667,606
32.27500,612
32.28333,617
32.29167,622
32.30000,628
32.30833,633
32.31667,638
32.32500,643
32.33333,648
32.34167,653
32.35000,657
32.35833,662
32.36667,666
32.37500,670
32.38333,674
32.39167,677
32.40000,680
32.40833,682
32.41667,685
32.42500,687
32.43333,690
32.44167,692
32.45000,694
32.45833,696
32.46667,697
32.47500,698
32.48333,699
32.49167,700
32.50000,700
32.50833,701
32.51667,701
32.52500,701
32.53333,701
32.54167,700
32.55000,699
32.55833,698
32.56667,697
32.57500,695
32.58333,693
32.59167,691
32.60000,689
32.60833,687
32.61667,684
32.62500,681
32.63333,678
32.64167,675
32.65000,671
32.65833,667
32.66667,663
32.67500,658
32.68333,654
32.69167,649
32.70000,645
32.70833,640
32.71667,635
32.72500,630
32.73333,625
32.74167,620
32.75000,615
32.75833,609
32.76667,604
32.77500,598
32.78333,592
32.79167,587
32.80000,581
32.80833,576
32.81667,571
32.82500,565
32.83333,560
32.84167,554
32.85000,549
32.85833,544
32.86667,539
32.87500,534
32.88333,529
32.89167,525
32.90000,520
32.90833,515
32.91667,511
32.92500,506
32.93333,502
32.94167,497
32.95000,494
32.95833,490
32.96667,486
32.97500,483
32.98333,479
32.99167,475
33.00000,472
33.00833,469
33.01667,467
33.02500,464
33.03333,462
33.04167,459
33.05000,456
33.05833,454
33.06667,452
33.07500,449
33.08333,447
33.09167,446
33.10000,444
33.10833,442
33.11667,440
33.12500,438
33.13333,436
33.14167,434
33.15000,432
33.15833,430
33.16667,428
33.17500,426
33.18333,424
33.19167,423
33.20000,421
33.20833,419
33.21667,417
33.22500,415
33.23333,413
33.24167,411
33.25000,410
33.25833,408
33.26667,406
33.27500,403
33.28333,401
33.29167,399
33.30000,397
33.30833,394
33.31667,392
33.32500,389
33.33333,387
33.34167,384
33.35000,381
33.35833,378
33.36667,375
33.37500,372
33.38333,369
33.39167,367
33.40000,364
33.40833,361
33.41667,358
33.42500,355
33.43333,351
33.44167,348
33.45000,344
33.45833,341
33.46667,337
33.47500,333
33.48333,330
33.49167,327
33.50000,323
33.50833,319
33.51667,315
33.52500,312
33.53333,308
33.54167,304
33.55000,300
33.55833,296
33.56667,291
33.57500,287
33.58333,283
33.59167,279
33.60000,275
33.60833,271
33.61667,267
33.62500,263
33.63333,259
33.64167,255
33.65000,251
33.65833,246
33.66667,242
33.67500,238
33.68333,234
33.69167,230
33.70000,226
33.70833,222
33.71667,217
33.72500,213
33.73333,208
33.74167,205
33.75000,201
33.75833,198
33.76667,194
33.77500,189
33.78333,185
33.79167,181
33.80000,178
33.80833,174
33.81667,170
33.82500,166
33.83333,162
33.84167,158
33.85000,155
33.85833,152
33.86667,148
33.87500,145
33.88333,142
33.89167,138
33.90000,135
33.90833,131
33.91667,128
33.92500,125
33.93333,122
33.94167,119
33.95000,116
33.95833,113
33.96667,111
33.97500,108
33.98333,105
33.99167,103
34.00000,100
34.00833,98
34.01667,95
34.02500,93
34.03333,91
34.04167,89
34.05000,87
34.05833,85
34.06667,84
34.07500,82
34.08333,80
34.09167,78
34.10000,77
34.10833,75
34.11667,73
34.12500,72
34.13333,70
34.14167,69
34.15000,68
34.15833,67
34.16667,65
34.17500,64
34.18333,63
34.19167,62
34.20000,61
34.20833,60
34.21667,59
34.22500,58
34.23333,57
34.24167,56
34.25000,56
34.25833,55
34.26667,54
34.27500,53
34.28333,53
34.29167,51
34.30000,50
34.30833,50
34.31667,49
34.32500,49
34.33333,49
34.34167,48
34.35000,48
34.35833,47
34.36667,47
34.37500,47
34.38333,47
34.39167,46
34.40000,46
34.40833,45
34.41667,45
34.42500,44
34.43333,44
34.44167,43
34.45000,43
34.45833,42
34.46667,42
34.47500,42
34.48333,41
34.49167,41
34.50000,40
34.50833,40
34.51667,40
34.52500,40
34.53333,39
34.54167,39
34.55000,39
34.55833,38
34.56667,38
34.57500,38
34.58333,37
34.59167,37
34.60000,36
34.60833,36
34.61667,36
34.62500,36
34.63333,36
34.64167,36
34.65000,35
34.65833,35
34.66667,35
34.67500,34
34.68333,34
34.69167,34
34.70000,34
34.70833,34
34.71667,34
34.72500,33
34.73333,33
34.74167,32
34.75000,32
34.75833,32
34.76667,32
34.77500,32
34.78333,32
34.79167,31
34.80000,31
34.80833,30
34.81667,30
34.82500,30
34.83333,30
34.84167,31
34.85000,30
34.85833,30
34.86667,30
34.87500,30
34.88333,30
34.89167,30
34.90000,29
34.90833,29
34.91667,28
34.92500,28
34.93333,28
34.94167,28
34.95000,28
34.95833,28
34.96667,28
34.97500,28
34.98333,27
34.99167,27
35.00000,27
35.00833,27
35.01667,28
35.02500,28
35.03333,28
35.04167,28
35.05000,28
35.05833,28
35.06667,28
35.07500,28
35.08333,27
35.09167,28
35.10000,28
35.10833,28
35.11667,28
35.12500,28
35.13333,28
35.14167,28
35.15000,28
35.15833,29
35.16667,29
35.17500,30
35.18333,31
35.19167,31
35.20000,32
35.20833,32
35.21667,32
35.22500,32
35.23333,32
35.24167,33
35.25000,33
35.25833,33
35.26667,34
35.27500,35
35.28333,36
35.29167,36
35.30000,37
35.30833,38
35.31667,38
35.32500,39
35.33333,40
35.34167,40
35.35000,40
35.35833,41
35.36667,42
35.37500,43
35.38333,44
35.39167,45
35.40000,46
35.40833,46
35.41667,47
35.42500,48
35.43333,49
35.44167,50
35.45000,50
35.45833,51
35.46667,52
35.47500,53
35.48333,54
35.49167,54
35.50000,55
35.50833,56
35.51667,57
35.52500,57
35.53333,59
35.54167,60
35.55000,61
35.55833,61
35.56667,62
35.57500,62
35.58333,63
35.59167,64
35.60000,65
35.60833,65
35.61667,66
35.62500,67
35.63333,67
35.64167,68
35.65000,69
35.65833,70
35.66667,70
35.67500,71
35.68333,72
35.69167,73
35.70000,73
35.70833,74
35.71667,74
35.72500,75
35.73333,75
35.74167,76
35.75000,77
35.75833,78
35.76667,78
35.77500,79
35.78333,80
35.79167,80
35.80000,81
35.80833,81
35.81667,82
35.82500,82
35.83333,83
35.84167,83
35.85000,83
35.85833,84
35.86667,84
35.87500,85
35.88333,85
35.89167,85
35.90000,85
35.90833,86
35.91667,86
35.92500,87
35.93333,87
35.94167,87
35.95000,87
35.95833,87
35.96667,87
35.97500,87
35.98333,88
35.99167,88
36.00000,89
36.00833,89
36.01667,89
36.02500,89
36.03333,89
36.04167,89
36.05000,89
36.05833,89
36.06667,89
36.07500,89
36.08333,89
36.09167,89
36.10000,89
36.10833,89
36.11667,88
36.12500,88
36.13333,88
36.14167,88
36.15000,88
36.15833,88
36.16667,88
36.17500,88
36.18333,87
36.19167,87
36.20000,87
36.20833,87
36.21667,86
36.22500,86
36.23333,85
36.24167,85
36.25000,84
36.25833,84
36.26667,84
36.27500,83
36.28333,83
36.29167,83
36.30000,83
36.30833,82
36.31667,82
36.32500,81
36.33333,80
36.34167,80
36.35000,80
36.35833,79
36.36667,79
36.37500,78
36.38333,78
36.39167,77
36.40000,77
36.40833,76
36.41667,76
36.42500,75
36.43333,75
36.44167,75
36.45000,75
36.45833,74
36.46667,74
36.47500,74
36.48333,73
36.49167,73
36.50000,73
36.50833,73
36.51667,72
36.52500,72
36.53333,71
36.54167,71
36.55000,70
36.55833,70
36.56667,70
36.57500,69
36.58333,68
36.59167,68
36.60000,68
36.60833,67
36.61667,67
36.62500,67
36.63333,67
36.64167,67
36.65000,67
36.65833,66
36.66667,66
36.67500,66
36.68333,66
36.69167,66
36.70000,66
36.70833,66
36.71667,66
36.72500,66
36.73333,66
36.74167,66
36.75000,66
36.75833,66
36.76667,66
36.77500,66
36.78333,66
36.79167,67
36.80000,67
36.80833,67
36.81667,67
36.82500,67
36.83333,67
36.84167,67
36.85000,67
36.85833,68
36.86667,68
36.87500,68
36.88333,68
36.89167,68
36.90000,68
36.90833,69
36.91667,69
36.92500,69
36.93333,70
36.94167,70
36.95000,71
36.95833,71
36.96667,72
36.97500,72
36.98333,73
36.99167,73
37.00000,74
37.00833,75
37.01667,76
37.02500,76
37.03333,77
37.04167,78
37.05000,78
37.05833,79
37.06667,80
37.07500,81
37.08333,81
37.09167,82
37.10000,82
37.10833,83
37.11667,84
37.12500,84
37.13333,84
37.14167,85
37.15000,86
37.15833,87
37.16667,88
37.17500,89
37.18333,90
37.19167,91
37.20000,91
37.20833,91
37.21667,92
37.22500,93
37.23333,94
37.24167,95
37.25000,96
37.25833,97
37.26667,98
37.27500,99
37.28333,100
37.29167,100
37.30000,101
37.30833,101
37.31667,102
37.32500,103
37.33333,104
37.34167,105
37.35000,106
37.35833,107
37.36667,108
37.37500,108
37.38333,109
37.39167,110
37.40000,111
37.40833,111
37.41667,112
37.42500,113
37.43333,114
37.44167,115
37.45000,116
37.45833,117
37.46667,119
37.47500,119
37.48333,120
37.49167,121
37.50000,122
37.50833,123
37.51667,124
37.52500,125
37.53333,126
37.54167,127
37.55000,128
37.55833,129
37.56667,130
37.57500,130
37.58333,131
37.59167,132
37.60000,133
37.60833,134
37.61667,135
37.62500,136
37.63333,136
37.64167,137
37.65000,138
37.65833,138
37.66667,139
37.67500,139
37.68333,140
37.69167,140
37.70000,141
37.70833,141
37.71667,142
37.72500,143
37.73333,144
37.74167,145
37.75000,145
37.75833,146
37.76667,146
37.77500,147
37.78333,147
37.79167,148
37.80000,148
37.80833,148
37.81667,148
37.82500,149
37.83333,149
37.84167,149
37.85000,150
37.85833,150
37.86667,150
37.87500,150
37.88333,150
37.89167,150
37.90000,150
37.90833,150
37.91667,150
37.92500,149
37.93333,149
37.94167,149
37.95000,149
37.95833,149
37.96667,149
37.97500,149
37.98333,149
37.99167,148
38.00000,148
38.00833,147
38.01667,146
38.02500,146
38.03333,145
38.04167,145
38.05000,145
38.05833,145
38.06667,144
38.07500,144
38.08333,144
38.09167,143
38.10000,142
38.10833,142
38.11667,141
38.12500,140
38.13333,139
38.14167,138
38.15000,138
38.15833,137
38.16667,136
38.17500,135
38.18333,134
38.19167,133
38.20000,132
38.20833,131
38.21667,130
38.22500,130
38.23333,129
38.24167,128
38.25000,127
38.25833,126
38.26667,125
38.27500,124
38.28333,123
38.29167,122
38.30000,121
38.30833,120
38.31667,119
38.32500,118
38.33333,117
38.34167,115
38.35000,114
38.35833,113
38.36667,112
38.37500,111
38.38333,110
38.39167,108
38.40000,107
38.40833,105
38.41667,104
38.42500,103
38.43333,101
38.44167,100
38.45000,99
38.45833,98
38.46667,96
38.47500,95
38.48333,94
38.49167,92
38.50000,91
38.50833,89
38.51667,88
38.52500,86
38.53333,85
38.54167,84
38.55000,83
38.55833,82
38.56667,81
38.57500,80
38.58333,78
38.59167,77
38.60000,76
38.60833,75
38.61667,73
38.62500,72
38.63333,71
38.64167,69
38.65000,68
38.65833,67
38.66667,66
38.67500,64
38.68333,63
38.69167,62
38.70000,61
38.70833,59
38.71667,58
38.72500,57
38.73333,55
38.74167,54
38.75000,53
38.75833,52
38.76667,51
38.77500,51
38.78333,50
38.79167,49
38.80000,48
38.80833,47
38.81667,46
38.82500,45
38.83333,44
38.84167,43
38.85000,42
38.85833,41
38.86667,40
38.87500,39
38.88333,38
38.89167,37
38.90000,36
38.90833,34
38.91667,34
38.92500,33
38.93333,33
38.94167,32
38.95000,31
38.95833,31
38.96667,30
38.97500,29
38.98333,28
38.99167,28
39.00000,28
39.00833,28
39.01667,27
39.02500,26
39.03333,26
39.04167,25
39.05000,25
39.05833,24
39.06667,24
39.07500,24
39.08333,23
39.09167,23
39.10000,23
39.10833,22
39.11667,22
39.12500,22
39.13333,21
39.14167,21
39.15000,21
39.15833,21
39.16667,21
39.17500,20
39.18333,20
39.19167,19
39.20000,19
39.20833,18
39.21667,18
39.22500,18
39.23333,18
39.24167,18
39.25000,17
39.25833,17
39.26667,17
39.27500,17
39.28333,17
39.29167,17
39.30000,16
39.30833,16
39.31667,16
39.32500,16
39.33333,16
39.34167,15
39.35000,15
39.35833,15
39.36667,15
39.37500,15
39.38333,15
39.39167,14
39.40000,14
39.40833,14
39.41667,14
39.42500,13
39.43333,13
39.44167,13
39.45000,13
39.45833,13
39.46667,13
39.47500,13
39.48333,13
39.49167,13
39.50000,13
39.50833,13
39.51667,13
39.52500,13
39.53333,13
39.54167,13
39.55000,13
39.55833,13
39.56667,13
39.57500,13
39.58333,13
39.59167,13
39.60000,13
39.60833,13
39.61667,13
39.62500,13
39.63333,13
39.64167,13
39.65000,12
39.65833,12
39.66667,12
39.67500,12
39.68333,12
39.69167,13
39.70000,13
39.70833,13
39.71667,13
39.72500,13
39.73333,13
39.74167,13
39.75000,13
39.75833,13
39.76667,13
39.77500,13
39.78333,12
39.79167,12
39.80000,12
39.80833,12
39.81667,13
39.82500,13
39.83333,13
39.84167,13
39.85000,13
39.85833,13
39.86667,13
39.87500,13
39.88333,13
39.89167,13
39.90000,13
39.90833,13
39.91667,13
39.92500,13
39.93333,14
39.94167,14
39.95000,14
39.95833,14
39.96667,13
39.97500,13
39.98333,13
39.99167,13
40.00000,13
40.00833,12
40.01667,12
40.02500,12
40.03333,12
40.04167,12
40.05000,12
40.05833,12
40.06667,12
40.07500,12
40.08333,12
40.09167,12
40.10000,12
40.10833,12
40.11667,12
40.12500,13
40.13333,13
40.14167,13
40.15000,14
40.15833,14
40.16667,14
40.17500,13
40.18333,13
40.19167,13
40.20000,13
40.20833,13
40.21667,13
40.22500,14
40.23333,14
40.24167,14
40.25000,15
40.25833,15
40.26667,15
40.27500,16
40.28333,16
40.29167,16
40.30000,17
40.30833,17
40.31667,18
40.32500,18
40.33333,19
40.34167,20
40.35000,20
40.35833,21
40.36667,21
40.37500,22
40.38333,22
40.39167,23
40.40000,24
40.40833,25
40.41667,25
40.42500,26
40.43333,27
40.44167,28
40.45000,30
40.45833,31
40.46667,32
40.47500,34
40.48333,35
40.49167,36
40.50000,38
40.50833,39
40.51667,40
40.52500,41
40.53333,43
40.54167,44
40.55000,46
40.55833,48
40.56667,50
40.57500,52
40.58333,54
40.59167,56
40.60000,58
40.60833,61
40.61667,63
40.62500,66
40.63333,68
40.64167,71
40.65000,74
40.65833,77
40.66667,80
40.67500,83
40.68333,86
40.69167,89
40.70000,92
40.70833,95
40.71667,99
40.72500,102
40.73333,105
40.74167,109
40.75000,112
40.75833,115
40.76667,119
40.77500,123
40.78333,126
40.79167,130
40.80000,134
40.80833,137
40.81667,141
40.82500,145
40.83333,149
40.84167,153
40.85000,157
40.85833,162
40.86667,166
40.87500,170
40.88333,175
40.89167,179
40.90000,183
40.90833,188
40.91667,193
40.92500,197
40.93333,201
40.94167,206
40.95000,210
40.95833,214
40.96667,218
40.97500,222
40.98333,227
40.99167,231
41.00000,235
41.00833,239
41.01667,243
41.02500,247
41.03333,251
41.04167,255
41.05000,259
41.05833,263
41.06667,267
41.07500,270
41.08333,274
41.09167,278
41.10000,282
41.10833,286
41.11667,290
41.12500,293
41.13333,297
41.14167,301
41.15000,304
41.15833,308
41.16667,311
41.17500,314
41.18333,317
41.19167,320
41.20000,323
41.20833,326
41.21667,328
41.22500,331
41.23333,334
41.24167,337
41.25000,339
41.25833,342
41.26667,345
41.27500,347
41.28333,350
41.29167,352
41.30000,354
41.30833,356
41.31667,359
41.32500,361
41.33333,363
41.34167,365
41.35000,367
41.35833,370
41.36667,372
41.37500,374
41.38333,375
41.39167,377
41.40000,379
41.40833,380
41.41667,382
41.42500,384
41.43333,385
41.44167,387
41.45000,388
41.45833,389
41.46667,390
41.47500,391
41.48333,392
41.49167,392
41.50000,393
41.50833,394
41.51667,395
41.52500,395
41.53333,396
41.54167,397
41.55000,397
41.55833,398
41.56667,398
41.57500,399
41.58333,399
41.59167,399
41.60000,399
41.60833,398
41.61667,398
41.62500,397
41.63333,397
41.64167,396
41.65000,395
41.65833,395
41.66667,394
41.67500,393
41.68333,393
41.69167,392
41.70000,391
41.70833,391
41.71667,390
41.72500,389
41.73333,387
41.74167,386
41.75000,384
41.75833,382
41.76667,381
41.77500,379
41.78333,377
41.79167,375
41.80000,373
41.80833,371
41.81667,370
41.82500,368
41.83333,366
41.84167,364
41.85000,362
41.85833,360
41.86667,358
41.87500,356
41.88333,354
41.89167,352
41.90000,349
41.90833,346
41.91667,343
41.92500,340
41.93333,338
41.94167,335
41.95000,332
41.95833,330
41.96667,327
41.97500,325
41.98333,322
41.99167,319
42.00000,317
42.00833,314
42.01667,312
42.02500,309
42.03333,306
42.04167,303
42.05000,301
42.05833,298
42.06667,296
42.07500,293
42.08333,291
42.09167,288
42.10000,286
42.10833,284
42.11667,282
42.12500,280
42.13333,278
42.14167,276
42.15000,273
42.15833,270
42.16667,268
42.17500,265
42.18333,263
42.19167,261
42.20000,258
42.20833,256
42.21667,254
42.22500,251
42.23333,249
42.24167,247
42.25000,245
42.25833,244
42.26667,242
42.27500,240
42.28333,239
42.29167,237
42.30000,235
42.30833,233
42.31667,232
42.32500,230
42.33333,228
42.34167,226
42.35000,225
42.35833,223
42.36667,222
42.37500,221
42.38333,220
42.39167,219
42.40000,218
42.40833,216
42.41667,215
42.42500,214
42.43333,212
42.44167,211
42.45000,210
42.45833,208
42.46667,208
42.47500,207
42.48333,206
42.49167,204
42.50000,203
42.50833,202
42.51667,201
42.52500,199
42.53333,198
42.54167,197
42.55000,196
42.55833,195
42.56667,194
42.57500,193
42.58333,193
42.59167,192
42.60000,191
42.60833,190
42.61667,189
42.62500,188
42.63333,187
42.64167,185
42.65000,184
42.65833,183
42.66667,182
42.67500,181
42.68333,180
42.69167,180
42.70000,179
42.70833,178
42.71667,177
42.72500,177
42.73333,176
42.74167,175
42.75000,175
42.75833,174
42.76667,172
42.77500,171
42.78333,170
42.79167,169
42.80000,169
42.80833,168
42.81667,167
42.82500,166
42.83333,166
42.84167,165
42.85000,164
42.85833,164
42.86667,163
42.87500,161
42.88333,160
42.89167,159
42.90000,158
42.90833,157
42.91667,156
42.92500,155
42.93333,154
42.94167,154
42.95000,153
42.95833,152
42.96667,152
42.97500,151
42.98333,150
42.99167,149
43.00000,148
43.00833,148
43.01667,147
43.02500,146
43.03333,146
43.04167,145
43.05000,144
43.05833,143
43.06667,142
43.07500,141
43.08333,140
43.09167,139
43.10000,138
43.10833,137
43.11667,136
43.12500,135
43.13333,135
43.14167,134
43.15000,133
43.15833,132
43.16667,132
43.17500,131
43.18333,131
43.19167,130
43.20000,129
43.20833,128
43.21667,128
43.22500,127
43.23333,126
43.24167,125
43.25000,124
43.25833,123
43.26667,123
43.27500,122
43.28333,122
43.29167,121
43.30000,120
43.30833,120
43.31667,119
43.32500,118
43.33333,117
43.34167,116
43.35000,115
43.35833,115
43.36667,114
43.37500,113
43.38333,112
43.39167,112
43.40000,111
43.40833,111
43.41667,109
43.42500,108
43.43333,108
43.44167,107
43.45000,106
43.45833,106
43.46667,105
43.47500,105
43.48333,104
43.49167,104
43.50000,103
43.50833,102
43.51667,102
43.52500,101
43.53333,100
43.54167,100
43.55000,99
43.55833,98
43.56667,97
43.57500,96
43.58333,96
43.59167,95
43.60000,95
43.60833,94
43.61667,93
43.62500,92
43.63333,92
43.64167,91
43.65000,91
43.65833,90
43.66667,90
43.67500,89
43.68333,88
43.69167,88
43.70000,87
43.70833,86
43.71667,85
43.72500,85
43.73333,84
43.74167,83
43.75000,82
43.75833,82
43.76667,81
43.77500,80
43.78333,79
43.79167,79
43.80000,78
43.80833,77
43.81667,76
43.82500,76
43.83333,75
43.84167,75
43.85000,74
43.85833,73
43.86667,72
43.87500,71
43.88333,71
43.89167,70
43.90000,69
43.90833,69
43.91667,68
43.92500,67
43.93333,67
43.94167,67
43.95000,66
43.95833,65
43.96667,65
43.97500,64
43.98333,64
43.99167,64
44.00000,63
44.00833,62
44.01667,61
44.02500,61
44.03333,61
44.04167,60
44.05000,60
44.05833,59
44.06667,59
44.07500,58
44.08333,58
44.09167,57
44.10000,56
44.10833,55
44.11667,54
44.12500,54
44.13333,53
44.14167,52
44.15000,52
44.15833,52
44.16667,52
44.17500,51
44.18333,51
44.19167,51
44.20000,50
44.20833,50
44.21667,49
44.22500,48
44.23333,48
44.24167,48
44.25000,47
44.25833,46
44.26667,46
44.27500,46
44.28333,45
44.29167,45
44.30000,44
44.30833,43
44.31667,43
44.32500,43
44.33333,42
44.34167,42
44.35000,41
44.35833,41
44.36667,40
44.37500,40
44.38333,39
44.39167,39
44.40000,39
44.40833,38
44.41667,38
44.42500,37
44.43333,37
44.44167,37
44.45000,36
44.45833,36
44.46667,36
44.47500,36
44.48333,35
44.49167,35
44.50000,34
44.50833,34
44.51667,33
44.52500,33
44.53333,33
44.54167,33
44.55000,32
44.55833,32
44.56667,31
44.57500,30
44.58333,30
44.59167,30
44.60000,29
44.60833,29
44.61667,29
44.62500,28
44.63333,28
44.64167,28
44.65000,27
44.65833,27
44.66667,27
44.67500,27
44.68333,26
44.69167,26
44.70000,25
44.70833,25
44.71667,24
44.72500,24
44.73333,23
44.74167,23
44.75000,23
44.75833,23
44.76667,23
44.77500,23
44.78333,23
44.79167,22
44.80000,22
44.80833,22
44.81667,22
44.82500,22
44.83333,22
44.84167,21
44.85000,21
44.85833,20
44.86667,20
44.87500,20
44.88333,20
44.89167,19
44.90000,19
44.90833,18
44.91667,18
44.92500,18
44.93333,18
44.94167,18
44.95000,17
44.95833,17
44.96667,17
44.97500,17
44.98333,17
44.99167,16
45.00000,16
45.00833,16
45.01667,16
45.02500,16
45.03333,16
45.04167,15
45.05000,15
45.05833,15
45.06667,15
45.07500,15
45.08333,15
45.09167,15
45.10000,16
45.10833,16
45.11667,15
45.12500,15
45.13333,15
45.14167,14
45.15000,14
45.15833,14
45.16667,13
45.17500,13
45.18333,13
45.19167,13
45.20000,13
45.20833,13
45.21667,13
45.22500,13
45.23333,13
45.24167,12
45.25000,12
45.25833,12
45.26667,12
45.27500,13
45.28333,13
45.29167,13
45.30000,14
45.30833,13
45.31667,13
45.32500,13
45.33333,13
45.34167,12
45.35000,12
45.35833,12
45.36667,12
45.37500,12
45.38333,12
45.39167,12
45.40000,12
45.40833,12
45.41667,12
45.42500,12
45.43333,12
45.44167,12
45.45000,12
45.45833,12
45.46667,12
45.47500,12
45.48333,12
45.49167,12
45.50000,12
45.50833,12
45.51667,12
45.52500,12
45.53333,12
45.54167,12
45.55000,12
45.55833,12
45.56667,12
45.57500,12
45.58333,12
45.59167,11
45.60000,11
45.60833,11
45.61667,11
45.62500,11
45.63333,11
45.64167,11
45.65000,11
45.65833,11
45.66667,11
45.67500,11
45.68333,11
45.69167,12
45.70000,12
45.70833,11
45.71667,11
45.72500,12
45.73333,12
45.74167,12
45.75000,12
45.75833,12
45.76667,12
45.77500,11
45.78333,11
45.79167,10
45.80000,10
45.80833,10
45.81667,10
45.82500,10
45.83333,10
45.84167,10
45.85000,10
45.85833,10
45.86667,10
45.87500,10
45.88333,10
45.89167,10
45.90000,10
45.90833,10
45.91667,10
45.92500,10
45.93333,10
45.94167,10
45.95000,10
45.95833,9
45.96667,9
45.97500,9
45.98333,9
45.99167,8
46.00000,8
46.00833,7
46.01667,7
46.02500,7
46.03333,7
46.04167,8
46.05000,8
46.05833,8
46.06667,8
46.07500,8
46.08333,7
46.09167,7
46.10000,7
46.10833,7
46.11667,6
46.12500,6
46.13333,6
46.14167,6
46.15000,6
46.15833,6
46.16667,6
46.17500,5
46.18333,5
46.19167,5
46.20000,5
46.20833,5
46.21667,5
46.22500,5
46.23333,4
46.24167,4
46.25000,3
46.25833,3
46.26667,2
46.27500,2
46.28333,2
46.29167,2
46.30000,2
46.30833,2
46.31667,1
46.32500,1
46.33333,1
46.34167,1
46.35000,1
46.35833,1
46.36667,0
46.37500,-0
46.38333,-0
46.39167,-0
46.40000,-0
46.40833,-0
46.41667,-1
46.42500,-1
46.43333,-2
46.44167,-1
46.45000,-1
46.45833,-1
46.46667,-1
46.47500,-1
46.48333,-2
46.49167,-2
46.50000,-2
46.50833,-2
46.51667,-2
46.52500,-2
46.53333,-3
46.54167,-3
46.55000,-4
46.55833,-4
46.56667,-5
46.57500,-5
46.58333,-4
46.59167,-4
46.60000,-4
46.60833,-4
46.61667,-5
46.62500,-5
46.63333,-6
46.64167,-6
46.65000,-6
46.65833,-7
46.66667,-7
46.67500,-8
46.68333,-7
46.69167,-7
46.70000,-7
46.70833,-7
46.71667,-8
46.72500,-8
46.73333,-8
46.74167,-8
46.75000,-8
46.75833,-8
46.76667,-8
46.77500,-9
46.78333,-9
46.79167,-9
46.80000,-9
46.80833,-10
46.81667,-10
46.82500,-10
46.83333,-10
46.84167,-10
46.85000,-10
46.85833,-10
46.86667,-11
46.87500,-11
46.88333,-11
46.89167,-11
46.90000,-11
46.90833,-11
46.91667,-11
46.92500,-11
46.93333,-11
46.94167,-10
46.95000,-10
46.95833,-10
46.96667,-10
46.97500,-11
46.98333,-11
46.99167,-11
47.00000,-11
47.00833,-12
47.01667,-12
47.02500,-13
47.03333,-12
47.04167,-12
47.05000,-12
47.05833,-12
47.06667,-12
47.07500,-12
47.08333,-12
47.09167,-11
47.10000,-12
47.10833,-12
47.11667,-12
47.12500,-11
47.13333,-11
47.14167,-11
47.15000,-11
47.15833,-11
47.16667,-11
47.17500,-10
47.18333,-10
47.19167,-10
47.20000,-9
47.20833,-9
47.21667,-9
47.22500,-9
47.23333,-8
47.24167,-8
47.25000,-8
47.25833,-8
47.26667,-7
47.27500,-7
47.28333,-7
47.29167,-7
47.30000,-7
47.30833,-6
47.31667,-6
47.32500,-5
47.33333,-4
47.34167,-4
47.35000,-3
47.35833,-3
47.36667,-2
47.37500,-1
47.38333,-0
47.39167,0
47.40000,0
47.40833,1
47.41667,1
47.42500,1
47.43333,1
47.44167,2
47.45000,3
47.45833,3
47.46667,4
47.47500,5
47.48333,5
47.49167,6
47.50000,7
47.50833,7
47.51667,8
47.52500,8
47.53333,9
47.54167,10
47.55000,11
47.55833,12
47.56667,12
47.57500,13
47.58333,13
47.59167,14
47.60000,15
47.60833,16
47.61667,17
47.62500,18
47.63333,19
47.64167,20
47.65000,21
47.65833,22
47.66667,22
47.67500,23
47.68333,24
47.69167,24
47.70000,25
47.70833,26
47.71667,27
47.72500,27
47.73333,28
47.74167,29
47.75000,30
47.75833,31
47.76667,32
47.77500,33
47.78333,34
47.79167,35
47.80000,36
47.80833,37
47.81667,37
47.82500,38
47.83333,39
47.84167,40
47.85000,41
47.85833,42
47.86667,42
47.87500,43
47.88333,44
47.89167,44
47.90000,45
47.90833,45
47.91667,46
47.92500,46
47.93333,47
47.94167,48
47.95000,48
47.95833,49
47.96667,50
47.97500,50
47.98333,51
47.99167,52
48.00000,52
48.00833,53
48.01667,54
48.02500,54
48.03333,55
48.04167,55
48.05000,56
48.05833,56
48.06667,57
48.07500,57
48.08333,57
48.09167,58
48.10000,58
48.10833,59
48.11667,59
48.12500,60
48.13333,60
48.14167,61
48.15000,61
48.15833,62
48.16667,62
48.17500,62
48.18333,62
48.19167,63
48.20000,64
48.20833,64
48.21667,64
48.22500,65
48.23333,65
48.24167,65
48.25000,65
48.25833,65
48.26667,65
48.27500,66
48.28333,66
48.29167,66
48.30000,66
48.30833,66
48.31667,67
48.32500,67
48.33333,67
48.34167,68
48.35000,68
48.35833,68
48.36667,68
48.37500,69
48.38333,69
48.39167,69
48.40000,69
48.40833,69
48.41667,69
48.42500,70
48.43333,70
48.44167,70
48.45000,70
48.45833,70
48.46667,71
48.47500,71
48.48333,71
48.49167,71
48.50000,71
48.50833,71
48.51667,72
48.52500,72
48.53333,72
48.54167,71
48.55000,71
48.55833,71
48.56667,71
48.57500,71
48.58333,71
48.59167,71
48.60000,71
48.60833,71
48.61667,71
48.62500,71
48.63333,71
48.64167,71
48.65000,71
48.65833,71
48.66667,71
48.67500,71
48.68333,71
48.69167,71
48.70000,72
48.70833,72
48.71667,72
48.72500,72
48.73333,72
48.74167,72
48.75000,72
48.75833,72
48.76667,71
48.77500,71
48.78333,71
48.79167,71
48.80000,71
48.80833,71
48.81667,72
48.82500,72
48.83333,72
48.84167,72
48.85000,72
48.85833,72
48.86667,72
48.87500,72
48.88333,72
48.89167,72
48.90000,71
48.90833,71
48.91667,71
48.92500,71
48.93333,70
48.94167,71
48.95000,71
48.95833,71
48.96667,71
48.97500,71
48.98333,71
48.99167,71
49.00000,72
49.00833,72
49.01667,72
49.02500,72
49.03333,72
49.04167,72
49.05000,72
49.05833,72
49.06667,72
49.07500,72
49.08333,72
49.09167,72
49.10000,72
49.10833,72
49.11667,73
49.12500,73
49.13333,73
49.14167,73
49.15000,73
49.15833,73
49.16667,73
49.17500,73
49.18333,73
49.19167,72
49.20000,72
49.20833,72
49.21667,72
49.22500,72
49.23333,72
49.24167,72
49.25000,72
49.25833,72
49.26667,73
49.27500,73
49.28333,73
49.29167,72
49.30000,72
49.30833,72
49.31667,71
49.32500,71
49.33333,71
49.34167,71
49.35000,71
49.35833,71
49.36667,70
49.37500,70
49.38333,70
49.39167,70
49.40000,70
49.40833,71
49.41667,70
49.42500,70
49.43333,70
49.44167,70
49.45000,70
49.45833,69
49.46667,69
49.47500,69
49.48333,69
49.49167,70
49.50000,70
49.50833,69
49.51667,69
49.52500,69
49.53333,69
49.54167,68
49.55000,68
49.55833,68
49.56667,68
49.57500,67
49.58333,67
49.59167,66
49.60000,66
49.60833,65
49.61667,64
49.62500,65
49.63333,64
49.64167,64
49.65000,64
49.65833,64
49.66667,64
49.67500,64
49.68333,63
49.69167,62
49.70000,62
49.70833,62
49.71667,61
49.72500,61
49.73333,61
49.74167,60
49.75000,59
49.75833,59
49.76667,59
49.77500,58
49.78333,58
49.79167,58
49.80000,57
49.80833,57
49.81667,56
49.82500,55
49.83333,55
49.84167,54
49.85000,53
49.85833,52
49.86667,51
49.87500,51
49.88333,51
49.89167,51
49.90000,50
49.90833,50
49.91667,49
49.92500,48
49.93333,47
49.94167,47
49.95000,46
49.95833,46
49.96667,45
49.97500,45
49.98333,44
49.99167,44
50.00000,43

