[Header]
Application Name,LabSolutions
Version,5.97 SP1
Data File Name,C:\Users\cremerlab\Desktop\Richa\Sep_6th_2022_re-run_Sep2nd\Sep 6th_962022_006_007.lcd
Output Date,9/6/2022
Output Time,10:14:01 PM

[File Information]
Type,Data File
Generated,9/6/2022 9:23:43 PM
Generated by,System Administrator
Modified,9/6/2022 10:14:01 PM
Modified by,System Administrator

[Sample Information]
Operator Name,System Administrator
Acquired,9/6/2022 9:24:01 PM
Sample Type,0:Unknown
Level,0
Sample Name,090622_B.ovatus_2
Sample ID,006
ISTD Amount1,1
ISTD Amount2,1
ISTD Amount3,1
ISTD Amount4,1
ISTD Amount5,1
ISTD Amount6,1
ISTD Amount7,1
ISTD Amount8,1
ISTD Amount9,1
ISTD Amount10,1
ISTD Amount11,1
ISTD Amount12,1
ISTD Amount13,1
ISTD Amount14,1
ISTD Amount15,1
ISTD Amount16,1
ISTD Amount17,1
ISTD Amount18,1
ISTD Amount19,1
ISTD Amount20,1
ISTD Amount21,1
ISTD Amount22,1
ISTD Amount23,1
ISTD Amount24,1
ISTD Amount25,1
ISTD Amount26,1
ISTD Amount27,1
ISTD Amount28,1
ISTD Amount29,1
ISTD Amount30,1
ISTD Amount31,1
ISTD Amount32,1
Sample Amount,1
Dilution Factor,1
Vial#,6
Injection Volume,20

[Original Files]
Data File,C:\Users\cremerlab\Desktop\Richa\Sep_6th_2022_re-run_Sep2nd\Sep 6th_962022_006_007.lcd
Method File,C:\Users\cremerlab\Desktop\Richa\acetate_excretion.lcm
Batch File,C:\Users\cremerlab\Desktop\Richa\Sep_6th_2022_re-run_Sep2nd\Sep 6th.lcb
Report Format File,c:\LabSolutions\System\DEFAULT.lsr

[File Description]


[Configuration]
Instrument Name,HPLC-PC-Instrument1
Instrument #,1
Line #,1
# of Detectors,2
Detector ID,Detector A,Detector B
Detector Name,Detector A,Detector B
# of Channels,1,1

[Peak Table(Detector A)]
# of Peaks,0

[Peak Table(Detector B)]
# of Peaks,11
Peak#,R.Time,I.Time,F.Time,Area,Height,A/H,Conc.,Mark,ID#,Name,k',Plate #,Plate Ht.,Tailing,Resolution,Sep.Factor,Area Ratio,Height Ratio,Conc. %,Norm Conc.
1,10.469,10.267,10.517,1288,168,7.684,0.000,   ,,,0.000,18486,8.114,0.000,0.000,0.000,0,0,0.000,0.000
2,11.022,10.517,12.308,2261884,115775,19.537,0.000, V ,,,0.053,7546,19.879,0.969,1.358,0.000,0,0,0.000,0.000
3,14.331,12.658,15.183,3587973,76781,46.730,0.000,   ,,,0.369,2483,60.412,0.654,3.992,6.978,0,0,0.000,0.000
4,15.760,15.183,18.400,1459030,49702,29.356,0.000,SV ,,,0.505,6921,21.673,1.145,1.497,1.370,0,0,0.000,0.000
5,17.857,17.417,18.375,7278,251,29.006,0.000,T  ,,,0.706,8119,18.475,1.076,2.706,1.396,0,0,0.000,0.000
6,19.084,18.425,19.758,12820,303,42.286,0.000,   ,,,0.823,4289,34.970,0.990,1.252,1.166,0,0,0.000,0.000
7,20.292,19.800,20.775,12795,442,28.974,0.000,   ,,,0.938,11053,13.571,1.001,1.247,1.140,0,0,0.000,0.000
8,21.834,21.367,22.483,16006,458,34.935,0.000,   ,,,1.086,9428,15.911,1.155,1.846,1.157,0,0,0.000,0.000
9,25.078,24.308,26.392,140935,3425,41.153,0.000,   ,,,1.396,9003,16.661,1.163,3.316,1.285,0,0,0.000,0.000
10,29.202,28.333,30.258,129645,2789,46.487,0.000,   ,,,1.790,9256,16.205,1.061,3.632,1.282,0,0,0.000,0.000
11,32.503,31.717,34.392,34657,431,80.364,0.000,   ,,,2.105,3170,47.325,1.629,1.874,1.176,0,0,0.000,0.000

[LC Chromatogram(Detector B-Ch1)]
Interval(msec),500
# of Points,6001
Start Time(min),0.000
End Time(min),50.000
Intensity Units,mV
Intensity Multiplier,0.001
R.Time (min),Intensity
0.00000,-24
0.00833,-24
0.01667,-4
0.02500,-1
0.03333,-1
0.04167,-2
0.05000,-2
0.05833,-3
0.06667,-3
0.07500,-4
0.08333,-4
0.09167,-5
0.10000,-5
0.10833,-6
0.11667,-7
0.12500,-7
0.13333,-8
0.14167,-8
0.15000,-9
0.15833,-10
0.16667,-11
0.17500,-11
0.18333,-11
0.19167,-11
0.20000,-12
0.20833,-12
0.21667,-13
0.22500,-13
0.23333,-14
0.24167,-14
0.25000,-14
0.25833,-14
0.26667,-14
0.27500,-15
0.28333,-16
0.29167,-17
0.30000,-17
0.30833,-17
0.31667,-18
0.32500,-18
0.33333,-18
0.34167,-19
0.35000,-19
0.35833,-20
0.36667,-20
0.37500,-20
0.38333,-20
0.39167,-20
0.40000,-20
0.40833,-20
0.41667,-20
0.42500,-21
0.43333,-21
0.44167,-21
0.45000,-22
0.45833,-22
0.46667,-22
0.47500,-23
0.48333,-23
0.49167,-23
0.50000,-24
0.50833,-24
0.51667,-24
0.52500,-24
0.53333,-24
0.54167,-24
0.55000,-24
0.55833,-24
0.56667,-24
0.57500,-24
0.58333,-24
0.59167,-24
0.60000,-24
0.60833,-24
0.61667,-24
0.62500,-24
0.63333,-24
0.64167,-23
0.65000,-23
0.65833,-23
0.66667,-23
0.67500,-24
0.68333,-24
0.69167,-24
0.70000,-24
0.70833,-24
0.71667,-24
0.72500,-24
0.73333,-25
0.74167,-25
0.75000,-25
0.75833,-25
0.76667,-24
0.77500,-24
0.78333,-24
0.79167,-24
0.80000,-24
0.80833,-24
0.81667,-24
0.82500,-24
0.83333,-24
0.84167,-24
0.85000,-24
0.85833,-24
0.86667,-24
0.87500,-24
0.88333,-24
0.89167,-24
0.90000,-24
0.90833,-24
0.91667,-24
0.92500,-23
0.93333,-23
0.94167,-22
0.95000,-22
0.95833,-22
0.96667,-22
0.97500,-22
0.98333,-23
0.99167,-23
1.00000,-23
1.00833,-23
1.01667,-22
1.02500,-22
1.03333,-21
1.04167,-20
1.05000,-20
1.05833,-20
1.06667,-19
1.07500,-19
1.08333,-19
1.09167,-19
1.10000,-19
1.10833,-19
1.11667,-18
1.12500,-18
1.13333,-18
1.14167,-18
1.15000,-18
1.15833,-18
1.16667,-18
1.17500,-18
1.18333,-18
1.19167,-18
1.20000,-17
1.20833,-17
1.21667,-17
1.22500,-17
1.23333,-17
1.24167,-17
1.25000,-17
1.25833,-17
1.26667,-17
1.27500,-16
1.28333,-16
1.29167,-15
1.30000,-15
1.30833,-14
1.31667,-14
1.32500,-14
1.33333,-14
1.34167,-14
1.35000,-14
1.35833,-13
1.36667,-13
1.37500,-13
1.38333,-12
1.39167,-12
1.40000,-12
1.40833,-12
1.41667,-12
1.42500,-12
1.43333,-12
1.44167,-12
1.45000,-12
1.45833,-12
1.46667,-12
1.47500,-12
1.48333,-11
1.49167,-10
1.50000,-10
1.50833,-10
1.51667,-10
1.52500,-10
1.53333,-10
1.54167,-10
1.55000,-10
1.55833,-10
1.56667,-9
1.57500,-9
1.58333,-9
1.59167,-8
1.60000,-8
1.60833,-8
1.61667,-8
1.62500,-8
1.63333,-8
1.64167,-8
1.65000,-7
1.65833,-7
1.66667,-7
1.67500,-7
1.68333,-7
1.69167,-7
1.70000,-7
1.70833,-7
1.71667,-7
1.72500,-7
1.73333,-6
1.74167,-7
1.75000,-7
1.75833,-6
1.76667,-6
1.77500,-6
1.78333,-6
1.79167,-6
1.80000,-5
1.80833,-5
1.81667,-5
1.82500,-5
1.83333,-5
1.84167,-4
1.85000,-4
1.85833,-4
1.86667,-4
1.87500,-4
1.88333,-4
1.89167,-4
1.90000,-4
1.90833,-5
1.91667,-4
1.92500,-4
1.93333,-4
1.94167,-3
1.95000,-3
1.95833,-3
1.96667,-3
1.97500,-3
1.98333,-3
1.99167,-3
2.00000,-3
2.00833,-3
2.01667,-3
2.02500,-2
2.03333,-2
2.04167,-2
2.05000,-2
2.05833,-2
2.06667,-3
2.07500,-2
2.08333,-2
2.09167,-3
2.10000,-3
2.10833,-3
2.11667,-3
2.12500,-3
2.13333,-3
2.14167,-3
2.15000,-3
2.15833,-3
2.16667,-3
2.17500,-3
2.18333,-3
2.19167,-3
2.20000,-3
2.20833,-3
2.21667,-3
2.22500,-3
2.23333,-3
2.24167,-3
2.25000,-2
2.25833,-2
2.26667,-2
2.27500,-2
2.28333,-2
2.29167,-3
2.30000,-3
2.30833,-4
2.31667,-4
2.32500,-4
2.33333,-4
2.34167,-5
2.35000,-5
2.35833,-5
2.36667,-5
2.37500,-5
2.38333,-5
2.39167,-5
2.40000,-5
2.40833,-5
2.41667,-4
2.42500,-4
2.43333,-4
2.44167,-5
2.45000,-5
2.45833,-5
2.46667,-5
2.47500,-5
2.48333,-5
2.49167,-6
2.50000,-6
2.50833,-6
2.51667,-7
2.52500,-7
2.53333,-7
2.54167,-7
2.55000,-7
2.55833,-7
2.56667,-7
2.57500,-8
2.58333,-8
2.59167,-7
2.60000,-7
2.60833,-7
2.61667,-7
2.62500,-7
2.63333,-7
2.64167,-7
2.65000,-8
2.65833,-8
2.66667,-8
2.67500,-8
2.68333,-8
2.69167,-8
2.70000,-8
2.70833,-9
2.71667,-9
2.72500,-9
2.73333,-9
2.74167,-9
2.75000,-9
2.75833,-9
2.76667,-9
2.77500,-10
2.78333,-10
2.79167,-10
2.80000,-10
2.80833,-10
2.81667,-10
2.82500,-10
2.83333,-10
2.84167,-11
2.85000,-11
2.85833,-11
2.86667,-11
2.87500,-12
2.88333,-12
2.89167,-11
2.90000,-11
2.90833,-11
2.91667,-12
2.92500,-12
2.93333,-12
2.94167,-12
2.95000,-12
2.95833,-12
2.96667,-12
2.97500,-12
2.98333,-12
2.99167,-12
3.00000,-12
3.00833,-12
3.01667,-12
3.02500,-12
3.03333,-12
3.04167,-13
3.05000,-13
3.05833,-12
3.06667,-13
3.07500,-13
3.08333,-13
3.09167,-13
3.10000,-12
3.10833,-12
3.11667,-13
3.12500,-13
3.13333,-13
3.14167,-12
3.15000,-12
3.15833,-12
3.16667,-12
3.17500,-12
3.18333,-12
3.19167,-12
3.20000,-13
3.20833,-13
3.21667,-13
3.22500,-13
3.23333,-12
3.24167,-12
3.25000,-12
3.25833,-12
3.26667,-12
3.27500,-12
3.28333,-12
3.29167,-12
3.30000,-12
3.30833,-12
3.31667,-12
3.32500,-12
3.33333,-12
3.34167,-12
3.35000,-12
3.35833,-12
3.36667,-12
3.37500,-12
3.38333,-11
3.39167,-11
3.40000,-11
3.40833,-11
3.41667,-11
3.42500,-11
3.43333,-11
3.44167,-11
3.45000,-11
3.45833,-11
3.46667,-11
3.47500,-11
3.48333,-11
3.49167,-10
3.50000,-10
3.50833,-10
3.51667,-10
3.52500,-10
3.53333,-9
3.54167,-9
3.55000,-9
3.55833,-9
3.56667,-9
3.57500,-8
3.58333,-8
3.59167,-8
3.60000,-9
3.60833,-9
3.61667,-9
3.62500,-9
3.63333,-9
3.64167,-9
3.65000,-9
3.65833,-9
3.66667,-8
3.67500,-8
3.68333,-8
3.69167,-8
3.70000,-7
3.70833,-7
3.71667,-6
3.72500,-6
3.73333,-6
3.74167,-6
3.75000,-6
3.75833,-5
3.76667,-5
3.77500,-5
3.78333,-4
3.79167,-4
3.80000,-4
3.80833,-4
3.81667,-4
3.82500,-3
3.83333,-2
3.84167,-2
3.85000,-2
3.85833,-2
3.86667,-2
3.87500,-1
3.88333,-1
3.89167,-0
3.90000,0
3.90833,1
3.91667,1
3.92500,1
3.93333,1
3.94167,1
3.95000,1
3.95833,1
3.96667,1
3.97500,1
3.98333,2
3.99167,2
4.00000,3
4.00833,3
4.01667,3
4.02500,4
4.03333,4
4.04167,5
4.05000,5
4.05833,6
4.06667,6
4.07500,7
4.08333,7
4.09167,8
4.10000,8
4.10833,8
4.11667,9
4.12500,9
4.13333,9
4.14167,10
4.15000,10
4.15833,11
4.16667,11
4.17500,12
4.18333,12
4.19167,13
4.20000,13
4.20833,14
4.21667,14
4.22500,15
4.23333,15
4.24167,16
4.25000,16
4.25833,17
4.26667,17
4.27500,18
4.28333,19
4.29167,19
4.30000,20
4.30833,20
4.31667,21
4.32500,22
4.33333,23
4.34167,23
4.35000,24
4.35833,24
4.36667,25
4.37500,25
4.38333,26
4.39167,27
4.40000,27
4.40833,28
4.41667,28
4.42500,29
4.43333,30
4.44167,31
4.45000,31
4.45833,32
4.46667,33
4.47500,34
4.48333,35
4.49167,35
4.50000,36
4.50833,37
4.51667,37
4.52500,38
4.53333,38
4.54167,39
4.55000,39
4.55833,39
4.56667,40
4.57500,40
4.58333,41
4.59167,42
4.60000,42
4.60833,43
4.61667,43
4.62500,44
4.63333,45
4.64167,46
4.65000,46
4.65833,47
4.66667,47
4.67500,48
4.68333,49
4.69167,49
4.70000,49
4.70833,49
4.71667,49
4.72500,49
4.73333,50
4.74167,50
4.75000,51
4.75833,51
4.76667,52
4.77500,52
4.78333,52
4.79167,53
4.80000,53
4.80833,54
4.81667,54
4.82500,55
4.83333,55
4.84167,55
4.85000,56
4.85833,56
4.86667,56
4.87500,57
4.88333,57
4.89167,57
4.90000,57
4.90833,57
4.91667,57
4.92500,57
4.93333,58
4.94167,58
4.95000,59
4.95833,59
4.96667,59
4.97500,59
4.98333,59
4.99167,59
5.00000,59
5.00833,58
5.01667,59
5.02500,59
5.03333,58
5.04167,58
5.05000,58
5.05833,58
5.06667,58
5.07500,58
5.08333,58
5.09167,57
5.10000,57
5.10833,57
5.11667,57
5.12500,56
5.13333,56
5.14167,56
5.15000,56
5.15833,56
5.16667,56
5.17500,56
5.18333,56
5.19167,56
5.20000,55
5.20833,55
5.21667,55
5.22500,55
5.23333,55
5.24167,55
5.25000,55
5.25833,54
5.26667,54
5.27500,53
5.28333,53
5.29167,53
5.30000,53
5.30833,52
5.31667,52
5.32500,52
5.33333,51
5.34167,51
5.35000,51
5.35833,51
5.36667,50
5.37500,50
5.38333,50
5.39167,49
5.40000,49
5.40833,48
5.41667,48
5.42500,47
5.43333,46
5.44167,46
5.45000,45
5.45833,45
5.46667,44
5.47500,44
5.48333,43
5.49167,42
5.50000,42
5.50833,41
5.51667,40
5.52500,40
5.53333,39
5.54167,39
5.55000,39
5.55833,38
5.56667,37
5.57500,36
5.58333,36
5.59167,35
5.60000,35
5.60833,34
5.61667,34
5.62500,33
5.63333,32
5.64167,32
5.65000,31
5.65833,30
5.66667,29
5.67500,29
5.68333,28
5.69167,27
5.70000,26
5.70833,26
5.71667,25
5.72500,25
5.73333,24
5.74167,24
5.75000,23
5.75833,22
5.76667,21
5.77500,20
5.78333,19
5.79167,18
5.80000,16
5.80833,15
5.81667,14
5.82500,14
5.83333,13
5.84167,12
5.85000,11
5.85833,10
5.86667,10
5.87500,9
5.88333,8
5.89167,7
5.90000,7
5.90833,6
5.91667,5
5.92500,4
5.93333,4
5.94167,3
5.95000,2
5.95833,2
5.96667,1
5.97500,0
5.98333,-1
5.99167,-2
6.00000,-2
6.00833,-3
6.01667,-4
6.02500,-5
6.03333,-6
6.04167,-6
6.05000,-7
6.05833,-8
6.06667,-9
6.07500,-10
6.08333,-11
6.09167,-11
6.10000,-12
6.10833,-13
6.11667,-13
6.12500,-14
6.13333,-14
6.14167,-14
6.15000,-15
6.15833,-16
6.16667,-17
6.17500,-18
6.18333,-18
6.19167,-19
6.20000,-19
6.20833,-20
6.21667,-21
6.22500,-21
6.23333,-22
6.24167,-22
6.25000,-23
6.25833,-24
6.26667,-24
6.27500,-25
6.28333,-25
6.29167,-26
6.30000,-26
6.30833,-27
6.31667,-27
6.32500,-28
6.33333,-28
6.34167,-28
6.35000,-29
6.35833,-29
6.36667,-30
6.37500,-30
6.38333,-31
6.39167,-32
6.40000,-32
6.40833,-33
6.41667,-33
6.42500,-33
6.43333,-34
6.44167,-34
6.45000,-33
6.45833,-34
6.46667,-34
6.47500,-34
6.48333,-35
6.49167,-35
6.50000,-35
6.50833,-36
6.51667,-37
6.52500,-37
6.53333,-37
6.54167,-38
6.55000,-38
6.55833,-38
6.56667,-38
6.57500,-38
6.58333,-39
6.59167,-39
6.60000,-40
6.60833,-40
6.61667,-41
6.62500,-41
6.63333,-41
6.64167,-41
6.65000,-41
6.65833,-41
6.66667,-41
6.67500,-41
6.68333,-42
6.69167,-42
6.70000,-42
6.70833,-42
6.71667,-42
6.72500,-42
6.73333,-42
6.74167,-43
6.75000,-43
6.75833,-43
6.76667,-43
6.77500,-43
6.78333,-44
6.79167,-44
6.80000,-44
6.80833,-44
6.81667,-44
6.82500,-44
6.83333,-44
6.84167,-44
6.85000,-44
6.85833,-44
6.86667,-45
6.87500,-45
6.88333,-45
6.89167,-44
6.90000,-44
6.90833,-44
6.91667,-44
6.92500,-45
6.93333,-45
6.94167,-46
6.95000,-46
6.95833,-47
6.96667,-47
6.97500,-47
6.98333,-46
6.99167,-47
7.00000,-47
7.00833,-46
7.01667,-46
7.02500,-46
7.03333,-46
7.04167,-46
7.05000,-46
7.05833,-46
7.06667,-47
7.07500,-47
7.08333,-47
7.09167,-47
7.10000,-47
7.10833,-46
7.11667,-46
7.12500,-46
7.13333,-46
7.14167,-46
7.15000,-47
7.15833,-47
7.16667,-47
7.17500,-47
7.18333,-47
7.19167,-47
7.20000,-47
7.20833,-46
7.21667,-46
7.22500,-46
7.23333,-46
7.24167,-47
7.25000,-47
7.25833,-47
7.26667,-47
7.27500,-47
7.28333,-47
7.29167,-47
7.30000,-47
7.30833,-48
7.31667,-47
7.32500,-47
7.33333,-47
7.34167,-47
7.35000,-47
7.35833,-48
7.36667,-48
7.37500,-48
7.38333,-48
7.39167,-48
7.40000,-48
7.40833,-48
7.41667,-48
7.42500,-48
7.43333,-48
7.44167,-48
7.45000,-48
7.45833,-48
7.46667,-48
7.47500,-48
7.48333,-48
7.49167,-48
7.50000,-47
7.50833,-47
7.51667,-48
7.52500,-48
7.53333,-48
7.54167,-48
7.55000,-49
7.55833,-49
7.56667,-49
7.57500,-49
7.58333,-49
7.59167,-49
7.60000,-49
7.60833,-49
7.61667,-48
7.62500,-48
7.63333,-49
7.64167,-49
7.65000,-49
7.65833,-48
7.66667,-48
7.67500,-49
7.68333,-49
7.69167,-49
7.70000,-49
7.70833,-49
7.71667,-49
7.72500,-50
7.73333,-50
7.74167,-50
7.75000,-50
7.75833,-50
7.76667,-49
7.77500,-49
7.78333,-49
7.79167,-49
7.80000,-49
7.80833,-49
7.81667,-49
7.82500,-50
7.83333,-50
7.84167,-49
7.85000,-49
7.85833,-49
7.86667,-50
7.87500,-50
7.88333,-50
7.89167,-50
7.90000,-50
7.90833,-50
7.91667,-50
7.92500,-51
7.93333,-51
7.94167,-51
7.95000,-51
7.95833,-51
7.96667,-51
7.97500,-51
7.98333,-51
7.99167,-51
8.00000,-51
8.00833,-51
8.01667,-51
8.02500,-51
8.03333,-50
8.04167,-50
8.05000,-50
8.05833,-50
8.06667,-49
8.07500,-49
8.08333,-50
8.09167,-50
8.10000,-50
8.10833,-50
8.11667,-50
8.12500,-50
8.13333,-50
8.14167,-51
8.15000,-51
8.15833,-51
8.16667,-51
8.17500,-51
8.18333,-52
8.19167,-52
8.20000,-52
8.20833,-52
8.21667,-51
8.22500,-51
8.23333,-51
8.24167,-51
8.25000,-51
8.25833,-51
8.26667,-51
8.27500,-51
8.28333,-52
8.29167,-52
8.30000,-52
8.30833,-52
8.31667,-52
8.32500,-52
8.33333,-52
8.34167,-52
8.35000,-52
8.35833,-52
8.36667,-52
8.37500,-51
8.38333,-52
8.39167,-52
8.40000,-52
8.40833,-52
8.41667,-52
8.42500,-51
8.43333,-51
8.44167,-51
8.45000,-51
8.45833,-51
8.46667,-51
8.47500,-52
8.48333,-52
8.49167,-52
8.50000,-52
8.50833,-52
8.51667,-52
8.52500,-52
8.53333,-52
8.54167,-52
8.55000,-52
8.55833,-52
8.56667,-52
8.57500,-52
8.58333,-53
8.59167,-53
8.60000,-53
8.60833,-53
8.61667,-53
8.62500,-52
8.63333,-52
8.64167,-53
8.65000,-53
8.65833,-52
8.66667,-52
8.67500,-52
8.68333,-52
8.69167,-52
8.70000,-52
8.70833,-52
8.71667,-52
8.72500,-52
8.73333,-52
8.74167,-52
8.75000,-53
8.75833,-52
8.76667,-53
8.77500,-53
8.78333,-53
8.79167,-52
8.80000,-52
8.80833,-52
8.81667,-52
8.82500,-52
8.83333,-52
8.84167,-52
8.85000,-52
8.85833,-52
8.86667,-52
8.87500,-52
8.88333,-52
8.89167,-52
8.90000,-52
8.90833,-51
8.91667,-51
8.92500,-51
8.93333,-52
8.94167,-52
8.95000,-52
8.95833,-52
8.96667,-52
8.97500,-52
8.98333,-52
8.99167,-52
9.00000,-52
9.00833,-52
9.01667,-53
9.02500,-53
9.03333,-52
9.04167,-52
9.05000,-52
9.05833,-52
9.06667,-52
9.07500,-52
9.08333,-52
9.09167,-52
9.10000,-51
9.10833,-51
9.11667,-51
9.12500,-51
9.13333,-51
9.14167,-51
9.15000,-51
9.15833,-51
9.16667,-51
9.17500,-51
9.18333,-52
9.19167,-52
9.20000,-52
9.20833,-51
9.21667,-51
9.22500,-51
9.23333,-51
9.24167,-51
9.25000,-51
9.25833,-51
9.26667,-51
9.27500,-51
9.28333,-51
9.29167,-51
9.30000,-51
9.30833,-51
9.31667,-51
9.32500,-51
9.33333,-51
9.34167,-51
9.35000,-51
9.35833,-51
9.36667,-51
9.37500,-51
9.38333,-51
9.39167,-51
9.40000,-51
9.40833,-51
9.41667,-52
9.42500,-52
9.43333,-52
9.44167,-52
9.45000,-51
9.45833,-51
9.46667,-51
9.47500,-51
9.48333,-51
9.49167,-51
9.50000,-51
9.50833,-51
9.51667,-51
9.52500,-51
9.53333,-51
9.54167,-52
9.55000,-52
9.55833,-52
9.56667,-52
9.57500,-51
9.58333,-51
9.59167,-51
9.60000,-51
9.60833,-51
9.61667,-51
9.62500,-51
9.63333,-51
9.64167,-51
9.65000,-51
9.65833,-51
9.66667,-51
9.67500,-50
9.68333,-50
9.69167,-50
9.70000,-50
9.70833,-50
9.71667,-50
9.72500,-50
9.73333,-49
9.74167,-49
9.75000,-49
9.75833,-49
9.76667,-49
9.77500,-49
9.78333,-50
9.79167,-50
9.80000,-50
9.80833,-50
9.81667,-50
9.82500,-50
9.83333,-50
9.84167,-50
9.85000,-50
9.85833,-50
9.86667,-50
9.87500,-50
9.88333,-50
9.89167,-50
9.90000,-50
9.90833,-50
9.91667,-50
9.92500,-49
9.93333,-49
9.94167,-49
9.95000,-49
9.95833,-49
9.96667,-49
9.97500,-49
9.98333,-49
9.99167,-49
10.00000,-49
10.00833,-48
10.01667,-48
10.02500,-48
10.03333,-47
10.04167,-47
10.05000,-47
10.05833,-46
10.06667,-46
10.07500,-46
10.08333,-46
10.09167,-46
10.10000,-45
10.10833,-45
10.11667,-44
10.12500,-44
10.13333,-43
10.14167,-42
10.15000,-41
10.15833,-40
10.16667,-39
10.17500,-38
10.18333,-37
10.19167,-36
10.20000,-35
10.20833,-34
10.21667,-33
10.22500,-31
10.23333,-30
10.24167,-28
10.25000,-26
10.25833,-24
10.26667,-22
10.27500,-19
10.28333,-16
10.29167,-13
10.30000,-9
10.30833,-4
10.31667,1
10.32500,7
10.33333,14
10.34167,22
10.35000,32
10.35833,43
10.36667,55
10.37500,68
10.38333,83
10.39167,98
10.40000,115
10.40833,131
10.41667,148
10.42500,163
10.43333,177
10.44167,189
10.45000,198
10.45833,204
10.46667,206
10.47500,205
10.48333,202
10.49167,196
10.50000,189
10.50833,183
10.51667,180
10.52500,184
10.53333,196
10.54167,222
10.55000,264
10.55833,330
10.56667,423
10.57500,550
10.58333,715
10.59167,926
10.60000,1188
10.60833,1508
10.61667,1891
10.62500,2344
10.63333,2872
10.64167,3481
10.65000,4176
10.65833,4963
10.66667,5845
10.67500,6828
10.68333,7916
10.69167,9112
10.70000,10420
10.70833,11843
10.71667,13382
10.72500,15040
10.73333,16820
10.74167,18722
10.75000,20746
10.75833,22894
10.76667,25165
10.77500,27558
10.78333,30074
10.79167,32709
10.80000,35464
10.80833,38334
10.81667,41319
10.82500,44413
10.83333,47614
10.84167,50916
10.85000,54314
10.85833,57800
10.86667,61367
10.87500,65006
10.88333,68706
10.89167,72454
10.90000,76236
10.90833,80032
10.91667,83824
10.92500,87586
10.93333,91289
10.94167,94903
10.95000,98388
10.95833,101704
10.96667,104804
10.97500,107638
10.98333,110151
10.99167,112289
11.00000,113994
11.00833,115211
11.01667,115888
11.02500,115979
11.03333,115450
11.04167,114276
11.05000,112449
11.05833,109975
11.06667,106880
11.07500,103208
11.08333,99017
11.09167,94383
11.10000,89390
11.10833,84130
11.11667,78700
11.12500,73194
11.13333,67699
11.14167,62298
11.15000,57060
11.15833,52042
11.16667,47290
11.17500,42836
11.18333,38701
11.19167,34894
11.20000,31416
11.20833,28261
11.21667,25416
11.22500,22865
11.23333,20588
11.24167,18564
11.25000,16770
11.25833,15183
11.26667,13784
11.27500,12551
11.28333,11465
11.29167,10510
11.30000,9668
11.30833,8925
11.31667,8270
11.32500,7690
11.33333,7175
11.34167,6717
11.35000,6308
11.35833,5942
11.36667,5613
11.37500,5316
11.38333,5047
11.39167,4802
11.40000,4578
11.40833,4372
11.41667,4183
11.42500,4007
11.43333,3844
11.44167,3692
11.45000,3549
11.45833,3416
11.46667,3290
11.47500,3172
11.48333,3059
11.49167,2952
11.50000,2850
11.50833,2753
11.51667,2660
11.52500,2572
11.53333,2488
11.54167,2407
11.55000,2330
11.55833,2256
11.56667,2185
11.57500,2116
11.58333,2051
11.59167,1988
11.60000,1928
11.60833,1870
11.61667,1815
11.62500,1762
11.63333,1711
11.64167,1662
11.65000,1614
11.65833,1569
11.66667,1525
11.67500,1483
11.68333,1444
11.69167,1406
11.70000,1369
11.70833,1333
11.71667,1299
11.72500,1266
11.73333,1235
11.74167,1206
11.75000,1177
11.75833,1149
11.76667,1122
11.77500,1097
11.78333,1073
11.79167,1050
11.80000,1028
11.80833,1007
11.81667,987
11.82500,967
11.83333,949
11.84167,931
11.85000,914
11.85833,898
11.86667,882
11.87500,867
11.88333,853
11.89167,840
11.90000,827
11.90833,815
11.91667,802
11.92500,790
11.93333,779
11.94167,769
11.95000,759
11.95833,750
11.96667,741
11.97500,732
11.98333,724
11.99167,715
12.00000,708
12.00833,700
12.01667,694
12.02500,687
12.03333,680
12.04167,674
12.05000,669
12.05833,663
12.06667,657
12.07500,652
12.08333,647
12.09167,642
12.10000,638
12.10833,634
12.11667,630
12.12500,626
12.13333,623
12.14167,619
12.15000,616
12.15833,613
12.16667,610
12.17500,608
12.18333,606
12.19167,603
12.20000,601
12.20833,600
12.21667,598
12.22500,597
12.23333,595
12.24167,594
12.25000,593
12.25833,592
12.26667,591
12.27500,590
12.28333,590
12.29167,589
12.30000,588
12.30833,588
12.31667,589
12.32500,588
12.33333,588
12.34167,588
12.35000,587
12.35833,587
12.36667,586
12.37500,586
12.38333,586
12.39167,586
12.40000,586
12.40833,586
12.41667,585
12.42500,585
12.43333,584
12.44167,584
12.45000,584
12.45833,583
12.46667,582
12.47500,581
12.48333,580
12.49167,579
12.50000,578
12.50833,577
12.51667,576
12.52500,574
12.53333,573
12.54167,571
12.55000,569
12.55833,568
12.56667,566
12.57500,564
12.58333,562
12.59167,561
12.60000,559
12.60833,558
12.61667,556
12.62500,555
12.63333,554
12.64167,553
12.65000,552
12.65833,552
12.66667,553
12.67500,554
12.68333,557
12.69167,560
12.70000,565
12.70833,571
12.71667,578
12.72500,588
12.73333,599
12.74167,613
12.75000,629
12.75833,648
12.76667,670
12.77500,694
12.78333,723
12.79167,754
12.80000,790
12.80833,829
12.81667,873
12.82500,922
12.83333,975
12.84167,1033
12.85000,1096
12.85833,1163
12.86667,1237
12.87500,1315
12.88333,1399
12.89167,1488
12.90000,1583
12.90833,1684
12.91667,1790
12.92500,1902
12.93333,2020
12.94167,2144
12.95000,2273
12.95833,2408
12.96667,2548
12.97500,2695
12.98333,2847
12.99167,3005
13.00000,3168
13.00833,3337
13.01667,3512
13.02500,3693
13.03333,3879
13.04167,4071
13.05000,4268
13.05833,4470
13.06667,4678
13.07500,4890
13.08333,5108
13.09167,5331
13.10000,5559
13.10833,5792
13.11667,6029
13.12500,6271
13.13333,6517
13.14167,6768
13.15000,7023
13.15833,7283
13.16667,7546
13.17500,7814
13.18333,8085
13.19167,8361
13.20000,8640
13.20833,8923
13.21667,9210
13.22500,9499
13.23333,9793
13.24167,10090
13.25000,10390
13.25833,10694
13.26667,11000
13.27500,11310
13.28333,11623
13.29167,11939
13.30000,12258
13.30833,12580
13.31667,12905
13.32500,13233
13.33333,13563
13.34167,13897
13.35000,14233
13.35833,14572
13.36667,14914
13.37500,15259
13.38333,15606
13.39167,15956
13.40000,16309
13.40833,16665
13.41667,17024
13.42500,17386
13.43333,17750
13.44167,18117
13.45000,18487
13.45833,18860
13.46667,19235
13.47500,19614
13.48333,19995
13.49167,20380
13.50000,20768
13.50833,21159
13.51667,21553
13.52500,21949
13.53333,22349
13.54167,22753
13.55000,23159
13.55833,23568
13.56667,23981
13.57500,24398
13.58333,24817
13.59167,25240
13.60000,25666
13.60833,26096
13.61667,26529
13.62500,26965
13.63333,27405
13.64167,27849
13.65000,28297
13.65833,28747
13.66667,29202
13.67500,29660
13.68333,30122
13.69167,30588
13.70000,31058
13.70833,31531
13.71667,32008
13.72500,32489
13.73333,32975
13.74167,33464
13.75000,33957
13.75833,34454
13.76667,34956
13.77500,35461
13.78333,35971
13.79167,36485
13.80000,37003
13.80833,37526
13.81667,38052
13.82500,38584
13.83333,39119
13.84167,39660
13.85000,40204
13.85833,40754
13.86667,41308
13.87500,41867
13.88333,42431
13.89167,42999
13.90000,43573
13.90833,44150
13.91667,44733
13.92500,45321
13.93333,45913
13.94167,46511
13.95000,47115
13.95833,47724
13.96667,48338
13.97500,48957
13.98333,49582
13.99167,50212
14.00000,50848
14.00833,51490
14.01667,52137
14.02500,52789
14.03333,53448
14.04167,54112
14.05000,54782
14.05833,55459
14.06667,56141
14.07500,56830
14.08333,57524
14.09167,58226
14.10000,58933
14.10833,59647
14.11667,60367
14.12500,61094
14.13333,61828
14.14167,62568
14.15000,63316
14.15833,64070
14.16667,64832
14.17500,65600
14.18333,66376
14.19167,67158
14.20000,67947
14.20833,68740
14.21667,69537
14.22500,70335
14.23333,71130
14.24167,71918
14.25000,72691
14.25833,73441
14.26667,74159
14.27500,74833
14.28333,75452
14.29167,76003
14.30000,76473
14.30833,76850
14.31667,77123
14.32500,77283
14.33333,77318
14.34167,77224
14.35000,76994
14.35833,76623
14.36667,76109
14.37500,75448
14.38333,74639
14.39167,73680
14.40000,72568
14.40833,71302
14.41667,69880
14.42500,68299
14.43333,66560
14.44167,64662
14.45000,62608
14.45833,60404
14.46667,58056
14.47500,55578
14.48333,52985
14.49167,50296
14.50000,47535
14.50833,44725
14.51667,41893
14.52500,39067
14.53333,36274
14.54167,33540
14.55000,30888
14.55833,28340
14.56667,25913
14.57500,23621
14.58333,21474
14.59167,19478
14.60000,17636
14.60833,15947
14.61667,14408
14.62500,13013
14.63333,11755
14.64167,10627
14.65000,9618
14.65833,8719
14.66667,7920
14.67500,7211
14.68333,6584
14.69167,6030
14.70000,5541
14.70833,5109
14.71667,4727
14.72500,4390
14.73333,4092
14.74167,3828
14.75000,3594
14.75833,3385
14.76667,3199
14.77500,3033
14.78333,2883
14.79167,2748
14.80000,2626
14.80833,2516
14.81667,2416
14.82500,2324
14.83333,2240
14.84167,2163
14.85000,2092
14.85833,2026
14.86667,1965
14.87500,1908
14.88333,1855
14.89167,1805
14.90000,1758
14.90833,1714
14.91667,1673
14.92500,1633
14.93333,1596
14.94167,1561
14.95000,1528
14.95833,1496
14.96667,1466
14.97500,1437
14.98333,1410
14.99167,1385
15.00000,1360
15.00833,1337
15.01667,1316
15.02500,1295
15.03333,1276
15.04167,1257
15.05000,1239
15.05833,1223
15.06667,1208
15.07500,1193
15.08333,1179
15.09167,1167
15.10000,1155
15.10833,1144
15.11667,1133
15.12500,1124
15.13333,1116
15.14167,1109
15.15000,1103
15.15833,1098
15.16667,1095
15.17500,1093
15.18333,1093
15.19167,1095
15.20000,1100
15.20833,1109
15.21667,1121
15.22500,1139
15.23333,1162
15.24167,1192
15.25000,1231
15.25833,1279
15.26667,1339
15.27500,1411
15.28333,1499
15.29167,1604
15.30000,1729
15.30833,1876
15.31667,2048
15.32500,2250
15.33333,2482
15.34167,2748
15.35000,3053
15.35833,3399
15.36667,3789
15.37500,4228
15.38333,4717
15.39167,5261
15.40000,5861
15.40833,6520
15.41667,7240
15.42500,8022
15.43333,8869
15.44167,9780
15.45000,10755
15.45833,11794
15.46667,12895
15.47500,14055
15.48333,15273
15.49167,16545
15.50000,17866
15.50833,19231
15.51667,20635
15.52500,22074
15.53333,23539
15.54167,25024
15.55000,26522
15.55833,28026
15.56667,29528
15.57500,31021
15.58333,32497
15.59167,33950
15.60000,35373
15.60833,36758
15.61667,38100
15.62500,39391
15.63333,40628
15.64167,41804
15.65000,42915
15.65833,43957
15.66667,44926
15.67500,45820
15.68333,46636
15.69167,47372
15.70000,48026
15.70833,48596
15.71667,49082
15.72500,49482
15.73333,49797
15.74167,50026
15.75000,50169
15.75833,50226
15.76667,50199
15.77500,50087
15.78333,49893
15.79167,49616
15.80000,49259
15.80833,48823
15.81667,48311
15.82500,47724
15.83333,47065
15.84167,46338
15.85000,45545
15.85833,44689
15.86667,43775
15.87500,42806
15.88333,41786
15.89167,40720
15.90000,39612
15.90833,38468
15.91667,37291
15.92500,36088
15.93333,34864
15.94167,33623
15.95000,32371
15.95833,31112
15.96667,29852
15.97500,28595
15.98333,27346
15.99167,26109
16.00000,24888
16.00833,23687
16.01667,22510
16.02500,21360
16.03333,20239
16.04167,19150
16.05000,18096
16.05833,17078
16.06667,16097
16.07500,15156
16.08333,14254
16.09167,13393
16.10000,12572
16.10833,11792
16.11667,11053
16.12500,10353
16.13333,9693
16.14167,9072
16.15000,8487
16.15833,7939
16.16667,7426
16.17500,6947
16.18333,6500
16.19167,6084
16.20000,5698
16.20833,5339
16.21667,5007
16.22500,4700
16.23333,4417
16.24167,4155
16.25000,3914
16.25833,3692
16.26667,3488
16.27500,3300
16.28333,3128
16.29167,2969
16.30000,2824
16.30833,2690
16.31667,2568
16.32500,2456
16.33333,2353
16.34167,2259
16.35000,2172
16.35833,2092
16.36667,2018
16.37500,1951
16.38333,1889
16.39167,1831
16.40000,1778
16.40833,1728
16.41667,1682
16.42500,1639
16.43333,1599
16.44167,1561
16.45000,1526
16.45833,1493
16.46667,1462
16.47500,1432
16.48333,1404
16.49167,1377
16.50000,1352
16.50833,1327
16.51667,1303
16.52500,1280
16.53333,1258
16.54167,1237
16.55000,1216
16.55833,1196
16.56667,1176
16.57500,1156
16.58333,1136
16.59167,1117
16.60000,1099
16.60833,1081
16.61667,1063
16.62500,1046
16.63333,1029
16.64167,1012
16.65000,996
16.65833,980
16.66667,965
16.67500,950
16.68333,935
16.69167,921
16.70000,907
16.70833,894
16.71667,881
16.72500,869
16.73333,857
16.74167,845
16.75000,834
16.75833,824
16.76667,814
16.77500,805
16.78333,797
16.79167,789
16.80000,782
16.80833,775
16.81667,769
16.82500,762
16.83333,756
16.84167,751
16.85000,747
16.85833,742
16.86667,739
16.87500,735
16.88333,732
16.89167,729
16.90000,726
16.90833,724
16.91667,721
16.92500,719
16.93333,718
16.94167,716
16.95000,714
16.95833,713
16.96667,712
16.97500,711
16.98333,710
16.99167,709
17.00000,708
17.00833,706
17.01667,705
17.02500,704
17.03333,704
17.04167,703
17.05000,702
17.05833,701
17.06667,700
17.07500,699
17.08333,698
17.09167,696
17.10000,695
17.10833,694
17.11667,692
17.12500,691
17.13333,690
17.14167,688
17.15000,687
17.15833,685
17.16667,684
17.17500,682
17.18333,680
17.19167,679
17.20000,677
17.20833,675
17.21667,673
17.22500,671
17.23333,669
17.24167,667
17.25000,665
17.25833,662
17.26667,660
17.27500,658
17.28333,656
17.29167,653
17.30000,650
17.30833,647
17.31667,644
17.32500,642
17.33333,640
17.34167,638
17.35000,636
17.35833,634
17.36667,632
17.37500,631
17.38333,630
17.39167,629
17.40000,628
17.40833,628
17.41667,628
17.42500,628
17.43333,628
17.44167,629
17.45000,630
17.45833,631
17.46667,633
17.47500,635
17.48333,637
17.49167,640
17.50000,643
17.50833,647
17.51667,650
17.52500,654
17.53333,658
17.54167,662
17.55000,666
17.55833,671
17.56667,676
17.57500,682
17.58333,687
17.59167,693
17.60000,700
17.60833,706
17.61667,712
17.62500,717
17.63333,723
17.64167,729
17.65000,735
17.65833,740
17.66667,746
17.67500,752
17.68333,758
17.69167,763
17.70000,768
17.70833,773
17.71667,777
17.72500,782
17.73333,787
17.74167,792
17.75000,796
17.75833,800
17.76667,804
17.77500,807
17.78333,810
17.79167,813
17.80000,815
17.80833,817
17.81667,818
17.82500,820
17.83333,820
17.84167,821
17.85000,821
17.85833,822
17.86667,821
17.87500,821
17.88333,820
17.89167,818
17.90000,816
17.90833,814
17.91667,811
17.92500,808
17.93333,805
17.94167,801
17.95000,797
17.95833,792
17.96667,788
17.97500,783
17.98333,777
17.99167,771
18.00000,766
18.00833,760
18.01667,753
18.02500,746
18.03333,739
18.04167,732
18.05000,725
18.05833,718
18.06667,710
18.07500,702
18.08333,695
18.09167,688
18.10000,680
18.10833,672
18.11667,665
18.12500,657
18.13333,649
18.14167,642
18.15000,634
18.15833,626
18.16667,619
18.17500,612
18.18333,605
18.19167,598
18.20000,591
18.20833,585
18.21667,578
18.22500,572
18.23333,566
18.24167,560
18.25000,555
18.25833,550
18.26667,544
18.27500,540
18.28333,535
18.29167,531
18.30000,527
18.30833,524
18.31667,520
18.32500,517
18.33333,514
18.34167,511
18.35000,509
18.35833,507
18.36667,505
18.37500,504
18.38333,503
18.39167,502
18.40000,502
18.40833,502
18.41667,502
18.42500,502
18.43333,503
18.44167,504
18.45000,505
18.45833,507
18.46667,508
18.47500,510
18.48333,512
18.49167,515
18.50000,517
18.50833,520
18.51667,523
18.52500,526
18.53333,529
18.54167,532
18.55000,536
18.55833,539
18.56667,543
18.57500,548
18.58333,552
18.59167,557
18.60000,561
18.60833,565
18.61667,570
18.62500,574
18.63333,579
18.64167,583
18.65000,588
18.65833,593
18.66667,598
18.67500,603
18.68333,607
18.69167,612
18.70000,617
18.70833,622
18.71667,627
18.72500,632
18.73333,637
18.74167,642
18.75000,647
18.75833,652
18.76667,656
18.77500,661
18.78333,666
18.79167,671
18.80000,675
18.80833,680
18.81667,684
18.82500,689
18.83333,693
18.84167,697
18.85000,701
18.85833,705
18.86667,709
18.87500,713
18.88333,717
18.89167,721
18.90000,724
18.90833,728
18.91667,731
18.92500,734
18.93333,737
18.94167,741
18.95000,744
18.95833,747
18.96667,749
18.97500,752
18.98333,755
18.99167,757
19.00000,759
19.00833,761
19.01667,763
19.02500,764
19.03333,766
19.04167,767
19.05000,768
19.05833,769
19.06667,770
19.07500,770
19.08333,771
19.09167,770
19.10000,770
19.10833,770
19.11667,770
19.12500,769
19.13333,768
19.14167,767
19.15000,766
19.15833,764
19.16667,762
19.17500,760
19.18333,757
19.19167,755
19.20000,753
19.20833,750
19.21667,747
19.22500,744
19.23333,740
19.24167,737
19.25000,732
19.25833,728
19.26667,724
19.27500,719
19.28333,715
19.29167,710
19.30000,705
19.30833,700
19.31667,694
19.32500,689
19.33333,684
19.34167,678
19.35000,673
19.35833,667
19.36667,661
19.37500,655
19.38333,649
19.39167,643
19.40000,637
19.40833,631
19.41667,624
19.42500,618
19.43333,611
19.44167,605
19.45000,599
19.45833,593
19.46667,586
19.47500,580
19.48333,573
19.49167,567
19.50000,560
19.50833,554
19.51667,547
19.52500,541
19.53333,535
19.54167,529
19.55000,523
19.55833,516
19.56667,510
19.57500,505
19.58333,499
19.59167,493
19.60000,488
19.60833,483
19.61667,478
19.62500,473
19.63333,469
19.64167,464
19.65000,460
19.65833,456
19.66667,452
19.67500,448
19.68333,445
19.69167,442
19.70000,440
19.70833,438
19.71667,436
19.72500,435
19.73333,433
19.74167,433
19.75000,432
19.75833,432
19.76667,432
19.77500,433
19.78333,435
19.79167,437
19.80000,439
19.80833,442
19.81667,446
19.82500,451
19.83333,456
19.84167,461
19.85000,467
19.85833,473
19.86667,480
19.87500,488
19.88333,496
19.89167,505
19.90000,514
19.90833,524
19.91667,535
19.92500,546
19.93333,558
19.94167,571
19.95000,584
19.95833,597
19.96667,611
19.97500,626
19.98333,640
19.99167,655
20.00000,670
20.00833,685
20.01667,700
20.02500,715
20.03333,731
20.04167,747
20.05000,763
20.05833,778
20.06667,794
20.07500,809
20.08333,824
20.09167,838
20.10000,852
20.10833,866
20.11667,880
20.12500,893
20.13333,906
20.14167,918
20.15000,929
20.15833,940
20.16667,951
20.17500,961
20.18333,970
20.19167,979
20.20000,987
20.20833,994
20.21667,1001
20.22500,1007
20.23333,1012
20.24167,1017
20.25000,1021
20.25833,1024
20.26667,1026
20.27500,1028
20.28333,1029
20.29167,1030
20.30000,1029
20.30833,1028
20.31667,1027
20.32500,1025
20.33333,1022
20.34167,1019
20.35000,1015
20.35833,1011
20.36667,1006
20.37500,1000
20.38333,994
20.39167,988
20.40000,981
20.40833,973
20.41667,965
20.42500,957
20.43333,949
20.44167,940
20.45000,932
20.45833,923
20.46667,915
20.47500,906
20.48333,897
20.49167,888
20.50000,878
20.50833,869
20.51667,860
20.52500,852
20.53333,843
20.54167,835
20.55000,827
20.55833,820
20.56667,812
20.57500,805
20.58333,798
20.59167,791
20.60000,784
20.60833,779
20.61667,773
20.62500,768
20.63333,764
20.64167,759
20.65000,755
20.65833,752
20.66667,749
20.67500,747
20.68333,744
20.69167,742
20.70000,741
20.70833,739
20.71667,738
20.72500,737
20.73333,737
20.74167,736
20.75000,736
20.75833,735
20.76667,734
20.77500,734
20.78333,735
20.79167,735
20.80000,735
20.80833,735
20.81667,735
20.82500,736
20.83333,736
20.84167,736
20.85000,736
20.85833,736
20.86667,737
20.87500,737
20.88333,737
20.89167,737
20.90000,737
20.90833,737
20.91667,736
20.92500,736
20.93333,735
20.94167,734
20.95000,733
20.95833,732
20.96667,731
20.97500,730
20.98333,728
20.99167,726
21.00000,725
21.00833,723
21.01667,721
21.02500,719
21.03333,717
21.04167,715
21.05000,713
21.05833,711
21.06667,709
21.07500,707
21.08333,705
21.09167,703
21.10000,701
21.10833,699
21.11667,697
21.12500,695
21.13333,692
21.14167,690
21.15000,688
21.15833,687
21.16667,685
21.17500,683
21.18333,682
21.19167,680
21.20000,679
21.20833,678
21.21667,676
21.22500,675
21.23333,674
21.24167,673
21.25000,672
21.25833,671
21.26667,670
21.27500,670
21.28333,669
21.29167,668
21.30000,668
21.30833,668
21.31667,669
21.32500,669
21.33333,669
21.34167,669
21.35000,670
21.35833,670
21.36667,671
21.37500,672
21.38333,673
21.39167,674
21.40000,675
21.40833,677
21.41667,679
21.42500,682
21.43333,684
21.44167,687
21.45000,691
21.45833,694
21.46667,699
21.47500,703
21.48333,708
21.49167,714
21.50000,720
21.50833,726
21.51667,733
21.52500,739
21.53333,747
21.54167,754
21.55000,763
21.55833,771
21.56667,780
21.57500,789
21.58333,797
21.59167,806
21.60000,816
21.60833,825
21.61667,834
21.62500,844
21.63333,854
21.64167,863
21.65000,872
21.65833,881
21.66667,889
21.67500,897
21.68333,905
21.69167,912
21.70000,920
21.70833,927
21.71667,934
21.72500,940
21.73333,945
21.74167,951
21.75000,955
21.75833,959
21.76667,963
21.77500,967
21.78333,970
21.79167,973
21.80000,975
21.80833,977
21.81667,978
21.82500,979
21.83333,979
21.84167,979
21.85000,978
21.85833,977
21.86667,976
21.87500,975
21.88333,974
21.89167,972
21.90000,969
21.90833,966
21.91667,963
21.92500,959
21.93333,955
21.94167,950
21.95000,945
21.95833,940
21.96667,934
21.97500,928
21.98333,921
21.99167,914
22.00000,906
22.00833,898
22.01667,889
22.02500,880
22.03333,870
22.04167,860
22.05000,849
22.05833,838
22.06667,827
22.07500,816
22.08333,803
22.09167,791
22.10000,778
22.10833,765
22.11667,751
22.12500,738
22.13333,724
22.14167,710
22.15000,696
22.15833,682
22.16667,668
22.17500,653
22.18333,639
22.19167,624
22.20000,610
22.20833,596
22.21667,582
22.22500,568
22.23333,554
22.24167,541
22.25000,527
22.25833,514
22.26667,502
22.27500,490
22.28333,478
22.29167,467
22.30000,456
22.30833,445
22.31667,434
22.32500,425
22.33333,416
22.34167,407
22.35000,399
22.35833,390
22.36667,383
22.37500,376
22.38333,368
22.39167,362
22.40000,355
22.40833,350
22.41667,344
22.42500,339
22.43333,335
22.44167,330
22.45000,326
22.45833,322
22.46667,319
22.47500,316
22.48333,313
22.49167,310
22.50000,308
22.50833,306
22.51667,304
22.52500,302
22.53333,300
22.54167,299
22.55000,298
22.55833,297
22.56667,296
22.57500,294
22.58333,293
22.59167,293
22.60000,292
22.60833,291
22.61667,291
22.62500,291
22.63333,291
22.64167,291
22.65000,291
22.65833,292
22.66667,292
22.67500,292
22.68333,293
22.69167,293
22.70000,293
22.70833,294
22.71667,294
22.72500,295
22.73333,296
22.74167,297
22.75000,298
22.75833,299
22.76667,299
22.77500,300
22.78333,300
22.79167,301
22.80000,302
22.80833,303
22.81667,303
22.82500,304
22.83333,305
22.84167,306
22.85000,307
22.85833,308
22.86667,308
22.87500,309
22.88333,310
22.89167,311
22.90000,312
22.90833,313
22.91667,314
22.92500,315
22.93333,316
22.94167,317
22.95000,318
22.95833,320
22.96667,321
22.97500,322
22.98333,323
22.99167,324
23.00000,325
23.00833,325
23.01667,326
23.02500,327
23.03333,328
23.04167,329
23.05000,330
23.05833,331
23.06667,332
23.07500,333
23.08333,334
23.09167,335
23.10000,336
23.10833,337
23.11667,337
23.12500,338
23.13333,339
23.14167,340
23.15000,340
23.15833,341
23.16667,342
23.17500,343
23.18333,343
23.19167,344
23.20000,345
23.20833,345
23.21667,345
23.22500,346
23.23333,347
23.24167,347
23.25000,348
23.25833,349
23.26667,349
23.27500,350
23.28333,350
23.29167,351
23.30000,351
23.30833,352
23.31667,353
23.32500,353
23.33333,353
23.34167,354
23.35000,354
23.35833,355
23.36667,355
23.37500,356
23.38333,357
23.39167,357
23.40000,358
23.40833,358
23.41667,359
23.42500,360
23.43333,361
23.44167,361
23.45000,362
23.45833,363
23.46667,363
23.47500,364
23.48333,364
23.49167,365
23.50000,366
23.50833,367
23.51667,367
23.52500,367
23.53333,367
23.54167,368
23.55000,368
23.55833,369
23.56667,369
23.57500,370
23.58333,370
23.59167,370
23.60000,371
23.60833,371
23.61667,371
23.62500,372
23.63333,373
23.64167,373
23.65000,373
23.65833,373
23.66667,373
23.67500,373
23.68333,373
23.69167,373
23.70000,372
23.70833,372
23.71667,372
23.72500,372
23.73333,372
23.74167,372
23.75000,372
23.75833,372
23.76667,372
23.77500,371
23.78333,371
23.79167,370
23.80000,370
23.80833,370
23.81667,370
23.82500,369
23.83333,369
23.84167,368
23.85000,368
23.85833,367
23.86667,367
23.87500,366
23.88333,365
23.89167,365
23.90000,364
23.90833,364
23.91667,364
23.92500,364
23.93333,363
23.94167,362
23.95000,362
23.95833,361
23.96667,361
23.97500,360
23.98333,359
23.99167,359
24.00000,358
24.00833,358
24.01667,357
24.02500,356
24.03333,355
24.04167,355
24.05000,354
24.05833,354
24.06667,353
24.07500,353
24.08333,352
24.09167,352
24.10000,351
24.10833,351
24.11667,351
24.12500,350
24.13333,350
24.14167,349
24.15000,349
24.15833,348
24.16667,347
24.17500,346
24.18333,346
24.19167,345
24.20000,344
24.20833,344
24.21667,344
24.22500,344
24.23333,344
24.24167,343
24.25000,343
24.25833,342
24.26667,342
24.27500,342
24.28333,342
24.29167,343
24.30000,343
24.30833,344
24.31667,344
24.32500,345
24.33333,346
24.34167,348
24.35000,350
24.35833,352
24.36667,355
24.37500,358
24.38333,362
24.39167,366
24.40000,370
24.40833,375
24.41667,382
24.42500,389
24.43333,397
24.44167,405
24.45000,416
24.45833,427
24.46667,439
24.47500,452
24.48333,467
24.49167,483
24.50000,502
24.50833,521
24.51667,543
24.52500,566
24.53333,592
24.54167,619
24.55000,648
24.55833,680
24.56667,714
24.57500,751
24.58333,789
24.59167,829
24.60000,872
24.60833,918
24.61667,965
24.62500,1015
24.63333,1067
24.64167,1121
24.65000,1177
24.65833,1235
24.66667,1295
24.67500,1357
24.68333,1421
24.69167,1486
24.70000,1552
24.70833,1620
24.71667,1689
24.72500,1758
24.73333,1829
24.74167,1899
24.75000,1971
24.75833,2042
24.76667,2113
24.77500,2184
24.78333,2254
24.79167,2325
24.80000,2394
24.80833,2462
24.81667,2530
24.82500,2596
24.83333,2661
24.84167,2725
24.85000,2787
24.85833,2847
24.86667,2906
24.87500,2963
24.88333,3018
24.89167,3071
24.90000,3122
24.90833,3172
24.91667,3219
24.92500,3264
24.93333,3306
24.94167,3347
24.95000,3386
24.95833,3422
24.96667,3456
24.97500,3487
24.98333,3517
24.99167,3544
25.00000,3569
25.00833,3592
25.01667,3613
25.02500,3631
25.03333,3647
25.04167,3660
25.05000,3670
25.05833,3678
25.06667,3684
25.07500,3686
25.08333,3686
25.09167,3683
25.10000,3678
25.10833,3670
25.11667,3659
25.12500,3646
25.13333,3630
25.14167,3611
25.15000,3589
25.15833,3564
25.16667,3536
25.17500,3505
25.18333,3472
25.19167,3436
25.20000,3396
25.20833,3354
25.21667,3310
25.22500,3263
25.23333,3214
25.24167,3162
25.25000,3107
25.25833,3051
25.26667,2993
25.27500,2934
25.28333,2873
25.29167,2811
25.30000,2747
25.30833,2682
25.31667,2616
25.32500,2549
25.33333,2481
25.34167,2413
25.35000,2345
25.35833,2277
25.36667,2209
25.37500,2141
25.38333,2073
25.39167,2006
25.40000,1940
25.40833,1874
25.41667,1810
25.42500,1746
25.43333,1683
25.44167,1621
25.45000,1561
25.45833,1503
25.46667,1446
25.47500,1391
25.48333,1337
25.49167,1285
25.50000,1236
25.50833,1187
25.51667,1141
25.52500,1096
25.53333,1053
25.54167,1011
25.55000,972
25.55833,934
25.56667,898
25.57500,864
25.58333,831
25.59167,800
25.60000,771
25.60833,742
25.61667,715
25.62500,690
25.63333,667
25.64167,644
25.65000,623
25.65833,603
25.66667,584
25.67500,565
25.68333,549
25.69167,533
25.70000,518
25.70833,504
25.71667,491
25.72500,478
25.73333,467
25.74167,455
25.75000,444
25.75833,434
25.76667,424
25.77500,415
25.78333,406
25.79167,398
25.80000,390
25.80833,383
25.81667,375
25.82500,369
25.83333,362
25.84167,356
25.85000,350
25.85833,344
25.86667,339
25.87500,333
25.88333,328
25.89167,322
25.90000,317
25.90833,312
25.91667,307
25.92500,302
25.93333,297
25.94167,292
25.95000,288
25.95833,283
25.96667,278
25.97500,274
25.98333,269
25.99167,264
26.00000,260
26.00833,255
26.01667,251
26.02500,246
26.03333,242
26.04167,238
26.05000,233
26.05833,229
26.06667,224
26.07500,220
26.08333,216
26.09167,213
26.10000,209
26.10833,205
26.11667,201
26.12500,198
26.13333,194
26.14167,190
26.15000,186
26.15833,183
26.16667,180
26.17500,177
26.18333,173
26.19167,169
26.20000,166
26.20833,164
26.21667,161
26.22500,158
26.23333,155
26.24167,152
26.25000,150
26.25833,147
26.26667,144
26.27500,142
26.28333,140
26.29167,138
26.30000,137
26.30833,135
26.31667,134
26.32500,132
26.33333,131
26.34167,129
26.35000,127
26.35833,126
26.36667,124
26.37500,123
26.38333,122
26.39167,121
26.40000,121
26.40833,120
26.41667,119
26.42500,118
26.43333,117
26.44167,116
26.45000,115
26.45833,115
26.46667,114
26.47500,114
26.48333,113
26.49167,113
26.50000,113
26.50833,113
26.51667,113
26.52500,113
26.53333,112
26.54167,112
26.55000,112
26.55833,112
26.56667,112
26.57500,112
26.58333,112
26.59167,112
26.60000,112
26.60833,112
26.61667,112
26.62500,112
26.63333,112
26.64167,112
26.65000,112
26.65833,112
26.66667,112
26.67500,112
26.68333,112
26.69167,112
26.70000,113
26.70833,113
26.71667,113
26.72500,112
26.73333,112
26.74167,112
26.75000,112
26.75833,112
26.76667,112
26.77500,112
26.78333,112
26.79167,112
26.80000,112
26.80833,113
26.81667,113
26.82500,114
26.83333,114
26.84167,114
26.85000,114
26.85833,114
26.86667,115
26.87500,115
26.88333,115
26.89167,115
26.90000,115
26.90833,115
26.91667,115
26.92500,115
26.93333,115
26.94167,115
26.95000,115
26.95833,115
26.96667,116
26.97500,116
26.98333,116
26.99167,116
27.00000,116
27.00833,117
27.01667,117
27.02500,117
27.03333,117
27.04167,117
27.05000,117
27.05833,117
27.06667,117
27.07500,117
27.08333,117
27.09167,117
27.10000,118
27.10833,118
27.11667,117
27.12500,117
27.13333,118
27.14167,118
27.15000,118
27.15833,119
27.16667,119
27.17500,120
27.18333,120
27.19167,120
27.20000,119
27.20833,119
27.21667,119
27.22500,119
27.23333,119
27.24167,119
27.25000,119
27.25833,119
27.26667,119
27.27500,120
27.28333,120
27.29167,120
27.30000,120
27.30833,119
27.31667,119
27.32500,119
27.33333,119
27.34167,119
27.35000,119
27.35833,118
27.36667,118
27.37500,118
27.38333,118
27.39167,118
27.40000,118
27.40833,118
27.41667,118
27.42500,118
27.43333,117
27.44167,117
27.45000,117
27.45833,116
27.46667,116
27.47500,116
27.48333,115
27.49167,115
27.50000,114
27.50833,114
27.51667,113
27.52500,112
27.53333,112
27.54167,111
27.55000,111
27.55833,110
27.56667,110
27.57500,109
27.58333,108
27.59167,107
27.60000,107
27.60833,107
27.61667,106
27.62500,106
27.63333,105
27.64167,104
27.65000,104
27.65833,103
27.66667,102
27.67500,101
27.68333,100
27.69167,99
27.70000,99
27.70833,98
27.71667,97
27.72500,96
27.73333,96
27.74167,95
27.75000,94
27.75833,94
27.76667,93
27.77500,92
27.78333,91
27.79167,90
27.80000,89
27.80833,89
27.81667,88
27.82500,87
27.83333,87
27.84167,86
27.85000,86
27.85833,85
27.86667,84
27.87500,84
27.88333,83
27.89167,83
27.90000,82
27.90833,82
27.91667,81
27.92500,80
27.93333,80
27.94167,79
27.95000,79
27.95833,79
27.96667,79
27.97500,79
27.98333,79
27.99167,79
28.00000,79
28.00833,78
28.01667,78
28.02500,78
28.03333,78
28.04167,78
28.05000,78
28.05833,78
28.06667,77
28.07500,77
28.08333,76
28.09167,76
28.10000,77
28.10833,77
28.11667,77
28.12500,77
28.13333,77
28.14167,78
28.15000,78
28.15833,78
28.16667,78
28.17500,78
28.18333,78
28.19167,78
28.20000,79
28.20833,79
28.21667,79
28.22500,79
28.23333,80
28.24167,80
28.25000,80
28.25833,81
28.26667,81
28.27500,82
28.28333,83
28.29167,83
28.30000,84
28.30833,85
28.31667,86
28.32500,87
28.33333,88
28.34167,89
28.35000,90
28.35833,91
28.36667,93
28.37500,95
28.38333,97
28.39167,99
28.40000,102
28.40833,104
28.41667,108
28.42500,112
28.43333,116
28.44167,121
28.45000,126
28.45833,131
28.46667,137
28.47500,144
28.48333,151
28.49167,159
28.50000,167
28.50833,176
28.51667,186
28.52500,198
28.53333,210
28.54167,223
28.55000,237
28.55833,252
28.56667,269
28.57500,286
28.58333,304
28.59167,324
28.60000,345
28.60833,368
28.61667,392
28.62500,417
28.63333,443
28.64167,471
28.65000,500
28.65833,531
28.66667,563
28.67500,597
28.68333,632
28.69167,669
28.70000,707
28.70833,747
28.71667,789
28.72500,831
28.73333,875
28.74167,919
28.75000,965
28.75833,1012
28.76667,1060
28.77500,1108
28.78333,1158
28.79167,1209
28.80000,1261
28.80833,1313
28.81667,1365
28.82500,1418
28.83333,1471
28.84167,1525
28.85000,1578
28.85833,1632
28.86667,1686
28.87500,1739
28.88333,1792
28.89167,1845
28.90000,1897
28.90833,1948
28.91667,1999
28.92500,2048
28.93333,2097
28.94167,2145
28.95000,2191
28.95833,2236
28.96667,2280
28.97500,2323
28.98333,2364
28.99167,2403
29.00000,2441
29.00833,2478
29.01667,2513
29.02500,2546
29.03333,2578
29.04167,2609
29.05000,2638
29.05833,2665
29.06667,2690
29.07500,2714
29.08333,2736
29.09167,2757
29.10000,2776
29.10833,2793
29.11667,2809
29.12500,2823
29.13333,2836
29.14167,2847
29.15000,2857
29.15833,2865
29.16667,2872
29.17500,2878
29.18333,2882
29.19167,2884
29.20000,2885
29.20833,2885
29.21667,2883
29.22500,2880
29.23333,2875
29.24167,2869
29.25000,2862
29.25833,2853
29.26667,2843
29.27500,2831
29.28333,2818
29.29167,2804
29.30000,2788
29.30833,2770
29.31667,2751
29.32500,2731
29.33333,2709
29.34167,2687
29.35000,2662
29.35833,2637
29.36667,2609
29.37500,2580
29.38333,2550
29.39167,2518
29.40000,2485
29.40833,2451
29.41667,2415
29.42500,2379
29.43333,2341
29.44167,2301
29.45000,2261
29.45833,2220
29.46667,2177
29.47500,2134
29.48333,2090
29.49167,2045
29.50000,2000
29.50833,1954
29.51667,1907
29.52500,1860
29.53333,1813
29.54167,1765
29.55000,1718
29.55833,1670
29.56667,1622
29.57500,1574
29.58333,1527
29.59167,1479
29.60000,1432
29.60833,1385
29.61667,1339
29.62500,1293
29.63333,1248
29.64167,1203
29.65000,1159
29.65833,1116
29.66667,1074
29.67500,1032
29.68333,992
29.69167,952
29.70000,913
29.70833,875
29.71667,838
29.72500,802
29.73333,768
29.74167,734
29.75000,701
29.75833,670
29.76667,640
29.77500,611
29.78333,583
29.79167,556
29.80000,531
29.80833,506
29.81667,482
29.82500,460
29.83333,438
29.84167,418
29.85000,398
29.85833,380
29.86667,362
29.87500,345
29.88333,330
29.89167,314
29.90000,300
29.90833,287
29.91667,274
29.92500,262
29.93333,251
29.94167,240
29.95000,230
29.95833,221
29.96667,213
29.97500,205
29.98333,197
29.99167,191
30.00000,184
30.00833,177
30.01667,172
30.02500,166
30.03333,161
30.04167,156
30.05000,152
30.05833,148
30.06667,144
30.07500,141
30.08333,138
30.09167,134
30.10000,131
30.10833,128
30.11667,126
30.12500,123
30.13333,121
30.14167,119
30.15000,117
30.15833,116
30.16667,114
30.17500,114
30.18333,113
30.19167,111
30.20000,110
30.20833,110
30.21667,109
30.22500,108
30.23333,108
30.24167,107
30.25000,107
30.25833,107
30.26667,106
30.27500,106
30.28333,105
30.29167,105
30.30000,105
30.30833,104
30.31667,104
30.32500,104
30.33333,104
30.34167,104
30.35000,104
30.35833,104
30.36667,105
30.37500,105
30.38333,106
30.39167,106
30.40000,106
30.40833,107
30.41667,107
30.42500,108
30.43333,108
30.44167,109
30.45000,110
30.45833,111
30.46667,111
30.47500,111
30.48333,112
30.49167,113
30.50000,114
30.50833,114
30.51667,115
30.52500,116
30.53333,117
30.54167,119
30.55000,120
30.55833,121
30.56667,122
30.57500,123
30.58333,125
30.59167,126
30.60000,128
30.60833,129
30.61667,131
30.62500,132
30.63333,133
30.64167,134
30.65000,136
30.65833,137
30.66667,139
30.67500,140
30.68333,142
30.69167,143
30.70000,145
30.70833,147
30.71667,149
30.72500,151
30.73333,153
30.74167,154
30.75000,156
30.75833,158
30.76667,160
30.77500,161
30.78333,163
30.79167,165
30.80000,167
30.80833,169
30.81667,170
30.82500,172
30.83333,173
30.84167,175
30.85000,176
30.85833,178
30.86667,179
30.87500,180
30.88333,182
30.89167,183
30.90000,185
30.90833,186
30.91667,187
30.92500,188
30.93333,189
30.94167,190
30.95000,191
30.95833,192
30.96667,193
30.97500,194
30.98333,195
30.99167,196
31.00000,198
31.00833,199
31.01667,200
31.02500,200
31.03333,201
31.04167,201
31.05000,201
31.05833,202
31.06667,202
31.07500,202
31.08333,202
31.09167,203
31.10000,203
31.10833,203
31.11667,204
31.12500,204
31.13333,203
31.14167,203
31.15000,203
31.15833,203
31.16667,203
31.17500,204
31.18333,203
31.19167,202
31.20000,202
31.20833,201
31.21667,200
31.22500,200
31.23333,199
31.24167,198
31.25000,198
31.25833,197
31.26667,196
31.27500,196
31.28333,195
31.29167,194
31.30000,193
31.30833,192
31.31667,190
31.32500,189
31.33333,188
31.34167,187
31.35000,186
31.35833,185
31.36667,184
31.37500,182
31.38333,181
31.39167,180
31.40000,179
31.40833,177
31.41667,176
31.42500,175
31.43333,173
31.44167,171
31.45000,170
31.45833,168
31.46667,166
31.47500,165
31.48333,163
31.49167,161
31.50000,160
31.50833,159
31.51667,158
31.52500,157
31.53333,156
31.54167,155
31.55000,153
31.55833,152
31.56667,151
31.57500,150
31.58333,149
31.59167,147
31.60000,147
31.60833,146
31.61667,145
31.62500,144
31.63333,144
31.64167,144
31.65000,144
31.65833,144
31.66667,144
31.67500,144
31.68333,145
31.69167,145
31.70000,146
31.70833,147
31.71667,148
31.72500,148
31.73333,149
31.74167,150
31.75000,152
31.75833,154
31.76667,155
31.77500,158
31.78333,160
31.79167,163
31.80000,166
31.80833,169
31.81667,172
31.82500,175
31.83333,179
31.84167,183
31.85000,187
31.85833,191
31.86667,195
31.87500,200
31.88333,205
31.89167,210
31.90000,216
31.90833,221
31.91667,226
31.92500,232
31.93333,237
31.94167,243
31.95000,249
31.95833,255
31.96667,262
31.97500,269
31.98333,275
31.99167,282
32.00000,288
32.00833,295
32.01667,301
32.02500,308
32.03333,316
32.04167,322
32.05000,329
32.05833,336
32.06667,342
32.07500,348
32.08333,355
32.09167,361
32.10000,367
32.10833,373
32.11667,380
32.12500,386
32.13333,393
32.14167,399
32.15000,405
32.15833,411
32.16667,417
32.17500,422
32.18333,428
32.19167,433
32.20000,438
32.20833,444
32.21667,449
32.22500,454
32.23333,459
32.24167,464
32.25000,469
32.25833,474
32.26667,478
32.27500,482
32.28333,486
32.29167,490
32.30000,494
32.30833,498
32.31667,501
32.32500,505
32.33333,508
32.34167,511
32.35000,514
32.35833,517
32.36667,520
32.37500,522
32.38333,525
32.39167,527
32.40000,529
32.40833,531
32.41667,533
32.42500,535
32.43333,537
32.44167,538
32.45000,540
32.45833,541
32.46667,541
32.47500,542
32.48333,542
32.49167,543
32.50000,543
32.50833,543
32.51667,543
32.52500,542
32.53333,542
32.54167,541
32.55000,540
32.55833,540
32.56667,538
32.57500,537
32.58333,535
32.59167,534
32.60000,531
32.60833,529
32.61667,527
32.62500,525
32.63333,523
32.64167,520
32.65000,517
32.65833,514
32.66667,511
32.67500,508
32.68333,505
32.69167,502
32.70000,498
32.70833,495
32.71667,491
32.72500,487
32.73333,484
32.74167,481
32.75000,477
32.75833,473
32.76667,470
32.77500,466
32.78333,462
32.79167,459
32.80000,455
32.80833,452
32.81667,448
32.82500,445
32.83333,441
32.84167,438
32.85000,434
32.85833,431
32.86667,428
32.87500,425
32.88333,422
32.89167,419
32.90000,416
32.90833,414
32.91667,412
32.92500,410
32.93333,407
32.94167,405
32.95000,403
32.95833,401
32.96667,399
32.97500,397
32.98333,395
32.99167,393
33.00000,392
33.00833,391
33.01667,390
33.02500,388
33.03333,387
33.04167,386
33.05000,385
33.05833,384
33.06667,383
33.07500,382
33.08333,382
33.09167,381
33.10000,381
33.10833,380
33.11667,379
33.12500,379
33.13333,378
33.14167,377
33.15000,377
33.15833,376
33.16667,375
33.17500,374
33.18333,374
33.19167,373
33.20000,371
33.20833,370
33.21667,369
33.22500,368
33.23333,367
33.24167,366
33.25000,365
33.25833,364
33.26667,363
33.27500,362
33.28333,360
33.29167,358
33.30000,357
33.30833,355
33.31667,353
33.32500,352
33.33333,350
33.34167,348
33.35000,346
33.35833,344
33.36667,343
33.37500,341
33.38333,338
33.39167,336
33.40000,333
33.40833,331
33.41667,328
33.42500,325
33.43333,322
33.44167,319
33.45000,316
33.45833,314
33.46667,311
33.47500,308
33.48333,304
33.49167,301
33.50000,298
33.50833,295
33.51667,291
33.52500,288
33.53333,284
33.54167,281
33.55000,277
33.55833,274
33.56667,270
33.57500,267
33.58333,264
33.59167,260
33.60000,256
33.60833,253
33.61667,249
33.62500,245
33.63333,241
33.64167,237
33.65000,233
33.65833,229
33.66667,225
33.67500,222
33.68333,218
33.69167,214
33.70000,210
33.70833,206
33.71667,202
33.72500,198
33.73333,194
33.74167,190
33.75000,186
33.75833,182
33.76667,178
33.77500,174
33.78333,170
33.79167,166
33.80000,162
33.80833,158
33.81667,154
33.82500,151
33.83333,147
33.84167,143
33.85000,139
33.85833,136
33.86667,132
33.87500,129
33.88333,125
33.89167,122
33.90000,119
33.90833,116
33.91667,113
33.92500,109
33.93333,106
33.94167,103
33.95000,100
33.95833,97
33.96667,95
33.97500,92
33.98333,90
33.99167,87
34.00000,84
34.00833,81
34.01667,79
34.02500,76
34.03333,74
34.04167,72
34.05000,70
34.05833,68
34.06667,66
34.07500,65
34.08333,63
34.09167,61
34.10000,59
34.10833,58
34.11667,56
34.12500,55
34.13333,54
34.14167,52
34.15000,50
34.15833,48
34.16667,47
34.17500,46
34.18333,45
34.19167,44
34.20000,43
34.20833,42
34.21667,41
34.22500,40
34.23333,39
34.24167,38
34.25000,37
34.25833,36
34.26667,35
34.27500,34
34.28333,33
34.29167,32
34.30000,32
34.30833,31
34.31667,31
34.32500,30
34.33333,29
34.34167,29
34.35000,28
34.35833,27
34.36667,27
34.37500,26
34.38333,26
34.39167,26
34.40000,26
34.40833,26
34.41667,25
34.42500,25
34.43333,24
34.44167,24
34.45000,23
34.45833,23
34.46667,23
34.47500,22
34.48333,22
34.49167,21
34.50000,20
34.50833,20
34.51667,20
34.52500,19
34.53333,19
34.54167,19
34.55000,18
34.55833,18
34.56667,18
34.57500,17
34.58333,17
34.59167,17
34.60000,17
34.60833,16
34.61667,16
34.62500,16
34.63333,15
34.64167,15
34.65000,15
34.65833,14
34.66667,14
34.67500,13
34.68333,13
34.69167,12
34.70000,12
34.70833,12
34.71667,11
34.72500,11
34.73333,11
34.74167,11
34.75000,11
34.75833,11
34.76667,11
34.77500,10
34.78333,10
34.79167,9
34.80000,9
34.80833,8
34.81667,8
34.82500,7
34.83333,7
34.84167,7
34.85000,6
34.85833,6
34.86667,6
34.87500,6
34.88333,6
34.89167,6
34.90000,6
34.90833,6
34.91667,6
34.92500,6
34.93333,6
34.94167,5
34.95000,5
34.95833,5
34.96667,5
34.97500,5
34.98333,4
34.99167,4
35.00000,4
35.00833,4
35.01667,4
35.02500,4
35.03333,4
35.04167,4
35.05000,5
35.05833,5
35.06667,5
35.07500,5
35.08333,5
35.09167,5
35.10000,5
35.10833,5
35.11667,5
35.12500,6
35.13333,6
35.14167,5
35.15000,5
35.15833,5
35.16667,5
35.17500,6
35.18333,6
35.19167,5
35.20000,5
35.20833,5
35.21667,6
35.22500,6
35.23333,7
35.24167,7
35.25000,8
35.25833,8
35.26667,9
35.27500,9
35.28333,10
35.29167,10
35.30000,11
35.30833,11
35.31667,12
35.32500,12
35.33333,12
35.34167,13
35.35000,13
35.35833,13
35.36667,14
35.37500,14
35.38333,15
35.39167,15
35.40000,15
35.40833,16
35.41667,16
35.42500,16
35.43333,17
35.44167,17
35.45000,18
35.45833,19
35.46667,20
35.47500,20
35.48333,21
35.49167,21
35.50000,21
35.50833,22
35.51667,22
35.52500,22
35.53333,23
35.54167,23
35.55000,23
35.55833,24
35.56667,24
35.57500,25
35.58333,26
35.59167,26
35.60000,26
35.60833,26
35.61667,27
35.62500,27
35.63333,27
35.64167,28
35.65000,28
35.65833,28
35.66667,29
35.67500,29
35.68333,30
35.69167,30
35.70000,30
35.70833,30
35.71667,30
35.72500,31
35.73333,31
35.74167,31
35.75000,32
35.75833,32
35.76667,33
35.77500,33
35.78333,34
35.79167,34
35.80000,34
35.80833,34
35.81667,34
35.82500,34
35.83333,34
35.84167,35
35.85000,35
35.85833,35
35.86667,35
35.87500,35
35.88333,35
35.89167,35
35.90000,35
35.90833,35
35.91667,35
35.92500,36
35.93333,36
35.94167,37
35.95000,37
35.95833,37
35.96667,37
35.97500,37
35.98333,37
35.99167,37
36.00000,37
36.00833,38
36.01667,38
36.02500,38
36.03333,38
36.04167,38
36.05000,38
36.05833,38
36.06667,38
36.07500,38
36.08333,38
36.09167,38
36.10000,38
36.10833,38
36.11667,38
36.12500,39
36.13333,38
36.14167,38
36.15000,38
36.15833,38
36.16667,38
36.17500,38
36.18333,39
36.19167,39
36.20000,39
36.20833,39
36.21667,39
36.22500,39
36.23333,39
36.24167,39
36.25000,39
36.25833,40
36.26667,40
36.27500,40
36.28333,39
36.29167,39
36.30000,39
36.30833,39
36.31667,39
36.32500,39
36.33333,39
36.34167,39
36.35000,39
36.35833,39
36.36667,39
36.37500,39
36.38333,38
36.39167,38
36.40000,38
36.40833,38
36.41667,38
36.42500,39
36.43333,39
36.44167,39
36.45000,39
36.45833,39
36.46667,39
36.47500,39
36.48333,38
36.49167,38
36.50000,38
36.50833,38
36.51667,39
36.52500,39
36.53333,39
36.54167,39
36.55000,39
36.55833,39
36.56667,39
36.57500,39
36.58333,39
36.59167,40
36.60000,40
36.60833,40
36.61667,40
36.62500,40
36.63333,40
36.64167,40
36.65000,40
36.65833,40
36.66667,40
36.67500,41
36.68333,41
36.69167,42
36.70000,42
36.70833,42
36.71667,42
36.72500,43
36.73333,43
36.74167,44
36.75000,44
36.75833,45
36.76667,45
36.77500,46
36.78333,46
36.79167,46
36.80000,47
36.80833,47
36.81667,47
36.82500,48
36.83333,48
36.84167,49
36.85000,49
36.85833,50
36.86667,50
36.87500,51
36.88333,52
36.89167,52
36.90000,53
36.90833,53
36.91667,54
36.92500,54
36.93333,55
36.94167,56
36.95000,57
36.95833,57
36.96667,57
36.97500,58
36.98333,59
36.99167,59
37.00000,60
37.00833,60
37.01667,60
37.02500,61
37.03333,61
37.04167,62
37.05000,63
37.05833,64
37.06667,65
37.07500,66
37.08333,67
37.09167,68
37.10000,69
37.10833,70
37.11667,70
37.12500,71
37.13333,72
37.14167,73
37.15000,73
37.15833,74
37.16667,75
37.17500,76
37.18333,76
37.19167,77
37.20000,78
37.20833,78
37.21667,79
37.22500,80
37.23333,81
37.24167,83
37.25000,83
37.25833,84
37.26667,85
37.27500,86
37.28333,87
37.29167,88
37.30000,89
37.30833,90
37.31667,90
37.32500,91
37.33333,92
37.34167,93
37.35000,94
37.35833,95
37.36667,96
37.37500,98
37.38333,99
37.39167,99
37.40000,100
37.40833,101
37.41667,102
37.42500,103
37.43333,104
37.44167,105
37.45000,106
37.45833,107
37.46667,108
37.47500,109
37.48333,110
37.49167,111
37.50000,112
37.50833,113
37.51667,114
37.52500,115
37.53333,116
37.54167,117
37.55000,118
37.55833,119
37.56667,119
37.57500,120
37.58333,121
37.59167,123
37.60000,123
37.60833,124
37.61667,125
37.62500,125
37.63333,126
37.64167,126
37.65000,127
37.65833,127
37.66667,128
37.67500,128
37.68333,129
37.69167,129
37.70000,129
37.70833,129
37.71667,129
37.72500,130
37.73333,130
37.74167,130
37.75000,131
37.75833,131
37.76667,132
37.77500,132
37.78333,132
37.79167,132
37.80000,132
37.80833,132
37.81667,132
37.82500,132
37.83333,133
37.84167,133
37.85000,133
37.85833,132
37.86667,132
37.87500,132
37.88333,131
37.89167,131
37.90000,131
37.90833,131
37.91667,130
37.92500,130
37.93333,129
37.94167,128
37.95000,128
37.95833,127
37.96667,127
37.97500,127
37.98333,126
37.99167,125
38.00000,125
38.00833,124
38.01667,123
38.02500,123
38.03333,122
38.04167,121
38.05000,121
38.05833,120
38.06667,120
38.07500,119
38.08333,119
38.09167,118
38.10000,117
38.10833,116
38.11667,115
38.12500,114
38.13333,113
38.14167,112
38.15000,111
38.15833,110
38.16667,109
38.17500,108
38.18333,106
38.19167,106
38.20000,105
38.20833,104
38.21667,102
38.22500,101
38.23333,100
38.24167,99
38.25000,97
38.25833,96
38.26667,95
38.27500,93
38.28333,92
38.29167,91
38.30000,90
38.30833,89
38.31667,87
38.32500,86
38.33333,84
38.34167,83
38.35000,82
38.35833,81
38.36667,80
38.37500,79
38.38333,77
38.39167,75
38.40000,73
38.40833,72
38.41667,70
38.42500,69
38.43333,68
38.44167,67
38.45000,66
38.45833,65
38.46667,63
38.47500,62
38.48333,60
38.49167,58
38.50000,57
38.50833,56
38.51667,55
38.52500,53
38.53333,52
38.54167,51
38.55000,50
38.55833,49
38.56667,47
38.57500,46
38.58333,44
38.59167,43
38.60000,42
38.60833,41
38.61667,39
38.62500,38
38.63333,37
38.64167,36
38.65000,36
38.65833,35
38.66667,34
38.67500,32
38.68333,31
38.69167,29
38.70000,28
38.70833,27
38.71667,26
38.72500,25
38.73333,24
38.74167,23
38.75000,22
38.75833,21
38.76667,19
38.77500,19
38.78333,18
38.79167,17
38.80000,16
38.80833,15
38.81667,14
38.82500,13
38.83333,12
38.84167,11
38.85000,11
38.85833,10
38.86667,10
38.87500,9
38.88333,9
38.89167,8
38.90000,8
38.90833,7
38.91667,7
38.92500,7
38.93333,6
38.94167,5
38.95000,5
38.95833,4
38.96667,3
38.97500,2
38.98333,2
38.99167,1
39.00000,1
39.00833,1
39.01667,0
39.02500,0
39.03333,-0
39.04167,-0
39.05000,-1
39.05833,-1
39.06667,-1
39.07500,-1
39.08333,-2
39.09167,-3
39.10000,-3
39.10833,-4
39.11667,-4
39.12500,-3
39.13333,-3
39.14167,-4
39.15000,-4
39.15833,-4
39.16667,-4
39.17500,-5
39.18333,-5
39.19167,-5
39.20000,-5
39.20833,-5
39.21667,-5
39.22500,-5
39.23333,-5
39.24167,-6
39.25000,-6
39.25833,-6
39.26667,-6
39.27500,-6
39.28333,-6
39.29167,-6
39.30000,-6
39.30833,-6
39.31667,-6
39.32500,-7
39.33333,-7
39.34167,-7
39.35000,-7
39.35833,-7
39.36667,-7
39.37500,-7
39.38333,-7
39.39167,-7
39.40000,-7
39.40833,-7
39.41667,-7
39.42500,-7
39.43333,-8
39.44167,-8
39.45000,-8
39.45833,-7
39.46667,-7
39.47500,-7
39.48333,-7
39.49167,-7
39.50000,-7
39.50833,-6
39.51667,-6
39.52500,-6
39.53333,-6
39.54167,-7
39.55000,-7
39.55833,-7
39.56667,-7
39.57500,-7
39.58333,-7
39.59167,-7
39.60000,-7
39.60833,-7
39.61667,-7
39.62500,-7
39.63333,-8
39.64167,-8
39.65000,-8
39.65833,-8
39.66667,-8
39.67500,-8
39.68333,-8
39.69167,-8
39.70000,-8
39.70833,-8
39.71667,-8
39.72500,-8
39.73333,-8
39.74167,-8
39.75000,-8
39.75833,-8
39.76667,-8
39.77500,-8
39.78333,-8
39.79167,-8
39.80000,-8
39.80833,-8
39.81667,-8
39.82500,-8
39.83333,-8
39.84167,-8
39.85000,-9
39.85833,-9
39.86667,-9
39.87500,-9
39.88333,-9
39.89167,-9
39.90000,-10
39.90833,-9
39.91667,-9
39.92500,-10
39.93333,-9
39.94167,-9
39.95000,-9
39.95833,-9
39.96667,-9
39.97500,-9
39.98333,-9
39.99167,-9
40.00000,-9
40.00833,-8
40.01667,-8
40.02500,-9
40.03333,-9
40.04167,-9
40.05000,-9
40.05833,-8
40.06667,-8
40.07500,-8
40.08333,-8
40.09167,-8
40.10000,-8
40.10833,-8
40.11667,-9
40.12500,-9
40.13333,-9
40.14167,-8
40.15000,-8
40.15833,-9
40.16667,-9
40.17500,-9
40.18333,-8
40.19167,-8
40.20000,-8
40.20833,-9
40.21667,-9
40.22500,-8
40.23333,-8
40.24167,-8
40.25000,-8
40.25833,-8
40.26667,-8
40.27500,-8
40.28333,-8
40.29167,-8
40.30000,-8
40.30833,-8
40.31667,-7
40.32500,-7
40.33333,-7
40.34167,-6
40.35000,-6
40.35833,-6
40.36667,-6
40.37500,-5
40.38333,-5
40.39167,-5
40.40000,-5
40.40833,-4
40.41667,-4
40.42500,-4
40.43333,-4
40.44167,-4
40.45000,-3
40.45833,-3
40.46667,-3
40.47500,-2
40.48333,-2
40.49167,-2
40.50000,-1
40.50833,-1
40.51667,-1
40.52500,-0
40.53333,0
40.54167,1
40.55000,1
40.55833,2
40.56667,2
40.57500,2
40.58333,3
40.59167,3
40.60000,4
40.60833,4
40.61667,5
40.62500,5
40.63333,6
40.64167,7
40.65000,8
40.65833,8
40.66667,9
40.67500,9
40.68333,10
40.69167,11
40.70000,11
40.70833,12
40.71667,13
40.72500,14
40.73333,14
40.74167,15
40.75000,16
40.75833,17
40.76667,18
40.77500,19
40.78333,20
40.79167,21
40.80000,22
40.80833,23
40.81667,24
40.82500,25
40.83333,26
40.84167,28
40.85000,29
40.85833,30
40.86667,31
40.87500,32
40.88333,33
40.89167,34
40.90000,36
40.90833,37
40.91667,38
40.92500,39
40.93333,40
40.94167,42
40.95000,43
40.95833,44
40.96667,45
40.97500,46
40.98333,48
40.99167,49
41.00000,50
41.00833,51
41.01667,53
41.02500,54
41.03333,55
41.04167,56
41.05000,57
41.05833,58
41.06667,60
41.07500,61
41.08333,63
41.09167,64
41.10000,66
41.10833,67
41.11667,68
41.12500,70
41.13333,72
41.14167,73
41.15000,74
41.15833,75
41.16667,76
41.17500,78
41.18333,79
41.19167,81
41.20000,82
41.20833,83
41.21667,84
41.22500,85
41.23333,87
41.24167,88
41.25000,90
41.25833,91
41.26667,93
41.27500,94
41.28333,95
41.29167,96
41.30000,98
41.30833,99
41.31667,101
41.32500,103
41.33333,104
41.34167,105
41.35000,107
41.35833,108
41.36667,110
41.37500,111
41.38333,112
41.39167,113
41.40000,115
41.40833,116
41.41667,118
41.42500,119
41.43333,120
41.44167,122
41.45000,122
41.45833,123
41.46667,124
41.47500,125
41.48333,127
41.49167,128
41.50000,129
41.50833,130
41.51667,132
41.52500,133
41.53333,134
41.54167,136
41.55000,137
41.55833,138
41.56667,139
41.57500,141
41.58333,142
41.59167,144
41.60000,145
41.60833,146
41.61667,148
41.62500,149
41.63333,150
41.64167,151
41.65000,151
41.65833,152
41.66667,153
41.67500,154
41.68333,156
41.69167,157
41.70000,158
41.70833,159
41.71667,160
41.72500,160
41.73333,161
41.74167,162
41.75000,163
41.75833,163
41.76667,164
41.77500,165
41.78333,166
41.79167,167
41.80000,167
41.80833,168
41.81667,168
41.82500,169
41.83333,169
41.84167,170
41.85000,170
41.85833,171
41.86667,171
41.87500,172
41.88333,173
41.89167,173
41.90000,174
41.90833,174
41.91667,174
41.92500,175
41.93333,175
41.94167,175
41.95000,176
41.95833,176
41.96667,176
41.97500,176
41.98333,176
41.99167,176
42.00000,177
42.00833,177
42.01667,177
42.02500,177
42.03333,177
42.04167,177
42.05000,177
42.05833,177
42.06667,177
42.07500,177
42.08333,177
42.09167,177
42.10000,177
42.10833,177
42.11667,177
42.12500,177
42.13333,177
42.14167,177
42.15000,177
42.15833,177
42.16667,177
42.17500,177
42.18333,177
42.19167,177
42.20000,176
42.20833,176
42.21667,176
42.22500,176
42.23333,176
42.24167,176
42.25000,176
42.25833,176
42.26667,175
42.27500,175
42.28333,175
42.29167,174
42.30000,174
42.30833,174
42.31667,174
42.32500,173
42.33333,173
42.34167,172
42.35000,171
42.35833,171
42.36667,171
42.37500,170
42.38333,169
42.39167,169
42.40000,168
42.40833,168
42.41667,167
42.42500,167
42.43333,167
42.44167,166
42.45000,166
42.45833,166
42.46667,165
42.47500,164
42.48333,164
42.49167,163
42.50000,163
42.50833,162
42.51667,161
42.52500,161
42.53333,160
42.54167,160
42.55000,159
42.55833,159
42.56667,158
42.57500,157
42.58333,156
42.59167,155
42.60000,155
42.60833,155
42.61667,154
42.62500,153
42.63333,152
42.64167,152
42.65000,151
42.65833,151
42.66667,150
42.67500,149
42.68333,148
42.69167,148
42.70000,147
42.70833,146
42.71667,145
42.72500,145
42.73333,144
42.74167,142
42.75000,142
42.75833,141
42.76667,140
42.77500,139
42.78333,139
42.79167,138
42.80000,137
42.80833,137
42.81667,136
42.82500,135
42.83333,134
42.84167,133
42.85000,132
42.85833,131
42.86667,130
42.87500,129
42.88333,128
42.89167,127
42.90000,126
42.90833,126
42.91667,125
42.92500,125
42.93333,124
42.94167,123
42.95000,122
42.95833,121
42.96667,120
42.97500,120
42.98333,119
42.99167,119
43.00000,118
43.00833,117
43.01667,116
43.02500,115
43.03333,114
43.04167,113
43.05000,112
43.05833,111
43.06667,110
43.07500,109
43.08333,108
43.09167,107
43.10000,107
43.10833,106
43.11667,106
43.12500,105
43.13333,104
43.14167,104
43.15000,103
43.15833,102
43.16667,101
43.17500,100
43.18333,99
43.19167,98
43.20000,97
43.20833,96
43.21667,95
43.22500,94
43.23333,94
43.24167,93
43.25000,92
43.25833,92
43.26667,91
43.27500,90
43.28333,89
43.29167,88
43.30000,88
43.30833,87
43.31667,86
43.32500,85
43.33333,85
43.34167,84
43.35000,83
43.35833,83
43.36667,82
43.37500,81
43.38333,80
43.39167,79
43.40000,79
43.40833,78
43.41667,77
43.42500,76
43.43333,76
43.44167,75
43.45000,74
43.45833,74
43.46667,73
43.47500,72
43.48333,71
43.49167,71
43.50000,70
43.50833,69
43.51667,69
43.52500,68
43.53333,67
43.54167,66
43.55000,66
43.55833,65
43.56667,64
43.57500,63
43.58333,62
43.59167,62
43.60000,61
43.60833,61
43.61667,60
43.62500,59
43.63333,58
43.64167,58
43.65000,57
43.65833,56
43.66667,55
43.67500,54
43.68333,54
43.69167,53
43.70000,52
43.70833,52
43.71667,51
43.72500,50
43.73333,50
43.74167,49
43.75000,48
43.75833,48
43.76667,47
43.77500,47
43.78333,46
43.79167,46
43.80000,45
43.80833,44
43.81667,44
43.82500,43
43.83333,42
43.84167,42
43.85000,42
43.85833,41
43.86667,40
43.87500,39
43.88333,38
43.89167,38
43.90000,37
43.90833,36
43.91667,36
43.92500,35
43.93333,35
43.94167,34
43.95000,34
43.95833,33
43.96667,33
43.97500,32
43.98333,30
43.99167,30
44.00000,29
44.00833,29
44.01667,28
44.02500,28
44.03333,28
44.04167,27
44.05000,27
44.05833,26
44.06667,25
44.07500,24
44.08333,24
44.09167,23
44.10000,22
44.10833,22
44.11667,22
44.12500,21
44.13333,21
44.14167,21
44.15000,20
44.15833,20
44.16667,19
44.17500,19
44.18333,18
44.19167,18
44.20000,17
44.20833,17
44.21667,16
44.22500,16
44.23333,15
44.24167,15
44.25000,14
44.25833,14
44.26667,13
44.27500,12
44.28333,12
44.29167,12
44.30000,11
44.30833,11
44.31667,10
44.32500,10
44.33333,9
44.34167,9
44.35000,8
44.35833,7
44.36667,7
44.37500,7
44.38333,7
44.39167,6
44.40000,6
44.40833,5
44.41667,5
44.42500,5
44.43333,5
44.44167,5
44.45000,4
44.45833,3
44.46667,3
44.47500,3
44.48333,2
44.49167,2
44.50000,2
44.50833,2
44.51667,1
44.52500,1
44.53333,0
44.54167,-0
44.55000,-0
44.55833,-0
44.56667,-0
44.57500,-0
44.58333,-1
44.59167,-1
44.60000,-1
44.60833,-2
44.61667,-2
44.62500,-2
44.63333,-2
44.64167,-2
44.65000,-3
44.65833,-3
44.66667,-3
44.67500,-3
44.68333,-4
44.69167,-4
44.70000,-4
44.70833,-4
44.71667,-5
44.72500,-5
44.73333,-6
44.74167,-6
44.75000,-6
44.75833,-7
44.76667,-7
44.77500,-7
44.78333,-7
44.79167,-7
44.80000,-7
44.80833,-8
44.81667,-8
44.82500,-8
44.83333,-8
44.84167,-9
44.85000,-9
44.85833,-9
44.86667,-10
44.87500,-10
44.88333,-9
44.89167,-9
44.90000,-9
44.90833,-9
44.91667,-9
44.92500,-10
44.93333,-10
44.94167,-11
44.95000,-11
44.95833,-11
44.96667,-11
44.97500,-11
44.98333,-11
44.99167,-12
45.00000,-12
45.00833,-11
45.01667,-12
45.02500,-12
45.03333,-12
45.04167,-12
45.05000,-12
45.05833,-12
45.06667,-12
45.07500,-12
45.08333,-13
45.09167,-13
45.10000,-13
45.10833,-13
45.11667,-13
45.12500,-13
45.13333,-12
45.14167,-12
45.15000,-13
45.15833,-13
45.16667,-13
45.17500,-14
45.18333,-13
45.19167,-13
45.20000,-13
45.20833,-13
45.21667,-13
45.22500,-13
45.23333,-13
45.24167,-13
45.25000,-14
45.25833,-14
45.26667,-14
45.27500,-15
45.28333,-15
45.29167,-15
45.30000,-15
45.30833,-14
45.31667,-15
45.32500,-15
45.33333,-15
45.34167,-14
45.35000,-14
45.35833,-14
45.36667,-14
45.37500,-14
45.38333,-14
45.39167,-14
45.40000,-14
45.40833,-14
45.41667,-14
45.42500,-14
45.43333,-14
45.44167,-14
45.45000,-14
45.45833,-14
45.46667,-14
45.47500,-15
45.48333,-15
45.49167,-15
45.50000,-15
45.50833,-15
45.51667,-15
45.52500,-15
45.53333,-15
45.54167,-15
45.55000,-15
45.55833,-15
45.56667,-16
45.57500,-16
45.58333,-16
45.59167,-16
45.60000,-16
45.60833,-16
45.61667,-16
45.62500,-16
45.63333,-16
45.64167,-16
45.65000,-16
45.65833,-16
45.66667,-16
45.67500,-16
45.68333,-16
45.69167,-16
45.70000,-16
45.70833,-16
45.71667,-16
45.72500,-16
45.73333,-16
45.74167,-16
45.75000,-16
45.75833,-17
45.76667,-17
45.77500,-17
45.78333,-16
45.79167,-16
45.80000,-16
45.80833,-16
45.81667,-16
45.82500,-17
45.83333,-17
45.84167,-17
45.85000,-17
45.85833,-17
45.86667,-18
45.87500,-17
45.88333,-17
45.89167,-17
45.90000,-18
45.90833,-17
45.91667,-18
45.92500,-18
45.93333,-19
45.94167,-19
45.95000,-19
45.95833,-19
45.96667,-19
45.97500,-19
45.98333,-19
45.99167,-19
46.00000,-19
46.00833,-20
46.01667,-20
46.02500,-20
46.03333,-20
46.04167,-20
46.05000,-20
46.05833,-21
46.06667,-21
46.07500,-21
46.08333,-22
46.09167,-22
46.10000,-22
46.10833,-22
46.11667,-22
46.12500,-22
46.13333,-22
46.14167,-22
46.15000,-22
46.15833,-22
46.16667,-23
46.17500,-23
46.18333,-24
46.19167,-24
46.20000,-24
46.20833,-24
46.21667,-24
46.22500,-25
46.23333,-25
46.24167,-25
46.25000,-26
46.25833,-26
46.26667,-26
46.27500,-26
46.28333,-26
46.29167,-26
46.30000,-27
46.30833,-27
46.31667,-28
46.32500,-28
46.33333,-28
46.34167,-28
46.35000,-29
46.35833,-29
46.36667,-29
46.37500,-29
46.38333,-29
46.39167,-29
46.40000,-30
46.40833,-30
46.41667,-30
46.42500,-30
46.43333,-30
46.44167,-31
46.45000,-31
46.45833,-32
46.46667,-32
46.47500,-32
46.48333,-32
46.49167,-32
46.50000,-32
46.50833,-33
46.51667,-33
46.52500,-33
46.53333,-34
46.54167,-34
46.55000,-34
46.55833,-34
46.56667,-34
46.57500,-34
46.58333,-34
46.59167,-35
46.60000,-35
46.60833,-35
46.61667,-36
46.62500,-36
46.63333,-36
46.64167,-36
46.65000,-37
46.65833,-37
46.66667,-37
46.67500,-37
46.68333,-38
46.69167,-38
46.70000,-38
46.70833,-38
46.71667,-39
46.72500,-39
46.73333,-39
46.74167,-39
46.75000,-39
46.75833,-39
46.76667,-39
46.77500,-39
46.78333,-39
46.79167,-40
46.80000,-40
46.80833,-40
46.81667,-40
46.82500,-40
46.83333,-40
46.84167,-41
46.85000,-42
46.85833,-42
46.86667,-42
46.87500,-42
46.88333,-41
46.89167,-42
46.90000,-42
46.90833,-42
46.91667,-42
46.92500,-42
46.93333,-42
46.94167,-42
46.95000,-42
46.95833,-42
46.96667,-42
46.97500,-42
46.98333,-42
46.99167,-43
47.00000,-43
47.00833,-43
47.01667,-43
47.02500,-42
47.03333,-42
47.04167,-42
47.05000,-42
47.05833,-41
47.06667,-41
47.07500,-41
47.08333,-41
47.09167,-41
47.10000,-40
47.10833,-41
47.11667,-41
47.12500,-41
47.13333,-40
47.14167,-40
47.15000,-40
47.15833,-40
47.16667,-40
47.17500,-40
47.18333,-40
47.19167,-40
47.20000,-40
47.20833,-40
47.21667,-40
47.22500,-39
47.23333,-39
47.24167,-38
47.25000,-38
47.25833,-37
47.26667,-37
47.27500,-36
47.28333,-35
47.29167,-35
47.30000,-35
47.30833,-34
47.31667,-34
47.32500,-34
47.33333,-34
47.34167,-33
47.35000,-32
47.35833,-32
47.36667,-31
47.37500,-31
47.38333,-31
47.39167,-30
47.40000,-30
47.40833,-29
47.41667,-29
47.42500,-28
47.43333,-27
47.44167,-27
47.45000,-26
47.45833,-26
47.46667,-25
47.47500,-24
47.48333,-23
47.49167,-23
47.50000,-22
47.50833,-21
47.51667,-20
47.52500,-19
47.53333,-18
47.54167,-17
47.55000,-16
47.55833,-15
47.56667,-15
47.57500,-14
47.58333,-13
47.59167,-13
47.60000,-12
47.60833,-11
47.61667,-10
47.62500,-9
47.63333,-8
47.64167,-8
47.65000,-7
47.65833,-6
47.66667,-5
47.67500,-5
47.68333,-4
47.69167,-3
47.70000,-3
47.70833,-2
47.71667,-1
47.72500,-0
47.73333,1
47.74167,2
47.75000,3
47.75833,4
47.76667,4
47.77500,5
47.78333,6
47.79167,7
47.80000,7
47.80833,8
47.81667,8
47.82500,9
47.83333,10
47.84167,11
47.85000,11
47.85833,12
47.86667,13
47.87500,13
47.88333,14
47.89167,15
47.90000,16
47.90833,16
47.91667,16
47.92500,17
47.93333,17
47.94167,18
47.95000,19
47.95833,19
47.96667,20
47.97500,20
47.98333,21
47.99167,22
48.00000,22
48.00833,23
48.01667,24
48.02500,25
48.03333,25
48.04167,25
48.05000,26
48.05833,26
48.06667,27
48.07500,27
48.08333,28
48.09167,28
48.10000,29
48.10833,29
48.11667,30
48.12500,30
48.13333,31
48.14167,31
48.15000,32
48.15833,32
48.16667,32
48.17500,32
48.18333,32
48.19167,32
48.20000,33
48.20833,33
48.21667,33
48.22500,33
48.23333,34
48.24167,34
48.25000,34
48.25833,34
48.26667,35
48.27500,35
48.28333,35
48.29167,35
48.30000,35
48.30833,35
48.31667,35
48.32500,35
48.33333,36
48.34167,36
48.35000,36
48.35833,37
48.36667,37
48.37500,37
48.38333,37
48.39167,37
48.40000,38
48.40833,38
48.41667,38
48.42500,39
48.43333,39
48.44167,39
48.45000,39
48.45833,39
48.46667,39
48.47500,39
48.48333,39
48.49167,39
48.50000,39
48.50833,39
48.51667,39
48.52500,39
48.53333,39
48.54167,39
48.55000,39
48.55833,39
48.56667,39
48.57500,39
48.58333,38
48.59167,38
48.60000,38
48.60833,38
48.61667,38
48.62500,38
48.63333,38
48.64167,38
48.65000,38
48.65833,38
48.66667,38
48.67500,38
48.68333,38
48.69167,39
48.70000,39
48.70833,39
48.71667,39
48.72500,39
48.73333,39
48.74167,39
48.75000,39
48.75833,39
48.76667,39
48.77500,39
48.78333,39
48.79167,40
48.80000,40
48.80833,39
48.81667,39
48.82500,40
48.83333,40
48.84167,40
48.85000,39
48.85833,39
48.86667,39
48.87500,40
48.88333,40
48.89167,40
48.90000,40
48.90833,40
48.91667,40
48.92500,40
48.93333,40
48.94167,40
48.95000,40
48.95833,40
48.96667,40
48.97500,40
48.98333,41
48.99167,41
49.00000,41
49.00833,41
49.01667,41
49.02500,41
49.03333,41
49.04167,41
49.05000,41
49.05833,41
49.06667,41
49.07500,41
49.08333,41
49.09167,41
49.10000,41
49.10833,41
49.11667,41
49.12500,42
49.13333,42
49.14167,42
49.15000,41
49.15833,41
49.16667,41
49.17500,41
49.18333,41
49.19167,41
49.20000,42
49.20833,41
49.21667,41
49.22500,41
49.23333,40
49.24167,40
49.25000,40
49.25833,40
49.26667,40
49.27500,39
49.28333,39
49.29167,39
49.30000,39
49.30833,39
49.31667,39
49.32500,39
49.33333,39
49.34167,39
49.35000,39
49.35833,39
49.36667,39
49.37500,39
49.38333,38
49.39167,38
49.40000,38
49.40833,37
49.41667,37
49.42500,37
49.43333,37
49.44167,37
49.45000,37
49.45833,37
49.46667,37
49.47500,36
49.48333,36
49.49167,36
49.50000,36
49.50833,36
49.51667,35
49.52500,35
49.53333,34
49.54167,34
49.55000,34
49.55833,34
49.56667,34
49.57500,33
49.58333,33
49.59167,32
49.60000,32
49.60833,31
49.61667,31
49.62500,31
49.63333,30
49.64167,30
49.65000,29
49.65833,29
49.66667,29
49.67500,28
49.68333,28
49.69167,28
49.70000,28
49.70833,27
49.71667,27
49.72500,26
49.73333,25
49.74167,25
49.75000,24
49.75833,24
49.76667,23
49.77500,23
49.78333,23
49.79167,22
49.80000,22
49.80833,21
49.81667,21
49.82500,20
49.83333,19
49.84167,19
49.85000,18
49.85833,17
49.86667,17
49.87500,16
49.88333,16
49.89167,15
49.90000,15
49.90833,14
49.91667,13
49.92500,11
49.93333,11
49.94167,10
49.95000,9
49.95833,9
49.96667,9
49.97500,8
49.98333,7
49.99167,7
50.00000,6

