[Header]
Application Name,LabSolutions
Version,5.97 SP1
Data File Name,C:\Users\cremerlab\Desktop\Richa\Sep_6th_2022_re-run_Sep2nd\Sep 6th_962022_010_011.lcd
Output Date,9/7/2022
Output Time,1:35:22 AM

[File Information]
Type,Data File
Generated,9/7/2022 12:45:02 AM
Generated by,System Administrator
Modified,9/7/2022 1:35:22 AM
Modified by,System Administrator

[Sample Information]
Operator Name,System Administrator
Acquired,9/7/2022 12:45:21 AM
Sample Type,0:Unknown
Level,0
Sample Name,090622_B.theta_2
Sample ID,010
ISTD Amount1,1
ISTD Amount2,1
ISTD Amount3,1
ISTD Amount4,1
ISTD Amount5,1
ISTD Amount6,1
ISTD Amount7,1
ISTD Amount8,1
ISTD Amount9,1
ISTD Amount10,1
ISTD Amount11,1
ISTD Amount12,1
ISTD Amount13,1
ISTD Amount14,1
ISTD Amount15,1
ISTD Amount16,1
ISTD Amount17,1
ISTD Amount18,1
ISTD Amount19,1
ISTD Amount20,1
ISTD Amount21,1
ISTD Amount22,1
ISTD Amount23,1
ISTD Amount24,1
ISTD Amount25,1
ISTD Amount26,1
ISTD Amount27,1
ISTD Amount28,1
ISTD Amount29,1
ISTD Amount30,1
ISTD Amount31,1
ISTD Amount32,1
Sample Amount,1
Dilution Factor,1
Vial#,10
Injection Volume,20

[Original Files]
Data File,C:\Users\cremerlab\Desktop\Richa\Sep_6th_2022_re-run_Sep2nd\Sep 6th_962022_010_011.lcd
Method File,C:\Users\cremerlab\Desktop\Richa\acetate_excretion.lcm
Batch File,C:\Users\cremerlab\Desktop\Richa\Sep_6th_2022_re-run_Sep2nd\Sep 6th.lcb
Report Format File,c:\LabSolutions\System\DEFAULT.lsr

[File Description]


[Configuration]
Instrument Name,HPLC-PC-Instrument1
Instrument #,1
Line #,1
# of Detectors,2
Detector ID,Detector A,Detector B
Detector Name,Detector A,Detector B
# of Channels,1,1

[Peak Table(Detector A)]
# of Peaks,0

[Peak Table(Detector B)]
# of Peaks,11
Peak#,R.Time,I.Time,F.Time,Area,Height,A/H,Conc.,Mark,ID#,Name,k',Plate #,Plate Ht.,Tailing,Resolution,Sep.Factor,Area Ratio,Height Ratio,Conc. %,Norm Conc.
1,10.475,10.275,10.517,1507,199,7.590,0.000,   ,,,0.000,6861,21.861,0.000,0.000,0.000,0,0,0.000,0.000
2,11.022,10.517,12.317,2261315,115237,19.623,0.000, V ,,,0.052,7523,19.939,0.976,1.078,0.000,0,0,0.000,0.000
3,14.331,12.642,15.183,3572677,76514,46.693,0.000,   ,,,0.368,2486,60.341,0.654,3.992,7.053,0,0,0.000,0.000
4,15.762,15.183,18.392,1436320,48994,29.316,0.000,SV ,,,0.505,6926,21.657,1.145,1.501,1.371,0,0,0.000,0.000
5,17.854,17.408,18.367,7198,249,28.913,0.000,T  ,,,0.704,8129,18.453,1.061,2.699,1.396,0,0,0.000,0.000
6,19.049,18.392,19.750,13731,312,44.008,0.000,   ,,,0.819,4170,35.969,1.016,1.213,1.162,0,0,0.000,0.000
7,20.297,19.800,20.700,12156,438,27.748,0.000,   ,,,0.938,12270,12.225,0.931,1.304,1.145,0,0,0.000,0.000
8,21.806,21.358,22.467,15795,443,35.621,0.000,   ,,,1.082,9196,16.312,1.199,1.838,1.154,0,0,0.000,0.000
9,25.085,24.308,26.433,145542,3522,41.326,0.000,   ,,,1.395,8966,16.730,1.168,3.330,1.289,0,0,0.000,0.000
10,29.209,28.325,30.333,131247,2814,46.643,0.000,   ,,,1.788,9238,16.237,1.064,3.625,1.282,0,0,0.000,0.000
11,32.513,31.725,33.117,12300,275,44.665,0.000,   ,,,2.104,12413,12.085,0.899,2.774,1.176,0,0,0.000,0.000

[LC Chromatogram(Detector B-Ch1)]
Interval(msec),500
# of Points,6001
Start Time(min),0.000
End Time(min),50.000
Intensity Units,mV
Intensity Multiplier,0.001
R.Time (min),Intensity
0.00000,-13
0.00833,-13
0.01667,-1
0.02500,-1
0.03333,-2
0.04167,-2
0.05000,-3
0.05833,-4
0.06667,-4
0.07500,-5
0.08333,-5
0.09167,-6
0.10000,-7
0.10833,-7
0.11667,-8
0.12500,-9
0.13333,-9
0.14167,-10
0.15000,-11
0.15833,-11
0.16667,-12
0.17500,-13
0.18333,-14
0.19167,-14
0.20000,-14
0.20833,-15
0.21667,-15
0.22500,-15
0.23333,-16
0.24167,-16
0.25000,-16
0.25833,-17
0.26667,-17
0.27500,-17
0.28333,-18
0.29167,-18
0.30000,-19
0.30833,-19
0.31667,-20
0.32500,-20
0.33333,-20
0.34167,-20
0.35000,-21
0.35833,-21
0.36667,-21
0.37500,-21
0.38333,-22
0.39167,-22
0.40000,-23
0.40833,-23
0.41667,-23
0.42500,-23
0.43333,-23
0.44167,-23
0.45000,-23
0.45833,-23
0.46667,-24
0.47500,-24
0.48333,-24
0.49167,-24
0.50000,-25
0.50833,-25
0.51667,-25
0.52500,-25
0.53333,-25
0.54167,-25
0.55000,-26
0.55833,-26
0.56667,-26
0.57500,-26
0.58333,-25
0.59167,-25
0.60000,-25
0.60833,-25
0.61667,-25
0.62500,-26
0.63333,-26
0.64167,-26
0.65000,-26
0.65833,-27
0.66667,-27
0.67500,-27
0.68333,-27
0.69167,-27
0.70000,-27
0.70833,-27
0.71667,-27
0.72500,-27
0.73333,-28
0.74167,-28
0.75000,-28
0.75833,-28
0.76667,-27
0.77500,-27
0.78333,-27
0.79167,-27
0.80000,-27
0.80833,-27
0.81667,-27
0.82500,-27
0.83333,-26
0.84167,-26
0.85000,-26
0.85833,-26
0.86667,-26
0.87500,-26
0.88333,-26
0.89167,-26
0.90000,-25
0.90833,-25
0.91667,-25
0.92500,-25
0.93333,-25
0.94167,-25
0.95000,-25
0.95833,-25
0.96667,-25
0.97500,-25
0.98333,-25
0.99167,-24
1.00000,-24
1.00833,-24
1.01667,-23
1.02500,-23
1.03333,-23
1.04167,-22
1.05000,-22
1.05833,-21
1.06667,-21
1.07500,-21
1.08333,-21
1.09167,-21
1.10000,-21
1.10833,-21
1.11667,-21
1.12500,-20
1.13333,-20
1.14167,-20
1.15000,-20
1.15833,-20
1.16667,-20
1.17500,-20
1.18333,-20
1.19167,-20
1.20000,-20
1.20833,-19
1.21667,-19
1.22500,-19
1.23333,-18
1.24167,-18
1.25000,-18
1.25833,-18
1.26667,-18
1.27500,-18
1.28333,-18
1.29167,-17
1.30000,-17
1.30833,-17
1.31667,-17
1.32500,-17
1.33333,-16
1.34167,-16
1.35000,-15
1.35833,-15
1.36667,-15
1.37500,-16
1.38333,-15
1.39167,-15
1.40000,-15
1.40833,-15
1.41667,-15
1.42500,-14
1.43333,-14
1.44167,-14
1.45000,-14
1.45833,-14
1.46667,-14
1.47500,-14
1.48333,-14
1.49167,-14
1.50000,-14
1.50833,-14
1.51667,-13
1.52500,-13
1.53333,-13
1.54167,-13
1.55000,-13
1.55833,-12
1.56667,-12
1.57500,-12
1.58333,-12
1.59167,-12
1.60000,-11
1.60833,-11
1.61667,-11
1.62500,-10
1.63333,-10
1.64167,-10
1.65000,-10
1.65833,-10
1.66667,-10
1.67500,-10
1.68333,-10
1.69167,-10
1.70000,-9
1.70833,-9
1.71667,-9
1.72500,-9
1.73333,-9
1.74167,-9
1.75000,-9
1.75833,-9
1.76667,-9
1.77500,-9
1.78333,-9
1.79167,-9
1.80000,-9
1.80833,-9
1.81667,-9
1.82500,-9
1.83333,-9
1.84167,-8
1.85000,-8
1.85833,-8
1.86667,-8
1.87500,-8
1.88333,-8
1.89167,-8
1.90000,-7
1.90833,-7
1.91667,-7
1.92500,-7
1.93333,-7
1.94167,-7
1.95000,-7
1.95833,-7
1.96667,-7
1.97500,-7
1.98333,-7
1.99167,-7
2.00000,-7
2.00833,-7
2.01667,-7
2.02500,-6
2.03333,-6
2.04167,-6
2.05000,-6
2.05833,-6
2.06667,-7
2.07500,-7
2.08333,-7
2.09167,-7
2.10000,-7
2.10833,-7
2.11667,-7
2.12500,-7
2.13333,-7
2.14167,-8
2.15000,-8
2.15833,-8
2.16667,-8
2.17500,-8
2.18333,-8
2.19167,-8
2.20000,-7
2.20833,-7
2.21667,-7
2.22500,-7
2.23333,-7
2.24167,-7
2.25000,-7
2.25833,-7
2.26667,-7
2.27500,-7
2.28333,-8
2.29167,-8
2.30000,-8
2.30833,-7
2.31667,-8
2.32500,-7
2.33333,-7
2.34167,-8
2.35000,-8
2.35833,-8
2.36667,-8
2.37500,-8
2.38333,-8
2.39167,-8
2.40000,-8
2.40833,-8
2.41667,-8
2.42500,-8
2.43333,-8
2.44167,-9
2.45000,-9
2.45833,-9
2.46667,-9
2.47500,-9
2.48333,-9
2.49167,-9
2.50000,-10
2.50833,-10
2.51667,-10
2.52500,-11
2.53333,-11
2.54167,-11
2.55000,-11
2.55833,-11
2.56667,-11
2.57500,-11
2.58333,-11
2.59167,-11
2.60000,-11
2.60833,-11
2.61667,-11
2.62500,-11
2.63333,-11
2.64167,-11
2.65000,-11
2.65833,-12
2.66667,-12
2.67500,-12
2.68333,-12
2.69167,-12
2.70000,-12
2.70833,-12
2.71667,-12
2.72500,-13
2.73333,-13
2.74167,-13
2.75000,-13
2.75833,-13
2.76667,-13
2.77500,-13
2.78333,-13
2.79167,-13
2.80000,-13
2.80833,-13
2.81667,-13
2.82500,-13
2.83333,-13
2.84167,-13
2.85000,-13
2.85833,-13
2.86667,-13
2.87500,-13
2.88333,-13
2.89167,-13
2.90000,-13
2.90833,-13
2.91667,-14
2.92500,-15
2.93333,-15
2.94167,-15
2.95000,-15
2.95833,-14
2.96667,-14
2.97500,-14
2.98333,-14
2.99167,-14
3.00000,-15
3.00833,-15
3.01667,-15
3.02500,-15
3.03333,-15
3.04167,-15
3.05000,-15
3.05833,-15
3.06667,-15
3.07500,-15
3.08333,-15
3.09167,-14
3.10000,-14
3.10833,-14
3.11667,-15
3.12500,-15
3.13333,-15
3.14167,-15
3.15000,-15
3.15833,-15
3.16667,-15
3.17500,-15
3.18333,-15
3.19167,-16
3.20000,-16
3.20833,-16
3.21667,-16
3.22500,-16
3.23333,-15
3.24167,-15
3.25000,-15
3.25833,-14
3.26667,-14
3.27500,-13
3.28333,-13
3.29167,-13
3.30000,-14
3.30833,-14
3.31667,-13
3.32500,-13
3.33333,-13
3.34167,-14
3.35000,-14
3.35833,-14
3.36667,-14
3.37500,-14
3.38333,-14
3.39167,-14
3.40000,-14
3.40833,-14
3.41667,-14
3.42500,-14
3.43333,-14
3.44167,-13
3.45000,-13
3.45833,-13
3.46667,-13
3.47500,-13
3.48333,-13
3.49167,-12
3.50000,-12
3.50833,-12
3.51667,-12
3.52500,-12
3.53333,-12
3.54167,-11
3.55000,-11
3.55833,-10
3.56667,-10
3.57500,-10
3.58333,-10
3.59167,-10
3.60000,-10
3.60833,-10
3.61667,-10
3.62500,-10
3.63333,-10
3.64167,-10
3.65000,-9
3.65833,-9
3.66667,-9
3.67500,-9
3.68333,-9
3.69167,-9
3.70000,-8
3.70833,-8
3.71667,-8
3.72500,-8
3.73333,-7
3.74167,-7
3.75000,-6
3.75833,-6
3.76667,-6
3.77500,-6
3.78333,-5
3.79167,-5
3.80000,-5
3.80833,-5
3.81667,-5
3.82500,-4
3.83333,-4
3.84167,-3
3.85000,-4
3.85833,-4
3.86667,-4
3.87500,-4
3.88333,-3
3.89167,-3
3.90000,-2
3.90833,-2
3.91667,-1
3.92500,-1
3.93333,-0
3.94167,-0
3.95000,0
3.95833,0
3.96667,0
3.97500,0
3.98333,1
3.99167,1
4.00000,1
4.00833,2
4.01667,2
4.02500,3
4.03333,3
4.04167,4
4.05000,4
4.05833,4
4.06667,4
4.07500,4
4.08333,5
4.09167,5
4.10000,6
4.10833,7
4.11667,8
4.12500,8
4.13333,9
4.14167,9
4.15000,10
4.15833,10
4.16667,10
4.17500,11
4.18333,11
4.19167,12
4.20000,13
4.20833,13
4.21667,14
4.22500,15
4.23333,15
4.24167,15
4.25000,16
4.25833,17
4.26667,17
4.27500,18
4.28333,18
4.29167,19
4.30000,19
4.30833,20
4.31667,21
4.32500,22
4.33333,23
4.34167,23
4.35000,24
4.35833,24
4.36667,24
4.37500,25
4.38333,26
4.39167,26
4.40000,27
4.40833,28
4.41667,29
4.42500,29
4.43333,30
4.44167,30
4.45000,31
4.45833,31
4.46667,32
4.47500,32
4.48333,33
4.49167,34
4.50000,34
4.50833,35
4.51667,36
4.52500,36
4.53333,37
4.54167,38
4.55000,38
4.55833,39
4.56667,39
4.57500,39
4.58333,40
4.59167,41
4.60000,42
4.60833,43
4.61667,44
4.62500,44
4.63333,45
4.64167,45
4.65000,46
4.65833,47
4.66667,47
4.67500,48
4.68333,48
4.69167,49
4.70000,49
4.70833,49
4.71667,50
4.72500,50
4.73333,50
4.74167,50
4.75000,51
4.75833,51
4.76667,51
4.77500,52
4.78333,52
4.79167,53
4.80000,53
4.80833,54
4.81667,55
4.82500,55
4.83333,55
4.84167,55
4.85000,55
4.85833,55
4.86667,55
4.87500,55
4.88333,55
4.89167,56
4.90000,56
4.90833,56
4.91667,57
4.92500,57
4.93333,58
4.94167,59
4.95000,59
4.95833,59
4.96667,58
4.97500,58
4.98333,59
4.99167,59
5.00000,59
5.00833,59
5.01667,58
5.02500,58
5.03333,58
5.04167,58
5.05000,58
5.05833,58
5.06667,58
5.07500,58
5.08333,58
5.09167,58
5.10000,58
5.10833,58
5.11667,57
5.12500,57
5.13333,57
5.14167,57
5.15000,57
5.15833,56
5.16667,56
5.17500,56
5.18333,56
5.19167,55
5.20000,55
5.20833,55
5.21667,55
5.22500,55
5.23333,55
5.24167,55
5.25000,55
5.25833,55
5.26667,55
5.27500,54
5.28333,54
5.29167,54
5.30000,53
5.30833,53
5.31667,52
5.32500,52
5.33333,52
5.34167,51
5.35000,50
5.35833,50
5.36667,49
5.37500,49
5.38333,48
5.39167,48
5.40000,47
5.40833,47
5.41667,46
5.42500,46
5.43333,46
5.44167,46
5.45000,46
5.45833,45
5.46667,45
5.47500,44
5.48333,44
5.49167,43
5.50000,42
5.50833,42
5.51667,41
5.52500,41
5.53333,40
5.54167,40
5.55000,39
5.55833,38
5.56667,37
5.57500,37
5.58333,36
5.59167,35
5.60000,34
5.60833,33
5.61667,32
5.62500,32
5.63333,31
5.64167,31
5.65000,31
5.65833,30
5.66667,29
5.67500,29
5.68333,28
5.69167,27
5.70000,26
5.70833,25
5.71667,25
5.72500,24
5.73333,23
5.74167,23
5.75000,22
5.75833,21
5.76667,21
5.77500,20
5.78333,20
5.79167,19
5.80000,18
5.80833,17
5.81667,16
5.82500,16
5.83333,15
5.84167,14
5.85000,13
5.85833,12
5.86667,11
5.87500,10
5.88333,9
5.89167,9
5.90000,8
5.90833,7
5.91667,7
5.92500,6
5.93333,5
5.94167,4
5.95000,3
5.95833,2
5.96667,1
5.97500,-0
5.98333,-1
5.99167,-1
6.00000,-2
6.00833,-3
6.01667,-3
6.02500,-4
6.03333,-4
6.04167,-5
6.05000,-5
6.05833,-7
6.06667,-8
6.07500,-9
6.08333,-10
6.09167,-11
6.10000,-11
6.10833,-12
6.11667,-13
6.12500,-13
6.13333,-14
6.14167,-14
6.15000,-15
6.15833,-15
6.16667,-16
6.17500,-17
6.18333,-18
6.19167,-19
6.20000,-19
6.20833,-19
6.21667,-20
6.22500,-20
6.23333,-21
6.24167,-22
6.25000,-22
6.25833,-23
6.26667,-23
6.27500,-24
6.28333,-24
6.29167,-25
6.30000,-26
6.30833,-26
6.31667,-27
6.32500,-27
6.33333,-28
6.34167,-28
6.35000,-29
6.35833,-30
6.36667,-30
6.37500,-31
6.38333,-31
6.39167,-31
6.40000,-32
6.40833,-32
6.41667,-32
6.42500,-33
6.43333,-33
6.44167,-34
6.45000,-34
6.45833,-34
6.46667,-35
6.47500,-35
6.48333,-36
6.49167,-36
6.50000,-36
6.50833,-37
6.51667,-37
6.52500,-37
6.53333,-37
6.54167,-37
6.55000,-37
6.55833,-37
6.56667,-37
6.57500,-38
6.58333,-38
6.59167,-39
6.60000,-39
6.60833,-39
6.61667,-39
6.62500,-39
6.63333,-40
6.64167,-41
6.65000,-41
6.65833,-41
6.66667,-41
6.67500,-42
6.68333,-42
6.69167,-42
6.70000,-42
6.70833,-42
6.71667,-42
6.72500,-42
6.73333,-43
6.74167,-43
6.75000,-43
6.75833,-43
6.76667,-44
6.77500,-44
6.78333,-44
6.79167,-43
6.80000,-43
6.80833,-43
6.81667,-43
6.82500,-44
6.83333,-44
6.84167,-44
6.85000,-45
6.85833,-45
6.86667,-45
6.87500,-46
6.88333,-46
6.89167,-46
6.90000,-45
6.90833,-45
6.91667,-45
6.92500,-45
6.93333,-45
6.94167,-45
6.95000,-45
6.95833,-45
6.96667,-45
6.97500,-45
6.98333,-45
6.99167,-46
7.00000,-46
7.00833,-46
7.01667,-46
7.02500,-46
7.03333,-46
7.04167,-46
7.05000,-46
7.05833,-46
7.06667,-46
7.07500,-46
7.08333,-46
7.09167,-46
7.10000,-46
7.10833,-46
7.11667,-46
7.12500,-46
7.13333,-46
7.14167,-46
7.15000,-46
7.15833,-46
7.16667,-46
7.17500,-47
7.18333,-47
7.19167,-47
7.20000,-47
7.20833,-47
7.21667,-47
7.22500,-47
7.23333,-47
7.24167,-47
7.25000,-47
7.25833,-47
7.26667,-47
7.27500,-47
7.28333,-47
7.29167,-47
7.30000,-48
7.30833,-48
7.31667,-48
7.32500,-48
7.33333,-48
7.34167,-48
7.35000,-48
7.35833,-47
7.36667,-47
7.37500,-47
7.38333,-47
7.39167,-47
7.40000,-47
7.40833,-47
7.41667,-47
7.42500,-47
7.43333,-47
7.44167,-48
7.45000,-48
7.45833,-48
7.46667,-48
7.47500,-48
7.48333,-48
7.49167,-48
7.50000,-48
7.50833,-48
7.51667,-48
7.52500,-48
7.53333,-48
7.54167,-48
7.55000,-48
7.55833,-48
7.56667,-48
7.57500,-48
7.58333,-48
7.59167,-48
7.60000,-48
7.60833,-49
7.61667,-49
7.62500,-49
7.63333,-49
7.64167,-49
7.65000,-48
7.65833,-48
7.66667,-48
7.67500,-49
7.68333,-49
7.69167,-49
7.70000,-49
7.70833,-49
7.71667,-49
7.72500,-49
7.73333,-48
7.74167,-49
7.75000,-49
7.75833,-49
7.76667,-49
7.77500,-49
7.78333,-49
7.79167,-50
7.80000,-50
7.80833,-50
7.81667,-50
7.82500,-50
7.83333,-50
7.84167,-50
7.85000,-50
7.85833,-50
7.86667,-50
7.87500,-50
7.88333,-50
7.89167,-50
7.90000,-50
7.90833,-50
7.91667,-50
7.92500,-50
7.93333,-50
7.94167,-50
7.95000,-50
7.95833,-50
7.96667,-50
7.97500,-50
7.98333,-51
7.99167,-50
8.00000,-50
8.00833,-50
8.01667,-50
8.02500,-50
8.03333,-50
8.04167,-50
8.05000,-50
8.05833,-50
8.06667,-51
8.07500,-51
8.08333,-50
8.09167,-50
8.10000,-50
8.10833,-50
8.11667,-50
8.12500,-51
8.13333,-51
8.14167,-51
8.15000,-51
8.15833,-51
8.16667,-51
8.17500,-51
8.18333,-51
8.19167,-51
8.20000,-51
8.20833,-52
8.21667,-52
8.22500,-52
8.23333,-52
8.24167,-51
8.25000,-51
8.25833,-51
8.26667,-51
8.27500,-51
8.28333,-51
8.29167,-51
8.30000,-51
8.30833,-51
8.31667,-52
8.32500,-51
8.33333,-51
8.34167,-51
8.35000,-51
8.35833,-51
8.36667,-50
8.37500,-50
8.38333,-50
8.39167,-51
8.40000,-51
8.40833,-51
8.41667,-51
8.42500,-51
8.43333,-51
8.44167,-51
8.45000,-51
8.45833,-51
8.46667,-51
8.47500,-52
8.48333,-52
8.49167,-52
8.50000,-52
8.50833,-52
8.51667,-52
8.52500,-52
8.53333,-52
8.54167,-52
8.55000,-52
8.55833,-52
8.56667,-52
8.57500,-52
8.58333,-52
8.59167,-53
8.60000,-52
8.60833,-52
8.61667,-52
8.62500,-52
8.63333,-52
8.64167,-52
8.65000,-52
8.65833,-52
8.66667,-52
8.67500,-52
8.68333,-52
8.69167,-52
8.70000,-52
8.70833,-52
8.71667,-51
8.72500,-51
8.73333,-52
8.74167,-52
8.75000,-52
8.75833,-53
8.76667,-53
8.77500,-53
8.78333,-53
8.79167,-53
8.80000,-52
8.80833,-52
8.81667,-52
8.82500,-52
8.83333,-52
8.84167,-52
8.85000,-53
8.85833,-53
8.86667,-53
8.87500,-53
8.88333,-53
8.89167,-53
8.90000,-52
8.90833,-52
8.91667,-52
8.92500,-52
8.93333,-53
8.94167,-53
8.95000,-53
8.95833,-53
8.96667,-53
8.97500,-53
8.98333,-53
8.99167,-53
9.00000,-52
9.00833,-52
9.01667,-52
9.02500,-52
9.03333,-52
9.04167,-52
9.05000,-52
9.05833,-53
9.06667,-53
9.07500,-54
9.08333,-54
9.09167,-54
9.10000,-53
9.10833,-53
9.11667,-53
9.12500,-53
9.13333,-53
9.14167,-52
9.15000,-52
9.15833,-52
9.16667,-52
9.17500,-52
9.18333,-52
9.19167,-52
9.20000,-52
9.20833,-52
9.21667,-51
9.22500,-51
9.23333,-51
9.24167,-51
9.25000,-51
9.25833,-52
9.26667,-52
9.27500,-52
9.28333,-52
9.29167,-52
9.30000,-52
9.30833,-52
9.31667,-52
9.32500,-53
9.33333,-53
9.34167,-53
9.35000,-53
9.35833,-53
9.36667,-53
9.37500,-53
9.38333,-53
9.39167,-52
9.40000,-52
9.40833,-52
9.41667,-52
9.42500,-52
9.43333,-52
9.44167,-52
9.45000,-52
9.45833,-52
9.46667,-52
9.47500,-52
9.48333,-52
9.49167,-51
9.50000,-52
9.50833,-52
9.51667,-52
9.52500,-52
9.53333,-52
9.54167,-51
9.55000,-51
9.55833,-51
9.56667,-51
9.57500,-51
9.58333,-51
9.59167,-51
9.60000,-52
9.60833,-51
9.61667,-51
9.62500,-51
9.63333,-51
9.64167,-51
9.65000,-51
9.65833,-51
9.66667,-51
9.67500,-51
9.68333,-51
9.69167,-51
9.70000,-52
9.70833,-52
9.71667,-51
9.72500,-51
9.73333,-51
9.74167,-51
9.75000,-51
9.75833,-50
9.76667,-50
9.77500,-50
9.78333,-50
9.79167,-50
9.80000,-50
9.80833,-50
9.81667,-50
9.82500,-50
9.83333,-51
9.84167,-51
9.85000,-51
9.85833,-51
9.86667,-51
9.87500,-51
9.88333,-51
9.89167,-51
9.90000,-51
9.90833,-51
9.91667,-51
9.92500,-51
9.93333,-51
9.94167,-51
9.95000,-51
9.95833,-50
9.96667,-50
9.97500,-49
9.98333,-49
9.99167,-49
10.00000,-49
10.00833,-49
10.01667,-48
10.02500,-48
10.03333,-48
10.04167,-48
10.05000,-48
10.05833,-48
10.06667,-48
10.07500,-48
10.08333,-47
10.09167,-47
10.10000,-47
10.10833,-46
10.11667,-46
10.12500,-45
10.13333,-44
10.14167,-44
10.15000,-43
10.15833,-43
10.16667,-42
10.17500,-41
10.18333,-39
10.19167,-38
10.20000,-37
10.20833,-35
10.21667,-34
10.22500,-33
10.23333,-31
10.24167,-30
10.25000,-28
10.25833,-26
10.26667,-25
10.27500,-22
10.28333,-19
10.29167,-15
10.30000,-12
10.30833,-7
10.31667,-2
10.32500,4
10.33333,12
10.34167,21
10.35000,30
10.35833,42
10.36667,55
10.37500,69
10.38333,85
10.39167,102
10.40000,120
10.40833,138
10.41667,157
10.42500,174
10.43333,191
10.44167,205
10.45000,218
10.45833,227
10.46667,233
10.47500,236
10.48333,237
10.49167,234
10.50000,231
10.50833,229
10.51667,230
10.52500,236
10.53333,252
10.54167,281
10.55000,328
10.55833,397
10.56667,493
10.57500,623
10.58333,791
10.59167,1005
10.60000,1269
10.60833,1591
10.61667,1975
10.62500,2429
10.63333,2957
10.64167,3567
10.65000,4262
10.65833,5048
10.66667,5930
10.67500,6912
10.68333,7999
10.69167,9194
10.70000,10500
10.70833,11921
10.71667,13458
10.72500,15114
10.73333,16889
10.74167,18787
10.75000,20808
10.75833,22951
10.76667,25216
10.77500,27604
10.78333,30113
10.79167,32743
10.80000,35490
10.80833,38353
10.81667,41330
10.82500,44415
10.83333,47606
10.84167,50897
10.85000,54284
10.85833,57758
10.86667,61313
10.87500,64938
10.88333,68624
10.89167,72356
10.90000,76120
10.90833,79897
10.91667,83668
10.92500,87408
10.93333,91087
10.94167,94674
10.95000,98131
10.95833,101417
10.96667,104486
10.97500,107286
10.98333,109766
10.99167,111870
11.00000,113541
11.00833,114726
11.01667,115373
11.02500,115439
11.03333,114888
11.04167,113698
11.05000,111859
11.05833,109380
11.06667,106287
11.07500,102622
11.08333,98446
11.09167,93832
11.10000,88866
11.10833,83639
11.11667,78245
11.12500,72778
11.13333,67325
11.14167,61965
11.15000,56769
11.15833,51793
11.16667,47081
11.17500,42666
11.18333,38568
11.19167,34796
11.20000,31352
11.20833,28228
11.21667,25412
11.22500,22887
11.23333,20634
11.24167,18631
11.25000,16856
11.25833,15288
11.26667,13905
11.27500,12687
11.28333,11614
11.29167,10670
11.30000,9839
11.30833,9106
11.31667,8459
11.32500,7886
11.33333,7378
11.34167,6925
11.35000,6521
11.35833,6158
11.36667,5832
11.37500,5537
11.38333,5269
11.39167,5024
11.40000,4799
11.40833,4593
11.41667,4402
11.42500,4224
11.43333,4059
11.44167,3904
11.45000,3757
11.45833,3619
11.46667,3489
11.47500,3365
11.48333,3248
11.49167,3136
11.50000,3029
11.50833,2926
11.51667,2828
11.52500,2735
11.53333,2645
11.54167,2559
11.55000,2476
11.55833,2396
11.56667,2320
11.57500,2246
11.58333,2176
11.59167,2108
11.60000,2043
11.60833,1980
11.61667,1920
11.62500,1862
11.63333,1806
11.64167,1753
11.65000,1701
11.65833,1652
11.66667,1604
11.67500,1559
11.68333,1516
11.69167,1474
11.70000,1435
11.70833,1397
11.71667,1360
11.72500,1324
11.73333,1290
11.74167,1258
11.75000,1227
11.75833,1197
11.76667,1169
11.77500,1141
11.78333,1115
11.79167,1090
11.80000,1066
11.80833,1043
11.81667,1021
11.82500,999
11.83333,979
11.84167,960
11.85000,942
11.85833,924
11.86667,908
11.87500,892
11.88333,877
11.89167,863
11.90000,849
11.90833,836
11.91667,823
11.92500,811
11.93333,799
11.94167,788
11.95000,777
11.95833,767
11.96667,758
11.97500,748
11.98333,739
11.99167,731
12.00000,723
12.00833,715
12.01667,707
12.02500,700
12.03333,693
12.04167,686
12.05000,680
12.05833,674
12.06667,668
12.07500,662
12.08333,657
12.09167,652
12.10000,647
12.10833,642
12.11667,638
12.12500,634
12.13333,630
12.14167,626
12.15000,623
12.15833,620
12.16667,617
12.17500,614
12.18333,611
12.19167,609
12.20000,607
12.20833,606
12.21667,604
12.22500,602
12.23333,600
12.24167,599
12.25000,598
12.25833,597
12.26667,596
12.27500,595
12.28333,594
12.29167,593
12.30000,592
12.30833,592
12.31667,592
12.32500,592
12.33333,592
12.34167,592
12.35000,592
12.35833,592
12.36667,591
12.37500,591
12.38333,591
12.39167,591
12.40000,591
12.40833,590
12.41667,590
12.42500,590
12.43333,589
12.44167,589
12.45000,589
12.45833,588
12.46667,587
12.47500,587
12.48333,586
12.49167,585
12.50000,583
12.50833,582
12.51667,581
12.52500,580
12.53333,579
12.54167,577
12.55000,576
12.55833,574
12.56667,572
12.57500,571
12.58333,569
12.59167,568
12.60000,566
12.60833,565
12.61667,563
12.62500,562
12.63333,560
12.64167,559
12.65000,560
12.65833,560
12.66667,561
12.67500,563
12.68333,565
12.69167,569
12.70000,573
12.70833,580
12.71667,588
12.72500,598
12.73333,609
12.74167,623
12.75000,639
12.75833,658
12.76667,679
12.77500,704
12.78333,732
12.79167,763
12.80000,799
12.80833,838
12.81667,882
12.82500,930
12.83333,983
12.84167,1041
12.85000,1103
12.85833,1171
12.86667,1244
12.87500,1322
12.88333,1405
12.89167,1494
12.90000,1588
12.90833,1688
12.91667,1793
12.92500,1904
12.93333,2021
12.94167,2144
12.95000,2272
12.95833,2406
12.96667,2546
12.97500,2692
12.98333,2843
12.99167,2999
13.00000,3162
13.00833,3330
13.01667,3504
13.02500,3684
13.03333,3869
13.04167,4059
13.05000,4255
13.05833,4457
13.06667,4664
13.07500,4876
13.08333,5093
13.09167,5315
13.10000,5541
13.10833,5772
13.11667,6008
13.12500,6249
13.13333,6494
13.14167,6744
13.15000,6998
13.15833,7256
13.16667,7519
13.17500,7785
13.18333,8055
13.19167,8329
13.20000,8607
13.20833,8889
13.21667,9174
13.22500,9462
13.23333,9755
13.24167,10050
13.25000,10350
13.25833,10652
13.26667,10958
13.27500,11266
13.28333,11578
13.29167,11893
13.30000,12211
13.30833,12532
13.31667,12856
13.32500,13182
13.33333,13512
13.34167,13845
13.35000,14180
13.35833,14518
13.36667,14859
13.37500,15203
13.38333,15550
13.39167,15899
13.40000,16251
13.40833,16606
13.41667,16965
13.42500,17326
13.43333,17689
13.44167,18055
13.45000,18425
13.45833,18797
13.46667,19172
13.47500,19551
13.48333,19932
13.49167,20316
13.50000,20703
13.50833,21094
13.51667,21487
13.52500,21884
13.53333,22283
13.54167,22686
13.55000,23092
13.55833,23501
13.56667,23913
13.57500,24329
13.58333,24748
13.59167,25170
13.60000,25595
13.60833,26024
13.61667,26456
13.62500,26892
13.63333,27332
13.64167,27775
13.65000,28221
13.65833,28671
13.66667,29125
13.67500,29582
13.68333,30043
13.69167,30508
13.70000,30976
13.70833,31449
13.71667,31925
13.72500,32405
13.73333,32890
13.74167,33378
13.75000,33870
13.75833,34366
13.76667,34866
13.77500,35370
13.78333,35880
13.79167,36393
13.80000,36910
13.80833,37432
13.81667,37958
13.82500,38488
13.83333,39023
13.84167,39563
13.85000,40107
13.85833,40655
13.86667,41209
13.87500,41767
13.88333,42329
13.89167,42896
13.90000,43468
13.90833,44045
13.91667,44627
13.92500,45214
13.93333,45806
13.94167,46403
13.95000,47005
13.95833,47612
13.96667,48225
13.97500,48843
13.98333,49467
13.99167,50095
14.00000,50730
14.00833,51370
14.01667,52015
14.02500,52667
14.03333,53324
14.04167,53986
14.05000,54655
14.05833,55329
14.06667,56009
14.07500,56696
14.08333,57388
14.09167,58088
14.10000,58793
14.10833,59505
14.11667,60223
14.12500,60948
14.13333,61680
14.14167,62418
14.15000,63164
14.15833,63916
14.16667,64675
14.17500,65442
14.18333,66215
14.19167,66995
14.20000,67782
14.20833,68573
14.21667,69368
14.22500,70164
14.23333,70957
14.24167,71742
14.25000,72511
14.25833,73257
14.26667,73969
14.27500,74638
14.28333,75250
14.29167,75794
14.30000,76256
14.30833,76625
14.31667,76888
14.32500,77037
14.33333,77063
14.34167,76958
14.35000,76718
14.35833,76336
14.36667,75811
14.37500,75140
14.38333,74320
14.39167,73350
14.40000,72229
14.40833,70953
14.41667,69521
14.42500,67932
14.43333,66184
14.44167,64277
14.45000,62215
14.45833,60004
14.46667,57652
14.47500,55171
14.48333,52577
14.49167,49890
14.50000,47131
14.50833,44327
14.51667,41503
14.52500,38687
14.53333,35907
14.54167,33187
14.55000,30551
14.55833,28021
14.56667,25614
14.57500,23342
14.58333,21215
14.59167,19239
14.60000,17417
14.60833,15747
14.61667,14227
14.62500,12849
14.63333,11608
14.64167,10494
14.65000,9499
14.65833,8612
14.66667,7825
14.67500,7127
14.68333,6509
14.69167,5963
14.70000,5481
14.70833,5055
14.71667,4679
14.72500,4347
14.73333,4053
14.74167,3793
14.75000,3561
14.75833,3356
14.76667,3172
14.77500,3007
14.78333,2859
14.79167,2726
14.80000,2606
14.80833,2497
14.81667,2397
14.82500,2307
14.83333,2224
14.84167,2147
14.85000,2077
14.85833,2011
14.86667,1951
14.87500,1894
14.88333,1841
14.89167,1792
14.90000,1746
14.90833,1702
14.91667,1660
14.92500,1621
14.93333,1585
14.94167,1550
14.95000,1517
14.95833,1485
14.96667,1455
14.97500,1427
14.98333,1400
14.99167,1375
15.00000,1351
15.00833,1328
15.01667,1306
15.02500,1286
15.03333,1266
15.04167,1247
15.05000,1230
15.05833,1213
15.06667,1197
15.07500,1182
15.08333,1168
15.09167,1155
15.10000,1142
15.10833,1131
15.11667,1121
15.12500,1111
15.13333,1102
15.14167,1095
15.15000,1088
15.15833,1082
15.16667,1078
15.17500,1075
15.18333,1074
15.19167,1076
15.20000,1080
15.20833,1087
15.21667,1098
15.22500,1114
15.23333,1135
15.24167,1163
15.25000,1199
15.25833,1243
15.26667,1299
15.27500,1366
15.28333,1449
15.29167,1547
15.30000,1664
15.30833,1803
15.31667,1966
15.32500,2155
15.33333,2375
15.34167,2628
15.35000,2918
15.35833,3248
15.36667,3620
15.37500,4039
15.38333,4508
15.39167,5029
15.40000,5604
15.40833,6237
15.41667,6930
15.42500,7685
15.43333,8502
15.44167,9382
15.45000,10326
15.45833,11333
15.46667,12401
15.47500,13529
15.48333,14715
15.49167,15954
15.50000,17243
15.50833,18577
15.51667,19952
15.52500,21361
15.53333,22799
15.54167,24259
15.55000,25734
15.55833,27216
15.56667,28699
15.57500,30175
15.58333,31636
15.59167,33076
15.60000,34488
15.60833,35865
15.61667,37200
15.62500,38489
15.63333,39724
15.64167,40902
15.65000,42017
15.65833,43065
15.66667,44042
15.67500,44946
15.68333,45774
15.69167,46523
15.70000,47192
15.70833,47779
15.71667,48282
15.72500,48702
15.73333,49037
15.74167,49288
15.75000,49453
15.75833,49535
15.76667,49532
15.77500,49446
15.78333,49277
15.79167,49028
15.80000,48699
15.80833,48291
15.81667,47808
15.82500,47250
15.83333,46621
15.84167,45923
15.85000,45160
15.85833,44333
15.86667,43449
15.87500,42509
15.88333,41518
15.89167,40481
15.90000,39401
15.90833,38283
15.91667,37134
15.92500,35956
15.93333,34755
15.94167,33536
15.95000,32305
15.95833,31066
15.96667,29824
15.97500,28584
15.98333,27351
15.99167,26127
16.00000,24919
16.00833,23730
16.01667,22562
16.02500,21420
16.03333,20307
16.04167,19224
16.05000,18174
16.05833,17160
16.06667,16182
16.07500,15242
16.08333,14341
16.09167,13480
16.10000,12659
16.10833,11877
16.11667,11136
16.12500,10434
16.13333,9771
16.14167,9147
16.15000,8559
16.15833,8008
16.16667,7492
16.17500,7009
16.18333,6559
16.19167,6140
16.20000,5750
16.20833,5388
16.21667,5053
16.22500,4742
16.23333,4455
16.24167,4190
16.25000,3946
16.25833,3721
16.26667,3514
16.27500,3324
16.28333,3149
16.29167,2989
16.30000,2842
16.30833,2707
16.31667,2583
16.32500,2469
16.33333,2365
16.34167,2269
16.35000,2181
16.35833,2101
16.36667,2026
16.37500,1958
16.38333,1895
16.39167,1837
16.40000,1783
16.40833,1733
16.41667,1687
16.42500,1644
16.43333,1604
16.44167,1567
16.45000,1532
16.45833,1499
16.46667,1468
16.47500,1439
16.48333,1411
16.49167,1384
16.50000,1358
16.50833,1334
16.51667,1310
16.52500,1287
16.53333,1265
16.54167,1244
16.55000,1224
16.55833,1204
16.56667,1185
16.57500,1166
16.58333,1147
16.59167,1129
16.60000,1111
16.60833,1093
16.61667,1076
16.62500,1059
16.63333,1042
16.64167,1026
16.65000,1010
16.65833,995
16.66667,979
16.67500,964
16.68333,950
16.69167,936
16.70000,922
16.70833,908
16.71667,896
16.72500,884
16.73333,872
16.74167,860
16.75000,850
16.75833,839
16.76667,829
16.77500,819
16.78333,810
16.79167,801
16.80000,793
16.80833,786
16.81667,778
16.82500,772
16.83333,765
16.84167,760
16.85000,754
16.85833,749
16.86667,744
16.87500,740
16.88333,736
16.89167,732
16.90000,729
16.90833,726
16.91667,722
16.92500,719
16.93333,716
16.94167,714
16.95000,711
16.95833,709
16.96667,707
16.97500,705
16.98333,703
16.99167,702
17.00000,700
17.00833,698
17.01667,696
17.02500,694
17.03333,692
17.04167,690
17.05000,689
17.05833,687
17.06667,686
17.07500,684
17.08333,682
17.09167,681
17.10000,680
17.10833,678
17.11667,676
17.12500,675
17.13333,674
17.14167,672
17.15000,670
17.15833,668
17.16667,666
17.17500,664
17.18333,662
17.19167,661
17.20000,659
17.20833,658
17.21667,656
17.22500,654
17.23333,652
17.24167,650
17.25000,648
17.25833,646
17.26667,645
17.27500,643
17.28333,642
17.29167,641
17.30000,639
17.30833,637
17.31667,636
17.32500,634
17.33333,632
17.34167,631
17.35000,629
17.35833,627
17.36667,626
17.37500,625
17.38333,624
17.39167,623
17.40000,623
17.40833,623
17.41667,623
17.42500,624
17.43333,625
17.44167,626
17.45000,628
17.45833,629
17.46667,631
17.47500,634
17.48333,637
17.49167,640
17.50000,643
17.50833,647
17.51667,650
17.52500,654
17.53333,658
17.54167,663
17.55000,668
17.55833,673
17.56667,678
17.57500,684
17.58333,690
17.59167,695
17.60000,701
17.60833,707
17.61667,713
17.62500,719
17.63333,725
17.64167,730
17.65000,737
17.65833,743
17.66667,748
17.67500,754
17.68333,759
17.69167,765
17.70000,770
17.70833,775
17.71667,781
17.72500,786
17.73333,790
17.74167,794
17.75000,798
17.75833,802
17.76667,806
17.77500,810
17.78333,813
17.79167,816
17.80000,819
17.80833,821
17.81667,823
17.82500,824
17.83333,826
17.84167,827
17.85000,827
17.85833,827
17.86667,827
17.87500,826
17.88333,825
17.89167,823
17.90000,822
17.90833,820
17.91667,817
17.92500,815
17.93333,812
17.94167,808
17.95000,805
17.95833,801
17.96667,796
17.97500,790
17.98333,785
17.99167,779
18.00000,774
18.00833,768
18.01667,761
18.02500,755
18.03333,748
18.04167,741
18.05000,734
18.05833,727
18.06667,720
18.07500,713
18.08333,705
18.09167,698
18.10000,690
18.10833,683
18.11667,675
18.12500,668
18.13333,660
18.14167,652
18.15000,645
18.15833,637
18.16667,630
18.17500,624
18.18333,617
18.19167,611
18.20000,604
18.20833,597
18.21667,591
18.22500,585
18.23333,580
18.24167,574
18.25000,569
18.25833,564
18.26667,559
18.27500,555
18.28333,551
18.29167,547
18.30000,544
18.30833,541
18.31667,538
18.32500,536
18.33333,534
18.34167,531
18.35000,530
18.35833,528
18.36667,527
18.37500,526
18.38333,525
18.39167,525
18.40000,525
18.40833,526
18.41667,527
18.42500,528
18.43333,530
18.44167,532
18.45000,535
18.45833,537
18.46667,539
18.47500,542
18.48333,545
18.49167,548
18.50000,551
18.50833,555
18.51667,559
18.52500,563
18.53333,567
18.54167,572
18.55000,577
18.55833,581
18.56667,586
18.57500,591
18.58333,596
18.59167,601
18.60000,606
18.60833,612
18.61667,617
18.62500,622
18.63333,627
18.64167,633
18.65000,638
18.65833,643
18.66667,649
18.67500,654
18.68333,660
18.69167,665
18.70000,671
18.70833,676
18.71667,681
18.72500,686
18.73333,690
18.74167,695
18.75000,700
18.75833,704
18.76667,709
18.77500,713
18.78333,718
18.79167,722
18.80000,727
18.80833,731
18.81667,735
18.82500,738
18.83333,742
18.84167,746
18.85000,749
18.85833,752
18.86667,756
18.87500,759
18.88333,762
18.89167,765
18.90000,767
18.90833,770
18.91667,772
18.92500,775
18.93333,777
18.94167,779
18.95000,781
18.95833,783
18.96667,784
18.97500,785
18.98333,786
18.99167,787
19.00000,788
19.00833,789
19.01667,790
19.02500,791
19.03333,791
19.04167,791
19.05000,791
19.05833,791
19.06667,791
19.07500,790
19.08333,789
19.09167,788
19.10000,787
19.10833,786
19.11667,784
19.12500,782
19.13333,780
19.14167,778
19.15000,777
19.15833,774
19.16667,772
19.17500,770
19.18333,766
19.19167,763
19.20000,759
19.20833,755
19.21667,752
19.22500,748
19.23333,744
19.24167,740
19.25000,735
19.25833,731
19.26667,726
19.27500,722
19.28333,717
19.29167,711
19.30000,706
19.30833,700
19.31667,695
19.32500,689
19.33333,683
19.34167,677
19.35000,671
19.35833,666
19.36667,660
19.37500,654
19.38333,648
19.39167,642
19.40000,635
19.40833,628
19.41667,622
19.42500,615
19.43333,609
19.44167,602
19.45000,595
19.45833,589
19.46667,582
19.47500,576
19.48333,569
19.49167,563
19.50000,557
19.50833,550
19.51667,544
19.52500,538
19.53333,532
19.54167,525
19.55000,519
19.55833,513
19.56667,508
19.57500,502
19.58333,496
19.59167,491
19.60000,485
19.60833,480
19.61667,475
19.62500,470
19.63333,466
19.64167,462
19.65000,458
19.65833,454
19.66667,451
19.67500,447
19.68333,444
19.69167,442
19.70000,439
19.70833,436
19.71667,434
19.72500,433
19.73333,432
19.74167,431
19.75000,431
19.75833,431
19.76667,432
19.77500,433
19.78333,435
19.79167,437
19.80000,440
19.80833,444
19.81667,448
19.82500,453
19.83333,458
19.84167,463
19.85000,470
19.85833,477
19.86667,484
19.87500,493
19.88333,502
19.89167,512
19.90000,523
19.90833,534
19.91667,546
19.92500,558
19.93333,571
19.94167,585
19.95000,599
19.95833,613
19.96667,629
19.97500,645
19.98333,661
19.99167,677
20.00000,693
20.00833,710
20.01667,727
20.02500,744
20.03333,761
20.04167,778
20.05000,795
20.05833,812
20.06667,828
20.07500,845
20.08333,862
20.09167,878
20.10000,894
20.10833,910
20.11667,925
20.12500,939
20.13333,953
20.14167,967
20.15000,980
20.15833,992
20.16667,1004
20.17500,1015
20.18333,1025
20.19167,1035
20.20000,1044
20.20833,1052
20.21667,1060
20.22500,1067
20.23333,1073
20.24167,1079
20.25000,1083
20.25833,1087
20.26667,1090
20.27500,1092
20.28333,1094
20.29167,1095
20.30000,1095
20.30833,1094
20.31667,1094
20.32500,1092
20.33333,1089
20.34167,1085
20.35000,1082
20.35833,1077
20.36667,1073
20.37500,1067
20.38333,1062
20.39167,1055
20.40000,1048
20.40833,1041
20.41667,1033
20.42500,1025
20.43333,1016
20.44167,1008
20.45000,999
20.45833,990
20.46667,980
20.47500,971
20.48333,962
20.49167,953
20.50000,944
20.50833,935
20.51667,926
20.52500,917
20.53333,910
20.54167,902
20.55000,894
20.55833,887
20.56667,880
20.57500,873
20.58333,868
20.59167,862
20.60000,857
20.60833,852
20.61667,848
20.62500,845
20.63333,842
20.64167,839
20.65000,837
20.65833,835
20.66667,834
20.67500,833
20.68333,833
20.69167,832
20.70000,832
20.70833,833
20.71667,833
20.72500,834
20.73333,834
20.74167,835
20.75000,837
20.75833,839
20.76667,840
20.77500,842
20.78333,843
20.79167,845
20.80000,846
20.80833,847
20.81667,849
20.82500,850
20.83333,851
20.84167,852
20.85000,852
20.85833,853
20.86667,854
20.87500,854
20.88333,854
20.89167,855
20.90000,855
20.90833,854
20.91667,854
20.92500,853
20.93333,852
20.94167,851
20.95000,850
20.95833,848
20.96667,847
20.97500,845
20.98333,843
20.99167,841
21.00000,839
21.00833,836
21.01667,833
21.02500,831
21.03333,828
21.04167,825
21.05000,822
21.05833,819
21.06667,815
21.07500,812
21.08333,809
21.09167,806
21.10000,803
21.10833,799
21.11667,796
21.12500,793
21.13333,789
21.14167,786
21.15000,783
21.15833,780
21.16667,778
21.17500,775
21.18333,773
21.19167,770
21.20000,768
21.20833,766
21.21667,764
21.22500,763
21.23333,762
21.24167,760
21.25000,758
21.25833,757
21.26667,756
21.27500,755
21.28333,754
21.29167,754
21.30000,753
21.30833,753
21.31667,752
21.32500,752
21.33333,752
21.34167,752
21.35000,752
21.35833,753
21.36667,754
21.37500,754
21.38333,755
21.39167,757
21.40000,759
21.40833,761
21.41667,763
21.42500,765
21.43333,768
21.44167,771
21.45000,774
21.45833,778
21.46667,782
21.47500,787
21.48333,791
21.49167,797
21.50000,802
21.50833,808
21.51667,815
21.52500,822
21.53333,829
21.54167,836
21.55000,843
21.55833,851
21.56667,859
21.57500,867
21.58333,876
21.59167,884
21.60000,892
21.60833,901
21.61667,909
21.62500,917
21.63333,926
21.64167,934
21.65000,942
21.65833,949
21.66667,957
21.67500,964
21.68333,971
21.69167,977
21.70000,983
21.70833,989
21.71667,994
21.72500,999
21.73333,1003
21.74167,1007
21.75000,1010
21.75833,1013
21.76667,1015
21.77500,1017
21.78333,1018
21.79167,1019
21.80000,1020
21.80833,1020
21.81667,1019
21.82500,1018
21.83333,1017
21.84167,1016
21.85000,1014
21.85833,1012
21.86667,1009
21.87500,1006
21.88333,1003
21.89167,999
21.90000,995
21.90833,991
21.91667,986
21.92500,982
21.93333,977
21.94167,971
21.95000,965
21.95833,959
21.96667,952
21.97500,945
21.98333,937
21.99167,929
22.00000,921
22.00833,912
22.01667,903
22.02500,893
22.03333,883
22.04167,872
22.05000,862
22.05833,851
22.06667,839
22.07500,827
22.08333,814
22.09167,801
22.10000,788
22.10833,774
22.11667,760
22.12500,746
22.13333,732
22.14167,718
22.15000,704
22.15833,689
22.16667,675
22.17500,660
22.18333,645
22.19167,630
22.20000,615
22.20833,600
22.21667,586
22.22500,572
22.23333,557
22.24167,543
22.25000,530
22.25833,516
22.26667,504
22.27500,492
22.28333,480
22.29167,468
22.30000,457
22.30833,446
22.31667,435
22.32500,425
22.33333,416
22.34167,407
22.35000,398
22.35833,389
22.36667,381
22.37500,374
22.38333,367
22.39167,360
22.40000,354
22.40833,348
22.41667,343
22.42500,337
22.43333,332
22.44167,328
22.45000,324
22.45833,320
22.46667,316
22.47500,313
22.48333,310
22.49167,307
22.50000,305
22.50833,303
22.51667,301
22.52500,299
22.53333,297
22.54167,295
22.55000,294
22.55833,293
22.56667,292
22.57500,291
22.58333,290
22.59167,290
22.60000,290
22.60833,290
22.61667,289
22.62500,290
22.63333,290
22.64167,290
22.65000,291
22.65833,292
22.66667,292
22.67500,293
22.68333,294
22.69167,295
22.70000,296
22.70833,298
22.71667,299
22.72500,301
22.73333,302
22.74167,303
22.75000,305
22.75833,306
22.76667,308
22.77500,309
22.78333,311
22.79167,313
22.80000,314
22.80833,316
22.81667,318
22.82500,320
22.83333,322
22.84167,323
22.85000,325
22.85833,327
22.86667,329
22.87500,331
22.88333,333
22.89167,335
22.90000,337
22.90833,339
22.91667,341
22.92500,343
22.93333,344
22.94167,346
22.95000,348
22.95833,350
22.96667,352
22.97500,354
22.98333,356
22.99167,358
23.00000,359
23.00833,360
23.01667,362
23.02500,363
23.03333,364
23.04167,366
23.05000,368
23.05833,370
23.06667,372
23.07500,373
23.08333,374
23.09167,375
23.10000,376
23.10833,377
23.11667,378
23.12500,379
23.13333,380
23.14167,380
23.15000,381
23.15833,381
23.16667,382
23.17500,382
23.18333,382
23.19167,383
23.20000,383
23.20833,384
23.21667,384
23.22500,384
23.23333,384
23.24167,384
23.25000,384
23.25833,384
23.26667,383
23.27500,383
23.28333,383
23.29167,383
23.30000,383
23.30833,383
23.31667,383
23.32500,383
23.33333,383
23.34167,383
23.35000,383
23.35833,383
23.36667,383
23.37500,383
23.38333,382
23.39167,382
23.40000,382
23.40833,381
23.41667,381
23.42500,381
23.43333,381
23.44167,381
23.45000,381
23.45833,381
23.46667,381
23.47500,381
23.48333,382
23.49167,382
23.50000,382
23.50833,382
23.51667,382
23.52500,382
23.53333,382
23.54167,381
23.55000,381
23.55833,382
23.56667,382
23.57500,382
23.58333,382
23.59167,382
23.60000,382
23.60833,382
23.61667,382
23.62500,382
23.63333,382
23.64167,382
23.65000,382
23.65833,382
23.66667,382
23.67500,382
23.68333,382
23.69167,382
23.70000,382
23.70833,382
23.71667,382
23.72500,382
23.73333,382
23.74167,382
23.75000,382
23.75833,382
23.76667,382
23.77500,382
23.78333,381
23.79167,381
23.80000,381
23.80833,381
23.81667,380
23.82500,380
23.83333,379
23.84167,379
23.85000,378
23.85833,378
23.86667,378
23.87500,377
23.88333,377
23.89167,376
23.90000,375
23.90833,375
23.91667,374
23.92500,373
23.93333,373
23.94167,372
23.95000,371
23.95833,370
23.96667,370
23.97500,369
23.98333,368
23.99167,367
24.00000,367
24.00833,366
24.01667,365
24.02500,364
24.03333,364
24.04167,363
24.05000,363
24.05833,362
24.06667,361
24.07500,360
24.08333,360
24.09167,359
24.10000,358
24.10833,357
24.11667,356
24.12500,355
24.13333,354
24.14167,354
24.15000,353
24.15833,352
24.16667,352
24.17500,351
24.18333,351
24.19167,350
24.20000,350
24.20833,349
24.21667,349
24.22500,348
24.23333,348
24.24167,348
24.25000,348
24.25833,348
24.26667,348
24.27500,348
24.28333,348
24.29167,349
24.30000,349
24.30833,350
24.31667,351
24.32500,352
24.33333,353
24.34167,354
24.35000,356
24.35833,358
24.36667,360
24.37500,363
24.38333,367
24.39167,371
24.40000,375
24.40833,381
24.41667,387
24.42500,394
24.43333,402
24.44167,411
24.45000,421
24.45833,432
24.46667,445
24.47500,458
24.48333,473
24.49167,489
24.50000,507
24.50833,527
24.51667,548
24.52500,572
24.53333,597
24.54167,625
24.55000,654
24.55833,685
24.56667,719
24.57500,755
24.58333,793
24.59167,834
24.60000,877
24.60833,923
24.61667,970
24.62500,1021
24.63333,1073
24.64167,1128
24.65000,1185
24.65833,1244
24.66667,1304
24.67500,1367
24.68333,1431
24.69167,1497
24.70000,1564
24.70833,1633
24.71667,1702
24.72500,1773
24.73333,1844
24.74167,1917
24.75000,1990
24.75833,2063
24.76667,2136
24.77500,2209
24.78333,2282
24.79167,2354
24.80000,2426
24.80833,2497
24.81667,2567
24.82500,2635
24.83333,2703
24.84167,2769
24.85000,2834
24.85833,2896
24.86667,2957
24.87500,3017
24.88333,3074
24.89167,3129
24.90000,3182
24.90833,3233
24.91667,3282
24.92500,3329
24.93333,3374
24.94167,3417
24.95000,3458
24.95833,3497
24.96667,3533
24.97500,3567
24.98333,3599
24.99167,3628
25.00000,3655
25.00833,3680
25.01667,3702
25.02500,3721
25.03333,3739
25.04167,3753
25.05000,3766
25.05833,3775
25.06667,3782
25.07500,3787
25.08333,3788
25.09167,3788
25.10000,3784
25.10833,3778
25.11667,3768
25.12500,3756
25.13333,3741
25.14167,3723
25.15000,3701
25.15833,3677
25.16667,3650
25.17500,3620
25.18333,3587
25.19167,3551
25.20000,3512
25.20833,3471
25.21667,3427
25.22500,3381
25.23333,3332
25.24167,3280
25.25000,3226
25.25833,3170
25.26667,3112
25.27500,3052
25.28333,2990
25.29167,2926
25.30000,2862
25.30833,2796
25.31667,2729
25.32500,2661
25.33333,2592
25.34167,2522
25.35000,2453
25.35833,2383
25.36667,2313
25.37500,2243
25.38333,2174
25.39167,2105
25.40000,2037
25.40833,1969
25.41667,1902
25.42500,1837
25.43333,1772
25.44167,1709
25.45000,1647
25.45833,1587
25.46667,1528
25.47500,1470
25.48333,1414
25.49167,1360
25.50000,1307
25.50833,1257
25.51667,1208
25.52500,1161
25.53333,1116
25.54167,1073
25.55000,1032
25.55833,992
25.56667,955
25.57500,919
25.58333,884
25.59167,852
25.60000,820
25.60833,791
25.61667,763
25.62500,736
25.63333,710
25.64167,686
25.65000,663
25.65833,641
25.66667,621
25.67500,602
25.68333,584
25.69167,567
25.70000,551
25.70833,536
25.71667,522
25.72500,509
25.73333,496
25.74167,484
25.75000,473
25.75833,462
25.76667,452
25.77500,442
25.78333,432
25.79167,423
25.80000,415
25.80833,407
25.81667,400
25.82500,393
25.83333,386
25.84167,379
25.85000,372
25.85833,365
25.86667,359
25.87500,353
25.88333,347
25.89167,342
25.90000,336
25.90833,331
25.91667,325
25.92500,320
25.93333,314
25.94167,309
25.95000,304
25.95833,299
25.96667,295
25.97500,290
25.98333,286
25.99167,281
26.00000,277
26.00833,272
26.01667,267
26.02500,263
26.03333,258
26.04167,253
26.05000,248
26.05833,244
26.06667,239
26.07500,235
26.08333,230
26.09167,226
26.10000,221
26.10833,217
26.11667,213
26.12500,209
26.13333,205
26.14167,201
26.15000,197
26.15833,194
26.16667,190
26.17500,186
26.18333,182
26.19167,179
26.20000,176
26.20833,173
26.21667,171
26.22500,168
26.23333,165
26.24167,161
26.25000,159
26.25833,156
26.26667,154
26.27500,151
26.28333,149
26.29167,146
26.30000,144
26.30833,142
26.31667,140
26.32500,139
26.33333,137
26.34167,136
26.35000,134
26.35833,133
26.36667,132
26.37500,130
26.38333,129
26.39167,128
26.40000,127
26.40833,126
26.41667,124
26.42500,123
26.43333,122
26.44167,122
26.45000,121
26.45833,120
26.46667,120
26.47500,119
26.48333,119
26.49167,119
26.50000,119
26.50833,118
26.51667,118
26.52500,117
26.53333,117
26.54167,117
26.55000,117
26.55833,116
26.56667,116
26.57500,116
26.58333,116
26.59167,116
26.60000,116
26.60833,116
26.61667,116
26.62500,116
26.63333,116
26.64167,116
26.65000,116
26.65833,116
26.66667,116
26.67500,116
26.68333,116
26.69167,116
26.70000,116
26.70833,117
26.71667,117
26.72500,118
26.73333,118
26.74167,118
26.75000,118
26.75833,117
26.76667,117
26.77500,117
26.78333,117
26.79167,117
26.80000,117
26.80833,118
26.81667,117
26.82500,117
26.83333,117
26.84167,117
26.85000,118
26.85833,118
26.86667,118
26.87500,119
26.88333,119
26.89167,119
26.90000,119
26.90833,119
26.91667,119
26.92500,119
26.93333,119
26.94167,119
26.95000,119
26.95833,120
26.96667,120
26.97500,120
26.98333,121
26.99167,121
27.00000,122
27.00833,122
27.01667,122
27.02500,122
27.03333,122
27.04167,122
27.05000,122
27.05833,122
27.06667,122
27.07500,122
27.08333,122
27.09167,122
27.10000,122
27.10833,122
27.11667,122
27.12500,122
27.13333,122
27.14167,122
27.15000,122
27.15833,123
27.16667,123
27.17500,123
27.18333,123
27.19167,123
27.20000,123
27.20833,123
27.21667,123
27.22500,124
27.23333,124
27.24167,124
27.25000,123
27.25833,123
27.26667,123
27.27500,123
27.28333,123
27.29167,123
27.30000,123
27.30833,123
27.31667,122
27.32500,123
27.33333,123
27.34167,123
27.35000,123
27.35833,122
27.36667,121
27.37500,121
27.38333,121
27.39167,121
27.40000,121
27.40833,121
27.41667,121
27.42500,121
27.43333,121
27.44167,120
27.45000,120
27.45833,119
27.46667,118
27.47500,118
27.48333,118
27.49167,118
27.50000,117
27.50833,117
27.51667,116
27.52500,116
27.53333,116
27.54167,115
27.55000,114
27.55833,114
27.56667,114
27.57500,113
27.58333,112
27.59167,112
27.60000,111
27.60833,111
27.61667,110
27.62500,109
27.63333,108
27.64167,107
27.65000,106
27.65833,106
27.66667,106
27.67500,105
27.68333,104
27.69167,103
27.70000,103
27.70833,102
27.71667,101
27.72500,100
27.73333,99
27.74167,98
27.75000,97
27.75833,96
27.76667,95
27.77500,95
27.78333,94
27.79167,94
27.80000,93
27.80833,92
27.81667,91
27.82500,91
27.83333,90
27.84167,90
27.85000,89
27.85833,89
27.86667,88
27.87500,87
27.88333,86
27.89167,85
27.90000,85
27.90833,84
27.91667,83
27.92500,82
27.93333,82
27.94167,81
27.95000,81
27.95833,80
27.96667,80
27.97500,80
27.98333,79
27.99167,79
28.00000,79
28.00833,79
28.01667,80
28.02500,80
28.03333,80
28.04167,80
28.05000,80
28.05833,80
28.06667,80
28.07500,80
28.08333,80
28.09167,80
28.10000,80
28.10833,81
28.11667,81
28.12500,81
28.13333,81
28.14167,81
28.15000,81
28.15833,81
28.16667,81
28.17500,81
28.18333,81
28.19167,82
28.20000,82
28.20833,82
28.21667,82
28.22500,82
28.23333,82
28.24167,83
28.25000,83
28.25833,84
28.26667,84
28.27500,84
28.28333,84
28.29167,85
28.30000,85
28.30833,86
28.31667,87
28.32500,88
28.33333,89
28.34167,90
28.35000,91
28.35833,93
28.36667,94
28.37500,96
28.38333,99
28.39167,101
28.40000,104
28.40833,106
28.41667,110
28.42500,113
28.43333,117
28.44167,122
28.45000,126
28.45833,131
28.46667,137
28.47500,143
28.48333,150
28.49167,157
28.50000,165
28.50833,174
28.51667,184
28.52500,195
28.53333,206
28.54167,218
28.55000,232
28.55833,246
28.56667,262
28.57500,279
28.58333,297
28.59167,316
28.60000,337
28.60833,359
28.61667,382
28.62500,406
28.63333,432
28.64167,460
28.65000,489
28.65833,518
28.66667,550
28.67500,583
28.68333,617
28.69167,653
28.70000,690
28.70833,729
28.71667,770
28.72500,812
28.73333,855
28.74167,899
28.75000,945
28.75833,992
28.76667,1039
28.77500,1088
28.78333,1137
28.79167,1188
28.80000,1239
28.80833,1291
28.81667,1344
28.82500,1397
28.83333,1451
28.84167,1505
28.85000,1558
28.85833,1612
28.86667,1666
28.87500,1720
28.88333,1774
28.89167,1827
28.90000,1879
28.90833,1931
28.91667,1983
28.92500,2033
28.93333,2082
28.94167,2131
28.95000,2178
28.95833,2224
28.96667,2269
28.97500,2313
28.98333,2355
28.99167,2396
29.00000,2436
29.00833,2474
29.01667,2511
29.02500,2545
29.03333,2579
29.04167,2610
29.05000,2640
29.05833,2668
29.06667,2695
29.07500,2720
29.08333,2744
29.09167,2766
29.10000,2786
29.10833,2805
29.11667,2822
29.12500,2838
29.13333,2852
29.14167,2864
29.15000,2875
29.15833,2884
29.16667,2891
29.17500,2897
29.18333,2903
29.19167,2906
29.20000,2909
29.20833,2909
29.21667,2909
29.22500,2907
29.23333,2903
29.24167,2898
29.25000,2891
29.25833,2883
29.26667,2874
29.27500,2864
29.28333,2852
29.29167,2839
29.30000,2824
29.30833,2807
29.31667,2789
29.32500,2770
29.33333,2749
29.34167,2726
29.35000,2702
29.35833,2677
29.36667,2650
29.37500,2622
29.38333,2592
29.39167,2561
29.40000,2529
29.40833,2496
29.41667,2461
29.42500,2425
29.43333,2387
29.44167,2349
29.45000,2309
29.45833,2268
29.46667,2227
29.47500,2184
29.48333,2140
29.49167,2095
29.50000,2050
29.50833,2004
29.51667,1958
29.52500,1911
29.53333,1864
29.54167,1816
29.55000,1768
29.55833,1719
29.56667,1671
29.57500,1623
29.58333,1575
29.59167,1527
29.60000,1479
29.60833,1431
29.61667,1385
29.62500,1339
29.63333,1293
29.64167,1248
29.65000,1203
29.65833,1159
29.66667,1115
29.67500,1073
29.68333,1031
29.69167,991
29.70000,951
29.70833,913
29.71667,875
29.72500,838
29.73333,803
29.74167,768
29.75000,735
29.75833,703
29.76667,672
29.77500,642
29.78333,613
29.79167,585
29.80000,558
29.80833,532
29.81667,508
29.82500,485
29.83333,463
29.84167,441
29.85000,421
29.85833,402
29.86667,383
29.87500,365
29.88333,349
29.89167,333
29.90000,318
29.90833,303
29.91667,290
29.92500,278
29.93333,266
29.94167,255
29.95000,245
29.95833,235
29.96667,225
29.97500,216
29.98333,208
29.99167,201
30.00000,194
30.00833,187
30.01667,181
30.02500,175
30.03333,169
30.04167,164
30.05000,160
30.05833,155
30.06667,151
30.07500,147
30.08333,144
30.09167,140
30.10000,137
30.10833,134
30.11667,132
30.12500,129
30.13333,127
30.14167,125
30.15000,124
30.15833,122
30.16667,120
30.17500,119
30.18333,117
30.19167,116
30.20000,115
30.20833,114
30.21667,113
30.22500,112
30.23333,111
30.24167,111
30.25000,110
30.25833,109
30.26667,108
30.27500,108
30.28333,108
30.29167,107
30.30000,106
30.30833,106
30.31667,105
30.32500,105
30.33333,105
30.34167,104
30.35000,104
30.35833,104
30.36667,104
30.37500,104
30.38333,104
30.39167,104
30.40000,104
30.40833,104
30.41667,105
30.42500,105
30.43333,106
30.44167,106
30.45000,107
30.45833,107
30.46667,108
30.47500,108
30.48333,108
30.49167,109
30.50000,110
30.50833,110
30.51667,111
30.52500,112
30.53333,113
30.54167,114
30.55000,115
30.55833,116
30.56667,117
30.57500,117
30.58333,119
30.59167,120
30.60000,122
30.60833,123
30.61667,124
30.62500,125
30.63333,127
30.64167,129
30.65000,130
30.65833,132
30.66667,134
30.67500,135
30.68333,136
30.69167,138
30.70000,140
30.70833,141
30.71667,143
30.72500,145
30.73333,146
30.74167,148
30.75000,150
30.75833,151
30.76667,153
30.77500,155
30.78333,157
30.79167,158
30.80000,160
30.80833,162
30.81667,163
30.82500,165
30.83333,167
30.84167,168
30.85000,170
30.85833,171
30.86667,173
30.87500,175
30.88333,177
30.89167,179
30.90000,181
30.90833,182
30.91667,184
30.92500,185
30.93333,186
30.94167,188
30.95000,189
30.95833,190
30.96667,191
30.97500,192
30.98333,193
30.99167,194
31.00000,195
31.00833,196
31.01667,196
31.02500,197
31.03333,197
31.04167,198
31.05000,199
31.05833,200
31.06667,200
31.07500,201
31.08333,202
31.09167,202
31.10000,203
31.10833,203
31.11667,203
31.12500,203
31.13333,203
31.14167,204
31.15000,204
31.15833,204
31.16667,204
31.17500,204
31.18333,204
31.19167,204
31.20000,203
31.20833,203
31.21667,203
31.22500,202
31.23333,202
31.24167,201
31.25000,201
31.25833,200
31.26667,199
31.27500,198
31.28333,197
31.29167,196
31.30000,195
31.30833,194
31.31667,193
31.32500,192
31.33333,191
31.34167,190
31.35000,189
31.35833,188
31.36667,187
31.37500,186
31.38333,185
31.39167,184
31.40000,182
31.40833,181
31.41667,180
31.42500,179
31.43333,177
31.44167,176
31.45000,174
31.45833,173
31.46667,171
31.47500,170
31.48333,168
31.49167,167
31.50000,166
31.50833,165
31.51667,163
31.52500,163
31.53333,162
31.54167,161
31.55000,159
31.55833,158
31.56667,157
31.57500,156
31.58333,155
31.59167,154
31.60000,153
31.60833,152
31.61667,152
31.62500,151
31.63333,150
31.64167,150
31.65000,150
31.65833,151
31.66667,151
31.67500,151
31.68333,152
31.69167,152
31.70000,153
31.70833,154
31.71667,155
31.72500,156
31.73333,157
31.74167,159
31.75000,161
31.75833,163
31.76667,165
31.77500,167
31.78333,169
31.79167,172
31.80000,175
31.80833,178
31.81667,181
31.82500,185
31.83333,188
31.84167,193
31.85000,197
31.85833,202
31.86667,207
31.87500,212
31.88333,217
31.89167,222
31.90000,228
31.90833,233
31.91667,239
31.92500,244
31.93333,250
31.94167,256
31.95000,263
31.95833,269
31.96667,275
31.97500,282
31.98333,288
31.99167,295
32.00000,302
32.00833,308
32.01667,315
32.02500,322
32.03333,329
32.04167,335
32.05000,342
32.05833,350
32.06667,357
32.07500,364
32.08333,370
32.09167,377
32.10000,383
32.10833,390
32.11667,396
32.12500,403
32.13333,410
32.14167,416
32.15000,422
32.15833,428
32.16667,435
32.17500,441
32.18333,447
32.19167,452
32.20000,458
32.20833,463
32.21667,468
32.22500,474
32.23333,479
32.24167,483
32.25000,488
32.25833,492
32.26667,497
32.27500,501
32.28333,505
32.29167,509
32.30000,513
32.30833,517
32.31667,521
32.32500,524
32.33333,528
32.34167,531
32.35000,535
32.35833,538
32.36667,541
32.37500,543
32.38333,546
32.39167,548
32.40000,550
32.40833,552
32.41667,554
32.42500,556
32.43333,557
32.44167,558
32.45000,559
32.45833,560
32.46667,561
32.47500,562
32.48333,562
32.49167,562
32.50000,562
32.50833,562
32.51667,562
32.52500,562
32.53333,561
32.54167,560
32.55000,559
32.55833,558
32.56667,557
32.57500,555
32.58333,553
32.59167,551
32.60000,549
32.60833,546
32.61667,544
32.62500,542
32.63333,539
32.64167,536
32.65000,533
32.65833,530
32.66667,527
32.67500,524
32.68333,520
32.69167,517
32.70000,513
32.70833,509
32.71667,505
32.72500,501
32.73333,497
32.74167,493
32.75000,489
32.75833,485
32.76667,481
32.77500,477
32.78333,474
32.79167,470
32.80000,466
32.80833,462
32.81667,458
32.82500,455
32.83333,451
32.84167,447
32.85000,443
32.85833,440
32.86667,436
32.87500,433
32.88333,430
32.89167,428
32.90000,425
32.90833,422
32.91667,419
32.92500,416
32.93333,414
32.94167,412
32.95000,410
32.95833,408
32.96667,406
32.97500,404
32.98333,403
32.99167,401
33.00000,400
33.00833,398
33.01667,397
33.02500,395
33.03333,394
33.04167,393
33.05000,392
33.05833,391
33.06667,391
33.07500,390
33.08333,389
33.09167,388
33.10000,388
33.10833,388
33.11667,387
33.12500,387
33.13333,387
33.14167,386
33.15000,386
33.15833,385
33.16667,385
33.17500,384
33.18333,383
33.19167,383
33.20000,382
33.20833,381
33.21667,381
33.22500,380
33.23333,379
33.24167,378
33.25000,377
33.25833,377
33.26667,376
33.27500,374
33.28333,373
33.29167,372
33.30000,371
33.30833,369
33.31667,367
33.32500,366
33.33333,364
33.34167,363
33.35000,361
33.35833,360
33.36667,358
33.37500,356
33.38333,354
33.39167,352
33.40000,350
33.40833,348
33.41667,346
33.42500,344
33.43333,342
33.44167,339
33.45000,336
33.45833,334
33.46667,331
33.47500,328
33.48333,325
33.49167,322
33.50000,319
33.50833,316
33.51667,313
33.52500,310
33.53333,307
33.54167,303
33.55000,300
33.55833,296
33.56667,293
33.57500,289
33.58333,285
33.59167,282
33.60000,278
33.60833,275
33.61667,271
33.62500,268
33.63333,264
33.64167,260
33.65000,257
33.65833,253
33.66667,249
33.67500,245
33.68333,241
33.69167,237
33.70000,232
33.70833,228
33.71667,224
33.72500,220
33.73333,216
33.74167,212
33.75000,208
33.75833,204
33.76667,200
33.77500,196
33.78333,192
33.79167,188
33.80000,184
33.80833,180
33.81667,176
33.82500,172
33.83333,168
33.84167,164
33.85000,160
33.85833,157
33.86667,153
33.87500,149
33.88333,146
33.89167,142
33.90000,138
33.90833,135
33.91667,131
33.92500,128
33.93333,124
33.94167,121
33.95000,118
33.95833,114
33.96667,111
33.97500,108
33.98333,105
33.99167,103
34.00000,99
34.00833,97
34.01667,94
34.02500,91
34.03333,89
34.04167,87
34.05000,84
34.05833,82
34.06667,80
34.07500,78
34.08333,76
34.09167,74
34.10000,72
34.10833,70
34.11667,68
34.12500,66
34.13333,64
34.14167,62
34.15000,60
34.15833,59
34.16667,57
34.17500,56
34.18333,54
34.19167,53
34.20000,52
34.20833,51
34.21667,50
34.22500,49
34.23333,47
34.24167,46
34.25000,45
34.25833,44
34.26667,43
34.27500,42
34.28333,41
34.29167,41
34.30000,40
34.30833,39
34.31667,38
34.32500,37
34.33333,37
34.34167,36
34.35000,35
34.35833,34
34.36667,33
34.37500,33
34.38333,32
34.39167,32
34.40000,31
34.40833,31
34.41667,30
34.42500,30
34.43333,30
34.44167,29
34.45000,29
34.45833,28
34.46667,27
34.47500,27
34.48333,27
34.49167,27
34.50000,26
34.50833,26
34.51667,25
34.52500,24
34.53333,24
34.54167,24
34.55000,23
34.55833,23
34.56667,23
34.57500,23
34.58333,23
34.59167,22
34.60000,22
34.60833,22
34.61667,22
34.62500,22
34.63333,21
34.64167,21
34.65000,21
34.65833,21
34.66667,20
34.67500,20
34.68333,19
34.69167,19
34.70000,18
34.70833,18
34.71667,17
34.72500,17
34.73333,17
34.74167,17
34.75000,17
34.75833,16
34.76667,16
34.77500,16
34.78333,16
34.79167,16
34.80000,15
34.80833,15
34.81667,14
34.82500,14
34.83333,14
34.84167,13
34.85000,13
34.85833,13
34.86667,13
34.87500,13
34.88333,13
34.89167,13
34.90000,13
34.90833,12
34.91667,12
34.92500,12
34.93333,12
34.94167,12
34.95000,12
34.95833,12
34.96667,12
34.97500,12
34.98333,12
34.99167,12
35.00000,11
35.00833,11
35.01667,11
35.02500,11
35.03333,11
35.04167,11
35.05000,11
35.05833,11
35.06667,11
35.07500,11
35.08333,11
35.09167,12
35.10000,12
35.10833,13
35.11667,13
35.12500,13
35.13333,13
35.14167,14
35.15000,14
35.15833,13
35.16667,13
35.17500,13
35.18333,14
35.19167,14
35.20000,15
35.20833,16
35.21667,16
35.22500,17
35.23333,17
35.24167,18
35.25000,18
35.25833,19
35.26667,20
35.27500,20
35.28333,21
35.29167,21
35.30000,21
35.30833,22
35.31667,22
35.32500,23
35.33333,23
35.34167,24
35.35000,24
35.35833,25
35.36667,25
35.37500,26
35.38333,27
35.39167,28
35.40000,29
35.40833,29
35.41667,30
35.42500,31
35.43333,32
35.44167,33
35.45000,34
35.45833,35
35.46667,35
35.47500,36
35.48333,37
35.49167,38
35.50000,38
35.50833,39
35.51667,40
35.52500,41
35.53333,42
35.54167,42
35.55000,43
35.55833,44
35.56667,45
35.57500,46
35.58333,47
35.59167,47
35.60000,48
35.60833,48
35.61667,49
35.62500,50
35.63333,51
35.64167,52
35.65000,53
35.65833,53
35.66667,53
35.67500,54
35.68333,54
35.69167,55
35.70000,55
35.70833,56
35.71667,57
35.72500,57
35.73333,57
35.74167,58
35.75000,59
35.75833,60
35.76667,60
35.77500,61
35.78333,62
35.79167,62
35.80000,63
35.80833,63
35.81667,64
35.82500,64
35.83333,65
35.84167,66
35.85000,66
35.85833,67
35.86667,67
35.87500,67
35.88333,67
35.89167,67
35.90000,67
35.90833,67
35.91667,67
35.92500,67
35.93333,68
35.94167,68
35.95000,68
35.95833,69
35.96667,69
35.97500,69
35.98333,69
35.99167,69
36.00000,70
36.00833,70
36.01667,71
36.02500,70
36.03333,70
36.04167,70
36.05000,70
36.05833,70
36.06667,70
36.07500,70
36.08333,71
36.09167,71
36.10000,71
36.10833,71
36.11667,71
36.12500,71
36.13333,71
36.14167,71
36.15000,71
36.15833,71
36.16667,71
36.17500,71
36.18333,70
36.19167,70
36.20000,69
36.20833,69
36.21667,69
36.22500,69
36.23333,69
36.24167,68
36.25000,68
36.25833,68
36.26667,67
36.27500,67
36.28333,66
36.29167,66
36.30000,65
36.30833,65
36.31667,65
36.32500,65
36.33333,65
36.34167,66
36.35000,65
36.35833,65
36.36667,64
36.37500,63
36.38333,63
36.39167,63
36.40000,63
36.40833,63
36.41667,63
36.42500,63
36.43333,62
36.44167,61
36.45000,61
36.45833,60
36.46667,60
36.47500,60
36.48333,59
36.49167,59
36.50000,59
36.50833,58
36.51667,58
36.52500,58
36.53333,58
36.54167,58
36.55000,58
36.55833,57
36.56667,57
36.57500,56
36.58333,56
36.59167,56
36.60000,56
36.60833,57
36.61667,56
36.62500,56
36.63333,56
36.64167,56
36.65000,56
36.65833,56
36.66667,56
36.67500,56
36.68333,56
36.69167,56
36.70000,56
36.70833,56
36.71667,56
36.72500,56
36.73333,56
36.74167,57
36.75000,56
36.75833,56
36.76667,57
36.77500,57
36.78333,57
36.79167,57
36.80000,58
36.80833,58
36.81667,58
36.82500,58
36.83333,58
36.84167,58
36.85000,59
36.85833,60
36.86667,60
36.87500,60
36.88333,60
36.89167,61
36.90000,62
36.90833,62
36.91667,63
36.92500,64
36.93333,64
36.94167,65
36.95000,66
36.95833,67
36.96667,67
36.97500,68
36.98333,68
36.99167,69
37.00000,70
37.00833,70
37.01667,70
37.02500,70
37.03333,71
37.04167,72
37.05000,72
37.05833,73
37.06667,74
37.07500,74
37.08333,75
37.09167,75
37.10000,76
37.10833,77
37.11667,78
37.12500,79
37.13333,79
37.14167,80
37.15000,80
37.15833,81
37.16667,81
37.17500,82
37.18333,83
37.19167,84
37.20000,85
37.20833,86
37.21667,87
37.22500,88
37.23333,89
37.24167,90
37.25000,91
37.25833,91
37.26667,92
37.27500,94
37.28333,95
37.29167,96
37.30000,97
37.30833,98
37.31667,99
37.32500,99
37.33333,100
37.34167,101
37.35000,101
37.35833,102
37.36667,103
37.37500,104
37.38333,105
37.39167,105
37.40000,106
37.40833,107
37.41667,108
37.42500,109
37.43333,110
37.44167,111
37.45000,112
37.45833,112
37.46667,113
37.47500,114
37.48333,115
37.49167,116
37.50000,117
37.50833,118
37.51667,119
37.52500,119
37.53333,120
37.54167,121
37.55000,122
37.55833,123
37.56667,124
37.57500,125
37.58333,125
37.59167,126
37.60000,128
37.60833,129
37.61667,129
37.62500,130
37.63333,130
37.64167,131
37.65000,132
37.65833,132
37.66667,133
37.67500,133
37.68333,133
37.69167,134
37.70000,134
37.70833,135
37.71667,135
37.72500,135
37.73333,136
37.74167,136
37.75000,136
37.75833,137
37.76667,137
37.77500,138
37.78333,138
37.79167,138
37.80000,138
37.80833,138
37.81667,138
37.82500,139
37.83333,139
37.84167,139
37.85000,139
37.85833,138
37.86667,138
37.87500,137
37.88333,137
37.89167,136
37.90000,136
37.90833,136
37.91667,136
37.92500,135
37.93333,135
37.94167,135
37.95000,134
37.95833,134
37.96667,133
37.97500,133
37.98333,133
37.99167,132
38.00000,132
38.00833,131
38.01667,131
38.02500,130
38.03333,129
38.04167,128
38.05000,127
38.05833,127
38.06667,126
38.07500,126
38.08333,125
38.09167,124
38.10000,123
38.10833,122
38.11667,121
38.12500,120
38.13333,119
38.14167,118
38.15000,117
38.15833,116
38.16667,115
38.17500,114
38.18333,113
38.19167,112
38.20000,111
38.20833,110
38.21667,109
38.22500,108
38.23333,107
38.24167,106
38.25000,104
38.25833,103
38.26667,102
38.27500,101
38.28333,99
38.29167,98
38.30000,97
38.30833,95
38.31667,94
38.32500,92
38.33333,91
38.34167,89
38.35000,88
38.35833,86
38.36667,85
38.37500,85
38.38333,83
38.39167,82
38.40000,81
38.40833,80
38.41667,79
38.42500,78
38.43333,77
38.44167,75
38.45000,73
38.45833,72
38.46667,71
38.47500,69
38.48333,68
38.49167,67
38.50000,65
38.50833,64
38.51667,62
38.52500,61
38.53333,59
38.54167,58
38.55000,57
38.55833,55
38.56667,54
38.57500,53
38.58333,51
38.59167,50
38.60000,49
38.60833,48
38.61667,47
38.62500,46
38.63333,45
38.64167,44
38.65000,43
38.65833,42
38.66667,41
38.67500,39
38.68333,38
38.69167,37
38.70000,36
38.70833,34
38.71667,33
38.72500,32
38.73333,32
38.74167,30
38.75000,29
38.75833,28
38.76667,27
38.77500,26
38.78333,25
38.79167,24
38.80000,24
38.80833,23
38.81667,22
38.82500,22
38.83333,21
38.84167,20
38.85000,19
38.85833,18
38.86667,17
38.87500,17
38.88333,16
38.89167,15
38.90000,15
38.90833,14
38.91667,14
38.92500,13
38.93333,13
38.94167,13
38.95000,12
38.95833,12
38.96667,11
38.97500,10
38.98333,10
38.99167,9
39.00000,8
39.00833,8
39.01667,7
39.02500,7
39.03333,7
39.04167,7
39.05000,6
39.05833,6
39.06667,6
39.07500,5
39.08333,5
39.09167,5
39.10000,4
39.10833,4
39.11667,4
39.12500,3
39.13333,3
39.14167,3
39.15000,3
39.15833,3
39.16667,3
39.17500,3
39.18333,2
39.19167,2
39.20000,2
39.20833,2
39.21667,1
39.22500,1
39.23333,1
39.24167,1
39.25000,1
39.25833,1
39.26667,1
39.27500,1
39.28333,1
39.29167,0
39.30000,-0
39.30833,-0
39.31667,-0
39.32500,0
39.33333,1
39.34167,1
39.35000,1
39.35833,1
39.36667,0
39.37500,0
39.38333,0
39.39167,0
39.40000,0
39.40833,0
39.41667,0
39.42500,-0
39.43333,-1
39.44167,-1
39.45000,-1
39.45833,-1
39.46667,-1
39.47500,-0
39.48333,-0
39.49167,-0
39.50000,-1
39.50833,-1
39.51667,-1
39.52500,-1
39.53333,-1
39.54167,-1
39.55000,-1
39.55833,-1
39.56667,-1
39.57500,-1
39.58333,-1
39.59167,-1
39.60000,-1
39.60833,-1
39.61667,-2
39.62500,-1
39.63333,-1
39.64167,-1
39.65000,-1
39.65833,-1
39.66667,-1
39.67500,-1
39.68333,-1
39.69167,-1
39.70000,-1
39.70833,-1
39.71667,-1
39.72500,-1
39.73333,-1
39.74167,-1
39.75000,-1
39.75833,-1
39.76667,-2
39.77500,-2
39.78333,-2
39.79167,-2
39.80000,-2
39.80833,-2
39.81667,-2
39.82500,-2
39.83333,-2
39.84167,-2
39.85000,-2
39.85833,-3
39.86667,-3
39.87500,-3
39.88333,-3
39.89167,-3
39.90000,-3
39.90833,-3
39.91667,-3
39.92500,-3
39.93333,-3
39.94167,-3
39.95000,-3
39.95833,-3
39.96667,-3
39.97500,-3
39.98333,-3
39.99167,-3
40.00000,-3
40.00833,-3
40.01667,-3
40.02500,-2
40.03333,-2
40.04167,-2
40.05000,-3
40.05833,-3
40.06667,-3
40.07500,-3
40.08333,-3
40.09167,-3
40.10000,-2
40.10833,-2
40.11667,-2
40.12500,-2
40.13333,-2
40.14167,-3
40.15000,-3
40.15833,-3
40.16667,-3
40.17500,-3
40.18333,-3
40.19167,-3
40.20000,-3
40.20833,-2
40.21667,-2
40.22500,-2
40.23333,-2
40.24167,-2
40.25000,-1
40.25833,-1
40.26667,-1
40.27500,-1
40.28333,-1
40.29167,-1
40.30000,-1
40.30833,-1
40.31667,-0
40.32500,-0
40.33333,0
40.34167,0
40.35000,0
40.35833,1
40.36667,0
40.37500,0
40.38333,1
40.39167,1
40.40000,1
40.40833,1
40.41667,1
40.42500,2
40.43333,2
40.44167,3
40.45000,3
40.45833,4
40.46667,5
40.47500,5
40.48333,6
40.49167,6
40.50000,6
40.50833,6
40.51667,6
40.52500,7
40.53333,7
40.54167,7
40.55000,7
40.55833,8
40.56667,8
40.57500,9
40.58333,10
40.59167,11
40.60000,12
40.60833,13
40.61667,13
40.62500,14
40.63333,14
40.64167,15
40.65000,16
40.65833,17
40.66667,18
40.67500,18
40.68333,19
40.69167,20
40.70000,21
40.70833,22
40.71667,23
40.72500,24
40.73333,25
40.74167,26
40.75000,27
40.75833,27
40.76667,28
40.77500,29
40.78333,30
40.79167,32
40.80000,33
40.80833,34
40.81667,35
40.82500,36
40.83333,38
40.84167,39
40.85000,41
40.85833,42
40.86667,43
40.87500,44
40.88333,45
40.89167,46
40.90000,47
40.90833,49
40.91667,50
40.92500,51
40.93333,52
40.94167,54
40.95000,55
40.95833,57
40.96667,58
40.97500,59
40.98333,60
40.99167,61
41.00000,62
41.00833,64
41.01667,65
41.02500,67
41.03333,69
41.04167,71
41.05000,72
41.05833,73
41.06667,75
41.07500,76
41.08333,78
41.09167,79
41.10000,80
41.10833,82
41.11667,83
41.12500,84
41.13333,86
41.14167,87
41.15000,89
41.15833,90
41.16667,92
41.17500,94
41.18333,96
41.19167,97
41.20000,99
41.20833,101
41.21667,102
41.22500,103
41.23333,104
41.24167,106
41.25000,108
41.25833,109
41.26667,111
41.27500,112
41.28333,113
41.29167,115
41.30000,116
41.30833,118
41.31667,119
41.32500,121
41.33333,122
41.34167,124
41.35000,125
41.35833,127
41.36667,128
41.37500,130
41.38333,131
41.39167,133
41.40000,134
41.40833,135
41.41667,137
41.42500,138
41.43333,140
41.44167,141
41.45000,142
41.45833,143
41.46667,145
41.47500,146
41.48333,147
41.49167,148
41.50000,150
41.50833,151
41.51667,153
41.52500,154
41.53333,155
41.54167,156
41.55000,157
41.55833,158
41.56667,159
41.57500,161
41.58333,162
41.59167,163
41.60000,164
41.60833,165
41.61667,166
41.62500,167
41.63333,168
41.64167,170
41.65000,171
41.65833,172
41.66667,173
41.67500,174
41.68333,175
41.69167,176
41.70000,177
41.70833,178
41.71667,179
41.72500,180
41.73333,181
41.74167,182
41.75000,183
41.75833,183
41.76667,184
41.77500,184
41.78333,185
41.79167,186
41.80000,186
41.80833,187
41.81667,187
41.82500,187
41.83333,188
41.84167,188
41.85000,189
41.85833,189
41.86667,190
41.87500,191
41.88333,191
41.89167,192
41.90000,192
41.90833,192
41.91667,192
41.92500,192
41.93333,193
41.94167,193
41.95000,194
41.95833,194
41.96667,194
41.97500,195
41.98333,195
41.99167,195
42.00000,196
42.00833,196
42.01667,196
42.02500,196
42.03333,196
42.04167,195
42.05000,195
42.05833,195
42.06667,195
42.07500,195
42.08333,196
42.09167,196
42.10000,195
42.10833,195
42.11667,195
42.12500,195
42.13333,195
42.14167,195
42.15000,195
42.15833,195
42.16667,194
42.17500,194
42.18333,194
42.19167,193
42.20000,193
42.20833,192
42.21667,192
42.22500,192
42.23333,192
42.24167,192
42.25000,191
42.25833,191
42.26667,191
42.27500,191
42.28333,190
42.29167,190
42.30000,189
42.30833,189
42.31667,188
42.32500,188
42.33333,188
42.34167,188
42.35000,188
42.35833,188
42.36667,187
42.37500,187
42.38333,186
42.39167,186
42.40000,185
42.40833,185
42.41667,184
42.42500,183
42.43333,183
42.44167,182
42.45000,182
42.45833,181
42.46667,181
42.47500,180
42.48333,180
42.49167,180
42.50000,179
42.50833,179
42.51667,178
42.52500,177
42.53333,176
42.54167,175
42.55000,174
42.55833,174
42.56667,174
42.57500,174
42.58333,173
42.59167,173
42.60000,172
42.60833,172
42.61667,171
42.62500,170
42.63333,169
42.64167,168
42.65000,168
42.65833,167
42.66667,166
42.67500,166
42.68333,165
42.69167,164
42.70000,163
42.70833,162
42.71667,161
42.72500,161
42.73333,160
42.74167,159
42.75000,158
42.75833,158
42.76667,157
42.77500,156
42.78333,156
42.79167,155
42.80000,154
42.80833,153
42.81667,152
42.82500,151
42.83333,150
42.84167,149
42.85000,149
42.85833,148
42.86667,147
42.87500,147
42.88333,146
42.89167,145
42.90000,144
42.90833,143
42.91667,142
42.92500,142
42.93333,141
42.94167,140
42.95000,139
42.95833,138
42.96667,137
42.97500,136
42.98333,135
42.99167,134
43.00000,133
43.00833,133
43.01667,132
43.02500,131
43.03333,130
43.04167,129
43.05000,128
43.05833,127
43.06667,127
43.07500,126
43.08333,125
43.09167,124
43.10000,123
43.10833,122
43.11667,121
43.12500,120
43.13333,119
43.14167,118
43.15000,118
43.15833,117
43.16667,116
43.17500,115
43.18333,115
43.19167,114
43.20000,113
43.20833,112
43.21667,112
43.22500,111
43.23333,110
43.24167,109
43.25000,108
43.25833,107
43.26667,107
43.27500,106
43.28333,105
43.29167,105
43.30000,104
43.30833,103
43.31667,102
43.32500,101
43.33333,100
43.34167,99
43.35000,99
43.35833,98
43.36667,97
43.37500,96
43.38333,95
43.39167,95
43.40000,94
43.40833,94
43.41667,92
43.42500,92
43.43333,91
43.44167,90
43.45000,89
43.45833,89
43.46667,88
43.47500,87
43.48333,86
43.49167,85
43.50000,84
43.50833,84
43.51667,83
43.52500,82
43.53333,82
43.54167,81
43.55000,80
43.55833,79
43.56667,78
43.57500,78
43.58333,77
43.59167,76
43.60000,75
43.60833,74
43.61667,73
43.62500,73
43.63333,72
43.64167,71
43.65000,71
43.65833,70
43.66667,69
43.67500,68
43.68333,68
43.69167,67
43.70000,66
43.70833,66
43.71667,65
43.72500,64
43.73333,63
43.74167,62
43.75000,62
43.75833,61
43.76667,61
43.77500,60
43.78333,60
43.79167,59
43.80000,58
43.80833,57
43.81667,56
43.82500,55
43.83333,55
43.84167,54
43.85000,53
43.85833,53
43.86667,53
43.87500,52
43.88333,51
43.89167,50
43.90000,49
43.90833,48
43.91667,47
43.92500,47
43.93333,46
43.94167,46
43.95000,45
43.95833,44
43.96667,44
43.97500,43
43.98333,43
43.99167,43
44.00000,42
44.00833,41
44.01667,40
44.02500,40
44.03333,39
44.04167,38
44.05000,37
44.05833,36
44.06667,36
44.07500,36
44.08333,35
44.09167,34
44.10000,33
44.10833,33
44.11667,32
44.12500,32
44.13333,31
44.14167,30
44.15000,30
44.15833,30
44.16667,29
44.17500,29
44.18333,28
44.19167,28
44.20000,28
44.20833,27
44.21667,27
44.22500,26
44.23333,26
44.24167,25
44.25000,25
44.25833,25
44.26667,24
44.27500,24
44.28333,23
44.29167,23
44.30000,23
44.30833,22
44.31667,21
44.32500,20
44.33333,20
44.34167,19
44.35000,19
44.35833,19
44.36667,18
44.37500,18
44.38333,18
44.39167,18
44.40000,18
44.40833,17
44.41667,16
44.42500,16
44.43333,15
44.44167,14
44.45000,14
44.45833,14
44.46667,13
44.47500,13
44.48333,13
44.49167,12
44.50000,12
44.50833,11
44.51667,11
44.52500,11
44.53333,10
44.54167,10
44.55000,10
44.55833,10
44.56667,9
44.57500,9
44.58333,9
44.59167,8
44.60000,8
44.60833,8
44.61667,8
44.62500,8
44.63333,8
44.64167,7
44.65000,7
44.65833,6
44.66667,6
44.67500,6
44.68333,6
44.69167,5
44.70000,5
44.70833,5
44.71667,4
44.72500,4
44.73333,4
44.74167,4
44.75000,4
44.75833,4
44.76667,3
44.77500,4
44.78333,4
44.79167,3
44.80000,3
44.80833,3
44.81667,2
44.82500,2
44.83333,1
44.84167,1
44.85000,1
44.85833,1
44.86667,1
44.87500,1
44.88333,1
44.89167,1
44.90000,1
44.90833,0
44.91667,-0
44.92500,-0
44.93333,-0
44.94167,-1
44.95000,-1
44.95833,-1
44.96667,-1
44.97500,-1
44.98333,-1
44.99167,-1
45.00000,-1
45.00833,-1
45.01667,-1
45.02500,-2
45.03333,-2
45.04167,-3
45.05000,-3
45.05833,-4
45.06667,-4
45.07500,-4
45.08333,-4
45.09167,-3
45.10000,-3
45.10833,-3
45.11667,-3
45.12500,-3
45.13333,-3
45.14167,-4
45.15000,-4
45.15833,-4
45.16667,-3
45.17500,-3
45.18333,-3
45.19167,-3
45.20000,-3
45.20833,-3
45.21667,-4
45.22500,-4
45.23333,-4
45.24167,-5
45.25000,-5
45.25833,-4
45.26667,-4
45.27500,-4
45.28333,-4
45.29167,-3
45.30000,-3
45.30833,-4
45.31667,-4
45.32500,-4
45.33333,-4
45.34167,-4
45.35000,-4
45.35833,-4
45.36667,-4
45.37500,-4
45.38333,-4
45.39167,-5
45.40000,-5
45.40833,-5
45.41667,-5
45.42500,-4
45.43333,-4
45.44167,-4
45.45000,-4
45.45833,-4
45.46667,-3
45.47500,-4
45.48333,-4
45.49167,-4
45.50000,-4
45.50833,-4
45.51667,-4
45.52500,-4
45.53333,-4
45.54167,-4
45.55000,-3
45.55833,-3
45.56667,-3
45.57500,-4
45.58333,-4
45.59167,-4
45.60000,-4
45.60833,-5
45.61667,-5
45.62500,-5
45.63333,-5
45.64167,-5
45.65000,-4
45.65833,-4
45.66667,-4
45.67500,-4
45.68333,-4
45.69167,-4
45.70000,-4
45.70833,-4
45.71667,-5
45.72500,-5
45.73333,-5
45.74167,-5
45.75000,-5
45.75833,-5
45.76667,-5
45.77500,-5
45.78333,-5
45.79167,-5
45.80000,-5
45.80833,-5
45.81667,-5
45.82500,-5
45.83333,-5
45.84167,-5
45.85000,-5
45.85833,-6
45.86667,-6
45.87500,-6
45.88333,-6
45.89167,-7
45.90000,-7
45.90833,-7
45.91667,-7
45.92500,-7
45.93333,-7
45.94167,-7
45.95000,-7
45.95833,-7
45.96667,-7
45.97500,-7
45.98333,-7
45.99167,-7
46.00000,-7
46.00833,-7
46.01667,-7
46.02500,-7
46.03333,-8
46.04167,-8
46.05000,-8
46.05833,-8
46.06667,-8
46.07500,-8
46.08333,-8
46.09167,-9
46.10000,-9
46.10833,-9
46.11667,-10
46.12500,-10
46.13333,-10
46.14167,-10
46.15000,-10
46.15833,-10
46.16667,-10
46.17500,-10
46.18333,-11
46.19167,-11
46.20000,-12
46.20833,-12
46.21667,-12
46.22500,-12
46.23333,-13
46.24167,-13
46.25000,-13
46.25833,-13
46.26667,-14
46.27500,-14
46.28333,-14
46.29167,-14
46.30000,-14
46.30833,-14
46.31667,-14
46.32500,-15
46.33333,-15
46.34167,-15
46.35000,-15
46.35833,-15
46.36667,-15
46.37500,-16
46.38333,-16
46.39167,-16
46.40000,-16
46.40833,-16
46.41667,-17
46.42500,-17
46.43333,-18
46.44167,-18
46.45000,-18
46.45833,-19
46.46667,-19
46.47500,-19
46.48333,-20
46.49167,-20
46.50000,-20
46.50833,-21
46.51667,-21
46.52500,-21
46.53333,-22
46.54167,-22
46.55000,-22
46.55833,-22
46.56667,-23
46.57500,-23
46.58333,-24
46.59167,-24
46.60000,-24
46.60833,-24
46.61667,-24
46.62500,-24
46.63333,-24
46.64167,-24
46.65000,-24
46.65833,-24
46.66667,-25
46.67500,-25
46.68333,-25
46.69167,-25
46.70000,-25
46.70833,-25
46.71667,-26
46.72500,-26
46.73333,-26
46.74167,-26
46.75000,-26
46.75833,-27
46.76667,-27
46.77500,-27
46.78333,-27
46.79167,-27
46.80000,-27
46.80833,-27
46.81667,-27
46.82500,-28
46.83333,-28
46.84167,-28
46.85000,-28
46.85833,-29
46.86667,-29
46.87500,-29
46.88333,-29
46.89167,-29
46.90000,-29
46.90833,-29
46.91667,-29
46.92500,-30
46.93333,-30
46.94167,-30
46.95000,-29
46.95833,-30
46.96667,-29
46.97500,-29
46.98333,-29
46.99167,-29
47.00000,-30
47.00833,-30
47.01667,-30
47.02500,-29
47.03333,-29
47.04167,-29
47.05000,-29
47.05833,-29
47.06667,-29
47.07500,-29
47.08333,-29
47.09167,-29
47.10000,-29
47.10833,-29
47.11667,-29
47.12500,-29
47.13333,-29
47.14167,-29
47.15000,-29
47.15833,-29
47.16667,-28
47.17500,-28
47.18333,-27
47.19167,-27
47.20000,-27
47.20833,-26
47.21667,-26
47.22500,-26
47.23333,-26
47.24167,-25
47.25000,-25
47.25833,-24
47.26667,-24
47.27500,-24
47.28333,-24
47.29167,-23
47.30000,-23
47.30833,-22
47.31667,-21
47.32500,-21
47.33333,-20
47.34167,-20
47.35000,-19
47.35833,-19
47.36667,-19
47.37500,-18
47.38333,-18
47.39167,-17
47.40000,-17
47.40833,-16
47.41667,-16
47.42500,-15
47.43333,-14
47.44167,-13
47.45000,-12
47.45833,-12
47.46667,-11
47.47500,-10
47.48333,-9
47.49167,-8
47.50000,-8
47.50833,-7
47.51667,-7
47.52500,-6
47.53333,-5
47.54167,-4
47.55000,-3
47.55833,-2
47.56667,-1
47.57500,-1
47.58333,-0
47.59167,1
47.60000,2
47.60833,2
47.61667,3
47.62500,4
47.63333,5
47.64167,5
47.65000,6
47.65833,7
47.66667,8
47.67500,9
47.68333,10
47.69167,11
47.70000,12
47.70833,13
47.71667,14
47.72500,15
47.73333,15
47.74167,16
47.75000,17
47.75833,18
47.76667,18
47.77500,18
47.78333,18
47.79167,19
47.80000,20
47.80833,20
47.81667,21
47.82500,22
47.83333,23
47.84167,24
47.85000,25
47.85833,26
47.86667,27
47.87500,27
47.88333,28
47.89167,28
47.90000,29
47.90833,30
47.91667,30
47.92500,31
47.93333,31
47.94167,32
47.95000,33
47.95833,33
47.96667,34
47.97500,34
47.98333,35
47.99167,35
48.00000,36
48.00833,37
48.01667,38
48.02500,39
48.03333,39
48.04167,40
48.05000,40
48.05833,41
48.06667,41
48.07500,41
48.08333,42
48.09167,42
48.10000,43
48.10833,43
48.11667,43
48.12500,43
48.13333,44
48.14167,44
48.15000,45
48.15833,45
48.16667,45
48.17500,46
48.18333,46
48.19167,46
48.20000,47
48.20833,47
48.21667,48
48.22500,48
48.23333,47
48.24167,47
48.25000,47
48.25833,48
48.26667,48
48.27500,48
48.28333,48
48.29167,49
48.30000,49
48.30833,49
48.31667,50
48.32500,50
48.33333,51
48.34167,51
48.35000,51
48.35833,51
48.36667,52
48.37500,52
48.38333,52
48.39167,51
48.40000,51
48.40833,51
48.41667,51
48.42500,51
48.43333,51
48.44167,51
48.45000,52
48.45833,52
48.46667,52
48.47500,52
48.48333,52
48.49167,52
48.50000,52
48.50833,52
48.51667,51
48.52500,51
48.53333,52
48.54167,52
48.55000,53
48.55833,53
48.56667,53
48.57500,53
48.58333,53
48.59167,53
48.60000,53
48.60833,53
48.61667,53
48.62500,53
48.63333,53
48.64167,53
48.65000,53
48.65833,53
48.66667,53
48.67500,52
48.68333,53
48.69167,53
48.70000,53
48.70833,53
48.71667,53
48.72500,53
48.73333,54
48.74167,54
48.75000,54
48.75833,54
48.76667,54
48.77500,54
48.78333,54
48.79167,54
48.80000,55
48.80833,55
48.81667,55
48.82500,55
48.83333,55
48.84167,55
48.85000,55
48.85833,55
48.86667,55
48.87500,55
48.88333,55
48.89167,55
48.90000,55
48.90833,55
48.91667,55
48.92500,55
48.93333,55
48.94167,55
48.95000,55
48.95833,55
48.96667,55
48.97500,55
48.98333,55
48.99167,55
49.00000,55
49.00833,55
49.01667,55
49.02500,55
49.03333,55
49.04167,55
49.05000,55
49.05833,55
49.06667,55
49.07500,55
49.08333,55
49.09167,55
49.10000,56
49.10833,56
49.11667,56
49.12500,56
49.13333,56
49.14167,56
49.15000,57
49.15833,57
49.16667,56
49.17500,57
49.18333,56
49.19167,56
49.20000,56
49.20833,56
49.21667,56
49.22500,56
49.23333,56
49.24167,56
49.25000,56
49.25833,56
49.26667,56
49.27500,55
49.28333,55
49.29167,55
49.30000,55
49.30833,55
49.31667,54
49.32500,55
49.33333,55
49.34167,55
49.35000,55
49.35833,54
49.36667,54
49.37500,55
49.38333,54
49.39167,54
49.40000,54
49.40833,54
49.41667,54
49.42500,54
49.43333,53
49.44167,53
49.45000,53
49.45833,52
49.46667,52
49.47500,52
49.48333,52
49.49167,51
49.50000,51
49.50833,51
49.51667,51
49.52500,50
49.53333,50
49.54167,50
49.55000,50
49.55833,50
49.56667,50
49.57500,50
49.58333,50
49.59167,49
49.60000,49
49.60833,49
49.61667,48
49.62500,48
49.63333,47
49.64167,47
49.65000,46
49.65833,46
49.66667,45
49.67500,45
49.68333,45
49.69167,45
49.70000,45
49.70833,45
49.71667,44
49.72500,44
49.73333,43
49.74167,43
49.75000,42
49.75833,41
49.76667,41
49.77500,40
49.78333,39
49.79167,39
49.80000,38
49.80833,38
49.81667,38
49.82500,37
49.83333,37
49.84167,36
49.85000,36
49.85833,35
49.86667,35
49.87500,34
49.88333,34
49.89167,33
49.90000,33
49.90833,32
49.91667,31
49.92500,30
49.93333,30
49.94167,29
49.95000,28
49.95833,27
49.96667,27
49.97500,26
49.98333,25
49.99167,24
50.00000,23

