[Header]
Application Name,LabSolutions
Version,5.97 SP1
Data File Name,C:\Users\cremerlab\Desktop\Richa\Sep_6th_2022_re-run_Sep2nd\Sep 6th_962022_016_017.lcd
Output Date,9/7/2022
Output Time,6:37:20 AM

[File Information]
Type,Data File
Generated,9/7/2022 5:47:01 AM
Generated by,System Administrator
Modified,9/7/2022 6:37:20 AM
Modified by,System Administrator

[Sample Information]
Operator Name,System Administrator
Acquired,9/7/2022 5:47:19 AM
Sample Type,0:Unknown
Level,0
Sample Name,090622_C.aerofaciens_4
Sample ID,016
ISTD Amount1,1
ISTD Amount2,1
ISTD Amount3,1
ISTD Amount4,1
ISTD Amount5,1
ISTD Amount6,1
ISTD Amount7,1
ISTD Amount8,1
ISTD Amount9,1
ISTD Amount10,1
ISTD Amount11,1
ISTD Amount12,1
ISTD Amount13,1
ISTD Amount14,1
ISTD Amount15,1
ISTD Amount16,1
ISTD Amount17,1
ISTD Amount18,1
ISTD Amount19,1
ISTD Amount20,1
ISTD Amount21,1
ISTD Amount22,1
ISTD Amount23,1
ISTD Amount24,1
ISTD Amount25,1
ISTD Amount26,1
ISTD Amount27,1
ISTD Amount28,1
ISTD Amount29,1
ISTD Amount30,1
ISTD Amount31,1
ISTD Amount32,1
Sample Amount,1
Dilution Factor,1
Vial#,16
Injection Volume,20

[Original Files]
Data File,C:\Users\cremerlab\Desktop\Richa\Sep_6th_2022_re-run_Sep2nd\Sep 6th_962022_016_017.lcd
Method File,C:\Users\cremerlab\Desktop\Richa\acetate_excretion.lcm
Batch File,C:\Users\cremerlab\Desktop\Richa\Sep_6th_2022_re-run_Sep2nd\Sep 6th.lcb
Report Format File,c:\LabSolutions\System\DEFAULT.lsr

[File Description]


[Configuration]
Instrument Name,HPLC-PC-Instrument1
Instrument #,1
Line #,1
# of Detectors,2
Detector ID,Detector A,Detector B
Detector Name,Detector A,Detector B
# of Channels,1,1

[Peak Table(Detector A)]
# of Peaks,0

[Peak Table(Detector B)]
# of Peaks,12
Peak#,R.Time,I.Time,F.Time,Area,Height,A/H,Conc.,Mark,ID#,Name,k',Plate #,Plate Ht.,Tailing,Resolution,Sep.Factor,Area Ratio,Height Ratio,Conc. %,Norm Conc.
1,11.023,10.258,12.308,2266489,115605,19.605,0.000,   ,,,0.000,7507,19.982,0.969,0.000,0.000,0,0,0.000,0.000
2,14.332,12.650,15.192,3572421,76525,46.683,0.000,   ,,,0.300,2481,60.452,0.654,3.988,0.000,0,0,0.000,0.000
3,15.763,15.192,17.158,1256315,43125,29.132,0.000, V ,,,0.430,6923,21.667,1.141,1.500,1.433,0,0,0.000,0.000
4,17.874,17.417,18.392,6971,241,28.918,0.000,   ,,,0.622,8229,18.228,1.021,2.730,1.445,0,0,0.000,0.000
5,19.040,18.408,19.758,13802,312,44.252,0.000,   ,,,0.727,4070,36.855,1.047,1.177,1.170,0,0,0.000,0.000
6,20.299,19.758,20.867,22031,609,36.168,0.000,   ,,,0.842,7037,21.317,0.000,1.165,1.157,0,0,0.000,0.000
7,21.544,20.867,22.558,159719,3962,40.312,0.000, V ,,,0.955,7113,21.087,1.140,1.252,1.134,0,0,0.000,0.000
8,23.144,22.558,24.150,15505,417,37.225,0.000,   ,,,1.100,9469,15.841,1.292,1.621,1.152,0,0,0.000,0.000
9,25.086,24.308,26.417,156560,3822,40.958,0.000,   ,,,1.276,9048,16.577,1.135,1.936,1.160,0,0,0.000,0.000
10,29.209,28.333,30.300,130559,2802,46.599,0.000,   ,,,1.650,9208,16.290,1.060,3.628,1.293,0,0,0.000,0.000
11,32.501,31.650,34.333,44460,593,74.919,0.000,   ,,,1.949,1648,91.037,1.529,1.490,1.181,0,0,0.000,0.000
12,41.532,40.417,44.167,43446,474,91.646,0.000,   ,,,2.768,5783,25.936,1.647,3.353,1.420,0,0,0.000,0.000

[LC Chromatogram(Detector B-Ch1)]
Interval(msec),500
# of Points,6001
Start Time(min),0.000
End Time(min),50.000
Intensity Units,mV
Intensity Multiplier,0.001
R.Time (min),Intensity
0.00000,-22
0.00833,-22
0.01667,-1
0.02500,-1
0.03333,-2
0.04167,-2
0.05000,-3
0.05833,-3
0.06667,-4
0.07500,-4
0.08333,-5
0.09167,-5
0.10000,-6
0.10833,-6
0.11667,-7
0.12500,-8
0.13333,-8
0.14167,-9
0.15000,-9
0.15833,-10
0.16667,-10
0.17500,-11
0.18333,-11
0.19167,-12
0.20000,-13
0.20833,-13
0.21667,-14
0.22500,-14
0.23333,-15
0.24167,-15
0.25000,-15
0.25833,-15
0.26667,-16
0.27500,-16
0.28333,-16
0.29167,-17
0.30000,-17
0.30833,-17
0.31667,-18
0.32500,-18
0.33333,-18
0.34167,-18
0.35000,-19
0.35833,-20
0.36667,-20
0.37500,-21
0.38333,-21
0.39167,-21
0.40000,-22
0.40833,-22
0.41667,-23
0.42500,-23
0.43333,-23
0.44167,-23
0.45000,-23
0.45833,-23
0.46667,-24
0.47500,-24
0.48333,-24
0.49167,-25
0.50000,-25
0.50833,-25
0.51667,-25
0.52500,-25
0.53333,-25
0.54167,-25
0.55000,-25
0.55833,-26
0.56667,-26
0.57500,-27
0.58333,-26
0.59167,-26
0.60000,-26
0.60833,-26
0.61667,-26
0.62500,-25
0.63333,-26
0.64167,-26
0.65000,-26
0.65833,-26
0.66667,-26
0.67500,-26
0.68333,-27
0.69167,-27
0.70000,-27
0.70833,-27
0.71667,-27
0.72500,-27
0.73333,-27
0.74167,-27
0.75000,-27
0.75833,-27
0.76667,-28
0.77500,-28
0.78333,-28
0.79167,-28
0.80000,-29
0.80833,-29
0.81667,-28
0.82500,-28
0.83333,-28
0.84167,-28
0.85000,-28
0.85833,-28
0.86667,-28
0.87500,-28
0.88333,-28
0.89167,-27
0.90000,-28
0.90833,-27
0.91667,-27
0.92500,-27
0.93333,-27
0.94167,-27
0.95000,-26
0.95833,-26
0.96667,-26
0.97500,-26
0.98333,-26
0.99167,-26
1.00000,-26
1.00833,-26
1.01667,-25
1.02500,-25
1.03333,-25
1.04167,-25
1.05000,-24
1.05833,-24
1.06667,-24
1.07500,-24
1.08333,-24
1.09167,-24
1.10000,-23
1.10833,-23
1.11667,-23
1.12500,-23
1.13333,-23
1.14167,-22
1.15000,-22
1.15833,-22
1.16667,-22
1.17500,-21
1.18333,-21
1.19167,-21
1.20000,-21
1.20833,-21
1.21667,-21
1.22500,-20
1.23333,-20
1.24167,-21
1.25000,-21
1.25833,-21
1.26667,-21
1.27500,-20
1.28333,-20
1.29167,-20
1.30000,-20
1.30833,-21
1.31667,-21
1.32500,-20
1.33333,-20
1.34167,-20
1.35000,-19
1.35833,-19
1.36667,-18
1.37500,-18
1.38333,-17
1.39167,-17
1.40000,-17
1.40833,-17
1.41667,-17
1.42500,-17
1.43333,-16
1.44167,-16
1.45000,-16
1.45833,-16
1.46667,-16
1.47500,-16
1.48333,-16
1.49167,-16
1.50000,-16
1.50833,-16
1.51667,-16
1.52500,-16
1.53333,-16
1.54167,-16
1.55000,-16
1.55833,-15
1.56667,-15
1.57500,-15
1.58333,-16
1.59167,-15
1.60000,-15
1.60833,-15
1.61667,-15
1.62500,-15
1.63333,-14
1.64167,-14
1.65000,-14
1.65833,-13
1.66667,-13
1.67500,-13
1.68333,-13
1.69167,-13
1.70000,-13
1.70833,-13
1.71667,-13
1.72500,-12
1.73333,-12
1.74167,-12
1.75000,-12
1.75833,-11
1.76667,-11
1.77500,-11
1.78333,-11
1.79167,-11
1.80000,-11
1.80833,-11
1.81667,-11
1.82500,-11
1.83333,-11
1.84167,-11
1.85000,-10
1.85833,-10
1.86667,-10
1.87500,-11
1.88333,-11
1.89167,-10
1.90000,-10
1.90833,-10
1.91667,-10
1.92500,-9
1.93333,-9
1.94167,-9
1.95000,-9
1.95833,-9
1.96667,-9
1.97500,-9
1.98333,-9
1.99167,-9
2.00000,-9
2.00833,-9
2.01667,-8
2.02500,-8
2.03333,-8
2.04167,-8
2.05000,-8
2.05833,-8
2.06667,-8
2.07500,-8
2.08333,-8
2.09167,-8
2.10000,-8
2.10833,-8
2.11667,-8
2.12500,-8
2.13333,-8
2.14167,-8
2.15000,-8
2.15833,-8
2.16667,-8
2.17500,-7
2.18333,-8
2.19167,-8
2.20000,-8
2.20833,-7
2.21667,-7
2.22500,-8
2.23333,-8
2.24167,-8
2.25000,-9
2.25833,-9
2.26667,-9
2.27500,-9
2.28333,-9
2.29167,-9
2.30000,-8
2.30833,-8
2.31667,-8
2.32500,-8
2.33333,-9
2.34167,-8
2.35000,-8
2.35833,-8
2.36667,-8
2.37500,-8
2.38333,-8
2.39167,-9
2.40000,-9
2.40833,-9
2.41667,-9
2.42500,-9
2.43333,-9
2.44167,-9
2.45000,-9
2.45833,-9
2.46667,-9
2.47500,-10
2.48333,-10
2.49167,-10
2.50000,-10
2.50833,-10
2.51667,-10
2.52500,-10
2.53333,-9
2.54167,-9
2.55000,-9
2.55833,-10
2.56667,-10
2.57500,-10
2.58333,-11
2.59167,-11
2.60000,-11
2.60833,-11
2.61667,-11
2.62500,-11
2.63333,-11
2.64167,-11
2.65000,-11
2.65833,-11
2.66667,-11
2.67500,-11
2.68333,-11
2.69167,-11
2.70000,-11
2.70833,-12
2.71667,-12
2.72500,-12
2.73333,-12
2.74167,-12
2.75000,-12
2.75833,-13
2.76667,-13
2.77500,-13
2.78333,-13
2.79167,-13
2.80000,-12
2.80833,-12
2.81667,-13
2.82500,-13
2.83333,-13
2.84167,-13
2.85000,-13
2.85833,-13
2.86667,-13
2.87500,-14
2.88333,-14
2.89167,-15
2.90000,-15
2.90833,-15
2.91667,-15
2.92500,-15
2.93333,-15
2.94167,-16
2.95000,-16
2.95833,-15
2.96667,-15
2.97500,-15
2.98333,-15
2.99167,-15
3.00000,-15
3.00833,-15
3.01667,-15
3.02500,-15
3.03333,-16
3.04167,-16
3.05000,-16
3.05833,-16
3.06667,-16
3.07500,-16
3.08333,-16
3.09167,-16
3.10000,-16
3.10833,-16
3.11667,-16
3.12500,-16
3.13333,-16
3.14167,-16
3.15000,-16
3.15833,-16
3.16667,-17
3.17500,-17
3.18333,-17
3.19167,-17
3.20000,-17
3.20833,-17
3.21667,-17
3.22500,-17
3.23333,-17
3.24167,-17
3.25000,-17
3.25833,-17
3.26667,-17
3.27500,-17
3.28333,-16
3.29167,-16
3.30000,-16
3.30833,-16
3.31667,-16
3.32500,-16
3.33333,-16
3.34167,-16
3.35000,-16
3.35833,-16
3.36667,-16
3.37500,-16
3.38333,-16
3.39167,-16
3.40000,-17
3.40833,-17
3.41667,-17
3.42500,-16
3.43333,-17
3.44167,-17
3.45000,-17
3.45833,-17
3.46667,-16
3.47500,-15
3.48333,-15
3.49167,-15
3.50000,-15
3.50833,-15
3.51667,-15
3.52500,-15
3.53333,-15
3.54167,-15
3.55000,-15
3.55833,-15
3.56667,-15
3.57500,-15
3.58333,-15
3.59167,-15
3.60000,-14
3.60833,-14
3.61667,-14
3.62500,-14
3.63333,-14
3.64167,-14
3.65000,-14
3.65833,-14
3.66667,-14
3.67500,-14
3.68333,-14
3.69167,-13
3.70000,-13
3.70833,-13
3.71667,-13
3.72500,-13
3.73333,-13
3.74167,-13
3.75000,-12
3.75833,-12
3.76667,-12
3.77500,-12
3.78333,-12
3.79167,-12
3.80000,-12
3.80833,-11
3.81667,-11
3.82500,-11
3.83333,-11
3.84167,-11
3.85000,-11
3.85833,-11
3.86667,-10
3.87500,-9
3.88333,-9
3.89167,-8
3.90000,-8
3.90833,-8
3.91667,-8
3.92500,-7
3.93333,-7
3.94167,-6
3.95000,-6
3.95833,-6
3.96667,-6
3.97500,-6
3.98333,-6
3.99167,-5
4.00000,-5
4.00833,-5
4.01667,-4
4.02500,-4
4.03333,-3
4.04167,-3
4.05000,-3
4.05833,-3
4.06667,-3
4.07500,-2
4.08333,-2
4.09167,-1
4.10000,-1
4.10833,-0
4.11667,0
4.12500,1
4.13333,2
4.14167,2
4.15000,2
4.15833,3
4.16667,3
4.17500,4
4.18333,4
4.19167,4
4.20000,5
4.20833,6
4.21667,6
4.22500,7
4.23333,7
4.24167,8
4.25000,8
4.25833,8
4.26667,9
4.27500,10
4.28333,11
4.29167,12
4.30000,12
4.30833,13
4.31667,14
4.32500,14
4.33333,15
4.34167,16
4.35000,17
4.35833,17
4.36667,18
4.37500,19
4.38333,19
4.39167,20
4.40000,21
4.40833,21
4.41667,22
4.42500,23
4.43333,23
4.44167,24
4.45000,25
4.45833,25
4.46667,26
4.47500,26
4.48333,27
4.49167,27
4.50000,28
4.50833,28
4.51667,29
4.52500,30
4.53333,31
4.54167,31
4.55000,32
4.55833,33
4.56667,34
4.57500,34
4.58333,35
4.59167,35
4.60000,36
4.60833,36
4.61667,37
4.62500,38
4.63333,38
4.64167,39
4.65000,39
4.65833,40
4.66667,41
4.67500,41
4.68333,42
4.69167,42
4.70000,42
4.70833,42
4.71667,43
4.72500,43
4.73333,44
4.74167,45
4.75000,45
4.75833,45
4.76667,46
4.77500,46
4.78333,46
4.79167,46
4.80000,46
4.80833,47
4.81667,47
4.82500,48
4.83333,48
4.84167,48
4.85000,49
4.85833,49
4.86667,49
4.87500,49
4.88333,49
4.89167,50
4.90000,50
4.90833,50
4.91667,50
4.92500,51
4.93333,51
4.94167,51
4.95000,51
4.95833,51
4.96667,51
4.97500,51
4.98333,51
4.99167,51
5.00000,51
5.00833,51
5.01667,51
5.02500,51
5.03333,51
5.04167,52
5.05000,52
5.05833,52
5.06667,51
5.07500,51
5.08333,51
5.09167,51
5.10000,51
5.10833,51
5.11667,51
5.12500,51
5.13333,50
5.14167,50
5.15000,49
5.15833,49
5.16667,49
5.17500,49
5.18333,49
5.19167,49
5.20000,48
5.20833,48
5.21667,48
5.22500,48
5.23333,48
5.24167,47
5.25000,47
5.25833,47
5.26667,46
5.27500,46
5.28333,46
5.29167,45
5.30000,45
5.30833,45
5.31667,45
5.32500,45
5.33333,45
5.34167,44
5.35000,44
5.35833,43
5.36667,43
5.37500,42
5.38333,41
5.39167,41
5.40000,40
5.40833,39
5.41667,38
5.42500,38
5.43333,37
5.44167,37
5.45000,36
5.45833,36
5.46667,36
5.47500,35
5.48333,35
5.49167,35
5.50000,34
5.50833,33
5.51667,33
5.52500,32
5.53333,31
5.54167,31
5.55000,31
5.55833,30
5.56667,29
5.57500,29
5.58333,28
5.59167,27
5.60000,27
5.60833,26
5.61667,25
5.62500,24
5.63333,23
5.64167,23
5.65000,22
5.65833,22
5.66667,21
5.67500,20
5.68333,20
5.69167,19
5.70000,19
5.70833,18
5.71667,17
5.72500,17
5.73333,16
5.74167,15
5.75000,14
5.75833,13
5.76667,13
5.77500,12
5.78333,11
5.79167,10
5.80000,9
5.80833,8
5.81667,7
5.82500,6
5.83333,5
5.84167,4
5.85000,4
5.85833,3
5.86667,2
5.87500,2
5.88333,1
5.89167,0
5.90000,-1
5.90833,-1
5.91667,-2
5.92500,-2
5.93333,-3
5.94167,-4
5.95000,-5
5.95833,-6
5.96667,-7
5.97500,-7
5.98333,-8
5.99167,-8
6.00000,-9
6.00833,-10
6.01667,-10
6.02500,-11
6.03333,-12
6.04167,-13
6.05000,-15
6.05833,-15
6.06667,-16
6.07500,-17
6.08333,-17
6.09167,-18
6.10000,-18
6.10833,-19
6.11667,-20
6.12500,-20
6.13333,-21
6.14167,-22
6.15000,-23
6.15833,-23
6.16667,-24
6.17500,-25
6.18333,-25
6.19167,-26
6.20000,-27
6.20833,-27
6.21667,-28
6.22500,-28
6.23333,-29
6.24167,-30
6.25000,-31
6.25833,-31
6.26667,-32
6.27500,-33
6.28333,-33
6.29167,-34
6.30000,-34
6.30833,-35
6.31667,-35
6.32500,-36
6.33333,-36
6.34167,-36
6.35000,-37
6.35833,-37
6.36667,-37
6.37500,-38
6.38333,-38
6.39167,-39
6.40000,-40
6.40833,-41
6.41667,-41
6.42500,-42
6.43333,-42
6.44167,-42
6.45000,-42
6.45833,-43
6.46667,-43
6.47500,-43
6.48333,-43
6.49167,-44
6.50000,-44
6.50833,-45
6.51667,-45
6.52500,-45
6.53333,-45
6.54167,-46
6.55000,-46
6.55833,-46
6.56667,-46
6.57500,-46
6.58333,-47
6.59167,-48
6.60000,-48
6.60833,-49
6.61667,-49
6.62500,-49
6.63333,-49
6.64167,-50
6.65000,-50
6.65833,-50
6.66667,-50
6.67500,-50
6.68333,-50
6.69167,-50
6.70000,-50
6.70833,-50
6.71667,-51
6.72500,-51
6.73333,-51
6.74167,-51
6.75000,-51
6.75833,-51
6.76667,-52
6.77500,-52
6.78333,-52
6.79167,-52
6.80000,-52
6.80833,-51
6.81667,-51
6.82500,-52
6.83333,-52
6.84167,-52
6.85000,-52
6.85833,-52
6.86667,-52
6.87500,-52
6.88333,-52
6.89167,-52
6.90000,-53
6.90833,-53
6.91667,-53
6.92500,-53
6.93333,-53
6.94167,-53
6.95000,-54
6.95833,-54
6.96667,-54
6.97500,-54
6.98333,-55
6.99167,-55
7.00000,-55
7.00833,-55
7.01667,-54
7.02500,-54
7.03333,-54
7.04167,-54
7.05000,-54
7.05833,-54
7.06667,-54
7.07500,-54
7.08333,-55
7.09167,-55
7.10000,-55
7.10833,-55
7.11667,-55
7.12500,-55
7.13333,-55
7.14167,-55
7.15000,-54
7.15833,-54
7.16667,-54
7.17500,-54
7.18333,-54
7.19167,-54
7.20000,-54
7.20833,-54
7.21667,-54
7.22500,-54
7.23333,-54
7.24167,-54
7.25000,-54
7.25833,-54
7.26667,-55
7.27500,-55
7.28333,-55
7.29167,-55
7.30000,-56
7.30833,-56
7.31667,-56
7.32500,-56
7.33333,-56
7.34167,-56
7.35000,-56
7.35833,-56
7.36667,-56
7.37500,-56
7.38333,-55
7.39167,-55
7.40000,-55
7.40833,-55
7.41667,-55
7.42500,-55
7.43333,-55
7.44167,-55
7.45000,-55
7.45833,-55
7.46667,-55
7.47500,-56
7.48333,-56
7.49167,-56
7.50000,-56
7.50833,-56
7.51667,-56
7.52500,-56
7.53333,-57
7.54167,-57
7.55000,-57
7.55833,-57
7.56667,-57
7.57500,-57
7.58333,-57
7.59167,-57
7.60000,-57
7.60833,-57
7.61667,-57
7.62500,-56
7.63333,-56
7.64167,-56
7.65000,-56
7.65833,-56
7.66667,-56
7.67500,-57
7.68333,-57
7.69167,-56
7.70000,-56
7.70833,-56
7.71667,-56
7.72500,-56
7.73333,-56
7.74167,-56
7.75000,-56
7.75833,-56
7.76667,-57
7.77500,-57
7.78333,-57
7.79167,-57
7.80000,-57
7.80833,-57
7.81667,-57
7.82500,-57
7.83333,-57
7.84167,-57
7.85000,-58
7.85833,-58
7.86667,-58
7.87500,-58
7.88333,-58
7.89167,-58
7.90000,-58
7.90833,-57
7.91667,-57
7.92500,-57
7.93333,-57
7.94167,-58
7.95000,-58
7.95833,-58
7.96667,-58
7.97500,-59
7.98333,-59
7.99167,-59
8.00000,-60
8.00833,-59
8.01667,-59
8.02500,-59
8.03333,-59
8.04167,-58
8.05000,-58
8.05833,-57
8.06667,-57
8.07500,-58
8.08333,-58
8.09167,-58
8.10000,-58
8.10833,-58
8.11667,-58
8.12500,-58
8.13333,-58
8.14167,-58
8.15000,-58
8.15833,-58
8.16667,-58
8.17500,-58
8.18333,-58
8.19167,-58
8.20000,-58
8.20833,-58
8.21667,-58
8.22500,-58
8.23333,-58
8.24167,-58
8.25000,-58
8.25833,-58
8.26667,-58
8.27500,-58
8.28333,-58
8.29167,-58
8.30000,-58
8.30833,-58
8.31667,-58
8.32500,-58
8.33333,-58
8.34167,-58
8.35000,-58
8.35833,-58
8.36667,-59
8.37500,-59
8.38333,-59
8.39167,-58
8.40000,-58
8.40833,-58
8.41667,-58
8.42500,-58
8.43333,-58
8.44167,-58
8.45000,-59
8.45833,-59
8.46667,-59
8.47500,-59
8.48333,-59
8.49167,-59
8.50000,-59
8.50833,-59
8.51667,-59
8.52500,-59
8.53333,-60
8.54167,-60
8.55000,-60
8.55833,-60
8.56667,-60
8.57500,-60
8.58333,-60
8.59167,-60
8.60000,-60
8.60833,-60
8.61667,-60
8.62500,-60
8.63333,-60
8.64167,-60
8.65000,-60
8.65833,-60
8.66667,-60
8.67500,-60
8.68333,-59
8.69167,-59
8.70000,-59
8.70833,-59
8.71667,-59
8.72500,-60
8.73333,-60
8.74167,-60
8.75000,-60
8.75833,-60
8.76667,-60
8.77500,-60
8.78333,-60
8.79167,-59
8.80000,-59
8.80833,-59
8.81667,-59
8.82500,-59
8.83333,-60
8.84167,-60
8.85000,-60
8.85833,-60
8.86667,-60
8.87500,-59
8.88333,-59
8.89167,-59
8.90000,-59
8.90833,-59
8.91667,-59
8.92500,-59
8.93333,-59
8.94167,-59
8.95000,-59
8.95833,-59
8.96667,-59
8.97500,-59
8.98333,-59
8.99167,-60
9.00000,-59
9.00833,-59
9.01667,-59
9.02500,-58
9.03333,-58
9.04167,-58
9.05000,-58
9.05833,-58
9.06667,-58
9.07500,-58
9.08333,-59
9.09167,-59
9.10000,-59
9.10833,-60
9.11667,-60
9.12500,-60
9.13333,-60
9.14167,-60
9.15000,-60
9.15833,-60
9.16667,-60
9.17500,-60
9.18333,-60
9.19167,-60
9.20000,-59
9.20833,-59
9.21667,-59
9.22500,-59
9.23333,-60
9.24167,-60
9.25000,-60
9.25833,-60
9.26667,-60
9.27500,-60
9.28333,-60
9.29167,-60
9.30000,-60
9.30833,-59
9.31667,-59
9.32500,-59
9.33333,-59
9.34167,-59
9.35000,-59
9.35833,-58
9.36667,-59
9.37500,-59
9.38333,-59
9.39167,-59
9.40000,-59
9.40833,-59
9.41667,-59
9.42500,-59
9.43333,-59
9.44167,-60
9.45000,-60
9.45833,-60
9.46667,-60
9.47500,-59
9.48333,-59
9.49167,-59
9.50000,-59
9.50833,-59
9.51667,-59
9.52500,-59
9.53333,-59
9.54167,-59
9.55000,-59
9.55833,-59
9.56667,-59
9.57500,-59
9.58333,-59
9.59167,-59
9.60000,-59
9.60833,-59
9.61667,-59
9.62500,-59
9.63333,-59
9.64167,-59
9.65000,-58
9.65833,-58
9.66667,-58
9.67500,-58
9.68333,-58
9.69167,-59
9.70000,-59
9.70833,-59
9.71667,-59
9.72500,-59
9.73333,-59
9.74167,-59
9.75000,-59
9.75833,-59
9.76667,-59
9.77500,-59
9.78333,-59
9.79167,-59
9.80000,-58
9.80833,-58
9.81667,-58
9.82500,-58
9.83333,-57
9.84167,-57
9.85000,-58
9.85833,-58
9.86667,-58
9.87500,-58
9.88333,-58
9.89167,-58
9.90000,-58
9.90833,-58
9.91667,-57
9.92500,-57
9.93333,-57
9.94167,-57
9.95000,-57
9.95833,-56
9.96667,-56
9.97500,-56
9.98333,-56
9.99167,-56
10.00000,-56
10.00833,-56
10.01667,-56
10.02500,-56
10.03333,-56
10.04167,-56
10.05000,-56
10.05833,-55
10.06667,-55
10.07500,-54
10.08333,-54
10.09167,-53
10.10000,-52
10.10833,-52
10.11667,-52
10.12500,-52
10.13333,-51
10.14167,-51
10.15000,-50
10.15833,-49
10.16667,-48
10.17500,-47
10.18333,-46
10.19167,-45
10.20000,-43
10.20833,-42
10.21667,-41
10.22500,-40
10.23333,-39
10.24167,-37
10.25000,-35
10.25833,-33
10.26667,-30
10.27500,-27
10.28333,-24
10.29167,-20
10.30000,-16
10.30833,-11
10.31667,-5
10.32500,1
10.33333,9
10.34167,19
10.35000,29
10.35833,41
10.36667,54
10.37500,69
10.38333,86
10.39167,103
10.40000,122
10.40833,141
10.41667,160
10.42500,178
10.43333,196
10.44167,211
10.45000,225
10.45833,235
10.46667,243
10.47500,248
10.48333,249
10.49167,249
10.50000,248
10.50833,247
10.51667,250
10.52500,258
10.53333,274
10.54167,304
10.55000,350
10.55833,419
10.56667,515
10.57500,643
10.58333,810
10.59167,1021
10.60000,1283
10.60833,1601
10.61667,1983
10.62500,2433
10.63333,2958
10.64167,3562
10.65000,4252
10.65833,5033
10.66667,5909
10.67500,6885
10.68333,7965
10.69167,9153
10.70000,10453
10.70833,11866
10.71667,13396
10.72500,15044
10.73333,16814
10.74167,18704
10.75000,20718
10.75833,22854
10.76667,25114
10.77500,27495
10.78333,29999
10.79167,32623
10.80000,35364
10.80833,38222
10.81667,41194
10.82500,44275
10.83333,47463
10.84167,50752
10.85000,54136
10.85833,57608
10.86667,61162
10.87500,64788
10.88333,68475
10.89167,72209
10.90000,75977
10.90833,79761
10.91667,83540
10.92500,87291
10.93333,90985
10.94167,94590
10.95000,98069
10.95833,101382
10.96667,104481
10.97500,107319
10.98333,109841
10.99167,111993
11.00000,113717
11.00833,114961
11.01667,115671
11.02500,115804
11.03333,115321
11.04167,114200
11.05000,112429
11.05833,110015
11.06667,106981
11.07500,103368
11.08333,99234
11.09167,94652
11.10000,89704
11.10833,84483
11.11667,79082
11.12500,73597
11.13333,68114
11.14167,62717
11.15000,57474
11.15833,52445
11.16667,47676
11.17500,43201
11.18333,39041
11.19167,35207
11.20000,31703
11.20833,28522
11.21667,25651
11.22500,23076
11.23333,20777
11.24167,18732
11.25000,16920
11.25833,15318
11.26667,13905
11.27500,12660
11.28333,11565
11.29167,10601
11.30000,9753
11.30833,9006
11.31667,8346
11.32500,7763
11.33333,7246
11.34167,6787
11.35000,6377
11.35833,6011
11.36667,5682
11.37500,5385
11.38333,5116
11.39167,4871
11.40000,4647
11.40833,4441
11.41667,4251
11.42500,4076
11.43333,3912
11.44167,3759
11.45000,3616
11.45833,3481
11.46667,3354
11.47500,3234
11.48333,3120
11.49167,3012
11.50000,2908
11.50833,2809
11.51667,2715
11.52500,2625
11.53333,2539
11.54167,2457
11.55000,2378
11.55833,2303
11.56667,2230
11.57500,2160
11.58333,2093
11.59167,2029
11.60000,1967
11.60833,1908
11.61667,1851
11.62500,1796
11.63333,1744
11.64167,1693
11.65000,1645
11.65833,1599
11.66667,1554
11.67500,1512
11.68333,1471
11.69167,1431
11.70000,1393
11.70833,1356
11.71667,1322
11.72500,1288
11.73333,1256
11.74167,1226
11.75000,1197
11.75833,1169
11.76667,1142
11.77500,1116
11.78333,1090
11.79167,1066
11.80000,1043
11.80833,1022
11.81667,1001
11.82500,981
11.83333,962
11.84167,944
11.85000,926
11.85833,909
11.86667,893
11.87500,878
11.88333,863
11.89167,849
11.90000,836
11.90833,823
11.91667,811
11.92500,799
11.93333,788
11.94167,777
11.95000,766
11.95833,756
11.96667,746
11.97500,737
11.98333,729
11.99167,720
12.00000,712
12.00833,705
12.01667,697
12.02500,690
12.03333,684
12.04167,678
12.05000,672
12.05833,666
12.06667,660
12.07500,655
12.08333,649
12.09167,644
12.10000,639
12.10833,635
12.11667,630
12.12500,627
12.13333,623
12.14167,620
12.15000,616
12.15833,613
12.16667,610
12.17500,607
12.18333,604
12.19167,602
12.20000,600
12.20833,598
12.21667,596
12.22500,595
12.23333,593
12.24167,592
12.25000,591
12.25833,590
12.26667,590
12.27500,589
12.28333,589
12.29167,588
12.30000,588
12.30833,588
12.31667,588
12.32500,588
12.33333,588
12.34167,588
12.35000,589
12.35833,589
12.36667,589
12.37500,590
12.38333,589
12.39167,590
12.40000,590
12.40833,590
12.41667,590
12.42500,590
12.43333,589
12.44167,588
12.45000,588
12.45833,587
12.46667,586
12.47500,586
12.48333,585
12.49167,584
12.50000,583
12.50833,582
12.51667,581
12.52500,580
12.53333,578
12.54167,577
12.55000,575
12.55833,574
12.56667,572
12.57500,570
12.58333,569
12.59167,568
12.60000,567
12.60833,565
12.61667,564
12.62500,563
12.63333,562
12.64167,562
12.65000,562
12.65833,562
12.66667,563
12.67500,564
12.68333,567
12.69167,571
12.70000,575
12.70833,582
12.71667,589
12.72500,598
12.73333,609
12.74167,622
12.75000,638
12.75833,656
12.76667,678
12.77500,703
12.78333,731
12.79167,763
12.80000,798
12.80833,837
12.81667,881
12.82500,928
12.83333,981
12.84167,1038
12.85000,1100
12.85833,1167
12.86667,1239
12.87500,1316
12.88333,1398
12.89167,1485
12.90000,1578
12.90833,1677
12.91667,1782
12.92500,1892
12.93333,2008
12.94167,2130
12.95000,2257
12.95833,2390
12.96667,2528
12.97500,2672
12.98333,2822
12.99167,2977
13.00000,3138
13.00833,3304
13.01667,3476
13.02500,3654
13.03333,3837
13.04167,4025
13.05000,4218
13.05833,4417
13.06667,4621
13.07500,4830
13.08333,5044
13.09167,5264
13.10000,5488
13.10833,5716
13.11667,5950
13.12500,6187
13.13333,6430
13.14167,6676
13.15000,6927
13.15833,7182
13.16667,7441
13.17500,7704
13.18333,7972
13.19167,8243
13.20000,8519
13.20833,8798
13.21667,9081
13.22500,9368
13.23333,9658
13.24167,9951
13.25000,10248
13.25833,10549
13.26667,10853
13.27500,11160
13.28333,11471
13.29167,11784
13.30000,12101
13.30833,12421
13.31667,12744
13.32500,13071
13.33333,13401
13.34167,13733
13.35000,14069
13.35833,14407
13.36667,14749
13.37500,15093
13.38333,15441
13.39167,15791
13.40000,16145
13.40833,16502
13.41667,16861
13.42500,17224
13.43333,17589
13.44167,17957
13.45000,18329
13.45833,18704
13.46667,19081
13.47500,19462
13.48333,19846
13.49167,20233
13.50000,20623
13.50833,21016
13.51667,21412
13.52500,21811
13.53333,22212
13.54167,22617
13.55000,23025
13.55833,23436
13.56667,23850
13.57500,24268
13.58333,24689
13.59167,25113
13.60000,25541
13.60833,25972
13.61667,26406
13.62500,26844
13.63333,27285
13.64167,27729
13.65000,28178
13.65833,28629
13.66667,29085
13.67500,29544
13.68333,30006
13.69167,30472
13.70000,30942
13.70833,31416
13.71667,31893
13.72500,32374
13.73333,32859
13.74167,33348
13.75000,33841
13.75833,34338
13.76667,34839
13.77500,35344
13.78333,35853
13.79167,36366
13.80000,36883
13.80833,37405
13.81667,37931
13.82500,38461
13.83333,38996
13.84167,39535
13.85000,40079
13.85833,40628
13.86667,41180
13.87500,41738
13.88333,42300
13.89167,42868
13.90000,43440
13.90833,44016
13.91667,44598
13.92500,45184
13.93333,45775
13.94167,46372
13.95000,46974
13.95833,47581
13.96667,48193
13.97500,48811
13.98333,49435
13.99167,50063
14.00000,50696
14.00833,51336
14.01667,51980
14.02500,52630
14.03333,53286
14.04167,53948
14.05000,54615
14.05833,55289
14.06667,55969
14.07500,56655
14.08333,57347
14.09167,58045
14.10000,58751
14.10833,59462
14.11667,60179
14.12500,60903
14.13333,61634
14.14167,62372
14.15000,63116
14.15833,63868
14.16667,64626
14.17500,65392
14.18333,66164
14.19167,66943
14.20000,67728
14.20833,68519
14.21667,69313
14.22500,70108
14.23333,70901
14.24167,71686
14.25000,72457
14.25833,73205
14.26667,73922
14.27500,74595
14.28333,75214
14.29167,75766
14.30000,76238
14.30833,76618
14.31667,76895
14.32500,77058
14.33333,77098
14.34167,77009
14.35000,76784
14.35833,76420
14.36667,75912
14.37500,75258
14.38333,74456
14.39167,73505
14.40000,72401
14.40833,71145
14.41667,69732
14.42500,68161
14.43333,66433
14.44167,64546
14.45000,62504
14.45833,60311
14.46667,57976
14.47500,55511
14.48333,52931
14.49167,50255
14.50000,47505
14.50833,44705
14.51667,41883
14.52500,39066
14.53333,36280
14.54167,33553
14.55000,30907
14.55833,28363
14.56667,25939
14.57500,23649
14.58333,21504
14.59167,19509
14.60000,17667
14.60833,15979
14.61667,14439
14.62500,13044
14.63333,11786
14.64167,10657
14.65000,9647
14.65833,8748
14.66667,7949
14.67500,7241
14.68333,6615
14.69167,6061
14.70000,5572
14.70833,5140
14.71667,4759
14.72500,4423
14.73333,4125
14.74167,3862
14.75000,3628
14.75833,3419
14.76667,3234
14.77500,3068
14.78333,2919
14.79167,2785
14.80000,2664
14.80833,2554
14.81667,2454
14.82500,2363
14.83333,2280
14.84167,2204
14.85000,2133
14.85833,2068
14.86667,2007
14.87500,1950
14.88333,1897
14.89167,1848
14.90000,1801
14.90833,1758
14.91667,1716
14.92500,1678
14.93333,1641
14.94167,1606
14.95000,1574
14.95833,1543
14.96667,1513
14.97500,1485
14.98333,1459
14.99167,1434
15.00000,1410
15.00833,1387
15.01667,1366
15.02500,1346
15.03333,1327
15.04167,1308
15.05000,1291
15.05833,1275
15.06667,1259
15.07500,1245
15.08333,1231
15.09167,1218
15.10000,1206
15.10833,1194
15.11667,1183
15.12500,1173
15.13333,1164
15.14167,1155
15.15000,1148
15.15833,1141
15.16667,1136
15.17500,1132
15.18333,1130
15.19167,1130
15.20000,1132
15.20833,1137
15.21667,1144
15.22500,1156
15.23333,1173
15.24167,1196
15.25000,1225
15.25833,1263
15.26667,1310
15.27500,1367
15.28333,1437
15.29167,1521
15.30000,1621
15.30833,1740
15.31667,1881
15.32500,2044
15.33333,2234
15.34167,2453
15.35000,2704
15.35833,2990
15.36667,3313
15.37500,3677
15.38333,4085
15.39167,4539
15.40000,5041
15.40833,5594
15.41667,6199
15.42500,6858
15.43333,7572
15.44167,8341
15.45000,9166
15.45833,10047
15.46667,10981
15.47500,11968
15.48333,13006
15.49167,14090
15.50000,15219
15.50833,16387
15.51667,17591
15.52500,18827
15.53333,20087
15.54167,21367
15.55000,22660
15.55833,23961
15.56667,25263
15.57500,26558
15.58333,27842
15.59167,29108
15.60000,30350
15.60833,31562
15.61667,32738
15.62500,33873
15.63333,34962
15.64167,36001
15.65000,36987
15.65833,37914
15.66667,38780
15.67500,39582
15.68333,40318
15.69167,40985
15.70000,41581
15.70833,42105
15.71667,42557
15.72500,42934
15.73333,43238
15.74167,43467
15.75000,43622
15.75833,43702
15.76667,43708
15.77500,43641
15.78333,43500
15.79167,43289
15.80000,43006
15.80833,42655
15.81667,42236
15.82500,41751
15.83333,41202
15.84167,40593
15.85000,39925
15.85833,39201
15.86667,38425
15.87500,37601
15.88333,36731
15.89167,35819
15.90000,34869
15.90833,33886
15.91667,32875
15.92500,31838
15.93333,30782
15.94167,29709
15.95000,28625
15.95833,27534
15.96667,26440
15.97500,25347
15.98333,24260
15.99167,23181
16.00000,22116
16.00833,21067
16.01667,20038
16.02500,19031
16.03333,18048
16.04167,17093
16.05000,16167
16.05833,15271
16.06667,14408
16.07500,13578
16.08333,12782
16.09167,12021
16.10000,11295
16.10833,10605
16.11667,9950
16.12500,9330
16.13333,8744
16.14167,8191
16.15000,7672
16.15833,7185
16.16667,6728
16.17500,6301
16.18333,5902
16.19167,5531
16.20000,5186
16.20833,4866
16.21667,4569
16.22500,4294
16.23333,4040
16.24167,3806
16.25000,3590
16.25833,3390
16.26667,3207
16.27500,3038
16.28333,2883
16.29167,2741
16.30000,2610
16.30833,2490
16.31667,2380
16.32500,2280
16.33333,2187
16.34167,2102
16.35000,2023
16.35833,1951
16.36667,1884
16.37500,1823
16.38333,1767
16.39167,1715
16.40000,1666
16.40833,1621
16.41667,1580
16.42500,1541
16.43333,1505
16.44167,1470
16.45000,1438
16.45833,1407
16.46667,1378
16.47500,1350
16.48333,1323
16.49167,1297
16.50000,1273
16.50833,1249
16.51667,1226
16.52500,1204
16.53333,1182
16.54167,1161
16.55000,1141
16.55833,1121
16.56667,1101
16.57500,1082
16.58333,1063
16.59167,1045
16.60000,1026
16.60833,1008
16.61667,990
16.62500,972
16.63333,955
16.64167,938
16.65000,921
16.65833,905
16.66667,889
16.67500,874
16.68333,859
16.69167,844
16.70000,830
16.70833,816
16.71667,802
16.72500,789
16.73333,777
16.74167,765
16.75000,754
16.75833,742
16.76667,732
16.77500,722
16.78333,713
16.79167,704
16.80000,696
16.80833,688
16.81667,681
16.82500,673
16.83333,667
16.84167,660
16.85000,655
16.85833,650
16.86667,645
16.87500,640
16.88333,636
16.89167,632
16.90000,629
16.90833,626
16.91667,623
16.92500,620
16.93333,618
16.94167,616
16.95000,614
16.95833,612
16.96667,610
16.97500,609
16.98333,607
16.99167,606
17.00000,605
17.00833,604
17.01667,603
17.02500,602
17.03333,601
17.04167,600
17.05000,600
17.05833,599
17.06667,599
17.07500,598
17.08333,598
17.09167,597
17.10000,597
17.10833,596
17.11667,595
17.12500,594
17.13333,594
17.14167,593
17.15000,593
17.15833,592
17.16667,592
17.17500,591
17.18333,591
17.19167,590
17.20000,589
17.20833,589
17.21667,588
17.22500,588
17.23333,587
17.24167,586
17.25000,585
17.25833,584
17.26667,583
17.27500,582
17.28333,582
17.29167,581
17.30000,580
17.30833,579
17.31667,578
17.32500,577
17.33333,577
17.34167,576
17.35000,576
17.35833,575
17.36667,574
17.37500,574
17.38333,574
17.39167,574
17.40000,575
17.40833,576
17.41667,576
17.42500,577
17.43333,578
17.44167,579
17.45000,581
17.45833,583
17.46667,585
17.47500,587
17.48333,590
17.49167,593
17.50000,596
17.50833,600
17.51667,604
17.52500,608
17.53333,612
17.54167,617
17.55000,623
17.55833,628
17.56667,634
17.57500,639
17.58333,644
17.59167,650
17.60000,656
17.60833,662
17.61667,668
17.62500,674
17.63333,680
17.64167,686
17.65000,692
17.65833,697
17.66667,702
17.67500,708
17.68333,714
17.69167,719
17.70000,724
17.70833,730
17.71667,735
17.72500,740
17.73333,744
17.74167,749
17.75000,754
17.75833,758
17.76667,762
17.77500,766
17.78333,770
17.79167,773
17.80000,776
17.80833,778
17.81667,781
17.82500,782
17.83333,784
17.84167,785
17.85000,786
17.85833,787
17.86667,787
17.87500,787
17.88333,787
17.89167,787
17.90000,785
17.90833,784
17.91667,783
17.92500,781
17.93333,778
17.94167,774
17.95000,771
17.95833,767
17.96667,763
17.97500,759
17.98333,754
17.99167,749
18.00000,744
18.00833,739
18.01667,733
18.02500,728
18.03333,722
18.04167,716
18.05000,709
18.05833,702
18.06667,696
18.07500,689
18.08333,682
18.09167,675
18.10000,667
18.10833,660
18.11667,653
18.12500,645
18.13333,638
18.14167,631
18.15000,624
18.15833,618
18.16667,612
18.17500,605
18.18333,599
18.19167,593
18.20000,587
18.20833,581
18.21667,575
18.22500,570
18.23333,565
18.24167,559
18.25000,554
18.25833,550
18.26667,545
18.27500,541
18.28333,537
18.29167,533
18.30000,530
18.30833,527
18.31667,524
18.32500,522
18.33333,520
18.34167,518
18.35000,517
18.35833,515
18.36667,514
18.37500,513
18.38333,513
18.39167,513
18.40000,513
18.40833,514
18.41667,515
18.42500,515
18.43333,516
18.44167,518
18.45000,520
18.45833,522
18.46667,524
18.47500,527
18.48333,530
18.49167,533
18.50000,536
18.50833,540
18.51667,544
18.52500,548
18.53333,552
18.54167,556
18.55000,561
18.55833,565
18.56667,570
18.57500,576
18.58333,581
18.59167,585
18.60000,590
18.60833,595
18.61667,600
18.62500,605
18.63333,609
18.64167,614
18.65000,620
18.65833,625
18.66667,631
18.67500,636
18.68333,641
18.69167,646
18.70000,650
18.70833,655
18.71667,659
18.72500,664
18.73333,669
18.74167,674
18.75000,679
18.75833,683
18.76667,688
18.77500,693
18.78333,697
18.79167,701
18.80000,705
18.80833,709
18.81667,713
18.82500,717
18.83333,720
18.84167,724
18.85000,727
18.85833,731
18.86667,734
18.87500,737
18.88333,740
18.89167,743
18.90000,746
18.90833,748
18.91667,750
18.92500,752
18.93333,754
18.94167,756
18.95000,758
18.95833,761
18.96667,762
18.97500,764
18.98333,766
18.99167,767
19.00000,768
19.00833,770
19.01667,771
19.02500,772
19.03333,772
19.04167,772
19.05000,772
19.05833,772
19.06667,771
19.07500,771
19.08333,771
19.09167,771
19.10000,770
19.10833,769
19.11667,768
19.12500,766
19.13333,764
19.14167,762
19.15000,760
19.15833,758
19.16667,756
19.17500,753
19.18333,751
19.19167,747
19.20000,744
19.20833,740
19.21667,737
19.22500,733
19.23333,729
19.24167,725
19.25000,720
19.25833,715
19.26667,710
19.27500,706
19.28333,701
19.29167,696
19.30000,690
19.30833,685
19.31667,679
19.32500,673
19.33333,668
19.34167,662
19.35000,656
19.35833,649
19.36667,643
19.37500,636
19.38333,630
19.39167,624
19.40000,617
19.40833,611
19.41667,604
19.42500,598
19.43333,591
19.44167,584
19.45000,576
19.45833,569
19.46667,563
19.47500,556
19.48333,548
19.49167,541
19.50000,535
19.50833,528
19.51667,521
19.52500,515
19.53333,508
19.54167,501
19.55000,495
19.55833,489
19.56667,483
19.57500,477
19.58333,471
19.59167,466
19.60000,460
19.60833,455
19.61667,450
19.62500,445
19.63333,440
19.64167,435
19.65000,430
19.65833,426
19.66667,422
19.67500,418
19.68333,414
19.69167,411
19.70000,408
19.70833,406
19.71667,404
19.72500,403
19.73333,402
19.74167,400
19.75000,400
19.75833,399
19.76667,399
19.77500,400
19.78333,402
19.79167,404
19.80000,407
19.80833,410
19.81667,413
19.82500,417
19.83333,422
19.84167,427
19.85000,432
19.85833,438
19.86667,445
19.87500,453
19.88333,461
19.89167,469
19.90000,478
19.90833,488
19.91667,499
19.92500,510
19.93333,521
19.94167,533
19.95000,546
19.95833,559
19.96667,572
19.97500,586
19.98333,600
19.99167,615
20.00000,630
20.00833,645
20.01667,660
20.02500,675
20.03333,690
20.04167,705
20.05000,720
20.05833,735
20.06667,750
20.07500,765
20.08333,780
20.09167,795
20.10000,809
20.10833,823
20.11667,836
20.12500,850
20.13333,862
20.14167,875
20.15000,886
20.15833,897
20.16667,908
20.17500,918
20.18333,927
20.19167,937
20.20000,945
20.20833,953
20.21667,960
20.22500,966
20.23333,972
20.24167,976
20.25000,980
20.25833,984
20.26667,987
20.27500,989
20.28333,991
20.29167,992
20.30000,992
20.30833,992
20.31667,991
20.32500,989
20.33333,987
20.34167,984
20.35000,980
20.35833,976
20.36667,971
20.37500,966
20.38333,960
20.39167,953
20.40000,946
20.40833,938
20.41667,931
20.42500,923
20.43333,914
20.44167,905
20.45000,895
20.45833,885
20.46667,875
20.47500,864
20.48333,854
20.49167,842
20.50000,831
20.50833,819
20.51667,808
20.52500,797
20.53333,785
20.54167,774
20.55000,762
20.55833,751
20.56667,740
20.57500,728
20.58333,717
20.59167,706
20.60000,696
20.60833,685
20.61667,675
20.62500,665
20.63333,655
20.64167,646
20.65000,636
20.65833,628
20.66667,619
20.67500,611
20.68333,603
20.69167,596
20.70000,589
20.70833,582
20.71667,576
20.72500,570
20.73333,565
20.74167,559
20.75000,554
20.75833,549
20.76667,545
20.77500,541
20.78333,537
20.79167,534
20.80000,531
20.80833,528
20.81667,525
20.82500,523
20.83333,521
20.84167,520
20.85000,519
20.85833,519
20.86667,519
20.87500,519
20.88333,520
20.89167,521
20.90000,523
20.90833,526
20.91667,529
20.92500,533
20.93333,539
20.94167,545
20.95000,553
20.95833,562
20.96667,572
20.97500,584
20.98333,598
20.99167,613
21.00000,630
21.00833,650
21.01667,672
21.02500,696
21.03333,723
21.04167,753
21.05000,785
21.05833,820
21.06667,859
21.07500,901
21.08333,946
21.09167,995
21.10000,1046
21.10833,1101
21.11667,1160
21.12500,1222
21.13333,1288
21.14167,1356
21.15000,1428
21.15833,1503
21.16667,1580
21.17500,1661
21.18333,1743
21.19167,1828
21.20000,1915
21.20833,2003
21.21667,2093
21.22500,2185
21.23333,2277
21.24167,2369
21.25000,2462
21.25833,2554
21.26667,2645
21.27500,2736
21.28333,2825
21.29167,2913
21.30000,2999
21.30833,3084
21.31667,3166
21.32500,3246
21.33333,3324
21.34167,3400
21.35000,3472
21.35833,3542
21.36667,3609
21.37500,3673
21.38333,3733
21.39167,3791
21.40000,3846
21.40833,3897
21.41667,3945
21.42500,3991
21.43333,4033
21.44167,4073
21.45000,4109
21.45833,4143
21.46667,4173
21.47500,4200
21.48333,4225
21.49167,4246
21.50000,4264
21.50833,4279
21.51667,4291
21.52500,4300
21.53333,4305
21.54167,4308
21.55000,4307
21.55833,4303
21.56667,4296
21.57500,4285
21.58333,4271
21.59167,4254
21.60000,4233
21.60833,4208
21.61667,4180
21.62500,4148
21.63333,4113
21.64167,4075
21.65000,4034
21.65833,3988
21.66667,3940
21.67500,3888
21.68333,3833
21.69167,3776
21.70000,3715
21.70833,3652
21.71667,3587
21.72500,3520
21.73333,3451
21.74167,3380
21.75000,3308
21.75833,3235
21.76667,3160
21.77500,3085
21.78333,3010
21.79167,2935
21.80000,2859
21.80833,2784
21.81667,2710
21.82500,2636
21.83333,2563
21.84167,2491
21.85000,2419
21.85833,2349
21.86667,2281
21.87500,2214
21.88333,2149
21.89167,2085
21.90000,2024
21.90833,1964
21.91667,1906
21.92500,1850
21.93333,1796
21.94167,1743
21.95000,1693
21.95833,1644
21.96667,1597
21.97500,1551
21.98333,1507
21.99167,1464
22.00000,1423
22.00833,1384
22.01667,1346
22.02500,1309
22.03333,1274
22.04167,1239
22.05000,1206
22.05833,1173
22.06667,1141
22.07500,1111
22.08333,1081
22.09167,1052
22.10000,1023
22.10833,996
22.11667,968
22.12500,942
22.13333,916
22.14167,890
22.15000,866
22.15833,841
22.16667,818
22.17500,795
22.18333,772
22.19167,750
22.20000,728
22.20833,707
22.21667,687
22.22500,667
22.23333,648
22.24167,629
22.25000,611
22.25833,593
22.26667,576
22.27500,559
22.28333,543
22.29167,528
22.30000,513
22.30833,498
22.31667,485
22.32500,472
22.33333,460
22.34167,449
22.35000,438
22.35833,428
22.36667,418
22.37500,408
22.38333,399
22.39167,390
22.40000,382
22.40833,375
22.41667,368
22.42500,361
22.43333,355
22.44167,350
22.45000,345
22.45833,340
22.46667,336
22.47500,333
22.48333,329
22.49167,326
22.50000,324
22.50833,321
22.51667,320
22.52500,318
22.53333,317
22.54167,316
22.55000,315
22.55833,315
22.56667,316
22.57500,316
22.58333,318
22.59167,319
22.60000,321
22.60833,324
22.61667,326
22.62500,329
22.63333,333
22.64167,337
22.65000,342
22.65833,346
22.66667,352
22.67500,357
22.68333,362
22.69167,368
22.70000,374
22.70833,381
22.71667,389
22.72500,396
22.73333,404
22.74167,412
22.75000,420
22.75833,428
22.76667,437
22.77500,446
22.78333,455
22.79167,464
22.80000,473
22.80833,483
22.81667,493
22.82500,503
22.83333,513
22.84167,524
22.85000,534
22.85833,544
22.86667,554
22.87500,564
22.88333,573
22.89167,583
22.90000,593
22.90833,602
22.91667,611
22.92500,620
22.93333,628
22.94167,637
22.95000,645
22.95833,653
22.96667,661
22.97500,669
22.98333,676
22.99167,682
23.00000,689
23.00833,696
23.01667,702
23.02500,708
23.03333,713
23.04167,718
23.05000,723
23.05833,727
23.06667,731
23.07500,734
23.08333,737
23.09167,739
23.10000,742
23.10833,743
23.11667,745
23.12500,746
23.13333,747
23.14167,747
23.15000,747
23.15833,746
23.16667,745
23.17500,744
23.18333,741
23.19167,739
23.20000,735
23.20833,731
23.21667,727
23.22500,723
23.23333,718
23.24167,713
23.25000,708
23.25833,702
23.26667,696
23.27500,689
23.28333,682
23.29167,675
23.30000,667
23.30833,659
23.31667,651
23.32500,644
23.33333,635
23.34167,627
23.35000,619
23.35833,611
23.36667,602
23.37500,594
23.38333,585
23.39167,577
23.40000,569
23.40833,560
23.41667,552
23.42500,544
23.43333,536
23.44167,528
23.45000,521
23.45833,514
23.46667,507
23.47500,500
23.48333,493
23.49167,486
23.50000,480
23.50833,475
23.51667,469
23.52500,464
23.53333,459
23.54167,454
23.55000,449
23.55833,445
23.56667,441
23.57500,437
23.58333,433
23.59167,430
23.60000,427
23.60833,424
23.61667,420
23.62500,417
23.63333,414
23.64167,412
23.65000,410
23.65833,408
23.66667,406
23.67500,404
23.68333,402
23.69167,400
23.70000,398
23.70833,397
23.71667,395
23.72500,394
23.73333,393
23.74167,392
23.75000,391
23.75833,389
23.76667,388
23.77500,387
23.78333,385
23.79167,385
23.80000,384
23.80833,383
23.81667,383
23.82500,382
23.83333,381
23.84167,381
23.85000,380
23.85833,379
23.86667,378
23.87500,378
23.88333,377
23.89167,376
23.90000,375
23.90833,375
23.91667,374
23.92500,373
23.93333,372
23.94167,371
23.95000,371
23.95833,370
23.96667,369
23.97500,369
23.98333,368
23.99167,368
24.00000,367
24.00833,367
24.01667,366
24.02500,365
24.03333,364
24.04167,363
24.05000,363
24.05833,362
24.06667,362
24.07500,361
24.08333,361
24.09167,360
24.10000,360
24.10833,359
24.11667,358
24.12500,357
24.13333,357
24.14167,357
24.15000,357
24.15833,356
24.16667,356
24.17500,355
24.18333,355
24.19167,354
24.20000,354
24.20833,353
24.21667,353
24.22500,353
24.23333,352
24.24167,352
24.25000,352
24.25833,352
24.26667,352
24.27500,352
24.28333,352
24.29167,353
24.30000,354
24.30833,354
24.31667,355
24.32500,356
24.33333,358
24.34167,359
24.35000,361
24.35833,363
24.36667,366
24.37500,369
24.38333,373
24.39167,377
24.40000,382
24.40833,387
24.41667,393
24.42500,401
24.43333,409
24.44167,418
24.45000,429
24.45833,440
24.46667,453
24.47500,467
24.48333,482
24.49167,500
24.50000,519
24.50833,540
24.51667,563
24.52500,588
24.53333,615
24.54167,644
24.55000,675
24.55833,709
24.56667,745
24.57500,784
24.58333,825
24.59167,869
24.60000,916
24.60833,965
24.61667,1016
24.62500,1070
24.63333,1127
24.64167,1186
24.65000,1247
24.65833,1310
24.66667,1376
24.67500,1444
24.68333,1513
24.69167,1585
24.70000,1658
24.70833,1732
24.71667,1807
24.72500,1884
24.73333,1962
24.74167,2040
24.75000,2120
24.75833,2199
24.76667,2279
24.77500,2358
24.78333,2438
24.79167,2517
24.80000,2594
24.80833,2672
24.81667,2748
24.82500,2823
24.83333,2896
24.84167,2969
24.85000,3039
24.85833,3108
24.86667,3175
24.87500,3240
24.88333,3303
24.89167,3364
24.90000,3422
24.90833,3479
24.91667,3533
24.92500,3585
24.93333,3634
24.94167,3681
24.95000,3725
24.95833,3768
24.96667,3808
24.97500,3845
24.98333,3880
24.99167,3912
25.00000,3942
25.00833,3969
25.01667,3993
25.02500,4015
25.03333,4035
25.04167,4051
25.05000,4065
25.05833,4076
25.06667,4084
25.07500,4090
25.08333,4092
25.09167,4092
25.10000,4088
25.10833,4082
25.11667,4072
25.12500,4059
25.13333,4043
25.14167,4024
25.15000,4002
25.15833,3976
25.16667,3947
25.17500,3915
25.18333,3879
25.19167,3841
25.20000,3799
25.20833,3754
25.21667,3707
25.22500,3657
25.23333,3603
25.24167,3548
25.25000,3489
25.25833,3429
25.26667,3365
25.27500,3300
25.28333,3233
25.29167,3164
25.30000,3094
25.30833,3022
25.31667,2949
25.32500,2874
25.33333,2799
25.34167,2723
25.35000,2647
25.35833,2570
25.36667,2494
25.37500,2417
25.38333,2341
25.39167,2266
25.40000,2191
25.40833,2116
25.41667,2043
25.42500,1971
25.43333,1900
25.44167,1830
25.45000,1762
25.45833,1696
25.46667,1631
25.47500,1568
25.48333,1507
25.49167,1447
25.50000,1389
25.50833,1333
25.51667,1279
25.52500,1228
25.53333,1178
25.54167,1130
25.55000,1084
25.55833,1040
25.56667,998
25.57500,958
25.58333,920
25.59167,883
25.60000,849
25.60833,816
25.61667,785
25.62500,756
25.63333,728
25.64167,702
25.65000,677
25.65833,653
25.66667,631
25.67500,610
25.68333,590
25.69167,571
25.70000,554
25.70833,538
25.71667,522
25.72500,507
25.73333,493
25.74167,480
25.75000,468
25.75833,456
25.76667,445
25.77500,435
25.78333,425
25.79167,415
25.80000,406
25.80833,398
25.81667,390
25.82500,383
25.83333,375
25.84167,369
25.85000,362
25.85833,355
25.86667,349
25.87500,343
25.88333,337
25.89167,331
25.90000,326
25.90833,320
25.91667,315
25.92500,309
25.93333,304
25.94167,299
25.95000,294
25.95833,289
25.96667,285
25.97500,280
25.98333,275
25.99167,270
26.00000,266
26.00833,261
26.01667,257
26.02500,252
26.03333,248
26.04167,243
26.05000,239
26.05833,234
26.06667,230
26.07500,226
26.08333,222
26.09167,218
26.10000,214
26.10833,210
26.11667,206
26.12500,203
26.13333,199
26.14167,195
26.15000,192
26.15833,188
26.16667,184
26.17500,181
26.18333,178
26.19167,175
26.20000,172
26.20833,169
26.21667,166
26.22500,163
26.23333,161
26.24167,158
26.25000,156
26.25833,153
26.26667,151
26.27500,149
26.28333,147
26.29167,145
26.30000,144
26.30833,142
26.31667,140
26.32500,137
26.33333,136
26.34167,134
26.35000,133
26.35833,132
26.36667,131
26.37500,130
26.38333,129
26.39167,128
26.40000,127
26.40833,126
26.41667,125
26.42500,124
26.43333,124
26.44167,123
26.45000,122
26.45833,122
26.46667,121
26.47500,121
26.48333,121
26.49167,121
26.50000,120
26.50833,120
26.51667,120
26.52500,119
26.53333,118
26.54167,118
26.55000,118
26.55833,118
26.56667,118
26.57500,118
26.58333,118
26.59167,118
26.60000,118
26.60833,118
26.61667,118
26.62500,118
26.63333,118
26.64167,118
26.65000,118
26.65833,119
26.66667,119
26.67500,119
26.68333,119
26.69167,119
26.70000,119
26.70833,120
26.71667,120
26.72500,119
26.73333,119
26.74167,120
26.75000,120
26.75833,120
26.76667,120
26.77500,120
26.78333,120
26.79167,121
26.80000,121
26.80833,121
26.81667,121
26.82500,121
26.83333,121
26.84167,121
26.85000,121
26.85833,121
26.86667,121
26.87500,121
26.88333,122
26.89167,122
26.90000,122
26.90833,123
26.91667,123
26.92500,123
26.93333,123
26.94167,123
26.95000,123
26.95833,123
26.96667,123
26.97500,123
26.98333,124
26.99167,124
27.00000,124
27.00833,125
27.01667,125
27.02500,125
27.03333,125
27.04167,125
27.05000,125
27.05833,126
27.06667,126
27.07500,126
27.08333,127
27.09167,127
27.10000,127
27.10833,127
27.11667,127
27.12500,127
27.13333,128
27.14167,128
27.15000,128
27.15833,128
27.16667,128
27.17500,129
27.18333,129
27.19167,129
27.20000,129
27.20833,129
27.21667,129
27.22500,129
27.23333,129
27.24167,129
27.25000,129
27.25833,129
27.26667,129
27.27500,129
27.28333,130
27.29167,130
27.30000,129
27.30833,129
27.31667,129
27.32500,129
27.33333,129
27.34167,129
27.35000,128
27.35833,128
27.36667,127
27.37500,127
27.38333,127
27.39167,127
27.40000,127
27.40833,127
27.41667,126
27.42500,126
27.43333,126
27.44167,125
27.45000,125
27.45833,124
27.46667,124
27.47500,123
27.48333,123
27.49167,122
27.50000,121
27.50833,121
27.51667,121
27.52500,121
27.53333,120
27.54167,120
27.55000,119
27.55833,118
27.56667,118
27.57500,118
27.58333,117
27.59167,116
27.60000,115
27.60833,114
27.61667,113
27.62500,113
27.63333,112
27.64167,112
27.65000,111
27.65833,111
27.66667,110
27.67500,109
27.68333,108
27.69167,107
27.70000,106
27.70833,104
27.71667,103
27.72500,102
27.73333,102
27.74167,101
27.75000,100
27.75833,99
27.76667,98
27.77500,98
27.78333,97
27.79167,96
27.80000,95
27.80833,95
27.81667,94
27.82500,94
27.83333,93
27.84167,92
27.85000,91
27.85833,90
27.86667,89
27.87500,89
27.88333,88
27.89167,87
27.90000,86
27.90833,85
27.91667,84
27.92500,84
27.93333,83
27.94167,83
27.95000,82
27.95833,82
27.96667,82
27.97500,82
27.98333,82
27.99167,82
28.00000,82
28.00833,82
28.01667,82
28.02500,82
28.03333,82
28.04167,81
28.05000,81
28.05833,81
28.06667,81
28.07500,81
28.08333,81
28.09167,82
28.10000,82
28.10833,82
28.11667,83
28.12500,83
28.13333,83
28.14167,84
28.15000,84
28.15833,84
28.16667,84
28.17500,84
28.18333,84
28.19167,85
28.20000,86
28.20833,86
28.21667,86
28.22500,87
28.23333,87
28.24167,88
28.25000,88
28.25833,88
28.26667,89
28.27500,90
28.28333,91
28.29167,92
28.30000,93
28.30833,93
28.31667,94
28.32500,95
28.33333,96
28.34167,97
28.35000,99
28.35833,100
28.36667,101
28.37500,103
28.38333,105
28.39167,108
28.40000,111
28.40833,114
28.41667,117
28.42500,121
28.43333,125
28.44167,129
28.45000,134
28.45833,139
28.46667,144
28.47500,151
28.48333,158
28.49167,165
28.50000,174
28.50833,183
28.51667,193
28.52500,204
28.53333,216
28.54167,228
28.55000,242
28.55833,256
28.56667,272
28.57500,289
28.58333,307
28.59167,326
28.60000,347
28.60833,369
28.61667,392
28.62500,416
28.63333,442
28.64167,469
28.65000,497
28.65833,528
28.66667,559
28.67500,592
28.68333,626
28.69167,662
28.70000,699
28.70833,738
28.71667,778
28.72500,819
28.73333,862
28.74167,906
28.75000,951
28.75833,998
28.76667,1046
28.77500,1095
28.78333,1144
28.79167,1195
28.80000,1246
28.80833,1298
28.81667,1350
28.82500,1403
28.83333,1456
28.84167,1510
28.85000,1563
28.85833,1617
28.86667,1670
28.87500,1724
28.88333,1777
28.89167,1830
28.90000,1882
28.90833,1934
28.91667,1984
28.92500,2034
28.93333,2084
28.94167,2132
28.95000,2179
28.95833,2225
28.96667,2270
28.97500,2313
28.98333,2355
28.99167,2395
29.00000,2434
29.00833,2472
29.01667,2509
29.02500,2544
29.03333,2577
29.04167,2609
29.05000,2638
29.05833,2666
29.06667,2692
29.07500,2717
29.08333,2740
29.09167,2762
29.10000,2782
29.10833,2800
29.11667,2817
29.12500,2832
29.13333,2847
29.14167,2859
29.15000,2870
29.15833,2880
29.16667,2887
29.17500,2894
29.18333,2899
29.19167,2903
29.20000,2905
29.20833,2905
29.21667,2905
29.22500,2903
29.23333,2899
29.24167,2894
29.25000,2887
29.25833,2880
29.26667,2870
29.27500,2860
29.28333,2847
29.29167,2834
29.30000,2818
29.30833,2802
29.31667,2783
29.32500,2764
29.33333,2743
29.34167,2721
29.35000,2697
29.35833,2672
29.36667,2645
29.37500,2617
29.38333,2587
29.39167,2556
29.40000,2524
29.40833,2491
29.41667,2456
29.42500,2420
29.43333,2382
29.44167,2344
29.45000,2304
29.45833,2263
29.46667,2221
29.47500,2179
29.48333,2135
29.49167,2091
29.50000,2046
29.50833,2000
29.51667,1954
29.52500,1907
29.53333,1860
29.54167,1812
29.55000,1764
29.55833,1716
29.56667,1669
29.57500,1621
29.58333,1573
29.59167,1526
29.60000,1478
29.60833,1431
29.61667,1384
29.62500,1337
29.63333,1292
29.64167,1246
29.65000,1202
29.65833,1157
29.66667,1114
29.67500,1072
29.68333,1031
29.69167,991
29.70000,952
29.70833,913
29.71667,876
29.72500,839
29.73333,804
29.74167,769
29.75000,736
29.75833,705
29.76667,674
29.77500,644
29.78333,615
29.79167,588
29.80000,561
29.80833,536
29.81667,512
29.82500,488
29.83333,466
29.84167,444
29.85000,424
29.85833,404
29.86667,386
29.87500,369
29.88333,352
29.89167,337
29.90000,322
29.90833,308
29.91667,295
29.92500,282
29.93333,271
29.94167,259
29.95000,249
29.95833,239
29.96667,230
29.97500,221
29.98333,213
29.99167,205
30.00000,198
30.00833,191
30.01667,185
30.02500,179
30.03333,174
30.04167,169
30.05000,165
30.05833,160
30.06667,157
30.07500,153
30.08333,149
30.09167,146
30.10000,143
30.10833,140
30.11667,137
30.12500,134
30.13333,132
30.14167,130
30.15000,128
30.15833,126
30.16667,125
30.17500,123
30.18333,122
30.19167,121
30.20000,120
30.20833,119
30.21667,118
30.22500,117
30.23333,117
30.24167,116
30.25000,116
30.25833,115
30.26667,114
30.27500,114
30.28333,113
30.29167,113
30.30000,113
30.30833,113
30.31667,113
30.32500,112
30.33333,112
30.34167,112
30.35000,112
30.35833,112
30.36667,112
30.37500,112
30.38333,113
30.39167,113
30.40000,113
30.40833,113
30.41667,114
30.42500,114
30.43333,114
30.44167,114
30.45000,115
30.45833,115
30.46667,115
30.47500,116
30.48333,117
30.49167,118
30.50000,119
30.50833,120
30.51667,121
30.52500,122
30.53333,123
30.54167,124
30.55000,124
30.55833,125
30.56667,126
30.57500,128
30.58333,129
30.59167,130
30.60000,132
30.60833,133
30.61667,135
30.62500,136
30.63333,137
30.64167,139
30.65000,140
30.65833,141
30.66667,143
30.67500,144
30.68333,146
30.69167,148
30.70000,149
30.70833,151
30.71667,152
30.72500,154
30.73333,156
30.74167,158
30.75000,160
30.75833,161
30.76667,163
30.77500,164
30.78333,166
30.79167,168
30.80000,170
30.80833,172
30.81667,174
30.82500,175
30.83333,177
30.84167,179
30.85000,180
30.85833,181
30.86667,182
30.87500,183
30.88333,185
30.89167,186
30.90000,188
30.90833,189
30.91667,190
30.92500,191
30.93333,192
30.94167,193
30.95000,194
30.95833,196
30.96667,197
30.97500,198
30.98333,199
30.99167,200
31.00000,201
31.00833,201
31.01667,202
31.02500,202
31.03333,203
31.04167,203
31.05000,204
31.05833,205
31.06667,205
31.07500,205
31.08333,206
31.09167,206
31.10000,206
31.10833,206
31.11667,206
31.12500,206
31.13333,206
31.14167,206
31.15000,206
31.15833,206
31.16667,206
31.17500,206
31.18333,205
31.19167,205
31.20000,204
31.20833,204
31.21667,203
31.22500,203
31.23333,202
31.24167,201
31.25000,200
31.25833,200
31.26667,199
31.27500,198
31.28333,198
31.29167,197
31.30000,196
31.30833,195
31.31667,194
31.32500,193
31.33333,193
31.34167,191
31.35000,190
31.35833,188
31.36667,187
31.37500,186
31.38333,185
31.39167,184
31.40000,183
31.40833,181
31.41667,180
31.42500,179
31.43333,178
31.44167,177
31.45000,176
31.45833,174
31.46667,173
31.47500,171
31.48333,170
31.49167,168
31.50000,167
31.50833,166
31.51667,165
31.52500,164
31.53333,163
31.54167,162
31.55000,161
31.55833,160
31.56667,159
31.57500,158
31.58333,158
31.59167,157
31.60000,157
31.60833,157
31.61667,157
31.62500,157
31.63333,157
31.64167,157
31.65000,157
31.65833,158
31.66667,159
31.67500,160
31.68333,162
31.69167,163
31.70000,165
31.70833,166
31.71667,168
31.72500,170
31.73333,172
31.74167,174
31.75000,177
31.75833,180
31.76667,184
31.77500,188
31.78333,191
31.79167,195
31.80000,199
31.80833,204
31.81667,208
31.82500,213
31.83333,219
31.84167,224
31.85000,230
31.85833,237
31.86667,243
31.87500,249
31.88333,256
31.89167,263
31.90000,270
31.90833,278
31.91667,286
31.92500,294
31.93333,302
31.94167,310
31.95000,318
31.95833,327
31.96667,335
31.97500,344
31.98333,353
31.99167,362
32.00000,371
32.00833,380
32.01667,389
32.02500,398
32.03333,408
32.04167,417
32.05000,426
32.05833,435
32.06667,444
32.07500,453
32.08333,462
32.09167,471
32.10000,479
32.10833,488
32.11667,497
32.12500,505
32.13333,513
32.14167,521
32.15000,529
32.15833,537
32.16667,545
32.17500,553
32.18333,560
32.19167,567
32.20000,574
32.20833,581
32.21667,588
32.22500,595
32.23333,601
32.24167,608
32.25000,614
32.25833,620
32.26667,626
32.27500,631
32.28333,637
32.29167,642
32.30000,648
32.30833,652
32.31667,657
32.32500,661
32.33333,666
32.34167,669
32.35000,673
32.35833,677
32.36667,681
32.37500,685
32.38333,688
32.39167,691
32.40000,694
32.40833,697
32.41667,699
32.42500,701
32.43333,703
32.44167,705
32.45000,707
32.45833,709
32.46667,710
32.47500,711
32.48333,712
32.49167,713
32.50000,713
32.50833,713
32.51667,712
32.52500,712
32.53333,711
32.54167,710
32.55000,709
32.55833,707
32.56667,706
32.57500,705
32.58333,703
32.59167,700
32.60000,698
32.60833,695
32.61667,692
32.62500,688
32.63333,685
32.64167,681
32.65000,677
32.65833,673
32.66667,669
32.67500,665
32.68333,661
32.69167,656
32.70000,651
32.70833,647
32.71667,642
32.72500,637
32.73333,632
32.74167,627
32.75000,621
32.75833,616
32.76667,610
32.77500,605
32.78333,600
32.79167,594
32.80000,589
32.80833,583
32.81667,578
32.82500,572
32.83333,567
32.84167,562
32.85000,557
32.85833,552
32.86667,547
32.87500,543
32.88333,538
32.89167,533
32.90000,528
32.90833,524
32.91667,520
32.92500,516
32.93333,512
32.94167,509
32.95000,505
32.95833,501
32.96667,497
32.97500,494
32.98333,490
32.99167,487
33.00000,485
33.00833,482
33.01667,479
33.02500,476
33.03333,473
33.04167,470
33.05000,468
33.05833,466
33.06667,463
33.07500,461
33.08333,459
33.09167,457
33.10000,455
33.10833,453
33.11667,451
33.12500,449
33.13333,447
33.14167,445
33.15000,443
33.15833,441
33.16667,440
33.17500,438
33.18333,436
33.19167,434
33.20000,432
33.20833,431
33.21667,428
33.22500,426
33.23333,423
33.24167,421
33.25000,418
33.25833,416
33.26667,413
33.27500,410
33.28333,408
33.29167,405
33.30000,402
33.30833,400
33.31667,397
33.32500,394
33.33333,391
33.34167,388
33.35000,384
33.35833,381
33.36667,377
33.37500,373
33.38333,370
33.39167,367
33.40000,364
33.40833,360
33.41667,357
33.42500,353
33.43333,349
33.44167,345
33.45000,341
33.45833,338
33.46667,334
33.47500,330
33.48333,326
33.49167,322
33.50000,317
33.50833,313
33.51667,308
33.52500,304
33.53333,300
33.54167,295
33.55000,291
33.55833,287
33.56667,282
33.57500,278
33.58333,274
33.59167,269
33.60000,265
33.60833,261
33.61667,256
33.62500,252
33.63333,248
33.64167,243
33.65000,239
33.65833,235
33.66667,230
33.67500,225
33.68333,221
33.69167,217
33.70000,212
33.70833,208
33.71667,204
33.72500,200
33.73333,196
33.74167,192
33.75000,188
33.75833,184
33.76667,180
33.77500,176
33.78333,172
33.79167,168
33.80000,164
33.80833,160
33.81667,157
33.82500,153
33.83333,149
33.84167,145
33.85000,141
33.85833,138
33.86667,134
33.87500,131
33.88333,129
33.89167,125
33.90000,122
33.90833,119
33.91667,116
33.92500,113
33.93333,110
33.94167,107
33.95000,104
33.95833,101
33.96667,99
33.97500,96
33.98333,93
33.99167,91
34.00000,88
34.00833,86
34.01667,83
34.02500,81
34.03333,78
34.04167,76
34.05000,74
34.05833,72
34.06667,71
34.07500,69
34.08333,68
34.09167,66
34.10000,65
34.10833,63
34.11667,62
34.12500,60
34.13333,59
34.14167,58
34.15000,56
34.15833,55
34.16667,54
34.17500,53
34.18333,52
34.19167,51
34.20000,50
34.20833,49
34.21667,47
34.22500,46
34.23333,46
34.24167,45
34.25000,44
34.25833,44
34.26667,43
34.27500,42
34.28333,42
34.29167,40
34.30000,39
34.30833,39
34.31667,38
34.32500,38
34.33333,38
34.34167,38
34.35000,38
34.35833,37
34.36667,37
34.37500,36
34.38333,36
34.39167,36
34.40000,35
34.40833,34
34.41667,34
34.42500,33
34.43333,33
34.44167,32
34.45000,32
34.45833,32
34.46667,32
34.47500,32
34.48333,32
34.49167,32
34.50000,32
34.50833,31
34.51667,31
34.52500,31
34.53333,31
34.54167,30
34.55000,29
34.55833,28
34.56667,28
34.57500,27
34.58333,26
34.59167,26
34.60000,26
34.60833,26
34.61667,25
34.62500,25
34.63333,25
34.64167,25
34.65000,26
34.65833,25
34.66667,25
34.67500,25
34.68333,25
34.69167,24
34.70000,24
34.70833,24
34.71667,24
34.72500,23
34.73333,23
34.74167,23
34.75000,23
34.75833,23
34.76667,22
34.77500,22
34.78333,22
34.79167,22
34.80000,21
34.80833,21
34.81667,21
34.82500,20
34.83333,20
34.84167,20
34.85000,20
34.85833,20
34.86667,20
34.87500,20
34.88333,19
34.89167,19
34.90000,19
34.90833,18
34.91667,18
34.92500,18
34.93333,17
34.94167,17
34.95000,17
34.95833,17
34.96667,17
34.97500,17
34.98333,17
34.99167,18
35.00000,18
35.00833,18
35.01667,18
35.02500,18
35.03333,18
35.04167,18
35.05000,18
35.05833,18
35.06667,18
35.07500,18
35.08333,18
35.09167,18
35.10000,19
35.10833,19
35.11667,19
35.12500,19
35.13333,20
35.14167,20
35.15000,21
35.15833,21
35.16667,22
35.17500,22
35.18333,23
35.19167,23
35.20000,23
35.20833,24
35.21667,24
35.22500,25
35.23333,25
35.24167,25
35.25000,26
35.25833,27
35.26667,28
35.27500,28
35.28333,29
35.29167,29
35.30000,30
35.30833,30
35.31667,31
35.32500,32
35.33333,33
35.34167,34
35.35000,35
35.35833,35
35.36667,36
35.37500,37
35.38333,38
35.39167,39
35.40000,40
35.40833,42
35.41667,43
35.42500,44
35.43333,44
35.44167,45
35.45000,46
35.45833,46
35.46667,47
35.47500,48
35.48333,49
35.49167,50
35.50000,51
35.50833,52
35.51667,53
35.52500,54
35.53333,55
35.54167,57
35.55000,58
35.55833,59
35.56667,60
35.57500,61
35.58333,61
35.59167,62
35.60000,63
35.60833,64
35.61667,65
35.62500,66
35.63333,67
35.64167,67
35.65000,68
35.65833,69
35.66667,70
35.67500,70
35.68333,71
35.69167,72
35.70000,72
35.70833,73
35.71667,73
35.72500,74
35.73333,75
35.74167,76
35.75000,77
35.75833,78
35.76667,79
35.77500,80
35.78333,81
35.79167,81
35.80000,82
35.80833,82
35.81667,82
35.82500,82
35.83333,82
35.84167,83
35.85000,83
35.85833,83
35.86667,84
35.87500,84
35.88333,85
35.89167,85
35.90000,86
35.90833,86
35.91667,86
35.92500,86
35.93333,86
35.94167,87
35.95000,87
35.95833,87
35.96667,87
35.97500,87
35.98333,88
35.99167,88
36.00000,88
36.00833,88
36.01667,88
36.02500,88
36.03333,88
36.04167,88
36.05000,89
36.05833,89
36.06667,89
36.07500,88
36.08333,88
36.09167,88
36.10000,88
36.10833,87
36.11667,87
36.12500,87
36.13333,87
36.14167,87
36.15000,86
36.15833,85
36.16667,85
36.17500,85
36.18333,85
36.19167,85
36.20000,85
36.20833,85
36.21667,84
36.22500,84
36.23333,83
36.24167,82
36.25000,82
36.25833,82
36.26667,81
36.27500,81
36.28333,80
36.29167,80
36.30000,79
36.30833,79
36.31667,78
36.32500,78
36.33333,77
36.34167,76
36.35000,76
36.35833,76
36.36667,75
36.37500,75
36.38333,74
36.39167,73
36.40000,73
36.40833,72
36.41667,72
36.42500,71
36.43333,70
36.44167,70
36.45000,69
36.45833,69
36.46667,69
36.47500,68
36.48333,68
36.49167,67
36.50000,67
36.50833,66
36.51667,66
36.52500,65
36.53333,65
36.54167,65
36.55000,64
36.55833,64
36.56667,64
36.57500,63
36.58333,62
36.59167,62
36.60000,62
36.60833,61
36.61667,61
36.62500,61
36.63333,61
36.64167,60
36.65000,60
36.65833,60
36.66667,60
36.67500,60
36.68333,59
36.69167,59
36.70000,59
36.70833,59
36.71667,59
36.72500,58
36.73333,59
36.74167,59
36.75000,59
36.75833,59
36.76667,59
36.77500,59
36.78333,59
36.79167,59
36.80000,59
36.80833,59
36.81667,59
36.82500,60
36.83333,60
36.84167,61
36.85000,61
36.85833,61
36.86667,62
36.87500,62
36.88333,62
36.89167,62
36.90000,62
36.90833,63
36.91667,63
36.92500,64
36.93333,64
36.94167,64
36.95000,65
36.95833,65
36.96667,65
36.97500,66
36.98333,66
36.99167,67
37.00000,68
37.00833,68
37.01667,69
37.02500,69
37.03333,70
37.04167,71
37.05000,71
37.05833,72
37.06667,73
37.07500,73
37.08333,74
37.09167,75
37.10000,75
37.10833,76
37.11667,77
37.12500,78
37.13333,78
37.14167,79
37.15000,79
37.15833,80
37.16667,80
37.17500,81
37.18333,82
37.19167,83
37.20000,84
37.20833,85
37.21667,86
37.22500,87
37.23333,88
37.24167,88
37.25000,89
37.25833,89
37.26667,90
37.27500,91
37.28333,92
37.29167,92
37.30000,93
37.30833,94
37.31667,95
37.32500,96
37.33333,97
37.34167,98
37.35000,99
37.35833,100
37.36667,101
37.37500,102
37.38333,103
37.39167,104
37.40000,104
37.40833,105
37.41667,106
37.42500,107
37.43333,108
37.44167,109
37.45000,111
37.45833,112
37.46667,113
37.47500,113
37.48333,114
37.49167,114
37.50000,115
37.50833,116
37.51667,117
37.52500,117
37.53333,118
37.54167,119
37.55000,120
37.55833,120
37.56667,121
37.57500,122
37.58333,123
37.59167,124
37.60000,125
37.60833,126
37.61667,127
37.62500,128
37.63333,128
37.64167,129
37.65000,130
37.65833,131
37.66667,131
37.67500,132
37.68333,133
37.69167,133
37.70000,134
37.70833,134
37.71667,134
37.72500,135
37.73333,135
37.74167,136
37.75000,137
37.75833,137
37.76667,137
37.77500,137
37.78333,138
37.79167,138
37.80000,138
37.80833,138
37.81667,139
37.82500,139
37.83333,139
37.84167,139
37.85000,139
37.85833,139
37.86667,140
37.87500,140
37.88333,140
37.89167,140
37.90000,140
37.90833,140
37.91667,140
37.92500,140
37.93333,140
37.94167,140
37.95000,140
37.95833,139
37.96667,139
37.97500,139
37.98333,138
37.99167,137
38.00000,137
38.00833,137
38.01667,137
38.02500,137
38.03333,136
38.04167,136
38.05000,135
38.05833,134
38.06667,133
38.07500,132
38.08333,132
38.09167,131
38.10000,131
38.10833,130
38.11667,129
38.12500,129
38.13333,129
38.14167,128
38.15000,128
38.15833,127
38.16667,126
38.17500,125
38.18333,124
38.19167,123
38.20000,122
38.20833,121
38.21667,119
38.22500,118
38.23333,117
38.24167,116
38.25000,115
38.25833,115
38.26667,114
38.27500,113
38.28333,112
38.29167,111
38.30000,110
38.30833,108
38.31667,107
38.32500,106
38.33333,105
38.34167,104
38.35000,103
38.35833,101
38.36667,100
38.37500,99
38.38333,98
38.39167,97
38.40000,95
38.40833,93
38.41667,92
38.42500,91
38.43333,89
38.44167,88
38.45000,87
38.45833,86
38.46667,84
38.47500,83
38.48333,82
38.49167,81
38.50000,80
38.50833,78
38.51667,77
38.52500,75
38.53333,74
38.54167,73
38.55000,72
38.55833,70
38.56667,69
38.57500,68
38.58333,67
38.59167,66
38.60000,65
38.60833,64
38.61667,63
38.62500,62
38.63333,60
38.64167,59
38.65000,57
38.65833,56
38.66667,54
38.67500,53
38.68333,52
38.69167,51
38.70000,50
38.70833,48
38.71667,48
38.72500,47
38.73333,46
38.74167,45
38.75000,44
38.75833,43
38.76667,42
38.77500,41
38.78333,40
38.79167,39
38.80000,38
38.80833,37
38.81667,36
38.82500,35
38.83333,34
38.84167,33
38.85000,32
38.85833,31
38.86667,30
38.87500,30
38.88333,29
38.89167,28
38.90000,27
38.90833,26
38.91667,25
38.92500,25
38.93333,24
38.94167,23
38.95000,22
38.95833,22
38.96667,21
38.97500,20
38.98333,19
38.99167,19
39.00000,19
39.00833,18
39.01667,18
39.02500,18
39.03333,17
39.04167,16
39.05000,16
39.05833,16
39.06667,15
39.07500,14
39.08333,14
39.09167,13
39.10000,13
39.10833,13
39.11667,12
39.12500,13
39.13333,12
39.14167,12
39.15000,11
39.15833,11
39.16667,11
39.17500,11
39.18333,10
39.19167,10
39.20000,10
39.20833,9
39.21667,9
39.22500,8
39.23333,8
39.24167,8
39.25000,7
39.25833,7
39.26667,6
39.27500,6
39.28333,6
39.29167,6
39.30000,7
39.30833,7
39.31667,7
39.32500,7
39.33333,6
39.34167,6
39.35000,6
39.35833,5
39.36667,5
39.37500,5
39.38333,5
39.39167,5
39.40000,5
39.40833,5
39.41667,4
39.42500,4
39.43333,4
39.44167,4
39.45000,4
39.45833,4
39.46667,4
39.47500,4
39.48333,4
39.49167,4
39.50000,4
39.50833,4
39.51667,4
39.52500,4
39.53333,4
39.54167,5
39.55000,5
39.55833,4
39.56667,4
39.57500,4
39.58333,4
39.59167,4
39.60000,4
39.60833,4
39.61667,4
39.62500,4
39.63333,4
39.64167,5
39.65000,5
39.65833,5
39.66667,5
39.67500,5
39.68333,4
39.69167,4
39.70000,4
39.70833,4
39.71667,4
39.72500,4
39.73333,4
39.74167,4
39.75000,3
39.75833,3
39.76667,4
39.77500,4
39.78333,4
39.79167,5
39.80000,5
39.80833,5
39.81667,4
39.82500,4
39.83333,4
39.84167,4
39.85000,3
39.85833,3
39.86667,4
39.87500,4
39.88333,4
39.89167,4
39.90000,4
39.90833,4
39.91667,4
39.92500,4
39.93333,4
39.94167,4
39.95000,4
39.95833,4
39.96667,4
39.97500,4
39.98333,4
39.99167,5
40.00000,5
40.00833,5
40.01667,5
40.02500,5
40.03333,5
40.04167,5
40.05000,5
40.05833,4
40.06667,4
40.07500,4
40.08333,5
40.09167,5
40.10000,5
40.10833,5
40.11667,5
40.12500,5
40.13333,5
40.14167,6
40.15000,6
40.15833,6
40.16667,7
40.17500,7
40.18333,7
40.19167,7
40.20000,7
40.20833,8
40.21667,8
40.22500,8
40.23333,9
40.24167,9
40.25000,9
40.25833,9
40.26667,9
40.27500,10
40.28333,10
40.29167,11
40.30000,11
40.30833,12
40.31667,12
40.32500,12
40.33333,13
40.34167,14
40.35000,15
40.35833,16
40.36667,17
40.37500,18
40.38333,19
40.39167,20
40.40000,21
40.40833,23
40.41667,24
40.42500,25
40.43333,27
40.44167,28
40.45000,29
40.45833,31
40.46667,33
40.47500,35
40.48333,37
40.49167,38
40.50000,41
40.50833,43
40.51667,46
40.52500,48
40.53333,50
40.54167,52
40.55000,55
40.55833,58
40.56667,60
40.57500,63
40.58333,66
40.59167,70
40.60000,73
40.60833,76
40.61667,80
40.62500,83
40.63333,87
40.64167,91
40.65000,95
40.65833,99
40.66667,103
40.67500,107
40.68333,111
40.69167,115
40.70000,120
40.70833,124
40.71667,129
40.72500,134
40.73333,138
40.74167,143
40.75000,148
40.75833,153
40.76667,158
40.77500,164
40.78333,169
40.79167,174
40.80000,180
40.80833,186
40.81667,191
40.82500,197
40.83333,202
40.84167,208
40.85000,213
40.85833,218
40.86667,224
40.87500,229
40.88333,235
40.89167,241
40.90000,248
40.90833,254
40.91667,260
40.92500,265
40.93333,271
40.94167,277
40.95000,283
40.95833,288
40.96667,293
40.97500,299
40.98333,304
40.99167,309
41.00000,315
41.00833,320
41.01667,325
41.02500,331
41.03333,336
41.04167,342
41.05000,347
41.05833,352
41.06667,357
41.07500,362
41.08333,367
41.09167,372
41.10000,376
41.10833,381
41.11667,385
41.12500,390
41.13333,394
41.14167,398
41.15000,402
41.15833,406
41.16667,410
41.17500,414
41.18333,418
41.19167,422
41.20000,425
41.20833,429
41.21667,432
41.22500,436
41.23333,439
41.24167,442
41.25000,446
41.25833,449
41.26667,452
41.27500,454
41.28333,457
41.29167,460
41.30000,462
41.30833,465
41.31667,467
41.32500,470
41.33333,472
41.34167,474
41.35000,476
41.35833,478
41.36667,480
41.37500,481
41.38333,483
41.39167,485
41.40000,487
41.40833,489
41.41667,491
41.42500,492
41.43333,493
41.44167,494
41.45000,495
41.45833,497
41.46667,498
41.47500,498
41.48333,499
41.49167,500
41.50000,500
41.50833,501
41.51667,501
41.52500,501
41.53333,501
41.54167,501
41.55000,501
41.55833,500
41.56667,500
41.57500,500
41.58333,500
41.59167,499
41.60000,498
41.60833,497
41.61667,496
41.62500,494
41.63333,492
41.64167,491
41.65000,490
41.65833,488
41.66667,487
41.67500,486
41.68333,484
41.69167,482
41.70000,480
41.70833,478
41.71667,476
41.72500,474
41.73333,471
41.74167,468
41.75000,465
41.75833,462
41.76667,460
41.77500,457
41.78333,454
41.79167,451
41.80000,448
41.80833,445
41.81667,441
41.82500,438
41.83333,435
41.84167,431
41.85000,428
41.85833,424
41.86667,420
41.87500,417
41.88333,413
41.89167,409
41.90000,405
41.90833,402
41.91667,398
41.92500,394
41.93333,390
41.94167,386
41.95000,382
41.95833,378
41.96667,374
41.97500,370
41.98333,366
41.99167,362
42.00000,358
42.00833,354
42.01667,350
42.02500,346
42.03333,342
42.04167,339
42.05000,335
42.05833,332
42.06667,328
42.07500,325
42.08333,321
42.09167,317
42.10000,313
42.10833,310
42.11667,306
42.12500,303
42.13333,299
42.14167,295
42.15000,292
42.15833,289
42.16667,286
42.17500,283
42.18333,280
42.19167,276
42.20000,273
42.20833,270
42.21667,267
42.22500,264
42.23333,262
42.24167,259
42.25000,257
42.25833,254
42.26667,251
42.27500,249
42.28333,246
42.29167,244
42.30000,242
42.30833,239
42.31667,237
42.32500,234
42.33333,232
42.34167,229
42.35000,227
42.35833,225
42.36667,223
42.37500,221
42.38333,220
42.39167,218
42.40000,216
42.40833,214
42.41667,213
42.42500,211
42.43333,210
42.44167,208
42.45000,207
42.45833,205
42.46667,204
42.47500,202
42.48333,201
42.49167,199
42.50000,197
42.50833,195
42.51667,194
42.52500,193
42.53333,191
42.54167,191
42.55000,190
42.55833,189
42.56667,188
42.57500,187
42.58333,185
42.59167,184
42.60000,182
42.60833,181
42.61667,180
42.62500,179
42.63333,178
42.64167,177
42.65000,176
42.65833,175
42.66667,174
42.67500,173
42.68333,172
42.69167,171
42.70000,170
42.70833,169
42.71667,168
42.72500,167
42.73333,166
42.74167,166
42.75000,165
42.75833,163
42.76667,162
42.77500,161
42.78333,160
42.79167,159
42.80000,158
42.80833,157
42.81667,156
42.82500,155
42.83333,155
42.84167,154
42.85000,153
42.85833,152
42.86667,151
42.87500,150
42.88333,149
42.89167,148
42.90000,147
42.90833,146
42.91667,145
42.92500,144
42.93333,143
42.94167,142
42.95000,141
42.95833,140
42.96667,139
42.97500,138
42.98333,138
42.99167,137
43.00000,137
43.00833,136
43.01667,135
43.02500,134
43.03333,133
43.04167,132
43.05000,131
43.05833,130
43.06667,129
43.07500,128
43.08333,127
43.09167,126
43.10000,125
43.10833,124
43.11667,124
43.12500,123
43.13333,122
43.14167,122
43.15000,121
43.15833,120
43.16667,119
43.17500,118
43.18333,118
43.19167,117
43.20000,116
43.20833,115
43.21667,114
43.22500,113
43.23333,112
43.24167,111
43.25000,110
43.25833,110
43.26667,109
43.27500,109
43.28333,108
43.29167,107
43.30000,106
43.30833,105
43.31667,105
43.32500,104
43.33333,103
43.34167,103
43.35000,102
43.35833,102
43.36667,101
43.37500,100
43.38333,99
43.39167,98
43.40000,98
43.40833,97
43.41667,96
43.42500,95
43.43333,94
43.44167,93
43.45000,92
43.45833,91
43.46667,91
43.47500,90
43.48333,89
43.49167,88
43.50000,87
43.50833,87
43.51667,86
43.52500,85
43.53333,84
43.54167,84
43.55000,83
43.55833,82
43.56667,82
43.57500,81
43.58333,80
43.59167,79
43.60000,78
43.60833,77
43.61667,77
43.62500,76
43.63333,75
43.64167,75
43.65000,75
43.65833,74
43.66667,73
43.67500,72
43.68333,71
43.69167,70
43.70000,70
43.70833,69
43.71667,68
43.72500,68
43.73333,67
43.74167,66
43.75000,66
43.75833,65
43.76667,64
43.77500,64
43.78333,63
43.79167,63
43.80000,62
43.80833,61
43.81667,60
43.82500,60
43.83333,59
43.84167,58
43.85000,57
43.85833,57
43.86667,56
43.87500,55
43.88333,55
43.89167,54
43.90000,53
43.90833,53
43.91667,52
43.92500,52
43.93333,51
43.94167,50
43.95000,49
43.95833,49
43.96667,48
43.97500,48
43.98333,47
43.99167,47
44.00000,46
44.00833,46
44.01667,45
44.02500,44
44.03333,44
44.04167,43
44.05000,43
44.05833,42
44.06667,41
44.07500,41
44.08333,40
44.09167,40
44.10000,39
44.10833,39
44.11667,38
44.12500,37
44.13333,36
44.14167,35
44.15000,35
44.15833,35
44.16667,35
44.17500,34
44.18333,34
44.19167,33
44.20000,32
44.20833,32
44.21667,31
44.22500,31
44.23333,30
44.24167,29
44.25000,29
44.25833,28
44.26667,28
44.27500,28
44.28333,27
44.29167,27
44.30000,27
44.30833,26
44.31667,25
44.32500,25
44.33333,24
44.34167,24
44.35000,23
44.35833,23
44.36667,23
44.37500,23
44.38333,22
44.39167,21
44.40000,20
44.40833,20
44.41667,20
44.42500,19
44.43333,19
44.44167,18
44.45000,18
44.45833,18
44.46667,18
44.47500,18
44.48333,18
44.49167,17
44.50000,17
44.50833,17
44.51667,16
44.52500,16
44.53333,16
44.54167,15
44.55000,15
44.55833,15
44.56667,15
44.57500,14
44.58333,14
44.59167,13
44.60000,13
44.60833,12
44.61667,11
44.62500,11
44.63333,11
44.64167,11
44.65000,10
44.65833,10
44.66667,9
44.67500,9
44.68333,8
44.69167,8
44.70000,8
44.70833,8
44.71667,7
44.72500,7
44.73333,7
44.74167,7
44.75000,7
44.75833,6
44.76667,6
44.77500,6
44.78333,6
44.79167,5
44.80000,5
44.80833,4
44.81667,4
44.82500,4
44.83333,4
44.84167,3
44.85000,3
44.85833,3
44.86667,2
44.87500,2
44.88333,2
44.89167,2
44.90000,2
44.90833,2
44.91667,2
44.92500,2
44.93333,1
44.94167,2
44.95000,2
44.95833,2
44.96667,2
44.97500,1
44.98333,1
44.99167,1
45.00000,1
45.00833,1
45.01667,2
45.02500,2
45.03333,1
45.04167,1
45.05000,1
45.05833,1
45.06667,0
45.07500,0
45.08333,-0
45.09167,-0
45.10000,-1
45.10833,-1
45.11667,-2
45.12500,-2
45.13333,-2
45.14167,-2
45.15000,-2
45.15833,-2
45.16667,-2
45.17500,-3
45.18333,-3
45.19167,-3
45.20000,-3
45.20833,-3
45.21667,-3
45.22500,-3
45.23333,-3
45.24167,-3
45.25000,-2
45.25833,-2
45.26667,-2
45.27500,-2
45.28333,-2
45.29167,-3
45.30000,-3
45.30833,-3
45.31667,-3
45.32500,-3
45.33333,-3
45.34167,-3
45.35000,-3
45.35833,-3
45.36667,-3
45.37500,-3
45.38333,-3
45.39167,-3
45.40000,-3
45.40833,-3
45.41667,-2
45.42500,-2
45.43333,-2
45.44167,-2
45.45000,-2
45.45833,-3
45.46667,-3
45.47500,-3
45.48333,-3
45.49167,-3
45.50000,-3
45.50833,-3
45.51667,-3
45.52500,-3
45.53333,-3
45.54167,-3
45.55000,-4
45.55833,-4
45.56667,-3
45.57500,-3
45.58333,-3
45.59167,-3
45.60000,-3
45.60833,-3
45.61667,-4
45.62500,-4
45.63333,-4
45.64167,-3
45.65000,-3
45.65833,-3
45.66667,-3
45.67500,-4
45.68333,-4
45.69167,-4
45.70000,-4
45.70833,-4
45.71667,-4
45.72500,-4
45.73333,-5
45.74167,-5
45.75000,-5
45.75833,-5
45.76667,-5
45.77500,-5
45.78333,-5
45.79167,-5
45.80000,-5
45.80833,-6
45.81667,-6
45.82500,-6
45.83333,-6
45.84167,-6
45.85000,-6
45.85833,-6
45.86667,-6
45.87500,-6
45.88333,-6
45.89167,-6
45.90000,-6
45.90833,-6
45.91667,-6
45.92500,-7
45.93333,-7
45.94167,-7
45.95000,-7
45.95833,-8
45.96667,-8
45.97500,-8
45.98333,-8
45.99167,-9
46.00000,-9
46.00833,-9
46.01667,-9
46.02500,-8
46.03333,-8
46.04167,-8
46.05000,-9
46.05833,-9
46.06667,-9
46.07500,-9
46.08333,-9
46.09167,-9
46.10000,-10
46.10833,-10
46.11667,-11
46.12500,-11
46.13333,-11
46.14167,-11
46.15000,-11
46.15833,-11
46.16667,-11
46.17500,-11
46.18333,-11
46.19167,-11
46.20000,-12
46.20833,-12
46.21667,-12
46.22500,-12
46.23333,-13
46.24167,-13
46.25000,-13
46.25833,-13
46.26667,-13
46.27500,-14
46.28333,-14
46.29167,-15
46.30000,-15
46.30833,-15
46.31667,-16
46.32500,-16
46.33333,-16
46.34167,-16
46.35000,-16
46.35833,-17
46.36667,-17
46.37500,-17
46.38333,-17
46.39167,-17
46.40000,-17
46.40833,-17
46.41667,-17
46.42500,-17
46.43333,-17
46.44167,-18
46.45000,-18
46.45833,-19
46.46667,-19
46.47500,-19
46.48333,-19
46.49167,-19
46.50000,-20
46.50833,-20
46.51667,-20
46.52500,-20
46.53333,-20
46.54167,-21
46.55000,-21
46.55833,-21
46.56667,-22
46.57500,-22
46.58333,-22
46.59167,-22
46.60000,-22
46.60833,-23
46.61667,-24
46.62500,-24
46.63333,-24
46.64167,-24
46.65000,-24
46.65833,-24
46.66667,-25
46.67500,-25
46.68333,-25
46.69167,-26
46.70000,-26
46.70833,-27
46.71667,-27
46.72500,-27
46.73333,-27
46.74167,-27
46.75000,-27
46.75833,-27
46.76667,-28
46.77500,-28
46.78333,-28
46.79167,-28
46.80000,-28
46.80833,-28
46.81667,-28
46.82500,-28
46.83333,-29
46.84167,-29
46.85000,-29
46.85833,-30
46.86667,-29
46.87500,-29
46.88333,-29
46.89167,-29
46.90000,-29
46.90833,-30
46.91667,-30
46.92500,-30
46.93333,-30
46.94167,-29
46.95000,-29
46.95833,-30
46.96667,-30
46.97500,-30
46.98333,-30
46.99167,-30
47.00000,-29
47.00833,-29
47.01667,-29
47.02500,-29
47.03333,-29
47.04167,-29
47.05000,-29
47.05833,-29
47.06667,-29
47.07500,-29
47.08333,-29
47.09167,-28
47.10000,-28
47.10833,-28
47.11667,-27
47.12500,-26
47.13333,-26
47.14167,-26
47.15000,-26
47.15833,-26
47.16667,-26
47.17500,-26
47.18333,-25
47.19167,-25
47.20000,-25
47.20833,-24
47.21667,-24
47.22500,-24
47.23333,-24
47.24167,-23
47.25000,-23
47.25833,-23
47.26667,-23
47.27500,-22
47.28333,-22
47.29167,-22
47.30000,-21
47.30833,-21
47.31667,-21
47.32500,-20
47.33333,-20
47.34167,-19
47.35000,-19
47.35833,-18
47.36667,-18
47.37500,-17
47.38333,-17
47.39167,-16
47.40000,-16
47.40833,-15
47.41667,-15
47.42500,-14
47.43333,-13
47.44167,-12
47.45000,-11
47.45833,-10
47.46667,-9
47.47500,-9
47.48333,-8
47.49167,-7
47.50000,-6
47.50833,-6
47.51667,-5
47.52500,-4
47.53333,-3
47.54167,-3
47.55000,-2
47.55833,-2
47.56667,-1
47.57500,-1
47.58333,0
47.59167,1
47.60000,2
47.60833,2
47.61667,3
47.62500,4
47.63333,5
47.64167,6
47.65000,7
47.65833,8
47.66667,9
47.67500,10
47.68333,11
47.69167,11
47.70000,12
47.70833,13
47.71667,14
47.72500,15
47.73333,16
47.74167,17
47.75000,17
47.75833,18
47.76667,19
47.77500,20
47.78333,21
47.79167,22
47.80000,23
47.80833,23
47.81667,24
47.82500,25
47.83333,25
47.84167,26
47.85000,27
47.85833,27
47.86667,27
47.87500,28
47.88333,29
47.89167,30
47.90000,30
47.90833,31
47.91667,31
47.92500,32
47.93333,32
47.94167,33
47.95000,34
47.95833,35
47.96667,36
47.97500,36
47.98333,36
47.99167,37
48.00000,37
48.00833,38
48.01667,38
48.02500,39
48.03333,39
48.04167,40
48.05000,40
48.05833,41
48.06667,41
48.07500,42
48.08333,42
48.09167,42
48.10000,42
48.10833,42
48.11667,43
48.12500,43
48.13333,44
48.14167,44
48.15000,45
48.15833,45
48.16667,46
48.17500,46
48.18333,47
48.19167,47
48.20000,48
48.20833,48
48.21667,48
48.22500,48
48.23333,49
48.24167,49
48.25000,49
48.25833,49
48.26667,49
48.27500,50
48.28333,50
48.29167,50
48.30000,50
48.30833,50
48.31667,50
48.32500,50
48.33333,50
48.34167,50
48.35000,51
48.35833,51
48.36667,51
48.37500,51
48.38333,51
48.39167,51
48.40000,52
48.40833,52
48.41667,52
48.42500,53
48.43333,53
48.44167,53
48.45000,53
48.45833,53
48.46667,53
48.47500,53
48.48333,53
48.49167,53
48.50000,53
48.50833,53
48.51667,52
48.52500,52
48.53333,52
48.54167,53
48.55000,52
48.55833,52
48.56667,52
48.57500,53
48.58333,52
48.59167,53
48.60000,53
48.60833,53
48.61667,53
48.62500,53
48.63333,53
48.64167,53
48.65000,53
48.65833,53
48.66667,54
48.67500,54
48.68333,54
48.69167,54
48.70000,54
48.70833,54
48.71667,54
48.72500,54
48.73333,54
48.74167,54
48.75000,53
48.75833,53
48.76667,53
48.77500,53
48.78333,53
48.79167,53
48.80000,54
48.80833,54
48.81667,54
48.82500,54
48.83333,54
48.84167,54
48.85000,54
48.85833,55
48.86667,55
48.87500,55
48.88333,55
48.89167,55
48.90000,55
48.90833,55
48.91667,55
48.92500,55
48.93333,55
48.94167,55
48.95000,55
48.95833,55
48.96667,55
48.97500,55
48.98333,55
48.99167,56
49.00000,56
49.00833,56
49.01667,56
49.02500,56
49.03333,56
49.04167,56
49.05000,56
49.05833,56
49.06667,56
49.07500,56
49.08333,56
49.09167,57
49.10000,56
49.10833,57
49.11667,57
49.12500,57
49.13333,56
49.14167,56
49.15000,56
49.15833,56
49.16667,56
49.17500,56
49.18333,56
49.19167,56
49.20000,56
49.20833,56
49.21667,56
49.22500,56
49.23333,56
49.24167,56
49.25000,56
49.25833,56
49.26667,55
49.27500,56
49.28333,56
49.29167,56
49.30000,56
49.30833,55
49.31667,56
49.32500,55
49.33333,55
49.34167,55
49.35000,55
49.35833,55
49.36667,55
49.37500,55
49.38333,54
49.39167,54
49.40000,54
49.40833,55
49.41667,55
49.42500,54
49.43333,54
49.44167,53
49.45000,53
49.45833,53
49.46667,52
49.47500,52
49.48333,52
49.49167,52
49.50000,52
49.50833,52
49.51667,51
49.52500,51
49.53333,51
49.54167,51
49.55000,51
49.55833,50
49.56667,50
49.57500,50
49.58333,49
49.59167,49
49.60000,49
49.60833,48
49.61667,48
49.62500,48
49.63333,47
49.64167,47
49.65000,47
49.65833,46
49.66667,46
49.67500,45
49.68333,45
49.69167,44
49.70000,44
49.70833,44
49.71667,43
49.72500,43
49.73333,42
49.74167,42
49.75000,41
49.75833,41
49.76667,40
49.77500,40
49.78333,39
49.79167,39
49.80000,39
49.80833,38
49.81667,38
49.82500,37
49.83333,37
49.84167,36
49.85000,35
49.85833,35
49.86667,34
49.87500,34
49.88333,33
49.89167,32
49.90000,32
49.90833,31
49.91667,31
49.92500,30
49.93333,29
49.94167,29
49.95000,28
49.95833,27
49.96667,26
49.97500,25
49.98333,24
49.99167,23
50.00000,23

