[Header]
Application Name,LabSolutions
Version,5.97 SP1
Data File Name,C:\Users\cremerlab\Desktop\Richa\Sep_6th_2022_re-run_Sep2nd\Sep 6th_962022_008_009.lcd
Output Date,9/6/2022
Output Time,11:54:41 PM

[File Information]
Type,Data File
Generated,9/6/2022 11:04:21 PM
Generated by,System Administrator
Modified,9/6/2022 11:54:41 PM
Modified by,System Administrator

[Sample Information]
Operator Name,System Administrator
Acquired,9/6/2022 11:04:39 PM
Sample Type,0:Unknown
Level,0
Sample Name,090622_B.ovatus_4
Sample ID,008
ISTD Amount1,1
ISTD Amount2,1
ISTD Amount3,1
ISTD Amount4,1
ISTD Amount5,1
ISTD Amount6,1
ISTD Amount7,1
ISTD Amount8,1
ISTD Amount9,1
ISTD Amount10,1
ISTD Amount11,1
ISTD Amount12,1
ISTD Amount13,1
ISTD Amount14,1
ISTD Amount15,1
ISTD Amount16,1
ISTD Amount17,1
ISTD Amount18,1
ISTD Amount19,1
ISTD Amount20,1
ISTD Amount21,1
ISTD Amount22,1
ISTD Amount23,1
ISTD Amount24,1
ISTD Amount25,1
ISTD Amount26,1
ISTD Amount27,1
ISTD Amount28,1
ISTD Amount29,1
ISTD Amount30,1
ISTD Amount31,1
ISTD Amount32,1
Sample Amount,1
Dilution Factor,1
Vial#,8
Injection Volume,20

[Original Files]
Data File,C:\Users\cremerlab\Desktop\Richa\Sep_6th_2022_re-run_Sep2nd\Sep 6th_962022_008_009.lcd
Method File,C:\Users\cremerlab\Desktop\Richa\acetate_excretion.lcm
Batch File,C:\Users\cremerlab\Desktop\Richa\Sep_6th_2022_re-run_Sep2nd\Sep 6th.lcb
Report Format File,c:\LabSolutions\System\DEFAULT.lsr

[File Description]


[Configuration]
Instrument Name,HPLC-PC-Instrument1
Instrument #,1
Line #,1
# of Detectors,2
Detector ID,Detector A,Detector B
Detector Name,Detector A,Detector B
# of Channels,1,1

[Peak Table(Detector A)]
# of Peaks,0

[Peak Table(Detector B)]
# of Peaks,13
Peak#,R.Time,I.Time,F.Time,Area,Height,A/H,Conc.,Mark,ID#,Name,k',Plate #,Plate Ht.,Tailing,Resolution,Sep.Factor,Area Ratio,Height Ratio,Conc. %,Norm Conc.
1,10.463,10.275,10.517,1124,147,7.633,0.000,   ,,,0.000,27889,5.378,0.000,0.000,0.000,0,0,0.000,0.000
2,11.021,10.517,12.292,2247732,115300,19.495,0.000, V ,,,0.053,7560,19.842,0.965,1.473,0.000,0,0,0.000,0.000
3,14.331,12.642,15.175,3586043,76747,46.726,0.000,   ,,,0.370,2484,60.392,0.655,3.995,6.931,0,0,0.000,0.000
4,15.760,15.175,18.408,1300134,43988,29.556,0.000,SV ,,,0.506,6905,21.724,1.143,1.497,1.369,0,0,0.000,0.000
5,17.858,17.458,18.375,6744,240,28.076,0.000,T  ,,,0.707,8601,17.440,1.109,2.745,1.396,0,0,0.000,0.000
6,19.097,18.433,19.750,12959,308,42.117,0.000,   ,,,0.825,4422,33.922,0.973,1.292,1.168,0,0,0.000,0.000
7,20.300,19.758,20.517,18118,637,28.462,0.000,   ,,,0.940,2234,67.150,0.000,0.839,1.139,0,0,0.000,0.000
8,20.950,20.517,21.150,34793,1089,31.957,0.000, V ,,,1.002,111,1351.637,0.000,0.134,1.066,0,0,0.000,0.000
9,21.580,21.150,22.567,67341,1366,49.300,0.000, V ,,,1.062,1428,105.011,0.000,0.123,1.060,0,0,0.000,0.000
10,23.153,22.608,23.867,6258,175,35.731,0.000,   ,,,1.213,9809,15.292,1.153,0.978,1.142,0,0,0.000,0.000
11,25.081,24.292,26.425,159686,3887,41.083,0.000,   ,,,1.397,9008,16.652,1.140,1.936,1.152,0,0,0.000,0.000
12,29.210,28.333,30.267,135760,2914,46.585,0.000,   ,,,1.792,9237,16.239,1.058,3.633,1.282,0,0,0.000,0.000
13,32.505,31.708,34.333,34886,435,80.190,0.000,   ,,,2.107,2324,64.534,1.602,1.684,1.176,0,0,0.000,0.000

[LC Chromatogram(Detector B-Ch1)]
Interval(msec),500
# of Points,6001
Start Time(min),0.000
End Time(min),50.000
Intensity Units,mV
Intensity Multiplier,0.001
R.Time (min),Intensity
0.00000,-25
0.00833,-25
0.01667,-0
0.02500,-1
0.03333,-2
0.04167,-2
0.05000,-3
0.05833,-3
0.06667,-4
0.07500,-5
0.08333,-6
0.09167,-7
0.10000,-8
0.10833,-8
0.11667,-9
0.12500,-9
0.13333,-10
0.14167,-10
0.15000,-10
0.15833,-11
0.16667,-12
0.17500,-13
0.18333,-13
0.19167,-14
0.20000,-14
0.20833,-15
0.21667,-15
0.22500,-15
0.23333,-15
0.24167,-16
0.25000,-16
0.25833,-17
0.26667,-17
0.27500,-17
0.28333,-18
0.29167,-19
0.30000,-19
0.30833,-20
0.31667,-21
0.32500,-21
0.33333,-21
0.34167,-22
0.35000,-22
0.35833,-22
0.36667,-23
0.37500,-23
0.38333,-23
0.39167,-22
0.40000,-23
0.40833,-23
0.41667,-23
0.42500,-24
0.43333,-24
0.44167,-24
0.45000,-25
0.45833,-25
0.46667,-25
0.47500,-25
0.48333,-25
0.49167,-25
0.50000,-26
0.50833,-26
0.51667,-26
0.52500,-26
0.53333,-26
0.54167,-26
0.55000,-27
0.55833,-27
0.56667,-27
0.57500,-27
0.58333,-27
0.59167,-27
0.60000,-28
0.60833,-28
0.61667,-28
0.62500,-29
0.63333,-29
0.64167,-29
0.65000,-29
0.65833,-29
0.66667,-29
0.67500,-29
0.68333,-29
0.69167,-29
0.70000,-29
0.70833,-29
0.71667,-29
0.72500,-29
0.73333,-29
0.74167,-29
0.75000,-29
0.75833,-30
0.76667,-30
0.77500,-30
0.78333,-30
0.79167,-30
0.80000,-30
0.80833,-29
0.81667,-29
0.82500,-29
0.83333,-29
0.84167,-29
0.85000,-29
0.85833,-28
0.86667,-28
0.87500,-28
0.88333,-28
0.89167,-28
0.90000,-28
0.90833,-28
0.91667,-28
0.92500,-27
0.93333,-28
0.94167,-28
0.95000,-28
0.95833,-28
0.96667,-28
0.97500,-28
0.98333,-28
0.99167,-28
1.00000,-28
1.00833,-28
1.01667,-27
1.02500,-27
1.03333,-26
1.04167,-26
1.05000,-26
1.05833,-25
1.06667,-25
1.07500,-25
1.08333,-25
1.09167,-24
1.10000,-24
1.10833,-24
1.11667,-24
1.12500,-24
1.13333,-24
1.14167,-24
1.15000,-24
1.15833,-23
1.16667,-23
1.17500,-23
1.18333,-23
1.19167,-23
1.20000,-23
1.20833,-23
1.21667,-23
1.22500,-23
1.23333,-23
1.24167,-23
1.25000,-23
1.25833,-23
1.26667,-23
1.27500,-22
1.28333,-22
1.29167,-22
1.30000,-21
1.30833,-21
1.31667,-22
1.32500,-21
1.33333,-21
1.34167,-21
1.35000,-21
1.35833,-21
1.36667,-20
1.37500,-20
1.38333,-20
1.39167,-20
1.40000,-20
1.40833,-19
1.41667,-19
1.42500,-18
1.43333,-18
1.44167,-18
1.45000,-18
1.45833,-19
1.46667,-18
1.47500,-18
1.48333,-18
1.49167,-18
1.50000,-17
1.50833,-17
1.51667,-17
1.52500,-17
1.53333,-16
1.54167,-16
1.55000,-16
1.55833,-16
1.56667,-15
1.57500,-15
1.58333,-15
1.59167,-14
1.60000,-14
1.60833,-15
1.61667,-15
1.62500,-15
1.63333,-15
1.64167,-15
1.65000,-15
1.65833,-15
1.66667,-15
1.67500,-15
1.68333,-15
1.69167,-14
1.70000,-14
1.70833,-14
1.71667,-14
1.72500,-14
1.73333,-14
1.74167,-14
1.75000,-13
1.75833,-13
1.76667,-13
1.77500,-13
1.78333,-13
1.79167,-13
1.80000,-13
1.80833,-13
1.81667,-13
1.82500,-12
1.83333,-12
1.84167,-12
1.85000,-13
1.85833,-12
1.86667,-12
1.87500,-12
1.88333,-12
1.89167,-11
1.90000,-11
1.90833,-11
1.91667,-11
1.92500,-11
1.93333,-11
1.94167,-11
1.95000,-11
1.95833,-11
1.96667,-11
1.97500,-11
1.98333,-11
1.99167,-11
2.00000,-11
2.00833,-11
2.01667,-11
2.02500,-11
2.03333,-11
2.04167,-11
2.05000,-11
2.05833,-11
2.06667,-11
2.07500,-11
2.08333,-12
2.09167,-11
2.10000,-11
2.10833,-11
2.11667,-11
2.12500,-11
2.13333,-12
2.14167,-12
2.15000,-12
2.15833,-12
2.16667,-11
2.17500,-11
2.18333,-12
2.19167,-12
2.20000,-12
2.20833,-12
2.21667,-12
2.22500,-12
2.23333,-12
2.24167,-13
2.25000,-13
2.25833,-13
2.26667,-13
2.27500,-13
2.28333,-13
2.29167,-13
2.30000,-13
2.30833,-13
2.31667,-13
2.32500,-13
2.33333,-13
2.34167,-13
2.35000,-14
2.35833,-14
2.36667,-14
2.37500,-14
2.38333,-14
2.39167,-14
2.40000,-14
2.40833,-14
2.41667,-14
2.42500,-14
2.43333,-14
2.44167,-14
2.45000,-14
2.45833,-14
2.46667,-14
2.47500,-14
2.48333,-14
2.49167,-14
2.50000,-15
2.50833,-16
2.51667,-16
2.52500,-17
2.53333,-17
2.54167,-17
2.55000,-16
2.55833,-16
2.56667,-16
2.57500,-16
2.58333,-16
2.59167,-17
2.60000,-17
2.60833,-17
2.61667,-17
2.62500,-18
2.63333,-18
2.64167,-18
2.65000,-18
2.65833,-19
2.66667,-19
2.67500,-19
2.68333,-18
2.69167,-18
2.70000,-18
2.70833,-19
2.71667,-19
2.72500,-19
2.73333,-19
2.74167,-19
2.75000,-19
2.75833,-19
2.76667,-19
2.77500,-19
2.78333,-19
2.79167,-19
2.80000,-19
2.80833,-20
2.81667,-19
2.82500,-19
2.83333,-19
2.84167,-19
2.85000,-19
2.85833,-19
2.86667,-19
2.87500,-20
2.88333,-20
2.89167,-21
2.90000,-21
2.90833,-21
2.91667,-21
2.92500,-21
2.93333,-21
2.94167,-22
2.95000,-22
2.95833,-22
2.96667,-21
2.97500,-21
2.98333,-21
2.99167,-21
3.00000,-21
3.00833,-21
3.01667,-21
3.02500,-21
3.03333,-21
3.04167,-20
3.05000,-20
3.05833,-21
3.06667,-21
3.07500,-21
3.08333,-21
3.09167,-21
3.10000,-21
3.10833,-22
3.11667,-22
3.12500,-22
3.13333,-22
3.14167,-22
3.15000,-22
3.15833,-22
3.16667,-22
3.17500,-22
3.18333,-23
3.19167,-23
3.20000,-23
3.20833,-22
3.21667,-22
3.22500,-22
3.23333,-22
3.24167,-22
3.25000,-23
3.25833,-22
3.26667,-22
3.27500,-22
3.28333,-22
3.29167,-22
3.30000,-22
3.30833,-22
3.31667,-22
3.32500,-22
3.33333,-21
3.34167,-21
3.35000,-21
3.35833,-21
3.36667,-21
3.37500,-20
3.38333,-20
3.39167,-20
3.40000,-21
3.40833,-20
3.41667,-20
3.42500,-20
3.43333,-20
3.44167,-20
3.45000,-19
3.45833,-19
3.46667,-19
3.47500,-19
3.48333,-19
3.49167,-19
3.50000,-19
3.50833,-19
3.51667,-19
3.52500,-18
3.53333,-18
3.54167,-18
3.55000,-18
3.55833,-18
3.56667,-18
3.57500,-17
3.58333,-17
3.59167,-17
3.60000,-17
3.60833,-17
3.61667,-17
3.62500,-16
3.63333,-16
3.64167,-16
3.65000,-16
3.65833,-16
3.66667,-16
3.67500,-16
3.68333,-16
3.69167,-16
3.70000,-15
3.70833,-15
3.71667,-15
3.72500,-15
3.73333,-15
3.74167,-16
3.75000,-16
3.75833,-16
3.76667,-15
3.77500,-15
3.78333,-15
3.79167,-14
3.80000,-14
3.80833,-13
3.81667,-13
3.82500,-13
3.83333,-13
3.84167,-12
3.85000,-12
3.85833,-12
3.86667,-12
3.87500,-11
3.88333,-11
3.89167,-10
3.90000,-10
3.90833,-10
3.91667,-10
3.92500,-9
3.93333,-9
3.94167,-9
3.95000,-8
3.95833,-8
3.96667,-8
3.97500,-8
3.98333,-8
3.99167,-8
4.00000,-8
4.00833,-8
4.01667,-7
4.02500,-7
4.03333,-7
4.04167,-6
4.05000,-6
4.05833,-5
4.06667,-5
4.07500,-4
4.08333,-4
4.09167,-3
4.10000,-3
4.10833,-2
4.11667,-1
4.12500,-1
4.13333,-0
4.14167,0
4.15000,1
4.15833,1
4.16667,2
4.17500,2
4.18333,2
4.19167,3
4.20000,3
4.20833,3
4.21667,4
4.22500,4
4.23333,5
4.24167,6
4.25000,7
4.25833,7
4.26667,7
4.27500,8
4.28333,9
4.29167,9
4.30000,10
4.30833,10
4.31667,11
4.32500,12
4.33333,13
4.34167,13
4.35000,14
4.35833,14
4.36667,14
4.37500,15
4.38333,15
4.39167,16
4.40000,17
4.40833,18
4.41667,19
4.42500,20
4.43333,20
4.44167,21
4.45000,21
4.45833,22
4.46667,23
4.47500,23
4.48333,24
4.49167,25
4.50000,25
4.50833,26
4.51667,27
4.52500,28
4.53333,28
4.54167,29
4.55000,30
4.55833,30
4.56667,31
4.57500,32
4.58333,32
4.59167,33
4.60000,33
4.60833,34
4.61667,34
4.62500,35
4.63333,36
4.64167,37
4.65000,37
4.65833,38
4.66667,39
4.67500,39
4.68333,40
4.69167,41
4.70000,41
4.70833,41
4.71667,41
4.72500,41
4.73333,42
4.74167,42
4.75000,43
4.75833,43
4.76667,43
4.77500,43
4.78333,44
4.79167,44
4.80000,44
4.80833,44
4.81667,45
4.82500,46
4.83333,46
4.84167,46
4.85000,47
4.85833,47
4.86667,47
4.87500,47
4.88333,48
4.89167,48
4.90000,48
4.90833,48
4.91667,49
4.92500,49
4.93333,49
4.94167,49
4.95000,49
4.95833,49
4.96667,49
4.97500,49
4.98333,49
4.99167,50
5.00000,50
5.00833,50
5.01667,50
5.02500,50
5.03333,50
5.04167,50
5.05000,50
5.05833,50
5.06667,50
5.07500,50
5.08333,50
5.09167,50
5.10000,50
5.10833,49
5.11667,49
5.12500,49
5.13333,49
5.14167,49
5.15000,48
5.15833,48
5.16667,47
5.17500,47
5.18333,47
5.19167,47
5.20000,47
5.20833,47
5.21667,47
5.22500,47
5.23333,46
5.24167,46
5.25000,46
5.25833,45
5.26667,45
5.27500,45
5.28333,44
5.29167,44
5.30000,43
5.30833,43
5.31667,42
5.32500,42
5.33333,42
5.34167,42
5.35000,42
5.35833,41
5.36667,41
5.37500,41
5.38333,40
5.39167,40
5.40000,39
5.40833,39
5.41667,38
5.42500,37
5.43333,36
5.44167,36
5.45000,35
5.45833,35
5.46667,35
5.47500,35
5.48333,34
5.49167,33
5.50000,33
5.50833,32
5.51667,32
5.52500,31
5.53333,31
5.54167,30
5.55000,29
5.55833,29
5.56667,28
5.57500,27
5.58333,26
5.59167,26
5.60000,25
5.60833,25
5.61667,24
5.62500,24
5.63333,23
5.64167,22
5.65000,21
5.65833,20
5.66667,20
5.67500,19
5.68333,18
5.69167,18
5.70000,17
5.70833,16
5.71667,15
5.72500,14
5.73333,14
5.74167,13
5.75000,12
5.75833,12
5.76667,11
5.77500,11
5.78333,10
5.79167,9
5.80000,8
5.80833,7
5.81667,6
5.82500,6
5.83333,5
5.84167,4
5.85000,3
5.85833,3
5.86667,2
5.87500,1
5.88333,-0
5.89167,-1
5.90000,-2
5.90833,-3
5.91667,-4
5.92500,-5
5.93333,-6
5.94167,-7
5.95000,-8
5.95833,-9
5.96667,-9
5.97500,-10
5.98333,-10
5.99167,-11
6.00000,-11
6.00833,-12
6.01667,-13
6.02500,-14
6.03333,-15
6.04167,-16
6.05000,-17
6.05833,-18
6.06667,-18
6.07500,-19
6.08333,-20
6.09167,-21
6.10000,-21
6.10833,-22
6.11667,-23
6.12500,-23
6.13333,-24
6.14167,-25
6.15000,-26
6.15833,-27
6.16667,-28
6.17500,-28
6.18333,-29
6.19167,-30
6.20000,-31
6.20833,-31
6.21667,-32
6.22500,-32
6.23333,-33
6.24167,-33
6.25000,-34
6.25833,-34
6.26667,-35
6.27500,-35
6.28333,-36
6.29167,-37
6.30000,-37
6.30833,-38
6.31667,-39
6.32500,-39
6.33333,-40
6.34167,-40
6.35000,-41
6.35833,-41
6.36667,-42
6.37500,-43
6.38333,-43
6.39167,-43
6.40000,-44
6.40833,-44
6.41667,-44
6.42500,-45
6.43333,-45
6.44167,-45
6.45000,-46
6.45833,-46
6.46667,-47
6.47500,-48
6.48333,-48
6.49167,-48
6.50000,-48
6.50833,-48
6.51667,-48
6.52500,-49
6.53333,-49
6.54167,-50
6.55000,-50
6.55833,-50
6.56667,-51
6.57500,-51
6.58333,-51
6.59167,-51
6.60000,-52
6.60833,-52
6.61667,-52
6.62500,-52
6.63333,-52
6.64167,-52
6.65000,-53
6.65833,-53
6.66667,-53
6.67500,-53
6.68333,-54
6.69167,-54
6.70000,-54
6.70833,-54
6.71667,-55
6.72500,-55
6.73333,-55
6.74167,-54
6.75000,-55
6.75833,-55
6.76667,-55
6.77500,-55
6.78333,-55
6.79167,-55
6.80000,-55
6.80833,-56
6.81667,-56
6.82500,-56
6.83333,-57
6.84167,-57
6.85000,-57
6.85833,-57
6.86667,-57
6.87500,-57
6.88333,-57
6.89167,-57
6.90000,-57
6.90833,-57
6.91667,-57
6.92500,-57
6.93333,-57
6.94167,-57
6.95000,-57
6.95833,-57
6.96667,-57
6.97500,-57
6.98333,-57
6.99167,-57
7.00000,-57
7.00833,-58
7.01667,-58
7.02500,-58
7.03333,-58
7.04167,-58
7.05000,-58
7.05833,-59
7.06667,-59
7.07500,-59
7.08333,-59
7.09167,-59
7.10000,-59
7.10833,-59
7.11667,-60
7.12500,-59
7.13333,-59
7.14167,-59
7.15000,-59
7.15833,-60
7.16667,-60
7.17500,-60
7.18333,-60
7.19167,-59
7.20000,-59
7.20833,-59
7.21667,-59
7.22500,-59
7.23333,-59
7.24167,-59
7.25000,-59
7.25833,-59
7.26667,-60
7.27500,-60
7.28333,-60
7.29167,-60
7.30000,-60
7.30833,-60
7.31667,-60
7.32500,-60
7.33333,-60
7.34167,-60
7.35000,-60
7.35833,-60
7.36667,-60
7.37500,-61
7.38333,-60
7.39167,-60
7.40000,-60
7.40833,-60
7.41667,-60
7.42500,-59
7.43333,-60
7.44167,-60
7.45000,-60
7.45833,-60
7.46667,-60
7.47500,-60
7.48333,-60
7.49167,-60
7.50000,-60
7.50833,-60
7.51667,-61
7.52500,-61
7.53333,-61
7.54167,-60
7.55000,-60
7.55833,-61
7.56667,-61
7.57500,-61
7.58333,-61
7.59167,-62
7.60000,-62
7.60833,-62
7.61667,-62
7.62500,-62
7.63333,-62
7.64167,-62
7.65000,-62
7.65833,-62
7.66667,-62
7.67500,-62
7.68333,-62
7.69167,-62
7.70000,-62
7.70833,-62
7.71667,-62
7.72500,-62
7.73333,-62
7.74167,-62
7.75000,-62
7.75833,-62
7.76667,-62
7.77500,-63
7.78333,-63
7.79167,-62
7.80000,-62
7.80833,-63
7.81667,-62
7.82500,-62
7.83333,-62
7.84167,-62
7.85000,-62
7.85833,-62
7.86667,-62
7.87500,-62
7.88333,-62
7.89167,-62
7.90000,-62
7.90833,-62
7.91667,-63
7.92500,-63
7.93333,-62
7.94167,-62
7.95000,-63
7.95833,-62
7.96667,-62
7.97500,-62
7.98333,-62
7.99167,-62
8.00000,-62
8.00833,-62
8.01667,-62
8.02500,-62
8.03333,-62
8.04167,-62
8.05000,-62
8.05833,-62
8.06667,-62
8.07500,-62
8.08333,-62
8.09167,-61
8.10000,-61
8.10833,-62
8.11667,-62
8.12500,-62
8.13333,-62
8.14167,-62
8.15000,-62
8.15833,-62
8.16667,-62
8.17500,-62
8.18333,-62
8.19167,-62
8.20000,-62
8.20833,-62
8.21667,-62
8.22500,-62
8.23333,-62
8.24167,-62
8.25000,-62
8.25833,-63
8.26667,-63
8.27500,-63
8.28333,-63
8.29167,-63
8.30000,-63
8.30833,-64
8.31667,-64
8.32500,-64
8.33333,-64
8.34167,-64
8.35000,-64
8.35833,-63
8.36667,-63
8.37500,-63
8.38333,-63
8.39167,-64
8.40000,-64
8.40833,-64
8.41667,-64
8.42500,-64
8.43333,-64
8.44167,-65
8.45000,-64
8.45833,-64
8.46667,-64
8.47500,-64
8.48333,-64
8.49167,-64
8.50000,-64
8.50833,-65
8.51667,-65
8.52500,-64
8.53333,-64
8.54167,-64
8.55000,-64
8.55833,-64
8.56667,-64
8.57500,-64
8.58333,-63
8.59167,-63
8.60000,-63
8.60833,-63
8.61667,-64
8.62500,-64
8.63333,-64
8.64167,-64
8.65000,-64
8.65833,-64
8.66667,-64
8.67500,-64
8.68333,-64
8.69167,-64
8.70000,-64
8.70833,-64
8.71667,-64
8.72500,-64
8.73333,-64
8.74167,-63
8.75000,-63
8.75833,-63
8.76667,-63
8.77500,-63
8.78333,-63
8.79167,-63
8.80000,-64
8.80833,-64
8.81667,-63
8.82500,-63
8.83333,-63
8.84167,-63
8.85000,-64
8.85833,-64
8.86667,-64
8.87500,-64
8.88333,-64
8.89167,-63
8.90000,-63
8.90833,-63
8.91667,-63
8.92500,-62
8.93333,-63
8.94167,-63
8.95000,-63
8.95833,-63
8.96667,-63
8.97500,-63
8.98333,-63
8.99167,-63
9.00000,-63
9.00833,-63
9.01667,-63
9.02500,-63
9.03333,-64
9.04167,-64
9.05000,-64
9.05833,-64
9.06667,-64
9.07500,-63
9.08333,-63
9.09167,-63
9.10000,-63
9.10833,-63
9.11667,-63
9.12500,-62
9.13333,-62
9.14167,-62
9.15000,-62
9.15833,-62
9.16667,-62
9.17500,-63
9.18333,-63
9.19167,-63
9.20000,-64
9.20833,-64
9.21667,-64
9.22500,-64
9.23333,-64
9.24167,-64
9.25000,-64
9.25833,-64
9.26667,-64
9.27500,-64
9.28333,-64
9.29167,-64
9.30000,-63
9.30833,-63
9.31667,-63
9.32500,-63
9.33333,-63
9.34167,-63
9.35000,-64
9.35833,-64
9.36667,-64
9.37500,-64
9.38333,-63
9.39167,-63
9.40000,-63
9.40833,-63
9.41667,-63
9.42500,-63
9.43333,-63
9.44167,-62
9.45000,-63
9.45833,-63
9.46667,-63
9.47500,-62
9.48333,-62
9.49167,-62
9.50000,-62
9.50833,-62
9.51667,-63
9.52500,-63
9.53333,-63
9.54167,-63
9.55000,-63
9.55833,-63
9.56667,-62
9.57500,-62
9.58333,-62
9.59167,-62
9.60000,-62
9.60833,-62
9.61667,-62
9.62500,-62
9.63333,-62
9.64167,-61
9.65000,-61
9.65833,-61
9.66667,-61
9.67500,-61
9.68333,-61
9.69167,-61
9.70000,-61
9.70833,-61
9.71667,-61
9.72500,-61
9.73333,-61
9.74167,-61
9.75000,-61
9.75833,-61
9.76667,-61
9.77500,-61
9.78333,-61
9.79167,-61
9.80000,-61
9.80833,-61
9.81667,-61
9.82500,-60
9.83333,-60
9.84167,-60
9.85000,-60
9.85833,-60
9.86667,-60
9.87500,-60
9.88333,-60
9.89167,-60
9.90000,-60
9.90833,-60
9.91667,-60
9.92500,-60
9.93333,-60
9.94167,-60
9.95000,-60
9.95833,-60
9.96667,-59
9.97500,-59
9.98333,-59
9.99167,-59
10.00000,-58
10.00833,-58
10.01667,-58
10.02500,-58
10.03333,-58
10.04167,-58
10.05000,-58
10.05833,-58
10.06667,-58
10.07500,-57
10.08333,-57
10.09167,-56
10.10000,-56
10.10833,-55
10.11667,-55
10.12500,-54
10.13333,-53
10.14167,-52
10.15000,-52
10.15833,-51
10.16667,-50
10.17500,-49
10.18333,-48
10.19167,-48
10.20000,-47
10.20833,-46
10.21667,-45
10.22500,-43
10.23333,-41
10.24167,-40
10.25000,-38
10.25833,-35
10.26667,-33
10.27500,-31
10.28333,-28
10.29167,-25
10.30000,-21
10.30833,-16
10.31667,-11
10.32500,-5
10.33333,2
10.34167,10
10.35000,18
10.35833,29
10.36667,40
10.37500,53
10.38333,67
10.39167,81
10.40000,96
10.40833,111
10.41667,125
10.42500,139
10.43333,151
10.44167,161
10.45000,168
10.45833,171
10.46667,172
10.47500,169
10.48333,163
10.49167,154
10.50000,145
10.50833,136
10.51667,131
10.52500,132
10.53333,142
10.54167,166
10.55000,208
10.55833,273
10.56667,366
10.57500,494
10.58333,660
10.59167,872
10.60000,1136
10.60833,1458
10.61667,1843
10.62500,2298
10.63333,2829
10.64167,3441
10.65000,4141
10.65833,4931
10.66667,5818
10.67500,6806
10.68333,7899
10.69167,9100
10.70000,10413
10.70833,11840
10.71667,13384
10.72500,15048
10.73333,16832
10.74167,18738
10.75000,20767
10.75833,22918
10.76667,25192
10.77500,27589
10.78333,30107
10.79167,32745
10.80000,35503
10.80833,38376
10.81667,41362
10.82500,44458
10.83333,47659
10.84167,50961
10.85000,54358
10.85833,57843
10.86667,61408
10.87500,65043
10.88333,68739
10.89167,72481
10.90000,76255
10.90833,80042
10.91667,83821
10.92500,87568
10.93333,91254
10.94167,94845
10.95000,98304
10.95833,101590
10.96667,104655
10.97500,107450
10.98333,109920
10.99167,112010
11.00000,113665
11.00833,114828
11.01667,115451
11.02500,115488
11.03333,114905
11.04167,113679
11.05000,111802
11.05833,109282
11.06667,106147
11.07500,102441
11.08333,98223
11.09167,93569
11.10000,88563
11.10833,83300
11.11667,77872
11.12500,72375
11.13333,66897
11.14167,61515
11.15000,56301
11.15833,51311
11.16667,46588
11.17500,42165
11.18333,38061
11.19167,34286
11.20000,30840
11.20833,27716
11.21667,24901
11.22500,22378
11.23333,20128
11.24167,18128
11.25000,16358
11.25833,14794
11.26667,13415
11.27500,12202
11.28333,11134
11.29167,10196
11.30000,9370
11.30833,8642
11.31667,8000
11.32500,7433
11.33333,6930
11.34167,6483
11.35000,6086
11.35833,5730
11.36667,5410
11.37500,5122
11.38333,4861
11.39167,4624
11.40000,4407
11.40833,4209
11.41667,4025
11.42500,3855
11.43333,3698
11.44167,3551
11.45000,3413
11.45833,3283
11.46667,3161
11.47500,3046
11.48333,2937
11.49167,2833
11.50000,2735
11.50833,2641
11.51667,2552
11.52500,2467
11.53333,2385
11.54167,2307
11.55000,2232
11.55833,2161
11.56667,2092
11.57500,2027
11.58333,1963
11.59167,1903
11.60000,1844
11.60833,1789
11.61667,1735
11.62500,1684
11.63333,1635
11.64167,1588
11.65000,1543
11.65833,1499
11.66667,1457
11.67500,1417
11.68333,1378
11.69167,1341
11.70000,1305
11.70833,1271
11.71667,1239
11.72500,1208
11.73333,1178
11.74167,1149
11.75000,1122
11.75833,1096
11.76667,1071
11.77500,1047
11.78333,1024
11.79167,1002
11.80000,981
11.80833,960
11.81667,941
11.82500,922
11.83333,905
11.84167,888
11.85000,872
11.85833,856
11.86667,841
11.87500,827
11.88333,814
11.89167,801
11.90000,788
11.90833,776
11.91667,765
11.92500,754
11.93333,744
11.94167,734
11.95000,725
11.95833,715
11.96667,706
11.97500,698
11.98333,690
11.99167,682
12.00000,674
12.00833,668
12.01667,661
12.02500,655
12.03333,648
12.04167,643
12.05000,637
12.05833,632
12.06667,626
12.07500,622
12.08333,617
12.09167,613
12.10000,608
12.10833,604
12.11667,600
12.12500,596
12.13333,593
12.14167,590
12.15000,587
12.15833,584
12.16667,581
12.17500,579
12.18333,576
12.19167,574
12.20000,572
12.20833,571
12.21667,568
12.22500,567
12.23333,565
12.24167,564
12.25000,563
12.25833,563
12.26667,562
12.27500,562
12.28333,562
12.29167,561
12.30000,561
12.30833,561
12.31667,561
12.32500,561
12.33333,561
12.34167,561
12.35000,561
12.35833,561
12.36667,561
12.37500,561
12.38333,561
12.39167,561
12.40000,561
12.40833,561
12.41667,561
12.42500,561
12.43333,560
12.44167,560
12.45000,559
12.45833,559
12.46667,558
12.47500,557
12.48333,556
12.49167,555
12.50000,554
12.50833,554
12.51667,552
12.52500,551
12.53333,550
12.54167,549
12.55000,547
12.55833,545
12.56667,543
12.57500,542
12.58333,540
12.59167,539
12.60000,538
12.60833,536
12.61667,535
12.62500,535
12.63333,534
12.64167,534
12.65000,535
12.65833,535
12.66667,537
12.67500,538
12.68333,540
12.69167,544
12.70000,548
12.70833,554
12.71667,562
12.72500,571
12.73333,583
12.74167,597
12.75000,613
12.75833,632
12.76667,654
12.77500,679
12.78333,707
12.79167,739
12.80000,775
12.80833,816
12.81667,860
12.82500,909
12.83333,962
12.84167,1020
12.85000,1083
12.85833,1151
12.86667,1224
12.87500,1302
12.88333,1386
12.89167,1475
12.90000,1570
12.90833,1670
12.91667,1776
12.92500,1887
12.93333,2004
12.94167,2127
12.95000,2256
12.95833,2390
12.96667,2530
12.97500,2676
12.98333,2828
12.99167,2986
13.00000,3150
13.00833,3319
13.01667,3494
13.02500,3674
13.03333,3859
13.04167,4050
13.05000,4247
13.05833,4449
13.06667,4656
13.07500,4869
13.08333,5086
13.09167,5309
13.10000,5536
13.10833,5767
13.11667,6004
13.12500,6245
13.13333,6491
13.14167,6741
13.15000,6995
13.15833,7254
13.16667,7517
13.17500,7784
13.18333,8055
13.19167,8330
13.20000,8608
13.20833,8891
13.21667,9178
13.22500,9467
13.23333,9760
13.24167,10056
13.25000,10356
13.25833,10658
13.26667,10964
13.27500,11274
13.28333,11586
13.29167,11901
13.30000,12220
13.30833,12542
13.31667,12866
13.32500,13194
13.33333,13524
13.34167,13858
13.35000,14194
13.35833,14533
13.36667,14875
13.37500,15220
13.38333,15567
13.39167,15918
13.40000,16271
13.40833,16627
13.41667,16985
13.42500,17347
13.43333,17712
13.44167,18079
13.45000,18449
13.45833,18823
13.46667,19199
13.47500,19578
13.48333,19960
13.49167,20345
13.50000,20733
13.50833,21124
13.51667,21518
13.52500,21915
13.53333,22316
13.54167,22719
13.55000,23126
13.55833,23536
13.56667,23949
13.57500,24365
13.58333,24785
13.59167,25208
13.60000,25634
13.60833,26064
13.61667,26497
13.62500,26934
13.63333,27374
13.64167,27817
13.65000,28265
13.65833,28715
13.66667,29170
13.67500,29628
13.68333,30090
13.69167,30556
13.70000,31025
13.70833,31499
13.71667,31976
13.72500,32457
13.73333,32942
13.74167,33431
13.75000,33924
13.75833,34422
13.76667,34924
13.77500,35429
13.78333,35939
13.79167,36453
13.80000,36971
13.80833,37493
13.81667,38020
13.82500,38552
13.83333,39088
13.84167,39629
13.85000,40174
13.85833,40724
13.86667,41278
13.87500,41837
13.88333,42400
13.89167,42969
13.90000,43542
13.90833,44120
13.91667,44703
13.92500,45291
13.93333,45883
13.94167,46482
13.95000,47085
13.95833,47693
13.96667,48307
13.97500,48926
13.98333,49551
13.99167,50181
14.00000,50817
14.00833,51458
14.01667,52105
14.02500,52757
14.03333,53415
14.04167,54079
14.05000,54749
14.05833,55425
14.06667,56107
14.07500,56795
14.08333,57490
14.09167,58190
14.10000,58897
14.10833,59611
14.11667,60331
14.12500,61059
14.13333,61792
14.14167,62533
14.15000,63280
14.15833,64034
14.16667,64795
14.17500,65564
14.18333,66339
14.19167,67122
14.20000,67910
14.20833,68703
14.21667,69501
14.22500,70299
14.23333,71094
14.24167,71881
14.25000,72654
14.25833,73403
14.26667,74120
14.27500,74792
14.28333,75410
14.29167,75959
14.30000,76428
14.30833,76804
14.31667,77076
14.32500,77233
14.33333,77268
14.34167,77172
14.35000,76940
14.35833,76567
14.36667,76051
14.37500,75389
14.38333,74578
14.39167,73618
14.40000,72506
14.40833,71240
14.41667,69817
14.42500,68236
14.43333,66495
14.44167,64596
14.45000,62541
14.45833,60335
14.46667,57987
14.47500,55509
14.48333,52917
14.49167,50230
14.50000,47470
14.50833,44662
14.51667,41834
14.52500,39012
14.53333,36223
14.54167,33494
14.55000,30847
14.55833,28305
14.56667,25883
14.57500,23595
14.58333,21453
14.59167,19461
14.60000,17623
14.60833,15937
14.61667,14401
14.62500,13009
14.63333,11754
14.64167,10627
14.65000,9618
14.65833,8719
14.66667,7920
14.67500,7211
14.68333,6584
14.69167,6029
14.70000,5539
14.70833,5106
14.71667,4723
14.72500,4384
14.73333,4085
14.74167,3820
14.75000,3583
14.75833,3373
14.76667,3186
14.77500,3018
14.78333,2867
14.79167,2732
14.80000,2610
14.80833,2499
14.81667,2398
14.82500,2306
14.83333,2221
14.84167,2144
14.85000,2072
14.85833,2006
14.86667,1945
14.87500,1888
14.88333,1835
14.89167,1785
14.90000,1739
14.90833,1695
14.91667,1653
14.92500,1614
14.93333,1577
14.94167,1543
14.95000,1510
14.95833,1478
14.96667,1448
14.97500,1420
14.98333,1393
14.99167,1368
15.00000,1344
15.00833,1322
15.01667,1301
15.02500,1281
15.03333,1262
15.04167,1245
15.05000,1228
15.05833,1213
15.06667,1198
15.07500,1184
15.08333,1172
15.09167,1160
15.10000,1149
15.10833,1139
15.11667,1129
15.12500,1121
15.13333,1114
15.14167,1107
15.15000,1101
15.15833,1096
15.16667,1093
15.17500,1091
15.18333,1092
15.19167,1094
15.20000,1099
15.20833,1107
15.21667,1118
15.22500,1133
15.23333,1154
15.24167,1182
15.25000,1216
15.25833,1259
15.26667,1312
15.27500,1376
15.28333,1454
15.29167,1547
15.30000,1658
15.30833,1789
15.31667,1941
15.32500,2119
15.33333,2325
15.34167,2562
15.35000,2832
15.35833,3139
15.36667,3486
15.37500,3874
15.38333,4308
15.39167,4790
15.40000,5321
15.40833,5905
15.41667,6543
15.42500,7237
15.43333,7987
15.44167,8793
15.45000,9656
15.45833,10574
15.46667,11547
15.47500,12573
15.48333,13649
15.49167,14772
15.50000,15938
15.50833,17143
15.51667,18382
15.52500,19651
15.53333,20943
15.54167,22253
15.55000,23574
15.55833,24900
15.56667,26224
15.57500,27540
15.58333,28842
15.59167,30123
15.60000,31377
15.60833,32598
15.61667,33780
15.62500,34919
15.63333,36010
15.64167,37047
15.65000,38028
15.65833,38948
15.66667,39805
15.67500,40595
15.68333,41316
15.69167,41967
15.70000,42546
15.70833,43051
15.71667,43482
15.72500,43837
15.73333,44116
15.74167,44319
15.75000,44446
15.75833,44498
15.76667,44474
15.77500,44376
15.78333,44204
15.79167,43959
15.80000,43643
15.80833,43258
15.81667,42804
15.82500,42284
15.83333,41700
15.84167,41055
15.85000,40352
15.85833,39594
15.86667,38783
15.87500,37924
15.88333,37020
15.89167,36076
15.90000,35095
15.90833,34081
15.91667,33040
15.92500,31975
15.93333,30891
15.94167,29793
15.95000,28684
15.95833,27571
15.96667,26456
15.97500,25344
15.98333,24239
15.99167,23145
16.00000,22065
16.00833,21004
16.01667,19963
16.02500,18946
16.03333,17955
16.04167,16993
16.05000,16061
16.05833,15162
16.06667,14296
16.07500,13465
16.08333,12668
16.09167,11908
16.10000,11183
16.10833,10494
16.11667,9841
16.12500,9223
16.13333,8640
16.14167,8091
16.15000,7575
16.15833,7092
16.16667,6639
16.17500,6216
16.18333,5822
16.19167,5455
16.20000,5114
16.20833,4797
16.21667,4505
16.22500,4234
16.23333,3984
16.24167,3753
16.25000,3540
16.25833,3344
16.26667,3164
16.27500,2998
16.28333,2846
16.29167,2707
16.30000,2579
16.30833,2461
16.31667,2354
16.32500,2255
16.33333,2165
16.34167,2082
16.35000,2006
16.35833,1936
16.36667,1872
16.37500,1813
16.38333,1759
16.39167,1710
16.40000,1664
16.40833,1621
16.41667,1581
16.42500,1545
16.43333,1510
16.44167,1478
16.45000,1448
16.45833,1420
16.46667,1394
16.47500,1369
16.48333,1345
16.49167,1323
16.50000,1301
16.50833,1281
16.51667,1261
16.52500,1242
16.53333,1223
16.54167,1204
16.55000,1186
16.55833,1169
16.56667,1152
16.57500,1136
16.58333,1120
16.59167,1104
16.60000,1089
16.60833,1074
16.61667,1059
16.62500,1045
16.63333,1031
16.64167,1016
16.65000,1003
16.65833,989
16.66667,976
16.67500,963
16.68333,950
16.69167,938
16.70000,926
16.70833,914
16.71667,904
16.72500,893
16.73333,883
16.74167,874
16.75000,865
16.75833,857
16.76667,849
16.77500,841
16.78333,834
16.79167,828
16.80000,822
16.80833,817
16.81667,812
16.82500,808
16.83333,804
16.84167,800
16.85000,797
16.85833,795
16.86667,793
16.87500,791
16.88333,789
16.89167,788
16.90000,787
16.90833,786
16.91667,785
16.92500,784
16.93333,784
16.94167,783
16.95000,782
16.95833,782
16.96667,781
16.97500,781
16.98333,780
16.99167,779
17.00000,779
17.00833,778
17.01667,777
17.02500,776
17.03333,776
17.04167,775
17.05000,773
17.05833,772
17.06667,770
17.07500,769
17.08333,767
17.09167,765
17.10000,764
17.10833,762
17.11667,760
17.12500,758
17.13333,755
17.14167,753
17.15000,750
17.15833,748
17.16667,745
17.17500,742
17.18333,739
17.19167,736
17.20000,733
17.20833,729
17.21667,726
17.22500,722
17.23333,718
17.24167,714
17.25000,709
17.25833,705
17.26667,701
17.27500,697
17.28333,692
17.29167,688
17.30000,683
17.30833,679
17.31667,675
17.32500,670
17.33333,666
17.34167,662
17.35000,658
17.35833,655
17.36667,652
17.37500,649
17.38333,646
17.39167,644
17.40000,641
17.40833,639
17.41667,637
17.42500,636
17.43333,635
17.44167,634
17.45000,634
17.45833,634
17.46667,634
17.47500,635
17.48333,637
17.49167,638
17.50000,641
17.50833,643
17.51667,646
17.52500,649
17.53333,653
17.54167,657
17.55000,661
17.55833,665
17.56667,669
17.57500,674
17.58333,679
17.59167,685
17.60000,690
17.60833,696
17.61667,701
17.62500,707
17.63333,712
17.64167,718
17.65000,724
17.65833,729
17.66667,734
17.67500,740
17.68333,746
17.69167,751
17.70000,757
17.70833,762
17.71667,767
17.72500,772
17.73333,777
17.74167,781
17.75000,785
17.75833,789
17.76667,792
17.77500,796
17.78333,799
17.79167,801
17.80000,804
17.80833,806
17.81667,808
17.82500,809
17.83333,810
17.84167,811
17.85000,811
17.85833,812
17.86667,811
17.87500,811
17.88333,810
17.89167,808
17.90000,807
17.90833,805
17.91667,802
17.92500,799
17.93333,796
17.94167,792
17.95000,788
17.95833,783
17.96667,778
17.97500,773
17.98333,767
17.99167,761
18.00000,755
18.00833,749
18.01667,743
18.02500,736
18.03333,729
18.04167,721
18.05000,714
18.05833,706
18.06667,699
18.07500,691
18.08333,683
18.09167,675
18.10000,668
18.10833,660
18.11667,652
18.12500,645
18.13333,638
18.14167,631
18.15000,623
18.15833,615
18.16667,608
18.17500,601
18.18333,593
18.19167,586
18.20000,579
18.20833,573
18.21667,566
18.22500,560
18.23333,554
18.24167,548
18.25000,542
18.25833,537
18.26667,532
18.27500,527
18.28333,523
18.29167,518
18.30000,514
18.30833,510
18.31667,506
18.32500,503
18.33333,501
18.34167,498
18.35000,496
18.35833,494
18.36667,492
18.37500,491
18.38333,490
18.39167,489
18.40000,488
18.40833,488
18.41667,488
18.42500,488
18.43333,489
18.44167,490
18.45000,491
18.45833,493
18.46667,494
18.47500,496
18.48333,498
18.49167,500
18.50000,503
18.50833,505
18.51667,508
18.52500,511
18.53333,515
18.54167,518
18.55000,522
18.55833,526
18.56667,530
18.57500,534
18.58333,538
18.59167,542
18.60000,547
18.60833,551
18.61667,556
18.62500,561
18.63333,565
18.64167,570
18.65000,575
18.65833,580
18.66667,585
18.67500,590
18.68333,595
18.69167,600
18.70000,606
18.70833,611
18.71667,616
18.72500,622
18.73333,627
18.74167,632
18.75000,637
18.75833,642
18.76667,646
18.77500,651
18.78333,656
18.79167,661
18.80000,666
18.80833,670
18.81667,675
18.82500,679
18.83333,684
18.84167,688
18.85000,692
18.85833,696
18.86667,700
18.87500,704
18.88333,708
18.89167,712
18.90000,716
18.90833,719
18.91667,722
18.92500,726
18.93333,729
18.94167,733
18.95000,737
18.95833,740
18.96667,742
18.97500,745
18.98333,747
18.99167,749
19.00000,752
19.00833,754
19.01667,756
19.02500,758
19.03333,760
19.04167,761
19.05000,763
19.05833,764
19.06667,764
19.07500,765
19.08333,765
19.09167,765
19.10000,765
19.10833,765
19.11667,764
19.12500,763
19.13333,763
19.14167,762
19.15000,760
19.15833,759
19.16667,757
19.17500,756
19.18333,754
19.19167,751
19.20000,748
19.20833,745
19.21667,742
19.22500,739
19.23333,736
19.24167,732
19.25000,728
19.25833,724
19.26667,720
19.27500,715
19.28333,711
19.29167,706
19.30000,701
19.30833,696
19.31667,691
19.32500,686
19.33333,680
19.34167,675
19.35000,669
19.35833,663
19.36667,658
19.37500,652
19.38333,646
19.39167,639
19.40000,633
19.40833,626
19.41667,620
19.42500,614
19.43333,607
19.44167,601
19.45000,594
19.45833,587
19.46667,581
19.47500,574
19.48333,568
19.49167,561
19.50000,555
19.50833,548
19.51667,542
19.52500,536
19.53333,529
19.54167,523
19.55000,517
19.55833,511
19.56667,505
19.57500,499
19.58333,494
19.59167,488
19.60000,483
19.60833,478
19.61667,473
19.62500,468
19.63333,463
19.64167,458
19.65000,454
19.65833,449
19.66667,446
19.67500,442
19.68333,439
19.69167,436
19.70000,434
19.70833,432
19.71667,430
19.72500,428
19.73333,427
19.74167,426
19.75000,426
19.75833,426
19.76667,426
19.77500,427
19.78333,429
19.79167,431
19.80000,434
19.80833,437
19.81667,440
19.82500,445
19.83333,450
19.84167,455
19.85000,461
19.85833,467
19.86667,474
19.87500,482
19.88333,491
19.89167,500
19.90000,509
19.90833,519
19.91667,530
19.92500,542
19.93333,554
19.94167,568
19.95000,581
19.95833,595
19.96667,609
19.97500,624
19.98333,638
19.99167,654
20.00000,669
20.00833,684
20.01667,699
20.02500,715
20.03333,731
20.04167,747
20.05000,763
20.05833,779
20.06667,796
20.07500,811
20.08333,827
20.09167,842
20.10000,857
20.10833,871
20.11667,885
20.12500,898
20.13333,911
20.14167,924
20.15000,936
20.15833,947
20.16667,958
20.17500,968
20.18333,978
20.19167,986
20.20000,995
20.20833,1002
20.21667,1009
20.22500,1016
20.23333,1022
20.24167,1027
20.25000,1031
20.25833,1035
20.26667,1038
20.27500,1041
20.28333,1042
20.29167,1043
20.30000,1043
20.30833,1043
20.31667,1042
20.32500,1040
20.33333,1039
20.34167,1036
20.35000,1033
20.35833,1030
20.36667,1026
20.37500,1022
20.38333,1018
20.39167,1013
20.40000,1009
20.40833,1004
20.41667,1000
20.42500,995
20.43333,990
20.44167,986
20.45000,981
20.45833,978
20.46667,974
20.47500,971
20.48333,969
20.49167,966
20.50000,965
20.50833,964
20.51667,964
20.52500,965
20.53333,966
20.54167,968
20.55000,972
20.55833,976
20.56667,981
20.57500,986
20.58333,993
20.59167,1001
20.60000,1010
20.60833,1020
20.61667,1031
20.62500,1042
20.63333,1054
20.64167,1067
20.65000,1080
20.65833,1094
20.66667,1109
20.67500,1124
20.68333,1139
20.69167,1154
20.70000,1170
20.70833,1186
20.71667,1202
20.72500,1218
20.73333,1233
20.74167,1249
20.75000,1264
20.75833,1279
20.76667,1293
20.77500,1307
20.78333,1321
20.79167,1335
20.80000,1347
20.80833,1360
20.81667,1371
20.82500,1382
20.83333,1392
20.84167,1402
20.85000,1411
20.85833,1419
20.86667,1427
20.87500,1434
20.88333,1441
20.89167,1447
20.90000,1452
20.90833,1457
20.91667,1461
20.92500,1465
20.93333,1468
20.94167,1470
20.95000,1471
20.95833,1472
20.96667,1473
20.97500,1473
20.98333,1473
20.99167,1472
21.00000,1471
21.00833,1470
21.01667,1469
21.02500,1468
21.03333,1467
21.04167,1465
21.05000,1464
21.05833,1462
21.06667,1460
21.07500,1459
21.08333,1457
21.09167,1456
21.10000,1455
21.10833,1454
21.11667,1454
21.12500,1454
21.13333,1455
21.14167,1456
21.15000,1458
21.15833,1460
21.16667,1462
21.17500,1465
21.18333,1469
21.19167,1473
21.20000,1478
21.20833,1484
21.21667,1490
21.22500,1496
21.23333,1502
21.24167,1509
21.25000,1517
21.25833,1524
21.26667,1531
21.27500,1538
21.28333,1545
21.29167,1553
21.30000,1560
21.30833,1568
21.31667,1575
21.32500,1583
21.33333,1590
21.34167,1597
21.35000,1605
21.35833,1611
21.36667,1618
21.37500,1624
21.38333,1631
21.39167,1637
21.40000,1643
21.40833,1649
21.41667,1655
21.42500,1660
21.43333,1666
21.44167,1671
21.45000,1677
21.45833,1682
21.46667,1687
21.47500,1692
21.48333,1696
21.49167,1700
21.50000,1704
21.50833,1707
21.51667,1711
21.52500,1714
21.53333,1717
21.54167,1720
21.55000,1722
21.55833,1723
21.56667,1725
21.57500,1725
21.58333,1725
21.59167,1725
21.60000,1724
21.60833,1722
21.61667,1719
21.62500,1715
21.63333,1710
21.64167,1705
21.65000,1699
21.65833,1692
21.66667,1683
21.67500,1674
21.68333,1665
21.69167,1654
21.70000,1642
21.70833,1630
21.71667,1616
21.72500,1602
21.73333,1587
21.74167,1572
21.75000,1556
21.75833,1539
21.76667,1522
21.77500,1505
21.78333,1487
21.79167,1469
21.80000,1451
21.80833,1432
21.81667,1413
21.82500,1395
21.83333,1376
21.84167,1358
21.85000,1340
21.85833,1321
21.86667,1303
21.87500,1285
21.88333,1267
21.89167,1249
21.90000,1232
21.90833,1214
21.91667,1197
21.92500,1180
21.93333,1163
21.94167,1147
21.95000,1131
21.95833,1115
21.96667,1099
21.97500,1083
21.98333,1067
21.99167,1051
22.00000,1036
22.00833,1020
22.01667,1005
22.02500,989
22.03333,973
22.04167,958
22.05000,942
22.05833,926
22.06667,910
22.07500,893
22.08333,877
22.09167,861
22.10000,845
22.10833,829
22.11667,812
22.12500,796
22.13333,779
22.14167,763
22.15000,747
22.15833,731
22.16667,714
22.17500,698
22.18333,682
22.19167,667
22.20000,651
22.20833,636
22.21667,621
22.22500,606
22.23333,591
22.24167,577
22.25000,563
22.25833,549
22.26667,536
22.27500,523
22.28333,510
22.29167,498
22.30000,486
22.30833,475
22.31667,464
22.32500,454
22.33333,444
22.34167,434
22.35000,426
22.35833,417
22.36667,409
22.37500,402
22.38333,395
22.39167,388
22.40000,382
22.40833,376
22.41667,370
22.42500,365
22.43333,360
22.44167,355
22.45000,351
22.45833,347
22.46667,343
22.47500,340
22.48333,337
22.49167,334
22.50000,332
22.50833,330
22.51667,329
22.52500,327
22.53333,326
22.54167,325
22.55000,324
22.55833,323
22.56667,323
22.57500,323
22.58333,323
22.59167,324
22.60000,324
22.60833,325
22.61667,326
22.62500,327
22.63333,328
22.64167,330
22.65000,331
22.65833,333
22.66667,336
22.67500,338
22.68333,341
22.69167,344
22.70000,347
22.70833,351
22.71667,354
22.72500,358
22.73333,362
22.74167,365
22.75000,369
22.75833,373
22.76667,377
22.77500,381
22.78333,386
22.79167,390
22.80000,395
22.80833,399
22.81667,404
22.82500,408
22.83333,413
22.84167,417
22.85000,422
22.85833,427
22.86667,431
22.87500,436
22.88333,440
22.89167,445
22.90000,449
22.90833,454
22.91667,458
22.92500,462
22.93333,467
22.94167,471
22.95000,474
22.95833,478
22.96667,482
22.97500,485
22.98333,489
22.99167,492
23.00000,495
23.00833,498
23.01667,501
23.02500,504
23.03333,506
23.04167,509
23.05000,511
23.05833,514
23.06667,516
23.07500,518
23.08333,519
23.09167,521
23.10000,522
23.10833,523
23.11667,524
23.12500,524
23.13333,524
23.14167,524
23.15000,525
23.15833,525
23.16667,524
23.17500,524
23.18333,523
23.19167,522
23.20000,520
23.20833,519
23.21667,517
23.22500,516
23.23333,514
23.24167,513
23.25000,511
23.25833,508
23.26667,506
23.27500,503
23.28333,501
23.29167,498
23.30000,495
23.30833,492
23.31667,489
23.32500,485
23.33333,482
23.34167,479
23.35000,476
23.35833,473
23.36667,469
23.37500,466
23.38333,462
23.39167,459
23.40000,456
23.40833,453
23.41667,450
23.42500,447
23.43333,444
23.44167,441
23.45000,439
23.45833,436
23.46667,434
23.47500,431
23.48333,429
23.49167,426
23.50000,424
23.50833,421
23.51667,419
23.52500,417
23.53333,415
23.54167,414
23.55000,412
23.55833,411
23.56667,409
23.57500,407
23.58333,406
23.59167,405
23.60000,403
23.60833,402
23.61667,401
23.62500,400
23.63333,399
23.64167,399
23.65000,398
23.65833,397
23.66667,397
23.67500,396
23.68333,395
23.69167,394
23.70000,394
23.70833,393
23.71667,392
23.72500,392
23.73333,391
23.74167,391
23.75000,390
23.75833,390
23.76667,389
23.77500,388
23.78333,387
23.79167,386
23.80000,386
23.80833,385
23.81667,384
23.82500,384
23.83333,383
23.84167,383
23.85000,382
23.85833,382
23.86667,382
23.87500,381
23.88333,381
23.89167,381
23.90000,381
23.90833,380
23.91667,380
23.92500,379
23.93333,378
23.94167,377
23.95000,376
23.95833,375
23.96667,374
23.97500,374
23.98333,373
23.99167,373
24.00000,373
24.00833,372
24.01667,371
24.02500,370
24.03333,369
24.04167,369
24.05000,368
24.05833,368
24.06667,367
24.07500,366
24.08333,365
24.09167,365
24.10000,364
24.10833,363
24.11667,363
24.12500,362
24.13333,362
24.14167,362
24.15000,361
24.15833,360
24.16667,359
24.17500,359
24.18333,358
24.19167,357
24.20000,357
24.20833,357
24.21667,357
24.22500,356
24.23333,356
24.24167,355
24.25000,355
24.25833,355
24.26667,355
24.27500,355
24.28333,356
24.29167,356
24.30000,356
24.30833,357
24.31667,358
24.32500,360
24.33333,362
24.34167,364
24.35000,366
24.35833,369
24.36667,372
24.37500,376
24.38333,380
24.39167,385
24.40000,391
24.40833,397
24.41667,404
24.42500,412
24.43333,421
24.44167,431
24.45000,442
24.45833,454
24.46667,468
24.47500,484
24.48333,501
24.49167,519
24.50000,540
24.50833,562
24.51667,586
24.52500,613
24.53333,642
24.54167,674
24.55000,707
24.55833,743
24.56667,781
24.57500,822
24.58333,865
24.59167,911
24.60000,960
24.60833,1011
24.61667,1064
24.62500,1120
24.63333,1179
24.64167,1240
24.65000,1303
24.65833,1369
24.66667,1437
24.67500,1507
24.68333,1579
24.69167,1653
24.70000,1728
24.70833,1804
24.71667,1881
24.72500,1959
24.73333,2039
24.74167,2119
24.75000,2200
24.75833,2280
24.76667,2361
24.77500,2441
24.78333,2521
24.79167,2600
24.80000,2679
24.80833,2758
24.81667,2835
24.82500,2910
24.83333,2984
24.84167,3057
24.85000,3128
24.85833,3196
24.86667,3263
24.87500,3329
24.88333,3391
24.89167,3452
24.90000,3510
24.90833,3566
24.91667,3619
24.92500,3671
24.93333,3719
24.94167,3766
24.95000,3809
24.95833,3851
24.96667,3889
24.97500,3926
24.98333,3960
24.99167,3992
25.00000,4021
25.00833,4047
25.01667,4070
25.02500,4091
25.03333,4109
25.04167,4124
25.05000,4136
25.05833,4145
25.06667,4152
25.07500,4155
25.08333,4156
25.09167,4154
25.10000,4148
25.10833,4140
25.11667,4128
25.12500,4113
25.13333,4095
25.14167,4073
25.15000,4048
25.15833,4020
25.16667,3989
25.17500,3954
25.18333,3917
25.19167,3876
25.20000,3832
25.20833,3786
25.21667,3736
25.22500,3683
25.23333,3627
25.24167,3569
25.25000,3509
25.25833,3446
25.26667,3381
25.27500,3314
25.28333,3245
25.29167,3174
25.30000,3101
25.30833,3028
25.31667,2953
25.32500,2877
25.33333,2801
25.34167,2723
25.35000,2646
25.35833,2568
25.36667,2491
25.37500,2413
25.38333,2336
25.39167,2260
25.40000,2184
25.40833,2110
25.41667,2036
25.42500,1963
25.43333,1892
25.44167,1822
25.45000,1754
25.45833,1687
25.46667,1622
25.47500,1559
25.48333,1497
25.49167,1438
25.50000,1381
25.50833,1325
25.51667,1272
25.52500,1220
25.53333,1171
25.54167,1124
25.55000,1078
25.55833,1035
25.56667,993
25.57500,954
25.58333,917
25.59167,881
25.60000,847
25.60833,814
25.61667,784
25.62500,755
25.63333,727
25.64167,701
25.65000,677
25.65833,654
25.66667,632
25.67500,612
25.68333,593
25.69167,574
25.70000,557
25.70833,540
25.71667,525
25.72500,511
25.73333,497
25.74167,484
25.75000,472
25.75833,461
25.76667,450
25.77500,440
25.78333,430
25.79167,420
25.80000,412
25.80833,403
25.81667,395
25.82500,388
25.83333,380
25.84167,373
25.85000,367
25.85833,360
25.86667,354
25.87500,347
25.88333,341
25.89167,335
25.90000,330
25.90833,324
25.91667,319
25.92500,314
25.93333,308
25.94167,303
25.95000,298
25.95833,293
25.96667,288
25.97500,284
25.98333,279
25.99167,274
26.00000,269
26.00833,265
26.01667,260
26.02500,255
26.03333,250
26.04167,245
26.05000,241
26.05833,237
26.06667,232
26.07500,228
26.08333,223
26.09167,219
26.10000,215
26.10833,211
26.11667,207
26.12500,203
26.13333,200
26.14167,196
26.15000,192
26.15833,189
26.16667,185
26.17500,182
26.18333,179
26.19167,175
26.20000,172
26.20833,169
26.21667,167
26.22500,164
26.23333,161
26.24167,159
26.25000,156
26.25833,153
26.26667,151
26.27500,148
26.28333,146
26.29167,144
26.30000,142
26.30833,140
26.31667,138
26.32500,137
26.33333,136
26.34167,134
26.35000,132
26.35833,131
26.36667,130
26.37500,128
26.38333,127
26.39167,126
26.40000,125
26.40833,124
26.41667,123
26.42500,122
26.43333,121
26.44167,121
26.45000,120
26.45833,120
26.46667,119
26.47500,119
26.48333,119
26.49167,118
26.50000,118
26.50833,117
26.51667,117
26.52500,117
26.53333,117
26.54167,117
26.55000,117
26.55833,117
26.56667,116
26.57500,116
26.58333,116
26.59167,116
26.60000,115
26.60833,115
26.61667,115
26.62500,115
26.63333,115
26.64167,115
26.65000,115
26.65833,115
26.66667,115
26.67500,115
26.68333,115
26.69167,116
26.70000,116
26.70833,116
26.71667,116
26.72500,116
26.73333,116
26.74167,116
26.75000,116
26.75833,117
26.76667,117
26.77500,117
26.78333,117
26.79167,117
26.80000,117
26.80833,116
26.81667,117
26.82500,117
26.83333,118
26.84167,118
26.85000,118
26.85833,118
26.86667,118
26.87500,118
26.88333,118
26.89167,118
26.90000,118
26.90833,119
26.91667,119
26.92500,119
26.93333,119
26.94167,120
26.95000,120
26.95833,120
26.96667,120
26.97500,120
26.98333,120
26.99167,120
27.00000,120
27.00833,121
27.01667,121
27.02500,121
27.03333,122
27.04167,122
27.05000,122
27.05833,122
27.06667,122
27.07500,122
27.08333,122
27.09167,123
27.10000,123
27.10833,123
27.11667,123
27.12500,123
27.13333,123
27.14167,124
27.15000,124
27.15833,124
27.16667,124
27.17500,124
27.18333,124
27.19167,124
27.20000,123
27.20833,123
27.21667,123
27.22500,123
27.23333,123
27.24167,123
27.25000,123
27.25833,123
27.26667,124
27.27500,124
27.28333,124
27.29167,124
27.30000,124
27.30833,124
27.31667,125
27.32500,125
27.33333,124
27.34167,124
27.35000,124
27.35833,123
27.36667,123
27.37500,123
27.38333,123
27.39167,123
27.40000,123
27.40833,122
27.41667,122
27.42500,121
27.43333,121
27.44167,121
27.45000,120
27.45833,120
27.46667,119
27.47500,119
27.48333,119
27.49167,119
27.50000,118
27.50833,118
27.51667,118
27.52500,118
27.53333,117
27.54167,117
27.55000,116
27.55833,115
27.56667,114
27.57500,114
27.58333,113
27.59167,113
27.60000,113
27.60833,112
27.61667,111
27.62500,110
27.63333,109
27.64167,109
27.65000,108
27.65833,107
27.66667,106
27.67500,106
27.68333,105
27.69167,104
27.70000,103
27.70833,102
27.71667,102
27.72500,101
27.73333,100
27.74167,100
27.75000,99
27.75833,98
27.76667,97
27.77500,96
27.78333,95
27.79167,95
27.80000,94
27.80833,94
27.81667,93
27.82500,92
27.83333,91
27.84167,90
27.85000,89
27.85833,89
27.86667,88
27.87500,88
27.88333,87
27.89167,87
27.90000,86
27.90833,85
27.91667,85
27.92500,84
27.93333,83
27.94167,83
27.95000,82
27.95833,82
27.96667,82
27.97500,82
27.98333,82
27.99167,81
28.00000,81
28.00833,81
28.01667,81
28.02500,81
28.03333,81
28.04167,81
28.05000,81
28.05833,80
28.06667,80
28.07500,80
28.08333,80
28.09167,80
28.10000,80
28.10833,80
28.11667,81
28.12500,81
28.13333,80
28.14167,80
28.15000,80
28.15833,80
28.16667,80
28.17500,80
28.18333,81
28.19167,81
28.20000,81
28.20833,82
28.21667,82
28.22500,83
28.23333,83
28.24167,83
28.25000,84
28.25833,84
28.26667,84
28.27500,85
28.28333,86
28.29167,86
28.30000,87
28.30833,88
28.31667,89
28.32500,90
28.33333,91
28.34167,92
28.35000,93
28.35833,95
28.36667,96
28.37500,98
28.38333,100
28.39167,103
28.40000,105
28.40833,107
28.41667,110
28.42500,114
28.43333,119
28.44167,123
28.45000,128
28.45833,134
28.46667,140
28.47500,147
28.48333,154
28.49167,162
28.50000,171
28.50833,180
28.51667,191
28.52500,202
28.53333,214
28.54167,227
28.55000,241
28.55833,256
28.56667,272
28.57500,290
28.58333,309
28.59167,329
28.60000,350
28.60833,372
28.61667,396
28.62500,421
28.63333,448
28.64167,476
28.65000,506
28.65833,537
28.66667,570
28.67500,604
28.68333,640
28.69167,677
28.70000,716
28.70833,757
28.71667,799
28.72500,842
28.73333,886
28.74167,932
28.75000,978
28.75833,1027
28.76667,1076
28.77500,1127
28.78333,1178
28.79167,1231
28.80000,1284
28.80833,1338
28.81667,1392
28.82500,1447
28.83333,1502
28.84167,1558
28.85000,1613
28.85833,1669
28.86667,1725
28.87500,1781
28.88333,1836
28.89167,1891
28.90000,1945
28.90833,1999
28.91667,2052
28.92500,2104
28.93333,2155
28.94167,2205
28.95000,2254
28.95833,2302
28.96667,2349
28.97500,2395
28.98333,2439
28.99167,2482
29.00000,2523
29.00833,2562
29.01667,2600
29.02500,2636
29.03333,2671
29.04167,2703
29.05000,2735
29.05833,2764
29.06667,2792
29.07500,2817
29.08333,2842
29.09167,2864
29.10000,2885
29.10833,2905
29.11667,2923
29.12500,2939
29.13333,2954
29.14167,2967
29.15000,2978
29.15833,2988
29.16667,2996
29.17500,3003
29.18333,3008
29.19167,3012
29.20000,3014
29.20833,3016
29.21667,3015
29.22500,3013
29.23333,3009
29.24167,3004
29.25000,2998
29.25833,2990
29.26667,2980
29.27500,2969
29.28333,2957
29.29167,2943
29.30000,2927
29.30833,2910
29.31667,2892
29.32500,2872
29.33333,2850
29.34167,2828
29.35000,2803
29.35833,2778
29.36667,2750
29.37500,2721
29.38333,2690
29.39167,2658
29.40000,2625
29.40833,2590
29.41667,2554
29.42500,2517
29.43333,2478
29.44167,2438
29.45000,2397
29.45833,2355
29.46667,2311
29.47500,2267
29.48333,2222
29.49167,2176
29.50000,2129
29.50833,2082
29.51667,2034
29.52500,1985
29.53333,1936
29.54167,1886
29.55000,1836
29.55833,1786
29.56667,1736
29.57500,1686
29.58333,1636
29.59167,1587
29.60000,1537
29.60833,1488
29.61667,1439
29.62500,1391
29.63333,1343
29.64167,1296
29.65000,1250
29.65833,1204
29.66667,1159
29.67500,1115
29.68333,1072
29.69167,1030
29.70000,989
29.70833,949
29.71667,910
29.72500,872
29.73333,835
29.74167,799
29.75000,765
29.75833,731
29.76667,699
29.77500,667
29.78333,637
29.79167,608
29.80000,580
29.80833,554
29.81667,528
29.82500,504
29.83333,480
29.84167,458
29.85000,437
29.85833,417
29.86667,398
29.87500,379
29.88333,361
29.89167,345
29.90000,329
29.90833,315
29.91667,301
29.92500,288
29.93333,275
29.94167,264
29.95000,253
29.95833,243
29.96667,234
29.97500,225
29.98333,216
29.99167,208
30.00000,200
30.00833,193
30.01667,186
30.02500,180
30.03333,174
30.04167,169
30.05000,164
30.05833,159
30.06667,155
30.07500,151
30.08333,148
30.09167,145
30.10000,142
30.10833,139
30.11667,137
30.12500,135
30.13333,133
30.14167,130
30.15000,128
30.15833,127
30.16667,125
30.17500,123
30.18333,122
30.19167,121
30.20000,120
30.20833,118
30.21667,118
30.22500,117
30.23333,116
30.24167,115
30.25000,114
30.25833,114
30.26667,114
30.27500,113
30.28333,113
30.29167,113
30.30000,113
30.30833,113
30.31667,113
30.32500,112
30.33333,112
30.34167,112
30.35000,112
30.35833,112
30.36667,111
30.37500,112
30.38333,112
30.39167,112
30.40000,112
30.40833,113
30.41667,113
30.42500,114
30.43333,114
30.44167,115
30.45000,116
30.45833,116
30.46667,117
30.47500,118
30.48333,118
30.49167,119
30.50000,120
30.50833,121
30.51667,121
30.52500,122
30.53333,124
30.54167,125
30.55000,126
30.55833,127
30.56667,128
30.57500,129
30.58333,131
30.59167,132
30.60000,134
30.60833,135
30.61667,137
30.62500,139
30.63333,140
30.64167,141
30.65000,142
30.65833,143
30.66667,145
30.67500,146
30.68333,148
30.69167,150
30.70000,152
30.70833,154
30.71667,156
30.72500,157
30.73333,159
30.74167,160
30.75000,162
30.75833,164
30.76667,165
30.77500,167
30.78333,169
30.79167,170
30.80000,172
30.80833,173
30.81667,175
30.82500,177
30.83333,178
30.84167,179
30.85000,181
30.85833,182
30.86667,184
30.87500,185
30.88333,186
30.89167,188
30.90000,189
30.90833,190
30.91667,191
30.92500,193
30.93333,194
30.94167,196
30.95000,197
30.95833,198
30.96667,199
30.97500,200
30.98333,201
30.99167,202
31.00000,202
31.00833,203
31.01667,204
31.02500,204
31.03333,205
31.04167,205
31.05000,206
31.05833,206
31.06667,207
31.07500,207
31.08333,207
31.09167,207
31.10000,208
31.10833,208
31.11667,208
31.12500,209
31.13333,208
31.14167,208
31.15000,207
31.15833,207
31.16667,207
31.17500,207
31.18333,206
31.19167,206
31.20000,206
31.20833,206
31.21667,205
31.22500,204
31.23333,203
31.24167,202
31.25000,201
31.25833,200
31.26667,199
31.27500,198
31.28333,197
31.29167,196
31.30000,196
31.30833,195
31.31667,194
31.32500,193
31.33333,192
31.34167,190
31.35000,189
31.35833,187
31.36667,186
31.37500,185
31.38333,183
31.39167,182
31.40000,180
31.40833,179
31.41667,178
31.42500,176
31.43333,175
31.44167,174
31.45000,172
31.45833,171
31.46667,170
31.47500,168
31.48333,167
31.49167,165
31.50000,164
31.50833,163
31.51667,162
31.52500,160
31.53333,159
31.54167,157
31.55000,156
31.55833,155
31.56667,154
31.57500,153
31.58333,152
31.59167,151
31.60000,151
31.60833,150
31.61667,149
31.62500,148
31.63333,147
31.64167,147
31.65000,146
31.65833,146
31.66667,146
31.67500,146
31.68333,146
31.69167,147
31.70000,147
31.70833,148
31.71667,149
31.72500,150
31.73333,152
31.74167,153
31.75000,155
31.75833,157
31.76667,159
31.77500,161
31.78333,163
31.79167,166
31.80000,169
31.80833,172
31.81667,176
31.82500,179
31.83333,182
31.84167,186
31.85000,190
31.85833,194
31.86667,199
31.87500,203
31.88333,208
31.89167,213
31.90000,218
31.90833,223
31.91667,228
31.92500,234
31.93333,240
31.94167,246
31.95000,252
31.95833,259
31.96667,265
31.97500,271
31.98333,277
31.99167,283
32.00000,290
32.00833,296
32.01667,303
32.02500,309
32.03333,315
32.04167,322
32.05000,329
32.05833,337
32.06667,343
32.07500,350
32.08333,357
32.09167,363
32.10000,370
32.10833,376
32.11667,382
32.12500,389
32.13333,395
32.14167,401
32.15000,407
32.15833,413
32.16667,419
32.17500,424
32.18333,430
32.19167,435
32.20000,441
32.20833,446
32.21667,452
32.22500,457
32.23333,462
32.24167,467
32.25000,471
32.25833,476
32.26667,480
32.27500,484
32.28333,488
32.29167,492
32.30000,496
32.30833,500
32.31667,504
32.32500,508
32.33333,511
32.34167,514
32.35000,517
32.35833,520
32.36667,523
32.37500,525
32.38333,528
32.39167,530
32.40000,533
32.40833,535
32.41667,537
32.42500,538
32.43333,540
32.44167,541
32.45000,543
32.45833,544
32.46667,546
32.47500,547
32.48333,548
32.49167,548
32.50000,548
32.50833,549
32.51667,548
32.52500,547
32.53333,547
32.54167,547
32.55000,546
32.55833,546
32.56667,545
32.57500,544
32.58333,543
32.59167,541
32.60000,540
32.60833,538
32.61667,536
32.62500,534
32.63333,532
32.64167,529
32.65000,526
32.65833,523
32.66667,520
32.67500,517
32.68333,514
32.69167,511
32.70000,509
32.70833,506
32.71667,503
32.72500,499
32.73333,495
32.74167,492
32.75000,488
32.75833,485
32.76667,481
32.77500,477
32.78333,474
32.79167,470
32.80000,467
32.80833,463
32.81667,460
32.82500,457
32.83333,453
32.84167,450
32.85000,447
32.85833,444
32.86667,441
32.87500,438
32.88333,435
32.89167,433
32.90000,430
32.90833,427
32.91667,424
32.92500,421
32.93333,419
32.94167,417
32.95000,415
32.95833,413
32.96667,411
32.97500,409
32.98333,408
32.99167,406
33.00000,404
33.00833,403
33.01667,402
33.02500,400
33.03333,399
33.04167,398
33.05000,396
33.05833,395
33.06667,394
33.07500,393
33.08333,391
33.09167,391
33.10000,390
33.10833,389
33.11667,388
33.12500,387
33.13333,386
33.14167,385
33.15000,384
33.15833,383
33.16667,382
33.17500,381
33.18333,380
33.19167,379
33.20000,378
33.20833,377
33.21667,376
33.22500,374
33.23333,373
33.24167,372
33.25000,371
33.25833,370
33.26667,368
33.27500,367
33.28333,365
33.29167,363
33.30000,362
33.30833,360
33.31667,358
33.32500,356
33.33333,354
33.34167,352
33.35000,350
33.35833,347
33.36667,345
33.37500,342
33.38333,340
33.39167,338
33.40000,336
33.40833,334
33.41667,331
33.42500,328
33.43333,325
33.44167,322
33.45000,319
33.45833,315
33.46667,312
33.47500,309
33.48333,306
33.49167,303
33.50000,299
33.50833,296
33.51667,293
33.52500,290
33.53333,286
33.54167,282
33.55000,278
33.55833,275
33.56667,271
33.57500,267
33.58333,263
33.59167,260
33.60000,255
33.60833,252
33.61667,248
33.62500,244
33.63333,240
33.64167,236
33.65000,232
33.65833,228
33.66667,224
33.67500,220
33.68333,216
33.69167,212
33.70000,208
33.70833,204
33.71667,200
33.72500,196
33.73333,192
33.74167,188
33.75000,184
33.75833,181
33.76667,177
33.77500,173
33.78333,169
33.79167,165
33.80000,161
33.80833,157
33.81667,154
33.82500,150
33.83333,147
33.84167,143
33.85000,140
33.85833,136
33.86667,133
33.87500,129
33.88333,126
33.89167,122
33.90000,119
33.90833,116
33.91667,113
33.92500,110
33.93333,107
33.94167,104
33.95000,101
33.95833,98
33.96667,96
33.97500,93
33.98333,91
33.99167,89
34.00000,86
34.00833,84
34.01667,81
34.02500,79
34.03333,77
34.04167,74
34.05000,72
34.05833,70
34.06667,68
34.07500,67
34.08333,65
34.09167,63
34.10000,61
34.10833,60
34.11667,58
34.12500,57
34.13333,55
34.14167,54
34.15000,53
34.15833,51
34.16667,50
34.17500,49
34.18333,48
34.19167,47
34.20000,45
34.20833,44
34.21667,44
34.22500,43
34.23333,42
34.24167,41
34.25000,41
34.25833,40
34.26667,38
34.27500,37
34.28333,37
34.29167,36
34.30000,35
34.30833,35
34.31667,34
34.32500,34
34.33333,34
34.34167,34
34.35000,33
34.35833,33
34.36667,33
34.37500,32
34.38333,32
34.39167,31
34.40000,30
34.40833,29
34.41667,29
34.42500,28
34.43333,28
34.44167,28
34.45000,28
34.45833,27
34.46667,26
34.47500,25
34.48333,25
34.49167,25
34.50000,24
34.50833,24
34.51667,23
34.52500,23
34.53333,23
34.54167,22
34.55000,22
34.55833,22
34.56667,21
34.57500,21
34.58333,20
34.59167,20
34.60000,20
34.60833,20
34.61667,19
34.62500,19
34.63333,18
34.64167,18
34.65000,18
34.65833,18
34.66667,18
34.67500,18
34.68333,17
34.69167,17
34.70000,17
34.70833,16
34.71667,16
34.72500,16
34.73333,16
34.74167,16
34.75000,16
34.75833,15
34.76667,15
34.77500,15
34.78333,15
34.79167,15
34.80000,15
34.80833,14
34.81667,14
34.82500,13
34.83333,13
34.84167,12
34.85000,12
34.85833,12
34.86667,12
34.87500,12
34.88333,12
34.89167,11
34.90000,11
34.90833,11
34.91667,11
34.92500,11
34.93333,11
34.94167,11
34.95000,10
34.95833,10
34.96667,10
34.97500,10
34.98333,10
34.99167,9
35.00000,9
35.00833,9
35.01667,9
35.02500,9
35.03333,8
35.04167,9
35.05000,9
35.05833,9
35.06667,10
35.07500,10
35.08333,10
35.09167,10
35.10000,10
35.10833,10
35.11667,10
35.12500,10
35.13333,11
35.14167,11
35.15000,11
35.15833,11
35.16667,11
35.17500,11
35.18333,11
35.19167,12
35.20000,13
35.20833,13
35.21667,14
35.22500,14
35.23333,14
35.24167,15
35.25000,15
35.25833,15
35.26667,15
35.27500,16
35.28333,16
35.29167,16
35.30000,17
35.30833,18
35.31667,18
35.32500,19
35.33333,20
35.34167,20
35.35000,21
35.35833,22
35.36667,22
35.37500,23
35.38333,24
35.39167,24
35.40000,25
35.40833,25
35.41667,26
35.42500,26
35.43333,26
35.44167,27
35.45000,27
35.45833,28
35.46667,28
35.47500,29
35.48333,30
35.49167,30
35.50000,31
35.50833,31
35.51667,32
35.52500,33
35.53333,34
35.54167,34
35.55000,35
35.55833,36
35.56667,36
35.57500,37
35.58333,37
35.59167,38
35.60000,38
35.60833,39
35.61667,39
35.62500,39
35.63333,40
35.64167,41
35.65000,42
35.65833,42
35.66667,43
35.67500,43
35.68333,43
35.69167,44
35.70000,45
35.70833,45
35.71667,45
35.72500,46
35.73333,46
35.74167,46
35.75000,46
35.75833,47
35.76667,47
35.77500,48
35.78333,48
35.79167,49
35.80000,49
35.80833,50
35.81667,50
35.82500,50
35.83333,51
35.84167,51
35.85000,51
35.85833,51
35.86667,52
35.87500,52
35.88333,52
35.89167,52
35.90000,53
35.90833,53
35.91667,53
35.92500,53
35.93333,53
35.94167,54
35.95000,54
35.95833,55
35.96667,55
35.97500,55
35.98333,55
35.99167,55
36.00000,55
36.00833,55
36.01667,55
36.02500,55
36.03333,56
36.04167,56
36.05000,56
36.05833,56
36.06667,56
36.07500,56
36.08333,56
36.09167,56
36.10000,56
36.10833,56
36.11667,56
36.12500,55
36.13333,55
36.14167,55
36.15000,55
36.15833,55
36.16667,55
36.17500,55
36.18333,55
36.19167,55
36.20000,54
36.20833,54
36.21667,54
36.22500,55
36.23333,54
36.24167,54
36.25000,54
36.25833,53
36.26667,53
36.27500,53
36.28333,53
36.29167,53
36.30000,53
36.30833,53
36.31667,52
36.32500,52
36.33333,52
36.34167,52
36.35000,51
36.35833,51
36.36667,51
36.37500,51
36.38333,50
36.39167,50
36.40000,50
36.40833,50
36.41667,50
36.42500,50
36.43333,50
36.44167,49
36.45000,49
36.45833,49
36.46667,48
36.47500,48
36.48333,48
36.49167,48
36.50000,48
36.50833,48
36.51667,48
36.52500,48
36.53333,48
36.54167,48
36.55000,48
36.55833,48
36.56667,47
36.57500,47
36.58333,47
36.59167,47
36.60000,47
36.60833,47
36.61667,47
36.62500,47
36.63333,47
36.64167,47
36.65000,47
36.65833,47
36.66667,47
36.67500,47
36.68333,48
36.69167,48
36.70000,48
36.70833,49
36.71667,49
36.72500,49
36.73333,49
36.74167,49
36.75000,49
36.75833,50
36.76667,50
36.77500,50
36.78333,50
36.79167,50
36.80000,50
36.80833,51
36.81667,51
36.82500,52
36.83333,52
36.84167,53
36.85000,53
36.85833,54
36.86667,54
36.87500,54
36.88333,55
36.89167,55
36.90000,55
36.90833,56
36.91667,56
36.92500,57
36.93333,58
36.94167,58
36.95000,58
36.95833,58
36.96667,59
36.97500,59
36.98333,60
36.99167,61
37.00000,62
37.00833,63
37.01667,63
37.02500,64
37.03333,64
37.04167,65
37.05000,66
37.05833,66
37.06667,67
37.07500,68
37.08333,69
37.09167,70
37.10000,71
37.10833,71
37.11667,72
37.12500,73
37.13333,73
37.14167,74
37.15000,75
37.15833,76
37.16667,76
37.17500,77
37.18333,78
37.19167,78
37.20000,79
37.20833,80
37.21667,81
37.22500,82
37.23333,83
37.24167,84
37.25000,85
37.25833,86
37.26667,87
37.27500,87
37.28333,88
37.29167,89
37.30000,90
37.30833,91
37.31667,91
37.32500,92
37.33333,93
37.34167,94
37.35000,95
37.35833,96
37.36667,96
37.37500,97
37.38333,98
37.39167,99
37.40000,100
37.40833,101
37.41667,102
37.42500,103
37.43333,104
37.44167,105
37.45000,106
37.45833,107
37.46667,108
37.47500,109
37.48333,110
37.49167,111
37.50000,112
37.50833,113
37.51667,113
37.52500,114
37.53333,115
37.54167,116
37.55000,117
37.55833,118
37.56667,118
37.57500,119
37.58333,120
37.59167,120
37.60000,121
37.60833,122
37.61667,123
37.62500,124
37.63333,124
37.64167,125
37.65000,125
37.65833,126
37.66667,126
37.67500,127
37.68333,127
37.69167,128
37.70000,128
37.70833,129
37.71667,129
37.72500,130
37.73333,130
37.74167,130
37.75000,131
37.75833,131
37.76667,131
37.77500,132
37.78333,132
37.79167,132
37.80000,132
37.80833,133
37.81667,133
37.82500,133
37.83333,133
37.84167,132
37.85000,132
37.85833,132
37.86667,132
37.87500,132
37.88333,132
37.89167,132
37.90000,131
37.90833,131
37.91667,131
37.92500,130
37.93333,130
37.94167,129
37.95000,129
37.95833,128
37.96667,128
37.97500,128
37.98333,127
37.99167,127
38.00000,126
38.00833,125
38.01667,124
38.02500,123
38.03333,122
38.04167,122
38.05000,121
38.05833,120
38.06667,120
38.07500,119
38.08333,118
38.09167,117
38.10000,116
38.10833,116
38.11667,115
38.12500,114
38.13333,113
38.14167,113
38.15000,112
38.15833,111
38.16667,110
38.17500,109
38.18333,108
38.19167,107
38.20000,106
38.20833,104
38.21667,103
38.22500,102
38.23333,101
38.24167,101
38.25000,100
38.25833,99
38.26667,97
38.27500,96
38.28333,95
38.29167,94
38.30000,92
38.30833,91
38.31667,90
38.32500,88
38.33333,87
38.34167,86
38.35000,85
38.35833,84
38.36667,83
38.37500,81
38.38333,79
38.39167,78
38.40000,77
38.40833,75
38.41667,74
38.42500,73
38.43333,72
38.44167,71
38.45000,70
38.45833,69
38.46667,67
38.47500,66
38.48333,65
38.49167,63
38.50000,62
38.50833,61
38.51667,59
38.52500,58
38.53333,56
38.54167,55
38.55000,53
38.55833,51
38.56667,50
38.57500,49
38.58333,48
38.59167,47
38.60000,45
38.60833,44
38.61667,43
38.62500,42
38.63333,41
38.64167,40
38.65000,39
38.65833,38
38.66667,37
38.67500,36
38.68333,34
38.69167,33
38.70000,32
38.70833,31
38.71667,30
38.72500,29
38.73333,27
38.74167,26
38.75000,25
38.75833,25
38.76667,24
38.77500,23
38.78333,22
38.79167,21
38.80000,20
38.80833,19
38.81667,18
38.82500,17
38.83333,16
38.84167,15
38.85000,14
38.85833,14
38.86667,13
38.87500,12
38.88333,12
38.89167,12
38.90000,11
38.90833,11
38.91667,10
38.92500,10
38.93333,9
38.94167,8
38.95000,8
38.95833,7
38.96667,7
38.97500,7
38.98333,7
38.99167,6
39.00000,6
39.00833,6
39.01667,5
39.02500,5
39.03333,4
39.04167,4
39.05000,3
39.05833,3
39.06667,3
39.07500,3
39.08333,2
39.09167,2
39.10000,1
39.10833,1
39.11667,1
39.12500,1
39.13333,0
39.14167,-1
39.15000,-1
39.15833,-1
39.16667,-1
39.17500,-1
39.18333,-1
39.19167,-1
39.20000,-1
39.20833,-2
39.21667,-2
39.22500,-2
39.23333,-2
39.24167,-2
39.25000,-2
39.25833,-2
39.26667,-2
39.27500,-2
39.28333,-2
39.29167,-2
39.30000,-2
39.30833,-3
39.31667,-3
39.32500,-2
39.33333,-3
39.34167,-3
39.35000,-3
39.35833,-3
39.36667,-3
39.37500,-3
39.38333,-3
39.39167,-3
39.40000,-3
39.40833,-3
39.41667,-3
39.42500,-3
39.43333,-3
39.44167,-3
39.45000,-3
39.45833,-2
39.46667,-2
39.47500,-3
39.48333,-3
39.49167,-3
39.50000,-3
39.50833,-3
39.51667,-3
39.52500,-3
39.53333,-3
39.54167,-3
39.55000,-3
39.55833,-3
39.56667,-3
39.57500,-4
39.58333,-4
39.59167,-4
39.60000,-5
39.60833,-5
39.61667,-5
39.62500,-5
39.63333,-5
39.64167,-5
39.65000,-5
39.65833,-4
39.66667,-4
39.67500,-4
39.68333,-4
39.69167,-4
39.70000,-5
39.70833,-5
39.71667,-5
39.72500,-5
39.73333,-5
39.74167,-5
39.75000,-5
39.75833,-5
39.76667,-5
39.77500,-4
39.78333,-4
39.79167,-4
39.80000,-4
39.80833,-4
39.81667,-4
39.82500,-4
39.83333,-4
39.84167,-5
39.85000,-5
39.85833,-5
39.86667,-5
39.87500,-5
39.88333,-5
39.89167,-5
39.90000,-6
39.90833,-6
39.91667,-6
39.92500,-5
39.93333,-5
39.94167,-5
39.95000,-4
39.95833,-4
39.96667,-4
39.97500,-4
39.98333,-4
39.99167,-4
40.00000,-5
40.00833,-5
40.01667,-5
40.02500,-6
40.03333,-5
40.04167,-5
40.05000,-5
40.05833,-5
40.06667,-5
40.07500,-5
40.08333,-5
40.09167,-5
40.10000,-5
40.10833,-4
40.11667,-4
40.12500,-4
40.13333,-4
40.14167,-4
40.15000,-4
40.15833,-5
40.16667,-5
40.17500,-4
40.18333,-4
40.19167,-4
40.20000,-4
40.20833,-5
40.21667,-5
40.22500,-4
40.23333,-4
40.24167,-4
40.25000,-4
40.25833,-4
40.26667,-4
40.27500,-3
40.28333,-3
40.29167,-3
40.30000,-3
40.30833,-3
40.31667,-3
40.32500,-2
40.33333,-2
40.34167,-2
40.35000,-1
40.35833,-1
40.36667,-1
40.37500,-1
40.38333,-0
40.39167,0
40.40000,0
40.40833,1
40.41667,1
40.42500,2
40.43333,3
40.44167,3
40.45000,4
40.45833,4
40.46667,4
40.47500,5
40.48333,6
40.49167,6
40.50000,7
40.50833,7
40.51667,8
40.52500,9
40.53333,10
40.54167,11
40.55000,12
40.55833,13
40.56667,14
40.57500,15
40.58333,16
40.59167,17
40.60000,18
40.60833,18
40.61667,19
40.62500,20
40.63333,21
40.64167,22
40.65000,23
40.65833,25
40.66667,26
40.67500,28
40.68333,29
40.69167,30
40.70000,31
40.70833,33
40.71667,34
40.72500,36
40.73333,38
40.74167,39
40.75000,41
40.75833,42
40.76667,44
40.77500,45
40.78333,47
40.79167,49
40.80000,51
40.80833,53
40.81667,55
40.82500,57
40.83333,58
40.84167,60
40.85000,62
40.85833,64
40.86667,66
40.87500,68
40.88333,70
40.89167,72
40.90000,73
40.90833,75
40.91667,77
40.92500,80
40.93333,82
40.94167,84
40.95000,86
40.95833,88
40.96667,90
40.97500,92
40.98333,93
40.99167,95
41.00000,97
41.00833,99
41.01667,101
41.02500,103
41.03333,105
41.04167,107
41.05000,109
41.05833,111
41.06667,113
41.07500,115
41.08333,117
41.09167,118
41.10000,120
41.10833,122
41.11667,124
41.12500,127
41.13333,129
41.14167,130
41.15000,133
41.15833,135
41.16667,137
41.17500,138
41.18333,140
41.19167,142
41.20000,144
41.20833,146
41.21667,148
41.22500,150
41.23333,152
41.24167,153
41.25000,155
41.25833,156
41.26667,158
41.27500,160
41.28333,161
41.29167,163
41.30000,165
41.30833,167
41.31667,168
41.32500,170
41.33333,172
41.34167,173
41.35000,174
41.35833,176
41.36667,177
41.37500,178
41.38333,180
41.39167,181
41.40000,183
41.40833,184
41.41667,186
41.42500,187
41.43333,189
41.44167,190
41.45000,191
41.45833,193
41.46667,194
41.47500,195
41.48333,196
41.49167,197
41.50000,198
41.50833,199
41.51667,200
41.52500,202
41.53333,203
41.54167,204
41.55000,205
41.55833,206
41.56667,207
41.57500,208
41.58333,208
41.59167,209
41.60000,210
41.60833,211
41.61667,212
41.62500,213
41.63333,214
41.64167,215
41.65000,216
41.65833,216
41.66667,216
41.67500,217
41.68333,217
41.69167,218
41.70000,219
41.70833,219
41.71667,219
41.72500,219
41.73333,219
41.74167,219
41.75000,220
41.75833,220
41.76667,220
41.77500,220
41.78333,220
41.79167,220
41.80000,221
41.80833,221
41.81667,221
41.82500,221
41.83333,221
41.84167,221
41.85000,221
41.85833,220
41.86667,220
41.87500,220
41.88333,219
41.89167,219
41.90000,218
41.90833,218
41.91667,217
41.92500,217
41.93333,217
41.94167,217
41.95000,216
41.95833,216
41.96667,215
41.97500,215
41.98333,214
41.99167,213
42.00000,213
42.00833,213
42.01667,212
42.02500,211
42.03333,210
42.04167,210
42.05000,209
42.05833,209
42.06667,208
42.07500,207
42.08333,207
42.09167,207
42.10000,206
42.10833,206
42.11667,206
42.12500,205
42.13333,204
42.14167,203
42.15000,202
42.15833,202
42.16667,201
42.17500,200
42.18333,199
42.19167,199
42.20000,198
42.20833,198
42.21667,197
42.22500,197
42.23333,196
42.24167,195
42.25000,194
42.25833,193
42.26667,193
42.27500,192
42.28333,191
42.29167,191
42.30000,190
42.30833,190
42.31667,189
42.32500,188
42.33333,188
42.34167,187
42.35000,187
42.35833,187
42.36667,186
42.37500,185
42.38333,184
42.39167,183
42.40000,183
42.40833,182
42.41667,181
42.42500,181
42.43333,180
42.44167,179
42.45000,179
42.45833,178
42.46667,177
42.47500,176
42.48333,176
42.49167,175
42.50000,174
42.50833,173
42.51667,172
42.52500,172
42.53333,171
42.54167,171
42.55000,170
42.55833,170
42.56667,169
42.57500,168
42.58333,168
42.59167,167
42.60000,166
42.60833,165
42.61667,164
42.62500,164
42.63333,163
42.64167,162
42.65000,162
42.65833,161
42.66667,160
42.67500,160
42.68333,159
42.69167,158
42.70000,157
42.70833,156
42.71667,155
42.72500,155
42.73333,154
42.74167,153
42.75000,153
42.75833,152
42.76667,151
42.77500,150
42.78333,150
42.79167,149
42.80000,148
42.80833,147
42.81667,146
42.82500,146
42.83333,145
42.84167,144
42.85000,143
42.85833,142
42.86667,142
42.87500,141
42.88333,140
42.89167,139
42.90000,139
42.90833,137
42.91667,136
42.92500,135
42.93333,134
42.94167,133
42.95000,132
42.95833,132
42.96667,131
42.97500,131
42.98333,130
42.99167,129
43.00000,128
43.00833,127
43.01667,127
43.02500,126
43.03333,125
43.04167,124
43.05000,123
43.05833,122
43.06667,121
43.07500,120
43.08333,119
43.09167,119
43.10000,118
43.10833,117
43.11667,116
43.12500,115
43.13333,114
43.14167,114
43.15000,113
43.15833,112
43.16667,112
43.17500,111
43.18333,110
43.19167,109
43.20000,108
43.20833,107
43.21667,106
43.22500,105
43.23333,105
43.24167,104
43.25000,102
43.25833,102
43.26667,101
43.27500,100
43.28333,100
43.29167,99
43.30000,98
43.30833,97
43.31667,96
43.32500,96
43.33333,95
43.34167,94
43.35000,94
43.35833,93
43.36667,91
43.37500,90
43.38333,90
43.39167,89
43.40000,89
43.40833,88
43.41667,87
43.42500,87
43.43333,86
43.44167,86
43.45000,84
43.45833,83
43.46667,82
43.47500,82
43.48333,81
43.49167,80
43.50000,79
43.50833,78
43.51667,77
43.52500,76
43.53333,75
43.54167,75
43.55000,74
43.55833,74
43.56667,73
43.57500,73
43.58333,72
43.59167,71
43.60000,70
43.60833,69
43.61667,68
43.62500,67
43.63333,66
43.64167,65
43.65000,65
43.65833,64
43.66667,63
43.67500,63
43.68333,62
43.69167,62
43.70000,61
43.70833,60
43.71667,59
43.72500,58
43.73333,57
43.74167,57
43.75000,56
43.75833,56
43.76667,55
43.77500,54
43.78333,54
43.79167,53
43.80000,53
43.80833,52
43.81667,51
43.82500,50
43.83333,49
43.84167,48
43.85000,47
43.85833,46
43.86667,45
43.87500,45
43.88333,44
43.89167,42
43.90000,42
43.90833,41
43.91667,41
43.92500,41
43.93333,40
43.94167,40
43.95000,39
43.95833,38
43.96667,38
43.97500,37
43.98333,37
43.99167,36
44.00000,35
44.00833,35
44.01667,34
44.02500,33
44.03333,33
44.04167,32
44.05000,31
44.05833,31
44.06667,30
44.07500,30
44.08333,29
44.09167,29
44.10000,29
44.10833,28
44.11667,28
44.12500,27
44.13333,26
44.14167,26
44.15000,25
44.15833,25
44.16667,24
44.17500,23
44.18333,23
44.19167,22
44.20000,22
44.20833,21
44.21667,21
44.22500,21
44.23333,20
44.24167,20
44.25000,19
44.25833,18
44.26667,17
44.27500,16
44.28333,16
44.29167,15
44.30000,15
44.30833,14
44.31667,14
44.32500,13
44.33333,13
44.34167,13
44.35000,13
44.35833,12
44.36667,12
44.37500,11
44.38333,11
44.39167,10
44.40000,10
44.40833,10
44.41667,10
44.42500,9
44.43333,9
44.44167,9
44.45000,8
44.45833,8
44.46667,7
44.47500,7
44.48333,7
44.49167,6
44.50000,6
44.50833,6
44.51667,5
44.52500,5
44.53333,5
44.54167,4
44.55000,4
44.55833,3
44.56667,3
44.57500,3
44.58333,2
44.59167,2
44.60000,1
44.60833,1
44.61667,0
44.62500,-0
44.63333,-1
44.64167,-1
44.65000,-1
44.65833,-1
44.66667,-2
44.67500,-2
44.68333,-2
44.69167,-3
44.70000,-3
44.70833,-3
44.71667,-3
44.72500,-3
44.73333,-3
44.74167,-3
44.75000,-4
44.75833,-4
44.76667,-4
44.77500,-4
44.78333,-4
44.79167,-4
44.80000,-4
44.80833,-5
44.81667,-5
44.82500,-5
44.83333,-5
44.84167,-5
44.85000,-6
44.85833,-6
44.86667,-6
44.87500,-7
44.88333,-7
44.89167,-7
44.90000,-7
44.90833,-8
44.91667,-8
44.92500,-8
44.93333,-8
44.94167,-8
44.95000,-8
44.95833,-8
44.96667,-8
44.97500,-8
44.98333,-9
44.99167,-9
45.00000,-9
45.00833,-9
45.01667,-9
45.02500,-9
45.03333,-9
45.04167,-9
45.05000,-9
45.05833,-10
45.06667,-10
45.07500,-10
45.08333,-10
45.09167,-10
45.10000,-10
45.10833,-10
45.11667,-10
45.12500,-10
45.13333,-10
45.14167,-10
45.15000,-10
45.15833,-10
45.16667,-11
45.17500,-11
45.18333,-11
45.19167,-11
45.20000,-12
45.20833,-12
45.21667,-12
45.22500,-12
45.23333,-12
45.24167,-12
45.25000,-12
45.25833,-12
45.26667,-12
45.27500,-12
45.28333,-12
45.29167,-11
45.30000,-11
45.30833,-12
45.31667,-12
45.32500,-12
45.33333,-11
45.34167,-11
45.35000,-11
45.35833,-11
45.36667,-11
45.37500,-12
45.38333,-12
45.39167,-12
45.40000,-12
45.40833,-12
45.41667,-12
45.42500,-12
45.43333,-12
45.44167,-12
45.45000,-12
45.45833,-12
45.46667,-12
45.47500,-12
45.48333,-12
45.49167,-12
45.50000,-12
45.50833,-12
45.51667,-12
45.52500,-12
45.53333,-12
45.54167,-12
45.55000,-12
45.55833,-11
45.56667,-11
45.57500,-11
45.58333,-11
45.59167,-11
45.60000,-12
45.60833,-12
45.61667,-12
45.62500,-12
45.63333,-13
45.64167,-13
45.65000,-14
45.65833,-14
45.66667,-14
45.67500,-14
45.68333,-14
45.69167,-14
45.70000,-14
45.70833,-14
45.71667,-13
45.72500,-13
45.73333,-13
45.74167,-14
45.75000,-14
45.75833,-15
45.76667,-15
45.77500,-15
45.78333,-15
45.79167,-15
45.80000,-15
45.80833,-15
45.81667,-15
45.82500,-14
45.83333,-14
45.84167,-14
45.85000,-15
45.85833,-15
45.86667,-15
45.87500,-15
45.88333,-16
45.89167,-15
45.90000,-16
45.90833,-16
45.91667,-16
45.92500,-16
45.93333,-16
45.94167,-16
45.95000,-16
45.95833,-16
45.96667,-16
45.97500,-17
45.98333,-17
45.99167,-17
46.00000,-17
46.00833,-18
46.01667,-18
46.02500,-18
46.03333,-19
46.04167,-19
46.05000,-19
46.05833,-20
46.06667,-20
46.07500,-20
46.08333,-20
46.09167,-20
46.10000,-20
46.10833,-21
46.11667,-21
46.12500,-21
46.13333,-21
46.14167,-21
46.15000,-21
46.15833,-21
46.16667,-21
46.17500,-21
46.18333,-21
46.19167,-22
46.20000,-22
46.20833,-22
46.21667,-22
46.22500,-22
46.23333,-22
46.24167,-23
46.25000,-23
46.25833,-24
46.26667,-24
46.27500,-25
46.28333,-25
46.29167,-26
46.30000,-26
46.30833,-26
46.31667,-26
46.32500,-26
46.33333,-26
46.34167,-26
46.35000,-26
46.35833,-27
46.36667,-27
46.37500,-27
46.38333,-28
46.39167,-28
46.40000,-29
46.40833,-29
46.41667,-29
46.42500,-29
46.43333,-29
46.44167,-29
46.45000,-30
46.45833,-30
46.46667,-30
46.47500,-30
46.48333,-31
46.49167,-31
46.50000,-31
46.50833,-31
46.51667,-32
46.52500,-32
46.53333,-33
46.54167,-34
46.55000,-34
46.55833,-34
46.56667,-35
46.57500,-35
46.58333,-35
46.59167,-35
46.60000,-35
46.60833,-35
46.61667,-35
46.62500,-36
46.63333,-35
46.64167,-35
46.65000,-36
46.65833,-36
46.66667,-36
46.67500,-37
46.68333,-37
46.69167,-37
46.70000,-37
46.70833,-38
46.71667,-38
46.72500,-38
46.73333,-38
46.74167,-38
46.75000,-38
46.75833,-39
46.76667,-39
46.77500,-39
46.78333,-39
46.79167,-39
46.80000,-39
46.80833,-39
46.81667,-39
46.82500,-40
46.83333,-40
46.84167,-40
46.85000,-40
46.85833,-40
46.86667,-40
46.87500,-40
46.88333,-40
46.89167,-40
46.90000,-40
46.90833,-40
46.91667,-40
46.92500,-40
46.93333,-41
46.94167,-41
46.95000,-41
46.95833,-41
46.96667,-41
46.97500,-41
46.98333,-41
46.99167,-41
47.00000,-42
47.00833,-42
47.01667,-41
47.02500,-41
47.03333,-40
47.04167,-40
47.05000,-40
47.05833,-40
47.06667,-41
47.07500,-41
47.08333,-41
47.09167,-42
47.10000,-42
47.10833,-42
47.11667,-41
47.12500,-41
47.13333,-41
47.14167,-40
47.15000,-40
47.15833,-40
47.16667,-40
47.17500,-39
47.18333,-39
47.19167,-39
47.20000,-39
47.20833,-38
47.21667,-38
47.22500,-37
47.23333,-37
47.24167,-36
47.25000,-36
47.25833,-36
47.26667,-36
47.27500,-36
47.28333,-35
47.29167,-35
47.30000,-35
47.30833,-35
47.31667,-34
47.32500,-34
47.33333,-33
47.34167,-33
47.35000,-32
47.35833,-32
47.36667,-31
47.37500,-30
47.38333,-29
47.39167,-29
47.40000,-28
47.40833,-27
47.41667,-26
47.42500,-26
47.43333,-25
47.44167,-25
47.45000,-24
47.45833,-24
47.46667,-23
47.47500,-22
47.48333,-22
47.49167,-21
47.50000,-20
47.50833,-19
47.51667,-18
47.52500,-17
47.53333,-16
47.54167,-16
47.55000,-15
47.55833,-14
47.56667,-14
47.57500,-13
47.58333,-12
47.59167,-11
47.60000,-10
47.60833,-9
47.61667,-9
47.62500,-8
47.63333,-8
47.64167,-7
47.65000,-7
47.65833,-6
47.66667,-6
47.67500,-5
47.68333,-3
47.69167,-2
47.70000,-1
47.70833,-0
47.71667,1
47.72500,2
47.73333,3
47.74167,4
47.75000,5
47.75833,6
47.76667,7
47.77500,8
47.78333,8
47.79167,9
47.80000,9
47.80833,10
47.81667,11
47.82500,11
47.83333,12
47.84167,13
47.85000,13
47.85833,14
47.86667,15
47.87500,15
47.88333,16
47.89167,17
47.90000,18
47.90833,19
47.91667,19
47.92500,19
47.93333,20
47.94167,20
47.95000,21
47.95833,21
47.96667,22
47.97500,22
47.98333,23
47.99167,24
48.00000,25
48.00833,25
48.01667,26
48.02500,27
48.03333,27
48.04167,27
48.05000,28
48.05833,29
48.06667,29
48.07500,29
48.08333,29
48.09167,29
48.10000,30
48.10833,30
48.11667,31
48.12500,31
48.13333,32
48.14167,32
48.15000,33
48.15833,33
48.16667,33
48.17500,34
48.18333,34
48.19167,34
48.20000,35
48.20833,35
48.21667,35
48.22500,36
48.23333,36
48.24167,37
48.25000,37
48.25833,37
48.26667,37
48.27500,38
48.28333,38
48.29167,38
48.30000,38
48.30833,38
48.31667,38
48.32500,38
48.33333,38
48.34167,38
48.35000,39
48.35833,39
48.36667,39
48.37500,39
48.38333,39
48.39167,39
48.40000,39
48.40833,39
48.41667,40
48.42500,40
48.43333,40
48.44167,40
48.45000,41
48.45833,41
48.46667,41
48.47500,41
48.48333,41
48.49167,41
48.50000,41
48.50833,41
48.51667,41
48.52500,40
48.53333,40
48.54167,40
48.55000,41
48.55833,41
48.56667,41
48.57500,41
48.58333,41
48.59167,41
48.60000,41
48.60833,41
48.61667,41
48.62500,41
48.63333,41
48.64167,41
48.65000,41
48.65833,42
48.66667,42
48.67500,41
48.68333,42
48.69167,42
48.70000,42
48.70833,42
48.71667,43
48.72500,43
48.73333,43
48.74167,43
48.75000,42
48.75833,42
48.76667,41
48.77500,41
48.78333,41
48.79167,41
48.80000,41
48.80833,41
48.81667,42
48.82500,42
48.83333,42
48.84167,42
48.85000,42
48.85833,42
48.86667,43
48.87500,43
48.88333,43
48.89167,42
48.90000,42
48.90833,42
48.91667,42
48.92500,42
48.93333,42
48.94167,43
48.95000,43
48.95833,43
48.96667,43
48.97500,43
48.98333,43
48.99167,43
49.00000,43
49.00833,43
49.01667,43
49.02500,43
49.03333,43
49.04167,43
49.05000,43
49.05833,43
49.06667,43
49.07500,43
49.08333,43
49.09167,43
49.10000,43
49.10833,43
49.11667,43
49.12500,43
49.13333,44
49.14167,44
49.15000,44
49.15833,44
49.16667,44
49.17500,44
49.18333,44
49.19167,43
49.20000,43
49.20833,43
49.21667,44
49.22500,44
49.23333,44
49.24167,44
49.25000,43
49.25833,43
49.26667,43
49.27500,43
49.28333,42
49.29167,42
49.30000,42
49.30833,42
49.31667,42
49.32500,42
49.33333,41
49.34167,41
49.35000,41
49.35833,42
49.36667,42
49.37500,41
49.38333,41
49.39167,41
49.40000,41
49.40833,42
49.41667,41
49.42500,41
49.43333,40
49.44167,40
49.45000,39
49.45833,39
49.46667,39
49.47500,39
49.48333,39
49.49167,39
49.50000,39
49.50833,38
49.51667,38
49.52500,38
49.53333,38
49.54167,38
49.55000,38
49.55833,37
49.56667,37
49.57500,37
49.58333,36
49.59167,36
49.60000,35
49.60833,35
49.61667,35
49.62500,35
49.63333,34
49.64167,34
49.65000,34
49.65833,34
49.66667,34
49.67500,33
49.68333,33
49.69167,32
49.70000,32
49.70833,31
49.71667,31
49.72500,30
49.73333,30
49.74167,29
49.75000,29
49.75833,28
49.76667,27
49.77500,27
49.78333,26
49.79167,26
49.80000,26
49.80833,26
49.81667,25
49.82500,25
49.83333,24
49.84167,24
49.85000,23
49.85833,22
49.86667,22
49.87500,21
49.88333,20
49.89167,20
49.90000,19
49.90833,18
49.91667,18
49.92500,17
49.93333,16
49.94167,15
49.95000,15
49.95833,14
49.96667,13
49.97500,13
49.98333,12
49.99167,11
50.00000,10

