[Header]
Application Name,LabSolutions
Version,5.97 SP1
Data File Name,C:\Users\cremerlab\Desktop\Richa\Sep_6th_2022_re-run_Sep2nd\Sep 6th_962022_013_014.lcd
Output Date,9/7/2022
Output Time,4:06:20 AM

[File Information]
Type,Data File
Generated,9/7/2022 3:16:02 AM
Generated by,System Administrator
Modified,9/7/2022 4:06:20 AM
Modified by,System Administrator

[Sample Information]
Operator Name,System Administrator
Acquired,9/7/2022 3:16:20 AM
Sample Type,0:Unknown
Level,0
Sample Name,090622_C.aerofaciens_1
Sample ID,013
ISTD Amount1,1
ISTD Amount2,1
ISTD Amount3,1
ISTD Amount4,1
ISTD Amount5,1
ISTD Amount6,1
ISTD Amount7,1
ISTD Amount8,1
ISTD Amount9,1
ISTD Amount10,1
ISTD Amount11,1
ISTD Amount12,1
ISTD Amount13,1
ISTD Amount14,1
ISTD Amount15,1
ISTD Amount16,1
ISTD Amount17,1
ISTD Amount18,1
ISTD Amount19,1
ISTD Amount20,1
ISTD Amount21,1
ISTD Amount22,1
ISTD Amount23,1
ISTD Amount24,1
ISTD Amount25,1
ISTD Amount26,1
ISTD Amount27,1
ISTD Amount28,1
ISTD Amount29,1
ISTD Amount30,1
ISTD Amount31,1
ISTD Amount32,1
Sample Amount,1
Dilution Factor,1
Vial#,13
Injection Volume,20

[Original Files]
Data File,C:\Users\cremerlab\Desktop\Richa\Sep_6th_2022_re-run_Sep2nd\Sep 6th_962022_013_014.lcd
Method File,C:\Users\cremerlab\Desktop\Richa\acetate_excretion.lcm
Batch File,C:\Users\cremerlab\Desktop\Richa\Sep_6th_2022_re-run_Sep2nd\Sep 6th.lcb
Report Format File,c:\LabSolutions\System\DEFAULT.lsr

[File Description]


[Configuration]
Instrument Name,HPLC-PC-Instrument1
Instrument #,1
Line #,1
# of Detectors,2
Detector ID,Detector A,Detector B
Detector Name,Detector A,Detector B
# of Channels,1,1

[Peak Table(Detector A)]
# of Peaks,0

[Peak Table(Detector B)]
# of Peaks,11
Peak#,R.Time,I.Time,F.Time,Area,Height,A/H,Conc.,Mark,ID#,Name,k',Plate #,Plate Ht.,Tailing,Resolution,Sep.Factor,Area Ratio,Height Ratio,Conc. %,Norm Conc.
1,10.475,10.275,10.517,1572,209,7.536,0.000,   ,,,0.000,4251,35.285,0.000,0.000,0.000,0,0,0.000,0.000
2,11.024,10.517,12.325,2267871,115735,19.595,0.000, V ,,,0.052,7505,19.987,0.969,0.953,0.000,0,0,0.000,0.000
3,14.333,12.658,15.183,3573705,76546,46.687,0.000,   ,,,0.368,2486,60.337,0.654,3.990,7.029,0,0,0.000,0.000
4,15.765,15.183,17.358,1437194,49224,29.197,0.000, V ,,,0.505,6927,21.655,1.146,1.501,1.371,0,0,0.000,0.000
5,17.868,17.358,18.400,9486,284,33.347,0.000, V ,,,0.706,6261,23.958,0.000,2.533,1.398,0,0,0.000,0.000
6,19.078,18.425,19.758,13337,311,42.947,0.000,   ,,,0.821,3993,37.568,0.993,1.146,1.164,0,0,0.000,0.000
7,20.299,19.758,20.925,22560,613,36.780,0.000,   ,,,0.938,7056,21.258,0.000,1.123,1.142,0,0,0.000,0.000
8,21.660,20.925,22.592,56708,1132,50.093,0.000, V ,,,1.068,3548,42.281,0.000,1.125,1.139,0,0,0.000,0.000
9,25.086,24.308,26.400,140523,3414,41.155,0.000,   ,,,1.395,9007,16.653,1.152,2.728,1.306,0,0,0.000,0.000
10,29.207,28.333,30.308,127503,2739,46.550,0.000,   ,,,1.788,9226,16.258,1.062,3.625,1.282,0,0,0.000,0.000
11,32.505,31.683,34.442,37812,494,76.552,0.000,   ,,,2.103,646,232.132,1.584,1.042,1.176,0,0,0.000,0.000

[LC Chromatogram(Detector B-Ch1)]
Interval(msec),500
# of Points,6001
Start Time(min),0.000
End Time(min),50.000
Intensity Units,mV
Intensity Multiplier,0.001
R.Time (min),Intensity
0.00000,-20
0.00833,-20
0.01667,-0
0.02500,-1
0.03333,-1
0.04167,-2
0.05000,-3
0.05833,-3
0.06667,-4
0.07500,-4
0.08333,-5
0.09167,-5
0.10000,-6
0.10833,-7
0.11667,-8
0.12500,-9
0.13333,-9
0.14167,-10
0.15000,-10
0.15833,-11
0.16667,-11
0.17500,-12
0.18333,-12
0.19167,-13
0.20000,-13
0.20833,-14
0.21667,-14
0.22500,-14
0.23333,-15
0.24167,-15
0.25000,-16
0.25833,-16
0.26667,-17
0.27500,-17
0.28333,-18
0.29167,-18
0.30000,-18
0.30833,-19
0.31667,-19
0.32500,-20
0.33333,-20
0.34167,-20
0.35000,-20
0.35833,-20
0.36667,-20
0.37500,-21
0.38333,-22
0.39167,-22
0.40000,-22
0.40833,-22
0.41667,-23
0.42500,-23
0.43333,-23
0.44167,-23
0.45000,-23
0.45833,-23
0.46667,-24
0.47500,-24
0.48333,-24
0.49167,-25
0.50000,-25
0.50833,-24
0.51667,-24
0.52500,-25
0.53333,-25
0.54167,-26
0.55000,-26
0.55833,-26
0.56667,-26
0.57500,-27
0.58333,-27
0.59167,-26
0.60000,-26
0.60833,-26
0.61667,-26
0.62500,-26
0.63333,-26
0.64167,-26
0.65000,-26
0.65833,-26
0.66667,-27
0.67500,-27
0.68333,-27
0.69167,-27
0.70000,-28
0.70833,-28
0.71667,-28
0.72500,-28
0.73333,-28
0.74167,-28
0.75000,-28
0.75833,-28
0.76667,-28
0.77500,-29
0.78333,-29
0.79167,-28
0.80000,-28
0.80833,-28
0.81667,-28
0.82500,-28
0.83333,-28
0.84167,-28
0.85000,-28
0.85833,-28
0.86667,-28
0.87500,-28
0.88333,-28
0.89167,-28
0.90000,-28
0.90833,-29
0.91667,-29
0.92500,-28
0.93333,-28
0.94167,-28
0.95000,-28
0.95833,-27
0.96667,-27
0.97500,-27
0.98333,-27
0.99167,-27
1.00000,-27
1.00833,-26
1.01667,-26
1.02500,-26
1.03333,-25
1.04167,-25
1.05000,-25
1.05833,-25
1.06667,-24
1.07500,-24
1.08333,-24
1.09167,-24
1.10000,-24
1.10833,-24
1.11667,-24
1.12500,-23
1.13333,-23
1.14167,-23
1.15000,-22
1.15833,-22
1.16667,-22
1.17500,-22
1.18333,-22
1.19167,-22
1.20000,-23
1.20833,-23
1.21667,-23
1.22500,-23
1.23333,-23
1.24167,-23
1.25000,-23
1.25833,-22
1.26667,-22
1.27500,-22
1.28333,-22
1.29167,-21
1.30000,-21
1.30833,-20
1.31667,-20
1.32500,-20
1.33333,-20
1.34167,-20
1.35000,-20
1.35833,-19
1.36667,-19
1.37500,-19
1.38333,-19
1.39167,-19
1.40000,-18
1.40833,-18
1.41667,-18
1.42500,-18
1.43333,-17
1.44167,-17
1.45000,-17
1.45833,-16
1.46667,-16
1.47500,-16
1.48333,-16
1.49167,-17
1.50000,-17
1.50833,-17
1.51667,-16
1.52500,-16
1.53333,-16
1.54167,-16
1.55000,-16
1.55833,-16
1.56667,-16
1.57500,-16
1.58333,-17
1.59167,-16
1.60000,-16
1.60833,-15
1.61667,-15
1.62500,-15
1.63333,-15
1.64167,-14
1.65000,-14
1.65833,-14
1.66667,-13
1.67500,-13
1.68333,-13
1.69167,-13
1.70000,-13
1.70833,-13
1.71667,-12
1.72500,-12
1.73333,-12
1.74167,-12
1.75000,-12
1.75833,-12
1.76667,-12
1.77500,-12
1.78333,-12
1.79167,-12
1.80000,-12
1.80833,-12
1.81667,-12
1.82500,-11
1.83333,-11
1.84167,-12
1.85000,-12
1.85833,-11
1.86667,-11
1.87500,-11
1.88333,-11
1.89167,-11
1.90000,-11
1.90833,-11
1.91667,-12
1.92500,-12
1.93333,-12
1.94167,-11
1.95000,-11
1.95833,-11
1.96667,-11
1.97500,-11
1.98333,-12
1.99167,-11
2.00000,-11
2.00833,-11
2.01667,-11
2.02500,-11
2.03333,-10
2.04167,-10
2.05000,-10
2.05833,-10
2.06667,-10
2.07500,-10
2.08333,-10
2.09167,-10
2.10000,-10
2.10833,-10
2.11667,-10
2.12500,-10
2.13333,-10
2.14167,-10
2.15000,-9
2.15833,-9
2.16667,-9
2.17500,-9
2.18333,-10
2.19167,-10
2.20000,-10
2.20833,-10
2.21667,-10
2.22500,-10
2.23333,-10
2.24167,-10
2.25000,-10
2.25833,-11
2.26667,-11
2.27500,-11
2.28333,-11
2.29167,-11
2.30000,-11
2.30833,-11
2.31667,-11
2.32500,-11
2.33333,-11
2.34167,-11
2.35000,-11
2.35833,-11
2.36667,-11
2.37500,-11
2.38333,-11
2.39167,-11
2.40000,-11
2.40833,-12
2.41667,-12
2.42500,-12
2.43333,-12
2.44167,-12
2.45000,-12
2.45833,-12
2.46667,-12
2.47500,-12
2.48333,-11
2.49167,-11
2.50000,-11
2.50833,-11
2.51667,-11
2.52500,-11
2.53333,-11
2.54167,-11
2.55000,-11
2.55833,-12
2.56667,-12
2.57500,-13
2.58333,-13
2.59167,-13
2.60000,-13
2.60833,-13
2.61667,-13
2.62500,-14
2.63333,-14
2.64167,-15
2.65000,-15
2.65833,-15
2.66667,-15
2.67500,-15
2.68333,-15
2.69167,-15
2.70000,-15
2.70833,-15
2.71667,-15
2.72500,-14
2.73333,-14
2.74167,-14
2.75000,-15
2.75833,-15
2.76667,-15
2.77500,-16
2.78333,-16
2.79167,-16
2.80000,-16
2.80833,-16
2.81667,-16
2.82500,-17
2.83333,-17
2.84167,-17
2.85000,-16
2.85833,-16
2.86667,-16
2.87500,-16
2.88333,-16
2.89167,-17
2.90000,-17
2.90833,-17
2.91667,-17
2.92500,-17
2.93333,-17
2.94167,-16
2.95000,-16
2.95833,-16
2.96667,-16
2.97500,-16
2.98333,-17
2.99167,-17
3.00000,-17
3.00833,-17
3.01667,-17
3.02500,-17
3.03333,-17
3.04167,-18
3.05000,-18
3.05833,-18
3.06667,-17
3.07500,-17
3.08333,-17
3.09167,-17
3.10000,-18
3.10833,-18
3.11667,-18
3.12500,-18
3.13333,-17
3.14167,-18
3.15000,-18
3.15833,-18
3.16667,-18
3.17500,-18
3.18333,-18
3.19167,-19
3.20000,-19
3.20833,-18
3.21667,-18
3.22500,-17
3.23333,-17
3.24167,-17
3.25000,-17
3.25833,-17
3.26667,-17
3.27500,-17
3.28333,-18
3.29167,-18
3.30000,-17
3.30833,-17
3.31667,-17
3.32500,-17
3.33333,-17
3.34167,-17
3.35000,-17
3.35833,-17
3.36667,-17
3.37500,-17
3.38333,-17
3.39167,-17
3.40000,-17
3.40833,-17
3.41667,-17
3.42500,-16
3.43333,-16
3.44167,-16
3.45000,-15
3.45833,-15
3.46667,-15
3.47500,-15
3.48333,-15
3.49167,-15
3.50000,-15
3.50833,-15
3.51667,-15
3.52500,-14
3.53333,-14
3.54167,-13
3.55000,-13
3.55833,-13
3.56667,-13
3.57500,-14
3.58333,-14
3.59167,-13
3.60000,-13
3.60833,-13
3.61667,-13
3.62500,-13
3.63333,-13
3.64167,-13
3.65000,-12
3.65833,-12
3.66667,-12
3.67500,-12
3.68333,-12
3.69167,-11
3.70000,-11
3.70833,-11
3.71667,-11
3.72500,-10
3.73333,-10
3.74167,-10
3.75000,-10
3.75833,-10
3.76667,-9
3.77500,-9
3.78333,-9
3.79167,-9
3.80000,-8
3.80833,-8
3.81667,-8
3.82500,-7
3.83333,-7
3.84167,-7
3.85000,-7
3.85833,-7
3.86667,-6
3.87500,-6
3.88333,-6
3.89167,-6
3.90000,-6
3.90833,-5
3.91667,-5
3.92500,-5
3.93333,-4
3.94167,-4
3.95000,-4
3.95833,-4
3.96667,-4
3.97500,-3
3.98333,-3
3.99167,-2
4.00000,-1
4.00833,-1
4.01667,-0
4.02500,0
4.03333,0
4.04167,0
4.05000,0
4.05833,1
4.06667,1
4.07500,2
4.08333,2
4.09167,2
4.10000,3
4.10833,3
4.11667,4
4.12500,5
4.13333,5
4.14167,6
4.15000,6
4.15833,7
4.16667,8
4.17500,8
4.18333,9
4.19167,9
4.20000,9
4.20833,9
4.21667,10
4.22500,10
4.23333,11
4.24167,12
4.25000,12
4.25833,13
4.26667,13
4.27500,14
4.28333,15
4.29167,16
4.30000,17
4.30833,18
4.31667,18
4.32500,19
4.33333,19
4.34167,20
4.35000,21
4.35833,21
4.36667,21
4.37500,22
4.38333,22
4.39167,23
4.40000,23
4.40833,24
4.41667,25
4.42500,26
4.43333,26
4.44167,27
4.45000,27
4.45833,28
4.46667,29
4.47500,30
4.48333,31
4.49167,31
4.50000,32
4.50833,33
4.51667,33
4.52500,33
4.53333,34
4.54167,35
4.55000,36
4.55833,36
4.56667,37
4.57500,37
4.58333,38
4.59167,39
4.60000,40
4.60833,40
4.61667,41
4.62500,41
4.63333,42
4.64167,42
4.65000,43
4.65833,43
4.66667,43
4.67500,43
4.68333,44
4.69167,45
4.70000,45
4.70833,46
4.71667,46
4.72500,47
4.73333,48
4.74167,48
4.75000,48
4.75833,49
4.76667,49
4.77500,49
4.78333,50
4.79167,50
4.80000,51
4.80833,51
4.81667,51
4.82500,51
4.83333,52
4.84167,52
4.85000,52
4.85833,52
4.86667,53
4.87500,53
4.88333,53
4.89167,53
4.90000,54
4.90833,54
4.91667,55
4.92500,55
4.93333,55
4.94167,55
4.95000,55
4.95833,56
4.96667,56
4.97500,56
4.98333,56
4.99167,56
5.00000,56
5.00833,56
5.01667,56
5.02500,56
5.03333,55
5.04167,55
5.05000,55
5.05833,55
5.06667,55
5.07500,55
5.08333,55
5.09167,55
5.10000,54
5.10833,54
5.11667,54
5.12500,54
5.13333,54
5.14167,54
5.15000,54
5.15833,54
5.16667,54
5.17500,54
5.18333,54
5.19167,54
5.20000,54
5.20833,53
5.21667,53
5.22500,52
5.23333,52
5.24167,52
5.25000,52
5.25833,51
5.26667,51
5.27500,50
5.28333,50
5.29167,49
5.30000,49
5.30833,49
5.31667,49
5.32500,49
5.33333,48
5.34167,47
5.35000,47
5.35833,47
5.36667,46
5.37500,46
5.38333,46
5.39167,45
5.40000,45
5.40833,45
5.41667,44
5.42500,44
5.43333,43
5.44167,42
5.45000,42
5.45833,41
5.46667,41
5.47500,41
5.48333,40
5.49167,40
5.50000,39
5.50833,39
5.51667,38
5.52500,38
5.53333,37
5.54167,36
5.55000,36
5.55833,35
5.56667,35
5.57500,34
5.58333,34
5.59167,33
5.60000,33
5.60833,32
5.61667,31
5.62500,30
5.63333,30
5.64167,29
5.65000,29
5.65833,28
5.66667,27
5.67500,26
5.68333,25
5.69167,25
5.70000,24
5.70833,23
5.71667,22
5.72500,21
5.73333,20
5.74167,19
5.75000,19
5.75833,18
5.76667,18
5.77500,17
5.78333,17
5.79167,16
5.80000,15
5.80833,15
5.81667,14
5.82500,13
5.83333,12
5.84167,11
5.85000,10
5.85833,9
5.86667,8
5.87500,7
5.88333,7
5.89167,6
5.90000,5
5.90833,4
5.91667,3
5.92500,2
5.93333,2
5.94167,1
5.95000,1
5.95833,0
5.96667,-1
5.97500,-2
5.98333,-3
5.99167,-3
6.00000,-4
6.00833,-5
6.01667,-6
6.02500,-6
6.03333,-7
6.04167,-8
6.05000,-8
6.05833,-9
6.06667,-10
6.07500,-11
6.08333,-12
6.09167,-12
6.10000,-13
6.10833,-14
6.11667,-15
6.12500,-15
6.13333,-16
6.14167,-18
6.15000,-18
6.15833,-19
6.16667,-19
6.17500,-20
6.18333,-20
6.19167,-21
6.20000,-22
6.20833,-23
6.21667,-23
6.22500,-23
6.23333,-24
6.24167,-24
6.25000,-24
6.25833,-25
6.26667,-26
6.27500,-26
6.28333,-27
6.29167,-28
6.30000,-29
6.30833,-30
6.31667,-30
6.32500,-31
6.33333,-31
6.34167,-32
6.35000,-32
6.35833,-33
6.36667,-34
6.37500,-34
6.38333,-34
6.39167,-35
6.40000,-35
6.40833,-36
6.41667,-37
6.42500,-37
6.43333,-37
6.44167,-37
6.45000,-37
6.45833,-37
6.46667,-38
6.47500,-38
6.48333,-38
6.49167,-39
6.50000,-39
6.50833,-40
6.51667,-40
6.52500,-40
6.53333,-40
6.54167,-41
6.55000,-41
6.55833,-42
6.56667,-42
6.57500,-43
6.58333,-43
6.59167,-44
6.60000,-44
6.60833,-44
6.61667,-44
6.62500,-44
6.63333,-44
6.64167,-44
6.65000,-45
6.65833,-45
6.66667,-45
6.67500,-45
6.68333,-46
6.69167,-46
6.70000,-46
6.70833,-46
6.71667,-46
6.72500,-46
6.73333,-46
6.74167,-46
6.75000,-46
6.75833,-46
6.76667,-46
6.77500,-47
6.78333,-47
6.79167,-47
6.80000,-47
6.80833,-47
6.81667,-47
6.82500,-47
6.83333,-47
6.84167,-47
6.85000,-47
6.85833,-47
6.86667,-48
6.87500,-48
6.88333,-48
6.89167,-49
6.90000,-49
6.90833,-49
6.91667,-49
6.92500,-48
6.93333,-48
6.94167,-49
6.95000,-49
6.95833,-49
6.96667,-49
6.97500,-49
6.98333,-49
6.99167,-49
7.00000,-50
7.00833,-50
7.01667,-50
7.02500,-50
7.03333,-50
7.04167,-50
7.05000,-50
7.05833,-50
7.06667,-50
7.07500,-50
7.08333,-50
7.09167,-50
7.10000,-50
7.10833,-50
7.11667,-50
7.12500,-50
7.13333,-51
7.14167,-51
7.15000,-51
7.15833,-51
7.16667,-51
7.17500,-51
7.18333,-51
7.19167,-51
7.20000,-51
7.20833,-51
7.21667,-50
7.22500,-50
7.23333,-50
7.24167,-50
7.25000,-50
7.25833,-50
7.26667,-51
7.27500,-51
7.28333,-51
7.29167,-51
7.30000,-51
7.30833,-51
7.31667,-51
7.32500,-51
7.33333,-51
7.34167,-50
7.35000,-50
7.35833,-51
7.36667,-51
7.37500,-51
7.38333,-51
7.39167,-51
7.40000,-51
7.40833,-51
7.41667,-51
7.42500,-51
7.43333,-51
7.44167,-50
7.45000,-50
7.45833,-51
7.46667,-51
7.47500,-51
7.48333,-51
7.49167,-51
7.50000,-51
7.50833,-51
7.51667,-51
7.52500,-51
7.53333,-51
7.54167,-51
7.55000,-51
7.55833,-52
7.56667,-52
7.57500,-52
7.58333,-52
7.59167,-52
7.60000,-52
7.60833,-52
7.61667,-52
7.62500,-51
7.63333,-51
7.64167,-51
7.65000,-51
7.65833,-51
7.66667,-52
7.67500,-52
7.68333,-52
7.69167,-52
7.70000,-52
7.70833,-52
7.71667,-52
7.72500,-53
7.73333,-53
7.74167,-53
7.75000,-52
7.75833,-52
7.76667,-52
7.77500,-52
7.78333,-52
7.79167,-52
7.80000,-52
7.80833,-52
7.81667,-52
7.82500,-52
7.83333,-52
7.84167,-52
7.85000,-52
7.85833,-52
7.86667,-52
7.87500,-52
7.88333,-52
7.89167,-52
7.90000,-52
7.90833,-52
7.91667,-52
7.92500,-52
7.93333,-52
7.94167,-52
7.95000,-52
7.95833,-52
7.96667,-52
7.97500,-52
7.98333,-52
7.99167,-52
8.00000,-51
8.00833,-51
8.01667,-51
8.02500,-51
8.03333,-52
8.04167,-52
8.05000,-53
8.05833,-53
8.06667,-53
8.07500,-53
8.08333,-53
8.09167,-53
8.10000,-53
8.10833,-53
8.11667,-53
8.12500,-53
8.13333,-54
8.14167,-54
8.15000,-54
8.15833,-54
8.16667,-54
8.17500,-54
8.18333,-54
8.19167,-54
8.20000,-54
8.20833,-53
8.21667,-53
8.22500,-53
8.23333,-53
8.24167,-53
8.25000,-53
8.25833,-54
8.26667,-54
8.27500,-54
8.28333,-53
8.29167,-53
8.30000,-53
8.30833,-52
8.31667,-52
8.32500,-52
8.33333,-52
8.34167,-52
8.35000,-52
8.35833,-52
8.36667,-52
8.37500,-52
8.38333,-53
8.39167,-53
8.40000,-54
8.40833,-53
8.41667,-53
8.42500,-53
8.43333,-53
8.44167,-53
8.45000,-54
8.45833,-54
8.46667,-54
8.47500,-53
8.48333,-53
8.49167,-53
8.50000,-53
8.50833,-53
8.51667,-54
8.52500,-54
8.53333,-54
8.54167,-54
8.55000,-54
8.55833,-54
8.56667,-54
8.57500,-54
8.58333,-54
8.59167,-54
8.60000,-54
8.60833,-54
8.61667,-54
8.62500,-54
8.63333,-54
8.64167,-54
8.65000,-54
8.65833,-54
8.66667,-54
8.67500,-54
8.68333,-54
8.69167,-54
8.70000,-54
8.70833,-54
8.71667,-54
8.72500,-53
8.73333,-53
8.74167,-53
8.75000,-53
8.75833,-53
8.76667,-54
8.77500,-54
8.78333,-54
8.79167,-54
8.80000,-54
8.80833,-54
8.81667,-53
8.82500,-53
8.83333,-53
8.84167,-53
8.85000,-53
8.85833,-53
8.86667,-53
8.87500,-54
8.88333,-54
8.89167,-54
8.90000,-54
8.90833,-54
8.91667,-54
8.92500,-54
8.93333,-54
8.94167,-54
8.95000,-54
8.95833,-54
8.96667,-54
8.97500,-54
8.98333,-54
8.99167,-54
9.00000,-54
9.00833,-54
9.01667,-54
9.02500,-54
9.03333,-53
9.04167,-53
9.05000,-53
9.05833,-53
9.06667,-53
9.07500,-53
9.08333,-53
9.09167,-53
9.10000,-53
9.10833,-53
9.11667,-53
9.12500,-53
9.13333,-53
9.14167,-53
9.15000,-53
9.15833,-53
9.16667,-54
9.17500,-53
9.18333,-53
9.19167,-53
9.20000,-53
9.20833,-53
9.21667,-53
9.22500,-52
9.23333,-52
9.24167,-52
9.25000,-52
9.25833,-52
9.26667,-52
9.27500,-52
9.28333,-53
9.29167,-53
9.30000,-53
9.30833,-53
9.31667,-54
9.32500,-54
9.33333,-54
9.34167,-54
9.35000,-53
9.35833,-54
9.36667,-54
9.37500,-54
9.38333,-54
9.39167,-54
9.40000,-53
9.40833,-53
9.41667,-53
9.42500,-53
9.43333,-53
9.44167,-52
9.45000,-52
9.45833,-52
9.46667,-52
9.47500,-53
9.48333,-53
9.49167,-53
9.50000,-53
9.50833,-53
9.51667,-53
9.52500,-53
9.53333,-53
9.54167,-53
9.55000,-53
9.55833,-53
9.56667,-53
9.57500,-53
9.58333,-52
9.59167,-52
9.60000,-52
9.60833,-52
9.61667,-52
9.62500,-52
9.63333,-52
9.64167,-52
9.65000,-52
9.65833,-52
9.66667,-52
9.67500,-52
9.68333,-52
9.69167,-52
9.70000,-52
9.70833,-52
9.71667,-52
9.72500,-52
9.73333,-52
9.74167,-52
9.75000,-52
9.75833,-52
9.76667,-52
9.77500,-52
9.78333,-52
9.79167,-52
9.80000,-52
9.80833,-51
9.81667,-52
9.82500,-51
9.83333,-51
9.84167,-51
9.85000,-51
9.85833,-51
9.86667,-51
9.87500,-52
9.88333,-52
9.89167,-52
9.90000,-51
9.90833,-51
9.91667,-51
9.92500,-51
9.93333,-51
9.94167,-51
9.95000,-51
9.95833,-51
9.96667,-51
9.97500,-50
9.98333,-51
9.99167,-51
10.00000,-51
10.00833,-51
10.01667,-50
10.02500,-50
10.03333,-49
10.04167,-49
10.05000,-49
10.05833,-48
10.06667,-48
10.07500,-47
10.08333,-47
10.09167,-47
10.10000,-47
10.10833,-47
10.11667,-46
10.12500,-45
10.13333,-44
10.14167,-43
10.15000,-43
10.15833,-41
10.16667,-40
10.17500,-39
10.18333,-38
10.19167,-38
10.20000,-37
10.20833,-36
10.21667,-35
10.22500,-33
10.23333,-31
10.24167,-29
10.25000,-27
10.25833,-25
10.26667,-23
10.27500,-21
10.28333,-18
10.29167,-14
10.30000,-10
10.30833,-6
10.31667,-1
10.32500,6
10.33333,13
10.34167,23
10.35000,33
10.35833,45
10.36667,58
10.37500,73
10.38333,88
10.39167,105
10.40000,123
10.40833,141
10.41667,160
10.42500,179
10.43333,197
10.44167,212
10.45000,225
10.45833,236
10.46667,244
10.47500,248
10.48333,249
10.49167,249
10.50000,247
10.50833,245
10.51667,246
10.52500,253
10.53333,268
10.54167,295
10.55000,339
10.55833,404
10.56667,495
10.57500,618
10.58333,779
10.59167,983
10.60000,1238
10.60833,1548
10.61667,1920
10.62500,2360
10.63333,2873
10.64167,3467
10.65000,4145
10.65833,4913
10.66667,5775
10.67500,6737
10.68333,7803
10.69167,8976
10.70000,10260
10.70833,11658
10.71667,13172
10.72500,14804
10.73333,16557
10.74167,18430
10.75000,20427
10.75833,22546
10.76667,24788
10.77500,27153
10.78333,29641
10.79167,32248
10.80000,34975
10.80833,37818
10.81667,40775
10.82500,43842
10.83333,47016
10.84167,50292
10.85000,53665
10.85833,57127
10.86667,60672
10.87500,64290
10.88333,67971
10.89167,71703
10.90000,75471
10.90833,79257
10.91667,83042
10.92500,86802
10.93333,90509
10.94167,94133
10.95000,97638
10.95833,100983
10.96667,104122
10.97500,107007
10.98333,109584
10.99167,111799
11.00000,113595
11.00833,114919
11.01667,115716
11.02500,115940
11.03333,115553
11.04167,114530
11.05000,112857
11.05833,110538
11.06667,107595
11.07500,104066
11.08333,100006
11.09167,95486
11.10000,90589
11.10833,85403
11.11667,80025
11.12500,74548
11.13333,69061
11.14167,63648
11.15000,58379
11.15833,53316
11.16667,48507
11.17500,43986
11.18333,39777
11.19167,35894
11.20000,32339
11.20833,29108
11.21667,26189
11.22500,23567
11.23333,21223
11.24167,19137
11.25000,17285
11.25833,15648
11.26667,14202
11.27500,12926
11.28333,11802
11.29167,10813
11.30000,9941
11.30833,9173
11.31667,8494
11.32500,7894
11.33333,7361
11.34167,6888
11.35000,6466
11.35833,6088
11.36667,5749
11.37500,5444
11.38333,5167
11.39167,4915
11.40000,4685
11.40833,4474
11.41667,4280
11.42500,4100
11.43333,3933
11.44167,3778
11.45000,3633
11.45833,3497
11.46667,3368
11.47500,3247
11.48333,3132
11.49167,3023
11.50000,2920
11.50833,2821
11.51667,2727
11.52500,2638
11.53333,2552
11.54167,2470
11.55000,2391
11.55833,2315
11.56667,2243
11.57500,2174
11.58333,2107
11.59167,2043
11.60000,1982
11.60833,1923
11.61667,1866
11.62500,1811
11.63333,1759
11.64167,1708
11.65000,1660
11.65833,1614
11.66667,1569
11.67500,1526
11.68333,1485
11.69167,1445
11.70000,1407
11.70833,1371
11.71667,1336
11.72500,1303
11.73333,1271
11.74167,1240
11.75000,1210
11.75833,1182
11.76667,1155
11.77500,1129
11.78333,1104
11.79167,1081
11.80000,1058
11.80833,1036
11.81667,1015
11.82500,995
11.83333,976
11.84167,957
11.85000,939
11.85833,922
11.86667,906
11.87500,891
11.88333,877
11.89167,863
11.90000,849
11.90833,836
11.91667,823
11.92500,812
11.93333,800
11.94167,789
11.95000,779
11.95833,769
11.96667,759
11.97500,750
11.98333,741
11.99167,732
12.00000,724
12.00833,717
12.01667,709
12.02500,702
12.03333,695
12.04167,688
12.05000,682
12.05833,676
12.06667,671
12.07500,665
12.08333,660
12.09167,655
12.10000,650
12.10833,646
12.11667,641
12.12500,637
12.13333,634
12.14167,630
12.15000,626
12.15833,623
12.16667,620
12.17500,618
12.18333,615
12.19167,613
12.20000,611
12.20833,609
12.21667,608
12.22500,606
12.23333,605
12.24167,603
12.25000,602
12.25833,601
12.26667,600
12.27500,599
12.28333,599
12.29167,598
12.30000,597
12.30833,597
12.31667,597
12.32500,596
12.33333,596
12.34167,597
12.35000,597
12.35833,597
12.36667,597
12.37500,597
12.38333,597
12.39167,596
12.40000,596
12.40833,596
12.41667,596
12.42500,595
12.43333,595
12.44167,595
12.45000,595
12.45833,595
12.46667,594
12.47500,593
12.48333,592
12.49167,591
12.50000,590
12.50833,589
12.51667,588
12.52500,587
12.53333,586
12.54167,584
12.55000,583
12.55833,581
12.56667,579
12.57500,577
12.58333,574
12.59167,573
12.60000,571
12.60833,570
12.61667,569
12.62500,567
12.63333,567
12.64167,566
12.65000,565
12.65833,565
12.66667,566
12.67500,567
12.68333,570
12.69167,573
12.70000,577
12.70833,582
12.71667,589
12.72500,598
12.73333,609
12.74167,622
12.75000,637
12.75833,655
12.76667,676
12.77500,700
12.78333,727
12.79167,758
12.80000,793
12.80833,831
12.81667,874
12.82500,921
12.83333,972
12.84167,1028
12.85000,1089
12.85833,1155
12.86667,1226
12.87500,1302
12.88333,1384
12.89167,1471
12.90000,1564
12.90833,1662
12.91667,1765
12.92500,1875
12.93333,1990
12.94167,2111
12.95000,2237
12.95833,2370
12.96667,2508
12.97500,2652
12.98333,2801
12.99167,2956
13.00000,3117
13.00833,3284
13.01667,3456
13.02500,3633
13.03333,3816
13.04167,4005
13.05000,4198
13.05833,4397
13.06667,4602
13.07500,4812
13.08333,5027
13.09167,5247
13.10000,5472
13.10833,5701
13.11667,5935
13.12500,6174
13.13333,6417
13.14167,6665
13.15000,6917
13.15833,7173
13.16667,7433
13.17500,7697
13.18333,7966
13.19167,8238
13.20000,8514
13.20833,8794
13.21667,9078
13.22500,9366
13.23333,9657
13.24167,9951
13.25000,10249
13.25833,10550
13.26667,10854
13.27500,11161
13.28333,11472
13.29167,11786
13.30000,12103
13.30833,12423
13.31667,12746
13.32500,13072
13.33333,13400
13.34167,13732
13.35000,14067
13.35833,14405
13.36667,14746
13.37500,15089
13.38333,15435
13.39167,15785
13.40000,16137
13.40833,16492
13.41667,16851
13.42500,17212
13.43333,17576
13.44167,17943
13.45000,18313
13.45833,18685
13.46667,19061
13.47500,19440
13.48333,19821
13.49167,20206
13.50000,20594
13.50833,20985
13.51667,21378
13.52500,21775
13.53333,22175
13.54167,22577
13.55000,22983
13.55833,23393
13.56667,23805
13.57500,24220
13.58333,24640
13.59167,25062
13.60000,25488
13.60833,25916
13.61667,26349
13.62500,26784
13.63333,27223
13.64167,27666
13.65000,28112
13.65833,28562
13.66667,29016
13.67500,29473
13.68333,29933
13.69167,30397
13.70000,30866
13.70833,31338
13.71667,31813
13.72500,32293
13.73333,32777
13.74167,33265
13.75000,33756
13.75833,34252
13.76667,34751
13.77500,35254
13.78333,35762
13.79167,36274
13.80000,36790
13.80833,37311
13.81667,37836
13.82500,38365
13.83333,38899
13.84167,39437
13.85000,39980
13.85833,40527
13.86667,41078
13.87500,41635
13.88333,42196
13.89167,42762
13.90000,43333
13.90833,43909
13.91667,44490
13.92500,45076
13.93333,45666
13.94167,46262
13.95000,46862
13.95833,47468
13.96667,48080
13.97500,48697
13.98333,49319
13.99167,49946
14.00000,50579
14.00833,51217
14.01667,51861
14.02500,52511
14.03333,53166
14.04167,53827
14.05000,54494
14.05833,55167
14.06667,55846
14.07500,56531
14.08333,57222
14.09167,57919
14.10000,58622
14.10833,59332
14.11667,60048
14.12500,60771
14.13333,61501
14.14167,62238
14.15000,62981
14.15833,63732
14.16667,64490
14.17500,65254
14.18333,66026
14.19167,66804
14.20000,67589
14.20833,68379
14.21667,69173
14.22500,69969
14.23333,70763
14.24167,71550
14.25000,72324
14.25833,73077
14.26667,73800
14.27500,74482
14.28333,75111
14.29167,75675
14.30000,76161
14.30833,76558
14.31667,76853
14.32500,77036
14.33333,77097
14.34167,77030
14.35000,76828
14.35833,76487
14.36667,76003
14.37500,75374
14.38333,74597
14.39167,73670
14.40000,72591
14.40833,71359
14.41667,69972
14.42500,68427
14.43333,66723
14.44167,64862
14.45000,62844
14.45833,60674
14.46667,58361
14.47500,55916
14.48333,53352
14.49167,50688
14.50000,47947
14.50833,45152
14.51667,42330
14.52500,39509
14.53333,36714
14.54167,33973
14.55000,31310
14.55833,28745
14.56667,26298
14.57500,23984
14.58333,21812
14.59167,19791
14.60000,17923
14.60833,16208
14.61667,14643
14.62500,13224
14.63333,11943
14.64167,10793
14.65000,9765
14.65833,8848
14.66667,8033
14.67500,7310
14.68333,6671
14.69167,6106
14.70000,5606
14.70833,5165
14.71667,4776
14.72500,4433
14.73333,4129
14.74167,3859
14.75000,3621
14.75833,3409
14.76667,3220
14.77500,3050
14.78333,2899
14.79167,2763
14.80000,2639
14.80833,2528
14.81667,2427
14.82500,2334
14.83333,2249
14.84167,2172
14.85000,2099
14.85833,2033
14.86667,1971
14.87500,1914
14.88333,1861
14.89167,1811
14.90000,1764
14.90833,1720
14.91667,1678
14.92500,1639
14.93333,1601
14.94167,1566
14.95000,1532
14.95833,1501
14.96667,1470
14.97500,1442
14.98333,1414
14.99167,1388
15.00000,1364
15.00833,1340
15.01667,1318
15.02500,1296
15.03333,1276
15.04167,1257
15.05000,1239
15.05833,1222
15.06667,1206
15.07500,1191
15.08333,1176
15.09167,1163
15.10000,1150
15.10833,1138
15.11667,1127
15.12500,1117
15.13333,1107
15.14167,1098
15.15000,1090
15.15833,1084
15.16667,1079
15.17500,1075
15.18333,1074
15.19167,1074
15.20000,1078
15.20833,1083
15.21667,1093
15.22500,1107
15.23333,1126
15.24167,1152
15.25000,1185
15.25833,1227
15.26667,1279
15.27500,1344
15.28333,1422
15.29167,1516
15.30000,1629
15.30833,1762
15.31667,1918
15.32500,2101
15.33333,2313
15.34167,2558
15.35000,2839
15.35833,3159
15.36667,3521
15.37500,3929
15.38333,4385
15.39167,4893
15.40000,5457
15.40833,6077
15.41667,6757
15.42500,7498
15.43333,8302
15.44167,9170
15.45000,10100
15.45833,11095
15.46667,12151
15.47500,13268
15.48333,14443
15.49167,15673
15.50000,16954
15.50833,18282
15.51667,19652
15.52500,21059
15.53333,22496
15.54167,23957
15.55000,25435
15.55833,26922
15.56667,28411
15.57500,29896
15.58333,31369
15.59167,32822
15.60000,34249
15.60833,35643
15.61667,36997
15.62500,38305
15.63333,39561
15.64167,40761
15.65000,41899
15.65833,42971
15.66667,43974
15.67500,44903
15.68333,45756
15.69167,46531
15.70000,47226
15.70833,47838
15.71667,48367
15.72500,48812
15.73333,49172
15.74167,49447
15.75000,49637
15.75833,49742
15.76667,49763
15.77500,49699
15.78333,49552
15.79167,49324
15.80000,49015
15.80833,48627
15.81667,48163
15.82500,47623
15.83333,47010
15.84167,46328
15.85000,45578
15.85833,44766
15.86667,43893
15.87500,42963
15.88333,41981
15.89167,40951
15.90000,39877
15.90833,38765
15.91667,37618
15.92500,36441
15.93333,35241
15.94167,34021
15.95000,32788
15.95833,31545
15.96667,30298
15.97500,29052
15.98333,27811
15.99167,26580
16.00000,25362
16.00833,24162
16.01667,22984
16.02500,21830
16.03333,20703
16.04167,19607
16.05000,18544
16.05833,17516
16.06667,16524
16.07500,15570
16.08333,14654
16.09167,13778
16.10000,12943
16.10833,12148
16.11667,11393
16.12500,10677
16.13333,10001
16.14167,9363
16.15000,8762
16.15833,8198
16.16667,7669
16.17500,7175
16.18333,6714
16.19167,6284
16.20000,5884
16.20833,5512
16.21667,5168
16.22500,4849
16.23333,4554
16.24167,4282
16.25000,4031
16.25833,3800
16.26667,3587
16.27500,3392
16.28333,3211
16.29167,3046
16.30000,2894
16.30833,2754
16.31667,2626
16.32500,2508
16.33333,2400
16.34167,2301
16.35000,2210
16.35833,2126
16.36667,2049
16.37500,1979
16.38333,1914
16.39167,1854
16.40000,1798
16.40833,1746
16.41667,1698
16.42500,1653
16.43333,1611
16.44167,1571
16.45000,1534
16.45833,1499
16.46667,1465
16.47500,1434
16.48333,1404
16.49167,1376
16.50000,1349
16.50833,1323
16.51667,1297
16.52500,1273
16.53333,1249
16.54167,1226
16.55000,1204
16.55833,1182
16.56667,1160
16.57500,1139
16.58333,1119
16.59167,1098
16.60000,1079
16.60833,1060
16.61667,1041
16.62500,1022
16.63333,1003
16.64167,985
16.65000,967
16.65833,949
16.66667,932
16.67500,916
16.68333,900
16.69167,885
16.70000,870
16.70833,855
16.71667,840
16.72500,827
16.73333,814
16.74167,801
16.75000,789
16.75833,778
16.76667,767
16.77500,757
16.78333,747
16.79167,737
16.80000,728
16.80833,719
16.81667,711
16.82500,703
16.83333,696
16.84167,689
16.85000,683
16.85833,677
16.86667,671
16.87500,666
16.88333,662
16.89167,658
16.90000,654
16.90833,650
16.91667,646
16.92500,643
16.93333,640
16.94167,638
16.95000,635
16.95833,633
16.96667,630
16.97500,628
16.98333,626
16.99167,624
17.00000,623
17.00833,621
17.01667,620
17.02500,618
17.03333,617
17.04167,616
17.05000,615
17.05833,614
17.06667,613
17.07500,612
17.08333,611
17.09167,610
17.10000,610
17.10833,610
17.11667,609
17.12500,609
17.13333,608
17.14167,608
17.15000,607
17.15833,607
17.16667,606
17.17500,605
17.18333,605
17.19167,605
17.20000,604
17.20833,603
17.21667,602
17.22500,602
17.23333,600
17.24167,600
17.25000,599
17.25833,598
17.26667,598
17.27500,597
17.28333,596
17.29167,595
17.30000,594
17.30833,593
17.31667,593
17.32500,592
17.33333,592
17.34167,591
17.35000,591
17.35833,591
17.36667,591
17.37500,591
17.38333,591
17.39167,591
17.40000,592
17.40833,592
17.41667,593
17.42500,594
17.43333,595
17.44167,597
17.45000,599
17.45833,601
17.46667,604
17.47500,607
17.48333,609
17.49167,613
17.50000,616
17.50833,620
17.51667,624
17.52500,628
17.53333,632
17.54167,637
17.55000,642
17.55833,647
17.56667,653
17.57500,658
17.58333,664
17.59167,669
17.60000,675
17.60833,681
17.61667,687
17.62500,693
17.63333,699
17.64167,705
17.65000,710
17.65833,716
17.66667,721
17.67500,727
17.68333,732
17.69167,738
17.70000,743
17.70833,748
17.71667,754
17.72500,759
17.73333,764
17.74167,768
17.75000,772
17.75833,776
17.76667,780
17.77500,784
17.78333,787
17.79167,790
17.80000,792
17.80833,795
17.81667,797
17.82500,800
17.83333,802
17.84167,803
17.85000,804
17.85833,804
17.86667,805
17.87500,805
17.88333,804
17.89167,803
17.90000,801
17.90833,799
17.91667,797
17.92500,795
17.93333,792
17.94167,789
17.95000,786
17.95833,783
17.96667,779
17.97500,774
17.98333,769
17.99167,764
18.00000,758
18.00833,752
18.01667,747
18.02500,741
18.03333,735
18.04167,728
18.05000,722
18.05833,715
18.06667,708
18.07500,701
18.08333,694
18.09167,687
18.10000,680
18.10833,673
18.11667,665
18.12500,658
18.13333,651
18.14167,644
18.15000,637
18.15833,630
18.16667,623
18.17500,616
18.18333,610
18.19167,604
18.20000,597
18.20833,591
18.21667,585
18.22500,580
18.23333,574
18.24167,568
18.25000,563
18.25833,557
18.26667,552
18.27500,548
18.28333,544
18.29167,540
18.30000,536
18.30833,533
18.31667,531
18.32500,528
18.33333,526
18.34167,523
18.35000,521
18.35833,520
18.36667,518
18.37500,517
18.38333,516
18.39167,516
18.40000,516
18.40833,516
18.41667,516
18.42500,517
18.43333,518
18.44167,519
18.45000,520
18.45833,522
18.46667,524
18.47500,526
18.48333,528
18.49167,531
18.50000,534
18.50833,537
18.51667,541
18.52500,544
18.53333,548
18.54167,552
18.55000,555
18.55833,559
18.56667,563
18.57500,567
18.58333,572
18.59167,577
18.60000,581
18.60833,586
18.61667,591
18.62500,596
18.63333,600
18.64167,605
18.65000,610
18.65833,615
18.66667,620
18.67500,625
18.68333,630
18.69167,635
18.70000,640
18.70833,645
18.71667,649
18.72500,654
18.73333,660
18.74167,664
18.75000,669
18.75833,674
18.76667,678
18.77500,683
18.78333,687
18.79167,691
18.80000,695
18.80833,700
18.81667,704
18.82500,708
18.83333,712
18.84167,716
18.85000,720
18.85833,724
18.86667,728
18.87500,731
18.88333,735
18.89167,738
18.90000,741
18.90833,744
18.91667,747
18.92500,750
18.93333,753
18.94167,755
18.95000,757
18.95833,760
18.96667,762
18.97500,763
18.98333,765
18.99167,767
19.00000,768
19.00833,770
19.01667,771
19.02500,772
19.03333,774
19.04167,775
19.05000,775
19.05833,776
19.06667,776
19.07500,777
19.08333,776
19.09167,776
19.10000,775
19.10833,774
19.11667,773
19.12500,772
19.13333,771
19.14167,769
19.15000,767
19.15833,765
19.16667,763
19.17500,760
19.18333,758
19.19167,756
19.20000,753
19.20833,750
19.21667,746
19.22500,742
19.23333,738
19.24167,734
19.25000,730
19.25833,725
19.26667,721
19.27500,716
19.28333,711
19.29167,706
19.30000,701
19.30833,696
19.31667,691
19.32500,685
19.33333,680
19.34167,674
19.35000,668
19.35833,662
19.36667,655
19.37500,649
19.38333,643
19.39167,636
19.40000,630
19.40833,623
19.41667,616
19.42500,610
19.43333,603
19.44167,596
19.45000,590
19.45833,583
19.46667,576
19.47500,569
19.48333,562
19.49167,555
19.50000,549
19.50833,542
19.51667,535
19.52500,528
19.53333,521
19.54167,515
19.55000,509
19.55833,502
19.56667,496
19.57500,490
19.58333,484
19.59167,479
19.60000,473
19.60833,467
19.61667,462
19.62500,457
19.63333,452
19.64167,448
19.65000,443
19.65833,439
19.66667,435
19.67500,432
19.68333,428
19.69167,425
19.70000,423
19.70833,420
19.71667,418
19.72500,416
19.73333,415
19.74167,414
19.75000,413
19.75833,413
19.76667,413
19.77500,414
19.78333,415
19.79167,417
19.80000,419
19.80833,422
19.81667,426
19.82500,430
19.83333,435
19.84167,440
19.85000,446
19.85833,452
19.86667,459
19.87500,466
19.88333,474
19.89167,482
19.90000,491
19.90833,501
19.91667,511
19.92500,523
19.93333,534
19.94167,546
19.95000,559
19.95833,572
19.96667,585
19.97500,599
19.98333,613
19.99167,628
20.00000,642
20.00833,657
20.01667,672
20.02500,687
20.03333,702
20.04167,717
20.05000,732
20.05833,748
20.06667,763
20.07500,778
20.08333,793
20.09167,807
20.10000,822
20.10833,836
20.11667,849
20.12500,863
20.13333,875
20.14167,887
20.15000,899
20.15833,910
20.16667,920
20.17500,930
20.18333,940
20.19167,948
20.20000,957
20.20833,964
20.21667,971
20.22500,977
20.23333,983
20.24167,988
20.25000,992
20.25833,996
20.26667,999
20.27500,1001
20.28333,1003
20.29167,1003
20.30000,1004
20.30833,1003
20.31667,1002
20.32500,1000
20.33333,998
20.34167,994
20.35000,990
20.35833,986
20.36667,982
20.37500,976
20.38333,970
20.39167,964
20.40000,957
20.40833,949
20.41667,941
20.42500,933
20.43333,924
20.44167,914
20.45000,904
20.45833,894
20.46667,884
20.47500,873
20.48333,862
20.49167,851
20.50000,839
20.50833,828
20.51667,816
20.52500,804
20.53333,793
20.54167,781
20.55000,769
20.55833,758
20.56667,746
20.57500,735
20.58333,724
20.59167,713
20.60000,701
20.60833,690
20.61667,680
20.62500,670
20.63333,660
20.64167,650
20.65000,641
20.65833,632
20.66667,623
20.67500,614
20.68333,606
20.69167,598
20.70000,591
20.70833,583
20.71667,577
20.72500,570
20.73333,564
20.74167,559
20.75000,553
20.75833,548
20.76667,543
20.77500,538
20.78333,533
20.79167,529
20.80000,526
20.80833,522
20.81667,519
20.82500,516
20.83333,512
20.84167,510
20.85000,507
20.85833,505
20.86667,503
20.87500,501
20.88333,499
20.89167,497
20.90000,496
20.90833,495
20.91667,495
20.92500,495
20.93333,495
20.94167,495
20.95000,496
20.95833,496
20.96667,498
20.97500,499
20.98333,502
20.99167,504
21.00000,507
21.00833,511
21.01667,515
21.02500,520
21.03333,526
21.04167,532
21.05000,539
21.05833,546
21.06667,554
21.07500,562
21.08333,571
21.09167,581
21.10000,592
21.10833,604
21.11667,617
21.12500,630
21.13333,645
21.14167,660
21.15000,675
21.15833,692
21.16667,710
21.17500,728
21.18333,746
21.19167,764
21.20000,783
21.20833,802
21.21667,821
21.22500,842
21.23333,862
21.24167,883
21.25000,904
21.25833,924
21.26667,944
21.27500,964
21.28333,985
21.29167,1004
21.30000,1023
21.30833,1042
21.31667,1060
21.32500,1078
21.33333,1095
21.34167,1112
21.35000,1128
21.35833,1145
21.36667,1160
21.37500,1176
21.38333,1191
21.39167,1205
21.40000,1219
21.40833,1232
21.41667,1245
21.42500,1257
21.43333,1269
21.44167,1281
21.45000,1292
21.45833,1303
21.46667,1314
21.47500,1324
21.48333,1335
21.49167,1345
21.50000,1355
21.50833,1364
21.51667,1373
21.52500,1383
21.53333,1391
21.54167,1399
21.55000,1407
21.55833,1414
21.56667,1421
21.57500,1428
21.58333,1434
21.59167,1440
21.60000,1446
21.60833,1451
21.61667,1455
21.62500,1458
21.63333,1461
21.64167,1463
21.65000,1464
21.65833,1465
21.66667,1465
21.67500,1464
21.68333,1462
21.69167,1459
21.70000,1456
21.70833,1452
21.71667,1447
21.72500,1441
21.73333,1435
21.74167,1427
21.75000,1420
21.75833,1411
21.76667,1402
21.77500,1393
21.78333,1383
21.79167,1372
21.80000,1361
21.80833,1349
21.81667,1337
21.82500,1325
21.83333,1314
21.84167,1302
21.85000,1290
21.85833,1278
21.86667,1265
21.87500,1252
21.88333,1239
21.89167,1225
21.90000,1212
21.90833,1199
21.91667,1186
21.92500,1173
21.93333,1161
21.94167,1148
21.95000,1134
21.95833,1121
21.96667,1108
21.97500,1095
21.98333,1081
21.99167,1067
22.00000,1053
22.00833,1038
22.01667,1024
22.02500,1009
22.03333,995
22.04167,980
22.05000,964
22.05833,949
22.06667,933
22.07500,917
22.08333,901
22.09167,885
22.10000,868
22.10833,852
22.11667,835
22.12500,818
22.13333,801
22.14167,784
22.15000,767
22.15833,749
22.16667,731
22.17500,713
22.18333,696
22.19167,678
22.20000,662
22.20833,645
22.21667,628
22.22500,612
22.23333,596
22.24167,580
22.25000,565
22.25833,550
22.26667,535
22.27500,521
22.28333,508
22.29167,494
22.30000,481
22.30833,469
22.31667,457
22.32500,446
22.33333,435
22.34167,425
22.35000,415
22.35833,405
22.36667,396
22.37500,388
22.38333,380
22.39167,372
22.40000,364
22.40833,358
22.41667,352
22.42500,346
22.43333,340
22.44167,335
22.45000,330
22.45833,325
22.46667,321
22.47500,318
22.48333,314
22.49167,311
22.50000,308
22.50833,305
22.51667,303
22.52500,301
22.53333,299
22.54167,298
22.55000,297
22.55833,295
22.56667,294
22.57500,294
22.58333,294
22.59167,293
22.60000,293
22.60833,294
22.61667,294
22.62500,294
22.63333,295
22.64167,295
22.65000,296
22.65833,297
22.66667,298
22.67500,300
22.68333,301
22.69167,303
22.70000,305
22.70833,307
22.71667,309
22.72500,311
22.73333,313
22.74167,316
22.75000,318
22.75833,320
22.76667,323
22.77500,325
22.78333,328
22.79167,330
22.80000,333
22.80833,336
22.81667,340
22.82500,342
22.83333,345
22.84167,348
22.85000,351
22.85833,354
22.86667,356
22.87500,359
22.88333,362
22.89167,365
22.90000,368
22.90833,371
22.91667,374
22.92500,378
22.93333,380
22.94167,383
22.95000,385
22.95833,388
22.96667,390
22.97500,393
22.98333,395
22.99167,397
23.00000,400
23.00833,402
23.01667,405
23.02500,407
23.03333,409
23.04167,411
23.05000,413
23.05833,414
23.06667,416
23.07500,418
23.08333,420
23.09167,421
23.10000,422
23.10833,423
23.11667,424
23.12500,425
23.13333,426
23.14167,427
23.15000,427
23.15833,428
23.16667,428
23.17500,429
23.18333,429
23.19167,429
23.20000,429
23.20833,429
23.21667,428
23.22500,427
23.23333,427
23.24167,426
23.25000,426
23.25833,425
23.26667,424
23.27500,423
23.28333,422
23.29167,421
23.30000,420
23.30833,418
23.31667,417
23.32500,416
23.33333,414
23.34167,413
23.35000,411
23.35833,410
23.36667,409
23.37500,407
23.38333,406
23.39167,405
23.40000,403
23.40833,402
23.41667,401
23.42500,400
23.43333,398
23.44167,397
23.45000,396
23.45833,394
23.46667,393
23.47500,392
23.48333,391
23.49167,391
23.50000,390
23.50833,390
23.51667,389
23.52500,388
23.53333,387
23.54167,387
23.55000,386
23.55833,386
23.56667,386
23.57500,385
23.58333,384
23.59167,383
23.60000,383
23.60833,383
23.61667,382
23.62500,382
23.63333,382
23.64167,382
23.65000,381
23.65833,381
23.66667,380
23.67500,380
23.68333,379
23.69167,378
23.70000,377
23.70833,377
23.71667,376
23.72500,376
23.73333,376
23.74167,376
23.75000,375
23.75833,375
23.76667,375
23.77500,374
23.78333,374
23.79167,373
23.80000,373
23.80833,373
23.81667,372
23.82500,372
23.83333,371
23.84167,370
23.85000,370
23.85833,370
23.86667,369
23.87500,369
23.88333,368
23.89167,367
23.90000,367
23.90833,366
23.91667,365
23.92500,364
23.93333,364
23.94167,363
23.95000,362
23.95833,362
23.96667,361
23.97500,361
23.98333,359
23.99167,358
24.00000,357
24.00833,356
24.01667,355
24.02500,355
24.03333,354
24.04167,353
24.05000,353
24.05833,352
24.06667,352
24.07500,351
24.08333,350
24.09167,350
24.10000,349
24.10833,349
24.11667,348
24.12500,347
24.13333,347
24.14167,346
24.15000,346
24.15833,345
24.16667,345
24.17500,344
24.18333,343
24.19167,343
24.20000,342
24.20833,342
24.21667,342
24.22500,342
24.23333,341
24.24167,341
24.25000,340
24.25833,340
24.26667,340
24.27500,340
24.28333,341
24.29167,341
24.30000,342
24.30833,342
24.31667,343
24.32500,344
24.33333,345
24.34167,346
24.35000,348
24.35833,351
24.36667,353
24.37500,356
24.38333,360
24.39167,364
24.40000,368
24.40833,373
24.41667,378
24.42500,385
24.43333,392
24.44167,400
24.45000,409
24.45833,419
24.46667,431
24.47500,443
24.48333,457
24.49167,473
24.50000,490
24.50833,509
24.51667,529
24.52500,551
24.53333,575
24.54167,601
24.55000,629
24.55833,659
24.56667,691
24.57500,725
24.58333,762
24.59167,801
24.60000,842
24.60833,885
24.61667,930
24.62500,978
24.63333,1029
24.64167,1081
24.65000,1136
24.65833,1192
24.66667,1251
24.67500,1312
24.68333,1374
24.69167,1438
24.70000,1503
24.70833,1570
24.71667,1638
24.72500,1706
24.73333,1776
24.74167,1846
24.75000,1916
24.75833,1987
24.76667,2058
24.77500,2129
24.78333,2200
24.79167,2270
24.80000,2340
24.80833,2409
24.81667,2477
24.82500,2544
24.83333,2610
24.84167,2674
24.85000,2737
24.85833,2798
24.86667,2858
24.87500,2916
24.88333,2972
24.89167,3026
24.90000,3078
24.90833,3129
24.91667,3177
24.92500,3224
24.93333,3268
24.94167,3310
24.95000,3350
24.95833,3388
24.96667,3423
24.97500,3456
24.98333,3487
24.99167,3516
25.00000,3543
25.00833,3568
25.01667,3590
25.02500,3609
25.03333,3626
25.04167,3641
25.05000,3653
25.05833,3662
25.06667,3670
25.07500,3674
25.08333,3676
25.09167,3676
25.10000,3673
25.10833,3667
25.11667,3659
25.12500,3647
25.13333,3633
25.14167,3616
25.15000,3596
25.15833,3573
25.16667,3548
25.17500,3519
25.18333,3487
25.19167,3453
25.20000,3415
25.20833,3376
25.21667,3334
25.22500,3289
25.23333,3241
25.24167,3192
25.25000,3140
25.25833,3086
25.26667,3030
25.27500,2972
25.28333,2913
25.29167,2851
25.30000,2788
25.30833,2724
25.31667,2659
25.32500,2592
25.33333,2525
25.34167,2457
25.35000,2389
25.35833,2321
25.36667,2253
25.37500,2185
25.38333,2118
25.39167,2050
25.40000,1984
25.40833,1918
25.41667,1852
25.42500,1788
25.43333,1725
25.44167,1664
25.45000,1603
25.45833,1544
25.46667,1486
25.47500,1430
25.48333,1375
25.49167,1323
25.50000,1271
25.50833,1221
25.51667,1173
25.52500,1127
25.53333,1083
25.54167,1040
25.55000,1000
25.55833,960
25.56667,923
25.57500,887
25.58333,853
25.59167,821
25.60000,790
25.60833,761
25.61667,733
25.62500,707
25.63333,682
25.64167,659
25.65000,637
25.65833,616
25.66667,596
25.67500,577
25.68333,560
25.69167,543
25.70000,527
25.70833,513
25.71667,499
25.72500,486
25.73333,474
25.74167,462
25.75000,450
25.75833,440
25.76667,430
25.77500,420
25.78333,411
25.79167,403
25.80000,395
25.80833,387
25.81667,380
25.82500,373
25.83333,367
25.84167,360
25.85000,354
25.85833,348
25.86667,342
25.87500,336
25.88333,331
25.89167,325
25.90000,320
25.90833,314
25.91667,309
25.92500,305
25.93333,300
25.94167,295
25.95000,291
25.95833,286
25.96667,281
25.97500,277
25.98333,272
25.99167,268
26.00000,264
26.00833,260
26.01667,256
26.02500,252
26.03333,247
26.04167,243
26.05000,239
26.05833,234
26.06667,230
26.07500,226
26.08333,223
26.09167,219
26.10000,215
26.10833,211
26.11667,207
26.12500,204
26.13333,200
26.14167,196
26.15000,193
26.15833,189
26.16667,186
26.17500,182
26.18333,179
26.19167,176
26.20000,173
26.20833,170
26.21667,168
26.22500,165
26.23333,162
26.24167,159
26.25000,157
26.25833,154
26.26667,152
26.27500,149
26.28333,147
26.29167,145
26.30000,143
26.30833,141
26.31667,139
26.32500,138
26.33333,136
26.34167,135
26.35000,133
26.35833,132
26.36667,131
26.37500,130
26.38333,129
26.39167,127
26.40000,126
26.40833,126
26.41667,125
26.42500,124
26.43333,123
26.44167,123
26.45000,122
26.45833,122
26.46667,122
26.47500,122
26.48333,121
26.49167,121
26.50000,120
26.50833,120
26.51667,119
26.52500,119
26.53333,119
26.54167,119
26.55000,119
26.55833,119
26.56667,118
26.57500,118
26.58333,118
26.59167,118
26.60000,118
26.60833,118
26.61667,118
26.62500,118
26.63333,118
26.64167,118
26.65000,118
26.65833,118
26.66667,119
26.67500,119
26.68333,119
26.69167,119
26.70000,119
26.70833,119
26.71667,120
26.72500,120
26.73333,120
26.74167,120
26.75000,120
26.75833,119
26.76667,119
26.77500,120
26.78333,120
26.79167,120
26.80000,120
26.80833,120
26.81667,120
26.82500,120
26.83333,120
26.84167,120
26.85000,120
26.85833,120
26.86667,120
26.87500,121
26.88333,121
26.89167,121
26.90000,121
26.90833,121
26.91667,121
26.92500,121
26.93333,121
26.94167,122
26.95000,122
26.95833,122
26.96667,123
26.97500,123
26.98333,123
26.99167,123
27.00000,123
27.00833,123
27.01667,123
27.02500,123
27.03333,123
27.04167,123
27.05000,124
27.05833,124
27.06667,124
27.07500,125
27.08333,125
27.09167,125
27.10000,125
27.10833,126
27.11667,125
27.12500,126
27.13333,126
27.14167,126
27.15000,126
27.15833,126
27.16667,127
27.17500,127
27.18333,127
27.19167,127
27.20000,127
27.20833,127
27.21667,127
27.22500,127
27.23333,127
27.24167,126
27.25000,126
27.25833,126
27.26667,126
27.27500,127
27.28333,127
27.29167,127
27.30000,127
27.30833,127
27.31667,127
27.32500,127
27.33333,127
27.34167,127
27.35000,126
27.35833,126
27.36667,126
27.37500,126
27.38333,126
27.39167,126
27.40000,126
27.40833,126
27.41667,125
27.42500,125
27.43333,124
27.44167,124
27.45000,124
27.45833,124
27.46667,123
27.47500,123
27.48333,122
27.49167,122
27.50000,121
27.50833,121
27.51667,121
27.52500,120
27.53333,120
27.54167,119
27.55000,119
27.55833,118
27.56667,118
27.57500,118
27.58333,117
27.59167,117
27.60000,116
27.60833,116
27.61667,115
27.62500,115
27.63333,114
27.64167,114
27.65000,113
27.65833,112
27.66667,112
27.67500,111
27.68333,110
27.69167,109
27.70000,108
27.70833,108
27.71667,107
27.72500,106
27.73333,105
27.74167,104
27.75000,103
27.75833,102
27.76667,101
27.77500,101
27.78333,100
27.79167,99
27.80000,99
27.80833,98
27.81667,97
27.82500,97
27.83333,96
27.84167,96
27.85000,95
27.85833,94
27.86667,93
27.87500,93
27.88333,92
27.89167,91
27.90000,90
27.90833,90
27.91667,89
27.92500,89
27.93333,88
27.94167,88
27.95000,88
27.95833,87
27.96667,87
27.97500,87
27.98333,87
27.99167,87
28.00000,87
28.00833,87
28.01667,87
28.02500,87
28.03333,86
28.04167,86
28.05000,85
28.05833,85
28.06667,86
28.07500,86
28.08333,86
28.09167,86
28.10000,86
28.10833,86
28.11667,86
28.12500,86
28.13333,85
28.14167,85
28.15000,85
28.15833,85
28.16667,85
28.17500,85
28.18333,85
28.19167,86
28.20000,87
28.20833,88
28.21667,88
28.22500,88
28.23333,88
28.24167,88
28.25000,88
28.25833,89
28.26667,89
28.27500,90
28.28333,90
28.29167,91
28.30000,92
28.30833,93
28.31667,93
28.32500,94
28.33333,95
28.34167,97
28.35000,98
28.35833,99
28.36667,101
28.37500,103
28.38333,105
28.39167,107
28.40000,109
28.40833,112
28.41667,115
28.42500,118
28.43333,121
28.44167,126
28.45000,130
28.45833,135
28.46667,140
28.47500,147
28.48333,154
28.49167,161
28.50000,170
28.50833,178
28.51667,188
28.52500,199
28.53333,211
28.54167,223
28.55000,237
28.55833,251
28.56667,266
28.57500,282
28.58333,300
28.59167,319
28.60000,339
28.60833,361
28.61667,384
28.62500,407
28.63333,433
28.64167,459
28.65000,487
28.65833,517
28.66667,547
28.67500,580
28.68333,613
28.69167,649
28.70000,685
28.70833,723
28.71667,763
28.72500,804
28.73333,846
28.74167,889
28.75000,934
28.75833,980
28.76667,1027
28.77500,1074
28.78333,1123
28.79167,1172
28.80000,1222
28.80833,1273
28.81667,1324
28.82500,1376
28.83333,1429
28.84167,1482
28.85000,1534
28.85833,1587
28.86667,1639
28.87500,1692
28.88333,1744
28.89167,1795
28.90000,1846
28.90833,1897
28.91667,1946
28.92500,1995
28.93333,2043
28.94167,2090
28.95000,2136
28.95833,2181
28.96667,2226
28.97500,2268
28.98333,2309
28.99167,2349
29.00000,2387
29.00833,2423
29.01667,2458
29.02500,2492
29.03333,2524
29.04167,2554
29.05000,2583
29.05833,2610
29.06667,2636
29.07500,2661
29.08333,2684
29.09167,2705
29.10000,2724
29.10833,2742
29.11667,2759
29.12500,2774
29.13333,2787
29.14167,2799
29.15000,2809
29.15833,2818
29.16667,2826
29.17500,2832
29.18333,2836
29.19167,2839
29.20000,2841
29.20833,2841
29.21667,2840
29.22500,2838
29.23333,2834
29.24167,2829
29.25000,2822
29.25833,2814
29.26667,2805
29.27500,2794
29.28333,2781
29.29167,2767
29.30000,2752
29.30833,2736
29.31667,2718
29.32500,2699
29.33333,2678
29.34167,2656
29.35000,2632
29.35833,2608
29.36667,2582
29.37500,2554
29.38333,2525
29.39167,2494
29.40000,2463
29.40833,2430
29.41667,2395
29.42500,2360
29.43333,2323
29.44167,2285
29.45000,2246
29.45833,2206
29.46667,2166
29.47500,2123
29.48333,2081
29.49167,2037
29.50000,1993
29.50833,1949
29.51667,1903
29.52500,1858
29.53333,1811
29.54167,1765
29.55000,1719
29.55833,1672
29.56667,1625
29.57500,1578
29.58333,1532
29.59167,1485
29.60000,1439
29.60833,1393
29.61667,1347
29.62500,1301
29.63333,1257
29.64167,1212
29.65000,1169
29.65833,1126
29.66667,1084
29.67500,1043
29.68333,1003
29.69167,963
29.70000,925
29.70833,888
29.71667,852
29.72500,816
29.73333,781
29.74167,747
29.75000,715
29.75833,684
29.76667,653
29.77500,624
29.78333,596
29.79167,570
29.80000,545
29.80833,520
29.81667,497
29.82500,474
29.83333,453
29.84167,431
29.85000,412
29.85833,393
29.86667,375
29.87500,358
29.88333,342
29.89167,326
29.90000,312
29.90833,299
29.91667,286
29.92500,274
29.93333,262
29.94167,251
29.95000,242
29.95833,232
29.96667,223
29.97500,215
29.98333,207
29.99167,200
30.00000,193
30.00833,187
30.01667,181
30.02500,175
30.03333,170
30.04167,166
30.05000,161
30.05833,157
30.06667,153
30.07500,150
30.08333,146
30.09167,143
30.10000,140
30.10833,137
30.11667,134
30.12500,132
30.13333,130
30.14167,128
30.15000,126
30.15833,124
30.16667,123
30.17500,122
30.18333,120
30.19167,119
30.20000,118
30.20833,118
30.21667,117
30.22500,116
30.23333,115
30.24167,115
30.25000,114
30.25833,113
30.26667,113
30.27500,112
30.28333,111
30.29167,111
30.30000,111
30.30833,111
30.31667,110
30.32500,110
30.33333,110
30.34167,109
30.35000,109
30.35833,109
30.36667,110
30.37500,109
30.38333,109
30.39167,110
30.40000,110
30.40833,111
30.41667,111
30.42500,111
30.43333,112
30.44167,112
30.45000,113
30.45833,114
30.46667,114
30.47500,115
30.48333,115
30.49167,116
30.50000,116
30.50833,117
30.51667,118
30.52500,118
30.53333,119
30.54167,120
30.55000,121
30.55833,123
30.56667,124
30.57500,125
30.58333,127
30.59167,128
30.60000,129
30.60833,131
30.61667,132
30.62500,133
30.63333,134
30.64167,136
30.65000,137
30.65833,139
30.66667,141
30.67500,143
30.68333,145
30.69167,146
30.70000,148
30.70833,150
30.71667,151
30.72500,153
30.73333,154
30.74167,156
30.75000,157
30.75833,159
30.76667,161
30.77500,162
30.78333,164
30.79167,165
30.80000,167
30.80833,168
30.81667,170
30.82500,171
30.83333,173
30.84167,174
30.85000,176
30.85833,177
30.86667,179
30.87500,181
30.88333,183
30.89167,184
30.90000,185
30.90833,187
30.91667,188
30.92500,189
30.93333,191
30.94167,192
30.95000,193
30.95833,194
30.96667,195
30.97500,196
30.98333,197
30.99167,198
31.00000,199
31.00833,200
31.01667,201
31.02500,201
31.03333,202
31.04167,202
31.05000,203
31.05833,204
31.06667,204
31.07500,205
31.08333,205
31.09167,206
31.10000,206
31.10833,206
31.11667,206
31.12500,206
31.13333,206
31.14167,206
31.15000,206
31.15833,206
31.16667,206
31.17500,206
31.18333,205
31.19167,205
31.20000,204
31.20833,204
31.21667,203
31.22500,203
31.23333,202
31.24167,201
31.25000,200
31.25833,200
31.26667,199
31.27500,198
31.28333,197
31.29167,196
31.30000,195
31.30833,194
31.31667,193
31.32500,192
31.33333,190
31.34167,189
31.35000,188
31.35833,187
31.36667,186
31.37500,185
31.38333,183
31.39167,182
31.40000,181
31.40833,179
31.41667,178
31.42500,177
31.43333,176
31.44167,175
31.45000,174
31.45833,172
31.46667,171
31.47500,169
31.48333,167
31.49167,166
31.50000,165
31.50833,163
31.51667,162
31.52500,161
31.53333,160
31.54167,159
31.55000,159
31.55833,158
31.56667,157
31.57500,156
31.58333,155
31.59167,154
31.60000,153
31.60833,153
31.61667,152
31.62500,152
31.63333,151
31.64167,151
31.65000,151
31.65833,152
31.66667,152
31.67500,152
31.68333,152
31.69167,153
31.70000,154
31.70833,155
31.71667,157
31.72500,158
31.73333,160
31.74167,162
31.75000,164
31.75833,167
31.76667,169
31.77500,172
31.78333,175
31.79167,178
31.80000,181
31.80833,185
31.81667,189
31.82500,194
31.83333,198
31.84167,202
31.85000,207
31.85833,211
31.86667,217
31.87500,222
31.88333,228
31.89167,233
31.90000,239
31.90833,245
31.91667,251
31.92500,258
31.93333,265
31.94167,272
31.95000,279
31.95833,286
31.96667,293
31.97500,300
31.98333,308
31.99167,315
32.00000,323
32.00833,331
32.01667,338
32.02500,346
32.03333,354
32.04167,362
32.05000,370
32.05833,378
32.06667,385
32.07500,393
32.08333,400
32.09167,408
32.10000,416
32.10833,423
32.11667,430
32.12500,438
32.13333,445
32.14167,453
32.15000,460
32.15833,466
32.16667,473
32.17500,479
32.18333,485
32.19167,492
32.20000,498
32.20833,504
32.21667,510
32.22500,515
32.23333,521
32.24167,526
32.25000,531
32.25833,536
32.26667,541
32.27500,545
32.28333,550
32.29167,555
32.30000,559
32.30833,564
32.31667,568
32.32500,571
32.33333,575
32.34167,578
32.35000,581
32.35833,584
32.36667,587
32.37500,590
32.38333,593
32.39167,596
32.40000,598
32.40833,601
32.41667,602
32.42500,604
32.43333,605
32.44167,607
32.45000,608
32.45833,609
32.46667,609
32.47500,609
32.48333,610
32.49167,610
32.50000,610
32.50833,610
32.51667,610
32.52500,609
32.53333,608
32.54167,607
32.55000,606
32.55833,605
32.56667,603
32.57500,601
32.58333,599
32.59167,597
32.60000,595
32.60833,592
32.61667,589
32.62500,586
32.63333,582
32.64167,579
32.65000,575
32.65833,571
32.66667,567
32.67500,562
32.68333,558
32.69167,553
32.70000,549
32.70833,545
32.71667,540
32.72500,536
32.73333,531
32.74167,527
32.75000,522
32.75833,517
32.76667,512
32.77500,508
32.78333,503
32.79167,498
32.80000,494
32.80833,489
32.81667,485
32.82500,480
32.83333,475
32.84167,471
32.85000,466
32.85833,462
32.86667,458
32.87500,454
32.88333,450
32.89167,446
32.90000,442
32.90833,439
32.91667,435
32.92500,432
32.93333,429
32.94167,426
32.95000,423
32.95833,421
32.96667,418
32.97500,416
32.98333,413
32.99167,411
33.00000,409
33.00833,407
33.01667,405
33.02500,403
33.03333,401
33.04167,399
33.05000,397
33.05833,396
33.06667,394
33.07500,393
33.08333,392
33.09167,390
33.10000,389
33.10833,388
33.11667,387
33.12500,385
33.13333,385
33.14167,384
33.15000,383
33.15833,382
33.16667,381
33.17500,380
33.18333,379
33.19167,377
33.20000,377
33.20833,376
33.21667,375
33.22500,374
33.23333,372
33.24167,371
33.25000,370
33.25833,368
33.26667,367
33.27500,366
33.28333,364
33.29167,362
33.30000,361
33.30833,359
33.31667,358
33.32500,355
33.33333,353
33.34167,351
33.35000,349
33.35833,347
33.36667,345
33.37500,342
33.38333,340
33.39167,338
33.40000,335
33.40833,333
33.41667,330
33.42500,328
33.43333,325
33.44167,322
33.45000,320
33.45833,317
33.46667,314
33.47500,312
33.48333,309
33.49167,305
33.50000,302
33.50833,298
33.51667,295
33.52500,292
33.53333,289
33.54167,285
33.55000,282
33.55833,279
33.56667,275
33.57500,272
33.58333,268
33.59167,264
33.60000,261
33.60833,257
33.61667,253
33.62500,249
33.63333,246
33.64167,242
33.65000,238
33.65833,235
33.66667,230
33.67500,227
33.68333,223
33.69167,219
33.70000,216
33.70833,212
33.71667,208
33.72500,204
33.73333,200
33.74167,196
33.75000,192
33.75833,188
33.76667,185
33.77500,181
33.78333,177
33.79167,174
33.80000,170
33.80833,166
33.81667,162
33.82500,158
33.83333,155
33.84167,151
33.85000,148
33.85833,145
33.86667,141
33.87500,137
33.88333,134
33.89167,131
33.90000,128
33.90833,124
33.91667,122
33.92500,119
33.93333,116
33.94167,113
33.95000,110
33.95833,107
33.96667,104
33.97500,100
33.98333,97
33.99167,95
34.00000,93
34.00833,91
34.01667,88
34.02500,86
34.03333,84
34.04167,81
34.05000,79
34.05833,77
34.06667,75
34.07500,73
34.08333,71
34.09167,70
34.10000,68
34.10833,66
34.11667,64
34.12500,62
34.13333,61
34.14167,60
34.15000,58
34.15833,57
34.16667,56
34.17500,55
34.18333,54
34.19167,52
34.20000,51
34.20833,50
34.21667,49
34.22500,48
34.23333,47
34.24167,47
34.25000,46
34.25833,45
34.26667,44
34.27500,43
34.28333,42
34.29167,41
34.30000,40
34.30833,39
34.31667,39
34.32500,38
34.33333,37
34.34167,37
34.35000,36
34.35833,36
34.36667,35
34.37500,35
34.38333,34
34.39167,34
34.40000,33
34.40833,33
34.41667,32
34.42500,32
34.43333,31
34.44167,31
34.45000,31
34.45833,31
34.46667,30
34.47500,30
34.48333,30
34.49167,29
34.50000,28
34.50833,28
34.51667,28
34.52500,27
34.53333,27
34.54167,27
34.55000,27
34.55833,27
34.56667,26
34.57500,26
34.58333,26
34.59167,25
34.60000,25
34.60833,25
34.61667,24
34.62500,24
34.63333,24
34.64167,24
34.65000,24
34.65833,23
34.66667,23
34.67500,23
34.68333,23
34.69167,22
34.70000,22
34.70833,22
34.71667,22
34.72500,21
34.73333,21
34.74167,20
34.75000,20
34.75833,20
34.76667,20
34.77500,19
34.78333,19
34.79167,19
34.80000,18
34.80833,18
34.81667,18
34.82500,18
34.83333,18
34.84167,18
34.85000,18
34.85833,18
34.86667,17
34.87500,17
34.88333,16
34.89167,16
34.90000,16
34.90833,16
34.91667,16
34.92500,15
34.93333,15
34.94167,15
34.95000,15
34.95833,15
34.96667,15
34.97500,15
34.98333,15
34.99167,15
35.00000,15
35.00833,15
35.01667,15
35.02500,15
35.03333,15
35.04167,15
35.05000,15
35.05833,15
35.06667,15
35.07500,15
35.08333,15
35.09167,15
35.10000,15
35.10833,15
35.11667,15
35.12500,15
35.13333,15
35.14167,15
35.15000,15
35.15833,15
35.16667,16
35.17500,16
35.18333,17
35.19167,17
35.20000,17
35.20833,18
35.21667,18
35.22500,18
35.23333,19
35.24167,19
35.25000,20
35.25833,20
35.26667,20
35.27500,20
35.28333,20
35.29167,21
35.30000,21
35.30833,22
35.31667,22
35.32500,23
35.33333,24
35.34167,24
35.35000,25
35.35833,25
35.36667,26
35.37500,26
35.38333,27
35.39167,28
35.40000,28
35.40833,29
35.41667,29
35.42500,30
35.43333,30
35.44167,31
35.45000,32
35.45833,33
35.46667,33
35.47500,34
35.48333,35
35.49167,35
35.50000,36
35.50833,37
35.51667,37
35.52500,38
35.53333,38
35.54167,39
35.55000,39
35.55833,40
35.56667,40
35.57500,41
35.58333,41
35.59167,41
35.60000,42
35.60833,42
35.61667,42
35.62500,42
35.63333,43
35.64167,44
35.65000,45
35.65833,45
35.66667,46
35.67500,47
35.68333,47
35.69167,48
35.70000,48
35.70833,49
35.71667,50
35.72500,50
35.73333,51
35.74167,51
35.75000,51
35.75833,52
35.76667,52
35.77500,53
35.78333,54
35.79167,54
35.80000,55
35.80833,55
35.81667,56
35.82500,56
35.83333,56
35.84167,56
35.85000,56
35.85833,56
35.86667,56
35.87500,56
35.88333,56
35.89167,57
35.90000,57
35.90833,57
35.91667,57
35.92500,57
35.93333,57
35.94167,58
35.95000,58
35.95833,58
35.96667,59
35.97500,59
35.98333,59
35.99167,59
36.00000,59
36.00833,59
36.01667,59
36.02500,59
36.03333,60
36.04167,60
36.05000,61
36.05833,61
36.06667,61
36.07500,61
36.08333,61
36.09167,60
36.10000,60
36.10833,60
36.11667,60
36.12500,60
36.13333,60
36.14167,60
36.15000,60
36.15833,60
36.16667,60
36.17500,60
36.18333,60
36.19167,61
36.20000,61
36.20833,61
36.21667,61
36.22500,60
36.23333,60
36.24167,60
36.25000,60
36.25833,60
36.26667,60
36.27500,59
36.28333,59
36.29167,58
36.30000,58
36.30833,58
36.31667,58
36.32500,58
36.33333,58
36.34167,58
36.35000,58
36.35833,58
36.36667,58
36.37500,57
36.38333,57
36.39167,56
36.40000,56
36.40833,56
36.41667,56
36.42500,56
36.43333,56
36.44167,56
36.45000,56
36.45833,55
36.46667,55
36.47500,55
36.48333,55
36.49167,54
36.50000,54
36.50833,54
36.51667,54
36.52500,54
36.53333,54
36.54167,54
36.55000,54
36.55833,53
36.56667,53
36.57500,53
36.58333,53
36.59167,53
36.60000,53
36.60833,53
36.61667,53
36.62500,53
36.63333,53
36.64167,53
36.65000,53
36.65833,53
36.66667,53
36.67500,53
36.68333,53
36.69167,53
36.70000,53
36.70833,53
36.71667,54
36.72500,54
36.73333,54
36.74167,54
36.75000,55
36.75833,55
36.76667,55
36.77500,55
36.78333,56
36.79167,56
36.80000,57
36.80833,57
36.81667,57
36.82500,58
36.83333,58
36.84167,59
36.85000,59
36.85833,60
36.86667,60
36.87500,61
36.88333,61
36.89167,62
36.90000,62
36.90833,63
36.91667,63
36.92500,63
36.93333,64
36.94167,64
36.95000,64
36.95833,65
36.96667,65
36.97500,66
36.98333,66
36.99167,67
37.00000,68
37.00833,69
37.01667,69
37.02500,70
37.03333,71
37.04167,71
37.05000,72
37.05833,73
37.06667,74
37.07500,74
37.08333,75
37.09167,76
37.10000,76
37.10833,77
37.11667,78
37.12500,79
37.13333,80
37.14167,80
37.15000,81
37.15833,81
37.16667,82
37.17500,83
37.18333,83
37.19167,84
37.20000,84
37.20833,85
37.21667,86
37.22500,87
37.23333,88
37.24167,89
37.25000,90
37.25833,91
37.26667,92
37.27500,93
37.28333,93
37.29167,94
37.30000,95
37.30833,95
37.31667,96
37.32500,96
37.33333,98
37.34167,98
37.35000,99
37.35833,100
37.36667,101
37.37500,102
37.38333,103
37.39167,104
37.40000,105
37.40833,106
37.41667,107
37.42500,107
37.43333,108
37.44167,109
37.45000,109
37.45833,110
37.46667,111
37.47500,111
37.48333,112
37.49167,113
37.50000,114
37.50833,115
37.51667,116
37.52500,117
37.53333,118
37.54167,119
37.55000,120
37.55833,121
37.56667,122
37.57500,123
37.58333,123
37.59167,124
37.60000,124
37.60833,125
37.61667,126
37.62500,127
37.63333,127
37.64167,128
37.65000,129
37.65833,129
37.66667,130
37.67500,131
37.68333,131
37.69167,132
37.70000,132
37.70833,132
37.71667,132
37.72500,133
37.73333,133
37.74167,133
37.75000,134
37.75833,134
37.76667,134
37.77500,134
37.78333,134
37.79167,134
37.80000,135
37.80833,135
37.81667,135
37.82500,135
37.83333,135
37.84167,135
37.85000,135
37.85833,135
37.86667,134
37.87500,134
37.88333,134
37.89167,134
37.90000,134
37.90833,133
37.91667,133
37.92500,133
37.93333,133
37.94167,133
37.95000,133
37.95833,132
37.96667,131
37.97500,130
37.98333,129
37.99167,129
38.00000,128
38.00833,128
38.01667,128
38.02500,127
38.03333,127
38.04167,126
38.05000,125
38.05833,125
38.06667,124
38.07500,123
38.08333,122
38.09167,121
38.10000,120
38.10833,119
38.11667,119
38.12500,118
38.13333,117
38.14167,116
38.15000,115
38.15833,114
38.16667,112
38.17500,111
38.18333,110
38.19167,109
38.20000,109
38.20833,108
38.21667,107
38.22500,106
38.23333,105
38.24167,104
38.25000,103
38.25833,102
38.26667,101
38.27500,100
38.28333,98
38.29167,97
38.30000,96
38.30833,95
38.31667,93
38.32500,92
38.33333,91
38.34167,89
38.35000,88
38.35833,87
38.36667,85
38.37500,84
38.38333,82
38.39167,81
38.40000,80
38.40833,78
38.41667,77
38.42500,76
38.43333,75
38.44167,74
38.45000,73
38.45833,72
38.46667,71
38.47500,69
38.48333,68
38.49167,67
38.50000,65
38.50833,64
38.51667,62
38.52500,61
38.53333,59
38.54167,58
38.55000,57
38.55833,55
38.56667,54
38.57500,53
38.58333,52
38.59167,51
38.60000,50
38.60833,49
38.61667,48
38.62500,47
38.63333,46
38.64167,45
38.65000,44
38.65833,42
38.66667,41
38.67500,40
38.68333,39
38.69167,38
38.70000,37
38.70833,36
38.71667,35
38.72500,34
38.73333,34
38.74167,33
38.75000,32
38.75833,31
38.76667,30
38.77500,29
38.78333,28
38.79167,27
38.80000,26
38.80833,25
38.81667,25
38.82500,24
38.83333,23
38.84167,22
38.85000,21
38.85833,20
38.86667,19
38.87500,19
38.88333,18
38.89167,18
38.90000,17
38.90833,17
38.91667,17
38.92500,17
38.93333,16
38.94167,16
38.95000,16
38.95833,15
38.96667,14
38.97500,14
38.98333,13
38.99167,13
39.00000,12
39.00833,12
39.01667,11
39.02500,11
39.03333,11
39.04167,10
39.05000,10
39.05833,10
39.06667,9
39.07500,9
39.08333,9
39.09167,9
39.10000,9
39.10833,8
39.11667,8
39.12500,8
39.13333,7
39.14167,7
39.15000,7
39.15833,7
39.16667,6
39.17500,6
39.18333,6
39.19167,6
39.20000,5
39.20833,5
39.21667,5
39.22500,5
39.23333,5
39.24167,5
39.25000,5
39.25833,5
39.26667,5
39.27500,5
39.28333,5
39.29167,5
39.30000,5
39.30833,5
39.31667,5
39.32500,5
39.33333,5
39.34167,5
39.35000,5
39.35833,4
39.36667,5
39.37500,5
39.38333,5
39.39167,5
39.40000,5
39.40833,5
39.41667,5
39.42500,5
39.43333,5
39.44167,5
39.45000,5
39.45833,5
39.46667,5
39.47500,5
39.48333,5
39.49167,5
39.50000,5
39.50833,5
39.51667,5
39.52500,5
39.53333,4
39.54167,4
39.55000,4
39.55833,4
39.56667,4
39.57500,4
39.58333,4
39.59167,4
39.60000,4
39.60833,4
39.61667,5
39.62500,5
39.63333,6
39.64167,6
39.65000,5
39.65833,5
39.66667,5
39.67500,5
39.68333,6
39.69167,6
39.70000,6
39.70833,6
39.71667,5
39.72500,5
39.73333,5
39.74167,5
39.75000,5
39.75833,5
39.76667,5
39.77500,5
39.78333,5
39.79167,5
39.80000,5
39.80833,5
39.81667,5
39.82500,5
39.83333,4
39.84167,4
39.85000,4
39.85833,4
39.86667,5
39.87500,5
39.88333,5
39.89167,5
39.90000,5
39.90833,5
39.91667,5
39.92500,5
39.93333,4
39.94167,4
39.95000,5
39.95833,5
39.96667,4
39.97500,4
39.98333,4
39.99167,4
40.00000,5
40.00833,4
40.01667,4
40.02500,4
40.03333,4
40.04167,4
40.05000,5
40.05833,5
40.06667,5
40.07500,5
40.08333,4
40.09167,4
40.10000,4
40.10833,5
40.11667,5
40.12500,5
40.13333,5
40.14167,5
40.15000,5
40.15833,6
40.16667,6
40.17500,6
40.18333,6
40.19167,5
40.20000,5
40.20833,5
40.21667,5
40.22500,5
40.23333,5
40.24167,5
40.25000,6
40.25833,6
40.26667,6
40.27500,6
40.28333,7
40.29167,7
40.30000,7
40.30833,7
40.31667,8
40.32500,8
40.33333,8
40.34167,9
40.35000,9
40.35833,9
40.36667,9
40.37500,9
40.38333,9
40.39167,10
40.40000,10
40.40833,10
40.41667,10
40.42500,11
40.43333,11
40.44167,12
40.45000,12
40.45833,13
40.46667,14
40.47500,15
40.48333,15
40.49167,16
40.50000,17
40.50833,17
40.51667,18
40.52500,18
40.53333,19
40.54167,19
40.55000,20
40.55833,20
40.56667,21
40.57500,21
40.58333,22
40.59167,23
40.60000,24
40.60833,25
40.61667,26
40.62500,27
40.63333,28
40.64167,29
40.65000,30
40.65833,31
40.66667,32
40.67500,34
40.68333,35
40.69167,36
40.70000,37
40.70833,39
40.71667,40
40.72500,42
40.73333,43
40.74167,45
40.75000,46
40.75833,47
40.76667,48
40.77500,50
40.78333,52
40.79167,54
40.80000,55
40.80833,57
40.81667,58
40.82500,60
40.83333,62
40.84167,63
40.85000,65
40.85833,67
40.86667,69
40.87500,71
40.88333,72
40.89167,74
40.90000,76
40.90833,78
40.91667,79
40.92500,81
40.93333,83
40.94167,84
40.95000,86
40.95833,88
40.96667,90
40.97500,91
40.98333,93
40.99167,95
41.00000,96
41.00833,98
41.01667,100
41.02500,102
41.03333,104
41.04167,106
41.05000,109
41.05833,111
41.06667,112
41.07500,114
41.08333,116
41.09167,118
41.10000,120
41.10833,122
41.11667,124
41.12500,125
41.13333,127
41.14167,129
41.15000,131
41.15833,132
41.16667,134
41.17500,136
41.18333,137
41.19167,139
41.20000,141
41.20833,142
41.21667,143
41.22500,145
41.23333,147
41.24167,149
41.25000,150
41.25833,151
41.26667,153
41.27500,154
41.28333,156
41.29167,158
41.30000,159
41.30833,161
41.31667,163
41.32500,164
41.33333,166
41.34167,167
41.35000,169
41.35833,170
41.36667,172
41.37500,173
41.38333,175
41.39167,176
41.40000,178
41.40833,179
41.41667,180
41.42500,181
41.43333,183
41.44167,184
41.45000,185
41.45833,187
41.46667,188
41.47500,189
41.48333,191
41.49167,192
41.50000,193
41.50833,194
41.51667,195
41.52500,195
41.53333,197
41.54167,198
41.55000,199
41.55833,201
41.56667,202
41.57500,202
41.58333,203
41.59167,204
41.60000,205
41.60833,206
41.61667,206
41.62500,207
41.63333,208
41.64167,209
41.65000,209
41.65833,210
41.66667,211
41.67500,212
41.68333,212
41.69167,213
41.70000,213
41.70833,213
41.71667,214
41.72500,214
41.73333,215
41.74167,215
41.75000,215
41.75833,215
41.76667,216
41.77500,216
41.78333,216
41.79167,216
41.80000,217
41.80833,217
41.81667,217
41.82500,218
41.83333,217
41.84167,217
41.85000,217
41.85833,217
41.86667,217
41.87500,217
41.88333,217
41.89167,217
41.90000,217
41.90833,216
41.91667,216
41.92500,216
41.93333,216
41.94167,215
41.95000,215
41.95833,215
41.96667,215
41.97500,215
41.98333,214
41.99167,214
42.00000,214
42.00833,213
42.01667,213
42.02500,212
42.03333,212
42.04167,211
42.05000,211
42.05833,210
42.06667,210
42.07500,209
42.08333,209
42.09167,208
42.10000,208
42.10833,207
42.11667,207
42.12500,206
42.13333,206
42.14167,205
42.15000,205
42.15833,204
42.16667,204
42.17500,203
42.18333,203
42.19167,202
42.20000,202
42.20833,201
42.21667,201
42.22500,200
42.23333,199
42.24167,199
42.25000,198
42.25833,198
42.26667,197
42.27500,197
42.28333,197
42.29167,196
42.30000,195
42.30833,194
42.31667,194
42.32500,193
42.33333,192
42.34167,192
42.35000,191
42.35833,190
42.36667,189
42.37500,189
42.38333,188
42.39167,187
42.40000,187
42.40833,186
42.41667,185
42.42500,184
42.43333,184
42.44167,184
42.45000,184
42.45833,183
42.46667,182
42.47500,181
42.48333,180
42.49167,180
42.50000,179
42.50833,178
42.51667,177
42.52500,177
42.53333,176
42.54167,176
42.55000,175
42.55833,174
42.56667,174
42.57500,173
42.58333,172
42.59167,171
42.60000,169
42.60833,168
42.61667,168
42.62500,167
42.63333,166
42.64167,166
42.65000,166
42.65833,165
42.66667,164
42.67500,164
42.68333,163
42.69167,162
42.70000,162
42.70833,161
42.71667,160
42.72500,160
42.73333,159
42.74167,158
42.75000,157
42.75833,156
42.76667,155
42.77500,154
42.78333,153
42.79167,152
42.80000,152
42.80833,151
42.81667,150
42.82500,150
42.83333,149
42.84167,148
42.85000,147
42.85833,146
42.86667,145
42.87500,143
42.88333,143
42.89167,142
42.90000,142
42.90833,141
42.91667,140
42.92500,139
42.93333,139
42.94167,138
42.95000,137
42.95833,136
42.96667,135
42.97500,134
42.98333,133
42.99167,133
43.00000,132
43.00833,131
43.01667,130
43.02500,129
43.03333,128
43.04167,127
43.05000,126
43.05833,125
43.06667,124
43.07500,124
43.08333,123
43.09167,122
43.10000,122
43.10833,121
43.11667,120
43.12500,119
43.13333,118
43.14167,117
43.15000,117
43.15833,116
43.16667,115
43.17500,115
43.18333,114
43.19167,113
43.20000,112
43.20833,112
43.21667,111
43.22500,111
43.23333,110
43.24167,109
43.25000,108
43.25833,107
43.26667,106
43.27500,105
43.28333,104
43.29167,103
43.30000,103
43.30833,102
43.31667,101
43.32500,101
43.33333,100
43.34167,99
43.35000,98
43.35833,98
43.36667,97
43.37500,96
43.38333,96
43.39167,95
43.40000,94
43.40833,93
43.41667,92
43.42500,91
43.43333,91
43.44167,90
43.45000,89
43.45833,88
43.46667,88
43.47500,87
43.48333,86
43.49167,86
43.50000,85
43.50833,84
43.51667,83
43.52500,83
43.53333,82
43.54167,81
43.55000,81
43.55833,80
43.56667,79
43.57500,79
43.58333,78
43.59167,77
43.60000,77
43.60833,76
43.61667,75
43.62500,74
43.63333,73
43.64167,72
43.65000,71
43.65833,71
43.66667,70
43.67500,69
43.68333,69
43.69167,68
43.70000,67
43.70833,67
43.71667,66
43.72500,65
43.73333,65
43.74167,64
43.75000,64
43.75833,63
43.76667,63
43.77500,62
43.78333,61
43.79167,60
43.80000,59
43.80833,58
43.81667,58
43.82500,57
43.83333,57
43.84167,56
43.85000,56
43.85833,55
43.86667,54
43.87500,53
43.88333,52
43.89167,52
43.90000,51
43.90833,51
43.91667,51
43.92500,51
43.93333,50
43.94167,50
43.95000,49
43.95833,49
43.96667,48
43.97500,47
43.98333,46
43.99167,45
44.00000,44
44.00833,44
44.01667,43
44.02500,43
44.03333,43
44.04167,42
44.05000,42
44.05833,41
44.06667,41
44.07500,40
44.08333,39
44.09167,38
44.10000,38
44.10833,37
44.11667,37
44.12500,36
44.13333,36
44.14167,35
44.15000,35
44.15833,34
44.16667,33
44.17500,33
44.18333,32
44.19167,32
44.20000,31
44.20833,31
44.21667,30
44.22500,30
44.23333,29
44.24167,28
44.25000,28
44.25833,27
44.26667,27
44.27500,27
44.28333,26
44.29167,26
44.30000,26
44.30833,25
44.31667,25
44.32500,25
44.33333,24
44.34167,24
44.35000,23
44.35833,23
44.36667,22
44.37500,22
44.38333,21
44.39167,21
44.40000,20
44.40833,20
44.41667,19
44.42500,19
44.43333,19
44.44167,19
44.45000,19
44.45833,19
44.46667,18
44.47500,18
44.48333,17
44.49167,17
44.50000,17
44.50833,16
44.51667,16
44.52500,15
44.53333,15
44.54167,15
44.55000,14
44.55833,14
44.56667,14
44.57500,13
44.58333,13
44.59167,13
44.60000,12
44.60833,12
44.61667,11
44.62500,11
44.63333,11
44.64167,11
44.65000,10
44.65833,10
44.66667,9
44.67500,9
44.68333,9
44.69167,8
44.70000,8
44.70833,7
44.71667,7
44.72500,7
44.73333,7
44.74167,7
44.75000,6
44.75833,6
44.76667,6
44.77500,6
44.78333,6
44.79167,6
44.80000,6
44.80833,5
44.81667,5
44.82500,4
44.83333,4
44.84167,4
44.85000,3
44.85833,3
44.86667,3
44.87500,4
44.88333,4
44.89167,3
44.90000,3
44.90833,3
44.91667,2
44.92500,2
44.93333,2
44.94167,3
44.95000,3
44.95833,2
44.96667,2
44.97500,1
44.98333,1
44.99167,1
45.00000,0
45.00833,0
45.01667,0
45.02500,0
45.03333,0
45.04167,-0
45.05000,-0
45.05833,-0
45.06667,0
45.07500,0
45.08333,0
45.09167,0
45.10000,0
45.10833,-0
45.11667,-0
45.12500,-0
45.13333,-1
45.14167,-1
45.15000,-1
45.15833,-1
45.16667,-1
45.17500,-1
45.18333,-2
45.19167,-2
45.20000,-2
45.20833,-2
45.21667,-2
45.22500,-2
45.23333,-1
45.24167,-1
45.25000,-2
45.25833,-2
45.26667,-2
45.27500,-2
45.28333,-2
45.29167,-2
45.30000,-2
45.30833,-2
45.31667,-3
45.32500,-3
45.33333,-3
45.34167,-2
45.35000,-2
45.35833,-2
45.36667,-2
45.37500,-2
45.38333,-2
45.39167,-2
45.40000,-2
45.40833,-2
45.41667,-2
45.42500,-2
45.43333,-2
45.44167,-2
45.45000,-2
45.45833,-3
45.46667,-2
45.47500,-2
45.48333,-2
45.49167,-2
45.50000,-2
45.50833,-2
45.51667,-3
45.52500,-3
45.53333,-2
45.54167,-2
45.55000,-2
45.55833,-3
45.56667,-3
45.57500,-3
45.58333,-3
45.59167,-3
45.60000,-3
45.60833,-3
45.61667,-3
45.62500,-3
45.63333,-3
45.64167,-3
45.65000,-3
45.65833,-3
45.66667,-3
45.67500,-3
45.68333,-3
45.69167,-3
45.70000,-3
45.70833,-3
45.71667,-3
45.72500,-3
45.73333,-3
45.74167,-3
45.75000,-3
45.75833,-3
45.76667,-4
45.77500,-4
45.78333,-3
45.79167,-3
45.80000,-3
45.80833,-3
45.81667,-3
45.82500,-3
45.83333,-3
45.84167,-3
45.85000,-4
45.85833,-4
45.86667,-4
45.87500,-4
45.88333,-5
45.89167,-5
45.90000,-5
45.90833,-5
45.91667,-6
45.92500,-6
45.93333,-6
45.94167,-6
45.95000,-5
45.95833,-5
45.96667,-6
45.97500,-6
45.98333,-6
45.99167,-7
46.00000,-7
46.00833,-7
46.01667,-7
46.02500,-7
46.03333,-7
46.04167,-8
46.05000,-8
46.05833,-8
46.06667,-8
46.07500,-8
46.08333,-9
46.09167,-9
46.10000,-9
46.10833,-9
46.11667,-9
46.12500,-9
46.13333,-9
46.14167,-9
46.15000,-9
46.15833,-9
46.16667,-9
46.17500,-9
46.18333,-10
46.19167,-10
46.20000,-11
46.20833,-11
46.21667,-12
46.22500,-12
46.23333,-12
46.24167,-12
46.25000,-12
46.25833,-12
46.26667,-12
46.27500,-13
46.28333,-13
46.29167,-13
46.30000,-13
46.30833,-13
46.31667,-13
46.32500,-14
46.33333,-14
46.34167,-14
46.35000,-14
46.35833,-14
46.36667,-14
46.37500,-15
46.38333,-15
46.39167,-15
46.40000,-15
46.40833,-16
46.41667,-16
46.42500,-17
46.43333,-17
46.44167,-17
46.45000,-17
46.45833,-17
46.46667,-18
46.47500,-18
46.48333,-18
46.49167,-18
46.50000,-18
46.50833,-19
46.51667,-19
46.52500,-19
46.53333,-19
46.54167,-20
46.55000,-20
46.55833,-21
46.56667,-21
46.57500,-21
46.58333,-21
46.59167,-21
46.60000,-22
46.60833,-22
46.61667,-22
46.62500,-23
46.63333,-23
46.64167,-23
46.65000,-23
46.65833,-23
46.66667,-24
46.67500,-24
46.68333,-24
46.69167,-25
46.70000,-25
46.70833,-26
46.71667,-26
46.72500,-26
46.73333,-26
46.74167,-26
46.75000,-26
46.75833,-26
46.76667,-26
46.77500,-26
46.78333,-26
46.79167,-25
46.80000,-25
46.80833,-25
46.81667,-25
46.82500,-25
46.83333,-26
46.84167,-26
46.85000,-27
46.85833,-27
46.86667,-28
46.87500,-28
46.88333,-29
46.89167,-29
46.90000,-29
46.90833,-29
46.91667,-28
46.92500,-28
46.93333,-28
46.94167,-28
46.95000,-28
46.95833,-28
46.96667,-29
46.97500,-29
46.98333,-28
46.99167,-28
47.00000,-28
47.00833,-28
47.01667,-28
47.02500,-27
47.03333,-27
47.04167,-27
47.05000,-27
47.05833,-27
47.06667,-27
47.07500,-27
47.08333,-27
47.09167,-27
47.10000,-27
47.10833,-27
47.11667,-27
47.12500,-27
47.13333,-27
47.14167,-26
47.15000,-26
47.15833,-25
47.16667,-25
47.17500,-24
47.18333,-24
47.19167,-24
47.20000,-24
47.20833,-24
47.21667,-24
47.22500,-24
47.23333,-23
47.24167,-23
47.25000,-23
47.25833,-23
47.26667,-22
47.27500,-21
47.28333,-21
47.29167,-20
47.30000,-20
47.30833,-20
47.31667,-19
47.32500,-19
47.33333,-19
47.34167,-19
47.35000,-19
47.35833,-19
47.36667,-18
47.37500,-17
47.38333,-17
47.39167,-16
47.40000,-15
47.40833,-14
47.41667,-13
47.42500,-12
47.43333,-11
47.44167,-10
47.45000,-10
47.45833,-10
47.46667,-9
47.47500,-8
47.48333,-8
47.49167,-7
47.50000,-7
47.50833,-6
47.51667,-6
47.52500,-5
47.53333,-5
47.54167,-4
47.55000,-4
47.55833,-3
47.56667,-2
47.57500,-2
47.58333,-1
47.59167,0
47.60000,2
47.60833,3
47.61667,4
47.62500,5
47.63333,6
47.64167,7
47.65000,8
47.65833,9
47.66667,9
47.67500,10
47.68333,11
47.69167,12
47.70000,12
47.70833,13
47.71667,13
47.72500,14
47.73333,15
47.74167,16
47.75000,16
47.75833,17
47.76667,18
47.77500,19
47.78333,20
47.79167,21
47.80000,21
47.80833,22
47.81667,23
47.82500,23
47.83333,24
47.84167,25
47.85000,26
47.85833,26
47.86667,27
47.87500,27
47.88333,28
47.89167,29
47.90000,30
47.90833,30
47.91667,31
47.92500,31
47.93333,32
47.94167,33
47.95000,33
47.95833,34
47.96667,34
47.97500,35
47.98333,35
47.99167,36
48.00000,36
48.00833,36
48.01667,37
48.02500,38
48.03333,38
48.04167,39
48.05000,40
48.05833,40
48.06667,41
48.07500,42
48.08333,42
48.09167,42
48.10000,43
48.10833,43
48.11667,43
48.12500,44
48.13333,44
48.14167,45
48.15000,45
48.15833,45
48.16667,46
48.17500,46
48.18333,46
48.19167,46
48.20000,46
48.20833,47
48.21667,47
48.22500,48
48.23333,48
48.24167,48
48.25000,49
48.25833,49
48.26667,49
48.27500,49
48.28333,49
48.29167,49
48.30000,50
48.30833,50
48.31667,50
48.32500,51
48.33333,51
48.34167,51
48.35000,51
48.35833,51
48.36667,51
48.37500,51
48.38333,51
48.39167,52
48.40000,51
48.40833,52
48.41667,52
48.42500,52
48.43333,52
48.44167,53
48.45000,53
48.45833,53
48.46667,53
48.47500,53
48.48333,53
48.49167,53
48.50000,53
48.50833,52
48.51667,52
48.52500,53
48.53333,53
48.54167,53
48.55000,53
48.55833,53
48.56667,53
48.57500,54
48.58333,53
48.59167,53
48.60000,53
48.60833,53
48.61667,53
48.62500,53
48.63333,53
48.64167,53
48.65000,53
48.65833,53
48.66667,53
48.67500,53
48.68333,53
48.69167,53
48.70000,53
48.70833,53
48.71667,53
48.72500,53
48.73333,54
48.74167,54
48.75000,54
48.75833,54
48.76667,55
48.77500,55
48.78333,55
48.79167,55
48.80000,54
48.80833,54
48.81667,54
48.82500,54
48.83333,55
48.84167,55
48.85000,55
48.85833,55
48.86667,54
48.87500,55
48.88333,55
48.89167,55
48.90000,55
48.90833,55
48.91667,56
48.92500,56
48.93333,56
48.94167,56
48.95000,56
48.95833,56
48.96667,56
48.97500,56
48.98333,56
48.99167,57
49.00000,57
49.00833,57
49.01667,56
49.02500,56
49.03333,57
49.04167,57
49.05000,57
49.05833,56
49.06667,56
49.07500,57
49.08333,57
49.09167,57
49.10000,56
49.10833,56
49.11667,56
49.12500,56
49.13333,56
49.14167,56
49.15000,57
49.15833,57
49.16667,57
49.17500,57
49.18333,57
49.19167,57
49.20000,57
49.20833,57
49.21667,57
49.22500,57
49.23333,57
49.24167,57
49.25000,57
49.25833,56
49.26667,56
49.27500,56
49.28333,57
49.29167,57
49.30000,56
49.30833,56
49.31667,55
49.32500,55
49.33333,55
49.34167,55
49.35000,55
49.35833,55
49.36667,55
49.37500,55
49.38333,55
49.39167,55
49.40000,55
49.40833,55
49.41667,55
49.42500,54
49.43333,54
49.44167,54
49.45000,54
49.45833,54
49.46667,53
49.47500,53
49.48333,53
49.49167,53
49.50000,53
49.50833,52
49.51667,52
49.52500,52
49.53333,52
49.54167,51
49.55000,51
49.55833,51
49.56667,50
49.57500,50
49.58333,49
49.59167,49
49.60000,49
49.60833,48
49.61667,48
49.62500,48
49.63333,47
49.64167,47
49.65000,47
49.65833,47
49.66667,47
49.67500,46
49.68333,46
49.69167,46
49.70000,45
49.70833,45
49.71667,44
49.72500,44
49.73333,43
49.74167,43
49.75000,42
49.75833,42
49.76667,42
49.77500,41
49.78333,40
49.79167,40
49.80000,39
49.80833,38
49.81667,38
49.82500,37
49.83333,37
49.84167,36
49.85000,36
49.85833,35
49.86667,35
49.87500,34
49.88333,33
49.89167,32
49.90000,32
49.90833,31
49.91667,30
49.92500,30
49.93333,29
49.94167,28
49.95000,27
49.95833,27
49.96667,26
49.97500,26
49.98333,25
49.99167,24
50.00000,24

