[Header]
Application Name,LabSolutions
Version,5.97 SP1
Data File Name,C:\Users\cremerlab\Desktop\Richa\Oct_17th_2022_yield_expt\Oct 17th 2022 yield expt_10172022_001_004.lcd
Output Date,10/17/2022
Output Time,9:16:31 PM

[File Information]
Type,Data File
Generated,10/17/2022 8:26:12 PM
Generated by,System Administrator
Modified,10/17/2022 9:16:31 PM
Modified by,System Administrator

[Sample Information]
Operator Name,System Administrator
Acquired,10/17/2022 8:26:30 PM
Sample Type,0:Unknown
Level,0
Sample Name,101822_NCM_Trp_3
Sample ID,001
ISTD Amount1,1
ISTD Amount2,1
ISTD Amount3,1
ISTD Amount4,1
ISTD Amount5,1
ISTD Amount6,1
ISTD Amount7,1
ISTD Amount8,1
ISTD Amount9,1
ISTD Amount10,1
ISTD Amount11,1
ISTD Amount12,1
ISTD Amount13,1
ISTD Amount14,1
ISTD Amount15,1
ISTD Amount16,1
ISTD Amount17,1
ISTD Amount18,1
ISTD Amount19,1
ISTD Amount20,1
ISTD Amount21,1
ISTD Amount22,1
ISTD Amount23,1
ISTD Amount24,1
ISTD Amount25,1
ISTD Amount26,1
ISTD Amount27,1
ISTD Amount28,1
ISTD Amount29,1
ISTD Amount30,1
ISTD Amount31,1
ISTD Amount32,1
Sample Amount,1
Dilution Factor,1
Vial#,3
Injection Volume,20

[Original Files]
Data File,C:\Users\cremerlab\Desktop\Richa\Oct_17th_2022_yield_expt\Oct 17th 2022 yield expt_10172022_001_004.lcd
Method File,C:\Users\cremerlab\Desktop\Richa\acetate_excretion.lcm
Batch File,C:\Users\cremerlab\Desktop\Richa\Oct_17th_2022_yield_expt\Oct 17th 2022 yield expt.lcb
Report Format File,c:\LabSolutions\System\DEFAULT.lsr

[File Description]


[Configuration]
Instrument Name,HPLC-PC-Instrument1
Instrument #,1
Line #,1
# of Detectors,2
Detector ID,Detector A,Detector B
Detector Name,Detector A,Detector B
# of Channels,1,1

[Peak Table(Detector A)]
# of Peaks,0

[Peak Table(Detector B)]
# of Peaks,13
Peak#,R.Time,I.Time,F.Time,Area,Height,A/H,Conc.,Mark,ID#,Name,k',Plate #,Plate Ht.,Tailing,Resolution,Sep.Factor,Area Ratio,Height Ratio,Conc. %,Norm Conc.
1,10.483,10.283,10.517,1284,176,7.292,0.000,   ,,,0.000,7666,19.567,0.000,0.000,0.000,0,0,0.000,0.000
2,11.033,10.517,12.317,2275009,115594,19.681,0.000, V ,,,0.052,7461,20.105,0.968,1.110,0.000,0,0,0.000,0.000
3,14.348,12.650,15.200,3577492,76016,47.063,0.000,   ,,,0.369,2466,60.836,0.652,3.978,7.034,0,0,0.000,0.000
4,15.775,15.200,17.200,1438061,49375,29.125,0.000, V ,,,0.505,6917,21.686,1.144,1.491,1.369,0,0,0.000,0.000
5,17.867,17.400,18.442,8115,267,30.380,0.000,   ,,,0.704,7155,20.964,1.045,2.609,1.395,0,0,0.000,0.000
6,19.061,18.475,19.742,10874,278,39.175,0.000,   ,,,0.818,5017,29.896,1.053,1.243,1.162,0,0,0.000,0.000
7,20.290,19.742,20.592,19676,619,31.795,0.000,   ,,,0.935,4517,33.210,0.000,1.076,1.143,0,0,0.000,0.000
8,20.949,20.592,21.450,26842,695,38.601,0.000, V ,,,0.998,3759,39.906,0.000,0.512,1.067,0,0,0.000,0.000
9,21.881,21.450,22.525,22558,612,36.889,0.000, V ,,,1.087,7124,21.055,0.000,0.775,1.089,0,0,0.000,0.000
10,23.134,22.525,24.267,28701,758,37.872,0.000,   ,,,1.207,9126,16.436,1.294,1.249,1.110,0,0,0.000,0.000
11,25.085,24.308,26.400,169254,4125,41.034,0.000,   ,,,1.393,8991,16.683,1.133,1.924,1.154,0,0,0.000,0.000
12,29.170,28.308,30.625,142076,2865,49.591,0.000,   ,,,1.782,8635,17.371,1.266,3.531,1.280,0,0,0.000,0.000
13,32.416,31.617,34.383,40780,601,67.877,0.000,   ,,,2.092,7537,19.903,1.621,2.361,1.174,0,0,0.000,0.000

[LC Chromatogram(Detector B-Ch1)]
Interval(msec),500
# of Points,6001
Start Time(min),0.000
End Time(min),50.000
Intensity Units,mV
Intensity Multiplier,0.001
R.Time (min),Intensity
0.00000,-19
0.00833,-19
0.01667,-0
0.02500,-0
0.03333,-1
0.04167,-1
0.05000,-1
0.05833,-2
0.06667,-3
0.07500,-4
0.08333,-5
0.09167,-6
0.10000,-6
0.10833,-7
0.11667,-8
0.12500,-8
0.13333,-9
0.14167,-9
0.15000,-10
0.15833,-11
0.16667,-11
0.17500,-12
0.18333,-12
0.19167,-13
0.20000,-13
0.20833,-14
0.21667,-14
0.22500,-14
0.23333,-15
0.24167,-15
0.25000,-16
0.25833,-16
0.26667,-17
0.27500,-18
0.28333,-18
0.29167,-18
0.30000,-18
0.30833,-19
0.31667,-20
0.32500,-20
0.33333,-20
0.34167,-20
0.35000,-20
0.35833,-21
0.36667,-21
0.37500,-21
0.38333,-22
0.39167,-22
0.40000,-22
0.40833,-22
0.41667,-23
0.42500,-23
0.43333,-23
0.44167,-23
0.45000,-24
0.45833,-24
0.46667,-24
0.47500,-24
0.48333,-24
0.49167,-24
0.50000,-24
0.50833,-25
0.51667,-25
0.52500,-25
0.53333,-26
0.54167,-26
0.55000,-27
0.55833,-27
0.56667,-27
0.57500,-27
0.58333,-28
0.59167,-28
0.60000,-27
0.60833,-27
0.61667,-27
0.62500,-27
0.63333,-27
0.64167,-27
0.65000,-28
0.65833,-28
0.66667,-28
0.67500,-28
0.68333,-29
0.69167,-29
0.70000,-29
0.70833,-29
0.71667,-30
0.72500,-30
0.73333,-29
0.74167,-29
0.75000,-29
0.75833,-29
0.76667,-30
0.77500,-30
0.78333,-30
0.79167,-30
0.80000,-30
0.80833,-30
0.81667,-29
0.82500,-29
0.83333,-29
0.84167,-30
0.85000,-30
0.85833,-30
0.86667,-30
0.87500,-30
0.88333,-30
0.89167,-30
0.90000,-31
0.90833,-31
0.91667,-31
0.92500,-31
0.93333,-30
0.94167,-30
0.95000,-29
0.95833,-29
0.96667,-29
0.97500,-29
0.98333,-29
0.99167,-29
1.00000,-29
1.00833,-28
1.01667,-28
1.02500,-28
1.03333,-27
1.04167,-27
1.05000,-28
1.05833,-28
1.06667,-28
1.07500,-28
1.08333,-28
1.09167,-28
1.10000,-28
1.10833,-28
1.11667,-28
1.12500,-28
1.13333,-28
1.14167,-28
1.15000,-28
1.15833,-28
1.16667,-28
1.17500,-28
1.18333,-28
1.19167,-28
1.20000,-28
1.20833,-28
1.21667,-28
1.22500,-28
1.23333,-28
1.24167,-28
1.25000,-28
1.25833,-28
1.26667,-28
1.27500,-28
1.28333,-28
1.29167,-29
1.30000,-28
1.30833,-28
1.31667,-28
1.32500,-28
1.33333,-28
1.34167,-28
1.35000,-28
1.35833,-28
1.36667,-28
1.37500,-28
1.38333,-28
1.39167,-28
1.40000,-27
1.40833,-27
1.41667,-27
1.42500,-28
1.43333,-28
1.44167,-28
1.45000,-29
1.45833,-29
1.46667,-28
1.47500,-28
1.48333,-28
1.49167,-28
1.50000,-28
1.50833,-28
1.51667,-28
1.52500,-29
1.53333,-29
1.54167,-29
1.55000,-30
1.55833,-30
1.56667,-30
1.57500,-30
1.58333,-30
1.59167,-30
1.60000,-30
1.60833,-30
1.61667,-30
1.62500,-30
1.63333,-30
1.64167,-30
1.65000,-30
1.65833,-30
1.66667,-30
1.67500,-31
1.68333,-31
1.69167,-31
1.70000,-31
1.70833,-31
1.71667,-31
1.72500,-31
1.73333,-31
1.74167,-31
1.75000,-32
1.75833,-32
1.76667,-32
1.77500,-32
1.78333,-33
1.79167,-33
1.80000,-33
1.80833,-33
1.81667,-34
1.82500,-34
1.83333,-34
1.84167,-34
1.85000,-34
1.85833,-34
1.86667,-35
1.87500,-35
1.88333,-35
1.89167,-34
1.90000,-35
1.90833,-35
1.91667,-35
1.92500,-35
1.93333,-36
1.94167,-36
1.95000,-36
1.95833,-36
1.96667,-37
1.97500,-37
1.98333,-37
1.99167,-37
2.00000,-38
2.00833,-38
2.01667,-38
2.02500,-39
2.03333,-39
2.04167,-39
2.05000,-39
2.05833,-40
2.06667,-40
2.07500,-41
2.08333,-41
2.09167,-41
2.10000,-41
2.10833,-42
2.11667,-42
2.12500,-42
2.13333,-42
2.14167,-42
2.15000,-42
2.15833,-43
2.16667,-43
2.17500,-43
2.18333,-43
2.19167,-44
2.20000,-44
2.20833,-45
2.21667,-45
2.22500,-45
2.23333,-45
2.24167,-45
2.25000,-45
2.25833,-46
2.26667,-46
2.27500,-47
2.28333,-48
2.29167,-49
2.30000,-49
2.30833,-49
2.31667,-49
2.32500,-49
2.33333,-49
2.34167,-50
2.35000,-50
2.35833,-51
2.36667,-51
2.37500,-51
2.38333,-52
2.39167,-52
2.40000,-52
2.40833,-52
2.41667,-53
2.42500,-53
2.43333,-54
2.44167,-54
2.45000,-54
2.45833,-54
2.46667,-54
2.47500,-54
2.48333,-55
2.49167,-55
2.50000,-55
2.50833,-55
2.51667,-55
2.52500,-56
2.53333,-56
2.54167,-57
2.55000,-57
2.55833,-58
2.56667,-58
2.57500,-58
2.58333,-58
2.59167,-58
2.60000,-59
2.60833,-59
2.61667,-60
2.62500,-59
2.63333,-59
2.64167,-59
2.65000,-60
2.65833,-60
2.66667,-60
2.67500,-61
2.68333,-61
2.69167,-61
2.70000,-61
2.70833,-61
2.71667,-61
2.72500,-62
2.73333,-62
2.74167,-62
2.75000,-62
2.75833,-63
2.76667,-63
2.77500,-64
2.78333,-64
2.79167,-64
2.80000,-65
2.80833,-64
2.81667,-64
2.82500,-64
2.83333,-64
2.84167,-64
2.85000,-64
2.85833,-64
2.86667,-64
2.87500,-64
2.88333,-64
2.89167,-65
2.90000,-65
2.90833,-65
2.91667,-65
2.92500,-65
2.93333,-65
2.94167,-66
2.95000,-66
2.95833,-66
2.96667,-66
2.97500,-66
2.98333,-66
2.99167,-66
3.00000,-66
3.00833,-66
3.01667,-67
3.02500,-67
3.03333,-67
3.04167,-67
3.05000,-67
3.05833,-67
3.06667,-67
3.07500,-67
3.08333,-67
3.09167,-67
3.10000,-67
3.10833,-67
3.11667,-67
3.12500,-68
3.13333,-67
3.14167,-67
3.15000,-67
3.15833,-67
3.16667,-67
3.17500,-67
3.18333,-67
3.19167,-67
3.20000,-67
3.20833,-67
3.21667,-67
3.22500,-67
3.23333,-67
3.24167,-67
3.25000,-67
3.25833,-67
3.26667,-68
3.27500,-68
3.28333,-68
3.29167,-67
3.30000,-67
3.30833,-66
3.31667,-67
3.32500,-67
3.33333,-67
3.34167,-67
3.35000,-66
3.35833,-66
3.36667,-66
3.37500,-66
3.38333,-66
3.39167,-66
3.40000,-66
3.40833,-66
3.41667,-66
3.42500,-66
3.43333,-66
3.44167,-66
3.45000,-66
3.45833,-65
3.46667,-65
3.47500,-66
3.48333,-66
3.49167,-66
3.50000,-66
3.50833,-65
3.51667,-65
3.52500,-65
3.53333,-65
3.54167,-65
3.55000,-65
3.55833,-65
3.56667,-65
3.57500,-65
3.58333,-64
3.59167,-64
3.60000,-64
3.60833,-63
3.61667,-63
3.62500,-63
3.63333,-63
3.64167,-63
3.65000,-64
3.65833,-64
3.66667,-63
3.67500,-63
3.68333,-63
3.69167,-62
3.70000,-62
3.70833,-63
3.71667,-62
3.72500,-62
3.73333,-61
3.74167,-61
3.75000,-61
3.75833,-61
3.76667,-61
3.77500,-60
3.78333,-60
3.79167,-59
3.80000,-59
3.80833,-58
3.81667,-58
3.82500,-58
3.83333,-58
3.84167,-58
3.85000,-58
3.85833,-58
3.86667,-57
3.87500,-57
3.88333,-57
3.89167,-57
3.90000,-56
3.90833,-56
3.91667,-55
3.92500,-55
3.93333,-55
3.94167,-54
3.95000,-54
3.95833,-54
3.96667,-53
3.97500,-53
3.98333,-52
3.99167,-52
4.00000,-52
4.00833,-51
4.01667,-50
4.02500,-50
4.03333,-49
4.04167,-48
4.05000,-48
4.05833,-47
4.06667,-47
4.07500,-47
4.08333,-47
4.09167,-46
4.10000,-46
4.10833,-45
4.11667,-45
4.12500,-44
4.13333,-44
4.14167,-44
4.15000,-43
4.15833,-42
4.16667,-42
4.17500,-41
4.18333,-41
4.19167,-40
4.20000,-39
4.20833,-38
4.21667,-38
4.22500,-37
4.23333,-37
4.24167,-36
4.25000,-36
4.25833,-35
4.26667,-35
4.27500,-34
4.28333,-34
4.29167,-33
4.30000,-32
4.30833,-32
4.31667,-31
4.32500,-31
4.33333,-30
4.34167,-30
4.35000,-29
4.35833,-29
4.36667,-29
4.37500,-29
4.38333,-28
4.39167,-28
4.40000,-27
4.40833,-27
4.41667,-27
4.42500,-26
4.43333,-25
4.44167,-25
4.45000,-25
4.45833,-24
4.46667,-24
4.47500,-23
4.48333,-22
4.49167,-22
4.50000,-21
4.50833,-21
4.51667,-20
4.52500,-20
4.53333,-20
4.54167,-19
4.55000,-19
4.55833,-18
4.56667,-18
4.57500,-17
4.58333,-17
4.59167,-17
4.60000,-17
4.60833,-17
4.61667,-17
4.62500,-16
4.63333,-16
4.64167,-16
4.65000,-15
4.65833,-15
4.66667,-15
4.67500,-15
4.68333,-15
4.69167,-15
4.70000,-15
4.70833,-15
4.71667,-15
4.72500,-15
4.73333,-15
4.74167,-14
4.75000,-14
4.75833,-14
4.76667,-14
4.77500,-14
4.78333,-14
4.79167,-14
4.80000,-14
4.80833,-14
4.81667,-14
4.82500,-14
4.83333,-14
4.84167,-14
4.85000,-14
4.85833,-14
4.86667,-14
4.87500,-14
4.88333,-14
4.89167,-14
4.90000,-14
4.90833,-15
4.91667,-15
4.92500,-15
4.93333,-15
4.94167,-15
4.95000,-16
4.95833,-16
4.96667,-16
4.97500,-17
4.98333,-17
4.99167,-17
5.00000,-18
5.00833,-18
5.01667,-19
5.02500,-19
5.03333,-19
5.04167,-20
5.05000,-20
5.05833,-21
5.06667,-21
5.07500,-22
5.08333,-22
5.09167,-22
5.10000,-22
5.10833,-23
5.11667,-23
5.12500,-23
5.13333,-23
5.14167,-23
5.15000,-24
5.15833,-24
5.16667,-25
5.17500,-25
5.18333,-26
5.19167,-26
5.20000,-26
5.20833,-27
5.21667,-28
5.22500,-28
5.23333,-29
5.24167,-30
5.25000,-30
5.25833,-31
5.26667,-31
5.27500,-32
5.28333,-33
5.29167,-34
5.30000,-34
5.30833,-35
5.31667,-36
5.32500,-36
5.33333,-37
5.34167,-38
5.35000,-38
5.35833,-39
5.36667,-39
5.37500,-40
5.38333,-40
5.39167,-41
5.40000,-42
5.40833,-43
5.41667,-44
5.42500,-44
5.43333,-45
5.44167,-46
5.45000,-47
5.45833,-47
5.46667,-48
5.47500,-49
5.48333,-50
5.49167,-51
5.50000,-52
5.50833,-52
5.51667,-53
5.52500,-54
5.53333,-55
5.54167,-56
5.55000,-57
5.55833,-58
5.56667,-59
5.57500,-59
5.58333,-60
5.59167,-61
5.60000,-63
5.60833,-63
5.61667,-64
5.62500,-64
5.63333,-65
5.64167,-66
5.65000,-67
5.65833,-68
5.66667,-69
5.67500,-70
5.68333,-70
5.69167,-71
5.70000,-72
5.70833,-73
5.71667,-74
5.72500,-75
5.73333,-76
5.74167,-76
5.75000,-77
5.75833,-78
5.76667,-79
5.77500,-80
5.78333,-81
5.79167,-82
5.80000,-83
5.80833,-84
5.81667,-85
5.82500,-85
5.83333,-86
5.84167,-87
5.85000,-87
5.85833,-88
5.86667,-89
5.87500,-90
5.88333,-91
5.89167,-92
5.90000,-94
5.90833,-95
5.91667,-95
5.92500,-96
5.93333,-97
5.94167,-98
5.95000,-98
5.95833,-99
5.96667,-100
5.97500,-101
5.98333,-102
5.99167,-102
6.00000,-103
6.00833,-104
6.01667,-105
6.02500,-106
6.03333,-106
6.04167,-107
6.05000,-107
6.05833,-108
6.06667,-109
6.07500,-110
6.08333,-111
6.09167,-112
6.10000,-113
6.10833,-113
6.11667,-114
6.12500,-114
6.13333,-115
6.14167,-115
6.15000,-116
6.15833,-117
6.16667,-117
6.17500,-118
6.18333,-119
6.19167,-119
6.20000,-119
6.20833,-120
6.21667,-120
6.22500,-121
6.23333,-121
6.24167,-122
6.25000,-122
6.25833,-123
6.26667,-123
6.27500,-124
6.28333,-124
6.29167,-125
6.30000,-125
6.30833,-125
6.31667,-126
6.32500,-126
6.33333,-127
6.34167,-127
6.35000,-128
6.35833,-128
6.36667,-129
6.37500,-129
6.38333,-130
6.39167,-130
6.40000,-131
6.40833,-131
6.41667,-132
6.42500,-132
6.43333,-132
6.44167,-133
6.45000,-134
6.45833,-134
6.46667,-134
6.47500,-134
6.48333,-134
6.49167,-135
6.50000,-135
6.50833,-135
6.51667,-136
6.52500,-136
6.53333,-136
6.54167,-137
6.55000,-137
6.55833,-137
6.56667,-137
6.57500,-138
6.58333,-138
6.59167,-138
6.60000,-138
6.60833,-139
6.61667,-139
6.62500,-139
6.63333,-139
6.64167,-140
6.65000,-140
6.65833,-140
6.66667,-141
6.67500,-141
6.68333,-141
6.69167,-142
6.70000,-142
6.70833,-142
6.71667,-142
6.72500,-142
6.73333,-142
6.74167,-142
6.75000,-142
6.75833,-142
6.76667,-143
6.77500,-143
6.78333,-143
6.79167,-143
6.80000,-143
6.80833,-143
6.81667,-143
6.82500,-143
6.83333,-143
6.84167,-143
6.85000,-143
6.85833,-144
6.86667,-144
6.87500,-144
6.88333,-144
6.89167,-144
6.90000,-145
6.90833,-145
6.91667,-145
6.92500,-145
6.93333,-146
6.94167,-146
6.95000,-146
6.95833,-146
6.96667,-146
6.97500,-146
6.98333,-146
6.99167,-146
7.00000,-146
7.00833,-146
7.01667,-146
7.02500,-146
7.03333,-146
7.04167,-146
7.05000,-147
7.05833,-147
7.06667,-147
7.07500,-147
7.08333,-147
7.09167,-148
7.10000,-148
7.10833,-148
7.11667,-149
7.12500,-149
7.13333,-149
7.14167,-149
7.15000,-149
7.15833,-149
7.16667,-149
7.17500,-149
7.18333,-149
7.19167,-150
7.20000,-150
7.20833,-150
7.21667,-151
7.22500,-151
7.23333,-151
7.24167,-152
7.25000,-152
7.25833,-152
7.26667,-152
7.27500,-152
7.28333,-152
7.29167,-152
7.30000,-152
7.30833,-152
7.31667,-152
7.32500,-152
7.33333,-152
7.34167,-152
7.35000,-152
7.35833,-152
7.36667,-152
7.37500,-152
7.38333,-152
7.39167,-152
7.40000,-152
7.40833,-152
7.41667,-153
7.42500,-153
7.43333,-154
7.44167,-154
7.45000,-154
7.45833,-154
7.46667,-154
7.47500,-155
7.48333,-155
7.49167,-155
7.50000,-155
7.50833,-155
7.51667,-155
7.52500,-155
7.53333,-155
7.54167,-155
7.55000,-156
7.55833,-156
7.56667,-156
7.57500,-156
7.58333,-156
7.59167,-156
7.60000,-157
7.60833,-157
7.61667,-157
7.62500,-157
7.63333,-157
7.64167,-157
7.65000,-158
7.65833,-158
7.66667,-158
7.67500,-158
7.68333,-158
7.69167,-158
7.70000,-158
7.70833,-158
7.71667,-158
7.72500,-158
7.73333,-158
7.74167,-158
7.75000,-158
7.75833,-159
7.76667,-159
7.77500,-159
7.78333,-159
7.79167,-159
7.80000,-159
7.80833,-160
7.81667,-160
7.82500,-161
7.83333,-161
7.84167,-161
7.85000,-161
7.85833,-161
7.86667,-161
7.87500,-161
7.88333,-161
7.89167,-161
7.90000,-161
7.90833,-161
7.91667,-161
7.92500,-161
7.93333,-161
7.94167,-161
7.95000,-162
7.95833,-162
7.96667,-162
7.97500,-162
7.98333,-162
7.99167,-163
8.00000,-163
8.00833,-164
8.01667,-164
8.02500,-164
8.03333,-165
8.04167,-165
8.05000,-165
8.05833,-165
8.06667,-165
8.07500,-165
8.08333,-165
8.09167,-166
8.10000,-166
8.10833,-166
8.11667,-166
8.12500,-166
8.13333,-166
8.14167,-166
8.15000,-166
8.15833,-166
8.16667,-166
8.17500,-166
8.18333,-167
8.19167,-167
8.20000,-167
8.20833,-167
8.21667,-167
8.22500,-167
8.23333,-167
8.24167,-168
8.25000,-167
8.25833,-167
8.26667,-168
8.27500,-168
8.28333,-168
8.29167,-168
8.30000,-168
8.30833,-168
8.31667,-169
8.32500,-169
8.33333,-169
8.34167,-169
8.35000,-169
8.35833,-169
8.36667,-169
8.37500,-169
8.38333,-169
8.39167,-169
8.40000,-170
8.40833,-170
8.41667,-170
8.42500,-171
8.43333,-171
8.44167,-171
8.45000,-171
8.45833,-171
8.46667,-171
8.47500,-171
8.48333,-171
8.49167,-171
8.50000,-171
8.50833,-172
8.51667,-172
8.52500,-172
8.53333,-172
8.54167,-172
8.55000,-172
8.55833,-172
8.56667,-172
8.57500,-173
8.58333,-173
8.59167,-174
8.60000,-174
8.60833,-174
8.61667,-174
8.62500,-175
8.63333,-175
8.64167,-175
8.65000,-175
8.65833,-175
8.66667,-175
8.67500,-175
8.68333,-175
8.69167,-175
8.70000,-175
8.70833,-175
8.71667,-175
8.72500,-175
8.73333,-175
8.74167,-176
8.75000,-176
8.75833,-176
8.76667,-176
8.77500,-176
8.78333,-176
8.79167,-176
8.80000,-176
8.80833,-176
8.81667,-176
8.82500,-176
8.83333,-176
8.84167,-176
8.85000,-176
8.85833,-177
8.86667,-177
8.87500,-178
8.88333,-178
8.89167,-178
8.90000,-178
8.90833,-178
8.91667,-178
8.92500,-178
8.93333,-178
8.94167,-178
8.95000,-179
8.95833,-179
8.96667,-179
8.97500,-178
8.98333,-178
8.99167,-178
9.00000,-179
9.00833,-179
9.01667,-179
9.02500,-180
9.03333,-180
9.04167,-180
9.05000,-180
9.05833,-180
9.06667,-180
9.07500,-181
9.08333,-181
9.09167,-180
9.10000,-180
9.10833,-180
9.11667,-181
9.12500,-181
9.13333,-181
9.14167,-181
9.15000,-181
9.15833,-181
9.16667,-181
9.17500,-181
9.18333,-181
9.19167,-181
9.20000,-181
9.20833,-182
9.21667,-182
9.22500,-182
9.23333,-182
9.24167,-182
9.25000,-182
9.25833,-182
9.26667,-182
9.27500,-182
9.28333,-182
9.29167,-182
9.30000,-182
9.30833,-182
9.31667,-182
9.32500,-183
9.33333,-183
9.34167,-183
9.35000,-183
9.35833,-183
9.36667,-183
9.37500,-183
9.38333,-183
9.39167,-183
9.40000,-184
9.40833,-184
9.41667,-184
9.42500,-184
9.43333,-184
9.44167,-185
9.45000,-185
9.45833,-184
9.46667,-184
9.47500,-184
9.48333,-184
9.49167,-184
9.50000,-185
9.50833,-185
9.51667,-185
9.52500,-186
9.53333,-186
9.54167,-186
9.55000,-187
9.55833,-187
9.56667,-187
9.57500,-187
9.58333,-187
9.59167,-187
9.60000,-187
9.60833,-187
9.61667,-187
9.62500,-187
9.63333,-186
9.64167,-186
9.65000,-187
9.65833,-187
9.66667,-187
9.67500,-187
9.68333,-187
9.69167,-187
9.70000,-188
9.70833,-188
9.71667,-188
9.72500,-188
9.73333,-188
9.74167,-188
9.75000,-189
9.75833,-189
9.76667,-188
9.77500,-188
9.78333,-188
9.79167,-188
9.80000,-189
9.80833,-189
9.81667,-189
9.82500,-189
9.83333,-189
9.84167,-189
9.85000,-189
9.85833,-189
9.86667,-189
9.87500,-189
9.88333,-189
9.89167,-190
9.90000,-190
9.90833,-190
9.91667,-190
9.92500,-189
9.93333,-189
9.94167,-189
9.95000,-189
9.95833,-189
9.96667,-189
9.97500,-189
9.98333,-189
9.99167,-190
10.00000,-190
10.00833,-190
10.01667,-190
10.02500,-190
10.03333,-190
10.04167,-190
10.05000,-190
10.05833,-189
10.06667,-189
10.07500,-189
10.08333,-188
10.09167,-189
10.10000,-188
10.10833,-188
10.11667,-188
10.12500,-188
10.13333,-188
10.14167,-188
10.15000,-187
10.15833,-186
10.16667,-185
10.17500,-184
10.18333,-184
10.19167,-183
10.20000,-182
10.20833,-181
10.21667,-179
10.22500,-178
10.23333,-177
10.24167,-175
10.25000,-174
10.25833,-173
10.26667,-171
10.27500,-169
10.28333,-167
10.29167,-164
10.30000,-161
10.30833,-157
10.31667,-153
10.32500,-148
10.33333,-142
10.34167,-135
10.35000,-126
10.35833,-117
10.36667,-106
10.37500,-94
10.38333,-80
10.39167,-65
10.40000,-49
10.40833,-32
10.41667,-15
10.42500,2
10.43333,18
10.44167,32
10.45000,45
10.45833,55
10.46667,62
10.47500,67
10.48333,69
10.49167,68
10.50000,65
10.50833,63
10.51667,62
10.52500,65
10.53333,75
10.54167,95
10.55000,129
10.55833,182
10.56667,258
10.57500,363
10.58333,502
10.59167,679
10.60000,903
10.60833,1177
10.61667,1509
10.62500,1903
10.63333,2367
10.64167,2906
10.65000,3524
10.65833,4227
10.66667,5019
10.67500,5906
10.68333,6891
10.69167,7978
10.70000,9172
10.70833,10474
10.71667,11889
10.72500,13418
10.73333,15063
10.74167,16825
10.75000,18706
10.75833,20707
10.76667,22827
10.77500,25068
10.78333,27427
10.79167,29905
10.80000,32501
10.80833,35212
10.81667,38037
10.82500,40973
10.83333,44016
10.84167,47163
10.85000,50408
10.85833,53747
10.86667,57174
10.87500,60681
10.88333,64259
10.89167,67899
10.90000,71589
10.90833,75314
10.91667,79060
10.92500,82805
10.93333,86527
10.94167,90201
10.95000,93794
10.95833,97272
10.96667,100596
10.97500,103721
10.98333,106599
10.99167,109177
11.00000,111400
11.00833,113213
11.01667,114560
11.02500,115388
11.03333,115650
11.04167,115305
11.05000,114327
11.05833,112700
11.06667,110426
11.07500,107524
11.08333,104031
11.09167,100001
11.10000,95505
11.10833,90623
11.11667,85446
11.12500,80071
11.13333,74590
11.14167,69095
11.15000,63670
11.15833,58387
11.16667,53308
11.17500,48483
11.18333,43947
11.19167,39725
11.20000,35830
11.20833,32265
11.21667,29027
11.22500,26102
11.23333,23477
11.24167,21132
11.25000,19045
11.25833,17195
11.26667,15560
11.27500,14117
11.28333,12845
11.29167,11726
11.30000,10741
11.30833,9874
11.31667,9109
11.32500,8434
11.33333,7837
11.34167,7307
11.35000,6837
11.35833,6416
11.36667,6040
11.37500,5702
11.38333,5397
11.39167,5120
11.40000,4867
11.40833,4637
11.41667,4424
11.42500,4229
11.43333,4047
11.44167,3878
11.45000,3720
11.45833,3571
11.46667,3432
11.47500,3301
11.48333,3177
11.49167,3059
11.50000,2947
11.50833,2841
11.51667,2739
11.52500,2642
11.53333,2549
11.54167,2461
11.55000,2375
11.55833,2294
11.56667,2216
11.57500,2142
11.58333,2070
11.59167,2001
11.60000,1935
11.60833,1872
11.61667,1811
11.62500,1752
11.63333,1696
11.64167,1642
11.65000,1590
11.65833,1540
11.66667,1492
11.67500,1446
11.68333,1402
11.69167,1360
11.70000,1319
11.70833,1280
11.71667,1242
11.72500,1206
11.73333,1172
11.74167,1139
11.75000,1107
11.75833,1076
11.76667,1047
11.77500,1019
11.78333,992
11.79167,966
11.80000,941
11.80833,917
11.81667,895
11.82500,873
11.83333,852
11.84167,832
11.85000,813
11.85833,794
11.86667,776
11.87500,760
11.88333,744
11.89167,729
11.90000,714
11.90833,700
11.91667,687
11.92500,674
11.93333,662
11.94167,650
11.95000,638
11.95833,627
11.96667,617
11.97500,607
11.98333,597
11.99167,588
12.00000,579
12.00833,571
12.01667,563
12.02500,555
12.03333,548
12.04167,541
12.05000,534
12.05833,527
12.06667,521
12.07500,515
12.08333,509
12.09167,503
12.10000,498
12.10833,493
12.11667,489
12.12500,484
12.13333,480
12.14167,476
12.15000,472
12.15833,468
12.16667,465
12.17500,462
12.18333,459
12.19167,456
12.20000,454
12.20833,451
12.21667,449
12.22500,448
12.23333,446
12.24167,444
12.25000,443
12.25833,441
12.26667,440
12.27500,439
12.28333,438
12.29167,437
12.30000,436
12.30833,436
12.31667,436
12.32500,436
12.33333,436
12.34167,436
12.35000,435
12.35833,435
12.36667,435
12.37500,434
12.38333,434
12.39167,434
12.40000,434
12.40833,433
12.41667,433
12.42500,433
12.43333,433
12.44167,432
12.45000,432
12.45833,431
12.46667,431
12.47500,431
12.48333,430
12.49167,429
12.50000,428
12.50833,427
12.51667,425
12.52500,424
12.53333,423
12.54167,422
12.55000,421
12.55833,420
12.56667,418
12.57500,417
12.58333,415
12.59167,413
12.60000,411
12.60833,410
12.61667,408
12.62500,407
12.63333,406
12.64167,406
12.65000,406
12.65833,406
12.66667,407
12.67500,408
12.68333,411
12.69167,414
12.70000,419
12.70833,426
12.71667,434
12.72500,444
12.73333,456
12.74167,470
12.75000,487
12.75833,506
12.76667,529
12.77500,554
12.78333,583
12.79167,616
12.80000,652
12.80833,692
12.81667,736
12.82500,785
12.83333,838
12.84167,896
12.85000,959
12.85833,1027
12.86667,1100
12.87500,1178
12.88333,1261
12.89167,1349
12.90000,1443
12.90833,1542
12.91667,1646
12.92500,1756
12.93333,1871
12.94167,1992
12.95000,2119
12.95833,2251
12.96667,2389
12.97500,2532
12.98333,2681
12.99167,2835
13.00000,2996
13.00833,3161
13.01667,3331
13.02500,3507
13.03333,3689
13.04167,3875
13.05000,4066
13.05833,4263
13.06667,4464
13.07500,4670
13.08333,4882
13.09167,5098
13.10000,5318
13.10833,5543
13.11667,5773
13.12500,6008
13.13333,6247
13.14167,6489
13.15000,6736
13.15833,6988
13.16667,7243
13.17500,7502
13.18333,7765
13.19167,8031
13.20000,8301
13.20833,8575
13.21667,8852
13.22500,9132
13.23333,9416
13.24167,9704
13.25000,9994
13.25833,10288
13.26667,10584
13.27500,10884
13.28333,11187
13.29167,11493
13.30000,11801
13.30833,12112
13.31667,12427
13.32500,12744
13.33333,13064
13.34167,13387
13.35000,13712
13.35833,14041
13.36667,14372
13.37500,14706
13.38333,15043
13.39167,15383
13.40000,15725
13.40833,16070
13.41667,16418
13.42500,16768
13.43333,17122
13.44167,17478
13.45000,17837
13.45833,18199
13.46667,18564
13.47500,18931
13.48333,19302
13.49167,19675
13.50000,20051
13.50833,20430
13.51667,20812
13.52500,21197
13.53333,21585
13.54167,21976
13.55000,22371
13.55833,22768
13.56667,23169
13.57500,23572
13.58333,23979
13.59167,24388
13.60000,24801
13.60833,25217
13.61667,25637
13.62500,26060
13.63333,26486
13.64167,26916
13.65000,27348
13.65833,27785
13.66667,28224
13.67500,28668
13.68333,29115
13.69167,29566
13.70000,30020
13.70833,30477
13.71667,30938
13.72500,31403
13.73333,31872
13.74167,32345
13.75000,32822
13.75833,33302
13.76667,33787
13.77500,34275
13.78333,34768
13.79167,35264
13.80000,35765
13.80833,36270
13.81667,36779
13.82500,37292
13.83333,37809
13.84167,38330
13.85000,38856
13.85833,39387
13.86667,39922
13.87500,40461
13.88333,41005
13.89167,41554
13.90000,42107
13.90833,42665
13.91667,43228
13.92500,43796
13.93333,44369
13.94167,44946
13.95000,45529
13.95833,46116
13.96667,46709
13.97500,47307
13.98333,47910
13.99167,48518
14.00000,49132
14.00833,49751
14.01667,50375
14.02500,51005
14.03333,51641
14.04167,52282
14.05000,52929
14.05833,53582
14.06667,54240
14.07500,54904
14.08333,55575
14.09167,56251
14.10000,56934
14.10833,57622
14.11667,58318
14.12500,59019
14.13333,59727
14.14167,60441
14.15000,61162
14.15833,61890
14.16667,62625
14.17500,63366
14.18333,64115
14.19167,64870
14.20000,65632
14.20833,66401
14.21667,67176
14.22500,67957
14.23333,68742
14.24167,69527
14.25000,70310
14.25833,71084
14.26667,71845
14.27500,72583
14.28333,73289
14.29167,73954
14.30000,74564
14.30833,75107
14.31667,75571
14.32500,75943
14.33333,76213
14.34167,76370
14.35000,76405
14.35833,76312
14.36667,76084
14.37500,75717
14.38333,75207
14.39167,74553
14.40000,73753
14.40833,72805
14.41667,71706
14.42500,70455
14.43333,69049
14.44167,67488
14.45000,65769
14.45833,63895
14.46667,61866
14.47500,59688
14.48333,57370
14.49167,54923
14.50000,52362
14.50833,49706
14.51667,46977
14.52500,44199
14.53333,41399
14.54167,38603
14.55000,35838
14.55833,33130
14.56667,30503
14.57500,27977
14.58333,25570
14.59167,23295
14.60000,21164
14.60833,19182
14.61667,17353
14.62500,15675
14.63333,14145
14.64167,12760
14.65000,11510
14.65833,10388
14.66667,9386
14.67500,8493
14.68333,7699
14.69167,6995
14.70000,6372
14.70833,5821
14.71667,5334
14.72500,4904
14.73333,4525
14.74167,4189
14.75000,3893
14.75833,3630
14.76667,3396
14.77500,3188
14.78333,3002
14.79167,2836
14.80000,2687
14.80833,2553
14.81667,2432
14.82500,2322
14.83333,2222
14.84167,2130
14.85000,2046
14.85833,1969
14.86667,1898
14.87500,1832
14.88333,1771
14.89167,1713
14.90000,1660
14.90833,1610
14.91667,1562
14.92500,1518
14.93333,1476
14.94167,1437
14.95000,1399
14.95833,1364
14.96667,1330
14.97500,1298
14.98333,1268
14.99167,1239
15.00000,1211
15.00833,1185
15.01667,1160
15.02500,1136
15.03333,1113
15.04167,1091
15.05000,1071
15.05833,1051
15.06667,1032
15.07500,1014
15.08333,998
15.09167,982
15.10000,967
15.10833,953
15.11667,941
15.12500,929
15.13333,917
15.14167,907
15.15000,898
15.15833,889
15.16667,882
15.17500,876
15.18333,871
15.19167,868
15.20000,867
15.20833,869
15.21667,874
15.22500,883
15.23333,895
15.24167,913
15.25000,937
15.25833,968
15.26667,1009
15.27500,1059
15.28333,1121
15.29167,1196
15.30000,1287
15.30833,1395
15.31667,1525
15.32500,1677
15.33333,1855
15.34167,2062
15.35000,2301
15.35833,2575
15.36667,2887
15.37500,3242
15.38333,3641
15.39167,4089
15.40000,4588
15.40833,5142
15.41667,5752
15.42500,6422
15.43333,7153
15.44167,7947
15.45000,8803
15.45833,9724
15.46667,10708
15.47500,11755
15.48333,12863
15.49167,14029
15.50000,15251
15.50833,16526
15.51667,17849
15.52500,19215
15.53333,20619
15.54167,22054
15.55000,23514
15.55833,24993
15.56667,26484
15.57500,27978
15.58333,29470
15.59167,30951
15.60000,32413
15.60833,33851
15.61667,35257
15.62500,36624
15.63333,37946
15.64167,39218
15.65000,40433
15.65833,41589
15.66667,42679
15.67500,43700
15.68333,44649
15.69167,45522
15.70000,46318
15.70833,47033
15.71667,47668
15.72500,48219
15.73333,48686
15.74167,49069
15.75000,49367
15.75833,49580
15.76667,49708
15.77500,49751
15.78333,49711
15.79167,49588
15.80000,49383
15.80833,49097
15.81667,48731
15.82500,48288
15.83333,47770
15.84167,47178
15.85000,46516
15.85833,45787
15.86667,44992
15.87500,44137
15.88333,43224
15.89167,42257
15.90000,41240
15.90833,40179
15.91667,39076
15.92500,37938
15.93333,36770
15.94167,35575
15.95000,34359
15.95833,33128
15.96667,31886
15.97500,30637
15.98333,29388
15.99167,28141
16.00000,26902
16.00833,25676
16.01667,24466
16.02500,23276
16.03333,22109
16.04167,20969
16.05000,19858
16.05833,18779
16.06667,17735
16.07500,16725
16.08333,15754
16.09167,14821
16.10000,13926
16.10833,13072
16.11667,12258
16.12500,11485
16.13333,10751
16.14167,10057
16.15000,9402
16.15833,8786
16.16667,8206
16.17500,7662
16.18333,7153
16.19167,6678
16.20000,6235
16.20833,5822
16.21667,5439
16.22500,5083
16.23333,4753
16.24167,4448
16.25000,4167
16.25833,3907
16.26667,3667
16.27500,3447
16.28333,3244
16.29167,3058
16.30000,2887
16.30833,2730
16.31667,2586
16.32500,2454
16.33333,2332
16.34167,2221
16.35000,2119
16.35833,2025
16.36667,1939
16.37500,1859
16.38333,1786
16.39167,1718
16.40000,1656
16.40833,1598
16.41667,1545
16.42500,1496
16.43333,1450
16.44167,1407
16.45000,1367
16.45833,1330
16.46667,1295
16.47500,1261
16.48333,1229
16.49167,1199
16.50000,1171
16.50833,1143
16.51667,1116
16.52500,1091
16.53333,1067
16.54167,1043
16.55000,1020
16.55833,997
16.56667,976
16.57500,954
16.58333,933
16.59167,912
16.60000,892
16.60833,871
16.61667,852
16.62500,833
16.63333,814
16.64167,796
16.65000,778
16.65833,760
16.66667,742
16.67500,724
16.68333,708
16.69167,692
16.70000,676
16.70833,660
16.71667,645
16.72500,630
16.73333,616
16.74167,602
16.75000,589
16.75833,576
16.76667,563
16.77500,551
16.78333,540
16.79167,529
16.80000,519
16.80833,510
16.81667,500
16.82500,492
16.83333,483
16.84167,476
16.85000,468
16.85833,461
16.86667,453
16.87500,447
16.88333,440
16.89167,434
16.90000,429
16.90833,424
16.91667,420
16.92500,416
16.93333,412
16.94167,408
16.95000,404
16.95833,401
16.96667,398
16.97500,395
16.98333,392
16.99167,390
17.00000,388
17.00833,385
17.01667,383
17.02500,382
17.03333,380
17.04167,379
17.05000,377
17.05833,377
17.06667,376
17.07500,375
17.08333,373
17.09167,372
17.10000,372
17.10833,371
17.11667,370
17.12500,368
17.13333,368
17.14167,367
17.15000,366
17.15833,365
17.16667,365
17.17500,364
17.18333,364
17.19167,363
17.20000,363
17.20833,363
17.21667,362
17.22500,362
17.23333,361
17.24167,361
17.25000,361
17.25833,361
17.26667,360
17.27500,360
17.28333,359
17.29167,359
17.30000,358
17.30833,358
17.31667,358
17.32500,358
17.33333,358
17.34167,358
17.35000,358
17.35833,358
17.36667,359
17.37500,359
17.38333,359
17.39167,360
17.40000,361
17.40833,362
17.41667,363
17.42500,364
17.43333,365
17.44167,367
17.45000,370
17.45833,372
17.46667,375
17.47500,378
17.48333,381
17.49167,384
17.50000,387
17.50833,391
17.51667,395
17.52500,399
17.53333,403
17.54167,408
17.55000,413
17.55833,418
17.56667,423
17.57500,428
17.58333,434
17.59167,439
17.60000,445
17.60833,450
17.61667,456
17.62500,463
17.63333,469
17.64167,474
17.65000,480
17.65833,485
17.66667,491
17.67500,496
17.68333,501
17.69167,507
17.70000,513
17.70833,518
17.71667,523
17.72500,527
17.73333,532
17.74167,536
17.75000,539
17.75833,543
17.76667,547
17.77500,551
17.78333,554
17.79167,556
17.80000,559
17.80833,561
17.81667,563
17.82500,565
17.83333,567
17.84167,568
17.85000,569
17.85833,570
17.86667,570
17.87500,570
17.88333,569
17.89167,568
17.90000,567
17.90833,565
17.91667,563
17.92500,560
17.93333,557
17.94167,554
17.95000,550
17.95833,546
17.96667,542
17.97500,537
17.98333,532
17.99167,526
18.00000,520
18.00833,514
18.01667,508
18.02500,502
18.03333,495
18.04167,489
18.05000,482
18.05833,474
18.06667,467
18.07500,460
18.08333,452
18.09167,445
18.10000,437
18.10833,429
18.11667,421
18.12500,413
18.13333,406
18.14167,398
18.15000,390
18.15833,383
18.16667,375
18.17500,368
18.18333,360
18.19167,353
18.20000,345
18.20833,338
18.21667,332
18.22500,325
18.23333,318
18.24167,312
18.25000,306
18.25833,300
18.26667,294
18.27500,288
18.28333,282
18.29167,277
18.30000,272
18.30833,268
18.31667,264
18.32500,260
18.33333,256
18.34167,252
18.35000,249
18.35833,246
18.36667,243
18.37500,241
18.38333,239
18.39167,237
18.40000,236
18.40833,235
18.41667,233
18.42500,232
18.43333,232
18.44167,232
18.45000,232
18.45833,232
18.46667,233
18.47500,234
18.48333,235
18.49167,236
18.50000,237
18.50833,238
18.51667,240
18.52500,242
18.53333,245
18.54167,247
18.55000,250
18.55833,252
18.56667,255
18.57500,259
18.58333,262
18.59167,266
18.60000,269
18.60833,273
18.61667,277
18.62500,281
18.63333,285
18.64167,289
18.65000,293
18.65833,298
18.66667,303
18.67500,308
18.68333,312
18.69167,317
18.70000,322
18.70833,327
18.71667,332
18.72500,336
18.73333,341
18.74167,346
18.75000,350
18.75833,355
18.76667,360
18.77500,365
18.78333,370
18.79167,375
18.80000,380
18.80833,385
18.81667,389
18.82500,394
18.83333,398
18.84167,403
18.85000,407
18.85833,412
18.86667,416
18.87500,421
18.88333,425
18.89167,429
18.90000,433
18.90833,437
18.91667,440
18.92500,443
18.93333,445
18.94167,448
18.95000,450
18.95833,453
18.96667,455
18.97500,458
18.98333,460
18.99167,462
19.00000,464
19.00833,466
19.01667,467
19.02500,468
19.03333,469
19.04167,469
19.05000,469
19.05833,470
19.06667,469
19.07500,469
19.08333,468
19.09167,467
19.10000,466
19.10833,465
19.11667,464
19.12500,463
19.13333,461
19.14167,458
19.15000,456
19.15833,453
19.16667,451
19.17500,448
19.18333,444
19.19167,441
19.20000,437
19.20833,433
19.21667,429
19.22500,425
19.23333,420
19.24167,416
19.25000,411
19.25833,406
19.26667,401
19.27500,396
19.28333,391
19.29167,386
19.30000,381
19.30833,376
19.31667,370
19.32500,365
19.33333,359
19.34167,353
19.35000,348
19.35833,342
19.36667,336
19.37500,330
19.38333,324
19.39167,318
19.40000,312
19.40833,305
19.41667,299
19.42500,293
19.43333,287
19.44167,282
19.45000,276
19.45833,270
19.46667,265
19.47500,260
19.48333,254
19.49167,248
19.50000,242
19.50833,237
19.51667,231
19.52500,226
19.53333,221
19.54167,216
19.55000,211
19.55833,206
19.56667,201
19.57500,197
19.58333,192
19.59167,188
19.60000,184
19.60833,180
19.61667,176
19.62500,173
19.63333,169
19.64167,166
19.65000,163
19.65833,160
19.66667,157
19.67500,154
19.68333,152
19.69167,149
19.70000,147
19.70833,146
19.71667,145
19.72500,144
19.73333,143
19.74167,143
19.75000,143
19.75833,144
19.76667,145
19.77500,146
19.78333,148
19.79167,151
19.80000,154
19.80833,158
19.81667,162
19.82500,166
19.83333,171
19.84167,177
19.85000,183
19.85833,190
19.86667,198
19.87500,206
19.88333,214
19.89167,223
19.90000,233
19.90833,243
19.91667,254
19.92500,265
19.93333,276
19.94167,288
19.95000,301
19.95833,314
19.96667,328
19.97500,342
19.98333,357
19.99167,371
20.00000,386
20.00833,401
20.01667,416
20.02500,431
20.03333,447
20.04167,462
20.05000,477
20.05833,491
20.06667,506
20.07500,521
20.08333,535
20.09167,549
20.10000,563
20.10833,576
20.11667,589
20.12500,602
20.13333,615
20.14167,627
20.15000,638
20.15833,649
20.16667,659
20.17500,669
20.18333,678
20.19167,686
20.20000,694
20.20833,701
20.21667,707
20.22500,713
20.23333,718
20.24167,722
20.25000,725
20.25833,728
20.26667,730
20.27500,732
20.28333,732
20.29167,732
20.30000,732
20.30833,731
20.31667,730
20.32500,727
20.33333,725
20.34167,721
20.35000,717
20.35833,713
20.36667,708
20.37500,702
20.38333,697
20.39167,691
20.40000,684
20.40833,677
20.41667,670
20.42500,662
20.43333,655
20.44167,647
20.45000,640
20.45833,632
20.46667,624
20.47500,616
20.48333,609
20.49167,602
20.50000,596
20.50833,589
20.51667,584
20.52500,578
20.53333,574
20.54167,569
20.55000,565
20.55833,562
20.56667,560
20.57500,558
20.58333,557
20.59167,556
20.60000,557
20.60833,557
20.61667,559
20.62500,562
20.63333,565
20.64167,569
20.65000,574
20.65833,579
20.66667,584
20.67500,590
20.68333,596
20.69167,603
20.70000,610
20.70833,617
20.71667,625
20.72500,633
20.73333,641
20.74167,649
20.75000,656
20.75833,664
20.76667,672
20.77500,680
20.78333,687
20.79167,695
20.80000,703
20.80833,709
20.81667,716
20.82500,722
20.83333,729
20.84167,735
20.85000,741
20.85833,746
20.86667,751
20.87500,756
20.88333,759
20.89167,763
20.90000,765
20.90833,768
20.91667,770
20.92500,771
20.93333,772
20.94167,773
20.95000,773
20.95833,773
20.96667,772
20.97500,770
20.98333,768
20.99167,765
21.00000,762
21.00833,758
21.01667,754
21.02500,749
21.03333,744
21.04167,738
21.05000,732
21.05833,725
21.06667,718
21.07500,710
21.08333,702
21.09167,693
21.10000,683
21.10833,674
21.11667,663
21.12500,653
21.13333,643
21.14167,632
21.15000,620
21.15833,609
21.16667,597
21.17500,584
21.18333,572
21.19167,559
21.20000,547
21.20833,535
21.21667,523
21.22500,511
21.23333,499
21.24167,487
21.25000,475
21.25833,464
21.26667,452
21.27500,441
21.28333,430
21.29167,418
21.30000,408
21.30833,397
21.31667,387
21.32500,378
21.33333,369
21.34167,361
21.35000,353
21.35833,345
21.36667,339
21.37500,332
21.38333,327
21.39167,322
21.40000,318
21.40833,314
21.41667,310
21.42500,308
21.43333,306
21.44167,305
21.45000,304
21.45833,305
21.46667,306
21.47500,308
21.48333,310
21.49167,313
21.50000,316
21.50833,320
21.51667,325
21.52500,331
21.53333,337
21.54167,345
21.55000,352
21.55833,360
21.56667,369
21.57500,378
21.58333,388
21.59167,398
21.60000,408
21.60833,419
21.61667,429
21.62500,440
21.63333,451
21.64167,462
21.65000,472
21.65833,483
21.66667,494
21.67500,504
21.68333,514
21.69167,524
21.70000,534
21.70833,544
21.71667,553
21.72500,562
21.73333,571
21.74167,578
21.75000,586
21.75833,593
21.76667,600
21.77500,606
21.78333,611
21.79167,617
21.80000,621
21.80833,625
21.81667,629
21.82500,632
21.83333,634
21.84167,636
21.85000,638
21.85833,639
21.86667,639
21.87500,639
21.88333,639
21.89167,639
21.90000,638
21.90833,636
21.91667,634
21.92500,631
21.93333,628
21.94167,624
21.95000,620
21.95833,615
21.96667,610
21.97500,604
21.98333,598
21.99167,591
22.00000,584
22.00833,576
22.01667,568
22.02500,559
22.03333,549
22.04167,539
22.05000,529
22.05833,518
22.06667,506
22.07500,495
22.08333,483
22.09167,471
22.10000,458
22.10833,445
22.11667,432
22.12500,418
22.13333,404
22.14167,390
22.15000,375
22.15833,361
22.16667,346
22.17500,331
22.18333,317
22.19167,303
22.20000,289
22.20833,274
22.21667,260
22.22500,246
22.23333,232
22.24167,219
22.25000,205
22.25833,192
22.26667,179
22.27500,167
22.28333,155
22.29167,144
22.30000,133
22.30833,123
22.31667,113
22.32500,103
22.33333,94
22.34167,85
22.35000,77
22.35833,69
22.36667,61
22.37500,53
22.38333,46
22.39167,40
22.40000,34
22.40833,29
22.41667,24
22.42500,19
22.43333,15
22.44167,11
22.45000,7
22.45833,4
22.46667,2
22.47500,-0
22.48333,-2
22.49167,-4
22.50000,-5
22.50833,-6
22.51667,-6
22.52500,-7
22.53333,-6
22.54167,-6
22.55000,-4
22.55833,-3
22.56667,-0
22.57500,2
22.58333,6
22.59167,9
22.60000,13
22.60833,18
22.61667,23
22.62500,29
22.63333,36
22.64167,43
22.65000,50
22.65833,58
22.66667,67
22.67500,76
22.68333,86
22.69167,97
22.70000,108
22.70833,120
22.71667,132
22.72500,145
22.73333,159
22.74167,172
22.75000,186
22.75833,201
22.76667,216
22.77500,232
22.78333,248
22.79167,264
22.80000,280
22.80833,297
22.81667,314
22.82500,331
22.83333,348
22.84167,365
22.85000,382
22.85833,399
22.86667,416
22.87500,433
22.88333,450
22.89167,467
22.90000,483
22.90833,499
22.91667,515
22.92500,530
22.93333,545
22.94167,560
22.95000,574
22.95833,588
22.96667,601
22.97500,614
22.98333,626
22.99167,638
23.00000,649
23.00833,660
23.01667,670
23.02500,679
23.03333,688
23.04167,697
23.05000,705
23.05833,712
23.06667,718
23.07500,724
23.08333,729
23.09167,733
23.10000,737
23.10833,740
23.11667,742
23.12500,744
23.13333,744
23.14167,744
23.15000,743
23.15833,742
23.16667,740
23.17500,737
23.18333,733
23.19167,728
23.20000,722
23.20833,716
23.21667,709
23.22500,701
23.23333,692
23.24167,682
23.25000,672
23.25833,661
23.26667,649
23.27500,637
23.28333,624
23.29167,611
23.30000,598
23.30833,584
23.31667,569
23.32500,555
23.33333,540
23.34167,524
23.35000,509
23.35833,493
23.36667,477
23.37500,461
23.38333,445
23.39167,429
23.40000,414
23.40833,398
23.41667,383
23.42500,369
23.43333,354
23.44167,339
23.45000,324
23.45833,310
23.46667,296
23.47500,283
23.48333,270
23.49167,258
23.50000,246
23.50833,234
23.51667,223
23.52500,213
23.53333,202
23.54167,193
23.55000,183
23.55833,174
23.56667,165
23.57500,157
23.58333,149
23.59167,142
23.60000,135
23.60833,128
23.61667,122
23.62500,116
23.63333,110
23.64167,105
23.65000,100
23.65833,95
23.66667,90
23.67500,86
23.68333,82
23.69167,79
23.70000,75
23.70833,72
23.71667,69
23.72500,66
23.73333,63
23.74167,61
23.75000,58
23.75833,56
23.76667,53
23.77500,51
23.78333,48
23.79167,46
23.80000,44
23.80833,42
23.81667,41
23.82500,39
23.83333,36
23.84167,34
23.85000,33
23.85833,31
23.86667,30
23.87500,29
23.88333,27
23.89167,25
23.90000,24
23.90833,22
23.91667,20
23.92500,18
23.93333,17
23.94167,15
23.95000,14
23.95833,13
23.96667,11
23.97500,10
23.98333,9
23.99167,7
24.00000,6
24.00833,5
24.01667,3
24.02500,2
24.03333,0
24.04167,-1
24.05000,-2
24.05833,-3
24.06667,-4
24.07500,-6
24.08333,-7
24.09167,-8
24.10000,-9
24.10833,-9
24.11667,-10
24.12500,-12
24.13333,-13
24.14167,-14
24.15000,-15
24.15833,-16
24.16667,-17
24.17500,-19
24.18333,-20
24.19167,-21
24.20000,-22
24.20833,-23
24.21667,-23
24.22500,-24
24.23333,-25
24.24167,-26
24.25000,-26
24.25833,-26
24.26667,-26
24.27500,-26
24.28333,-26
24.29167,-26
24.30000,-25
24.30833,-24
24.31667,-24
24.32500,-23
24.33333,-21
24.34167,-20
24.35000,-18
24.35833,-16
24.36667,-13
24.37500,-10
24.38333,-6
24.39167,-1
24.40000,4
24.40833,11
24.41667,18
24.42500,26
24.43333,35
24.44167,45
24.45000,56
24.45833,69
24.46667,83
24.47500,98
24.48333,116
24.49167,135
24.50000,156
24.50833,179
24.51667,204
24.52500,231
24.53333,261
24.54167,293
24.55000,328
24.55833,365
24.56667,405
24.57500,447
24.58333,492
24.59167,540
24.60000,591
24.60833,644
24.61667,700
24.62500,759
24.63333,821
24.64167,884
24.65000,951
24.65833,1020
24.66667,1092
24.67500,1165
24.68333,1241
24.69167,1319
24.70000,1398
24.70833,1479
24.71667,1561
24.72500,1644
24.73333,1729
24.74167,1814
24.75000,1900
24.75833,1986
24.76667,2072
24.77500,2159
24.78333,2244
24.79167,2329
24.80000,2413
24.80833,2496
24.81667,2578
24.82500,2659
24.83333,2737
24.84167,2815
24.85000,2890
24.85833,2964
24.86667,3036
24.87500,3105
24.88333,3172
24.89167,3237
24.90000,3300
24.90833,3361
24.91667,3419
24.92500,3475
24.93333,3528
24.94167,3578
24.95000,3626
24.95833,3672
24.96667,3714
24.97500,3754
24.98333,3791
24.99167,3826
25.00000,3857
25.00833,3886
25.01667,3912
25.02500,3935
25.03333,3956
25.04167,3973
25.05000,3988
25.05833,4000
25.06667,4009
25.07500,4014
25.08333,4016
25.09167,4015
25.10000,4011
25.10833,4004
25.11667,3993
25.12500,3979
25.13333,3962
25.14167,3941
25.15000,3917
25.15833,3889
25.16667,3858
25.17500,3824
25.18333,3787
25.19167,3746
25.20000,3701
25.20833,3654
25.21667,3603
25.22500,3549
25.23333,3491
25.24167,3431
25.25000,3369
25.25833,3304
25.26667,3236
25.27500,3166
25.28333,3095
25.29167,3021
25.30000,2946
25.30833,2869
25.31667,2791
25.32500,2711
25.33333,2631
25.34167,2549
25.35000,2468
25.35833,2386
25.36667,2304
25.37500,2221
25.38333,2140
25.39167,2059
25.40000,1978
25.40833,1899
25.41667,1819
25.42500,1741
25.43333,1665
25.44167,1590
25.45000,1516
25.45833,1445
25.46667,1375
25.47500,1307
25.48333,1241
25.49167,1176
25.50000,1114
25.50833,1054
25.51667,996
25.52500,940
25.53333,886
25.54167,834
25.55000,785
25.55833,738
25.56667,692
25.57500,648
25.58333,607
25.59167,567
25.60000,530
25.60833,494
25.61667,460
25.62500,427
25.63333,397
25.64167,368
25.65000,340
25.65833,314
25.66667,290
25.67500,267
25.68333,246
25.69167,225
25.70000,206
25.70833,187
25.71667,170
25.72500,154
25.73333,139
25.74167,124
25.75000,110
25.75833,97
25.76667,85
25.77500,73
25.78333,62
25.79167,52
25.80000,42
25.80833,33
25.81667,24
25.82500,15
25.83333,7
25.84167,-1
25.85000,-8
25.85833,-15
25.86667,-22
25.87500,-28
25.88333,-35
25.89167,-41
25.90000,-47
25.90833,-53
25.91667,-59
25.92500,-65
25.93333,-71
25.94167,-76
25.95000,-82
25.95833,-87
25.96667,-92
25.97500,-97
25.98333,-102
25.99167,-107
26.00000,-111
26.00833,-116
26.01667,-121
26.02500,-126
26.03333,-131
26.04167,-136
26.05000,-141
26.05833,-145
26.06667,-150
26.07500,-155
26.08333,-159
26.09167,-163
26.10000,-167
26.10833,-171
26.11667,-175
26.12500,-179
26.13333,-182
26.14167,-186
26.15000,-189
26.15833,-192
26.16667,-196
26.17500,-199
26.18333,-202
26.19167,-206
26.20000,-209
26.20833,-211
26.21667,-214
26.22500,-217
26.23333,-219
26.24167,-221
26.25000,-224
26.25833,-226
26.26667,-228
26.27500,-230
26.28333,-232
26.29167,-234
26.30000,-236
26.30833,-237
26.31667,-238
26.32500,-240
26.33333,-241
26.34167,-243
26.35000,-244
26.35833,-245
26.36667,-246
26.37500,-247
26.38333,-248
26.39167,-250
26.40000,-251
26.40833,-251
26.41667,-252
26.42500,-253
26.43333,-253
26.44167,-254
26.45000,-255
26.45833,-256
26.46667,-256
26.47500,-256
26.48333,-256
26.49167,-257
26.50000,-257
26.50833,-257
26.51667,-258
26.52500,-258
26.53333,-258
26.54167,-258
26.55000,-258
26.55833,-258
26.56667,-258
26.57500,-258
26.58333,-259
26.59167,-259
26.60000,-259
26.60833,-259
26.61667,-259
26.62500,-259
26.63333,-259
26.64167,-259
26.65000,-259
26.65833,-259
26.66667,-259
26.67500,-260
26.68333,-260
26.69167,-259
26.70000,-259
26.70833,-259
26.71667,-259
26.72500,-259
26.73333,-259
26.74167,-259
26.75000,-259
26.75833,-259
26.76667,-258
26.77500,-258
26.78333,-258
26.79167,-258
26.80000,-258
26.80833,-258
26.81667,-258
26.82500,-258
26.83333,-258
26.84167,-258
26.85000,-258
26.85833,-259
26.86667,-259
26.87500,-259
26.88333,-259
26.89167,-259
26.90000,-259
26.90833,-259
26.91667,-259
26.92500,-258
26.93333,-258
26.94167,-258
26.95000,-258
26.95833,-259
26.96667,-259
26.97500,-258
26.98333,-259
26.99167,-259
27.00000,-259
27.00833,-259
27.01667,-259
27.02500,-260
27.03333,-259
27.04167,-259
27.05000,-259
27.05833,-259
27.06667,-259
27.07500,-259
27.08333,-259
27.09167,-259
27.10000,-259
27.10833,-259
27.11667,-259
27.12500,-259
27.13333,-258
27.14167,-258
27.15000,-258
27.15833,-258
27.16667,-258
27.17500,-259
27.18333,-259
27.19167,-260
27.20000,-260
27.20833,-260
27.21667,-260
27.22500,-261
27.23333,-261
27.24167,-261
27.25000,-261
27.25833,-261
27.26667,-261
27.27500,-261
27.28333,-261
27.29167,-262
27.30000,-262
27.30833,-262
27.31667,-263
27.32500,-263
27.33333,-263
27.34167,-263
27.35000,-264
27.35833,-264
27.36667,-264
27.37500,-264
27.38333,-265
27.39167,-265
27.40000,-265
27.40833,-266
27.41667,-267
27.42500,-268
27.43333,-269
27.44167,-269
27.45000,-269
27.45833,-270
27.46667,-270
27.47500,-271
27.48333,-272
27.49167,-272
27.50000,-272
27.50833,-273
27.51667,-274
27.52500,-275
27.53333,-276
27.54167,-277
27.55000,-278
27.55833,-279
27.56667,-280
27.57500,-281
27.58333,-282
27.59167,-283
27.60000,-284
27.60833,-285
27.61667,-286
27.62500,-287
27.63333,-288
27.64167,-289
27.65000,-290
27.65833,-291
27.66667,-292
27.67500,-293
27.68333,-294
27.69167,-295
27.70000,-296
27.70833,-297
27.71667,-298
27.72500,-300
27.73333,-301
27.74167,-302
27.75000,-302
27.75833,-303
27.76667,-304
27.77500,-305
27.78333,-307
27.79167,-308
27.80000,-309
27.80833,-310
27.81667,-311
27.82500,-312
27.83333,-313
27.84167,-314
27.85000,-315
27.85833,-316
27.86667,-316
27.87500,-317
27.88333,-318
27.89167,-319
27.90000,-319
27.90833,-320
27.91667,-320
27.92500,-321
27.93333,-322
27.94167,-322
27.95000,-322
27.95833,-323
27.96667,-323
27.97500,-323
27.98333,-323
27.99167,-323
28.00000,-324
28.00833,-324
28.01667,-325
28.02500,-325
28.03333,-325
28.04167,-324
28.05000,-324
28.05833,-324
28.06667,-325
28.07500,-325
28.08333,-325
28.09167,-326
28.10000,-326
28.10833,-325
28.11667,-325
28.12500,-325
28.13333,-325
28.14167,-325
28.15000,-324
28.15833,-324
28.16667,-324
28.17500,-323
28.18333,-323
28.19167,-323
28.20000,-322
28.20833,-322
28.21667,-321
28.22500,-321
28.23333,-320
28.24167,-320
28.25000,-319
28.25833,-318
28.26667,-317
28.27500,-317
28.28333,-316
28.29167,-315
28.30000,-313
28.30833,-312
28.31667,-311
28.32500,-310
28.33333,-309
28.34167,-308
28.35000,-306
28.35833,-304
28.36667,-301
28.37500,-298
28.38333,-295
28.39167,-291
28.40000,-287
28.40833,-283
28.41667,-278
28.42500,-273
28.43333,-267
28.44167,-261
28.45000,-254
28.45833,-247
28.46667,-239
28.47500,-230
28.48333,-220
28.49167,-210
28.50000,-199
28.50833,-186
28.51667,-173
28.52500,-160
28.53333,-145
28.54167,-128
28.55000,-110
28.55833,-91
28.56667,-71
28.57500,-50
28.58333,-27
28.59167,-3
28.60000,22
28.60833,48
28.61667,76
28.62500,106
28.63333,137
28.64167,169
28.65000,202
28.65833,237
28.66667,274
28.67500,312
28.68333,351
28.69167,392
28.70000,434
28.70833,477
28.71667,521
28.72500,567
28.73333,614
28.74167,661
28.75000,710
28.75833,760
28.76667,810
28.77500,861
28.78333,913
28.79167,965
28.80000,1017
28.80833,1070
28.81667,1122
28.82500,1175
28.83333,1228
28.84167,1280
28.85000,1333
28.85833,1385
28.86667,1437
28.87500,1488
28.88333,1538
28.89167,1587
28.90000,1636
28.90833,1683
28.91667,1730
28.92500,1775
28.93333,1820
28.94167,1863
28.95000,1904
28.95833,1944
28.96667,1983
28.97500,2020
28.98333,2056
28.99167,2090
29.00000,2123
29.00833,2154
29.01667,2183
29.02500,2211
29.03333,2237
29.04167,2262
29.05000,2285
29.05833,2306
29.06667,2325
29.07500,2342
29.08333,2358
29.09167,2373
29.10000,2386
29.10833,2398
29.11667,2408
29.12500,2417
29.13333,2424
29.14167,2430
29.15000,2434
29.15833,2437
29.16667,2438
29.17500,2438
29.18333,2436
29.19167,2433
29.20000,2428
29.20833,2423
29.21667,2416
29.22500,2408
29.23333,2399
29.24167,2388
29.25000,2375
29.25833,2361
29.26667,2345
29.27500,2328
29.28333,2311
29.29167,2291
29.30000,2270
29.30833,2247
29.31667,2224
29.32500,2198
29.33333,2172
29.34167,2144
29.35000,2115
29.35833,2084
29.36667,2052
29.37500,2019
29.38333,1984
29.39167,1948
29.40000,1912
29.40833,1874
29.41667,1834
29.42500,1794
29.43333,1752
29.44167,1710
29.45000,1667
29.45833,1624
29.46667,1579
29.47500,1534
29.48333,1489
29.49167,1443
29.50000,1396
29.50833,1349
29.51667,1302
29.52500,1255
29.53333,1208
29.54167,1161
29.55000,1114
29.55833,1067
29.56667,1020
29.57500,973
29.58333,927
29.59167,882
29.60000,837
29.60833,793
29.61667,749
29.62500,706
29.63333,664
29.64167,623
29.65000,583
29.65833,543
29.66667,504
29.67500,466
29.68333,430
29.69167,394
29.70000,360
29.70833,326
29.71667,294
29.72500,262
29.73333,232
29.74167,202
29.75000,174
29.75833,147
29.76667,120
29.77500,95
29.78333,71
29.79167,48
29.80000,26
29.80833,5
29.81667,-15
29.82500,-34
29.83333,-53
29.84167,-71
29.85000,-88
29.85833,-104
29.86667,-120
29.87500,-134
29.88333,-149
29.89167,-162
29.90000,-174
29.90833,-186
29.91667,-198
29.92500,-209
29.93333,-219
29.94167,-229
29.95000,-238
29.95833,-247
29.96667,-256
29.97500,-264
29.98333,-272
29.99167,-279
30.00000,-287
30.00833,-294
30.01667,-301
30.02500,-308
30.03333,-314
30.04167,-320
30.05000,-326
30.05833,-332
30.06667,-338
30.07500,-344
30.08333,-350
30.09167,-355
30.10000,-361
30.10833,-366
30.11667,-372
30.12500,-378
30.13333,-383
30.14167,-388
30.15000,-394
30.15833,-399
30.16667,-405
30.17500,-410
30.18333,-416
30.19167,-421
30.20000,-426
30.20833,-431
30.21667,-436
30.22500,-442
30.23333,-448
30.24167,-453
30.25000,-458
30.25833,-464
30.26667,-469
30.27500,-474
30.28333,-480
30.29167,-485
30.30000,-490
30.30833,-496
30.31667,-501
30.32500,-507
30.33333,-512
30.34167,-518
30.35000,-523
30.35833,-528
30.36667,-533
30.37500,-538
30.38333,-542
30.39167,-547
30.40000,-551
30.40833,-556
30.41667,-560
30.42500,-565
30.43333,-569
30.44167,-573
30.45000,-577
30.45833,-581
30.46667,-585
30.47500,-588
30.48333,-591
30.49167,-595
30.50000,-598
30.50833,-600
30.51667,-603
30.52500,-606
30.53333,-608
30.54167,-610
30.55000,-612
30.55833,-614
30.56667,-616
30.57500,-617
30.58333,-619
30.59167,-620
30.60000,-621
30.60833,-621
30.61667,-621
30.62500,-622
30.63333,-622
30.64167,-622
30.65000,-621
30.65833,-620
30.66667,-619
30.67500,-618
30.68333,-616
30.69167,-615
30.70000,-613
30.70833,-612
30.71667,-610
30.72500,-607
30.73333,-605
30.74167,-602
30.75000,-600
30.75833,-597
30.76667,-594
30.77500,-590
30.78333,-587
30.79167,-583
30.80000,-579
30.80833,-575
30.81667,-571
30.82500,-567
30.83333,-562
30.84167,-557
30.85000,-553
30.85833,-548
30.86667,-542
30.87500,-537
30.88333,-532
30.89167,-527
30.90000,-521
30.90833,-516
30.91667,-510
30.92500,-505
30.93333,-499
30.94167,-493
30.95000,-487
30.95833,-481
30.96667,-476
30.97500,-470
30.98333,-464
30.99167,-458
31.00000,-453
31.00833,-447
31.01667,-441
31.02500,-436
31.03333,-431
31.04167,-425
31.05000,-420
31.05833,-415
31.06667,-410
31.07500,-405
31.08333,-400
31.09167,-395
31.10000,-390
31.10833,-385
31.11667,-381
31.12500,-377
31.13333,-373
31.14167,-369
31.15000,-365
31.15833,-361
31.16667,-357
31.17500,-354
31.18333,-350
31.19167,-347
31.20000,-344
31.20833,-342
31.21667,-339
31.22500,-336
31.23333,-334
31.24167,-332
31.25000,-330
31.25833,-328
31.26667,-326
31.27500,-323
31.28333,-321
31.29167,-320
31.30000,-318
31.30833,-317
31.31667,-316
31.32500,-316
31.33333,-316
31.34167,-315
31.35000,-314
31.35833,-313
31.36667,-313
31.37500,-313
31.38333,-313
31.39167,-312
31.40000,-312
31.40833,-312
31.41667,-312
31.42500,-312
31.43333,-312
31.44167,-313
31.45000,-313
31.45833,-313
31.46667,-314
31.47500,-314
31.48333,-314
31.49167,-315
31.50000,-315
31.50833,-315
31.51667,-315
31.52500,-315
31.53333,-315
31.54167,-315
31.55000,-315
31.55833,-315
31.56667,-315
31.57500,-315
31.58333,-314
31.59167,-314
31.60000,-313
31.60833,-312
31.61667,-312
31.62500,-311
31.63333,-310
31.64167,-309
31.65000,-307
31.65833,-305
31.66667,-303
31.67500,-300
31.68333,-298
31.69167,-296
31.70000,-293
31.70833,-289
31.71667,-286
31.72500,-283
31.73333,-279
31.74167,-275
31.75000,-271
31.75833,-266
31.76667,-261
31.77500,-256
31.78333,-251
31.79167,-245
31.80000,-239
31.80833,-233
31.81667,-226
31.82500,-219
31.83333,-212
31.84167,-205
31.85000,-197
31.85833,-190
31.86667,-182
31.87500,-173
31.88333,-165
31.89167,-156
31.90000,-147
31.90833,-139
31.91667,-130
31.92500,-121
31.93333,-112
31.94167,-103
31.95000,-93
31.95833,-83
31.96667,-73
31.97500,-63
31.98333,-54
31.99167,-44
32.00000,-35
32.00833,-26
32.01667,-16
32.02500,-7
32.03333,2
32.04167,11
32.05000,21
32.05833,30
32.06667,39
32.07500,48
32.08333,56
32.09167,65
32.10000,74
32.10833,82
32.11667,91
32.12500,99
32.13333,106
32.14167,114
32.15000,121
32.15833,128
32.16667,135
32.17500,142
32.18333,149
32.19167,156
32.20000,162
32.20833,168
32.21667,173
32.22500,179
32.23333,184
32.24167,190
32.25000,195
32.25833,200
32.26667,205
32.27500,209
32.28333,214
32.29167,218
32.30000,222
32.30833,225
32.31667,229
32.32500,231
32.33333,234
32.34167,236
32.35000,238
32.35833,239
32.36667,240
32.37500,242
32.38333,243
32.39167,244
32.40000,245
32.40833,245
32.41667,245
32.42500,245
32.43333,244
32.44167,244
32.45000,243
32.45833,241
32.46667,239
32.47500,237
32.48333,235
32.49167,232
32.50000,229
32.50833,226
32.51667,223
32.52500,219
32.53333,216
32.54167,212
32.55000,207
32.55833,202
32.56667,197
32.57500,192
32.58333,186
32.59167,180
32.60000,174
32.60833,168
32.61667,162
32.62500,155
32.63333,148
32.64167,141
32.65000,135
32.65833,128
32.66667,121
32.67500,114
32.68333,107
32.69167,99
32.70000,92
32.70833,84
32.71667,77
32.72500,69
32.73333,61
32.74167,54
32.75000,47
32.75833,40
32.76667,33
32.77500,25
32.78333,18
32.79167,11
32.80000,4
32.80833,-3
32.81667,-9
32.82500,-16
32.83333,-23
32.84167,-29
32.85000,-35
32.85833,-40
32.86667,-46
32.87500,-51
32.88333,-56
32.89167,-61
32.90000,-66
32.90833,-71
32.91667,-75
32.92500,-80
32.93333,-84
32.94167,-88
32.95000,-92
32.95833,-96
32.96667,-99
32.97500,-103
32.98333,-106
32.99167,-110
33.00000,-113
33.00833,-116
33.01667,-118
33.02500,-121
33.03333,-123
33.04167,-125
33.05000,-127
33.05833,-129
33.06667,-131
33.07500,-134
33.08333,-135
33.09167,-137
33.10000,-139
33.10833,-140
33.11667,-142
33.12500,-144
33.13333,-145
33.14167,-147
33.15000,-148
33.15833,-149
33.16667,-151
33.17500,-152
33.18333,-153
33.19167,-154
33.20000,-156
33.20833,-158
33.21667,-159
33.22500,-161
33.23333,-162
33.24167,-164
33.25000,-166
33.25833,-167
33.26667,-169
33.27500,-170
33.28333,-172
33.29167,-174
33.30000,-175
33.30833,-177
33.31667,-179
33.32500,-180
33.33333,-182
33.34167,-185
33.35000,-187
33.35833,-189
33.36667,-191
33.37500,-193
33.38333,-195
33.39167,-198
33.40000,-200
33.40833,-202
33.41667,-205
33.42500,-207
33.43333,-210
33.44167,-213
33.45000,-215
33.45833,-218
33.46667,-221
33.47500,-224
33.48333,-226
33.49167,-229
33.50000,-232
33.50833,-235
33.51667,-238
33.52500,-241
33.53333,-244
33.54167,-247
33.55000,-250
33.55833,-253
33.56667,-256
33.57500,-259
33.58333,-262
33.59167,-265
33.60000,-269
33.60833,-272
33.61667,-275
33.62500,-279
33.63333,-283
33.64167,-286
33.65000,-290
33.65833,-293
33.66667,-297
33.67500,-301
33.68333,-304
33.69167,-308
33.70000,-311
33.70833,-314
33.71667,-317
33.72500,-321
33.73333,-324
33.74167,-328
33.75000,-331
33.75833,-334
33.76667,-337
33.77500,-341
33.78333,-344
33.79167,-348
33.80000,-352
33.80833,-355
33.81667,-358
33.82500,-361
33.83333,-365
33.84167,-368
33.85000,-371
33.85833,-374
33.86667,-377
33.87500,-379
33.88333,-382
33.89167,-385
33.90000,-388
33.90833,-390
33.91667,-393
33.92500,-396
33.93333,-398
33.94167,-400
33.95000,-402
33.95833,-405
33.96667,-407
33.97500,-409
33.98333,-411
33.99167,-413
34.00000,-415
34.00833,-417
34.01667,-419
34.02500,-421
34.03333,-422
34.04167,-424
34.05000,-426
34.05833,-427
34.06667,-429
34.07500,-431
34.08333,-432
34.09167,-434
34.10000,-436
34.10833,-437
34.11667,-438
34.12500,-439
34.13333,-441
34.14167,-442
34.15000,-444
34.15833,-445
34.16667,-446
34.17500,-447
34.18333,-448
34.19167,-449
34.20000,-450
34.20833,-452
34.21667,-453
34.22500,-453
34.23333,-454
34.24167,-454
34.25000,-455
34.25833,-455
34.26667,-456
34.27500,-457
34.28333,-458
34.29167,-458
34.30000,-459
34.30833,-459
34.31667,-460
34.32500,-461
34.33333,-461
34.34167,-462
34.35000,-463
34.35833,-463
34.36667,-464
34.37500,-464
34.38333,-464
34.39167,-465
34.40000,-465
34.40833,-465
34.41667,-466
34.42500,-466
34.43333,-467
34.44167,-467
34.45000,-468
34.45833,-468
34.46667,-469
34.47500,-469
34.48333,-470
34.49167,-471
34.50000,-471
34.50833,-471
34.51667,-472
34.52500,-472
34.53333,-472
34.54167,-473
34.55000,-473
34.55833,-473
34.56667,-474
34.57500,-474
34.58333,-474
34.59167,-475
34.60000,-475
34.60833,-475
34.61667,-475
34.62500,-476
34.63333,-476
34.64167,-477
34.65000,-477
34.65833,-477
34.66667,-477
34.67500,-477
34.68333,-478
34.69167,-479
34.70000,-479
34.70833,-479
34.71667,-480
34.72500,-480
34.73333,-480
34.74167,-481
34.75000,-481
34.75833,-481
34.76667,-482
34.77500,-482
34.78333,-482
34.79167,-483
34.80000,-483
34.80833,-483
34.81667,-484
34.82500,-484
34.83333,-484
34.84167,-484
34.85000,-485
34.85833,-485
34.86667,-485
34.87500,-486
34.88333,-486
34.89167,-487
34.90000,-487
34.90833,-487
34.91667,-487
34.92500,-487
34.93333,-487
34.94167,-487
34.95000,-487
34.95833,-487
34.96667,-487
34.97500,-487
34.98333,-488
34.99167,-488
35.00000,-488
35.00833,-488
35.01667,-488
35.02500,-488
35.03333,-488
35.04167,-488
35.05000,-489
35.05833,-489
35.06667,-490
35.07500,-490
35.08333,-490
35.09167,-490
35.10000,-490
35.10833,-490
35.11667,-490
35.12500,-490
35.13333,-491
35.14167,-490
35.15000,-491
35.15833,-491
35.16667,-491
35.17500,-491
35.18333,-491
35.19167,-492
35.20000,-491
35.20833,-491
35.21667,-491
35.22500,-491
35.23333,-491
35.24167,-491
35.25000,-491
35.25833,-491
35.26667,-490
35.27500,-490
35.28333,-490
35.29167,-490
35.30000,-491
35.30833,-491
35.31667,-491
35.32500,-491
35.33333,-491
35.34167,-491
35.35000,-491
35.35833,-490
35.36667,-490
35.37500,-491
35.38333,-491
35.39167,-490
35.40000,-490
35.40833,-490
35.41667,-490
35.42500,-490
35.43333,-490
35.44167,-489
35.45000,-489
35.45833,-490
35.46667,-490
35.47500,-490
35.48333,-490
35.49167,-490
35.50000,-490
35.50833,-490
35.51667,-490
35.52500,-490
35.53333,-490
35.54167,-490
35.55000,-490
35.55833,-490
35.56667,-490
35.57500,-490
35.58333,-490
35.59167,-490
35.60000,-490
35.60833,-490
35.61667,-490
35.62500,-491
35.63333,-491
35.64167,-491
35.65000,-491
35.65833,-490
35.66667,-490
35.67500,-490
35.68333,-490
35.69167,-490
35.70000,-490
35.70833,-490
35.71667,-490
35.72500,-490
35.73333,-490
35.74167,-490
35.75000,-490
35.75833,-491
35.76667,-491
35.77500,-491
35.78333,-490
35.79167,-490
35.80000,-490
35.80833,-490
35.81667,-490
35.82500,-491
35.83333,-491
35.84167,-491
35.85000,-491
35.85833,-491
35.86667,-490
35.87500,-490
35.88333,-489
35.89167,-489
35.90000,-489
35.90833,-489
35.91667,-489
35.92500,-489
35.93333,-489
35.94167,-489
35.95000,-488
35.95833,-489
35.96667,-489
35.97500,-489
35.98333,-489
35.99167,-489
36.00000,-489
36.00833,-489
36.01667,-489
36.02500,-489
36.03333,-488
36.04167,-488
36.05000,-488
36.05833,-488
36.06667,-488
36.07500,-488
36.08333,-488
36.09167,-487
36.10000,-488
36.10833,-488
36.11667,-488
36.12500,-488
36.13333,-488
36.14167,-488
36.15000,-488
36.15833,-488
36.16667,-487
36.17500,-487
36.18333,-487
36.19167,-487
36.20000,-487
36.20833,-486
36.21667,-486
36.22500,-486
36.23333,-486
36.24167,-485
36.25000,-485
36.25833,-486
36.26667,-485
36.27500,-485
36.28333,-484
36.29167,-484
36.30000,-484
36.30833,-484
36.31667,-483
36.32500,-483
36.33333,-483
36.34167,-483
36.35000,-483
36.35833,-483
36.36667,-483
36.37500,-483
36.38333,-483
36.39167,-483
36.40000,-483
36.40833,-483
36.41667,-482
36.42500,-482
36.43333,-482
36.44167,-482
36.45000,-482
36.45833,-482
36.46667,-481
36.47500,-481
36.48333,-480
36.49167,-480
36.50000,-480
36.50833,-480
36.51667,-480
36.52500,-480
36.53333,-480
36.54167,-480
36.55000,-479
36.55833,-479
36.56667,-479
36.57500,-479
36.58333,-478
36.59167,-478
36.60000,-478
36.60833,-478
36.61667,-477
36.62500,-477
36.63333,-477
36.64167,-476
36.65000,-476
36.65833,-475
36.66667,-475
36.67500,-474
36.68333,-474
36.69167,-474
36.70000,-474
36.70833,-474
36.71667,-474
36.72500,-473
36.73333,-473
36.74167,-472
36.75000,-472
36.75833,-471
36.76667,-471
36.77500,-470
36.78333,-470
36.79167,-470
36.80000,-470
36.80833,-469
36.81667,-469
36.82500,-468
36.83333,-468
36.84167,-467
36.85000,-467
36.85833,-467
36.86667,-467
36.87500,-466
36.88333,-466
36.89167,-466
36.90000,-465
36.90833,-464
36.91667,-464
36.92500,-463
36.93333,-463
36.94167,-462
36.95000,-462
36.95833,-461
36.96667,-461
36.97500,-461
36.98333,-460
36.99167,-460
37.00000,-459
37.00833,-459
37.01667,-458
37.02500,-457
37.03333,-456
37.04167,-455
37.05000,-455
37.05833,-454
37.06667,-454
37.07500,-454
37.08333,-453
37.09167,-452
37.10000,-452
37.10833,-451
37.11667,-451
37.12500,-451
37.13333,-450
37.14167,-449
37.15000,-448
37.15833,-448
37.16667,-447
37.17500,-447
37.18333,-446
37.19167,-446
37.20000,-445
37.20833,-445
37.21667,-444
37.22500,-443
37.23333,-443
37.24167,-442
37.25000,-442
37.25833,-441
37.26667,-440
37.27500,-439
37.28333,-439
37.29167,-438
37.30000,-437
37.30833,-436
37.31667,-436
37.32500,-435
37.33333,-435
37.34167,-435
37.35000,-435
37.35833,-434
37.36667,-434
37.37500,-433
37.38333,-432
37.39167,-431
37.40000,-430
37.40833,-430
37.41667,-429
37.42500,-428
37.43333,-428
37.44167,-427
37.45000,-427
37.45833,-426
37.46667,-425
37.47500,-425
37.48333,-424
37.49167,-424
37.50000,-423
37.50833,-422
37.51667,-422
37.52500,-421
37.53333,-421
37.54167,-421
37.55000,-421
37.55833,-420
37.56667,-419
37.57500,-419
37.58333,-419
37.59167,-419
37.60000,-418
37.60833,-418
37.61667,-418
37.62500,-417
37.63333,-417
37.64167,-417
37.65000,-417
37.65833,-417
37.66667,-416
37.67500,-416
37.68333,-416
37.69167,-416
37.70000,-417
37.70833,-417
37.71667,-417
37.72500,-417
37.73333,-417
37.74167,-418
37.75000,-418
37.75833,-418
37.76667,-418
37.77500,-418
37.78333,-418
37.79167,-419
37.80000,-419
37.80833,-420
37.81667,-420
37.82500,-421
37.83333,-422
37.84167,-422
37.85000,-423
37.85833,-423
37.86667,-424
37.87500,-424
37.88333,-425
37.89167,-426
37.90000,-427
37.90833,-428
37.91667,-429
37.92500,-430
37.93333,-431
37.94167,-431
37.95000,-431
37.95833,-432
37.96667,-433
37.97500,-434
37.98333,-436
37.99167,-437
38.00000,-438
38.00833,-439
38.01667,-440
38.02500,-440
38.03333,-441
38.04167,-442
38.05000,-443
38.05833,-444
38.06667,-446
38.07500,-447
38.08333,-448
38.09167,-449
38.10000,-451
38.10833,-452
38.11667,-453
38.12500,-455
38.13333,-456
38.14167,-457
38.15000,-458
38.15833,-459
38.16667,-460
38.17500,-462
38.18333,-463
38.19167,-464
38.20000,-466
38.20833,-467
38.21667,-469
38.22500,-470
38.23333,-471
38.24167,-473
38.25000,-474
38.25833,-475
38.26667,-477
38.27500,-478
38.28333,-479
38.29167,-481
38.30000,-482
38.30833,-484
38.31667,-486
38.32500,-487
38.33333,-489
38.34167,-490
38.35000,-491
38.35833,-492
38.36667,-493
38.37500,-494
38.38333,-496
38.39167,-497
38.40000,-498
38.40833,-500
38.41667,-501
38.42500,-502
38.43333,-503
38.44167,-505
38.45000,-506
38.45833,-507
38.46667,-509
38.47500,-511
38.48333,-512
38.49167,-513
38.50000,-514
38.50833,-515
38.51667,-517
38.52500,-518
38.53333,-519
38.54167,-520
38.55000,-521
38.55833,-523
38.56667,-524
38.57500,-525
38.58333,-526
38.59167,-528
38.60000,-529
38.60833,-530
38.61667,-531
38.62500,-531
38.63333,-532
38.64167,-533
38.65000,-534
38.65833,-535
38.66667,-536
38.67500,-537
38.68333,-538
38.69167,-539
38.70000,-540
38.70833,-541
38.71667,-542
38.72500,-543
38.73333,-544
38.74167,-545
38.75000,-546
38.75833,-547
38.76667,-547
38.77500,-548
38.78333,-548
38.79167,-549
38.80000,-549
38.80833,-550
38.81667,-550
38.82500,-551
38.83333,-551
38.84167,-551
38.85000,-552
38.85833,-553
38.86667,-554
38.87500,-554
38.88333,-555
38.89167,-555
38.90000,-556
38.90833,-556
38.91667,-557
38.92500,-557
38.93333,-557
38.94167,-558
38.95000,-558
38.95833,-559
38.96667,-559
38.97500,-560
38.98333,-560
38.99167,-560
39.00000,-560
39.00833,-560
39.01667,-561
39.02500,-561
39.03333,-561
39.04167,-561
39.05000,-562
39.05833,-562
39.06667,-562
39.07500,-562
39.08333,-562
39.09167,-562
39.10000,-562
39.10833,-563
39.11667,-563
39.12500,-563
39.13333,-564
39.14167,-564
39.15000,-565
39.15833,-565
39.16667,-565
39.17500,-564
39.18333,-564
39.19167,-564
39.20000,-564
39.20833,-565
39.21667,-565
39.22500,-565
39.23333,-565
39.24167,-565
39.25000,-565
39.25833,-565
39.26667,-565
39.27500,-565
39.28333,-566
39.29167,-566
39.30000,-566
39.30833,-566
39.31667,-566
39.32500,-566
39.33333,-566
39.34167,-566
39.35000,-566
39.35833,-566
39.36667,-566
39.37500,-566
39.38333,-566
39.39167,-566
39.40000,-566
39.40833,-566
39.41667,-566
39.42500,-567
39.43333,-567
39.44167,-567
39.45000,-567
39.45833,-567
39.46667,-566
39.47500,-566
39.48333,-566
39.49167,-567
39.50000,-567
39.50833,-567
39.51667,-567
39.52500,-567
39.53333,-567
39.54167,-567
39.55000,-567
39.55833,-567
39.56667,-567
39.57500,-568
39.58333,-568
39.59167,-567
39.60000,-567
39.60833,-567
39.61667,-568
39.62500,-568
39.63333,-568
39.64167,-568
39.65000,-568
39.65833,-568
39.66667,-568
39.67500,-568
39.68333,-568
39.69167,-568
39.70000,-568
39.70833,-568
39.71667,-569
39.72500,-569
39.73333,-569
39.74167,-570
39.75000,-570
39.75833,-570
39.76667,-570
39.77500,-570
39.78333,-569
39.79167,-569
39.80000,-570
39.80833,-570
39.81667,-570
39.82500,-571
39.83333,-571
39.84167,-571
39.85000,-570
39.85833,-570
39.86667,-570
39.87500,-570
39.88333,-570
39.89167,-570
39.90000,-571
39.90833,-571
39.91667,-571
39.92500,-571
39.93333,-571
39.94167,-571
39.95000,-571
39.95833,-571
39.96667,-571
39.97500,-572
39.98333,-572
39.99167,-572
40.00000,-572
40.00833,-572
40.01667,-572
40.02500,-572
40.03333,-572
40.04167,-572
40.05000,-572
40.05833,-572
40.06667,-572
40.07500,-572
40.08333,-572
40.09167,-571
40.10000,-571
40.10833,-571
40.11667,-572
40.12500,-572
40.13333,-572
40.14167,-572
40.15000,-572
40.15833,-572
40.16667,-572
40.17500,-572
40.18333,-572
40.19167,-572
40.20000,-572
40.20833,-572
40.21667,-572
40.22500,-572
40.23333,-572
40.24167,-573
40.25000,-573
40.25833,-572
40.26667,-572
40.27500,-572
40.28333,-572
40.29167,-572
40.30000,-572
40.30833,-572
40.31667,-573
40.32500,-573
40.33333,-573
40.34167,-573
40.35000,-573
40.35833,-573
40.36667,-573
40.37500,-573
40.38333,-573
40.39167,-573
40.40000,-573
40.40833,-573
40.41667,-573
40.42500,-573
40.43333,-573
40.44167,-573
40.45000,-573
40.45833,-573
40.46667,-573
40.47500,-573
40.48333,-572
40.49167,-572
40.50000,-571
40.50833,-571
40.51667,-571
40.52500,-571
40.53333,-571
40.54167,-571
40.55000,-571
40.55833,-571
40.56667,-570
40.57500,-570
40.58333,-570
40.59167,-569
40.60000,-569
40.60833,-569
40.61667,-569
40.62500,-568
40.63333,-568
40.64167,-568
40.65000,-568
40.65833,-567
40.66667,-567
40.67500,-567
40.68333,-566
40.69167,-566
40.70000,-566
40.70833,-566
40.71667,-566
40.72500,-565
40.73333,-565
40.74167,-565
40.75000,-565
40.75833,-565
40.76667,-564
40.77500,-564
40.78333,-564
40.79167,-564
40.80000,-563
40.80833,-562
40.81667,-562
40.82500,-561
40.83333,-561
40.84167,-560
40.85000,-560
40.85833,-560
40.86667,-559
40.87500,-559
40.88333,-558
40.89167,-557
40.90000,-557
40.90833,-557
40.91667,-556
40.92500,-555
40.93333,-554
40.94167,-554
40.95000,-553
40.95833,-552
40.96667,-552
40.97500,-552
40.98333,-551
40.99167,-550
41.00000,-549
41.00833,-549
41.01667,-548
41.02500,-547
41.03333,-546
41.04167,-546
41.05000,-545
41.05833,-544
41.06667,-544
41.07500,-543
41.08333,-542
41.09167,-541
41.10000,-540
41.10833,-539
41.11667,-538
41.12500,-537
41.13333,-536
41.14167,-535
41.15000,-534
41.15833,-533
41.16667,-532
41.17500,-532
41.18333,-531
41.19167,-530
41.20000,-528
41.20833,-527
41.21667,-527
41.22500,-526
41.23333,-525
41.24167,-524
41.25000,-523
41.25833,-522
41.26667,-521
41.27500,-520
41.28333,-518
41.29167,-517
41.30000,-515
41.30833,-514
41.31667,-513
41.32500,-511
41.33333,-510
41.34167,-509
41.35000,-507
41.35833,-506
41.36667,-505
41.37500,-504
41.38333,-503
41.39167,-501
41.40000,-500
41.40833,-499
41.41667,-497
41.42500,-496
41.43333,-496
41.44167,-495
41.45000,-493
41.45833,-492
41.46667,-491
41.47500,-490
41.48333,-488
41.49167,-487
41.50000,-485
41.50833,-484
41.51667,-483
41.52500,-481
41.53333,-479
41.54167,-478
41.55000,-477
41.55833,-476
41.56667,-474
41.57500,-473
41.58333,-472
41.59167,-470
41.60000,-469
41.60833,-468
41.61667,-467
41.62500,-466
41.63333,-465
41.64167,-463
41.65000,-462
41.65833,-461
41.66667,-459
41.67500,-458
41.68333,-457
41.69167,-455
41.70000,-454
41.70833,-453
41.71667,-452
41.72500,-451
41.73333,-450
41.74167,-449
41.75000,-448
41.75833,-447
41.76667,-446
41.77500,-445
41.78333,-444
41.79167,-443
41.80000,-442
41.80833,-442
41.81667,-441
41.82500,-440
41.83333,-439
41.84167,-438
41.85000,-437
41.85833,-436
41.86667,-435
41.87500,-434
41.88333,-433
41.89167,-432
41.90000,-432
41.90833,-431
41.91667,-430
41.92500,-429
41.93333,-428
41.94167,-427
41.95000,-427
41.95833,-426
41.96667,-426
41.97500,-426
41.98333,-426
41.99167,-425
42.00000,-425
42.00833,-424
42.01667,-423
42.02500,-423
42.03333,-422
42.04167,-422
42.05000,-422
42.05833,-421
42.06667,-421
42.07500,-420
42.08333,-420
42.09167,-420
42.10000,-420
42.10833,-419
42.11667,-419
42.12500,-419
42.13333,-418
42.14167,-419
42.15000,-418
42.15833,-418
42.16667,-419
42.17500,-419
42.18333,-419
42.19167,-419
42.20000,-419
42.20833,-419
42.21667,-419
42.22500,-419
42.23333,-419
42.24167,-419
42.25000,-419
42.25833,-419
42.26667,-419
42.27500,-420
42.28333,-420
42.29167,-421
42.30000,-421
42.30833,-421
42.31667,-422
42.32500,-422
42.33333,-422
42.34167,-423
42.35000,-423
42.35833,-423
42.36667,-424
42.37500,-424
42.38333,-425
42.39167,-425
42.40000,-426
42.40833,-426
42.41667,-427
42.42500,-428
42.43333,-428
42.44167,-428
42.45000,-428
42.45833,-429
42.46667,-429
42.47500,-430
42.48333,-431
42.49167,-432
42.50000,-432
42.50833,-433
42.51667,-433
42.52500,-434
42.53333,-436
42.54167,-437
42.55000,-438
42.55833,-438
42.56667,-439
42.57500,-439
42.58333,-440
42.59167,-441
42.60000,-441
42.60833,-442
42.61667,-443
42.62500,-444
42.63333,-444
42.64167,-445
42.65000,-446
42.65833,-447
42.66667,-448
42.67500,-449
42.68333,-450
42.69167,-450
42.70000,-451
42.70833,-452
42.71667,-453
42.72500,-455
42.73333,-456
42.74167,-457
42.75000,-458
42.75833,-459
42.76667,-460
42.77500,-461
42.78333,-462
42.79167,-463
42.80000,-464
42.80833,-464
42.81667,-465
42.82500,-466
42.83333,-467
42.84167,-468
42.85000,-469
42.85833,-470
42.86667,-471
42.87500,-472
42.88333,-473
42.89167,-475
42.90000,-476
42.90833,-477
42.91667,-478
42.92500,-479
42.93333,-480
42.94167,-481
42.95000,-482
42.95833,-483
42.96667,-484
42.97500,-485
42.98333,-486
42.99167,-487
43.00000,-488
43.00833,-489
43.01667,-490
43.02500,-491
43.03333,-492
43.04167,-493
43.05000,-494
43.05833,-495
43.06667,-496
43.07500,-498
43.08333,-499
43.09167,-499
43.10000,-500
43.10833,-501
43.11667,-502
43.12500,-503
43.13333,-504
43.14167,-505
43.15000,-506
43.15833,-507
43.16667,-508
43.17500,-509
43.18333,-510
43.19167,-511
43.20000,-512
43.20833,-513
43.21667,-514
43.22500,-516
43.23333,-517
43.24167,-518
43.25000,-519
43.25833,-520
43.26667,-521
43.27500,-522
43.28333,-522
43.29167,-523
43.30000,-524
43.30833,-525
43.31667,-526
43.32500,-527
43.33333,-528
43.34167,-529
43.35000,-530
43.35833,-531
43.36667,-532
43.37500,-533
43.38333,-533
43.39167,-534
43.40000,-535
43.40833,-537
43.41667,-538
43.42500,-539
43.43333,-540
43.44167,-541
43.45000,-542
43.45833,-543
43.46667,-544
43.47500,-544
43.48333,-545
43.49167,-546
43.50000,-547
43.50833,-548
43.51667,-549
43.52500,-550
43.53333,-550
43.54167,-551
43.55000,-552
43.55833,-553
43.56667,-554
43.57500,-555
43.58333,-556
43.59167,-556
43.60000,-557
43.60833,-558
43.61667,-559
43.62500,-560
43.63333,-561
43.64167,-562
43.65000,-563
43.65833,-564
43.66667,-565
43.67500,-566
43.68333,-567
43.69167,-567
43.70000,-568
43.70833,-569
43.71667,-570
43.72500,-572
43.73333,-573
43.74167,-573
43.75000,-573
43.75833,-574
43.76667,-574
43.77500,-575
43.78333,-576
43.79167,-577
43.80000,-578
43.80833,-578
43.81667,-579
43.82500,-580
43.83333,-581
43.84167,-581
43.85000,-582
43.85833,-583
43.86667,-584
43.87500,-584
43.88333,-585
43.89167,-586
43.90000,-587
43.90833,-587
43.91667,-588
43.92500,-589
43.93333,-589
43.94167,-590
43.95000,-591
43.95833,-591
43.96667,-592
43.97500,-593
43.98333,-594
43.99167,-595
44.00000,-596
44.00833,-597
44.01667,-597
44.02500,-598
44.03333,-598
44.04167,-599
44.05000,-600
44.05833,-601
44.06667,-602
44.07500,-603
44.08333,-603
44.09167,-603
44.10000,-604
44.10833,-604
44.11667,-605
44.12500,-606
44.13333,-606
44.14167,-607
44.15000,-608
44.15833,-608
44.16667,-609
44.17500,-610
44.18333,-610
44.19167,-611
44.20000,-612
44.20833,-612
44.21667,-612
44.22500,-613
44.23333,-613
44.24167,-613
44.25000,-614
44.25833,-615
44.26667,-615
44.27500,-616
44.28333,-616
44.29167,-617
44.30000,-617
44.30833,-618
44.31667,-618
44.32500,-619
44.33333,-619
44.34167,-620
44.35000,-621
44.35833,-622
44.36667,-622
44.37500,-622
44.38333,-622
44.39167,-622
44.40000,-623
44.40833,-623
44.41667,-624
44.42500,-625
44.43333,-625
44.44167,-626
44.45000,-627
44.45833,-627
44.46667,-628
44.47500,-628
44.48333,-629
44.49167,-629
44.50000,-630
44.50833,-630
44.51667,-630
44.52500,-631
44.53333,-631
44.54167,-632
44.55000,-632
44.55833,-633
44.56667,-633
44.57500,-634
44.58333,-634
44.59167,-634
44.60000,-635
44.60833,-635
44.61667,-635
44.62500,-636
44.63333,-637
44.64167,-637
44.65000,-637
44.65833,-637
44.66667,-638
44.67500,-638
44.68333,-638
44.69167,-639
44.70000,-639
44.70833,-640
44.71667,-640
44.72500,-640
44.73333,-640
44.74167,-640
44.75000,-640
44.75833,-641
44.76667,-641
44.77500,-642
44.78333,-642
44.79167,-642
44.80000,-642
44.80833,-642
44.81667,-643
44.82500,-643
44.83333,-644
44.84167,-644
44.85000,-644
44.85833,-644
44.86667,-644
44.87500,-644
44.88333,-645
44.89167,-645
44.90000,-645
44.90833,-645
44.91667,-645
44.92500,-646
44.93333,-646
44.94167,-647
44.95000,-647
44.95833,-647
44.96667,-647
44.97500,-647
44.98333,-647
44.99167,-647
45.00000,-647
45.00833,-647
45.01667,-647
45.02500,-648
45.03333,-648
45.04167,-649
45.05000,-649
45.05833,-649
45.06667,-649
45.07500,-649
45.08333,-650
45.09167,-650
45.10000,-650
45.10833,-650
45.11667,-650
45.12500,-650
45.13333,-650
45.14167,-650
45.15000,-650
45.15833,-650
45.16667,-650
45.17500,-651
45.18333,-651
45.19167,-651
45.20000,-651
45.20833,-651
45.21667,-651
45.22500,-651
45.23333,-651
45.24167,-651
45.25000,-651
45.25833,-651
45.26667,-651
45.27500,-652
45.28333,-652
45.29167,-652
45.30000,-652
45.30833,-651
45.31667,-651
45.32500,-651
45.33333,-651
45.34167,-651
45.35000,-651
45.35833,-651
45.36667,-652
45.37500,-652
45.38333,-652
45.39167,-653
45.40000,-653
45.40833,-653
45.41667,-653
45.42500,-653
45.43333,-653
45.44167,-653
45.45000,-653
45.45833,-653
45.46667,-653
45.47500,-653
45.48333,-653
45.49167,-653
45.50000,-653
45.50833,-654
45.51667,-654
45.52500,-654
45.53333,-654
45.54167,-654
45.55000,-654
45.55833,-654
45.56667,-654
45.57500,-654
45.58333,-654
45.59167,-653
45.60000,-654
45.60833,-654
45.61667,-654
45.62500,-654
45.63333,-654
45.64167,-654
45.65000,-654
45.65833,-655
45.66667,-655
45.67500,-655
45.68333,-655
45.69167,-655
45.70000,-656
45.70833,-656
45.71667,-656
45.72500,-656
45.73333,-657
45.74167,-656
45.75000,-657
45.75833,-657
45.76667,-657
45.77500,-657
45.78333,-657
45.79167,-658
45.80000,-658
45.80833,-658
45.81667,-658
45.82500,-658
45.83333,-658
45.84167,-658
45.85000,-658
45.85833,-658
45.86667,-658
45.87500,-658
45.88333,-659
45.89167,-659
45.90000,-660
45.90833,-660
45.91667,-660
45.92500,-661
45.93333,-661
45.94167,-661
45.95000,-661
45.95833,-662
45.96667,-662
45.97500,-662
45.98333,-662
45.99167,-662
46.00000,-663
46.00833,-663
46.01667,-663
46.02500,-663
46.03333,-663
46.04167,-663
46.05000,-664
46.05833,-664
46.06667,-665
46.07500,-665
46.08333,-665
46.09167,-665
46.10000,-666
46.10833,-666
46.11667,-666
46.12500,-666
46.13333,-667
46.14167,-667
46.15000,-667
46.15833,-668
46.16667,-669
46.17500,-669
46.18333,-669
46.19167,-670
46.20000,-670
46.20833,-670
46.21667,-670
46.22500,-670
46.23333,-671
46.24167,-671
46.25000,-672
46.25833,-672
46.26667,-672
46.27500,-672
46.28333,-673
46.29167,-673
46.30000,-674
46.30833,-674
46.31667,-675
46.32500,-675
46.33333,-675
46.34167,-676
46.35000,-676
46.35833,-676
46.36667,-677
46.37500,-677
46.38333,-677
46.39167,-677
46.40000,-678
46.40833,-678
46.41667,-679
46.42500,-679
46.43333,-679
46.44167,-680
46.45000,-680
46.45833,-681
46.46667,-681
46.47500,-682
46.48333,-683
46.49167,-683
46.50000,-683
46.50833,-683
46.51667,-684
46.52500,-684
46.53333,-684
46.54167,-684
46.55000,-684
46.55833,-685
46.56667,-685
46.57500,-685
46.58333,-685
46.59167,-685
46.60000,-686
46.60833,-686
46.61667,-687
46.62500,-687
46.63333,-688
46.64167,-689
46.65000,-689
46.65833,-689
46.66667,-690
46.67500,-690
46.68333,-690
46.69167,-690
46.70000,-691
46.70833,-691
46.71667,-691
46.72500,-691
46.73333,-692
46.74167,-692
46.75000,-692
46.75833,-692
46.76667,-693
46.77500,-693
46.78333,-693
46.79167,-693
46.80000,-693
46.80833,-693
46.81667,-693
46.82500,-694
46.83333,-694
46.84167,-694
46.85000,-694
46.85833,-694
46.86667,-694
46.87500,-694
46.88333,-695
46.89167,-695
46.90000,-695
46.90833,-696
46.91667,-696
46.92500,-696
46.93333,-697
46.94167,-696
46.95000,-696
46.95833,-696
46.96667,-696
46.97500,-696
46.98333,-696
46.99167,-696
47.00000,-696
47.00833,-696
47.01667,-696
47.02500,-696
47.03333,-696
47.04167,-696
47.05000,-696
47.05833,-695
47.06667,-695
47.07500,-695
47.08333,-695
47.09167,-695
47.10000,-695
47.10833,-695
47.11667,-695
47.12500,-695
47.13333,-696
47.14167,-695
47.15000,-695
47.15833,-694
47.16667,-694
47.17500,-694
47.18333,-693
47.19167,-693
47.20000,-692
47.20833,-692
47.21667,-692
47.22500,-691
47.23333,-691
47.24167,-691
47.25000,-690
47.25833,-690
47.26667,-690
47.27500,-689
47.28333,-689
47.29167,-689
47.30000,-689
47.30833,-689
47.31667,-688
47.32500,-688
47.33333,-687
47.34167,-686
47.35000,-686
47.35833,-685
47.36667,-684
47.37500,-684
47.38333,-683
47.39167,-682
47.40000,-682
47.40833,-681
47.41667,-680
47.42500,-680
47.43333,-679
47.44167,-678
47.45000,-678
47.45833,-678
47.46667,-677
47.47500,-676
47.48333,-675
47.49167,-674
47.50000,-673
47.50833,-673
47.51667,-672
47.52500,-672
47.53333,-671
47.54167,-670
47.55000,-669
47.55833,-669
47.56667,-668
47.57500,-667
47.58333,-667
47.59167,-667
47.60000,-666
47.60833,-665
47.61667,-664
47.62500,-663
47.63333,-662
47.64167,-662
47.65000,-661
47.65833,-660
47.66667,-660
47.67500,-660
47.68333,-659
47.69167,-659
47.70000,-658
47.70833,-657
47.71667,-657
47.72500,-657
47.73333,-656
47.74167,-656
47.75000,-655
47.75833,-654
47.76667,-653
47.77500,-653
47.78333,-652
47.79167,-652
47.80000,-652
47.80833,-651
47.81667,-651
47.82500,-650
47.83333,-650
47.84167,-649
47.85000,-649
47.85833,-648
47.86667,-648
47.87500,-648
47.88333,-648
47.89167,-648
47.90000,-648
47.90833,-647
47.91667,-647
47.92500,-646
47.93333,-646
47.94167,-646
47.95000,-646
47.95833,-646
47.96667,-646
47.97500,-645
47.98333,-645
47.99167,-644
48.00000,-644
48.00833,-643
48.01667,-643
48.02500,-643
48.03333,-642
48.04167,-642
48.05000,-642
48.05833,-641
48.06667,-641
48.07500,-641
48.08333,-641
48.09167,-641
48.10000,-641
48.10833,-640
48.11667,-640
48.12500,-640
48.13333,-640
48.14167,-640
48.15000,-640
48.15833,-640
48.16667,-640
48.17500,-640
48.18333,-640
48.19167,-640
48.20000,-640
48.20833,-639
48.21667,-639
48.22500,-639
48.23333,-639
48.24167,-640
48.25000,-640
48.25833,-640
48.26667,-640
48.27500,-640
48.28333,-640
48.29167,-641
48.30000,-641
48.30833,-641
48.31667,-641
48.32500,-641
48.33333,-641
48.34167,-641
48.35000,-641
48.35833,-641
48.36667,-641
48.37500,-640
48.38333,-640
48.39167,-640
48.40000,-640
48.40833,-641
48.41667,-641
48.42500,-641
48.43333,-641
48.44167,-641
48.45000,-641
48.45833,-641
48.46667,-641
48.47500,-641
48.48333,-641
48.49167,-642
48.50000,-642
48.50833,-642
48.51667,-643
48.52500,-643
48.53333,-643
48.54167,-644
48.55000,-644
48.55833,-644
48.56667,-643
48.57500,-643
48.58333,-643
48.59167,-644
48.60000,-644
48.60833,-644
48.61667,-643
48.62500,-643
48.63333,-643
48.64167,-643
48.65000,-643
48.65833,-644
48.66667,-644
48.67500,-644
48.68333,-644
48.69167,-644
48.70000,-644
48.70833,-644
48.71667,-645
48.72500,-645
48.73333,-645
48.74167,-645
48.75000,-645
48.75833,-645
48.76667,-646
48.77500,-646
48.78333,-645
48.79167,-645
48.80000,-645
48.80833,-645
48.81667,-645
48.82500,-645
48.83333,-645
48.84167,-645
48.85000,-645
48.85833,-645
48.86667,-646
48.87500,-646
48.88333,-646
48.89167,-646
48.90000,-646
48.90833,-646
48.91667,-646
48.92500,-646
48.93333,-646
48.94167,-646
48.95000,-646
48.95833,-646
48.96667,-646
48.97500,-646
48.98333,-647
48.99167,-647
49.00000,-647
49.00833,-648
49.01667,-648
49.02500,-648
49.03333,-648
49.04167,-648
49.05000,-648
49.05833,-648
49.06667,-648
49.07500,-648
49.08333,-648
49.09167,-649
49.10000,-649
49.10833,-649
49.11667,-649
49.12500,-649
49.13333,-649
49.14167,-649
49.15000,-649
49.15833,-649
49.16667,-649
49.17500,-649
49.18333,-650
49.19167,-650
49.20000,-650
49.20833,-651
49.21667,-651
49.22500,-652
49.23333,-652
49.24167,-653
49.25000,-653
49.25833,-653
49.26667,-654
49.27500,-654
49.28333,-654
49.29167,-654
49.30000,-654
49.30833,-655
49.31667,-655
49.32500,-655
49.33333,-656
49.34167,-657
49.35000,-657
49.35833,-658
49.36667,-659
49.37500,-659
49.38333,-659
49.39167,-660
49.40000,-660
49.40833,-660
49.41667,-660
49.42500,-661
49.43333,-661
49.44167,-661
49.45000,-661
49.45833,-662
49.46667,-662
49.47500,-662
49.48333,-663
49.49167,-663
49.50000,-664
49.50833,-665
49.51667,-665
49.52500,-665
49.53333,-666
49.54167,-666
49.55000,-666
49.55833,-667
49.56667,-668
49.57500,-669
49.58333,-669
49.59167,-670
49.60000,-671
49.60833,-671
49.61667,-671
49.62500,-672
49.63333,-672
49.64167,-673
49.65000,-673
49.65833,-674
49.66667,-676
49.67500,-676
49.68333,-677
49.69167,-678
49.70000,-679
49.70833,-679
49.71667,-680
49.72500,-681
49.73333,-681
49.74167,-682
49.75000,-683
49.75833,-684
49.76667,-684
49.77500,-685
49.78333,-686
49.79167,-686
49.80000,-687
49.80833,-688
49.81667,-689
49.82500,-690
49.83333,-691
49.84167,-692
49.85000,-693
49.85833,-693
49.86667,-694
49.87500,-695
49.88333,-696
49.89167,-697
49.90000,-698
49.90833,-699
49.91667,-701
49.92500,-702
49.93333,-703
49.94167,-703
49.95000,-704
49.95833,-704
49.96667,-705
49.97500,-706
49.98333,-707
49.99167,-708
50.00000,-709

