[Header]
Application Name,LabSolutions
Version,5.97 SP1
Data File Name,C:\Users\cremerlab\Desktop\Richa\Oct_18th_2022_yield_expt\Oct 18th 2022 yield expt_10182022_001_006.lcd
Output Date,10/18/2022
Output Time,9:53:01 PM

[File Information]
Type,Data File
Generated,10/18/2022 9:02:42 PM
Generated by,System Administrator
Modified,10/18/2022 9:53:01 PM
Modified by,System Administrator

[Sample Information]
Operator Name,System Administrator
Acquired,10/18/2022 9:03:00 PM
Sample Type,0:Unknown
Level,0
Sample Name,101822_BF_1
Sample ID,001
ISTD Amount1,1
ISTD Amount2,1
ISTD Amount3,1
ISTD Amount4,1
ISTD Amount5,1
ISTD Amount6,1
ISTD Amount7,1
ISTD Amount8,1
ISTD Amount9,1
ISTD Amount10,1
ISTD Amount11,1
ISTD Amount12,1
ISTD Amount13,1
ISTD Amount14,1
ISTD Amount15,1
ISTD Amount16,1
ISTD Amount17,1
ISTD Amount18,1
ISTD Amount19,1
ISTD Amount20,1
ISTD Amount21,1
ISTD Amount22,1
ISTD Amount23,1
ISTD Amount24,1
ISTD Amount25,1
ISTD Amount26,1
ISTD Amount27,1
ISTD Amount28,1
ISTD Amount29,1
ISTD Amount30,1
ISTD Amount31,1
ISTD Amount32,1
Sample Amount,1
Dilution Factor,1
Vial#,5
Injection Volume,20

[Original Files]
Data File,C:\Users\cremerlab\Desktop\Richa\Oct_18th_2022_yield_expt\Oct 18th 2022 yield expt_10182022_001_006.lcd
Method File,C:\Users\cremerlab\Desktop\Richa\acetate_excretion.lcm
Batch File,C:\Users\cremerlab\Desktop\Richa\Oct_18th_2022_yield_expt\Oct 18th 2022 yield expt.lcb
Report Format File,c:\LabSolutions\System\DEFAULT.lsr

[File Description]


[Configuration]
Instrument Name,HPLC-PC-Instrument1
Instrument #,1
Line #,1
# of Detectors,2
Detector ID,Detector A,Detector B
Detector Name,Detector A,Detector B
# of Channels,1,1

[Peak Table(Detector A)]
# of Peaks,0

[Peak Table(Detector B)]
# of Peaks,6
Peak#,R.Time,I.Time,F.Time,Area,Height,A/H,Conc.,Mark,ID#,Name,k',Plate #,Plate Ht.,Tailing,Resolution,Sep.Factor,Area Ratio,Height Ratio,Conc. %,Norm Conc.
1,11.029,10.558,12.633,2209453,114294,19.331,0.000,   ,,,0.000,7761,19.326,0.922,0.000,0.000,0,0,0.000,0.000
2,14.353,12.633,15.183,3715976,78117,47.569,0.000, V ,,,0.301,2445,61.344,0.653,4.000,0.000,0,0,0.000,0.000
3,15.772,15.183,18.633,1617204,53814,30.052,0.000, V ,,,0.430,6773,22.148,1.148,1.472,1.427,0,0,0.000,0.000
4,21.734,21.100,22.467,7099,164,43.311,0.000,   ,,,0.971,4929,30.430,1.026,5.948,2.257,0,0,0.000,0.000
5,25.082,24.283,26.150,138869,3479,39.918,0.000,   ,,,1.274,9175,16.349,1.048,2.930,1.313,0,0,0.000,0.000
6,32.378,30.725,33.392,33926,459,73.954,0.000,   ,,,1.936,6062,24.745,0.789,5.383,1.519,0,0,0.000,0.000

[LC Chromatogram(Detector B-Ch1)]
Interval(msec),500
# of Points,6001
Start Time(min),0.000
End Time(min),50.000
Intensity Units,mV
Intensity Multiplier,0.001
R.Time (min),Intensity
0.00000,1
0.00833,1
0.01667,0
0.02500,0
0.03333,0
0.04167,-0
0.05000,-0
0.05833,0
0.06667,0
0.07500,0
0.08333,0
0.09167,-0
0.10000,0
0.10833,0
0.11667,0
0.12500,0
0.13333,0
0.14167,0
0.15000,0
0.15833,0
0.16667,0
0.17500,0
0.18333,0
0.19167,0
0.20000,0
0.20833,1
0.21667,1
0.22500,1
0.23333,1
0.24167,1
0.25000,1
0.25833,1
0.26667,1
0.27500,1
0.28333,1
0.29167,1
0.30000,1
0.30833,1
0.31667,1
0.32500,1
0.33333,1
0.34167,1
0.35000,1
0.35833,1
0.36667,1
0.37500,1
0.38333,1
0.39167,1
0.40000,1
0.40833,1
0.41667,1
0.42500,1
0.43333,1
0.44167,1
0.45000,2
0.45833,2
0.46667,2
0.47500,2
0.48333,1
0.49167,1
0.50000,0
0.50833,0
0.51667,-0
0.52500,-0
0.53333,0
0.54167,0
0.55000,0
0.55833,0
0.56667,0
0.57500,0
0.58333,-0
0.59167,-0
0.60000,-0
0.60833,-0
0.61667,-0
0.62500,-0
0.63333,-0
0.64167,-0
0.65000,-0
0.65833,-0
0.66667,-1
0.67500,-1
0.68333,-1
0.69167,-1
0.70000,-0
0.70833,-0
0.71667,-0
0.72500,-1
0.73333,-1
0.74167,-2
0.75000,-1
0.75833,-1
0.76667,-1
0.77500,-1
0.78333,-1
0.79167,-1
0.80000,-2
0.80833,-2
0.81667,-2
0.82500,-2
0.83333,-2
0.84167,-2
0.85000,-2
0.85833,-2
0.86667,-2
0.87500,-2
0.88333,-2
0.89167,-2
0.90000,-2
0.90833,-2
0.91667,-2
0.92500,-3
0.93333,-3
0.94167,-3
0.95000,-3
0.95833,-3
0.96667,-3
0.97500,-3
0.98333,-3
0.99167,-2
1.00000,-2
1.00833,-2
1.01667,-2
1.02500,-2
1.03333,-2
1.04167,-2
1.05000,-2
1.05833,-2
1.06667,-2
1.07500,-2
1.08333,-1
1.09167,-1
1.10000,-2
1.10833,-2
1.11667,-2
1.12500,-2
1.13333,-2
1.14167,-2
1.15000,-2
1.15833,-2
1.16667,-2
1.17500,-3
1.18333,-3
1.19167,-3
1.20000,-3
1.20833,-3
1.21667,-3
1.22500,-3
1.23333,-3
1.24167,-3
1.25000,-3
1.25833,-3
1.26667,-4
1.27500,-4
1.28333,-4
1.29167,-4
1.30000,-5
1.30833,-5
1.31667,-5
1.32500,-5
1.33333,-5
1.34167,-4
1.35000,-4
1.35833,-4
1.36667,-4
1.37500,-4
1.38333,-5
1.39167,-5
1.40000,-5
1.40833,-4
1.41667,-4
1.42500,-4
1.43333,-5
1.44167,-5
1.45000,-5
1.45833,-5
1.46667,-5
1.47500,-5
1.48333,-5
1.49167,-5
1.50000,-5
1.50833,-5
1.51667,-6
1.52500,-6
1.53333,-6
1.54167,-5
1.55000,-5
1.55833,-5
1.56667,-6
1.57500,-6
1.58333,-5
1.59167,-5
1.60000,-6
1.60833,-6
1.61667,-6
1.62500,-7
1.63333,-7
1.64167,-7
1.65000,-7
1.65833,-7
1.66667,-7
1.67500,-7
1.68333,-7
1.69167,-6
1.70000,-6
1.70833,-6
1.71667,-6
1.72500,-6
1.73333,-6
1.74167,-6
1.75000,-6
1.75833,-6
1.76667,-6
1.77500,-6
1.78333,-6
1.79167,-6
1.80000,-6
1.80833,-7
1.81667,-7
1.82500,-7
1.83333,-7
1.84167,-7
1.85000,-7
1.85833,-7
1.86667,-7
1.87500,-7
1.88333,-6
1.89167,-6
1.90000,-6
1.90833,-7
1.91667,-7
1.92500,-7
1.93333,-7
1.94167,-8
1.95000,-8
1.95833,-7
1.96667,-7
1.97500,-7
1.98333,-7
1.99167,-7
2.00000,-7
2.00833,-7
2.01667,-7
2.02500,-7
2.03333,-6
2.04167,-6
2.05000,-6
2.05833,-6
2.06667,-6
2.07500,-6
2.08333,-6
2.09167,-6
2.10000,-6
2.10833,-7
2.11667,-7
2.12500,-7
2.13333,-8
2.14167,-8
2.15000,-8
2.15833,-7
2.16667,-7
2.17500,-7
2.18333,-7
2.19167,-7
2.20000,-7
2.20833,-7
2.21667,-7
2.22500,-7
2.23333,-7
2.24167,-7
2.25000,-7
2.25833,-7
2.26667,-7
2.27500,-7
2.28333,-7
2.29167,-7
2.30000,-7
2.30833,-7
2.31667,-7
2.32500,-7
2.33333,-7
2.34167,-7
2.35000,-8
2.35833,-8
2.36667,-8
2.37500,-8
2.38333,-8
2.39167,-8
2.40000,-8
2.40833,-7
2.41667,-7
2.42500,-7
2.43333,-7
2.44167,-8
2.45000,-8
2.45833,-7
2.46667,-7
2.47500,-8
2.48333,-8
2.49167,-8
2.50000,-8
2.50833,-8
2.51667,-8
2.52500,-7
2.53333,-7
2.54167,-7
2.55000,-7
2.55833,-7
2.56667,-7
2.57500,-7
2.58333,-7
2.59167,-7
2.60000,-6
2.60833,-6
2.61667,-6
2.62500,-6
2.63333,-6
2.64167,-6
2.65000,-6
2.65833,-6
2.66667,-6
2.67500,-6
2.68333,-7
2.69167,-6
2.70000,-6
2.70833,-6
2.71667,-6
2.72500,-6
2.73333,-6
2.74167,-7
2.75000,-7
2.75833,-7
2.76667,-7
2.77500,-7
2.78333,-7
2.79167,-7
2.80000,-7
2.80833,-7
2.81667,-7
2.82500,-7
2.83333,-7
2.84167,-7
2.85000,-7
2.85833,-7
2.86667,-7
2.87500,-7
2.88333,-7
2.89167,-7
2.90000,-7
2.90833,-7
2.91667,-6
2.92500,-6
2.93333,-6
2.94167,-6
2.95000,-6
2.95833,-7
2.96667,-7
2.97500,-7
2.98333,-7
2.99167,-7
3.00000,-7
3.00833,-7
3.01667,-7
3.02500,-7
3.03333,-6
3.04167,-6
3.05000,-7
3.05833,-7
3.06667,-7
3.07500,-7
3.08333,-7
3.09167,-7
3.10000,-7
3.10833,-7
3.11667,-6
3.12500,-6
3.13333,-6
3.14167,-6
3.15000,-6
3.15833,-6
3.16667,-7
3.17500,-7
3.18333,-7
3.19167,-7
3.20000,-7
3.20833,-6
3.21667,-6
3.22500,-6
3.23333,-6
3.24167,-6
3.25000,-6
3.25833,-7
3.26667,-7
3.27500,-7
3.28333,-7
3.29167,-7
3.30000,-7
3.30833,-7
3.31667,-7
3.32500,-7
3.33333,-7
3.34167,-7
3.35000,-7
3.35833,-7
3.36667,-8
3.37500,-8
3.38333,-7
3.39167,-7
3.40000,-8
3.40833,-8
3.41667,-8
3.42500,-8
3.43333,-8
3.44167,-8
3.45000,-8
3.45833,-8
3.46667,-8
3.47500,-8
3.48333,-8
3.49167,-8
3.50000,-8
3.50833,-7
3.51667,-7
3.52500,-7
3.53333,-7
3.54167,-7
3.55000,-7
3.55833,-7
3.56667,-7
3.57500,-6
3.58333,-6
3.59167,-6
3.60000,-6
3.60833,-6
3.61667,-7
3.62500,-7
3.63333,-7
3.64167,-7
3.65000,-7
3.65833,-7
3.66667,-7
3.67500,-7
3.68333,-7
3.69167,-7
3.70000,-6
3.70833,-6
3.71667,-6
3.72500,-6
3.73333,-6
3.74167,-6
3.75000,-6
3.75833,-6
3.76667,-6
3.77500,-6
3.78333,-6
3.79167,-6
3.80000,-7
3.80833,-7
3.81667,-7
3.82500,-7
3.83333,-7
3.84167,-7
3.85000,-7
3.85833,-7
3.86667,-7
3.87500,-7
3.88333,-6
3.89167,-6
3.90000,-6
3.90833,-6
3.91667,-6
3.92500,-6
3.93333,-6
3.94167,-7
3.95000,-7
3.95833,-7
3.96667,-7
3.97500,-8
3.98333,-8
3.99167,-7
4.00000,-6
4.00833,-6
4.01667,-6
4.02500,-6
4.03333,-6
4.04167,-6
4.05000,-6
4.05833,-6
4.06667,-6
4.07500,-6
4.08333,-6
4.09167,-6
4.10000,-6
4.10833,-7
4.11667,-7
4.12500,-6
4.13333,-7
4.14167,-7
4.15000,-7
4.15833,-7
4.16667,-7
4.17500,-7
4.18333,-7
4.19167,-7
4.20000,-7
4.20833,-7
4.21667,-7
4.22500,-7
4.23333,-7
4.24167,-7
4.25000,-7
4.25833,-7
4.26667,-7
4.27500,-7
4.28333,-7
4.29167,-7
4.30000,-7
4.30833,-6
4.31667,-6
4.32500,-6
4.33333,-6
4.34167,-6
4.35000,-6
4.35833,-6
4.36667,-6
4.37500,-6
4.38333,-7
4.39167,-7
4.40000,-7
4.40833,-7
4.41667,-7
4.42500,-7
4.43333,-6
4.44167,-6
4.45000,-7
4.45833,-6
4.46667,-6
4.47500,-6
4.48333,-5
4.49167,-5
4.50000,-5
4.50833,-6
4.51667,-6
4.52500,-6
4.53333,-6
4.54167,-6
4.55000,-6
4.55833,-6
4.56667,-7
4.57500,-7
4.58333,-7
4.59167,-7
4.60000,-7
4.60833,-7
4.61667,-7
4.62500,-7
4.63333,-7
4.64167,-7
4.65000,-7
4.65833,-7
4.66667,-7
4.67500,-6
4.68333,-6
4.69167,-6
4.70000,-6
4.70833,-6
4.71667,-6
4.72500,-6
4.73333,-6
4.74167,-6
4.75000,-6
4.75833,-6
4.76667,-6
4.77500,-6
4.78333,-6
4.79167,-6
4.80000,-6
4.80833,-6
4.81667,-6
4.82500,-6
4.83333,-6
4.84167,-6
4.85000,-6
4.85833,-6
4.86667,-6
4.87500,-6
4.88333,-7
4.89167,-7
4.90000,-7
4.90833,-7
4.91667,-7
4.92500,-7
4.93333,-7
4.94167,-7
4.95000,-7
4.95833,-7
4.96667,-7
4.97500,-7
4.98333,-7
4.99167,-7
5.00000,-7
5.00833,-7
5.01667,-7
5.02500,-6
5.03333,-6
5.04167,-6
5.05000,-6
5.05833,-6
5.06667,-6
5.07500,-6
5.08333,-6
5.09167,-7
5.10000,-7
5.10833,-6
5.11667,-6
5.12500,-6
5.13333,-6
5.14167,-6
5.15000,-7
5.15833,-7
5.16667,-7
5.17500,-7
5.18333,-7
5.19167,-7
5.20000,-7
5.20833,-6
5.21667,-6
5.22500,-6
5.23333,-6
5.24167,-7
5.25000,-7
5.25833,-7
5.26667,-7
5.27500,-6
5.28333,-7
5.29167,-7
5.30000,-7
5.30833,-7
5.31667,-7
5.32500,-7
5.33333,-7
5.34167,-7
5.35000,-6
5.35833,-6
5.36667,-6
5.37500,-7
5.38333,-7
5.39167,-7
5.40000,-7
5.40833,-7
5.41667,-7
5.42500,-7
5.43333,-7
5.44167,-7
5.45000,-7
5.45833,-7
5.46667,-7
5.47500,-7
5.48333,-7
5.49167,-7
5.50000,-6
5.50833,-6
5.51667,-6
5.52500,-7
5.53333,-7
5.54167,-7
5.55000,-6
5.55833,-6
5.56667,-7
5.57500,-6
5.58333,-6
5.59167,-6
5.60000,-6
5.60833,-6
5.61667,-6
5.62500,-6
5.63333,-6
5.64167,-6
5.65000,-7
5.65833,-7
5.66667,-7
5.67500,-7
5.68333,-7
5.69167,-7
5.70000,-7
5.70833,-7
5.71667,-7
5.72500,-7
5.73333,-7
5.74167,-7
5.75000,-7
5.75833,-7
5.76667,-7
5.77500,-8
5.78333,-7
5.79167,-7
5.80000,-6
5.80833,-6
5.81667,-6
5.82500,-6
5.83333,-6
5.84167,-6
5.85000,-6
5.85833,-6
5.86667,-6
5.87500,-6
5.88333,-6
5.89167,-7
5.90000,-7
5.90833,-7
5.91667,-7
5.92500,-7
5.93333,-7
5.94167,-7
5.95000,-7
5.95833,-7
5.96667,-7
5.97500,-7
5.98333,-7
5.99167,-7
6.00000,-7
6.00833,-7
6.01667,-7
6.02500,-7
6.03333,-7
6.04167,-7
6.05000,-8
6.05833,-8
6.06667,-7
6.07500,-7
6.08333,-7
6.09167,-7
6.10000,-7
6.10833,-7
6.11667,-6
6.12500,-6
6.13333,-7
6.14167,-7
6.15000,-7
6.15833,-7
6.16667,-7
6.17500,-8
6.18333,-8
6.19167,-7
6.20000,-7
6.20833,-7
6.21667,-7
6.22500,-7
6.23333,-8
6.24167,-8
6.25000,-8
6.25833,-8
6.26667,-8
6.27500,-8
6.28333,-8
6.29167,-8
6.30000,-8
6.30833,-8
6.31667,-7
6.32500,-7
6.33333,-7
6.34167,-7
6.35000,-7
6.35833,-6
6.36667,-7
6.37500,-7
6.38333,-7
6.39167,-7
6.40000,-7
6.40833,-7
6.41667,-7
6.42500,-7
6.43333,-7
6.44167,-7
6.45000,-7
6.45833,-7
6.46667,-7
6.47500,-7
6.48333,-7
6.49167,-7
6.50000,-7
6.50833,-7
6.51667,-6
6.52500,-7
6.53333,-7
6.54167,-7
6.55000,-7
6.55833,-7
6.56667,-7
6.57500,-6
6.58333,-6
6.59167,-6
6.60000,-6
6.60833,-6
6.61667,-6
6.62500,-6
6.63333,-6
6.64167,-6
6.65000,-7
6.65833,-7
6.66667,-7
6.67500,-7
6.68333,-7
6.69167,-7
6.70000,-7
6.70833,-7
6.71667,-7
6.72500,-7
6.73333,-7
6.74167,-7
6.75000,-7
6.75833,-7
6.76667,-6
6.77500,-6
6.78333,-6
6.79167,-6
6.80000,-6
6.80833,-6
6.81667,-7
6.82500,-7
6.83333,-7
6.84167,-7
6.85000,-7
6.85833,-7
6.86667,-7
6.87500,-7
6.88333,-7
6.89167,-7
6.90000,-7
6.90833,-7
6.91667,-7
6.92500,-6
6.93333,-6
6.94167,-7
6.95000,-7
6.95833,-7
6.96667,-7
6.97500,-7
6.98333,-7
6.99167,-7
7.00000,-7
7.00833,-7
7.01667,-7
7.02500,-7
7.03333,-7
7.04167,-6
7.05000,-6
7.05833,-6
7.06667,-6
7.07500,-6
7.08333,-6
7.09167,-7
7.10000,-7
7.10833,-7
7.11667,-7
7.12500,-7
7.13333,-7
7.14167,-7
7.15000,-7
7.15833,-6
7.16667,-6
7.17500,-6
7.18333,-6
7.19167,-6
7.20000,-6
7.20833,-7
7.21667,-7
7.22500,-7
7.23333,-7
7.24167,-7
7.25000,-6
7.25833,-6
7.26667,-6
7.27500,-6
7.28333,-6
7.29167,-7
7.30000,-7
7.30833,-7
7.31667,-7
7.32500,-7
7.33333,-7
7.34167,-7
7.35000,-7
7.35833,-7
7.36667,-7
7.37500,-7
7.38333,-7
7.39167,-6
7.40000,-6
7.40833,-6
7.41667,-7
7.42500,-7
7.43333,-7
7.44167,-7
7.45000,-6
7.45833,-6
7.46667,-6
7.47500,-6
7.48333,-7
7.49167,-7
7.50000,-7
7.50833,-7
7.51667,-7
7.52500,-7
7.53333,-7
7.54167,-7
7.55000,-6
7.55833,-6
7.56667,-6
7.57500,-6
7.58333,-6
7.59167,-6
7.60000,-6
7.60833,-6
7.61667,-6
7.62500,-7
7.63333,-7
7.64167,-7
7.65000,-7
7.65833,-7
7.66667,-6
7.67500,-6
7.68333,-6
7.69167,-6
7.70000,-6
7.70833,-6
7.71667,-6
7.72500,-7
7.73333,-7
7.74167,-7
7.75000,-7
7.75833,-7
7.76667,-6
7.77500,-6
7.78333,-7
7.79167,-7
7.80000,-7
7.80833,-7
7.81667,-7
7.82500,-7
7.83333,-7
7.84167,-7
7.85000,-7
7.85833,-7
7.86667,-7
7.87500,-7
7.88333,-7
7.89167,-7
7.90000,-7
7.90833,-7
7.91667,-7
7.92500,-7
7.93333,-7
7.94167,-7
7.95000,-7
7.95833,-7
7.96667,-6
7.97500,-6
7.98333,-6
7.99167,-6
8.00000,-6
8.00833,-6
8.01667,-6
8.02500,-7
8.03333,-7
8.04167,-7
8.05000,-7
8.05833,-7
8.06667,-7
8.07500,-8
8.08333,-8
8.09167,-8
8.10000,-8
8.10833,-8
8.11667,-8
8.12500,-7
8.13333,-7
8.14167,-7
8.15000,-7
8.15833,-7
8.16667,-7
8.17500,-7
8.18333,-7
8.19167,-7
8.20000,-8
8.20833,-8
8.21667,-7
8.22500,-7
8.23333,-7
8.24167,-7
8.25000,-7
8.25833,-7
8.26667,-7
8.27500,-7
8.28333,-7
8.29167,-7
8.30000,-7
8.30833,-7
8.31667,-7
8.32500,-7
8.33333,-7
8.34167,-7
8.35000,-7
8.35833,-7
8.36667,-7
8.37500,-7
8.38333,-8
8.39167,-8
8.40000,-9
8.40833,-9
8.41667,-9
8.42500,-8
8.43333,-8
8.44167,-8
8.45000,-8
8.45833,-8
8.46667,-8
8.47500,-8
8.48333,-8
8.49167,-8
8.50000,-7
8.50833,-7
8.51667,-7
8.52500,-8
8.53333,-8
8.54167,-7
8.55000,-7
8.55833,-7
8.56667,-7
8.57500,-7
8.58333,-7
8.59167,-7
8.60000,-7
8.60833,-7
8.61667,-7
8.62500,-6
8.63333,-6
8.64167,-7
8.65000,-7
8.65833,-8
8.66667,-8
8.67500,-8
8.68333,-8
8.69167,-7
8.70000,-7
8.70833,-7
8.71667,-7
8.72500,-6
8.73333,-6
8.74167,-7
8.75000,-7
8.75833,-7
8.76667,-7
8.77500,-7
8.78333,-6
8.79167,-6
8.80000,-6
8.80833,-6
8.81667,-6
8.82500,-7
8.83333,-7
8.84167,-8
8.85000,-8
8.85833,-7
8.86667,-7
8.87500,-7
8.88333,-7
8.89167,-7
8.90000,-7
8.90833,-7
8.91667,-7
8.92500,-7
8.93333,-7
8.94167,-7
8.95000,-6
8.95833,-6
8.96667,-6
8.97500,-7
8.98333,-7
8.99167,-7
9.00000,-7
9.00833,-7
9.01667,-7
9.02500,-7
9.03333,-7
9.04167,-7
9.05000,-7
9.05833,-7
9.06667,-7
9.07500,-7
9.08333,-7
9.09167,-7
9.10000,-7
9.10833,-7
9.11667,-7
9.12500,-6
9.13333,-6
9.14167,-6
9.15000,-6
9.15833,-7
9.16667,-7
9.17500,-7
9.18333,-7
9.19167,-7
9.20000,-7
9.20833,-6
9.21667,-6
9.22500,-6
9.23333,-6
9.24167,-6
9.25000,-6
9.25833,-5
9.26667,-5
9.27500,-5
9.28333,-6
9.29167,-6
9.30000,-6
9.30833,-6
9.31667,-6
9.32500,-7
9.33333,-7
9.34167,-7
9.35000,-7
9.35833,-7
9.36667,-6
9.37500,-7
9.38333,-7
9.39167,-7
9.40000,-7
9.40833,-7
9.41667,-7
9.42500,-6
9.43333,-6
9.44167,-6
9.45000,-6
9.45833,-7
9.46667,-7
9.47500,-7
9.48333,-7
9.49167,-7
9.50000,-7
9.50833,-7
9.51667,-7
9.52500,-7
9.53333,-7
9.54167,-7
9.55000,-7
9.55833,-7
9.56667,-7
9.57500,-7
9.58333,-7
9.59167,-6
9.60000,-6
9.60833,-6
9.61667,-6
9.62500,-6
9.63333,-6
9.64167,-7
9.65000,-7
9.65833,-7
9.66667,-7
9.67500,-7
9.68333,-7
9.69167,-7
9.70000,-7
9.70833,-7
9.71667,-7
9.72500,-6
9.73333,-6
9.74167,-6
9.75000,-7
9.75833,-7
9.76667,-7
9.77500,-7
9.78333,-7
9.79167,-7
9.80000,-7
9.80833,-7
9.81667,-7
9.82500,-7
9.83333,-7
9.84167,-7
9.85000,-7
9.85833,-8
9.86667,-8
9.87500,-8
9.88333,-8
9.89167,-8
9.90000,-8
9.90833,-8
9.91667,-7
9.92500,-7
9.93333,-7
9.94167,-6
9.95000,-6
9.95833,-6
9.96667,-6
9.97500,-6
9.98333,-6
9.99167,-6
10.00000,-6
10.00833,-7
10.01667,-7
10.02500,-7
10.03333,-8
10.04167,-7
10.05000,-7
10.05833,-7
10.06667,-7
10.07500,-7
10.08333,-7
10.09167,-7
10.10000,-7
10.10833,-6
10.11667,-7
10.12500,-7
10.13333,-7
10.14167,-7
10.15000,-7
10.15833,-7
10.16667,-7
10.17500,-7
10.18333,-7
10.19167,-7
10.20000,-7
10.20833,-6
10.21667,-7
10.22500,-7
10.23333,-7
10.24167,-7
10.25000,-7
10.25833,-6
10.26667,-6
10.27500,-6
10.28333,-6
10.29167,-5
10.30000,-5
10.30833,-5
10.31667,-5
10.32500,-5
10.33333,-6
10.34167,-6
10.35000,-7
10.35833,-8
10.36667,-10
10.37500,-12
10.38333,-15
10.39167,-20
10.40000,-26
10.40833,-35
10.41667,-46
10.42500,-62
10.43333,-81
10.44167,-106
10.45000,-136
10.45833,-171
10.46667,-213
10.47500,-260
10.48333,-312
10.49167,-370
10.50000,-431
10.50833,-494
10.51667,-557
10.52500,-616
10.53333,-669
10.54167,-711
10.55000,-738
10.55833,-746
10.56667,-728
10.57500,-680
10.58333,-596
10.59167,-468
10.60000,-292
10.60833,-61
10.61667,230
10.62500,589
10.63333,1021
10.64167,1531
10.65000,2125
10.65833,2808
10.66667,3585
10.67500,4461
10.68333,5438
10.69167,6523
10.70000,7717
10.70833,9024
10.71667,10447
10.72500,11987
10.73333,13646
10.74167,15426
10.75000,17328
10.75833,19353
10.76667,21500
10.77500,23770
10.78333,26161
10.79167,28673
10.80000,31305
10.80833,34054
10.81667,36918
10.82500,39894
10.83333,42979
10.84167,46169
10.85000,49458
10.85833,52842
10.86667,56312
10.87500,59861
10.88333,63481
10.89167,67159
10.90000,70883
10.90833,74637
10.91667,78405
10.92500,82164
10.93333,85891
10.94167,89557
10.95000,93130
10.95833,96572
10.96667,99841
10.97500,102891
10.98333,105671
10.99167,108127
11.00000,110203
11.00833,111842
11.01667,112988
11.02500,113588
11.03333,113597
11.04167,112979
11.05000,111710
11.05833,109779
11.06667,107194
11.07500,103984
11.08333,100191
11.09167,95876
11.10000,91117
11.10833,86000
11.11667,80619
11.12500,75073
11.13333,69458
11.14167,63864
11.15000,58373
11.15833,53057
11.16667,47974
11.17500,43171
11.18333,38680
11.19167,34521
11.20000,30705
11.20833,27232
11.21667,24095
11.22500,21281
11.23333,18771
11.24167,16545
11.25000,14579
11.25833,12850
11.26667,11337
11.27500,10014
11.28333,8862
11.29167,7860
11.30000,6990
11.30833,6234
11.31667,5579
11.32500,5009
11.33333,4515
11.34167,4085
11.35000,3710
11.35833,3383
11.36667,3096
11.37500,2845
11.38333,2623
11.39167,2427
11.40000,2253
11.40833,2098
11.41667,1960
11.42500,1835
11.43333,1724
11.44167,1622
11.45000,1530
11.45833,1446
11.46667,1369
11.47500,1298
11.48333,1232
11.49167,1172
11.50000,1116
11.50833,1064
11.51667,1016
11.52500,971
11.53333,928
11.54167,888
11.55000,851
11.55833,816
11.56667,783
11.57500,752
11.58333,722
11.59167,695
11.60000,668
11.60833,643
11.61667,619
11.62500,597
11.63333,575
11.64167,555
11.65000,535
11.65833,517
11.66667,500
11.67500,483
11.68333,468
11.69167,452
11.70000,438
11.70833,425
11.71667,412
11.72500,399
11.73333,388
11.74167,376
11.75000,366
11.75833,356
11.76667,346
11.77500,337
11.78333,329
11.79167,322
11.80000,315
11.80833,308
11.81667,301
11.82500,294
11.83333,288
11.84167,283
11.85000,277
11.85833,272
11.86667,268
11.87500,264
11.88333,260
11.89167,256
11.90000,253
11.90833,250
11.91667,247
11.92500,245
11.93333,242
11.94167,239
11.95000,236
11.95833,234
11.96667,232
11.97500,229
11.98333,228
11.99167,226
12.00000,225
12.00833,224
12.01667,223
12.02500,221
12.03333,220
12.04167,218
12.05000,217
12.05833,215
12.06667,214
12.07500,214
12.08333,213
12.09167,212
12.10000,211
12.10833,210
12.11667,209
12.12500,207
12.13333,206
12.14167,204
12.15000,203
12.15833,202
12.16667,201
12.17500,199
12.18333,197
12.19167,196
12.20000,194
12.20833,193
12.21667,192
12.22500,190
12.23333,188
12.24167,186
12.25000,185
12.25833,183
12.26667,182
12.27500,180
12.28333,179
12.29167,177
12.30000,176
12.30833,174
12.31667,173
12.32500,171
12.33333,169
12.34167,167
12.35000,166
12.35833,164
12.36667,163
12.37500,162
12.38333,160
12.39167,158
12.40000,157
12.40833,155
12.41667,154
12.42500,153
12.43333,152
12.44167,150
12.45000,148
12.45833,147
12.46667,145
12.47500,143
12.48333,142
12.49167,141
12.50000,140
12.50833,138
12.51667,137
12.52500,136
12.53333,134
12.54167,133
12.55000,133
12.55833,132
12.56667,131
12.57500,130
12.58333,129
12.59167,128
12.60000,127
12.60833,126
12.61667,125
12.62500,124
12.63333,124
12.64167,124
12.65000,124
12.65833,125
12.66667,126
12.67500,127
12.68333,130
12.69167,134
12.70000,139
12.70833,144
12.71667,152
12.72500,160
12.73333,171
12.74167,183
12.75000,198
12.75833,215
12.76667,234
12.77500,257
12.78333,283
12.79167,312
12.80000,344
12.80833,380
12.81667,421
12.82500,465
12.83333,514
12.84167,566
12.85000,624
12.85833,687
12.86667,755
12.87500,827
12.88333,905
12.89167,988
12.90000,1076
12.90833,1169
12.91667,1267
12.92500,1371
12.93333,1481
12.94167,1596
12.95000,1716
12.95833,1843
12.96667,1975
12.97500,2112
12.98333,2255
12.99167,2403
13.00000,2557
13.00833,2716
13.01667,2881
13.02500,3051
13.03333,3227
13.04167,3408
13.05000,3595
13.05833,3787
13.06667,3983
13.07500,4185
13.08333,4393
13.09167,4605
13.10000,4822
13.10833,5043
13.11667,5270
13.12500,5501
13.13333,5736
13.14167,5976
13.15000,6220
13.15833,6468
13.16667,6721
13.17500,6977
13.18333,7238
13.19167,7503
13.20000,7771
13.20833,8043
13.21667,8319
13.22500,8599
13.23333,8882
13.24167,9168
13.25000,9459
13.25833,9753
13.26667,10050
13.27500,10351
13.28333,10655
13.29167,10962
13.30000,11272
13.30833,11585
13.31667,11902
13.32500,12222
13.33333,12545
13.34167,12871
13.35000,13200
13.35833,13532
13.36667,13867
13.37500,14205
13.38333,14546
13.39167,14890
13.40000,15238
13.40833,15588
13.41667,15941
13.42500,16297
13.43333,16657
13.44167,17018
13.45000,17383
13.45833,17752
13.46667,18123
13.47500,18497
13.48333,18874
13.49167,19254
13.50000,19638
13.50833,20025
13.51667,20415
13.52500,20807
13.53333,21204
13.54167,21603
13.55000,22006
13.55833,22411
13.56667,22820
13.57500,23233
13.58333,23648
13.59167,24067
13.60000,24490
13.60833,24916
13.61667,25345
13.62500,25778
13.63333,26214
13.64167,26653
13.65000,27096
13.65833,27543
13.66667,27993
13.67500,28447
13.68333,28905
13.69167,29366
13.70000,29831
13.70833,30300
13.71667,30773
13.72500,31249
13.73333,31730
13.74167,32214
13.75000,32702
13.75833,33194
13.76667,33690
13.77500,34191
13.78333,34696
13.79167,35204
13.80000,35717
13.80833,36234
13.81667,36755
13.82500,37280
13.83333,37810
13.84167,38345
13.85000,38884
13.85833,39427
13.86667,39976
13.87500,40529
13.88333,41086
13.89167,41648
13.90000,42215
13.90833,42787
13.91667,43363
13.92500,43945
13.93333,44531
13.94167,45123
13.95000,45720
13.95833,46322
13.96667,46929
13.97500,47541
13.98333,48158
13.99167,48781
14.00000,49409
14.00833,50043
14.01667,50682
14.02500,51327
14.03333,51977
14.04167,52634
14.05000,53296
14.05833,53964
14.06667,54638
14.07500,55317
14.08333,56003
14.09167,56695
14.10000,57393
14.10833,58098
14.11667,58810
14.12500,59527
14.13333,60252
14.14167,60982
14.15000,61720
14.15833,62464
14.16667,63215
14.17500,63973
14.18333,64738
14.19167,65510
14.20000,66289
14.20833,67075
14.21667,67868
14.22500,68666
14.23333,69469
14.24167,70274
14.25000,71077
14.25833,71876
14.26667,72663
14.27500,73433
14.28333,74176
14.29167,74881
14.30000,75537
14.30833,76132
14.31667,76654
14.32500,77089
14.33333,77427
14.34167,77655
14.35000,77765
14.35833,77748
14.36667,77598
14.37500,77309
14.38333,76879
14.39167,76303
14.40000,75580
14.40833,74708
14.41667,73685
14.42500,72508
14.43333,71177
14.44167,69690
14.45000,68043
14.45833,66237
14.46667,64274
14.47500,62156
14.48333,59891
14.49167,57487
14.50000,54957
14.50833,52317
14.51667,49589
14.52500,46793
14.53333,43956
14.54167,41104
14.55000,38263
14.55833,35460
14.56667,32722
14.57500,30069
14.58333,27524
14.59167,25101
14.60000,22816
14.60833,20676
14.61667,18687
14.62500,16853
14.63333,15171
14.64167,13640
14.65000,12252
14.65833,11001
14.66667,9879
14.67500,8876
14.68333,7982
14.69167,7189
14.70000,6487
14.70833,5866
14.71667,5318
14.72500,4834
14.73333,4408
14.74167,4032
14.75000,3700
14.75833,3408
14.76667,3150
14.77500,2921
14.78333,2718
14.79167,2538
14.80000,2377
14.80833,2234
14.81667,2105
14.82500,1990
14.83333,1886
14.84167,1792
14.85000,1707
14.85833,1630
14.86667,1559
14.87500,1493
14.88333,1434
14.89167,1378
14.90000,1327
14.90833,1280
14.91667,1236
14.92500,1195
14.93333,1156
14.94167,1120
14.95000,1087
14.95833,1055
14.96667,1025
14.97500,997
14.98333,970
14.99167,944
15.00000,920
15.00833,897
15.01667,875
15.02500,855
15.03333,836
15.04167,818
15.05000,800
15.05833,784
15.06667,769
15.07500,754
15.08333,740
15.09167,727
15.10000,715
15.10833,703
15.11667,692
15.12500,682
15.13333,673
15.14167,665
15.15000,657
15.15833,651
15.16667,646
15.17500,643
15.18333,641
15.19167,641
15.20000,644
15.20833,650
15.21667,658
15.22500,671
15.23333,689
15.24167,713
15.25000,744
15.25833,784
15.26667,833
15.27500,894
15.28333,968
15.29167,1058
15.30000,1166
15.30833,1295
15.31667,1447
15.32500,1625
15.33333,1832
15.34167,2072
15.35000,2348
15.35833,2663
15.36667,3022
15.37500,3427
15.38333,3883
15.39167,4392
15.40000,4958
15.40833,5585
15.41667,6274
15.42500,7028
15.43333,7848
15.44167,8738
15.45000,9696
15.45833,10723
15.46667,11819
15.47500,12982
15.48333,14210
15.49167,15501
15.50000,16851
15.50833,18256
15.51667,19711
15.52500,21210
15.53333,22747
15.54167,24315
15.55000,25908
15.55833,27517
15.56667,29135
15.57500,30754
15.58333,32366
15.59167,33963
15.60000,35537
15.60833,37080
15.61667,38584
15.62500,40044
15.63333,41452
15.64167,42803
15.65000,44091
15.65833,45311
15.66667,46457
15.67500,47528
15.68333,48519
15.69167,49426
15.70000,50249
15.70833,50984
15.71667,51630
15.72500,52187
15.73333,52652
15.74167,53026
15.75000,53309
15.75833,53500
15.76667,53600
15.77500,53609
15.78333,53528
15.79167,53359
15.80000,53102
15.80833,52760
15.81667,52333
15.82500,51825
15.83333,51237
15.84167,50573
15.85000,49834
15.85833,49024
15.86667,48146
15.87500,47204
15.88333,46203
15.89167,45147
15.90000,44040
15.90833,42887
15.91667,41692
15.92500,40461
15.93333,39199
15.94167,37911
15.95000,36603
15.95833,35279
15.96667,33945
15.97500,32607
15.98333,31268
15.99167,29935
16.00000,28611
16.00833,27301
16.01667,26009
16.02500,24740
16.03333,23496
16.04167,22280
16.05000,21097
16.05833,19947
16.06667,18834
16.07500,17759
16.08333,16723
16.09167,15728
16.10000,14775
16.10833,13863
16.11667,12994
16.12500,12167
16.13333,11382
16.14167,10639
16.15000,9936
16.15833,9273
16.16667,8650
16.17500,8063
16.18333,7514
16.19167,7000
16.20000,6520
16.20833,6072
16.21667,5655
16.22500,5267
16.23333,4907
16.24167,4573
16.25000,4263
16.25833,3977
16.26667,3713
16.27500,3469
16.28333,3244
16.29167,3036
16.30000,2845
16.30833,2670
16.31667,2508
16.32500,2359
16.33333,2223
16.34167,2097
16.35000,1982
16.35833,1876
16.36667,1778
16.37500,1688
16.38333,1606
16.39167,1530
16.40000,1460
16.40833,1395
16.41667,1335
16.42500,1280
16.43333,1229
16.44167,1182
16.45000,1138
16.45833,1097
16.46667,1059
16.47500,1023
16.48333,991
16.49167,960
16.50000,931
16.50833,903
16.51667,877
16.52500,853
16.53333,829
16.54167,808
16.55000,787
16.55833,767
16.56667,748
16.57500,730
16.58333,712
16.59167,695
16.60000,679
16.60833,664
16.61667,649
16.62500,634
16.63333,620
16.64167,606
16.65000,593
16.65833,581
16.66667,568
16.67500,557
16.68333,545
16.69167,534
16.70000,524
16.70833,514
16.71667,504
16.72500,495
16.73333,486
16.74167,477
16.75000,469
16.75833,461
16.76667,453
16.77500,446
16.78333,439
16.79167,432
16.80000,425
16.80833,419
16.81667,413
16.82500,408
16.83333,402
16.84167,397
16.85000,392
16.85833,387
16.86667,382
16.87500,378
16.88333,374
16.89167,370
16.90000,366
16.90833,363
16.91667,360
16.92500,357
16.93333,354
16.94167,351
16.95000,348
16.95833,345
16.96667,342
16.97500,339
16.98333,336
16.99167,333
17.00000,331
17.00833,329
17.01667,327
17.02500,325
17.03333,323
17.04167,321
17.05000,319
17.05833,317
17.06667,314
17.07500,312
17.08333,310
17.09167,308
17.10000,305
17.10833,303
17.11667,302
17.12500,300
17.13333,298
17.14167,296
17.15000,294
17.15833,292
17.16667,290
17.17500,288
17.18333,286
17.19167,284
17.20000,282
17.20833,280
17.21667,277
17.22500,275
17.23333,273
17.24167,271
17.25000,270
17.25833,268
17.26667,266
17.27500,264
17.28333,261
17.29167,259
17.30000,257
17.30833,255
17.31667,253
17.32500,251
17.33333,249
17.34167,247
17.35000,245
17.35833,243
17.36667,241
17.37500,239
17.38333,237
17.39167,235
17.40000,232
17.40833,230
17.41667,228
17.42500,227
17.43333,225
17.44167,223
17.45000,221
17.45833,219
17.46667,217
17.47500,215
17.48333,213
17.49167,212
17.50000,210
17.50833,208
17.51667,206
17.52500,205
17.53333,204
17.54167,202
17.55000,200
17.55833,199
17.56667,197
17.57500,196
17.58333,195
17.59167,193
17.60000,191
17.60833,189
17.61667,188
17.62500,186
17.63333,185
17.64167,184
17.65000,182
17.65833,180
17.66667,179
17.67500,177
17.68333,176
17.69167,175
17.70000,174
17.70833,172
17.71667,171
17.72500,170
17.73333,168
17.74167,167
17.75000,166
17.75833,165
17.76667,164
17.77500,162
17.78333,161
17.79167,161
17.80000,160
17.80833,160
17.81667,159
17.82500,158
17.83333,156
17.84167,155
17.85000,154
17.85833,152
17.86667,151
17.87500,150
17.88333,148
17.89167,147
17.90000,146
17.90833,145
17.91667,145
17.92500,144
17.93333,143
17.94167,142
17.95000,141
17.95833,141
17.96667,140
17.97500,139
17.98333,138
17.99167,138
18.00000,137
18.00833,137
18.01667,136
18.02500,136
18.03333,135
18.04167,134
18.05000,133
18.05833,132
18.06667,131
18.07500,130
18.08333,129
18.09167,128
18.10000,128
18.10833,127
18.11667,126
18.12500,126
18.13333,125
18.14167,125
18.15000,124
18.15833,123
18.16667,123
18.17500,122
18.18333,122
18.19167,121
18.20000,120
18.20833,120
18.21667,119
18.22500,119
18.23333,118
18.24167,117
18.25000,117
18.25833,116
18.26667,115
18.27500,115
18.28333,114
18.29167,113
18.30000,113
18.30833,112
18.31667,112
18.32500,111
18.33333,111
18.34167,110
18.35000,110
18.35833,109
18.36667,109
18.37500,108
18.38333,107
18.39167,107
18.40000,106
18.40833,106
18.41667,106
18.42500,105
18.43333,104
18.44167,104
18.45000,103
18.45833,102
18.46667,102
18.47500,101
18.48333,101
18.49167,100
18.50000,99
18.50833,99
18.51667,99
18.52500,98
18.53333,97
18.54167,97
18.55000,96
18.55833,96
18.56667,95
18.57500,95
18.58333,94
18.59167,94
18.60000,93
18.60833,93
18.61667,92
18.62500,92
18.63333,92
18.64167,91
18.65000,91
18.65833,90
18.66667,90
18.67500,89
18.68333,89
18.69167,88
18.70000,88
18.70833,87
18.71667,87
18.72500,86
18.73333,86
18.74167,86
18.75000,86
18.75833,85
18.76667,85
18.77500,84
18.78333,84
18.79167,83
18.80000,83
18.80833,82
18.81667,82
18.82500,82
18.83333,82
18.84167,82
18.85000,81
18.85833,81
18.86667,80
18.87500,80
18.88333,80
18.89167,79
18.90000,79
18.90833,78
18.91667,78
18.92500,78
18.93333,77
18.94167,77
18.95000,77
18.95833,77
18.96667,77
18.97500,77
18.98333,77
18.99167,77
19.00000,77
19.00833,77
19.01667,76
19.02500,76
19.03333,76
19.04167,76
19.05000,76
19.05833,76
19.06667,76
19.07500,76
19.08333,76
19.09167,75
19.10000,75
19.10833,75
19.11667,75
19.12500,74
19.13333,74
19.14167,74
19.15000,74
19.15833,74
19.16667,74
19.17500,74
19.18333,74
19.19167,74
19.20000,74
19.20833,74
19.21667,73
19.22500,73
19.23333,73
19.24167,73
19.25000,73
19.25833,73
19.26667,72
19.27500,72
19.28333,72
19.29167,71
19.30000,71
19.30833,71
19.31667,71
19.32500,70
19.33333,70
19.34167,70
19.35000,69
19.35833,69
19.36667,68
19.37500,68
19.38333,68
19.39167,68
19.40000,67
19.40833,67
19.41667,66
19.42500,65
19.43333,65
19.44167,64
19.45000,64
19.45833,63
19.46667,63
19.47500,63
19.48333,62
19.49167,61
19.50000,60
19.50833,60
19.51667,59
19.52500,59
19.53333,58
19.54167,58
19.55000,57
19.55833,57
19.56667,56
19.57500,55
19.58333,55
19.59167,54
19.60000,54
19.60833,53
19.61667,53
19.62500,52
19.63333,51
19.64167,51
19.65000,50
19.65833,50
19.66667,49
19.67500,49
19.68333,48
19.69167,48
19.70000,48
19.70833,47
19.71667,47
19.72500,47
19.73333,46
19.74167,46
19.75000,45
19.75833,45
19.76667,44
19.77500,44
19.78333,43
19.79167,43
19.80000,42
19.80833,42
19.81667,42
19.82500,42
19.83333,42
19.84167,42
19.85000,41
19.85833,41
19.86667,41
19.87500,41
19.88333,41
19.89167,40
19.90000,40
19.90833,40
19.91667,40
19.92500,40
19.93333,39
19.94167,39
19.95000,39
19.95833,39
19.96667,38
19.97500,38
19.98333,38
19.99167,38
20.00000,37
20.00833,36
20.01667,36
20.02500,36
20.03333,36
20.04167,36
20.05000,36
20.05833,36
20.06667,36
20.07500,36
20.08333,36
20.09167,36
20.10000,36
20.10833,36
20.11667,35
20.12500,35
20.13333,35
20.14167,34
20.15000,34
20.15833,34
20.16667,34
20.17500,34
20.18333,34
20.19167,34
20.20000,34
20.20833,34
20.21667,34
20.22500,33
20.23333,33
20.24167,33
20.25000,33
20.25833,33
20.26667,33
20.27500,33
20.28333,33
20.29167,33
20.30000,33
20.30833,32
20.31667,32
20.32500,32
20.33333,32
20.34167,32
20.35000,32
20.35833,32
20.36667,32
20.37500,31
20.38333,31
20.39167,31
20.40000,31
20.40833,31
20.41667,31
20.42500,31
20.43333,31
20.44167,31
20.45000,32
20.45833,32
20.46667,32
20.47500,32
20.48333,32
20.49167,33
20.50000,33
20.50833,33
20.51667,33
20.52500,33
20.53333,33
20.54167,34
20.55000,34
20.55833,33
20.56667,34
20.57500,34
20.58333,35
20.59167,35
20.60000,35
20.60833,35
20.61667,35
20.62500,36
20.63333,37
20.64167,37
20.65000,38
20.65833,39
20.66667,39
20.67500,40
20.68333,40
20.69167,41
20.70000,41
20.70833,42
20.71667,42
20.72500,42
20.73333,43
20.74167,43
20.75000,44
20.75833,44
20.76667,44
20.77500,45
20.78333,45
20.79167,45
20.80000,45
20.80833,45
20.81667,46
20.82500,46
20.83333,47
20.84167,47
20.85000,48
20.85833,48
20.86667,49
20.87500,49
20.88333,49
20.89167,49
20.90000,49
20.90833,49
20.91667,50
20.92500,50
20.93333,50
20.94167,50
20.95000,50
20.95833,50
20.96667,51
20.97500,51
20.98333,52
20.99167,52
21.00000,53
21.00833,53
21.01667,54
21.02500,54
21.03333,55
21.04167,56
21.05000,57
21.05833,58
21.06667,59
21.07500,60
21.08333,61
21.09167,62
21.10000,64
21.10833,65
21.11667,66
21.12500,68
21.13333,70
21.14167,72
21.15000,74
21.15833,76
21.16667,78
21.17500,80
21.18333,83
21.19167,85
21.20000,88
21.20833,90
21.21667,92
21.22500,95
21.23333,98
21.24167,101
21.25000,104
21.25833,107
21.26667,109
21.27500,112
21.28333,114
21.29167,117
21.30000,120
21.30833,122
21.31667,125
21.32500,127
21.33333,130
21.34167,132
21.35000,134
21.35833,136
21.36667,139
21.37500,141
21.38333,144
21.39167,146
21.40000,148
21.40833,151
21.41667,153
21.42500,155
21.43333,158
21.44167,160
21.45000,162
21.45833,164
21.46667,166
21.47500,168
21.48333,170
21.49167,172
21.50000,174
21.50833,176
21.51667,178
21.52500,181
21.53333,183
21.54167,186
21.55000,188
21.55833,190
21.56667,192
21.57500,194
21.58333,196
21.59167,198
21.60000,200
21.60833,201
21.61667,203
21.62500,204
21.63333,206
21.64167,207
21.65000,208
21.65833,209
21.66667,211
21.67500,212
21.68333,213
21.69167,214
21.70000,214
21.70833,215
21.71667,215
21.72500,215
21.73333,216
21.74167,215
21.75000,215
21.75833,214
21.76667,214
21.77500,213
21.78333,212
21.79167,211
21.80000,210
21.80833,209
21.81667,208
21.82500,206
21.83333,205
21.84167,204
21.85000,202
21.85833,201
21.86667,199
21.87500,197
21.88333,195
21.89167,194
21.90000,192
21.90833,190
21.91667,188
21.92500,186
21.93333,184
21.94167,182
21.95000,180
21.95833,178
21.96667,175
21.97500,173
21.98333,170
21.99167,168
22.00000,165
22.00833,163
22.01667,160
22.02500,158
22.03333,155
22.04167,153
22.05000,150
22.05833,148
22.06667,145
22.07500,142
22.08333,138
22.09167,135
22.10000,132
22.10833,129
22.11667,126
22.12500,123
22.13333,119
22.14167,116
22.15000,113
22.15833,109
22.16667,105
22.17500,102
22.18333,98
22.19167,95
22.20000,92
22.20833,88
22.21667,85
22.22500,82
22.23333,80
22.24167,77
22.25000,74
22.25833,71
22.26667,69
22.27500,66
22.28333,64
22.29167,62
22.30000,60
22.30833,58
22.31667,56
22.32500,55
22.33333,53
22.34167,51
22.35000,50
22.35833,48
22.36667,46
22.37500,45
22.38333,44
22.39167,43
22.40000,42
22.40833,41
22.41667,41
22.42500,40
22.43333,40
22.44167,39
22.45000,39
22.45833,38
22.46667,38
22.47500,38
22.48333,38
22.49167,39
22.50000,39
22.50833,39
22.51667,40
22.52500,40
22.53333,40
22.54167,40
22.55000,40
22.55833,41
22.56667,41
22.57500,42
22.58333,42
22.59167,43
22.60000,44
22.60833,45
22.61667,46
22.62500,47
22.63333,48
22.64167,49
22.65000,50
22.65833,51
22.66667,52
22.67500,52
22.68333,53
22.69167,54
22.70000,56
22.70833,58
22.71667,59
22.72500,60
22.73333,61
22.74167,62
22.75000,64
22.75833,66
22.76667,67
22.77500,69
22.78333,70
22.79167,72
22.80000,74
22.80833,76
22.81667,77
22.82500,79
22.83333,80
22.84167,82
22.85000,83
22.85833,85
22.86667,86
22.87500,88
22.88333,89
22.89167,90
22.90000,91
22.90833,92
22.91667,93
22.92500,94
22.93333,95
22.94167,97
22.95000,98
22.95833,98
22.96667,99
22.97500,100
22.98333,101
22.99167,101
23.00000,102
23.00833,103
23.01667,103
23.02500,104
23.03333,104
23.04167,104
23.05000,105
23.05833,105
23.06667,105
23.07500,105
23.08333,105
23.09167,104
23.10000,104
23.10833,104
23.11667,104
23.12500,103
23.13333,103
23.14167,102
23.15000,101
23.15833,100
23.16667,99
23.17500,98
23.18333,97
23.19167,96
23.20000,95
23.20833,93
23.21667,92
23.22500,90
23.23333,89
23.24167,87
23.25000,86
23.25833,84
23.26667,83
23.27500,81
23.28333,79
23.29167,77
23.30000,75
23.30833,73
23.31667,72
23.32500,70
23.33333,67
23.34167,65
23.35000,63
23.35833,61
23.36667,59
23.37500,57
23.38333,55
23.39167,53
23.40000,51
23.40833,50
23.41667,48
23.42500,46
23.43333,44
23.44167,43
23.45000,41
23.45833,38
23.46667,36
23.47500,34
23.48333,33
23.49167,31
23.50000,30
23.50833,28
23.51667,27
23.52500,26
23.53333,25
23.54167,23
23.55000,22
23.55833,21
23.56667,20
23.57500,19
23.58333,18
23.59167,17
23.60000,16
23.60833,16
23.61667,15
23.62500,14
23.63333,14
23.64167,13
23.65000,12
23.65833,11
23.66667,10
23.67500,10
23.68333,9
23.69167,8
23.70000,8
23.70833,8
23.71667,8
23.72500,7
23.73333,7
23.74167,7
23.75000,7
23.75833,6
23.76667,6
23.77500,6
23.78333,5
23.79167,5
23.80000,5
23.80833,5
23.81667,5
23.82500,5
23.83333,5
23.84167,5
23.85000,5
23.85833,5
23.86667,5
23.87500,5
23.88333,5
23.89167,5
23.90000,5
23.90833,4
23.91667,4
23.92500,4
23.93333,3
23.94167,3
23.95000,3
23.95833,4
23.96667,4
23.97500,4
23.98333,4
23.99167,4
24.00000,4
24.00833,4
24.01667,4
24.02500,4
24.03333,4
24.04167,4
24.05000,4
24.05833,4
24.06667,4
24.07500,3
24.08333,3
24.09167,3
24.10000,3
24.10833,3
24.11667,3
24.12500,3
24.13333,3
24.14167,3
24.15000,3
24.15833,3
24.16667,4
24.17500,4
24.18333,4
24.19167,4
24.20000,4
24.20833,4
24.21667,5
24.22500,5
24.23333,5
24.24167,5
24.25000,6
24.25833,6
24.26667,7
24.27500,7
24.28333,8
24.29167,9
24.30000,10
24.30833,11
24.31667,12
24.32500,14
24.33333,16
24.34167,18
24.35000,20
24.35833,23
24.36667,27
24.37500,31
24.38333,35
24.39167,40
24.40000,45
24.40833,51
24.41667,58
24.42500,65
24.43333,74
24.44167,84
24.45000,95
24.45833,107
24.46667,120
24.47500,135
24.48333,151
24.49167,168
24.50000,188
24.50833,209
24.51667,232
24.52500,257
24.53333,283
24.54167,312
24.55000,343
24.55833,376
24.56667,412
24.57500,450
24.58333,490
24.59167,532
24.60000,577
24.60833,624
24.61667,673
24.62500,725
24.63333,778
24.64167,834
24.65000,892
24.65833,952
24.66667,1015
24.67500,1079
24.68333,1145
24.69167,1212
24.70000,1280
24.70833,1350
24.71667,1421
24.72500,1492
24.73333,1565
24.74167,1638
24.75000,1711
24.75833,1785
24.76667,1859
24.77500,1932
24.78333,2005
24.79167,2077
24.80000,2148
24.80833,2219
24.81667,2288
24.82500,2356
24.83333,2424
24.84167,2489
24.85000,2554
24.85833,2616
24.86667,2677
24.87500,2735
24.88333,2792
24.89167,2847
24.90000,2899
24.90833,2950
24.91667,3000
24.92500,3046
24.93333,3091
24.94167,3133
24.95000,3173
24.95833,3211
24.96667,3246
24.97500,3279
24.98333,3311
24.99167,3339
25.00000,3366
25.00833,3390
25.01667,3412
25.02500,3431
25.03333,3448
25.04167,3463
25.05000,3474
25.05833,3483
25.06667,3490
25.07500,3493
25.08333,3494
25.09167,3493
25.10000,3489
25.10833,3481
25.11667,3471
25.12500,3458
25.13333,3442
25.14167,3423
25.15000,3402
25.15833,3377
25.16667,3349
25.17500,3319
25.18333,3285
25.19167,3249
25.20000,3211
25.20833,3169
25.21667,3125
25.22500,3078
25.23333,3029
25.24167,2977
25.25000,2922
25.25833,2865
25.26667,2807
25.27500,2747
25.28333,2685
25.29167,2621
25.30000,2557
25.30833,2491
25.31667,2424
25.32500,2356
25.33333,2287
25.34167,2217
25.35000,2148
25.35833,2078
25.36667,2007
25.37500,1937
25.38333,1867
25.39167,1798
25.40000,1729
25.40833,1662
25.41667,1595
25.42500,1529
25.43333,1463
25.44167,1400
25.45000,1337
25.45833,1277
25.46667,1217
25.47500,1159
25.48333,1103
25.49167,1048
25.50000,995
25.50833,944
25.51667,894
25.52500,847
25.53333,801
25.54167,757
25.55000,715
25.55833,675
25.56667,636
25.57500,599
25.58333,564
25.59167,531
25.60000,499
25.60833,470
25.61667,441
25.62500,415
25.63333,389
25.64167,365
25.65000,342
25.65833,321
25.66667,301
25.67500,282
25.68333,265
25.69167,248
25.70000,233
25.70833,218
25.71667,204
25.72500,191
25.73333,179
25.74167,168
25.75000,158
25.75833,148
25.76667,140
25.77500,131
25.78333,124
25.79167,117
25.80000,110
25.80833,104
25.81667,98
25.82500,93
25.83333,87
25.84167,83
25.85000,79
25.85833,75
25.86667,71
25.87500,68
25.88333,65
25.89167,62
25.90000,59
25.90833,57
25.91667,54
25.92500,52
25.93333,50
25.94167,48
25.95000,46
25.95833,45
25.96667,43
25.97500,42
25.98333,41
25.99167,40
26.00000,39
26.00833,38
26.01667,37
26.02500,36
26.03333,35
26.04167,34
26.05000,33
26.05833,32
26.06667,31
26.07500,31
26.08333,30
26.09167,29
26.10000,29
26.10833,28
26.11667,27
26.12500,27
26.13333,27
26.14167,26
26.15000,26
26.15833,25
26.16667,25
26.17500,25
26.18333,24
26.19167,24
26.20000,24
26.20833,24
26.21667,24
26.22500,23
26.23333,23
26.24167,22
26.25000,22
26.25833,22
26.26667,21
26.27500,21
26.28333,20
26.29167,21
26.30000,20
26.30833,20
26.31667,20
26.32500,20
26.33333,20
26.34167,19
26.35000,19
26.35833,19
26.36667,19
26.37500,19
26.38333,19
26.39167,19
26.40000,19
26.40833,19
26.41667,19
26.42500,19
26.43333,19
26.44167,18
26.45000,18
26.45833,18
26.46667,18
26.47500,18
26.48333,18
26.49167,18
26.50000,17
26.50833,17
26.51667,17
26.52500,17
26.53333,16
26.54167,16
26.55000,16
26.55833,16
26.56667,16
26.57500,16
26.58333,16
26.59167,16
26.60000,16
26.60833,16
26.61667,16
26.62500,16
26.63333,16
26.64167,16
26.65000,16
26.65833,16
26.66667,16
26.67500,15
26.68333,15
26.69167,15
26.70000,16
26.70833,16
26.71667,16
26.72500,16
26.73333,16
26.74167,16
26.75000,15
26.75833,15
26.76667,15
26.77500,15
26.78333,15
26.79167,15
26.80000,15
26.80833,15
26.81667,15
26.82500,15
26.83333,15
26.84167,14
26.85000,14
26.85833,14
26.86667,14
26.87500,14
26.88333,14
26.89167,14
26.90000,14
26.90833,14
26.91667,14
26.92500,14
26.93333,14
26.94167,13
26.95000,13
26.95833,13
26.96667,13
26.97500,12
26.98333,12
26.99167,13
27.00000,13
27.00833,13
27.01667,13
27.02500,13
27.03333,13
27.04167,12
27.05000,12
27.05833,12
27.06667,11
27.07500,11
27.08333,11
27.09167,10
27.10000,10
27.10833,10
27.11667,9
27.12500,9
27.13333,9
27.14167,8
27.15000,8
27.15833,7
27.16667,7
27.17500,7
27.18333,6
27.19167,6
27.20000,5
27.20833,4
27.21667,3
27.22500,2
27.23333,2
27.24167,1
27.25000,0
27.25833,-0
27.26667,-1
27.27500,-2
27.28333,-3
27.29167,-4
27.30000,-5
27.30833,-6
27.31667,-7
27.32500,-8
27.33333,-9
27.34167,-11
27.35000,-12
27.35833,-14
27.36667,-15
27.37500,-16
27.38333,-18
27.39167,-19
27.40000,-20
27.40833,-22
27.41667,-24
27.42500,-25
27.43333,-27
27.44167,-28
27.45000,-30
27.45833,-32
27.46667,-34
27.47500,-36
27.48333,-38
27.49167,-40
27.50000,-42
27.50833,-44
27.51667,-46
27.52500,-47
27.53333,-49
27.54167,-52
27.55000,-53
27.55833,-56
27.56667,-57
27.57500,-59
27.58333,-61
27.59167,-63
27.60000,-65
27.60833,-67
27.61667,-69
27.62500,-71
27.63333,-73
27.64167,-75
27.65000,-77
27.65833,-79
27.66667,-81
27.67500,-83
27.68333,-85
27.69167,-86
27.70000,-88
27.70833,-90
27.71667,-91
27.72500,-93
27.73333,-94
27.74167,-96
27.75000,-97
27.75833,-98
27.76667,-100
27.77500,-101
27.78333,-102
27.79167,-103
27.80000,-104
27.80833,-105
27.81667,-106
27.82500,-107
27.83333,-108
27.84167,-108
27.85000,-109
27.85833,-109
27.86667,-110
27.87500,-110
27.88333,-110
27.89167,-111
27.90000,-111
27.90833,-111
27.91667,-111
27.92500,-111
27.93333,-110
27.94167,-110
27.95000,-110
27.95833,-110
27.96667,-109
27.97500,-109
27.98333,-108
27.99167,-108
28.00000,-107
28.00833,-106
28.01667,-105
28.02500,-104
28.03333,-103
28.04167,-102
28.05000,-100
28.05833,-99
28.06667,-98
28.07500,-96
28.08333,-95
28.09167,-93
28.10000,-92
28.10833,-90
28.11667,-89
28.12500,-87
28.13333,-85
28.14167,-84
28.15000,-82
28.15833,-80
28.16667,-78
28.17500,-76
28.18333,-73
28.19167,-71
28.20000,-69
28.20833,-68
28.21667,-66
28.22500,-64
28.23333,-62
28.24167,-61
28.25000,-59
28.25833,-57
28.26667,-56
28.27500,-54
28.28333,-53
28.29167,-51
28.30000,-49
28.30833,-47
28.31667,-46
28.32500,-45
28.33333,-43
28.34167,-41
28.35000,-39
28.35833,-38
28.36667,-37
28.37500,-36
28.38333,-35
28.39167,-34
28.40000,-33
28.40833,-31
28.41667,-30
28.42500,-29
28.43333,-27
28.44167,-27
28.45000,-25
28.45833,-24
28.46667,-23
28.47500,-22
28.48333,-21
28.49167,-20
28.50000,-18
28.50833,-17
28.51667,-16
28.52500,-15
28.53333,-14
28.54167,-13
28.55000,-13
28.55833,-12
28.56667,-11
28.57500,-10
28.58333,-10
28.59167,-9
28.60000,-8
28.60833,-7
28.61667,-7
28.62500,-6
28.63333,-5
28.64167,-4
28.65000,-3
28.65833,-3
28.66667,-2
28.67500,-1
28.68333,0
28.69167,1
28.70000,2
28.70833,3
28.71667,4
28.72500,4
28.73333,5
28.74167,6
28.75000,7
28.75833,8
28.76667,10
28.77500,11
28.78333,11
28.79167,12
28.80000,13
28.80833,14
28.81667,15
28.82500,16
28.83333,17
28.84167,18
28.85000,19
28.85833,20
28.86667,22
28.87500,23
28.88333,24
28.89167,25
28.90000,26
28.90833,28
28.91667,29
28.92500,30
28.93333,32
28.94167,33
28.95000,34
28.95833,35
28.96667,36
28.97500,36
28.98333,37
28.99167,38
29.00000,38
29.00833,39
29.01667,40
29.02500,41
29.03333,41
29.04167,42
29.05000,43
29.05833,44
29.06667,44
29.07500,45
29.08333,45
29.09167,46
29.10000,46
29.10833,46
29.11667,47
29.12500,47
29.13333,47
29.14167,47
29.15000,47
29.15833,47
29.16667,47
29.17500,48
29.18333,47
29.19167,47
29.20000,47
29.20833,47
29.21667,47
29.22500,47
29.23333,46
29.24167,46
29.25000,46
29.25833,45
29.26667,45
29.27500,45
29.28333,45
29.29167,44
29.30000,44
29.30833,43
29.31667,43
29.32500,42
29.33333,41
29.34167,40
29.35000,39
29.35833,38
29.36667,38
29.37500,37
29.38333,36
29.39167,35
29.40000,34
29.40833,33
29.41667,32
29.42500,31
29.43333,30
29.44167,29
29.45000,28
29.45833,27
29.46667,25
29.47500,24
29.48333,23
29.49167,22
29.50000,20
29.50833,20
29.51667,19
29.52500,18
29.53333,16
29.54167,15
29.55000,14
29.55833,13
29.56667,12
29.57500,10
29.58333,9
29.59167,8
29.60000,6
29.60833,5
29.61667,4
29.62500,3
29.63333,2
29.64167,1
29.65000,-1
29.65833,-2
29.66667,-3
29.67500,-4
29.68333,-5
29.69167,-5
29.70000,-6
29.70833,-7
29.71667,-8
29.72500,-9
29.73333,-10
29.74167,-11
29.75000,-12
29.75833,-12
29.76667,-13
29.77500,-14
29.78333,-15
29.79167,-16
29.80000,-16
29.80833,-17
29.81667,-18
29.82500,-19
29.83333,-19
29.84167,-20
29.85000,-20
29.85833,-21
29.86667,-22
29.87500,-23
29.88333,-24
29.89167,-24
29.90000,-26
29.90833,-26
29.91667,-27
29.92500,-29
29.93333,-30
29.94167,-31
29.95000,-33
29.95833,-34
29.96667,-35
29.97500,-36
29.98333,-37
29.99167,-39
30.00000,-40
30.00833,-42
30.01667,-44
30.02500,-46
30.03333,-47
30.04167,-49
30.05000,-52
30.05833,-54
30.06667,-56
30.07500,-58
30.08333,-61
30.09167,-63
30.10000,-65
30.10833,-68
30.11667,-71
30.12500,-74
30.13333,-77
30.14167,-80
30.15000,-83
30.15833,-87
30.16667,-90
30.17500,-93
30.18333,-96
30.19167,-99
30.20000,-102
30.20833,-106
30.21667,-110
30.22500,-114
30.23333,-118
30.24167,-121
30.25000,-125
30.25833,-129
30.26667,-133
30.27500,-137
30.28333,-141
30.29167,-146
30.30000,-150
30.30833,-154
30.31667,-159
30.32500,-163
30.33333,-167
30.34167,-172
30.35000,-176
30.35833,-181
30.36667,-185
30.37500,-189
30.38333,-194
30.39167,-198
30.40000,-202
30.40833,-206
30.41667,-210
30.42500,-214
30.43333,-218
30.44167,-223
30.45000,-227
30.45833,-231
30.46667,-234
30.47500,-237
30.48333,-241
30.49167,-244
30.50000,-247
30.50833,-250
30.51667,-253
30.52500,-256
30.53333,-259
30.54167,-261
30.55000,-264
30.55833,-266
30.56667,-268
30.57500,-271
30.58333,-273
30.59167,-275
30.60000,-277
30.60833,-279
30.61667,-280
30.62500,-282
30.63333,-283
30.64167,-284
30.65000,-285
30.65833,-285
30.66667,-285
30.67500,-285
30.68333,-285
30.69167,-285
30.70000,-284
30.70833,-284
30.71667,-283
30.72500,-282
30.73333,-281
30.74167,-280
30.75000,-279
30.75833,-277
30.76667,-275
30.77500,-273
30.78333,-271
30.79167,-269
30.80000,-267
30.80833,-264
30.81667,-262
30.82500,-259
30.83333,-256
30.84167,-253
30.85000,-250
30.85833,-247
30.86667,-243
30.87500,-239
30.88333,-236
30.89167,-232
30.90000,-228
30.90833,-224
30.91667,-220
30.92500,-216
30.93333,-212
30.94167,-208
30.95000,-203
30.95833,-199
30.96667,-195
30.97500,-191
30.98333,-187
30.99167,-182
31.00000,-178
31.00833,-173
31.01667,-169
31.02500,-164
31.03333,-159
31.04167,-155
31.05000,-151
31.05833,-147
31.06667,-143
31.07500,-139
31.08333,-135
31.09167,-130
31.10000,-126
31.10833,-121
31.11667,-118
31.12500,-114
31.13333,-110
31.14167,-106
31.15000,-102
31.15833,-98
31.16667,-95
31.17500,-91
31.18333,-88
31.19167,-85
31.20000,-82
31.20833,-79
31.21667,-75
31.22500,-72
31.23333,-68
31.24167,-66
31.25000,-63
31.25833,-61
31.26667,-59
31.27500,-56
31.28333,-54
31.29167,-51
31.30000,-49
31.30833,-47
31.31667,-45
31.32500,-43
31.33333,-41
31.34167,-39
31.35000,-37
31.35833,-35
31.36667,-34
31.37500,-32
31.38333,-31
31.39167,-30
31.40000,-29
31.40833,-27
31.41667,-26
31.42500,-24
31.43333,-23
31.44167,-21
31.45000,-20
31.45833,-18
31.46667,-17
31.47500,-16
31.48333,-15
31.49167,-14
31.50000,-13
31.50833,-12
31.51667,-11
31.52500,-9
31.53333,-8
31.54167,-7
31.55000,-5
31.55833,-4
31.56667,-3
31.57500,-2
31.58333,-0
31.59167,1
31.60000,3
31.60833,5
31.61667,7
31.62500,9
31.63333,11
31.64167,13
31.65000,15
31.65833,17
31.66667,19
31.67500,22
31.68333,24
31.69167,26
31.70000,29
31.70833,32
31.71667,35
31.72500,38
31.73333,41
31.74167,45
31.75000,49
31.75833,52
31.76667,56
31.77500,59
31.78333,63
31.79167,67
31.80000,71
31.80833,76
31.81667,80
31.82500,85
31.83333,90
31.84167,96
31.85000,101
31.85833,106
31.86667,111
31.87500,116
31.88333,122
31.89167,127
31.90000,133
31.90833,138
31.91667,144
31.92500,149
31.93333,155
31.94167,160
31.95000,166
31.95833,171
31.96667,177
31.97500,183
31.98333,189
31.99167,195
32.00000,201
32.00833,206
32.01667,211
32.02500,217
32.03333,223
32.04167,228
32.05000,234
32.05833,239
32.06667,245
32.07500,250
32.08333,255
32.09167,260
32.10000,264
32.10833,269
32.11667,273
32.12500,278
32.13333,282
32.14167,287
32.15000,291
32.15833,295
32.16667,299
32.17500,302
32.18333,306
32.19167,309
32.20000,312
32.20833,316
32.21667,319
32.22500,322
32.23333,325
32.24167,328
32.25000,330
32.25833,332
32.26667,335
32.27500,337
32.28333,339
32.29167,340
32.30000,341
32.30833,343
32.31667,344
32.32500,345
32.33333,346
32.34167,347
32.35000,347
32.35833,348
32.36667,348
32.37500,349
32.38333,349
32.39167,348
32.40000,348
32.40833,346
32.41667,345
32.42500,344
32.43333,343
32.44167,342
32.45000,340
32.45833,339
32.46667,338
32.47500,335
32.48333,333
32.49167,330
32.50000,327
32.50833,324
32.51667,321
32.52500,318
32.53333,315
32.54167,311
32.55000,307
32.55833,304
32.56667,300
32.57500,295
32.58333,291
32.59167,287
32.60000,282
32.60833,277
32.61667,272
32.62500,267
32.63333,262
32.64167,256
32.65000,251
32.65833,246
32.66667,240
32.67500,235
32.68333,229
32.69167,223
32.70000,218
32.70833,212
32.71667,206
32.72500,201
32.73333,196
32.74167,190
32.75000,184
32.75833,178
32.76667,173
32.77500,167
32.78333,162
32.79167,157
32.80000,151
32.80833,146
32.81667,140
32.82500,135
32.83333,129
32.84167,124
32.85000,119
32.85833,115
32.86667,111
32.87500,106
32.88333,101
32.89167,97
32.90000,93
32.90833,89
32.91667,85
32.92500,81
32.93333,78
32.94167,74
32.95000,70
32.95833,67
32.96667,63
32.97500,60
32.98333,57
32.99167,54
33.00000,51
33.00833,48
33.01667,46
33.02500,43
33.03333,40
33.04167,38
33.05000,36
33.05833,33
33.06667,31
33.07500,30
33.08333,28
33.09167,26
33.10000,24
33.10833,22
33.11667,20
33.12500,19
33.13333,18
33.14167,16
33.15000,15
33.15833,14
33.16667,13
33.17500,12
33.18333,11
33.19167,11
33.20000,10
33.20833,9
33.21667,8
33.22500,7
33.23333,7
33.24167,6
33.25000,5
33.25833,4
33.26667,3
33.27500,2
33.28333,2
33.29167,1
33.30000,0
33.30833,0
33.31667,-0
33.32500,-1
33.33333,-1
33.34167,-2
33.35000,-3
33.35833,-3
33.36667,-4
33.37500,-4
33.38333,-4
33.39167,-5
33.40000,-5
33.40833,-5
33.41667,-6
33.42500,-6
33.43333,-7
33.44167,-7
33.45000,-8
33.45833,-8
33.46667,-8
33.47500,-8
33.48333,-8
33.49167,-9
33.50000,-9
33.50833,-10
33.51667,-10
33.52500,-10
33.53333,-10
33.54167,-10
33.55000,-11
33.55833,-11
33.56667,-11
33.57500,-11
33.58333,-12
33.59167,-12
33.60000,-12
33.60833,-12
33.61667,-12
33.62500,-12
33.63333,-11
33.64167,-11
33.65000,-11
33.65833,-12
33.66667,-12
33.67500,-12
33.68333,-12
33.69167,-12
33.70000,-13
33.70833,-13
33.71667,-13
33.72500,-14
33.73333,-14
33.74167,-14
33.75000,-13
33.75833,-13
33.76667,-13
33.77500,-13
33.78333,-13
33.79167,-13
33.80000,-13
33.80833,-13
33.81667,-13
33.82500,-13
33.83333,-12
33.84167,-12
33.85000,-13
33.85833,-13
33.86667,-13
33.87500,-13
33.88333,-13
33.89167,-12
33.90000,-12
33.90833,-12
33.91667,-12
33.92500,-11
33.93333,-11
33.94167,-11
33.95000,-11
33.95833,-11
33.96667,-11
33.97500,-11
33.98333,-11
33.99167,-11
34.00000,-11
34.00833,-10
34.01667,-10
34.02500,-10
34.03333,-10
34.04167,-10
34.05000,-9
34.05833,-9
34.06667,-9
34.07500,-9
34.08333,-9
34.09167,-8
34.10000,-8
34.10833,-8
34.11667,-8
34.12500,-8
34.13333,-8
34.14167,-7
34.15000,-7
34.15833,-7
34.16667,-7
34.17500,-7
34.18333,-6
34.19167,-6
34.20000,-6
34.20833,-6
34.21667,-6
34.22500,-6
34.23333,-6
34.24167,-6
34.25000,-5
34.25833,-5
34.26667,-5
34.27500,-5
34.28333,-5
34.29167,-5
34.30000,-4
34.30833,-4
34.31667,-4
34.32500,-4
34.33333,-3
34.34167,-3
34.35000,-3
34.35833,-3
34.36667,-3
34.37500,-3
34.38333,-3
34.39167,-3
34.40000,-3
34.40833,-3
34.41667,-3
34.42500,-3
34.43333,-3
34.44167,-3
34.45000,-3
34.45833,-3
34.46667,-3
34.47500,-3
34.48333,-3
34.49167,-3
34.50000,-3
34.50833,-3
34.51667,-3
34.52500,-3
34.53333,-3
34.54167,-3
34.55000,-3
34.55833,-3
34.56667,-3
34.57500,-3
34.58333,-3
34.59167,-3
34.60000,-3
34.60833,-2
34.61667,-2
34.62500,-2
34.63333,-3
34.64167,-3
34.65000,-3
34.65833,-3
34.66667,-4
34.67500,-4
34.68333,-4
34.69167,-3
34.70000,-3
34.70833,-3
34.71667,-3
34.72500,-3
34.73333,-3
34.74167,-3
34.75000,-3
34.75833,-3
34.76667,-3
34.77500,-3
34.78333,-3
34.79167,-3
34.80000,-3
34.80833,-4
34.81667,-4
34.82500,-3
34.83333,-3
34.84167,-3
34.85000,-3
34.85833,-3
34.86667,-3
34.87500,-3
34.88333,-3
34.89167,-3
34.90000,-3
34.90833,-3
34.91667,-3
34.92500,-3
34.93333,-3
34.94167,-4
34.95000,-4
34.95833,-4
34.96667,-4
34.97500,-4
34.98333,-4
34.99167,-4
35.00000,-4
35.00833,-4
35.01667,-4
35.02500,-3
35.03333,-3
35.04167,-3
35.05000,-4
35.05833,-4
35.06667,-4
35.07500,-4
35.08333,-3
35.09167,-3
35.10000,-3
35.10833,-3
35.11667,-3
35.12500,-3
35.13333,-3
35.14167,-4
35.15000,-4
35.15833,-4
35.16667,-4
35.17500,-4
35.18333,-4
35.19167,-4
35.20000,-4
35.20833,-4
35.21667,-4
35.22500,-4
35.23333,-4
35.24167,-4
35.25000,-4
35.25833,-4
35.26667,-4
35.27500,-4
35.28333,-3
35.29167,-3
35.30000,-3
35.30833,-3
35.31667,-3
35.32500,-3
35.33333,-3
35.34167,-3
35.35000,-3
35.35833,-3
35.36667,-3
35.37500,-3
35.38333,-3
35.39167,-3
35.40000,-3
35.40833,-4
35.41667,-4
35.42500,-4
35.43333,-4
35.44167,-5
35.45000,-5
35.45833,-5
35.46667,-5
35.47500,-5
35.48333,-5
35.49167,-5
35.50000,-5
35.50833,-5
35.51667,-5
35.52500,-5
35.53333,-5
35.54167,-4
35.55000,-4
35.55833,-4
35.56667,-4
35.57500,-4
35.58333,-4
35.59167,-4
35.60000,-4
35.60833,-5
35.61667,-5
35.62500,-5
35.63333,-5
35.64167,-5
35.65000,-5
35.65833,-5
35.66667,-5
35.67500,-5
35.68333,-5
35.69167,-4
35.70000,-4
35.70833,-4
35.71667,-4
35.72500,-4
35.73333,-4
35.74167,-5
35.75000,-5
35.75833,-5
35.76667,-5
35.77500,-5
35.78333,-5
35.79167,-5
35.80000,-4
35.80833,-4
35.81667,-4
35.82500,-4
35.83333,-5
35.84167,-4
35.85000,-4
35.85833,-4
35.86667,-4
35.87500,-5
35.88333,-4
35.89167,-4
35.90000,-4
35.90833,-4
35.91667,-5
35.92500,-5
35.93333,-5
35.94167,-5
35.95000,-5
35.95833,-5
35.96667,-5
35.97500,-5
35.98333,-5
35.99167,-5
36.00000,-5
36.00833,-5
36.01667,-5
36.02500,-5
36.03333,-5
36.04167,-5
36.05000,-5
36.05833,-5
36.06667,-5
36.07500,-5
36.08333,-5
36.09167,-5
36.10000,-5
36.10833,-5
36.11667,-5
36.12500,-5
36.13333,-5
36.14167,-5
36.15000,-5
36.15833,-6
36.16667,-6
36.17500,-6
36.18333,-5
36.19167,-5
36.20000,-5
36.20833,-5
36.21667,-5
36.22500,-5
36.23333,-5
36.24167,-5
36.25000,-5
36.25833,-5
36.26667,-5
36.27500,-5
36.28333,-5
36.29167,-6
36.30000,-6
36.30833,-6
36.31667,-6
36.32500,-6
36.33333,-6
36.34167,-6
36.35000,-6
36.35833,-6
36.36667,-6
36.37500,-6
36.38333,-5
36.39167,-5
36.40000,-5
36.40833,-5
36.41667,-5
36.42500,-6
36.43333,-6
36.44167,-6
36.45000,-6
36.45833,-6
36.46667,-6
36.47500,-6
36.48333,-6
36.49167,-6
36.50000,-6
36.50833,-6
36.51667,-6
36.52500,-6
36.53333,-6
36.54167,-5
36.55000,-5
36.55833,-4
36.56667,-4
36.57500,-5
36.58333,-5
36.59167,-5
36.60000,-5
36.60833,-5
36.61667,-5
36.62500,-5
36.63333,-5
36.64167,-5
36.65000,-5
36.65833,-4
36.66667,-4
36.67500,-4
36.68333,-4
36.69167,-4
36.70000,-5
36.70833,-5
36.71667,-4
36.72500,-4
36.73333,-4
36.74167,-4
36.75000,-4
36.75833,-4
36.76667,-4
36.77500,-4
36.78333,-4
36.79167,-3
36.80000,-3
36.80833,-3
36.81667,-3
36.82500,-3
36.83333,-4
36.84167,-4
36.85000,-4
36.85833,-4
36.86667,-4
36.87500,-4
36.88333,-4
36.89167,-4
36.90000,-4
36.90833,-4
36.91667,-4
36.92500,-4
36.93333,-4
36.94167,-4
36.95000,-4
36.95833,-4
36.96667,-4
36.97500,-4
36.98333,-4
36.99167,-4
37.00000,-4
37.00833,-4
37.01667,-4
37.02500,-4
37.03333,-4
37.04167,-3
37.05000,-3
37.05833,-3
37.06667,-3
37.07500,-3
37.08333,-3
37.09167,-3
37.10000,-3
37.10833,-4
37.11667,-4
37.12500,-4
37.13333,-3
37.14167,-3
37.15000,-3
37.15833,-4
37.16667,-4
37.17500,-4
37.18333,-4
37.19167,-3
37.20000,-3
37.20833,-3
37.21667,-3
37.22500,-3
37.23333,-3
37.24167,-3
37.25000,-3
37.25833,-3
37.26667,-3
37.27500,-3
37.28333,-2
37.29167,-2
37.30000,-3
37.30833,-2
37.31667,-2
37.32500,-2
37.33333,-2
37.34167,-2
37.35000,-2
37.35833,-2
37.36667,-2
37.37500,-2
37.38333,-2
37.39167,-2
37.40000,-1
37.40833,-1
37.41667,-1
37.42500,-1
37.43333,-1
37.44167,-1
37.45000,-2
37.45833,-2
37.46667,-2
37.47500,-2
37.48333,-2
37.49167,-2
37.50000,-3
37.50833,-3
37.51667,-2
37.52500,-2
37.53333,-2
37.54167,-2
37.55000,-2
37.55833,-2
37.56667,-2
37.57500,-2
37.58333,-1
37.59167,-1
37.60000,-1
37.60833,-1
37.61667,-1
37.62500,-1
37.63333,-1
37.64167,-2
37.65000,-2
37.65833,-2
37.66667,-2
37.67500,-2
37.68333,-2
37.69167,-2
37.70000,-2
37.70833,-2
37.71667,-2
37.72500,-2
37.73333,-2
37.74167,-2
37.75000,-3
37.75833,-2
37.76667,-2
37.77500,-2
37.78333,-2
37.79167,-2
37.80000,-2
37.80833,-2
37.81667,-2
37.82500,-2
37.83333,-2
37.84167,-2
37.85000,-2
37.85833,-2
37.86667,-2
37.87500,-2
37.88333,-2
37.89167,-2
37.90000,-2
37.90833,-2
37.91667,-2
37.92500,-2
37.93333,-2
37.94167,-2
37.95000,-2
37.95833,-2
37.96667,-2
37.97500,-2
37.98333,-2
37.99167,-2
38.00000,-2
38.00833,-2
38.01667,-2
38.02500,-2
38.03333,-2
38.04167,-1
38.05000,-1
38.05833,-2
38.06667,-2
38.07500,-3
38.08333,-3
38.09167,-3
38.10000,-3
38.10833,-3
38.11667,-3
38.12500,-3
38.13333,-3
38.14167,-4
38.15000,-4
38.15833,-4
38.16667,-3
38.17500,-3
38.18333,-3
38.19167,-3
38.20000,-3
38.20833,-3
38.21667,-3
38.22500,-3
38.23333,-3
38.24167,-3
38.25000,-3
38.25833,-3
38.26667,-3
38.27500,-3
38.28333,-3
38.29167,-3
38.30000,-3
38.30833,-3
38.31667,-3
38.32500,-4
38.33333,-4
38.34167,-4
38.35000,-4
38.35833,-4
38.36667,-4
38.37500,-4
38.38333,-4
38.39167,-5
38.40000,-5
38.40833,-5
38.41667,-5
38.42500,-5
38.43333,-5
38.44167,-5
38.45000,-5
38.45833,-5
38.46667,-5
38.47500,-6
38.48333,-6
38.49167,-5
38.50000,-5
38.50833,-5
38.51667,-5
38.52500,-4
38.53333,-4
38.54167,-5
38.55000,-5
38.55833,-5
38.56667,-5
38.57500,-6
38.58333,-6
38.59167,-6
38.60000,-5
38.60833,-5
38.61667,-5
38.62500,-5
38.63333,-5
38.64167,-6
38.65000,-6
38.65833,-6
38.66667,-6
38.67500,-6
38.68333,-6
38.69167,-6
38.70000,-6
38.70833,-7
38.71667,-7
38.72500,-7
38.73333,-7
38.74167,-7
38.75000,-7
38.75833,-7
38.76667,-7
38.77500,-7
38.78333,-7
38.79167,-7
38.80000,-7
38.80833,-7
38.81667,-7
38.82500,-7
38.83333,-8
38.84167,-8
38.85000,-8
38.85833,-8
38.86667,-8
38.87500,-8
38.88333,-8
38.89167,-8
38.90000,-8
38.90833,-9
38.91667,-9
38.92500,-9
38.93333,-8
38.94167,-8
38.95000,-8
38.95833,-8
38.96667,-8
38.97500,-8
38.98333,-8
38.99167,-8
39.00000,-8
39.00833,-8
39.01667,-8
39.02500,-8
39.03333,-8
39.04167,-8
39.05000,-8
39.05833,-8
39.06667,-8
39.07500,-9
39.08333,-9
39.09167,-9
39.10000,-9
39.10833,-9
39.11667,-9
39.12500,-9
39.13333,-9
39.14167,-9
39.15000,-9
39.15833,-9
39.16667,-9
39.17500,-9
39.18333,-9
39.19167,-9
39.20000,-9
39.20833,-9
39.21667,-9
39.22500,-9
39.23333,-9
39.24167,-9
39.25000,-10
39.25833,-10
39.26667,-10
39.27500,-9
39.28333,-9
39.29167,-9
39.30000,-9
39.30833,-9
39.31667,-9
39.32500,-8
39.33333,-9
39.34167,-9
39.35000,-9
39.35833,-9
39.36667,-9
39.37500,-9
39.38333,-9
39.39167,-9
39.40000,-9
39.40833,-9
39.41667,-9
39.42500,-9
39.43333,-9
39.44167,-9
39.45000,-9
39.45833,-9
39.46667,-10
39.47500,-10
39.48333,-10
39.49167,-10
39.50000,-9
39.50833,-9
39.51667,-9
39.52500,-10
39.53333,-10
39.54167,-10
39.55000,-10
39.55833,-9
39.56667,-9
39.57500,-9
39.58333,-9
39.59167,-9
39.60000,-8
39.60833,-8
39.61667,-8
39.62500,-8
39.63333,-8
39.64167,-8
39.65000,-8
39.65833,-8
39.66667,-8
39.67500,-8
39.68333,-8
39.69167,-8
39.70000,-8
39.70833,-8
39.71667,-8
39.72500,-9
39.73333,-9
39.74167,-9
39.75000,-9
39.75833,-9
39.76667,-9
39.77500,-9
39.78333,-8
39.79167,-8
39.80000,-8
39.80833,-8
39.81667,-8
39.82500,-8
39.83333,-8
39.84167,-9
39.85000,-9
39.85833,-9
39.86667,-9
39.87500,-9
39.88333,-8
39.89167,-8
39.90000,-8
39.90833,-8
39.91667,-8
39.92500,-8
39.93333,-8
39.94167,-8
39.95000,-8
39.95833,-8
39.96667,-8
39.97500,-8
39.98333,-8
39.99167,-8
40.00000,-9
40.00833,-9
40.01667,-9
40.02500,-8
40.03333,-8
40.04167,-8
40.05000,-8
40.05833,-8
40.06667,-8
40.07500,-8
40.08333,-8
40.09167,-8
40.10000,-8
40.10833,-8
40.11667,-8
40.12500,-8
40.13333,-8
40.14167,-8
40.15000,-8
40.15833,-8
40.16667,-8
40.17500,-8
40.18333,-8
40.19167,-8
40.20000,-8
40.20833,-8
40.21667,-8
40.22500,-9
40.23333,-9
40.24167,-9
40.25000,-9
40.25833,-9
40.26667,-9
40.27500,-9
40.28333,-9
40.29167,-9
40.30000,-9
40.30833,-9
40.31667,-9
40.32500,-9
40.33333,-9
40.34167,-9
40.35000,-9
40.35833,-9
40.36667,-9
40.37500,-10
40.38333,-10
40.39167,-10
40.40000,-10
40.40833,-10
40.41667,-11
40.42500,-11
40.43333,-11
40.44167,-11
40.45000,-12
40.45833,-12
40.46667,-12
40.47500,-11
40.48333,-11
40.49167,-11
40.50000,-11
40.50833,-10
40.51667,-10
40.52500,-10
40.53333,-10
40.54167,-10
40.55000,-10
40.55833,-10
40.56667,-10
40.57500,-10
40.58333,-11
40.59167,-11
40.60000,-11
40.60833,-11
40.61667,-11
40.62500,-11
40.63333,-12
40.64167,-12
40.65000,-12
40.65833,-12
40.66667,-12
40.67500,-12
40.68333,-12
40.69167,-12
40.70000,-12
40.70833,-12
40.71667,-12
40.72500,-12
40.73333,-12
40.74167,-12
40.75000,-12
40.75833,-12
40.76667,-12
40.77500,-12
40.78333,-11
40.79167,-11
40.80000,-11
40.80833,-11
40.81667,-10
40.82500,-10
40.83333,-10
40.84167,-11
40.85000,-11
40.85833,-11
40.86667,-12
40.87500,-12
40.88333,-12
40.89167,-12
40.90000,-12
40.90833,-12
40.91667,-11
40.92500,-11
40.93333,-11
40.94167,-11
40.95000,-11
40.95833,-10
40.96667,-11
40.97500,-11
40.98333,-11
40.99167,-11
41.00000,-11
41.00833,-11
41.01667,-11
41.02500,-11
41.03333,-11
41.04167,-12
41.05000,-12
41.05833,-11
41.06667,-11
41.07500,-11
41.08333,-11
41.09167,-11
41.10000,-11
41.10833,-11
41.11667,-11
41.12500,-11
41.13333,-11
41.14167,-11
41.15000,-11
41.15833,-11
41.16667,-11
41.17500,-11
41.18333,-11
41.19167,-11
41.20000,-11
41.20833,-11
41.21667,-11
41.22500,-11
41.23333,-11
41.24167,-11
41.25000,-11
41.25833,-11
41.26667,-11
41.27500,-11
41.28333,-11
41.29167,-11
41.30000,-11
41.30833,-11
41.31667,-11
41.32500,-11
41.33333,-12
41.34167,-12
41.35000,-12
41.35833,-11
41.36667,-11
41.37500,-11
41.38333,-11
41.39167,-10
41.40000,-11
41.40833,-11
41.41667,-11
41.42500,-11
41.43333,-11
41.44167,-11
41.45000,-11
41.45833,-11
41.46667,-11
41.47500,-11
41.48333,-11
41.49167,-11
41.50000,-11
41.50833,-12
41.51667,-12
41.52500,-12
41.53333,-12
41.54167,-12
41.55000,-12
41.55833,-12
41.56667,-12
41.57500,-12
41.58333,-12
41.59167,-12
41.60000,-12
41.60833,-12
41.61667,-11
41.62500,-11
41.63333,-11
41.64167,-11
41.65000,-11
41.65833,-11
41.66667,-11
41.67500,-10
41.68333,-10
41.69167,-10
41.70000,-10
41.70833,-10
41.71667,-10
41.72500,-10
41.73333,-11
41.74167,-11
41.75000,-11
41.75833,-11
41.76667,-11
41.77500,-11
41.78333,-11
41.79167,-11
41.80000,-11
41.80833,-11
41.81667,-11
41.82500,-11
41.83333,-10
41.84167,-10
41.85000,-10
41.85833,-10
41.86667,-10
41.87500,-10
41.88333,-10
41.89167,-10
41.90000,-11
41.90833,-11
41.91667,-11
41.92500,-11
41.93333,-11
41.94167,-11
41.95000,-10
41.95833,-10
41.96667,-10
41.97500,-9
41.98333,-9
41.99167,-9
42.00000,-9
42.00833,-9
42.01667,-9
42.02500,-9
42.03333,-9
42.04167,-9
42.05000,-9
42.05833,-9
42.06667,-9
42.07500,-9
42.08333,-9
42.09167,-9
42.10000,-9
42.10833,-9
42.11667,-10
42.12500,-9
42.13333,-10
42.14167,-10
42.15000,-10
42.15833,-10
42.16667,-10
42.17500,-10
42.18333,-10
42.19167,-10
42.20000,-10
42.20833,-10
42.21667,-10
42.22500,-10
42.23333,-10
42.24167,-9
42.25000,-9
42.25833,-9
42.26667,-8
42.27500,-8
42.28333,-8
42.29167,-8
42.30000,-8
42.30833,-8
42.31667,-9
42.32500,-9
42.33333,-9
42.34167,-9
42.35000,-9
42.35833,-8
42.36667,-9
42.37500,-9
42.38333,-9
42.39167,-9
42.40000,-9
42.40833,-9
42.41667,-9
42.42500,-9
42.43333,-9
42.44167,-9
42.45000,-9
42.45833,-9
42.46667,-9
42.47500,-9
42.48333,-9
42.49167,-9
42.50000,-9
42.50833,-9
42.51667,-9
42.52500,-9
42.53333,-9
42.54167,-9
42.55000,-9
42.55833,-9
42.56667,-9
42.57500,-9
42.58333,-9
42.59167,-9
42.60000,-8
42.60833,-8
42.61667,-8
42.62500,-8
42.63333,-8
42.64167,-8
42.65000,-8
42.65833,-8
42.66667,-9
42.67500,-9
42.68333,-9
42.69167,-9
42.70000,-9
42.70833,-10
42.71667,-10
42.72500,-10
42.73333,-9
42.74167,-9
42.75000,-9
42.75833,-9
42.76667,-9
42.77500,-9
42.78333,-9
42.79167,-9
42.80000,-9
42.80833,-9
42.81667,-9
42.82500,-9
42.83333,-9
42.84167,-10
42.85000,-9
42.85833,-9
42.86667,-9
42.87500,-9
42.88333,-9
42.89167,-9
42.90000,-9
42.90833,-9
42.91667,-9
42.92500,-9
42.93333,-9
42.94167,-9
42.95000,-9
42.95833,-9
42.96667,-9
42.97500,-9
42.98333,-9
42.99167,-9
43.00000,-9
43.00833,-9
43.01667,-9
43.02500,-9
43.03333,-9
43.04167,-9
43.05000,-9
43.05833,-9
43.06667,-9
43.07500,-8
43.08333,-8
43.09167,-8
43.10000,-8
43.10833,-8
43.11667,-8
43.12500,-9
43.13333,-9
43.14167,-9
43.15000,-8
43.15833,-8
43.16667,-8
43.17500,-8
43.18333,-8
43.19167,-8
43.20000,-8
43.20833,-9
43.21667,-9
43.22500,-9
43.23333,-9
43.24167,-8
43.25000,-9
43.25833,-9
43.26667,-9
43.27500,-9
43.28333,-9
43.29167,-9
43.30000,-9
43.30833,-9
43.31667,-9
43.32500,-9
43.33333,-9
43.34167,-8
43.35000,-8
43.35833,-8
43.36667,-8
43.37500,-8
43.38333,-8
43.39167,-7
43.40000,-7
43.40833,-7
43.41667,-7
43.42500,-7
43.43333,-8
43.44167,-8
43.45000,-8
43.45833,-8
43.46667,-8
43.47500,-8
43.48333,-8
43.49167,-8
43.50000,-8
43.50833,-8
43.51667,-8
43.52500,-8
43.53333,-8
43.54167,-9
43.55000,-9
43.55833,-8
43.56667,-8
43.57500,-8
43.58333,-8
43.59167,-8
43.60000,-7
43.60833,-7
43.61667,-7
43.62500,-7
43.63333,-7
43.64167,-7
43.65000,-7
43.65833,-7
43.66667,-8
43.67500,-7
43.68333,-7
43.69167,-7
43.70000,-7
43.70833,-7
43.71667,-7
43.72500,-7
43.73333,-7
43.74167,-7
43.75000,-7
43.75833,-7
43.76667,-7
43.77500,-7
43.78333,-7
43.79167,-7
43.80000,-7
43.80833,-7
43.81667,-7
43.82500,-7
43.83333,-7
43.84167,-7
43.85000,-7
43.85833,-7
43.86667,-7
43.87500,-7
43.88333,-7
43.89167,-7
43.90000,-7
43.90833,-7
43.91667,-7
43.92500,-7
43.93333,-8
43.94167,-8
43.95000,-8
43.95833,-8
43.96667,-8
43.97500,-8
43.98333,-8
43.99167,-8
44.00000,-8
44.00833,-7
44.01667,-7
44.02500,-7
44.03333,-7
44.04167,-7
44.05000,-7
44.05833,-7
44.06667,-6
44.07500,-6
44.08333,-6
44.09167,-7
44.10000,-7
44.10833,-6
44.11667,-6
44.12500,-5
44.13333,-5
44.14167,-5
44.15000,-5
44.15833,-6
44.16667,-6
44.17500,-6
44.18333,-6
44.19167,-6
44.20000,-6
44.20833,-6
44.21667,-6
44.22500,-6
44.23333,-6
44.24167,-5
44.25000,-6
44.25833,-6
44.26667,-6
44.27500,-7
44.28333,-7
44.29167,-7
44.30000,-6
44.30833,-6
44.31667,-7
44.32500,-7
44.33333,-7
44.34167,-6
44.35000,-7
44.35833,-7
44.36667,-7
44.37500,-7
44.38333,-7
44.39167,-7
44.40000,-7
44.40833,-7
44.41667,-7
44.42500,-7
44.43333,-7
44.44167,-7
44.45000,-7
44.45833,-7
44.46667,-7
44.47500,-7
44.48333,-7
44.49167,-7
44.50000,-7
44.50833,-6
44.51667,-6
44.52500,-6
44.53333,-7
44.54167,-6
44.55000,-6
44.55833,-6
44.56667,-6
44.57500,-7
44.58333,-7
44.59167,-7
44.60000,-7
44.60833,-7
44.61667,-7
44.62500,-7
44.63333,-7
44.64167,-7
44.65000,-7
44.65833,-6
44.66667,-6
44.67500,-6
44.68333,-6
44.69167,-6
44.70000,-6
44.70833,-6
44.71667,-6
44.72500,-6
44.73333,-6
44.74167,-6
44.75000,-7
44.75833,-7
44.76667,-7
44.77500,-7
44.78333,-7
44.79167,-7
44.80000,-7
44.80833,-7
44.81667,-7
44.82500,-6
44.83333,-6
44.84167,-6
44.85000,-6
44.85833,-6
44.86667,-7
44.87500,-7
44.88333,-7
44.89167,-7
44.90000,-7
44.90833,-7
44.91667,-7
44.92500,-7
44.93333,-8
44.94167,-8
44.95000,-7
44.95833,-7
44.96667,-7
44.97500,-7
44.98333,-7
44.99167,-7
45.00000,-7
45.00833,-7
45.01667,-7
45.02500,-7
45.03333,-7
45.04167,-7
45.05000,-8
45.05833,-8
45.06667,-7
45.07500,-7
45.08333,-7
45.09167,-7
45.10000,-7
45.10833,-7
45.11667,-7
45.12500,-7
45.13333,-6
45.14167,-6
45.15000,-6
45.15833,-6
45.16667,-6
45.17500,-6
45.18333,-6
45.19167,-7
45.20000,-7
45.20833,-7
45.21667,-7
45.22500,-7
45.23333,-6
45.24167,-7
45.25000,-7
45.25833,-7
45.26667,-7
45.27500,-7
45.28333,-7
45.29167,-7
45.30000,-6
45.30833,-6
45.31667,-6
45.32500,-7
45.33333,-7
45.34167,-7
45.35000,-7
45.35833,-7
45.36667,-7
45.37500,-7
45.38333,-7
45.39167,-7
45.40000,-7
45.40833,-7
45.41667,-7
45.42500,-7
45.43333,-7
45.44167,-7
45.45000,-6
45.45833,-6
45.46667,-6
45.47500,-6
45.48333,-7
45.49167,-7
45.50000,-7
45.50833,-7
45.51667,-7
45.52500,-7
45.53333,-7
45.54167,-7
45.55000,-6
45.55833,-6
45.56667,-6
45.57500,-6
45.58333,-6
45.59167,-6
45.60000,-6
45.60833,-6
45.61667,-6
45.62500,-6
45.63333,-6
45.64167,-7
45.65000,-7
45.65833,-7
45.66667,-7
45.67500,-7
45.68333,-7
45.69167,-7
45.70000,-7
45.70833,-7
45.71667,-7
45.72500,-7
45.73333,-7
45.74167,-7
45.75000,-7
45.75833,-7
45.76667,-7
45.77500,-7
45.78333,-7
45.79167,-7
45.80000,-7
45.80833,-7
45.81667,-7
45.82500,-7
45.83333,-7
45.84167,-7
45.85000,-7
45.85833,-7
45.86667,-7
45.87500,-7
45.88333,-7
45.89167,-7
45.90000,-6
45.90833,-6
45.91667,-6
45.92500,-5
45.93333,-5
45.94167,-6
45.95000,-6
45.95833,-6
45.96667,-6
45.97500,-6
45.98333,-6
45.99167,-6
46.00000,-6
46.00833,-6
46.01667,-6
46.02500,-6
46.03333,-6
46.04167,-6
46.05000,-6
46.05833,-6
46.06667,-6
46.07500,-5
46.08333,-5
46.09167,-5
46.10000,-5
46.10833,-6
46.11667,-6
46.12500,-6
46.13333,-6
46.14167,-6
46.15000,-6
46.15833,-6
46.16667,-6
46.17500,-6
46.18333,-6
46.19167,-6
46.20000,-6
46.20833,-6
46.21667,-6
46.22500,-6
46.23333,-6
46.24167,-6
46.25000,-6
46.25833,-6
46.26667,-6
46.27500,-6
46.28333,-6
46.29167,-6
46.30000,-6
46.30833,-6
46.31667,-6
46.32500,-6
46.33333,-6
46.34167,-7
46.35000,-7
46.35833,-7
46.36667,-7
46.37500,-6
46.38333,-6
46.39167,-6
46.40000,-6
46.40833,-6
46.41667,-6
46.42500,-6
46.43333,-6
46.44167,-6
46.45000,-6
46.45833,-6
46.46667,-6
46.47500,-6
46.48333,-6
46.49167,-6
46.50000,-6
46.50833,-6
46.51667,-6
46.52500,-5
46.53333,-5
46.54167,-5
46.55000,-6
46.55833,-6
46.56667,-6
46.57500,-6
46.58333,-6
46.59167,-6
46.60000,-6
46.60833,-6
46.61667,-6
46.62500,-6
46.63333,-6
46.64167,-6
46.65000,-6
46.65833,-6
46.66667,-6
46.67500,-6
46.68333,-6
46.69167,-6
46.70000,-6
46.70833,-6
46.71667,-5
46.72500,-5
46.73333,-5
46.74167,-5
46.75000,-5
46.75833,-5
46.76667,-5
46.77500,-5
46.78333,-5
46.79167,-5
46.80000,-5
46.80833,-5
46.81667,-5
46.82500,-5
46.83333,-5
46.84167,-5
46.85000,-6
46.85833,-6
46.86667,-5
46.87500,-5
46.88333,-5
46.89167,-5
46.90000,-5
46.90833,-4
46.91667,-4
46.92500,-5
46.93333,-5
46.94167,-5
46.95000,-6
46.95833,-6
46.96667,-6
46.97500,-6
46.98333,-6
46.99167,-6
47.00000,-6
47.00833,-6
47.01667,-6
47.02500,-7
47.03333,-7
47.04167,-7
47.05000,-7
47.05833,-6
47.06667,-6
47.07500,-6
47.08333,-6
47.09167,-6
47.10000,-6
47.10833,-6
47.11667,-6
47.12500,-6
47.13333,-6
47.14167,-6
47.15000,-6
47.15833,-6
47.16667,-7
47.17500,-7
47.18333,-7
47.19167,-6
47.20000,-6
47.20833,-6
47.21667,-6
47.22500,-6
47.23333,-6
47.24167,-6
47.25000,-6
47.25833,-6
47.26667,-6
47.27500,-6
47.28333,-6
47.29167,-5
47.30000,-5
47.30833,-5
47.31667,-5
47.32500,-6
47.33333,-6
47.34167,-7
47.35000,-6
47.35833,-6
47.36667,-6
47.37500,-6
47.38333,-6
47.39167,-6
47.40000,-6
47.40833,-6
47.41667,-6
47.42500,-6
47.43333,-5
47.44167,-5
47.45000,-5
47.45833,-5
47.46667,-5
47.47500,-6
47.48333,-6
47.49167,-6
47.50000,-6
47.50833,-5
47.51667,-5
47.52500,-5
47.53333,-6
47.54167,-6
47.55000,-6
47.55833,-6
47.56667,-5
47.57500,-5
47.58333,-5
47.59167,-5
47.60000,-5
47.60833,-5
47.61667,-5
47.62500,-5
47.63333,-5
47.64167,-5
47.65000,-5
47.65833,-5
47.66667,-5
47.67500,-5
47.68333,-5
47.69167,-5
47.70000,-5
47.70833,-5
47.71667,-5
47.72500,-5
47.73333,-5
47.74167,-5
47.75000,-5
47.75833,-5
47.76667,-5
47.77500,-5
47.78333,-5
47.79167,-6
47.80000,-6
47.80833,-6
47.81667,-5
47.82500,-5
47.83333,-5
47.84167,-6
47.85000,-6
47.85833,-6
47.86667,-6
47.87500,-6
47.88333,-6
47.89167,-6
47.90000,-6
47.90833,-6
47.91667,-6
47.92500,-6
47.93333,-6
47.94167,-5
47.95000,-5
47.95833,-5
47.96667,-5
47.97500,-5
47.98333,-6
47.99167,-6
48.00000,-6
48.00833,-6
48.01667,-6
48.02500,-6
48.03333,-6
48.04167,-6
48.05000,-5
48.05833,-5
48.06667,-5
48.07500,-5
48.08333,-5
48.09167,-5
48.10000,-5
48.10833,-5
48.11667,-5
48.12500,-6
48.13333,-6
48.14167,-5
48.15000,-5
48.15833,-5
48.16667,-5
48.17500,-5
48.18333,-6
48.19167,-6
48.20000,-6
48.20833,-6
48.21667,-6
48.22500,-6
48.23333,-6
48.24167,-6
48.25000,-6
48.25833,-7
48.26667,-7
48.27500,-7
48.28333,-7
48.29167,-7
48.30000,-7
48.30833,-7
48.31667,-7
48.32500,-7
48.33333,-7
48.34167,-7
48.35000,-7
48.35833,-7
48.36667,-7
48.37500,-6
48.38333,-6
48.39167,-6
48.40000,-5
48.40833,-5
48.41667,-5
48.42500,-5
48.43333,-5
48.44167,-5
48.45000,-5
48.45833,-6
48.46667,-6
48.47500,-6
48.48333,-6
48.49167,-6
48.50000,-6
48.50833,-7
48.51667,-7
48.52500,-7
48.53333,-7
48.54167,-6
48.55000,-6
48.55833,-6
48.56667,-6
48.57500,-6
48.58333,-6
48.59167,-6
48.60000,-6
48.60833,-6
48.61667,-7
48.62500,-6
48.63333,-6
48.64167,-6
48.65000,-5
48.65833,-5
48.66667,-5
48.67500,-6
48.68333,-6
48.69167,-6
48.70000,-6
48.70833,-6
48.71667,-6
48.72500,-6
48.73333,-5
48.74167,-5
48.75000,-5
48.75833,-5
48.76667,-5
48.77500,-6
48.78333,-6
48.79167,-5
48.80000,-5
48.80833,-5
48.81667,-5
48.82500,-6
48.83333,-6
48.84167,-6
48.85000,-6
48.85833,-6
48.86667,-6
48.87500,-6
48.88333,-6
48.89167,-6
48.90000,-6
48.90833,-7
48.91667,-7
48.92500,-7
48.93333,-7
48.94167,-7
48.95000,-7
48.95833,-7
48.96667,-7
48.97500,-6
48.98333,-6
48.99167,-6
49.00000,-6
49.00833,-6
49.01667,-6
49.02500,-6
49.03333,-6
49.04167,-6
49.05000,-6
49.05833,-6
49.06667,-6
49.07500,-6
49.08333,-6
49.09167,-5
49.10000,-5
49.10833,-5
49.11667,-5
49.12500,-5
49.13333,-5
49.14167,-5
49.15000,-5
49.15833,-6
49.16667,-6
49.17500,-6
49.18333,-6
49.19167,-6
49.20000,-6
49.20833,-6
49.21667,-6
49.22500,-6
49.23333,-6
49.24167,-6
49.25000,-6
49.25833,-6
49.26667,-6
49.27500,-6
49.28333,-5
49.29167,-5
49.30000,-5
49.30833,-5
49.31667,-5
49.32500,-5
49.33333,-5
49.34167,-6
49.35000,-6
49.35833,-6
49.36667,-6
49.37500,-6
49.38333,-6
49.39167,-6
49.40000,-6
49.40833,-6
49.41667,-6
49.42500,-7
49.43333,-7
49.44167,-7
49.45000,-6
49.45833,-6
49.46667,-6
49.47500,-6
49.48333,-6
49.49167,-6
49.50000,-6
49.50833,-6
49.51667,-6
49.52500,-6
49.53333,-6
49.54167,-6
49.55000,-6
49.55833,-5
49.56667,-5
49.57500,-5
49.58333,-5
49.59167,-5
49.60000,-5
49.60833,-5
49.61667,-5
49.62500,-5
49.63333,-5
49.64167,-5
49.65000,-6
49.65833,-6
49.66667,-5
49.67500,-5
49.68333,-5
49.69167,-4
49.70000,-4
49.70833,-5
49.71667,-5
49.72500,-4
49.73333,-4
49.74167,-4
49.75000,-4
49.75833,-4
49.76667,-4
49.77500,-4
49.78333,-4
49.79167,-4
49.80000,-5
49.80833,-4
49.81667,-4
49.82500,-4
49.83333,-4
49.84167,-4
49.85000,-4
49.85833,-4
49.86667,-4
49.87500,-4
49.88333,-4
49.89167,-4
49.90000,-3
49.90833,-3
49.91667,-3
49.92500,-2
49.93333,-2
49.94167,-2
49.95000,-2
49.95833,-2
49.96667,-2
49.97500,-2
49.98333,-2
49.99167,-2
50.00000,-2

