[Header]
Application Name,LabSolutions
Version,5.97 SP1
Data File Name,C:\Users\cremerlab\Desktop\Richa\Oct_18th_2022_yield_expt\Oct 18th 2022 yield expt_10182022_001_009.lcd
Output Date,10/19/2022
Output Time,12:24:02 AM

[File Information]
Type,Data File
Generated,10/18/2022 11:33:43 PM
Generated by,System Administrator
Modified,10/19/2022 12:24:02 AM
Modified by,System Administrator

[Sample Information]
Operator Name,System Administrator
Acquired,10/18/2022 11:34:01 PM
Sample Type,0:Unknown
Level,0
Sample Name,101822_BF_4
Sample ID,001
ISTD Amount1,1
ISTD Amount2,1
ISTD Amount3,1
ISTD Amount4,1
ISTD Amount5,1
ISTD Amount6,1
ISTD Amount7,1
ISTD Amount8,1
ISTD Amount9,1
ISTD Amount10,1
ISTD Amount11,1
ISTD Amount12,1
ISTD Amount13,1
ISTD Amount14,1
ISTD Amount15,1
ISTD Amount16,1
ISTD Amount17,1
ISTD Amount18,1
ISTD Amount19,1
ISTD Amount20,1
ISTD Amount21,1
ISTD Amount22,1
ISTD Amount23,1
ISTD Amount24,1
ISTD Amount25,1
ISTD Amount26,1
ISTD Amount27,1
ISTD Amount28,1
ISTD Amount29,1
ISTD Amount30,1
ISTD Amount31,1
ISTD Amount32,1
Sample Amount,1
Dilution Factor,1
Vial#,8
Injection Volume,20

[Original Files]
Data File,C:\Users\cremerlab\Desktop\Richa\Oct_18th_2022_yield_expt\Oct 18th 2022 yield expt_10182022_001_009.lcd
Method File,C:\Users\cremerlab\Desktop\Richa\acetate_excretion.lcm
Batch File,C:\Users\cremerlab\Desktop\Richa\Oct_18th_2022_yield_expt\Oct 18th 2022 yield expt.lcb
Report Format File,c:\LabSolutions\System\DEFAULT.lsr

[File Description]


[Configuration]
Instrument Name,HPLC-PC-Instrument1
Instrument #,1
Line #,1
# of Detectors,2
Detector ID,Detector A,Detector B
Detector Name,Detector A,Detector B
# of Channels,1,1

[Peak Table(Detector A)]
# of Peaks,0

[Peak Table(Detector B)]
# of Peaks,8
Peak#,R.Time,I.Time,F.Time,Area,Height,A/H,Conc.,Mark,ID#,Name,k',Plate #,Plate Ht.,Tailing,Resolution,Sep.Factor,Area Ratio,Height Ratio,Conc. %,Norm Conc.
1,11.030,10.558,12.633,2212995,114493,19.329,0.000,   ,,,0.000,7756,19.341,0.922,0.000,0.000,0,0,0.000,0.000
2,14.355,12.633,15.192,3719644,78133,47.607,0.000, V ,,,0.301,2443,61.412,0.652,3.999,0.000,0,0,0.000,0.000
3,15.774,15.192,18.408,1441342,47890,30.097,0.000, V ,,,0.430,6752,22.216,1.146,1.471,1.427,0,0,0.000,0.000
4,21.601,20.517,22.442,18119,353,51.330,0.000,   ,,,0.958,4713,31.829,0.857,5.751,2.228,0,0,0.000,0.000
5,23.118,22.550,23.842,11040,314,35.184,0.000,   ,,,1.096,9836,15.251,1.038,1.384,1.143,0,0,0.000,0.000
6,25.088,24.283,26.150,154258,3861,39.956,0.000,   ,,,1.275,9145,16.402,1.047,1.988,1.163,0,0,0.000,0.000
7,29.279,28.075,30.667,29264,439,66.713,0.000,   ,,,1.655,5558,26.990,1.045,3.199,1.298,0,0,0.000,0.000
8,32.372,30.792,33.367,28717,444,64.622,0.000,   ,,,1.935,7352,20.403,0.789,2.007,1.169,0,0,0.000,0.000

[LC Chromatogram(Detector B-Ch1)]
Interval(msec),500
# of Points,6001
Start Time(min),0.000
End Time(min),50.000
Intensity Units,mV
Intensity Multiplier,0.001
R.Time (min),Intensity
0.00000,2
0.00833,2
0.01667,0
0.02500,0
0.03333,0
0.04167,0
0.05000,0
0.05833,1
0.06667,1
0.07500,1
0.08333,1
0.09167,1
0.10000,2
0.10833,2
0.11667,2
0.12500,2
0.13333,1
0.14167,1
0.15000,1
0.15833,1
0.16667,1
0.17500,1
0.18333,2
0.19167,2
0.20000,2
0.20833,2
0.21667,2
0.22500,2
0.23333,2
0.24167,2
0.25000,1
0.25833,1
0.26667,1
0.27500,1
0.28333,1
0.29167,1
0.30000,1
0.30833,1
0.31667,1
0.32500,1
0.33333,1
0.34167,1
0.35000,1
0.35833,1
0.36667,1
0.37500,1
0.38333,1
0.39167,0
0.40000,0
0.40833,0
0.41667,0
0.42500,1
0.43333,1
0.44167,1
0.45000,2
0.45833,2
0.46667,2
0.47500,1
0.48333,1
0.49167,0
0.50000,0
0.50833,0
0.51667,0
0.52500,0
0.53333,0
0.54167,0
0.55000,0
0.55833,0
0.56667,0
0.57500,0
0.58333,1
0.59167,1
0.60000,0
0.60833,1
0.61667,1
0.62500,1
0.63333,1
0.64167,1
0.65000,1
0.65833,1
0.66667,1
0.67500,0
0.68333,-0
0.69167,-1
0.70000,-1
0.70833,-1
0.71667,-1
0.72500,-1
0.73333,-1
0.74167,-1
0.75000,-1
0.75833,-1
0.76667,-1
0.77500,-1
0.78333,-1
0.79167,-1
0.80000,-1
0.80833,-0
0.81667,-0
0.82500,-0
0.83333,-0
0.84167,-1
0.85000,-1
0.85833,-1
0.86667,-1
0.87500,-1
0.88333,-1
0.89167,-1
0.90000,-1
0.90833,-1
0.91667,-2
0.92500,-2
0.93333,-2
0.94167,-2
0.95000,-2
0.95833,-2
0.96667,-2
0.97500,-2
0.98333,-2
0.99167,-2
1.00000,-2
1.00833,-3
1.01667,-3
1.02500,-2
1.03333,-3
1.04167,-3
1.05000,-3
1.05833,-3
1.06667,-2
1.07500,-2
1.08333,-2
1.09167,-3
1.10000,-3
1.10833,-3
1.11667,-2
1.12500,-2
1.13333,-2
1.14167,-3
1.15000,-3
1.15833,-3
1.16667,-3
1.17500,-3
1.18333,-3
1.19167,-3
1.20000,-3
1.20833,-3
1.21667,-3
1.22500,-3
1.23333,-3
1.24167,-4
1.25000,-4
1.25833,-4
1.26667,-4
1.27500,-4
1.28333,-4
1.29167,-4
1.30000,-4
1.30833,-4
1.31667,-4
1.32500,-4
1.33333,-4
1.34167,-4
1.35000,-4
1.35833,-4
1.36667,-4
1.37500,-5
1.38333,-5
1.39167,-4
1.40000,-4
1.40833,-4
1.41667,-4
1.42500,-4
1.43333,-4
1.44167,-4
1.45000,-4
1.45833,-5
1.46667,-5
1.47500,-5
1.48333,-6
1.49167,-6
1.50000,-6
1.50833,-5
1.51667,-5
1.52500,-5
1.53333,-5
1.54167,-5
1.55000,-5
1.55833,-6
1.56667,-6
1.57500,-6
1.58333,-5
1.59167,-5
1.60000,-5
1.60833,-5
1.61667,-5
1.62500,-5
1.63333,-5
1.64167,-5
1.65000,-5
1.65833,-5
1.66667,-5
1.67500,-5
1.68333,-5
1.69167,-5
1.70000,-5
1.70833,-5
1.71667,-5
1.72500,-5
1.73333,-5
1.74167,-4
1.75000,-4
1.75833,-4
1.76667,-4
1.77500,-5
1.78333,-5
1.79167,-5
1.80000,-5
1.80833,-5
1.81667,-5
1.82500,-5
1.83333,-5
1.84167,-5
1.85000,-5
1.85833,-5
1.86667,-5
1.87500,-5
1.88333,-5
1.89167,-5
1.90000,-5
1.90833,-5
1.91667,-5
1.92500,-5
1.93333,-5
1.94167,-6
1.95000,-6
1.95833,-6
1.96667,-6
1.97500,-5
1.98333,-5
1.99167,-5
2.00000,-5
2.00833,-5
2.01667,-5
2.02500,-5
2.03333,-5
2.04167,-6
2.05000,-6
2.05833,-6
2.06667,-6
2.07500,-5
2.08333,-5
2.09167,-5
2.10000,-5
2.10833,-5
2.11667,-5
2.12500,-5
2.13333,-5
2.14167,-5
2.15000,-5
2.15833,-5
2.16667,-5
2.17500,-5
2.18333,-5
2.19167,-5
2.20000,-5
2.20833,-5
2.21667,-5
2.22500,-5
2.23333,-5
2.24167,-6
2.25000,-6
2.25833,-5
2.26667,-5
2.27500,-6
2.28333,-6
2.29167,-6
2.30000,-6
2.30833,-5
2.31667,-5
2.32500,-5
2.33333,-5
2.34167,-6
2.35000,-6
2.35833,-6
2.36667,-6
2.37500,-6
2.38333,-6
2.39167,-6
2.40000,-6
2.40833,-6
2.41667,-6
2.42500,-7
2.43333,-7
2.44167,-6
2.45000,-6
2.45833,-6
2.46667,-6
2.47500,-6
2.48333,-6
2.49167,-6
2.50000,-6
2.50833,-6
2.51667,-6
2.52500,-6
2.53333,-6
2.54167,-6
2.55000,-6
2.55833,-7
2.56667,-7
2.57500,-7
2.58333,-6
2.59167,-6
2.60000,-6
2.60833,-7
2.61667,-7
2.62500,-7
2.63333,-7
2.64167,-7
2.65000,-7
2.65833,-7
2.66667,-7
2.67500,-7
2.68333,-7
2.69167,-7
2.70000,-7
2.70833,-7
2.71667,-7
2.72500,-7
2.73333,-7
2.74167,-7
2.75000,-7
2.75833,-7
2.76667,-7
2.77500,-6
2.78333,-6
2.79167,-6
2.80000,-6
2.80833,-6
2.81667,-6
2.82500,-6
2.83333,-6
2.84167,-6
2.85000,-6
2.85833,-6
2.86667,-6
2.87500,-6
2.88333,-6
2.89167,-6
2.90000,-6
2.90833,-6
2.91667,-6
2.92500,-6
2.93333,-6
2.94167,-6
2.95000,-6
2.95833,-6
2.96667,-6
2.97500,-5
2.98333,-6
2.99167,-6
3.00000,-6
3.00833,-6
3.01667,-6
3.02500,-6
3.03333,-6
3.04167,-6
3.05000,-6
3.05833,-6
3.06667,-6
3.07500,-6
3.08333,-6
3.09167,-6
3.10000,-5
3.10833,-5
3.11667,-5
3.12500,-6
3.13333,-6
3.14167,-6
3.15000,-6
3.15833,-6
3.16667,-6
3.17500,-6
3.18333,-6
3.19167,-6
3.20000,-6
3.20833,-5
3.21667,-5
3.22500,-5
3.23333,-5
3.24167,-5
3.25000,-6
3.25833,-6
3.26667,-6
3.27500,-6
3.28333,-6
3.29167,-6
3.30000,-6
3.30833,-6
3.31667,-6
3.32500,-6
3.33333,-6
3.34167,-6
3.35000,-6
3.35833,-6
3.36667,-6
3.37500,-6
3.38333,-6
3.39167,-6
3.40000,-6
3.40833,-6
3.41667,-6
3.42500,-6
3.43333,-6
3.44167,-6
3.45000,-6
3.45833,-6
3.46667,-6
3.47500,-6
3.48333,-6
3.49167,-6
3.50000,-6
3.50833,-6
3.51667,-6
3.52500,-6
3.53333,-7
3.54167,-7
3.55000,-7
3.55833,-7
3.56667,-6
3.57500,-6
3.58333,-6
3.59167,-6
3.60000,-6
3.60833,-6
3.61667,-6
3.62500,-6
3.63333,-6
3.64167,-6
3.65000,-5
3.65833,-5
3.66667,-5
3.67500,-5
3.68333,-6
3.69167,-6
3.70000,-6
3.70833,-6
3.71667,-6
3.72500,-6
3.73333,-7
3.74167,-7
3.75000,-7
3.75833,-7
3.76667,-6
3.77500,-6
3.78333,-6
3.79167,-6
3.80000,-5
3.80833,-5
3.81667,-5
3.82500,-6
3.83333,-6
3.84167,-6
3.85000,-6
3.85833,-6
3.86667,-6
3.87500,-7
3.88333,-7
3.89167,-7
3.90000,-6
3.90833,-6
3.91667,-6
3.92500,-7
3.93333,-7
3.94167,-7
3.95000,-7
3.95833,-7
3.96667,-7
3.97500,-7
3.98333,-7
3.99167,-7
4.00000,-8
4.00833,-7
4.01667,-7
4.02500,-7
4.03333,-7
4.04167,-7
4.05000,-7
4.05833,-7
4.06667,-7
4.07500,-7
4.08333,-7
4.09167,-7
4.10000,-6
4.10833,-6
4.11667,-6
4.12500,-6
4.13333,-6
4.14167,-6
4.15000,-6
4.15833,-6
4.16667,-6
4.17500,-7
4.18333,-7
4.19167,-7
4.20000,-7
4.20833,-7
4.21667,-7
4.22500,-6
4.23333,-6
4.24167,-6
4.25000,-6
4.25833,-6
4.26667,-6
4.27500,-6
4.28333,-6
4.29167,-6
4.30000,-6
4.30833,-5
4.31667,-6
4.32500,-6
4.33333,-6
4.34167,-6
4.35000,-6
4.35833,-6
4.36667,-6
4.37500,-7
4.38333,-7
4.39167,-7
4.40000,-7
4.40833,-7
4.41667,-7
4.42500,-7
4.43333,-7
4.44167,-7
4.45000,-7
4.45833,-7
4.46667,-7
4.47500,-7
4.48333,-7
4.49167,-7
4.50000,-7
4.50833,-7
4.51667,-7
4.52500,-7
4.53333,-7
4.54167,-7
4.55000,-7
4.55833,-7
4.56667,-7
4.57500,-7
4.58333,-8
4.59167,-8
4.60000,-8
4.60833,-8
4.61667,-7
4.62500,-7
4.63333,-7
4.64167,-7
4.65000,-7
4.65833,-7
4.66667,-7
4.67500,-7
4.68333,-7
4.69167,-7
4.70000,-7
4.70833,-6
4.71667,-6
4.72500,-7
4.73333,-6
4.74167,-6
4.75000,-6
4.75833,-6
4.76667,-6
4.77500,-6
4.78333,-7
4.79167,-7
4.80000,-6
4.80833,-6
4.81667,-6
4.82500,-6
4.83333,-6
4.84167,-7
4.85000,-7
4.85833,-6
4.86667,-6
4.87500,-6
4.88333,-6
4.89167,-6
4.90000,-7
4.90833,-6
4.91667,-6
4.92500,-6
4.93333,-5
4.94167,-5
4.95000,-5
4.95833,-5
4.96667,-5
4.97500,-6
4.98333,-6
4.99167,-6
5.00000,-5
5.00833,-6
5.01667,-6
5.02500,-6
5.03333,-7
5.04167,-7
5.05000,-7
5.05833,-7
5.06667,-7
5.07500,-6
5.08333,-6
5.09167,-7
5.10000,-7
5.10833,-7
5.11667,-7
5.12500,-7
5.13333,-7
5.14167,-7
5.15000,-7
5.15833,-7
5.16667,-7
5.17500,-7
5.18333,-6
5.19167,-6
5.20000,-6
5.20833,-6
5.21667,-6
5.22500,-6
5.23333,-6
5.24167,-7
5.25000,-6
5.25833,-7
5.26667,-7
5.27500,-7
5.28333,-7
5.29167,-7
5.30000,-7
5.30833,-7
5.31667,-7
5.32500,-7
5.33333,-7
5.34167,-7
5.35000,-7
5.35833,-7
5.36667,-6
5.37500,-6
5.38333,-6
5.39167,-6
5.40000,-6
5.40833,-6
5.41667,-6
5.42500,-6
5.43333,-7
5.44167,-7
5.45000,-7
5.45833,-7
5.46667,-7
5.47500,-7
5.48333,-7
5.49167,-7
5.50000,-7
5.50833,-7
5.51667,-7
5.52500,-7
5.53333,-7
5.54167,-7
5.55000,-7
5.55833,-7
5.56667,-7
5.57500,-7
5.58333,-7
5.59167,-7
5.60000,-7
5.60833,-7
5.61667,-7
5.62500,-7
5.63333,-8
5.64167,-8
5.65000,-8
5.65833,-8
5.66667,-7
5.67500,-7
5.68333,-7
5.69167,-7
5.70000,-7
5.70833,-7
5.71667,-7
5.72500,-7
5.73333,-7
5.74167,-7
5.75000,-7
5.75833,-7
5.76667,-6
5.77500,-6
5.78333,-6
5.79167,-6
5.80000,-6
5.80833,-6
5.81667,-7
5.82500,-7
5.83333,-8
5.84167,-8
5.85000,-7
5.85833,-8
5.86667,-8
5.87500,-8
5.88333,-8
5.89167,-8
5.90000,-8
5.90833,-8
5.91667,-8
5.92500,-7
5.93333,-7
5.94167,-7
5.95000,-7
5.95833,-6
5.96667,-6
5.97500,-6
5.98333,-6
5.99167,-6
6.00000,-6
6.00833,-6
6.01667,-6
6.02500,-6
6.03333,-6
6.04167,-6
6.05000,-6
6.05833,-6
6.06667,-6
6.07500,-6
6.08333,-6
6.09167,-6
6.10000,-6
6.10833,-6
6.11667,-6
6.12500,-5
6.13333,-5
6.14167,-5
6.15000,-6
6.15833,-6
6.16667,-6
6.17500,-7
6.18333,-7
6.19167,-7
6.20000,-7
6.20833,-7
6.21667,-7
6.22500,-7
6.23333,-7
6.24167,-7
6.25000,-7
6.25833,-7
6.26667,-7
6.27500,-7
6.28333,-7
6.29167,-7
6.30000,-7
6.30833,-7
6.31667,-7
6.32500,-6
6.33333,-6
6.34167,-6
6.35000,-6
6.35833,-6
6.36667,-6
6.37500,-6
6.38333,-7
6.39167,-7
6.40000,-7
6.40833,-7
6.41667,-7
6.42500,-6
6.43333,-6
6.44167,-6
6.45000,-6
6.45833,-6
6.46667,-6
6.47500,-6
6.48333,-6
6.49167,-6
6.50000,-6
6.50833,-6
6.51667,-6
6.52500,-6
6.53333,-7
6.54167,-7
6.55000,-7
6.55833,-7
6.56667,-7
6.57500,-7
6.58333,-7
6.59167,-7
6.60000,-7
6.60833,-7
6.61667,-6
6.62500,-6
6.63333,-6
6.64167,-6
6.65000,-7
6.65833,-7
6.66667,-7
6.67500,-7
6.68333,-7
6.69167,-7
6.70000,-7
6.70833,-7
6.71667,-7
6.72500,-7
6.73333,-7
6.74167,-7
6.75000,-8
6.75833,-7
6.76667,-7
6.77500,-7
6.78333,-7
6.79167,-7
6.80000,-7
6.80833,-7
6.81667,-7
6.82500,-7
6.83333,-6
6.84167,-7
6.85000,-7
6.85833,-7
6.86667,-7
6.87500,-7
6.88333,-6
6.89167,-6
6.90000,-7
6.90833,-6
6.91667,-6
6.92500,-6
6.93333,-6
6.94167,-6
6.95000,-6
6.95833,-6
6.96667,-6
6.97500,-6
6.98333,-6
6.99167,-6
7.00000,-6
7.00833,-6
7.01667,-7
7.02500,-7
7.03333,-8
7.04167,-8
7.05000,-7
7.05833,-7
7.06667,-7
7.07500,-7
7.08333,-7
7.09167,-7
7.10000,-7
7.10833,-7
7.11667,-8
7.12500,-7
7.13333,-7
7.14167,-7
7.15000,-7
7.15833,-7
7.16667,-7
7.17500,-7
7.18333,-7
7.19167,-7
7.20000,-7
7.20833,-6
7.21667,-7
7.22500,-7
7.23333,-7
7.24167,-7
7.25000,-6
7.25833,-6
7.26667,-6
7.27500,-6
7.28333,-5
7.29167,-6
7.30000,-6
7.30833,-6
7.31667,-6
7.32500,-6
7.33333,-6
7.34167,-6
7.35000,-6
7.35833,-5
7.36667,-5
7.37500,-6
7.38333,-6
7.39167,-6
7.40000,-6
7.40833,-6
7.41667,-6
7.42500,-6
7.43333,-6
7.44167,-6
7.45000,-6
7.45833,-6
7.46667,-6
7.47500,-7
7.48333,-7
7.49167,-6
7.50000,-6
7.50833,-6
7.51667,-6
7.52500,-6
7.53333,-6
7.54167,-6
7.55000,-6
7.55833,-6
7.56667,-7
7.57500,-7
7.58333,-7
7.59167,-7
7.60000,-7
7.60833,-7
7.61667,-7
7.62500,-7
7.63333,-7
7.64167,-7
7.65000,-7
7.65833,-7
7.66667,-7
7.67500,-6
7.68333,-6
7.69167,-6
7.70000,-6
7.70833,-6
7.71667,-6
7.72500,-6
7.73333,-6
7.74167,-6
7.75000,-6
7.75833,-6
7.76667,-6
7.77500,-6
7.78333,-6
7.79167,-6
7.80000,-6
7.80833,-7
7.81667,-7
7.82500,-7
7.83333,-7
7.84167,-7
7.85000,-7
7.85833,-7
7.86667,-6
7.87500,-6
7.88333,-6
7.89167,-6
7.90000,-6
7.90833,-6
7.91667,-7
7.92500,-6
7.93333,-6
7.94167,-6
7.95000,-6
7.95833,-6
7.96667,-6
7.97500,-6
7.98333,-6
7.99167,-6
8.00000,-6
8.00833,-6
8.01667,-6
8.02500,-6
8.03333,-7
8.04167,-7
8.05000,-7
8.05833,-7
8.06667,-6
8.07500,-6
8.08333,-6
8.09167,-6
8.10000,-6
8.10833,-6
8.11667,-5
8.12500,-5
8.13333,-5
8.14167,-6
8.15000,-6
8.15833,-6
8.16667,-6
8.17500,-6
8.18333,-6
8.19167,-6
8.20000,-6
8.20833,-6
8.21667,-6
8.22500,-6
8.23333,-6
8.24167,-6
8.25000,-6
8.25833,-6
8.26667,-6
8.27500,-6
8.28333,-6
8.29167,-6
8.30000,-6
8.30833,-6
8.31667,-6
8.32500,-6
8.33333,-6
8.34167,-6
8.35000,-6
8.35833,-6
8.36667,-6
8.37500,-6
8.38333,-6
8.39167,-6
8.40000,-6
8.40833,-6
8.41667,-6
8.42500,-6
8.43333,-6
8.44167,-6
8.45000,-6
8.45833,-6
8.46667,-6
8.47500,-7
8.48333,-7
8.49167,-7
8.50000,-6
8.50833,-6
8.51667,-6
8.52500,-6
8.53333,-6
8.54167,-6
8.55000,-6
8.55833,-6
8.56667,-6
8.57500,-6
8.58333,-6
8.59167,-6
8.60000,-6
8.60833,-6
8.61667,-6
8.62500,-6
8.63333,-6
8.64167,-6
8.65000,-5
8.65833,-5
8.66667,-5
8.67500,-5
8.68333,-5
8.69167,-6
8.70000,-6
8.70833,-6
8.71667,-6
8.72500,-6
8.73333,-6
8.74167,-5
8.75000,-5
8.75833,-5
8.76667,-5
8.77500,-5
8.78333,-5
8.79167,-5
8.80000,-6
8.80833,-6
8.81667,-6
8.82500,-6
8.83333,-6
8.84167,-6
8.85000,-6
8.85833,-6
8.86667,-6
8.87500,-6
8.88333,-6
8.89167,-6
8.90000,-6
8.90833,-5
8.91667,-5
8.92500,-5
8.93333,-5
8.94167,-5
8.95000,-5
8.95833,-5
8.96667,-5
8.97500,-5
8.98333,-5
8.99167,-5
9.00000,-6
9.00833,-6
9.01667,-6
9.02500,-6
9.03333,-6
9.04167,-6
9.05000,-6
9.05833,-5
9.06667,-5
9.07500,-5
9.08333,-5
9.09167,-5
9.10000,-5
9.10833,-6
9.11667,-6
9.12500,-6
9.13333,-6
9.14167,-6
9.15000,-6
9.15833,-6
9.16667,-5
9.17500,-5
9.18333,-6
9.19167,-6
9.20000,-6
9.20833,-6
9.21667,-6
9.22500,-6
9.23333,-6
9.24167,-5
9.25000,-6
9.25833,-6
9.26667,-5
9.27500,-5
9.28333,-5
9.29167,-5
9.30000,-5
9.30833,-5
9.31667,-5
9.32500,-5
9.33333,-5
9.34167,-5
9.35000,-4
9.35833,-4
9.36667,-5
9.37500,-5
9.38333,-5
9.39167,-5
9.40000,-5
9.40833,-5
9.41667,-5
9.42500,-5
9.43333,-5
9.44167,-5
9.45000,-5
9.45833,-5
9.46667,-6
9.47500,-6
9.48333,-6
9.49167,-5
9.50000,-5
9.50833,-5
9.51667,-5
9.52500,-5
9.53333,-5
9.54167,-5
9.55000,-5
9.55833,-5
9.56667,-5
9.57500,-4
9.58333,-4
9.59167,-4
9.60000,-4
9.60833,-4
9.61667,-4
9.62500,-4
9.63333,-4
9.64167,-4
9.65000,-4
9.65833,-4
9.66667,-5
9.67500,-5
9.68333,-5
9.69167,-4
9.70000,-4
9.70833,-4
9.71667,-4
9.72500,-4
9.73333,-4
9.74167,-4
9.75000,-4
9.75833,-4
9.76667,-5
9.77500,-5
9.78333,-5
9.79167,-5
9.80000,-5
9.80833,-5
9.81667,-5
9.82500,-5
9.83333,-5
9.84167,-5
9.85000,-5
9.85833,-5
9.86667,-5
9.87500,-4
9.88333,-5
9.89167,-5
9.90000,-5
9.90833,-5
9.91667,-5
9.92500,-6
9.93333,-6
9.94167,-6
9.95000,-6
9.95833,-5
9.96667,-5
9.97500,-5
9.98333,-5
9.99167,-5
10.00000,-5
10.00833,-5
10.01667,-5
10.02500,-5
10.03333,-5
10.04167,-6
10.05000,-6
10.05833,-6
10.06667,-6
10.07500,-5
10.08333,-5
10.09167,-5
10.10000,-4
10.10833,-4
10.11667,-4
10.12500,-4
10.13333,-5
10.14167,-4
10.15000,-4
10.15833,-4
10.16667,-4
10.17500,-4
10.18333,-4
10.19167,-4
10.20000,-4
10.20833,-4
10.21667,-3
10.22500,-3
10.23333,-3
10.24167,-3
10.25000,-3
10.25833,-2
10.26667,-2
10.27500,-2
10.28333,-2
10.29167,-2
10.30000,-2
10.30833,-2
10.31667,-2
10.32500,-2
10.33333,-3
10.34167,-3
10.35000,-4
10.35833,-5
10.36667,-6
10.37500,-9
10.38333,-12
10.39167,-17
10.40000,-23
10.40833,-32
10.41667,-44
10.42500,-59
10.43333,-78
10.44167,-102
10.45000,-131
10.45833,-166
10.46667,-207
10.47500,-255
10.48333,-307
10.49167,-365
10.50000,-426
10.50833,-489
10.51667,-552
10.52500,-611
10.53333,-665
10.54167,-707
10.55000,-735
10.55833,-743
10.56667,-727
10.57500,-680
10.58333,-597
10.59167,-471
10.60000,-297
10.60833,-68
10.61667,221
10.62500,578
10.63333,1007
10.64167,1514
10.65000,2105
10.65833,2785
10.66667,3559
10.67500,4431
10.68333,5406
10.69167,6487
10.70000,7678
10.70833,8982
10.71667,10400
10.72500,11936
10.73333,13591
10.74167,15367
10.75000,17264
10.75833,19284
10.76667,21427
10.77500,23693
10.78333,26081
10.79167,28590
10.80000,31218
10.80833,33964
10.81667,36824
10.82500,39797
10.83333,42879
10.84167,46066
10.85000,49352
10.85833,52733
10.86667,56201
10.87500,59749
10.88333,63367
10.89167,67045
10.90000,70770
10.90833,74526
10.91667,78296
10.92500,82060
10.93333,85794
10.94167,89468
10.95000,93051
10.95833,96506
10.96667,99791
10.97500,102861
10.98333,105663
10.99167,108146
11.00000,110252
11.00833,111925
11.01667,113108
11.02500,113749
11.03333,113801
11.04167,113227
11.05000,112002
11.05833,110115
11.06667,107573
11.07500,104401
11.08333,100642
11.09167,96356
11.10000,91618
11.10833,86515
11.11667,81141
11.12500,75594
11.13333,69971
11.14167,64363
11.15000,58854
11.15833,53515
11.16667,48406
11.17500,43574
11.18333,39053
11.19167,34865
11.20000,31020
11.20833,27518
11.21667,24354
11.22500,21513
11.23333,18979
11.24167,16731
11.25000,14745
11.25833,12999
11.26667,11469
11.27500,10132
11.28333,8967
11.29167,7953
11.30000,7073
11.30833,6308
11.31667,5643
11.32500,5067
11.33333,4565
11.34167,4129
11.35000,3749
11.35833,3418
11.36667,3128
11.37500,2873
11.38333,2649
11.39167,2450
11.40000,2274
11.40833,2118
11.41667,1977
11.42500,1851
11.43333,1738
11.44167,1635
11.45000,1542
11.45833,1457
11.46667,1380
11.47500,1309
11.48333,1243
11.49167,1182
11.50000,1126
11.50833,1073
11.51667,1024
11.52500,978
11.53333,936
11.54167,896
11.55000,858
11.55833,823
11.56667,790
11.57500,758
11.58333,729
11.59167,701
11.60000,674
11.60833,649
11.61667,625
11.62500,602
11.63333,580
11.64167,560
11.65000,540
11.65833,522
11.66667,504
11.67500,487
11.68333,471
11.69167,456
11.70000,442
11.70833,428
11.71667,415
11.72500,403
11.73333,391
11.74167,379
11.75000,369
11.75833,358
11.76667,348
11.77500,339
11.78333,331
11.79167,323
11.80000,315
11.80833,307
11.81667,300
11.82500,294
11.83333,287
11.84167,282
11.85000,276
11.85833,271
11.86667,266
11.87500,262
11.88333,258
11.89167,253
11.90000,249
11.90833,246
11.91667,242
11.92500,240
11.93333,237
11.94167,235
11.95000,232
11.95833,229
11.96667,227
11.97500,225
11.98333,223
11.99167,222
12.00000,220
12.00833,219
12.01667,217
12.02500,215
12.03333,214
12.04167,214
12.05000,213
12.05833,212
12.06667,211
12.07500,210
12.08333,209
12.09167,207
12.10000,206
12.10833,205
12.11667,204
12.12500,203
12.13333,202
12.14167,201
12.15000,200
12.15833,199
12.16667,198
12.17500,197
12.18333,196
12.19167,194
12.20000,193
12.20833,192
12.21667,191
12.22500,190
12.23333,188
12.24167,187
12.25000,186
12.25833,185
12.26667,183
12.27500,182
12.28333,181
12.29167,179
12.30000,178
12.30833,176
12.31667,175
12.32500,173
12.33333,172
12.34167,171
12.35000,170
12.35833,169
12.36667,168
12.37500,166
12.38333,165
12.39167,164
12.40000,162
12.40833,161
12.41667,160
12.42500,159
12.43333,158
12.44167,157
12.45000,156
12.45833,155
12.46667,154
12.47500,152
12.48333,151
12.49167,151
12.50000,150
12.50833,149
12.51667,148
12.52500,147
12.53333,145
12.54167,144
12.55000,143
12.55833,141
12.56667,140
12.57500,138
12.58333,137
12.59167,136
12.60000,135
12.60833,134
12.61667,133
12.62500,133
12.63333,132
12.64167,133
12.65000,133
12.65833,134
12.66667,135
12.67500,137
12.68333,140
12.69167,143
12.70000,148
12.70833,153
12.71667,160
12.72500,168
12.73333,179
12.74167,191
12.75000,206
12.75833,223
12.76667,242
12.77500,265
12.78333,290
12.79167,319
12.80000,351
12.80833,387
12.81667,427
12.82500,472
12.83333,520
12.84167,573
12.85000,630
12.85833,691
12.86667,758
12.87500,830
12.88333,907
12.89167,989
12.90000,1076
12.90833,1169
12.91667,1267
12.92500,1370
12.93333,1479
12.94167,1594
12.95000,1714
12.95833,1841
12.96667,1972
12.97500,2109
12.98333,2251
12.99167,2399
13.00000,2553
13.00833,2712
13.01667,2876
13.02500,3046
13.03333,3222
13.04167,3403
13.05000,3589
13.05833,3780
13.06667,3976
13.07500,4177
13.08333,4384
13.09167,4595
13.10000,4812
13.10833,5033
13.11667,5259
13.12500,5489
13.13333,5724
13.14167,5964
13.15000,6208
13.15833,6456
13.16667,6709
13.17500,6966
13.18333,7226
13.19167,7491
13.20000,7759
13.20833,8031
13.21667,8306
13.22500,8586
13.23333,8869
13.24167,9156
13.25000,9446
13.25833,9739
13.26667,10036
13.27500,10337
13.28333,10640
13.29167,10947
13.30000,11257
13.30833,11570
13.31667,11887
13.32500,12206
13.33333,12529
13.34167,12855
13.35000,13183
13.35833,13515
13.36667,13849
13.37500,14187
13.38333,14527
13.39167,14871
13.40000,15217
13.40833,15567
13.41667,15920
13.42500,16275
13.43333,16633
13.44167,16995
13.45000,17360
13.45833,17728
13.46667,18099
13.47500,18472
13.48333,18849
13.49167,19229
13.50000,19611
13.50833,19997
13.51667,20386
13.52500,20778
13.53333,21172
13.54167,21571
13.55000,21972
13.55833,22377
13.56667,22785
13.57500,23196
13.58333,23611
13.59167,24029
13.60000,24450
13.60833,24876
13.61667,25304
13.62500,25736
13.63333,26171
13.64167,26610
13.65000,27052
13.65833,27497
13.66667,27947
13.67500,28400
13.68333,28857
13.69167,29318
13.70000,29782
13.70833,30250
13.71667,30722
13.72500,31198
13.73333,31677
13.74167,32161
13.75000,32648
13.75833,33139
13.76667,33635
13.77500,34135
13.78333,34638
13.79167,35146
13.80000,35658
13.80833,36174
13.81667,36694
13.82500,37219
13.83333,37748
13.84167,38282
13.85000,38820
13.85833,39363
13.86667,39910
13.87500,40461
13.88333,41017
13.89167,41578
13.90000,42144
13.90833,42716
13.91667,43292
13.92500,43872
13.93333,44458
13.94167,45048
13.95000,45644
13.95833,46245
13.96667,46850
13.97500,47460
13.98333,48076
13.99167,48698
14.00000,49324
14.00833,49957
14.01667,50595
14.02500,51239
14.03333,51888
14.04167,52543
14.05000,53204
14.05833,53870
14.06667,54543
14.07500,55221
14.08333,55906
14.09167,56598
14.10000,57295
14.10833,57999
14.11667,58708
14.12500,59425
14.13333,60147
14.14167,60877
14.15000,61613
14.15833,62356
14.16667,63105
14.17500,63862
14.18333,64625
14.19167,65396
14.20000,66173
14.20833,66958
14.21667,67749
14.22500,68546
14.23333,69348
14.24167,70152
14.25000,70957
14.25833,71757
14.26667,72547
14.27500,73321
14.28333,74069
14.29167,74783
14.30000,75450
14.30833,76058
14.31667,76595
14.32500,77049
14.33333,77406
14.34167,77657
14.35000,77792
14.35833,77802
14.36667,77680
14.37500,77421
14.38333,77021
14.39167,76478
14.40000,75788
14.40833,74950
14.41667,73962
14.42500,72822
14.43333,71528
14.44167,70079
14.45000,68472
14.45833,66707
14.46667,64784
14.47500,62707
14.48333,60479
14.49167,58111
14.50000,55613
14.50833,53000
14.51667,50294
14.52500,47514
14.53333,44686
14.54167,41837
14.55000,38992
14.55833,36178
14.56667,33422
14.57500,30746
14.58333,28172
14.59167,25717
14.60000,23395
14.60833,21218
14.61667,19190
14.62500,17316
14.63333,15595
14.64167,14025
14.65000,12601
14.65833,11316
14.66667,10160
14.67500,9127
14.68333,8206
14.69167,7387
14.70000,6662
14.70833,6020
14.71667,5454
14.72500,4954
14.73333,4513
14.74167,4125
14.75000,3782
14.75833,3480
14.76667,3213
14.77500,2976
14.78333,2767
14.79167,2582
14.80000,2417
14.80833,2270
14.81667,2138
14.82500,2020
14.83333,1914
14.84167,1818
14.85000,1730
14.85833,1650
14.86667,1578
14.87500,1512
14.88333,1451
14.89167,1395
14.90000,1343
14.90833,1295
14.91667,1250
14.92500,1208
14.93333,1169
14.94167,1132
14.95000,1098
14.95833,1066
14.96667,1036
14.97500,1007
14.98333,980
14.99167,954
15.00000,930
15.00833,907
15.01667,886
15.02500,866
15.03333,847
15.04167,828
15.05000,810
15.05833,794
15.06667,778
15.07500,763
15.08333,749
15.09167,736
15.10000,723
15.10833,712
15.11667,702
15.12500,692
15.13333,682
15.14167,674
15.15000,666
15.15833,660
15.16667,654
15.17500,650
15.18333,647
15.19167,646
15.20000,646
15.20833,650
15.21667,657
15.22500,667
15.23333,681
15.24167,701
15.25000,727
15.25833,760
15.26667,802
15.27500,854
15.28333,917
15.29167,994
15.30000,1086
15.30833,1196
15.31667,1327
15.32500,1480
15.33333,1659
15.34167,1867
15.35000,2106
15.35833,2379
15.36667,2691
15.37500,3044
15.38333,3440
15.39167,3885
15.40000,4379
15.40833,4927
15.41667,5529
15.42500,6190
15.43333,6909
15.44167,7689
15.45000,8530
15.45833,9432
15.46667,10396
15.47500,11419
15.48333,12500
15.49167,13637
15.50000,14826
15.50833,16065
15.51667,17348
15.52500,18671
15.53333,20029
15.54167,21415
15.55000,22824
15.55833,24248
15.56667,25681
15.57500,27116
15.58333,28546
15.59167,29964
15.60000,31362
15.60833,32735
15.61667,34075
15.62500,35377
15.63333,36634
15.64167,37842
15.65000,38996
15.65833,40090
15.66667,41121
15.67500,42086
15.68333,42981
15.69167,43803
15.70000,44551
15.70833,45222
15.71667,45815
15.72500,46328
15.73333,46761
15.74167,47114
15.75000,47385
15.75833,47575
15.76667,47684
15.77500,47713
15.78333,47662
15.79167,47532
15.80000,47324
15.80833,47040
15.81667,46680
15.82500,46247
15.83333,45742
15.84167,45167
15.85000,44526
15.85833,43821
15.86667,43056
15.87500,42232
15.88333,41354
15.89167,40426
15.90000,39452
15.90833,38435
15.91667,37380
15.92500,36292
15.93333,35176
15.94167,34035
15.95000,32875
15.95833,31701
15.96667,30516
15.97500,29326
15.98333,28135
15.99167,26948
16.00000,25768
16.00833,24600
16.01667,23448
16.02500,22314
16.03333,21203
16.04167,20116
16.05000,19058
16.05833,18028
16.06667,17030
16.07500,16065
16.08333,15136
16.09167,14243
16.10000,13387
16.10833,12567
16.11667,11786
16.12500,11041
16.13333,10335
16.14167,9665
16.15000,9031
16.15833,8433
16.16667,7871
16.17500,7342
16.18333,6846
16.19167,6382
16.20000,5948
16.20833,5543
16.21667,5165
16.22500,4814
16.23333,4488
16.24167,4185
16.25000,3904
16.25833,3644
16.26667,3405
16.27500,3184
16.28333,2979
16.29167,2791
16.30000,2618
16.30833,2458
16.31667,2311
16.32500,2176
16.33333,2052
16.34167,1938
16.35000,1833
16.35833,1737
16.36667,1648
16.37500,1567
16.38333,1492
16.39167,1423
16.40000,1359
16.40833,1301
16.41667,1247
16.42500,1197
16.43333,1151
16.44167,1108
16.45000,1068
16.45833,1031
16.46667,997
16.47500,965
16.48333,935
16.49167,907
16.50000,880
16.50833,856
16.51667,832
16.52500,810
16.53333,789
16.54167,769
16.55000,750
16.55833,731
16.56667,714
16.57500,697
16.58333,682
16.59167,667
16.60000,652
16.60833,638
16.61667,624
16.62500,611
16.63333,598
16.64167,586
16.65000,574
16.65833,562
16.66667,551
16.67500,541
16.68333,531
16.69167,521
16.70000,511
16.70833,501
16.71667,492
16.72500,484
16.73333,475
16.74167,468
16.75000,460
16.75833,452
16.76667,445
16.77500,438
16.78333,431
16.79167,425
16.80000,419
16.80833,413
16.81667,407
16.82500,402
16.83333,397
16.84167,392
16.85000,388
16.85833,383
16.86667,379
16.87500,375
16.88333,371
16.89167,367
16.90000,364
16.90833,361
16.91667,358
16.92500,354
16.93333,351
16.94167,348
16.95000,346
16.95833,343
16.96667,341
16.97500,338
16.98333,336
16.99167,333
17.00000,331
17.00833,329
17.01667,327
17.02500,325
17.03333,323
17.04167,321
17.05000,319
17.05833,317
17.06667,315
17.07500,313
17.08333,311
17.09167,309
17.10000,307
17.10833,304
17.11667,302
17.12500,300
17.13333,298
17.14167,296
17.15000,294
17.15833,292
17.16667,290
17.17500,289
17.18333,287
17.19167,285
17.20000,283
17.20833,281
17.21667,278
17.22500,276
17.23333,274
17.24167,273
17.25000,271
17.25833,268
17.26667,266
17.27500,264
17.28333,262
17.29167,260
17.30000,258
17.30833,256
17.31667,254
17.32500,251
17.33333,249
17.34167,247
17.35000,245
17.35833,243
17.36667,241
17.37500,239
17.38333,238
17.39167,236
17.40000,234
17.40833,232
17.41667,230
17.42500,228
17.43333,226
17.44167,225
17.45000,223
17.45833,221
17.46667,219
17.47500,217
17.48333,215
17.49167,213
17.50000,211
17.50833,209
17.51667,208
17.52500,206
17.53333,205
17.54167,203
17.55000,202
17.55833,200
17.56667,198
17.57500,196
17.58333,194
17.59167,193
17.60000,191
17.60833,190
17.61667,188
17.62500,186
17.63333,185
17.64167,183
17.65000,182
17.65833,181
17.66667,181
17.67500,179
17.68333,178
17.69167,177
17.70000,175
17.70833,174
17.71667,172
17.72500,171
17.73333,169
17.74167,168
17.75000,167
17.75833,166
17.76667,165
17.77500,164
17.78333,163
17.79167,162
17.80000,161
17.80833,160
17.81667,159
17.82500,158
17.83333,157
17.84167,156
17.85000,155
17.85833,154
17.86667,153
17.87500,152
17.88333,151
17.89167,150
17.90000,150
17.90833,149
17.91667,148
17.92500,147
17.93333,145
17.94167,145
17.95000,144
17.95833,143
17.96667,143
17.97500,142
17.98333,142
17.99167,141
18.00000,139
18.00833,138
18.01667,137
18.02500,136
18.03333,135
18.04167,134
18.05000,134
18.05833,134
18.06667,133
18.07500,132
18.08333,132
18.09167,131
18.10000,130
18.10833,130
18.11667,130
18.12500,129
18.13333,129
18.14167,128
18.15000,127
18.15833,127
18.16667,126
18.17500,126
18.18333,125
18.19167,124
18.20000,123
18.20833,122
18.21667,122
18.22500,121
18.23333,121
18.24167,120
18.25000,120
18.25833,119
18.26667,118
18.27500,118
18.28333,117
18.29167,117
18.30000,116
18.30833,116
18.31667,115
18.32500,114
18.33333,114
18.34167,113
18.35000,112
18.35833,112
18.36667,111
18.37500,111
18.38333,110
18.39167,110
18.40000,109
18.40833,109
18.41667,109
18.42500,108
18.43333,108
18.44167,108
18.45000,107
18.45833,106
18.46667,105
18.47500,104
18.48333,104
18.49167,103
18.50000,103
18.50833,103
18.51667,103
18.52500,103
18.53333,102
18.54167,101
18.55000,101
18.55833,101
18.56667,100
18.57500,100
18.58333,100
18.59167,99
18.60000,99
18.60833,99
18.61667,98
18.62500,98
18.63333,98
18.64167,98
18.65000,98
18.65833,98
18.66667,98
18.67500,97
18.68333,96
18.69167,96
18.70000,95
18.70833,94
18.71667,93
18.72500,93
18.73333,92
18.74167,92
18.75000,91
18.75833,91
18.76667,91
18.77500,90
18.78333,90
18.79167,89
18.80000,89
18.80833,88
18.81667,88
18.82500,88
18.83333,87
18.84167,87
18.85000,86
18.85833,86
18.86667,86
18.87500,86
18.88333,85
18.89167,85
18.90000,85
18.90833,85
18.91667,84
18.92500,84
18.93333,84
18.94167,84
18.95000,84
18.95833,84
18.96667,84
18.97500,84
18.98333,84
18.99167,84
19.00000,83
19.00833,83
19.01667,83
19.02500,82
19.03333,82
19.04167,82
19.05000,82
19.05833,81
19.06667,81
19.07500,81
19.08333,81
19.09167,81
19.10000,81
19.10833,81
19.11667,81
19.12500,81
19.13333,82
19.14167,82
19.15000,82
19.15833,82
19.16667,81
19.17500,81
19.18333,81
19.19167,81
19.20000,80
19.20833,80
19.21667,80
19.22500,80
19.23333,80
19.24167,80
19.25000,80
19.25833,80
19.26667,79
19.27500,79
19.28333,79
19.29167,79
19.30000,79
19.30833,79
19.31667,78
19.32500,78
19.33333,77
19.34167,77
19.35000,77
19.35833,77
19.36667,77
19.37500,76
19.38333,76
19.39167,75
19.40000,75
19.40833,74
19.41667,74
19.42500,74
19.43333,74
19.44167,73
19.45000,72
19.45833,72
19.46667,71
19.47500,71
19.48333,70
19.49167,70
19.50000,69
19.50833,68
19.51667,68
19.52500,67
19.53333,67
19.54167,66
19.55000,66
19.55833,65
19.56667,64
19.57500,64
19.58333,64
19.59167,63
19.60000,63
19.60833,63
19.61667,62
19.62500,61
19.63333,61
19.64167,60
19.65000,60
19.65833,59
19.66667,59
19.67500,59
19.68333,58
19.69167,58
19.70000,57
19.70833,57
19.71667,56
19.72500,56
19.73333,55
19.74167,55
19.75000,55
19.75833,54
19.76667,54
19.77500,54
19.78333,53
19.79167,53
19.80000,53
19.80833,53
19.81667,52
19.82500,51
19.83333,51
19.84167,51
19.85000,50
19.85833,50
19.86667,50
19.87500,50
19.88333,49
19.89167,49
19.90000,48
19.90833,48
19.91667,49
19.92500,49
19.93333,48
19.94167,48
19.95000,48
19.95833,48
19.96667,47
19.97500,47
19.98333,47
19.99167,46
20.00000,46
20.00833,46
20.01667,45
20.02500,45
20.03333,45
20.04167,45
20.05000,45
20.05833,45
20.06667,45
20.07500,45
20.08333,45
20.09167,45
20.10000,44
20.10833,44
20.11667,44
20.12500,44
20.13333,44
20.14167,44
20.15000,44
20.15833,43
20.16667,43
20.17500,43
20.18333,43
20.19167,43
20.20000,43
20.20833,43
20.21667,43
20.22500,44
20.23333,44
20.24167,44
20.25000,44
20.25833,43
20.26667,43
20.27500,43
20.28333,43
20.29167,43
20.30000,43
20.30833,44
20.31667,44
20.32500,44
20.33333,44
20.34167,44
20.35000,44
20.35833,44
20.36667,44
20.37500,44
20.38333,44
20.39167,44
20.40000,44
20.40833,45
20.41667,45
20.42500,46
20.43333,46
20.44167,47
20.45000,48
20.45833,48
20.46667,49
20.47500,50
20.48333,51
20.49167,52
20.50000,53
20.50833,54
20.51667,55
20.52500,56
20.53333,58
20.54167,59
20.55000,61
20.55833,63
20.56667,64
20.57500,66
20.58333,68
20.59167,70
20.60000,72
20.60833,74
20.61667,76
20.62500,78
20.63333,80
20.64167,83
20.65000,85
20.65833,88
20.66667,91
20.67500,93
20.68333,95
20.69167,98
20.70000,100
20.70833,103
20.71667,106
20.72500,108
20.73333,111
20.74167,114
20.75000,116
20.75833,118
20.76667,121
20.77500,123
20.78333,125
20.79167,127
20.80000,129
20.80833,131
20.81667,132
20.82500,134
20.83333,135
20.84167,137
20.85000,139
20.85833,140
20.86667,141
20.87500,142
20.88333,143
20.89167,144
20.90000,146
20.90833,147
20.91667,148
20.92500,149
20.93333,150
20.94167,150
20.95000,151
20.95833,152
20.96667,153
20.97500,154
20.98333,155
20.99167,156
21.00000,158
21.00833,159
21.01667,160
21.02500,162
21.03333,163
21.04167,164
21.05000,166
21.05833,168
21.06667,169
21.07500,172
21.08333,174
21.09167,176
21.10000,179
21.10833,182
21.11667,185
21.12500,189
21.13333,192
21.14167,196
21.15000,201
21.15833,205
21.16667,209
21.17500,214
21.18333,219
21.19167,224
21.20000,229
21.20833,235
21.21667,240
21.22500,245
21.23333,251
21.24167,256
21.25000,262
21.25833,268
21.26667,274
21.27500,280
21.28333,286
21.29167,291
21.30000,297
21.30833,303
21.31667,308
21.32500,314
21.33333,319
21.34167,324
21.35000,329
21.35833,333
21.36667,338
21.37500,342
21.38333,347
21.39167,351
21.40000,355
21.40833,359
21.41667,363
21.42500,366
21.43333,369
21.44167,372
21.45000,375
21.45833,379
21.46667,381
21.47500,384
21.48333,387
21.49167,389
21.50000,392
21.50833,394
21.51667,396
21.52500,398
21.53333,400
21.54167,401
21.55000,403
21.55833,404
21.56667,405
21.57500,406
21.58333,407
21.59167,408
21.60000,408
21.60833,408
21.61667,407
21.62500,407
21.63333,406
21.64167,405
21.65000,404
21.65833,402
21.66667,400
21.67500,398
21.68333,395
21.69167,392
21.70000,388
21.70833,385
21.71667,381
21.72500,377
21.73333,373
21.74167,369
21.75000,365
21.75833,360
21.76667,355
21.77500,350
21.78333,345
21.79167,339
21.80000,334
21.80833,328
21.81667,322
21.82500,316
21.83333,311
21.84167,305
21.85000,300
21.85833,294
21.86667,289
21.87500,283
21.88333,278
21.89167,272
21.90000,267
21.90833,261
21.91667,256
21.92500,251
21.93333,246
21.94167,241
21.95000,236
21.95833,231
21.96667,226
21.97500,222
21.98333,217
21.99167,213
22.00000,208
22.00833,204
22.01667,200
22.02500,196
22.03333,192
22.04167,188
22.05000,183
22.05833,179
22.06667,175
22.07500,171
22.08333,167
22.09167,162
22.10000,158
22.10833,154
22.11667,150
22.12500,146
22.13333,142
22.14167,138
22.15000,134
22.15833,130
22.16667,126
22.17500,122
22.18333,119
22.19167,115
22.20000,111
22.20833,107
22.21667,104
22.22500,101
22.23333,97
22.24167,95
22.25000,92
22.25833,89
22.26667,86
22.27500,83
22.28333,81
22.29167,79
22.30000,76
22.30833,74
22.31667,72
22.32500,69
22.33333,68
22.34167,66
22.35000,65
22.35833,63
22.36667,62
22.37500,61
22.38333,59
22.39167,58
22.40000,57
22.40833,57
22.41667,56
22.42500,55
22.43333,55
22.44167,55
22.45000,55
22.45833,54
22.46667,54
22.47500,54
22.48333,55
22.49167,55
22.50000,56
22.50833,56
22.51667,57
22.52500,58
22.53333,59
22.54167,61
22.55000,62
22.55833,63
22.56667,64
22.57500,66
22.58333,67
22.59167,69
22.60000,71
22.60833,74
22.61667,77
22.62500,80
22.63333,83
22.64167,86
22.65000,89
22.65833,93
22.66667,96
22.67500,100
22.68333,105
22.69167,109
22.70000,114
22.70833,118
22.71667,123
22.72500,129
22.73333,134
22.74167,140
22.75000,145
22.75833,151
22.76667,157
22.77500,163
22.78333,170
22.79167,177
22.80000,184
22.80833,190
22.81667,197
22.82500,204
22.83333,211
22.84167,218
22.85000,225
22.85833,233
22.86667,240
22.87500,246
22.88333,253
22.89167,259
22.90000,266
22.90833,272
22.91667,278
22.92500,284
22.93333,289
22.94167,295
22.95000,300
22.95833,306
22.96667,311
22.97500,316
22.98333,321
22.99167,325
23.00000,329
23.00833,332
23.01667,336
23.02500,339
23.03333,342
23.04167,345
23.05000,348
23.05833,350
23.06667,352
23.07500,354
23.08333,355
23.09167,356
23.10000,357
23.10833,357
23.11667,358
23.12500,358
23.13333,357
23.14167,356
23.15000,355
23.15833,354
23.16667,352
23.17500,351
23.18333,349
23.19167,346
23.20000,343
23.20833,339
23.21667,336
23.22500,332
23.23333,327
23.24167,323
23.25000,318
23.25833,313
23.26667,307
23.27500,301
23.28333,295
23.29167,289
23.30000,282
23.30833,276
23.31667,270
23.32500,263
23.33333,256
23.34167,249
23.35000,242
23.35833,235
23.36667,227
23.37500,220
23.38333,212
23.39167,205
23.40000,197
23.40833,190
23.41667,183
23.42500,175
23.43333,169
23.44167,162
23.45000,155
23.45833,148
23.46667,141
23.47500,135
23.48333,129
23.49167,122
23.50000,117
23.50833,111
23.51667,106
23.52500,101
23.53333,96
23.54167,91
23.55000,86
23.55833,82
23.56667,78
23.57500,74
23.58333,70
23.59167,66
23.60000,63
23.60833,59
23.61667,56
23.62500,53
23.63333,50
23.64167,48
23.65000,45
23.65833,43
23.66667,41
23.67500,40
23.68333,38
23.69167,37
23.70000,35
23.70833,34
23.71667,32
23.72500,31
23.73333,30
23.74167,29
23.75000,29
23.75833,28
23.76667,27
23.77500,26
23.78333,25
23.79167,24
23.80000,23
23.80833,23
23.81667,22
23.82500,22
23.83333,22
23.84167,21
23.85000,21
23.85833,21
23.86667,21
23.87500,20
23.88333,20
23.89167,20
23.90000,19
23.90833,19
23.91667,19
23.92500,18
23.93333,18
23.94167,18
23.95000,18
23.95833,18
23.96667,18
23.97500,18
23.98333,18
23.99167,18
24.00000,18
24.00833,18
24.01667,17
24.02500,17
24.03333,18
24.04167,18
24.05000,17
24.05833,17
24.06667,17
24.07500,17
24.08333,17
24.09167,17
24.10000,17
24.10833,17
24.11667,17
24.12500,17
24.13333,17
24.14167,17
24.15000,17
24.15833,17
24.16667,17
24.17500,17
24.18333,16
24.19167,16
24.20000,16
24.20833,16
24.21667,16
24.22500,17
24.23333,17
24.24167,18
24.25000,18
24.25833,18
24.26667,18
24.27500,19
24.28333,20
24.29167,20
24.30000,21
24.30833,22
24.31667,24
24.32500,26
24.33333,28
24.34167,30
24.35000,33
24.35833,36
24.36667,39
24.37500,43
24.38333,47
24.39167,52
24.40000,58
24.40833,65
24.41667,72
24.42500,80
24.43333,90
24.44167,100
24.45000,112
24.45833,124
24.46667,138
24.47500,153
24.48333,170
24.49167,188
24.50000,209
24.50833,231
24.51667,255
24.52500,282
24.53333,310
24.54167,341
24.55000,374
24.55833,409
24.56667,448
24.57500,489
24.58333,532
24.59167,578
24.60000,626
24.60833,677
24.61667,730
24.62500,786
24.63333,845
24.64167,906
24.65000,970
24.65833,1036
24.66667,1103
24.67500,1173
24.68333,1245
24.69167,1319
24.70000,1394
24.70833,1470
24.71667,1548
24.72500,1628
24.73333,1708
24.74167,1789
24.75000,1870
24.75833,1951
24.76667,2032
24.77500,2113
24.78333,2194
24.79167,2275
24.80000,2355
24.80833,2434
24.81667,2512
24.82500,2588
24.83333,2663
24.84167,2737
24.85000,2809
24.85833,2879
24.86667,2946
24.87500,3012
24.88333,3076
24.89167,3139
24.90000,3199
24.90833,3256
24.91667,3312
24.92500,3365
24.93333,3415
24.94167,3464
24.95000,3510
24.95833,3553
24.96667,3594
24.97500,3632
24.98333,3667
24.99167,3700
25.00000,3731
25.00833,3759
25.01667,3785
25.02500,3807
25.03333,3827
25.04167,3845
25.05000,3859
25.05833,3871
25.06667,3879
25.07500,3885
25.08333,3888
25.09167,3888
25.10000,3885
25.10833,3879
25.11667,3869
25.12500,3856
25.13333,3840
25.14167,3821
25.15000,3798
25.15833,3773
25.16667,3744
25.17500,3711
25.18333,3676
25.19167,3637
25.20000,3596
25.20833,3551
25.21667,3504
25.22500,3453
25.23333,3400
25.24167,3343
25.25000,3285
25.25833,3223
25.26667,3160
25.27500,3094
25.28333,3026
25.29167,2956
25.30000,2885
25.30833,2812
25.31667,2738
25.32500,2663
25.33333,2587
25.34167,2511
25.35000,2434
25.35833,2357
25.36667,2280
25.37500,2202
25.38333,2124
25.39167,2047
25.40000,1970
25.40833,1895
25.41667,1820
25.42500,1746
25.43333,1674
25.44167,1602
25.45000,1532
25.45833,1464
25.46667,1397
25.47500,1332
25.48333,1269
25.49167,1207
25.50000,1148
25.50833,1090
25.51667,1034
25.52500,980
25.53333,928
25.54167,879
25.55000,831
25.55833,785
25.56667,741
25.57500,699
25.58333,659
25.59167,621
25.60000,585
25.60833,550
25.61667,518
25.62500,487
25.63333,457
25.64167,429
25.65000,403
25.65833,379
25.66667,356
25.67500,334
25.68333,314
25.69167,295
25.70000,278
25.70833,261
25.71667,245
25.72500,231
25.73333,217
25.74167,204
25.75000,192
25.75833,181
25.76667,170
25.77500,160
25.78333,152
25.79167,143
25.80000,135
25.80833,128
25.81667,121
25.82500,115
25.83333,109
25.84167,104
25.85000,99
25.85833,94
25.86667,89
25.87500,85
25.88333,82
25.89167,78
25.90000,76
25.90833,73
25.91667,70
25.92500,68
25.93333,66
25.94167,64
25.95000,62
25.95833,60
25.96667,58
25.97500,56
25.98333,54
25.99167,53
26.00000,52
26.00833,50
26.01667,49
26.02500,48
26.03333,47
26.04167,46
26.05000,45
26.05833,44
26.06667,43
26.07500,42
26.08333,41
26.09167,40
26.10000,40
26.10833,39
26.11667,38
26.12500,37
26.13333,37
26.14167,37
26.15000,37
26.15833,37
26.16667,36
26.17500,36
26.18333,35
26.19167,34
26.20000,34
26.20833,34
26.21667,34
26.22500,34
26.23333,34
26.24167,33
26.25000,33
26.25833,32
26.26667,32
26.27500,32
26.28333,32
26.29167,31
26.30000,31
26.30833,31
26.31667,30
26.32500,30
26.33333,30
26.34167,30
26.35000,30
26.35833,30
26.36667,30
26.37500,29
26.38333,29
26.39167,29
26.40000,29
26.40833,29
26.41667,29
26.42500,28
26.43333,28
26.44167,28
26.45000,28
26.45833,28
26.46667,28
26.47500,27
26.48333,27
26.49167,27
26.50000,27
26.50833,27
26.51667,27
26.52500,27
26.53333,26
26.54167,26
26.55000,26
26.55833,26
26.56667,26
26.57500,26
26.58333,27
26.59167,27
26.60000,26
26.60833,26
26.61667,26
26.62500,25
26.63333,25
26.64167,25
26.65000,25
26.65833,25
26.66667,26
26.67500,26
26.68333,26
26.69167,25
26.70000,25
26.70833,25
26.71667,25
26.72500,25
26.73333,25
26.74167,25
26.75000,25
26.75833,25
26.76667,24
26.77500,24
26.78333,24
26.79167,24
26.80000,24
26.80833,24
26.81667,24
26.82500,24
26.83333,23
26.84167,23
26.85000,23
26.85833,23
26.86667,24
26.87500,23
26.88333,23
26.89167,22
26.90000,22
26.90833,22
26.91667,22
26.92500,23
26.93333,23
26.94167,23
26.95000,23
26.95833,22
26.96667,22
26.97500,22
26.98333,22
26.99167,22
27.00000,21
27.00833,21
27.01667,21
27.02500,21
27.03333,21
27.04167,21
27.05000,21
27.05833,21
27.06667,21
27.07500,20
27.08333,20
27.09167,20
27.10000,20
27.10833,19
27.11667,19
27.12500,18
27.13333,18
27.14167,17
27.15000,17
27.15833,16
27.16667,16
27.17500,15
27.18333,15
27.19167,14
27.20000,14
27.20833,13
27.21667,13
27.22500,12
27.23333,11
27.24167,11
27.25000,10
27.25833,9
27.26667,8
27.27500,8
27.28333,7
27.29167,6
27.30000,5
27.30833,4
27.31667,3
27.32500,1
27.33333,-0
27.34167,-1
27.35000,-2
27.35833,-4
27.36667,-5
27.37500,-7
27.38333,-8
27.39167,-10
27.40000,-12
27.40833,-14
27.41667,-16
27.42500,-17
27.43333,-19
27.44167,-20
27.45000,-22
27.45833,-23
27.46667,-25
27.47500,-26
27.48333,-28
27.49167,-30
27.50000,-32
27.50833,-34
27.51667,-36
27.52500,-38
27.53333,-40
27.54167,-42
27.55000,-44
27.55833,-46
27.56667,-48
27.57500,-50
27.58333,-52
27.59167,-54
27.60000,-56
27.60833,-58
27.61667,-60
27.62500,-63
27.63333,-65
27.64167,-67
27.65000,-69
27.65833,-71
27.66667,-73
27.67500,-75
27.68333,-76
27.69167,-78
27.70000,-80
27.70833,-81
27.71667,-83
27.72500,-84
27.73333,-86
27.74167,-87
27.75000,-88
27.75833,-89
27.76667,-91
27.77500,-92
27.78333,-94
27.79167,-95
27.80000,-96
27.80833,-97
27.81667,-98
27.82500,-99
27.83333,-100
27.84167,-100
27.85000,-100
27.85833,-101
27.86667,-101
27.87500,-102
27.88333,-102
27.89167,-102
27.90000,-102
27.90833,-103
27.91667,-103
27.92500,-103
27.93333,-103
27.94167,-103
27.95000,-102
27.95833,-102
27.96667,-101
27.97500,-100
27.98333,-100
27.99167,-99
28.00000,-98
28.00833,-97
28.01667,-96
28.02500,-95
28.03333,-94
28.04167,-92
28.05000,-91
28.05833,-90
28.06667,-89
28.07500,-87
28.08333,-86
28.09167,-85
28.10000,-83
28.10833,-82
28.11667,-80
28.12500,-78
28.13333,-76
28.14167,-75
28.15000,-73
28.15833,-71
28.16667,-69
28.17500,-67
28.18333,-66
28.19167,-64
28.20000,-63
28.20833,-61
28.21667,-59
28.22500,-58
28.23333,-56
28.24167,-54
28.25000,-53
28.25833,-51
28.26667,-50
28.27500,-48
28.28333,-46
28.29167,-45
28.30000,-43
28.30833,-41
28.31667,-39
28.32500,-37
28.33333,-36
28.34167,-35
28.35000,-34
28.35833,-32
28.36667,-31
28.37500,-29
28.38333,-28
28.39167,-26
28.40000,-25
28.40833,-24
28.41667,-22
28.42500,-21
28.43333,-20
28.44167,-19
28.45000,-18
28.45833,-17
28.46667,-15
28.47500,-14
28.48333,-13
28.49167,-12
28.50000,-10
28.50833,-9
28.51667,-7
28.52500,-6
28.53333,-4
28.54167,-3
28.55000,-2
28.55833,-0
28.56667,1
28.57500,2
28.58333,4
28.59167,6
28.60000,8
28.60833,9
28.61667,11
28.62500,13
28.63333,15
28.64167,17
28.65000,19
28.65833,21
28.66667,24
28.67500,26
28.68333,29
28.69167,32
28.70000,35
28.70833,38
28.71667,41
28.72500,45
28.73333,49
28.74167,54
28.75000,58
28.75833,62
28.76667,66
28.77500,70
28.78333,75
28.79167,79
28.80000,84
28.80833,89
28.81667,94
28.82500,98
28.83333,104
28.84167,109
28.85000,114
28.85833,120
28.86667,125
28.87500,131
28.88333,137
28.89167,143
28.90000,149
28.90833,155
28.91667,161
28.92500,167
28.93333,173
28.94167,179
28.95000,184
28.95833,190
28.96667,195
28.97500,201
28.98333,207
28.99167,213
29.00000,218
29.00833,223
29.01667,228
29.02500,233
29.03333,239
29.04167,243
29.05000,248
29.05833,252
29.06667,257
29.07500,261
29.08333,265
29.09167,269
29.10000,273
29.10833,277
29.11667,280
29.12500,283
29.13333,286
29.14167,289
29.15000,291
29.15833,294
29.16667,296
29.17500,298
29.18333,300
29.19167,302
29.20000,304
29.20833,306
29.21667,307
29.22500,308
29.23333,309
29.24167,310
29.25000,310
29.25833,311
29.26667,311
29.27500,311
29.28333,311
29.29167,311
29.30000,311
29.30833,310
29.31667,310
29.32500,310
29.33333,309
29.34167,308
29.35000,306
29.35833,305
29.36667,303
29.37500,302
29.38333,300
29.39167,298
29.40000,296
29.40833,293
29.41667,290
29.42500,287
29.43333,284
29.44167,280
29.45000,277
29.45833,273
29.46667,269
29.47500,265
29.48333,262
29.49167,258
29.50000,253
29.50833,249
29.51667,244
29.52500,240
29.53333,235
29.54167,230
29.55000,224
29.55833,219
29.56667,214
29.57500,208
29.58333,202
29.59167,196
29.60000,191
29.60833,185
29.61667,179
29.62500,174
29.63333,168
29.64167,163
29.65000,157
29.65833,151
29.66667,146
29.67500,140
29.68333,135
29.69167,130
29.70000,124
29.70833,119
29.71667,114
29.72500,109
29.73333,104
29.74167,99
29.75000,94
29.75833,89
29.76667,84
29.77500,79
29.78333,75
29.79167,71
29.80000,67
29.80833,63
29.81667,59
29.82500,55
29.83333,52
29.84167,48
29.85000,45
29.85833,41
29.86667,38
29.87500,35
29.88333,32
29.89167,28
29.90000,25
29.90833,22
29.91667,19
29.92500,17
29.93333,14
29.94167,12
29.95000,9
29.95833,7
29.96667,5
29.97500,3
29.98333,1
29.99167,-1
30.00000,-3
30.00833,-6
30.01667,-8
30.02500,-10
30.03333,-12
30.04167,-14
30.05000,-16
30.05833,-17
30.06667,-19
30.07500,-21
30.08333,-23
30.09167,-26
30.10000,-28
30.10833,-30
30.11667,-32
30.12500,-34
30.13333,-36
30.14167,-38
30.15000,-40
30.15833,-43
30.16667,-45
30.17500,-48
30.18333,-50
30.19167,-53
30.20000,-55
30.20833,-58
30.21667,-60
30.22500,-63
30.23333,-65
30.24167,-68
30.25000,-70
30.25833,-73
30.26667,-76
30.27500,-79
30.28333,-82
30.29167,-84
30.30000,-87
30.30833,-90
30.31667,-93
30.32500,-95
30.33333,-98
30.34167,-100
30.35000,-103
30.35833,-106
30.36667,-108
30.37500,-110
30.38333,-113
30.39167,-115
30.40000,-118
30.40833,-121
30.41667,-124
30.42500,-126
30.43333,-129
30.44167,-132
30.45000,-134
30.45833,-137
30.46667,-140
30.47500,-142
30.48333,-144
30.49167,-146
30.50000,-148
30.50833,-151
30.51667,-153
30.52500,-155
30.53333,-156
30.54167,-158
30.55000,-159
30.55833,-161
30.56667,-162
30.57500,-163
30.58333,-165
30.59167,-166
30.60000,-167
30.60833,-168
30.61667,-170
30.62500,-171
30.63333,-172
30.64167,-173
30.65000,-173
30.65833,-173
30.66667,-174
30.67500,-174
30.68333,-174
30.69167,-174
30.70000,-174
30.70833,-174
30.71667,-173
30.72500,-173
30.73333,-173
30.74167,-172
30.75000,-171
30.75833,-170
30.76667,-169
30.77500,-168
30.78333,-166
30.79167,-165
30.80000,-163
30.80833,-162
30.81667,-161
30.82500,-159
30.83333,-157
30.84167,-156
30.85000,-154
30.85833,-152
30.86667,-150
30.87500,-148
30.88333,-145
30.89167,-143
30.90000,-141
30.90833,-138
30.91667,-136
30.92500,-133
30.93333,-131
30.94167,-128
30.95000,-125
30.95833,-122
30.96667,-120
30.97500,-117
30.98333,-114
30.99167,-111
31.00000,-108
31.00833,-105
31.01667,-102
31.02500,-100
31.03333,-97
31.04167,-94
31.05000,-91
31.05833,-89
31.06667,-86
31.07500,-84
31.08333,-81
31.09167,-79
31.10000,-77
31.10833,-74
31.11667,-71
31.12500,-69
31.13333,-66
31.14167,-63
31.15000,-61
31.15833,-59
31.16667,-57
31.17500,-55
31.18333,-53
31.19167,-50
31.20000,-48
31.20833,-46
31.21667,-44
31.22500,-42
31.23333,-40
31.24167,-38
31.25000,-36
31.25833,-35
31.26667,-33
31.27500,-32
31.28333,-30
31.29167,-29
31.30000,-28
31.30833,-27
31.31667,-26
31.32500,-25
31.33333,-23
31.34167,-22
31.35000,-21
31.35833,-20
31.36667,-18
31.37500,-17
31.38333,-16
31.39167,-15
31.40000,-14
31.40833,-13
31.41667,-12
31.42500,-11
31.43333,-10
31.44167,-9
31.45000,-9
31.45833,-8
31.46667,-7
31.47500,-6
31.48333,-5
31.49167,-4
31.50000,-3
31.50833,-2
31.51667,-1
31.52500,0
31.53333,1
31.54167,2
31.55000,3
31.55833,4
31.56667,5
31.57500,6
31.58333,8
31.59167,9
31.60000,10
31.60833,12
31.61667,14
31.62500,16
31.63333,18
31.64167,20
31.65000,22
31.65833,24
31.66667,27
31.67500,30
31.68333,32
31.69167,35
31.70000,38
31.70833,42
31.71667,45
31.72500,48
31.73333,51
31.74167,54
31.75000,58
31.75833,63
31.76667,67
31.77500,71
31.78333,75
31.79167,79
31.80000,84
31.80833,88
31.81667,94
31.82500,99
31.83333,104
31.84167,109
31.85000,115
31.85833,120
31.86667,126
31.87500,131
31.88333,137
31.89167,142
31.90000,148
31.90833,154
31.91667,160
31.92500,167
31.93333,173
31.94167,179
31.95000,185
31.95833,191
31.96667,198
31.97500,204
31.98333,210
31.99167,216
32.00000,222
32.00833,228
32.01667,235
32.02500,241
32.03333,246
32.04167,252
32.05000,258
32.05833,264
32.06667,270
32.07500,276
32.08333,281
32.09167,286
32.10000,291
32.10833,296
32.11667,300
32.12500,305
32.13333,310
32.14167,314
32.15000,319
32.15833,323
32.16667,327
32.17500,332
32.18333,336
32.19167,339
32.20000,343
32.20833,347
32.21667,350
32.22500,353
32.23333,356
32.24167,358
32.25000,360
32.25833,362
32.26667,365
32.27500,367
32.28333,369
32.29167,371
32.30000,373
32.30833,374
32.31667,375
32.32500,376
32.33333,377
32.34167,378
32.35000,379
32.35833,380
32.36667,380
32.37500,380
32.38333,380
32.39167,379
32.40000,378
32.40833,377
32.41667,376
32.42500,375
32.43333,374
32.44167,373
32.45000,371
32.45833,369
32.46667,367
32.47500,364
32.48333,362
32.49167,359
32.50000,355
32.50833,352
32.51667,349
32.52500,346
32.53333,343
32.54167,339
32.55000,335
32.55833,331
32.56667,326
32.57500,322
32.58333,317
32.59167,311
32.60000,306
32.60833,301
32.61667,296
32.62500,291
32.63333,285
32.64167,279
32.65000,273
32.65833,267
32.66667,261
32.67500,255
32.68333,249
32.69167,243
32.70000,237
32.70833,231
32.71667,225
32.72500,219
32.73333,213
32.74167,207
32.75000,201
32.75833,194
32.76667,188
32.77500,182
32.78333,177
32.79167,171
32.80000,165
32.80833,159
32.81667,153
32.82500,147
32.83333,142
32.84167,137
32.85000,132
32.85833,127
32.86667,122
32.87500,118
32.88333,113
32.89167,108
32.90000,103
32.90833,99
32.91667,94
32.92500,90
32.93333,85
32.94167,81
32.95000,77
32.95833,73
32.96667,69
32.97500,66
32.98333,62
32.99167,59
33.00000,56
33.00833,53
33.01667,51
33.02500,49
33.03333,46
33.04167,43
33.05000,41
33.05833,38
33.06667,36
33.07500,34
33.08333,32
33.09167,30
33.10000,28
33.10833,26
33.11667,24
33.12500,23
33.13333,21
33.14167,19
33.15000,18
33.15833,17
33.16667,16
33.17500,15
33.18333,14
33.19167,13
33.20000,12
33.20833,11
33.21667,10
33.22500,10
33.23333,9
33.24167,9
33.25000,8
33.25833,7
33.26667,6
33.27500,5
33.28333,5
33.29167,4
33.30000,3
33.30833,2
33.31667,2
33.32500,1
33.33333,0
33.34167,-0
33.35000,-1
33.35833,-1
33.36667,-1
33.37500,-1
33.38333,-2
33.39167,-2
33.40000,-3
33.40833,-3
33.41667,-4
33.42500,-4
33.43333,-4
33.44167,-4
33.45000,-5
33.45833,-5
33.46667,-5
33.47500,-5
33.48333,-5
33.49167,-6
33.50000,-6
33.50833,-6
33.51667,-6
33.52500,-7
33.53333,-7
33.54167,-7
33.55000,-7
33.55833,-7
33.56667,-8
33.57500,-8
33.58333,-8
33.59167,-8
33.60000,-8
33.60833,-8
33.61667,-8
33.62500,-8
33.63333,-9
33.64167,-9
33.65000,-9
33.65833,-9
33.66667,-10
33.67500,-10
33.68333,-9
33.69167,-9
33.70000,-9
33.70833,-9
33.71667,-9
33.72500,-9
33.73333,-10
33.74167,-10
33.75000,-10
33.75833,-10
33.76667,-10
33.77500,-10
33.78333,-10
33.79167,-10
33.80000,-10
33.80833,-10
33.81667,-9
33.82500,-9
33.83333,-9
33.84167,-9
33.85000,-9
33.85833,-9
33.86667,-9
33.87500,-9
33.88333,-10
33.89167,-9
33.90000,-9
33.90833,-9
33.91667,-10
33.92500,-10
33.93333,-10
33.94167,-9
33.95000,-9
33.95833,-9
33.96667,-8
33.97500,-8
33.98333,-8
33.99167,-8
34.00000,-8
34.00833,-8
34.01667,-8
34.02500,-7
34.03333,-8
34.04167,-8
34.05000,-7
34.05833,-7
34.06667,-7
34.07500,-7
34.08333,-7
34.09167,-7
34.10000,-7
34.10833,-7
34.11667,-7
34.12500,-7
34.13333,-7
34.14167,-7
34.15000,-7
34.15833,-6
34.16667,-6
34.17500,-6
34.18333,-6
34.19167,-6
34.20000,-5
34.20833,-5
34.21667,-5
34.22500,-5
34.23333,-5
34.24167,-5
34.25000,-5
34.25833,-5
34.26667,-5
34.27500,-5
34.28333,-5
34.29167,-5
34.30000,-5
34.30833,-5
34.31667,-5
34.32500,-5
34.33333,-5
34.34167,-4
34.35000,-4
34.35833,-4
34.36667,-4
34.37500,-4
34.38333,-3
34.39167,-3
34.40000,-3
34.40833,-4
34.41667,-4
34.42500,-4
34.43333,-4
34.44167,-4
34.45000,-4
34.45833,-4
34.46667,-4
34.47500,-4
34.48333,-4
34.49167,-4
34.50000,-4
34.50833,-4
34.51667,-4
34.52500,-4
34.53333,-4
34.54167,-4
34.55000,-4
34.55833,-4
34.56667,-4
34.57500,-4
34.58333,-3
34.59167,-3
34.60000,-3
34.60833,-3
34.61667,-3
34.62500,-3
34.63333,-3
34.64167,-3
34.65000,-3
34.65833,-3
34.66667,-3
34.67500,-3
34.68333,-4
34.69167,-4
34.70000,-4
34.70833,-4
34.71667,-4
34.72500,-4
34.73333,-3
34.74167,-3
34.75000,-3
34.75833,-4
34.76667,-4
34.77500,-4
34.78333,-4
34.79167,-4
34.80000,-4
34.80833,-4
34.81667,-4
34.82500,-4
34.83333,-4
34.84167,-4
34.85000,-3
34.85833,-3
34.86667,-3
34.87500,-3
34.88333,-4
34.89167,-4
34.90000,-4
34.90833,-4
34.91667,-4
34.92500,-4
34.93333,-4
34.94167,-4
34.95000,-4
34.95833,-4
34.96667,-4
34.97500,-4
34.98333,-4
34.99167,-4
35.00000,-4
35.00833,-4
35.01667,-4
35.02500,-4
35.03333,-4
35.04167,-4
35.05000,-4
35.05833,-4
35.06667,-5
35.07500,-5
35.08333,-5
35.09167,-5
35.10000,-5
35.10833,-5
35.11667,-5
35.12500,-5
35.13333,-5
35.14167,-5
35.15000,-5
35.15833,-5
35.16667,-5
35.17500,-5
35.18333,-6
35.19167,-6
35.20000,-6
35.20833,-5
35.21667,-5
35.22500,-4
35.23333,-4
35.24167,-4
35.25000,-5
35.25833,-4
35.26667,-4
35.27500,-4
35.28333,-4
35.29167,-4
35.30000,-4
35.30833,-4
35.31667,-4
35.32500,-4
35.33333,-4
35.34167,-4
35.35000,-5
35.35833,-5
35.36667,-5
35.37500,-5
35.38333,-5
35.39167,-5
35.40000,-5
35.40833,-5
35.41667,-5
35.42500,-5
35.43333,-5
35.44167,-5
35.45000,-5
35.45833,-6
35.46667,-6
35.47500,-5
35.48333,-5
35.49167,-5
35.50000,-4
35.50833,-4
35.51667,-4
35.52500,-4
35.53333,-4
35.54167,-5
35.55000,-5
35.55833,-5
35.56667,-5
35.57500,-5
35.58333,-5
35.59167,-4
35.60000,-4
35.60833,-4
35.61667,-4
35.62500,-4
35.63333,-4
35.64167,-4
35.65000,-4
35.65833,-4
35.66667,-4
35.67500,-4
35.68333,-4
35.69167,-4
35.70000,-4
35.70833,-4
35.71667,-4
35.72500,-4
35.73333,-4
35.74167,-4
35.75000,-4
35.75833,-5
35.76667,-5
35.77500,-5
35.78333,-5
35.79167,-4
35.80000,-4
35.80833,-4
35.81667,-4
35.82500,-4
35.83333,-4
35.84167,-4
35.85000,-4
35.85833,-4
35.86667,-4
35.87500,-4
35.88333,-4
35.89167,-4
35.90000,-4
35.90833,-4
35.91667,-4
35.92500,-4
35.93333,-4
35.94167,-4
35.95000,-4
35.95833,-4
35.96667,-4
35.97500,-4
35.98333,-4
35.99167,-4
36.00000,-4
36.00833,-5
36.01667,-5
36.02500,-5
36.03333,-6
36.04167,-5
36.05000,-5
36.05833,-5
36.06667,-5
36.07500,-5
36.08333,-5
36.09167,-5
36.10000,-5
36.10833,-5
36.11667,-5
36.12500,-5
36.13333,-6
36.14167,-6
36.15000,-6
36.15833,-6
36.16667,-6
36.17500,-6
36.18333,-6
36.19167,-6
36.20000,-6
36.20833,-6
36.21667,-5
36.22500,-6
36.23333,-6
36.24167,-6
36.25000,-5
36.25833,-5
36.26667,-5
36.27500,-5
36.28333,-5
36.29167,-5
36.30000,-5
36.30833,-5
36.31667,-5
36.32500,-5
36.33333,-5
36.34167,-5
36.35000,-5
36.35833,-5
36.36667,-5
36.37500,-5
36.38333,-6
36.39167,-6
36.40000,-6
36.40833,-6
36.41667,-6
36.42500,-6
36.43333,-6
36.44167,-6
36.45000,-6
36.45833,-6
36.46667,-6
36.47500,-6
36.48333,-6
36.49167,-5
36.50000,-5
36.50833,-5
36.51667,-5
36.52500,-6
36.53333,-6
36.54167,-5
36.55000,-5
36.55833,-5
36.56667,-5
36.57500,-5
36.58333,-5
36.59167,-5
36.60000,-5
36.60833,-5
36.61667,-5
36.62500,-5
36.63333,-5
36.64167,-5
36.65000,-5
36.65833,-6
36.66667,-6
36.67500,-5
36.68333,-5
36.69167,-5
36.70000,-5
36.70833,-5
36.71667,-5
36.72500,-4
36.73333,-5
36.74167,-5
36.75000,-5
36.75833,-5
36.76667,-4
36.77500,-4
36.78333,-4
36.79167,-3
36.80000,-3
36.80833,-4
36.81667,-4
36.82500,-4
36.83333,-4
36.84167,-4
36.85000,-4
36.85833,-4
36.86667,-4
36.87500,-5
36.88333,-5
36.89167,-5
36.90000,-5
36.90833,-5
36.91667,-5
36.92500,-5
36.93333,-5
36.94167,-5
36.95000,-5
36.95833,-5
36.96667,-5
36.97500,-5
36.98333,-4
36.99167,-4
37.00000,-4
37.00833,-4
37.01667,-4
37.02500,-4
37.03333,-5
37.04167,-5
37.05000,-5
37.05833,-5
37.06667,-5
37.07500,-4
37.08333,-4
37.09167,-4
37.10000,-4
37.10833,-4
37.11667,-4
37.12500,-4
37.13333,-4
37.14167,-4
37.15000,-4
37.15833,-4
37.16667,-4
37.17500,-4
37.18333,-4
37.19167,-4
37.20000,-4
37.20833,-4
37.21667,-4
37.22500,-4
37.23333,-4
37.24167,-4
37.25000,-4
37.25833,-4
37.26667,-4
37.27500,-4
37.28333,-4
37.29167,-4
37.30000,-4
37.30833,-4
37.31667,-4
37.32500,-4
37.33333,-4
37.34167,-4
37.35000,-4
37.35833,-4
37.36667,-4
37.37500,-4
37.38333,-4
37.39167,-4
37.40000,-4
37.40833,-4
37.41667,-4
37.42500,-4
37.43333,-4
37.44167,-5
37.45000,-4
37.45833,-4
37.46667,-4
37.47500,-4
37.48333,-4
37.49167,-4
37.50000,-4
37.50833,-4
37.51667,-4
37.52500,-4
37.53333,-4
37.54167,-4
37.55000,-4
37.55833,-4
37.56667,-4
37.57500,-4
37.58333,-4
37.59167,-4
37.60000,-4
37.60833,-5
37.61667,-5
37.62500,-5
37.63333,-4
37.64167,-4
37.65000,-4
37.65833,-5
37.66667,-5
37.67500,-5
37.68333,-5
37.69167,-5
37.70000,-5
37.70833,-5
37.71667,-5
37.72500,-5
37.73333,-4
37.74167,-4
37.75000,-4
37.75833,-4
37.76667,-4
37.77500,-4
37.78333,-4
37.79167,-4
37.80000,-4
37.80833,-4
37.81667,-4
37.82500,-4
37.83333,-4
37.84167,-4
37.85000,-4
37.85833,-5
37.86667,-5
37.87500,-5
37.88333,-5
37.89167,-5
37.90000,-5
37.90833,-5
37.91667,-5
37.92500,-5
37.93333,-5
37.94167,-5
37.95000,-5
37.95833,-5
37.96667,-5
37.97500,-5
37.98333,-5
37.99167,-5
38.00000,-5
38.00833,-5
38.01667,-5
38.02500,-5
38.03333,-5
38.04167,-5
38.05000,-6
38.05833,-6
38.06667,-6
38.07500,-6
38.08333,-6
38.09167,-6
38.10000,-6
38.10833,-6
38.11667,-6
38.12500,-6
38.13333,-5
38.14167,-5
38.15000,-5
38.15833,-5
38.16667,-5
38.17500,-5
38.18333,-6
38.19167,-6
38.20000,-6
38.20833,-6
38.21667,-6
38.22500,-6
38.23333,-6
38.24167,-6
38.25000,-6
38.25833,-6
38.26667,-5
38.27500,-5
38.28333,-5
38.29167,-6
38.30000,-6
38.30833,-6
38.31667,-6
38.32500,-7
38.33333,-6
38.34167,-6
38.35000,-7
38.35833,-7
38.36667,-7
38.37500,-7
38.38333,-7
38.39167,-7
38.40000,-8
38.40833,-8
38.41667,-8
38.42500,-8
38.43333,-8
38.44167,-8
38.45000,-8
38.45833,-8
38.46667,-8
38.47500,-8
38.48333,-7
38.49167,-7
38.50000,-8
38.50833,-8
38.51667,-8
38.52500,-9
38.53333,-9
38.54167,-9
38.55000,-9
38.55833,-9
38.56667,-9
38.57500,-9
38.58333,-9
38.59167,-9
38.60000,-8
38.60833,-8
38.61667,-8
38.62500,-8
38.63333,-8
38.64167,-8
38.65000,-8
38.65833,-8
38.66667,-9
38.67500,-9
38.68333,-10
38.69167,-10
38.70000,-10
38.70833,-10
38.71667,-10
38.72500,-10
38.73333,-11
38.74167,-11
38.75000,-11
38.75833,-11
38.76667,-11
38.77500,-11
38.78333,-11
38.79167,-12
38.80000,-11
38.80833,-11
38.81667,-11
38.82500,-11
38.83333,-11
38.84167,-12
38.85000,-12
38.85833,-12
38.86667,-12
38.87500,-11
38.88333,-11
38.89167,-11
38.90000,-11
38.90833,-11
38.91667,-11
38.92500,-11
38.93333,-11
38.94167,-11
38.95000,-11
38.95833,-11
38.96667,-12
38.97500,-12
38.98333,-13
38.99167,-13
39.00000,-13
39.00833,-13
39.01667,-13
39.02500,-12
39.03333,-12
39.04167,-12
39.05000,-12
39.05833,-12
39.06667,-12
39.07500,-12
39.08333,-12
39.09167,-12
39.10000,-12
39.10833,-12
39.11667,-12
39.12500,-12
39.13333,-12
39.14167,-12
39.15000,-12
39.15833,-12
39.16667,-12
39.17500,-12
39.18333,-12
39.19167,-13
39.20000,-13
39.20833,-13
39.21667,-12
39.22500,-12
39.23333,-12
39.24167,-12
39.25000,-12
39.25833,-12
39.26667,-12
39.27500,-12
39.28333,-12
39.29167,-12
39.30000,-12
39.30833,-12
39.31667,-12
39.32500,-12
39.33333,-12
39.34167,-13
39.35000,-13
39.35833,-13
39.36667,-12
39.37500,-12
39.38333,-12
39.39167,-12
39.40000,-12
39.40833,-11
39.41667,-11
39.42500,-11
39.43333,-11
39.44167,-12
39.45000,-12
39.45833,-11
39.46667,-12
39.47500,-11
39.48333,-11
39.49167,-12
39.50000,-11
39.50833,-11
39.51667,-11
39.52500,-10
39.53333,-11
39.54167,-11
39.55000,-11
39.55833,-11
39.56667,-11
39.57500,-11
39.58333,-10
39.59167,-10
39.60000,-10
39.60833,-10
39.61667,-10
39.62500,-10
39.63333,-10
39.64167,-10
39.65000,-10
39.65833,-10
39.66667,-10
39.67500,-10
39.68333,-10
39.69167,-10
39.70000,-10
39.70833,-11
39.71667,-11
39.72500,-11
39.73333,-11
39.74167,-11
39.75000,-10
39.75833,-10
39.76667,-10
39.77500,-10
39.78333,-10
39.79167,-10
39.80000,-10
39.80833,-10
39.81667,-10
39.82500,-10
39.83333,-11
39.84167,-11
39.85000,-11
39.85833,-12
39.86667,-12
39.87500,-12
39.88333,-12
39.89167,-11
39.90000,-11
39.90833,-10
39.91667,-10
39.92500,-10
39.93333,-11
39.94167,-11
39.95000,-11
39.95833,-11
39.96667,-11
39.97500,-11
39.98333,-11
39.99167,-11
40.00000,-11
40.00833,-10
40.01667,-10
40.02500,-11
40.03333,-11
40.04167,-11
40.05000,-11
40.05833,-11
40.06667,-11
40.07500,-11
40.08333,-11
40.09167,-12
40.10000,-12
40.10833,-12
40.11667,-12
40.12500,-12
40.13333,-12
40.14167,-11
40.15000,-11
40.15833,-11
40.16667,-11
40.17500,-11
40.18333,-11
40.19167,-11
40.20000,-11
40.20833,-12
40.21667,-12
40.22500,-12
40.23333,-12
40.24167,-11
40.25000,-11
40.25833,-12
40.26667,-12
40.27500,-12
40.28333,-12
40.29167,-11
40.30000,-11
40.30833,-11
40.31667,-11
40.32500,-12
40.33333,-12
40.34167,-12
40.35000,-12
40.35833,-12
40.36667,-12
40.37500,-12
40.38333,-12
40.39167,-12
40.40000,-12
40.40833,-13
40.41667,-13
40.42500,-13
40.43333,-13
40.44167,-13
40.45000,-13
40.45833,-13
40.46667,-12
40.47500,-12
40.48333,-12
40.49167,-13
40.50000,-13
40.50833,-12
40.51667,-12
40.52500,-13
40.53333,-13
40.54167,-13
40.55000,-13
40.55833,-14
40.56667,-14
40.57500,-14
40.58333,-14
40.59167,-14
40.60000,-14
40.60833,-14
40.61667,-14
40.62500,-14
40.63333,-13
40.64167,-13
40.65000,-13
40.65833,-13
40.66667,-14
40.67500,-14
40.68333,-13
40.69167,-13
40.70000,-13
40.70833,-13
40.71667,-13
40.72500,-13
40.73333,-14
40.74167,-14
40.75000,-14
40.75833,-14
40.76667,-14
40.77500,-14
40.78333,-14
40.79167,-14
40.80000,-14
40.80833,-14
40.81667,-14
40.82500,-14
40.83333,-14
40.84167,-14
40.85000,-14
40.85833,-14
40.86667,-15
40.87500,-15
40.88333,-15
40.89167,-15
40.90000,-15
40.90833,-15
40.91667,-15
40.92500,-15
40.93333,-15
40.94167,-15
40.95000,-15
40.95833,-15
40.96667,-15
40.97500,-16
40.98333,-15
40.99167,-15
41.00000,-15
41.00833,-15
41.01667,-15
41.02500,-14
41.03333,-14
41.04167,-14
41.05000,-14
41.05833,-14
41.06667,-15
41.07500,-15
41.08333,-15
41.09167,-15
41.10000,-15
41.10833,-14
41.11667,-14
41.12500,-14
41.13333,-14
41.14167,-14
41.15000,-14
41.15833,-15
41.16667,-15
41.17500,-15
41.18333,-15
41.19167,-15
41.20000,-15
41.20833,-15
41.21667,-15
41.22500,-15
41.23333,-15
41.24167,-15
41.25000,-15
41.25833,-15
41.26667,-16
41.27500,-15
41.28333,-15
41.29167,-15
41.30000,-15
41.30833,-15
41.31667,-15
41.32500,-15
41.33333,-15
41.34167,-15
41.35000,-15
41.35833,-15
41.36667,-15
41.37500,-15
41.38333,-15
41.39167,-14
41.40000,-14
41.40833,-14
41.41667,-14
41.42500,-14
41.43333,-14
41.44167,-14
41.45000,-14
41.45833,-13
41.46667,-13
41.47500,-12
41.48333,-13
41.49167,-13
41.50000,-14
41.50833,-14
41.51667,-14
41.52500,-14
41.53333,-14
41.54167,-15
41.55000,-14
41.55833,-14
41.56667,-14
41.57500,-14
41.58333,-14
41.59167,-14
41.60000,-14
41.60833,-14
41.61667,-14
41.62500,-15
41.63333,-15
41.64167,-15
41.65000,-14
41.65833,-14
41.66667,-14
41.67500,-14
41.68333,-14
41.69167,-14
41.70000,-14
41.70833,-14
41.71667,-14
41.72500,-14
41.73333,-14
41.74167,-14
41.75000,-15
41.75833,-15
41.76667,-15
41.77500,-14
41.78333,-14
41.79167,-14
41.80000,-14
41.80833,-14
41.81667,-14
41.82500,-14
41.83333,-14
41.84167,-14
41.85000,-14
41.85833,-14
41.86667,-14
41.87500,-14
41.88333,-14
41.89167,-14
41.90000,-14
41.90833,-14
41.91667,-14
41.92500,-14
41.93333,-14
41.94167,-14
41.95000,-14
41.95833,-15
41.96667,-15
41.97500,-15
41.98333,-15
41.99167,-15
42.00000,-15
42.00833,-15
42.01667,-15
42.02500,-15
42.03333,-15
42.04167,-15
42.05000,-15
42.05833,-15
42.06667,-15
42.07500,-14
42.08333,-15
42.09167,-14
42.10000,-14
42.10833,-14
42.11667,-14
42.12500,-14
42.13333,-14
42.14167,-14
42.15000,-14
42.15833,-14
42.16667,-14
42.17500,-15
42.18333,-15
42.19167,-15
42.20000,-15
42.20833,-15
42.21667,-15
42.22500,-15
42.23333,-14
42.24167,-14
42.25000,-14
42.25833,-14
42.26667,-14
42.27500,-14
42.28333,-14
42.29167,-13
42.30000,-13
42.30833,-13
42.31667,-13
42.32500,-13
42.33333,-13
42.34167,-13
42.35000,-13
42.35833,-13
42.36667,-13
42.37500,-13
42.38333,-13
42.39167,-13
42.40000,-13
42.40833,-13
42.41667,-13
42.42500,-13
42.43333,-13
42.44167,-13
42.45000,-13
42.45833,-13
42.46667,-14
42.47500,-13
42.48333,-13
42.49167,-13
42.50000,-13
42.50833,-13
42.51667,-13
42.52500,-13
42.53333,-13
42.54167,-13
42.55000,-13
42.55833,-13
42.56667,-13
42.57500,-13
42.58333,-13
42.59167,-13
42.60000,-13
42.60833,-13
42.61667,-13
42.62500,-13
42.63333,-14
42.64167,-14
42.65000,-14
42.65833,-14
42.66667,-14
42.67500,-14
42.68333,-13
42.69167,-13
42.70000,-13
42.70833,-13
42.71667,-13
42.72500,-13
42.73333,-13
42.74167,-13
42.75000,-13
42.75833,-14
42.76667,-14
42.77500,-14
42.78333,-14
42.79167,-14
42.80000,-14
42.80833,-14
42.81667,-14
42.82500,-14
42.83333,-13
42.84167,-13
42.85000,-14
42.85833,-14
42.86667,-14
42.87500,-14
42.88333,-14
42.89167,-14
42.90000,-13
42.90833,-14
42.91667,-14
42.92500,-13
42.93333,-14
42.94167,-14
42.95000,-14
42.95833,-14
42.96667,-15
42.97500,-14
42.98333,-14
42.99167,-14
43.00000,-14
43.00833,-14
43.01667,-14
43.02500,-14
43.03333,-14
43.04167,-14
43.05000,-14
43.05833,-14
43.06667,-14
43.07500,-14
43.08333,-14
43.09167,-14
43.10000,-14
43.10833,-14
43.11667,-14
43.12500,-14
43.13333,-14
43.14167,-14
43.15000,-14
43.15833,-13
43.16667,-13
43.17500,-13
43.18333,-13
43.19167,-14
43.20000,-14
43.20833,-15
43.21667,-15
43.22500,-14
43.23333,-14
43.24167,-14
43.25000,-14
43.25833,-14
43.26667,-14
43.27500,-14
43.28333,-14
43.29167,-14
43.30000,-14
43.30833,-14
43.31667,-14
43.32500,-14
43.33333,-15
43.34167,-15
43.35000,-15
43.35833,-14
43.36667,-14
43.37500,-13
43.38333,-13
43.39167,-13
43.40000,-13
43.40833,-13
43.41667,-13
43.42500,-13
43.43333,-13
43.44167,-13
43.45000,-13
43.45833,-13
43.46667,-13
43.47500,-12
43.48333,-12
43.49167,-13
43.50000,-13
43.50833,-12
43.51667,-12
43.52500,-13
43.53333,-13
43.54167,-13
43.55000,-13
43.55833,-13
43.56667,-13
43.57500,-13
43.58333,-13
43.59167,-12
43.60000,-12
43.60833,-12
43.61667,-12
43.62500,-12
43.63333,-12
43.64167,-12
43.65000,-12
43.65833,-12
43.66667,-12
43.67500,-13
43.68333,-13
43.69167,-13
43.70000,-13
43.70833,-13
43.71667,-13
43.72500,-13
43.73333,-13
43.74167,-13
43.75000,-13
43.75833,-13
43.76667,-13
43.77500,-12
43.78333,-12
43.79167,-12
43.80000,-12
43.80833,-12
43.81667,-12
43.82500,-13
43.83333,-13
43.84167,-13
43.85000,-13
43.85833,-13
43.86667,-12
43.87500,-12
43.88333,-13
43.89167,-13
43.90000,-13
43.90833,-13
43.91667,-13
43.92500,-12
43.93333,-12
43.94167,-12
43.95000,-12
43.95833,-12
43.96667,-12
43.97500,-13
43.98333,-13
43.99167,-13
44.00000,-13
44.00833,-13
44.01667,-13
44.02500,-14
44.03333,-14
44.04167,-13
44.05000,-13
44.05833,-13
44.06667,-12
44.07500,-12
44.08333,-12
44.09167,-12
44.10000,-12
44.10833,-13
44.11667,-13
44.12500,-13
44.13333,-12
44.14167,-12
44.15000,-12
44.15833,-12
44.16667,-12
44.17500,-12
44.18333,-12
44.19167,-12
44.20000,-12
44.20833,-12
44.21667,-12
44.22500,-13
44.23333,-14
44.24167,-14
44.25000,-13
44.25833,-13
44.26667,-13
44.27500,-14
44.28333,-14
44.29167,-14
44.30000,-14
44.30833,-14
44.31667,-14
44.32500,-13
44.33333,-13
44.34167,-13
44.35000,-13
44.35833,-13
44.36667,-13
44.37500,-13
44.38333,-13
44.39167,-13
44.40000,-14
44.40833,-14
44.41667,-14
44.42500,-14
44.43333,-14
44.44167,-14
44.45000,-14
44.45833,-14
44.46667,-14
44.47500,-14
44.48333,-14
44.49167,-14
44.50000,-14
44.50833,-14
44.51667,-14
44.52500,-14
44.53333,-14
44.54167,-14
44.55000,-14
44.55833,-14
44.56667,-14
44.57500,-14
44.58333,-14
44.59167,-14
44.60000,-14
44.60833,-14
44.61667,-14
44.62500,-14
44.63333,-14
44.64167,-14
44.65000,-15
44.65833,-15
44.66667,-15
44.67500,-15
44.68333,-15
44.69167,-15
44.70000,-15
44.70833,-14
44.71667,-14
44.72500,-14
44.73333,-15
44.74167,-15
44.75000,-15
44.75833,-15
44.76667,-15
44.77500,-14
44.78333,-14
44.79167,-14
44.80000,-14
44.80833,-14
44.81667,-14
44.82500,-14
44.83333,-14
44.84167,-14
44.85000,-15
44.85833,-15
44.86667,-15
44.87500,-15
44.88333,-15
44.89167,-15
44.90000,-15
44.90833,-15
44.91667,-15
44.92500,-15
44.93333,-15
44.94167,-15
44.95000,-15
44.95833,-15
44.96667,-15
44.97500,-15
44.98333,-15
44.99167,-15
45.00000,-16
45.00833,-16
45.01667,-16
45.02500,-15
45.03333,-15
45.04167,-15
45.05000,-15
45.05833,-15
45.06667,-15
45.07500,-15
45.08333,-15
45.09167,-14
45.10000,-14
45.10833,-14
45.11667,-14
45.12500,-14
45.13333,-14
45.14167,-14
45.15000,-14
45.15833,-14
45.16667,-15
45.17500,-15
45.18333,-14
45.19167,-14
45.20000,-14
45.20833,-14
45.21667,-15
45.22500,-15
45.23333,-15
45.24167,-15
45.25000,-15
45.25833,-15
45.26667,-15
45.27500,-15
45.28333,-15
45.29167,-15
45.30000,-15
45.30833,-15
45.31667,-15
45.32500,-16
45.33333,-16
45.34167,-16
45.35000,-16
45.35833,-16
45.36667,-17
45.37500,-16
45.38333,-16
45.39167,-15
45.40000,-15
45.40833,-16
45.41667,-16
45.42500,-16
45.43333,-16
45.44167,-16
45.45000,-16
45.45833,-16
45.46667,-17
45.47500,-17
45.48333,-16
45.49167,-16
45.50000,-16
45.50833,-16
45.51667,-15
45.52500,-15
45.53333,-16
45.54167,-16
45.55000,-16
45.55833,-16
45.56667,-16
45.57500,-15
45.58333,-15
45.59167,-15
45.60000,-15
45.60833,-15
45.61667,-15
45.62500,-15
45.63333,-16
45.64167,-16
45.65000,-16
45.65833,-15
45.66667,-15
45.67500,-15
45.68333,-16
45.69167,-16
45.70000,-16
45.70833,-16
45.71667,-16
45.72500,-17
45.73333,-17
45.74167,-16
45.75000,-17
45.75833,-16
45.76667,-16
45.77500,-15
45.78333,-15
45.79167,-15
45.80000,-15
45.80833,-15
45.81667,-15
45.82500,-15
45.83333,-15
45.84167,-15
45.85000,-15
45.85833,-15
45.86667,-15
45.87500,-15
45.88333,-15
45.89167,-15
45.90000,-15
45.90833,-16
45.91667,-16
45.92500,-16
45.93333,-16
45.94167,-16
45.95000,-16
45.95833,-16
45.96667,-16
45.97500,-16
45.98333,-16
45.99167,-16
46.00000,-16
46.00833,-16
46.01667,-16
46.02500,-16
46.03333,-16
46.04167,-16
46.05000,-15
46.05833,-15
46.06667,-15
46.07500,-14
46.08333,-14
46.09167,-15
46.10000,-15
46.10833,-15
46.11667,-15
46.12500,-15
46.13333,-15
46.14167,-15
46.15000,-15
46.15833,-15
46.16667,-15
46.17500,-15
46.18333,-15
46.19167,-16
46.20000,-16
46.20833,-16
46.21667,-16
46.22500,-16
46.23333,-16
46.24167,-16
46.25000,-17
46.25833,-16
46.26667,-17
46.27500,-17
46.28333,-17
46.29167,-16
46.30000,-16
46.30833,-16
46.31667,-16
46.32500,-16
46.33333,-16
46.34167,-16
46.35000,-16
46.35833,-16
46.36667,-16
46.37500,-16
46.38333,-17
46.39167,-17
46.40000,-17
46.40833,-17
46.41667,-16
46.42500,-16
46.43333,-16
46.44167,-15
46.45000,-15
46.45833,-15
46.46667,-15
46.47500,-16
46.48333,-15
46.49167,-15
46.50000,-15
46.50833,-15
46.51667,-16
46.52500,-16
46.53333,-15
46.54167,-15
46.55000,-15
46.55833,-15
46.56667,-15
46.57500,-15
46.58333,-16
46.59167,-16
46.60000,-16
46.60833,-16
46.61667,-16
46.62500,-16
46.63333,-16
46.64167,-16
46.65000,-16
46.65833,-16
46.66667,-15
46.67500,-15
46.68333,-15
46.69167,-15
46.70000,-15
46.70833,-15
46.71667,-15
46.72500,-15
46.73333,-14
46.74167,-14
46.75000,-14
46.75833,-14
46.76667,-15
46.77500,-15
46.78333,-15
46.79167,-15
46.80000,-16
46.80833,-16
46.81667,-16
46.82500,-16
46.83333,-16
46.84167,-16
46.85000,-16
46.85833,-16
46.86667,-16
46.87500,-16
46.88333,-15
46.89167,-15
46.90000,-15
46.90833,-15
46.91667,-15
46.92500,-15
46.93333,-15
46.94167,-15
46.95000,-15
46.95833,-15
46.96667,-15
46.97500,-15
46.98333,-15
46.99167,-15
47.00000,-16
47.00833,-16
47.01667,-16
47.02500,-16
47.03333,-16
47.04167,-16
47.05000,-17
47.05833,-17
47.06667,-17
47.07500,-17
47.08333,-17
47.09167,-16
47.10000,-16
47.10833,-16
47.11667,-16
47.12500,-15
47.13333,-15
47.14167,-16
47.15000,-15
47.15833,-15
47.16667,-15
47.17500,-15
47.18333,-15
47.19167,-15
47.20000,-15
47.20833,-16
47.21667,-16
47.22500,-16
47.23333,-16
47.24167,-16
47.25000,-17
47.25833,-16
47.26667,-16
47.27500,-16
47.28333,-16
47.29167,-16
47.30000,-16
47.30833,-16
47.31667,-17
47.32500,-16
47.33333,-16
47.34167,-16
47.35000,-16
47.35833,-16
47.36667,-16
47.37500,-15
47.38333,-15
47.39167,-15
47.40000,-15
47.40833,-15
47.41667,-15
47.42500,-15
47.43333,-16
47.44167,-16
47.45000,-16
47.45833,-16
47.46667,-16
47.47500,-15
47.48333,-15
47.49167,-15
47.50000,-15
47.50833,-15
47.51667,-15
47.52500,-15
47.53333,-16
47.54167,-16
47.55000,-16
47.55833,-15
47.56667,-15
47.57500,-15
47.58333,-15
47.59167,-16
47.60000,-16
47.60833,-16
47.61667,-16
47.62500,-16
47.63333,-16
47.64167,-15
47.65000,-15
47.65833,-15
47.66667,-15
47.67500,-15
47.68333,-15
47.69167,-15
47.70000,-16
47.70833,-16
47.71667,-16
47.72500,-16
47.73333,-16
47.74167,-16
47.75000,-16
47.75833,-16
47.76667,-15
47.77500,-15
47.78333,-15
47.79167,-15
47.80000,-15
47.80833,-15
47.81667,-15
47.82500,-16
47.83333,-15
47.84167,-15
47.85000,-15
47.85833,-15
47.86667,-15
47.87500,-15
47.88333,-15
47.89167,-16
47.90000,-16
47.90833,-16
47.91667,-15
47.92500,-15
47.93333,-16
47.94167,-16
47.95000,-15
47.95833,-15
47.96667,-14
47.97500,-14
47.98333,-14
47.99167,-14
48.00000,-14
48.00833,-14
48.01667,-14
48.02500,-14
48.03333,-14
48.04167,-14
48.05000,-14
48.05833,-14
48.06667,-14
48.07500,-15
48.08333,-15
48.09167,-15
48.10000,-15
48.10833,-15
48.11667,-15
48.12500,-15
48.13333,-15
48.14167,-15
48.15000,-15
48.15833,-15
48.16667,-14
48.17500,-14
48.18333,-14
48.19167,-14
48.20000,-14
48.20833,-14
48.21667,-14
48.22500,-14
48.23333,-14
48.24167,-14
48.25000,-15
48.25833,-15
48.26667,-15
48.27500,-15
48.28333,-15
48.29167,-15
48.30000,-14
48.30833,-14
48.31667,-15
48.32500,-15
48.33333,-15
48.34167,-14
48.35000,-14
48.35833,-14
48.36667,-14
48.37500,-14
48.38333,-14
48.39167,-14
48.40000,-14
48.40833,-14
48.41667,-14
48.42500,-14
48.43333,-14
48.44167,-14
48.45000,-14
48.45833,-14
48.46667,-14
48.47500,-14
48.48333,-14
48.49167,-15
48.50000,-15
48.50833,-15
48.51667,-15
48.52500,-15
48.53333,-14
48.54167,-14
48.55000,-14
48.55833,-14
48.56667,-14
48.57500,-14
48.58333,-15
48.59167,-15
48.60000,-15
48.60833,-15
48.61667,-15
48.62500,-15
48.63333,-15
48.64167,-15
48.65000,-15
48.65833,-15
48.66667,-15
48.67500,-15
48.68333,-15
48.69167,-15
48.70000,-15
48.70833,-15
48.71667,-15
48.72500,-15
48.73333,-15
48.74167,-15
48.75000,-15
48.75833,-15
48.76667,-15
48.77500,-14
48.78333,-15
48.79167,-15
48.80000,-15
48.80833,-15
48.81667,-15
48.82500,-15
48.83333,-15
48.84167,-15
48.85000,-15
48.85833,-15
48.86667,-15
48.87500,-15
48.88333,-15
48.89167,-15
48.90000,-15
48.90833,-15
48.91667,-15
48.92500,-14
48.93333,-14
48.94167,-14
48.95000,-14
48.95833,-15
48.96667,-15
48.97500,-15
48.98333,-15
48.99167,-15
49.00000,-15
49.00833,-15
49.01667,-15
49.02500,-15
49.03333,-15
49.04167,-15
49.05000,-15
49.05833,-15
49.06667,-15
49.07500,-15
49.08333,-15
49.09167,-15
49.10000,-15
49.10833,-15
49.11667,-15
49.12500,-15
49.13333,-15
49.14167,-14
49.15000,-14
49.15833,-13
49.16667,-13
49.17500,-13
49.18333,-13
49.19167,-13
49.20000,-13
49.20833,-14
49.21667,-14
49.22500,-14
49.23333,-14
49.24167,-14
49.25000,-14
49.25833,-14
49.26667,-14
49.27500,-14
49.28333,-14
49.29167,-13
49.30000,-12
49.30833,-12
49.31667,-12
49.32500,-12
49.33333,-13
49.34167,-13
49.35000,-13
49.35833,-12
49.36667,-12
49.37500,-12
49.38333,-13
49.39167,-13
49.40000,-13
49.40833,-13
49.41667,-13
49.42500,-13
49.43333,-13
49.44167,-13
49.45000,-13
49.45833,-13
49.46667,-13
49.47500,-13
49.48333,-13
49.49167,-13
49.50000,-12
49.50833,-12
49.51667,-12
49.52500,-12
49.53333,-13
49.54167,-13
49.55000,-13
49.55833,-13
49.56667,-13
49.57500,-13
49.58333,-13
49.59167,-13
49.60000,-13
49.60833,-13
49.61667,-13
49.62500,-13
49.63333,-12
49.64167,-12
49.65000,-12
49.65833,-12
49.66667,-12
49.67500,-11
49.68333,-11
49.69167,-10
49.70000,-10
49.70833,-10
49.71667,-10
49.72500,-10
49.73333,-10
49.74167,-10
49.75000,-10
49.75833,-10
49.76667,-11
49.77500,-11
49.78333,-10
49.79167,-10
49.80000,-10
49.80833,-10
49.81667,-10
49.82500,-10
49.83333,-10
49.84167,-10
49.85000,-10
49.85833,-11
49.86667,-10
49.87500,-10
49.88333,-10
49.89167,-10
49.90000,-10
49.90833,-10
49.91667,-10
49.92500,-10
49.93333,-9
49.94167,-9
49.95000,-10
49.95833,-10
49.96667,-10
49.97500,-10
49.98333,-9
49.99167,-9
50.00000,-9

