[Header]
Application Name,LabSolutions
Version,5.97 SP1
Data File Name,C:\Users\cremerlab\Desktop\Richa\Oct_18th_2022_yield_expt\Oct 18th 2022 yield expt_10182022_001_015.lcd
Output Date,10/19/2022
Output Time,5:26:04 AM

[File Information]
Type,Data File
Generated,10/19/2022 4:35:45 AM
Generated by,System Administrator
Modified,10/19/2022 5:26:04 AM
Modified by,System Administrator

[Sample Information]
Operator Name,System Administrator
Acquired,10/19/2022 4:36:03 AM
Sample Type,0:Unknown
Level,0
Sample Name,101822_BT_2
Sample ID,001
ISTD Amount1,1
ISTD Amount2,1
ISTD Amount3,1
ISTD Amount4,1
ISTD Amount5,1
ISTD Amount6,1
ISTD Amount7,1
ISTD Amount8,1
ISTD Amount9,1
ISTD Amount10,1
ISTD Amount11,1
ISTD Amount12,1
ISTD Amount13,1
ISTD Amount14,1
ISTD Amount15,1
ISTD Amount16,1
ISTD Amount17,1
ISTD Amount18,1
ISTD Amount19,1
ISTD Amount20,1
ISTD Amount21,1
ISTD Amount22,1
ISTD Amount23,1
ISTD Amount24,1
ISTD Amount25,1
ISTD Amount26,1
ISTD Amount27,1
ISTD Amount28,1
ISTD Amount29,1
ISTD Amount30,1
ISTD Amount31,1
ISTD Amount32,1
Sample Amount,1
Dilution Factor,1
Vial#,14
Injection Volume,20

[Original Files]
Data File,C:\Users\cremerlab\Desktop\Richa\Oct_18th_2022_yield_expt\Oct 18th 2022 yield expt_10182022_001_015.lcd
Method File,C:\Users\cremerlab\Desktop\Richa\acetate_excretion.lcm
Batch File,C:\Users\cremerlab\Desktop\Richa\Oct_18th_2022_yield_expt\Oct 18th 2022 yield expt.lcb
Report Format File,c:\LabSolutions\System\DEFAULT.lsr

[File Description]


[Configuration]
Instrument Name,HPLC-PC-Instrument1
Instrument #,1
Line #,1
# of Detectors,2
Detector ID,Detector A,Detector B
Detector Name,Detector A,Detector B
# of Channels,1,1

[Peak Table(Detector A)]
# of Peaks,0

[Peak Table(Detector B)]
# of Peaks,8
Peak#,R.Time,I.Time,F.Time,Area,Height,A/H,Conc.,Mark,ID#,Name,k',Plate #,Plate Ht.,Tailing,Resolution,Sep.Factor,Area Ratio,Height Ratio,Conc. %,Norm Conc.
1,11.029,10.558,12.617,2207464,114168,19.335,0.000,   ,,,0.000,7744,19.369,0.922,0.000,0.000,0,0,0.000,0.000
2,14.351,12.617,15.192,3704328,77883,47.563,0.000, V ,,,0.301,2443,61.405,0.653,3.996,0.000,0,0,0.000,0.000
3,15.773,15.192,18.208,1572371,52522,29.937,0.000, V ,,,0.430,6750,22.221,1.146,1.474,1.428,0,0,0.000,0.000
4,20.993,20.467,21.317,7003,210,33.404,0.000,   ,,,0.903,5962,25.159,0.000,5.627,2.100,0,0,0.000,0.000
5,21.922,21.317,22.642,63433,1713,37.026,0.000, V ,,,0.988,8344,17.976,0.000,0.907,1.093,0,0,0.000,0.000
6,23.099,22.642,23.733,6097,162,37.574,0.000, V ,,,1.094,7643,19.625,0.000,1.167,1.108,0,0,0.000,0.000
7,25.085,24.292,26.125,144398,3615,39.941,0.000,   ,,,1.274,9137,16.417,1.048,1.886,1.165,0,0,0.000,0.000
8,32.361,30.733,33.350,35378,523,67.588,0.000,   ,,,1.934,6913,21.697,0.783,5.583,1.518,0,0,0.000,0.000

[LC Chromatogram(Detector B-Ch1)]
Interval(msec),500
# of Points,6001
Start Time(min),0.000
End Time(min),50.000
Intensity Units,mV
Intensity Multiplier,0.001
R.Time (min),Intensity
0.00000,1
0.00833,1
0.01667,0
0.02500,0
0.03333,0
0.04167,0
0.05000,0
0.05833,0
0.06667,0
0.07500,0
0.08333,-0
0.09167,-0
0.10000,-0
0.10833,-0
0.11667,-1
0.12500,-1
0.13333,-0
0.14167,0
0.15000,0
0.15833,0
0.16667,0
0.17500,1
0.18333,1
0.19167,0
0.20000,0
0.20833,1
0.21667,1
0.22500,0
0.23333,0
0.24167,-0
0.25000,0
0.25833,-0
0.26667,-0
0.27500,-0
0.28333,-0
0.29167,-0
0.30000,-0
0.30833,-0
0.31667,-0
0.32500,-1
0.33333,-1
0.34167,-0
0.35000,0
0.35833,0
0.36667,1
0.37500,1
0.38333,0
0.39167,0
0.40000,0
0.40833,0
0.41667,0
0.42500,-0
0.43333,0
0.44167,1
0.45000,1
0.45833,1
0.46667,1
0.47500,0
0.48333,-0
0.49167,-1
0.50000,-1
0.50833,-1
0.51667,-1
0.52500,-1
0.53333,-1
0.54167,-1
0.55000,-1
0.55833,-1
0.56667,-1
0.57500,-1
0.58333,-1
0.59167,-1
0.60000,-1
0.60833,-1
0.61667,-1
0.62500,-1
0.63333,-1
0.64167,-1
0.65000,-1
0.65833,-1
0.66667,-1
0.67500,-1
0.68333,-2
0.69167,-2
0.70000,-2
0.70833,-2
0.71667,-2
0.72500,-2
0.73333,-2
0.74167,-2
0.75000,-2
0.75833,-2
0.76667,-2
0.77500,-2
0.78333,-2
0.79167,-2
0.80000,-2
0.80833,-2
0.81667,-2
0.82500,-2
0.83333,-2
0.84167,-1
0.85000,-1
0.85833,-1
0.86667,-1
0.87500,-1
0.88333,-2
0.89167,-2
0.90000,-2
0.90833,-2
0.91667,-2
0.92500,-2
0.93333,-2
0.94167,-2
0.95000,-2
0.95833,-2
0.96667,-2
0.97500,-2
0.98333,-2
0.99167,-3
1.00000,-3
1.00833,-3
1.01667,-3
1.02500,-3
1.03333,-3
1.04167,-3
1.05000,-3
1.05833,-3
1.06667,-3
1.07500,-3
1.08333,-3
1.09167,-3
1.10000,-3
1.10833,-3
1.11667,-3
1.12500,-3
1.13333,-3
1.14167,-3
1.15000,-3
1.15833,-3
1.16667,-4
1.17500,-4
1.18333,-4
1.19167,-5
1.20000,-5
1.20833,-5
1.21667,-5
1.22500,-5
1.23333,-5
1.24167,-5
1.25000,-5
1.25833,-5
1.26667,-5
1.27500,-4
1.28333,-4
1.29167,-4
1.30000,-5
1.30833,-5
1.31667,-5
1.32500,-5
1.33333,-6
1.34167,-6
1.35000,-6
1.35833,-6
1.36667,-6
1.37500,-7
1.38333,-7
1.39167,-6
1.40000,-6
1.40833,-6
1.41667,-6
1.42500,-6
1.43333,-6
1.44167,-6
1.45000,-6
1.45833,-6
1.46667,-6
1.47500,-6
1.48333,-6
1.49167,-7
1.50000,-7
1.50833,-7
1.51667,-6
1.52500,-6
1.53333,-6
1.54167,-6
1.55000,-6
1.55833,-6
1.56667,-6
1.57500,-6
1.58333,-6
1.59167,-7
1.60000,-7
1.60833,-7
1.61667,-7
1.62500,-7
1.63333,-7
1.64167,-7
1.65000,-7
1.65833,-7
1.66667,-7
1.67500,-7
1.68333,-7
1.69167,-7
1.70000,-7
1.70833,-7
1.71667,-7
1.72500,-7
1.73333,-7
1.74167,-7
1.75000,-7
1.75833,-7
1.76667,-7
1.77500,-6
1.78333,-6
1.79167,-6
1.80000,-7
1.80833,-7
1.81667,-7
1.82500,-7
1.83333,-7
1.84167,-7
1.85000,-7
1.85833,-7
1.86667,-7
1.87500,-7
1.88333,-7
1.89167,-7
1.90000,-7
1.90833,-7
1.91667,-7
1.92500,-8
1.93333,-8
1.94167,-8
1.95000,-8
1.95833,-7
1.96667,-7
1.97500,-7
1.98333,-7
1.99167,-7
2.00000,-8
2.00833,-8
2.01667,-8
2.02500,-8
2.03333,-8
2.04167,-8
2.05000,-8
2.05833,-8
2.06667,-8
2.07500,-8
2.08333,-8
2.09167,-8
2.10000,-8
2.10833,-8
2.11667,-8
2.12500,-8
2.13333,-8
2.14167,-9
2.15000,-9
2.15833,-9
2.16667,-8
2.17500,-8
2.18333,-8
2.19167,-8
2.20000,-8
2.20833,-8
2.21667,-8
2.22500,-8
2.23333,-8
2.24167,-8
2.25000,-8
2.25833,-8
2.26667,-8
2.27500,-8
2.28333,-8
2.29167,-8
2.30000,-8
2.30833,-7
2.31667,-7
2.32500,-7
2.33333,-7
2.34167,-8
2.35000,-9
2.35833,-9
2.36667,-9
2.37500,-9
2.38333,-8
2.39167,-8
2.40000,-8
2.40833,-8
2.41667,-8
2.42500,-8
2.43333,-8
2.44167,-8
2.45000,-8
2.45833,-8
2.46667,-8
2.47500,-8
2.48333,-8
2.49167,-8
2.50000,-9
2.50833,-9
2.51667,-9
2.52500,-9
2.53333,-8
2.54167,-8
2.55000,-8
2.55833,-8
2.56667,-9
2.57500,-9
2.58333,-9
2.59167,-9
2.60000,-9
2.60833,-9
2.61667,-9
2.62500,-9
2.63333,-9
2.64167,-9
2.65000,-9
2.65833,-9
2.66667,-9
2.67500,-9
2.68333,-9
2.69167,-9
2.70000,-9
2.70833,-8
2.71667,-8
2.72500,-8
2.73333,-8
2.74167,-8
2.75000,-8
2.75833,-8
2.76667,-8
2.77500,-8
2.78333,-8
2.79167,-8
2.80000,-8
2.80833,-8
2.81667,-8
2.82500,-8
2.83333,-8
2.84167,-8
2.85000,-8
2.85833,-8
2.86667,-8
2.87500,-7
2.88333,-7
2.89167,-7
2.90000,-7
2.90833,-7
2.91667,-7
2.92500,-8
2.93333,-8
2.94167,-8
2.95000,-8
2.95833,-8
2.96667,-8
2.97500,-8
2.98333,-8
2.99167,-9
3.00000,-9
3.00833,-9
3.01667,-8
3.02500,-8
3.03333,-8
3.04167,-8
3.05000,-8
3.05833,-8
3.06667,-8
3.07500,-8
3.08333,-8
3.09167,-8
3.10000,-8
3.10833,-8
3.11667,-8
3.12500,-8
3.13333,-9
3.14167,-8
3.15000,-8
3.15833,-8
3.16667,-8
3.17500,-8
3.18333,-8
3.19167,-8
3.20000,-8
3.20833,-8
3.21667,-8
3.22500,-8
3.23333,-8
3.24167,-8
3.25000,-8
3.25833,-8
3.26667,-8
3.27500,-8
3.28333,-8
3.29167,-8
3.30000,-8
3.30833,-8
3.31667,-8
3.32500,-8
3.33333,-8
3.34167,-8
3.35000,-8
3.35833,-8
3.36667,-8
3.37500,-8
3.38333,-8
3.39167,-9
3.40000,-9
3.40833,-9
3.41667,-9
3.42500,-9
3.43333,-9
3.44167,-9
3.45000,-9
3.45833,-9
3.46667,-9
3.47500,-9
3.48333,-9
3.49167,-9
3.50000,-9
3.50833,-9
3.51667,-9
3.52500,-9
3.53333,-9
3.54167,-8
3.55000,-8
3.55833,-9
3.56667,-9
3.57500,-9
3.58333,-9
3.59167,-9
3.60000,-9
3.60833,-9
3.61667,-9
3.62500,-9
3.63333,-9
3.64167,-8
3.65000,-8
3.65833,-8
3.66667,-8
3.67500,-8
3.68333,-8
3.69167,-8
3.70000,-9
3.70833,-9
3.71667,-8
3.72500,-8
3.73333,-8
3.74167,-8
3.75000,-8
3.75833,-8
3.76667,-8
3.77500,-7
3.78333,-7
3.79167,-7
3.80000,-7
3.80833,-7
3.81667,-7
3.82500,-7
3.83333,-7
3.84167,-7
3.85000,-6
3.85833,-6
3.86667,-7
3.87500,-7
3.88333,-7
3.89167,-7
3.90000,-8
3.90833,-8
3.91667,-8
3.92500,-8
3.93333,-8
3.94167,-8
3.95000,-8
3.95833,-8
3.96667,-8
3.97500,-8
3.98333,-8
3.99167,-8
4.00000,-8
4.00833,-8
4.01667,-8
4.02500,-8
4.03333,-8
4.04167,-8
4.05000,-8
4.05833,-7
4.06667,-7
4.07500,-8
4.08333,-8
4.09167,-8
4.10000,-8
4.10833,-8
4.11667,-7
4.12500,-7
4.13333,-7
4.14167,-7
4.15000,-7
4.15833,-7
4.16667,-7
4.17500,-8
4.18333,-8
4.19167,-8
4.20000,-8
4.20833,-8
4.21667,-8
4.22500,-8
4.23333,-8
4.24167,-8
4.25000,-8
4.25833,-8
4.26667,-8
4.27500,-8
4.28333,-8
4.29167,-8
4.30000,-8
4.30833,-8
4.31667,-8
4.32500,-8
4.33333,-8
4.34167,-8
4.35000,-8
4.35833,-8
4.36667,-8
4.37500,-8
4.38333,-8
4.39167,-8
4.40000,-8
4.40833,-8
4.41667,-8
4.42500,-8
4.43333,-8
4.44167,-8
4.45000,-8
4.45833,-8
4.46667,-8
4.47500,-8
4.48333,-8
4.49167,-8
4.50000,-8
4.50833,-8
4.51667,-8
4.52500,-8
4.53333,-8
4.54167,-8
4.55000,-8
4.55833,-8
4.56667,-8
4.57500,-8
4.58333,-9
4.59167,-9
4.60000,-9
4.60833,-9
4.61667,-9
4.62500,-8
4.63333,-8
4.64167,-8
4.65000,-8
4.65833,-8
4.66667,-8
4.67500,-8
4.68333,-7
4.69167,-7
4.70000,-7
4.70833,-7
4.71667,-7
4.72500,-7
4.73333,-8
4.74167,-8
4.75000,-8
4.75833,-8
4.76667,-8
4.77500,-8
4.78333,-8
4.79167,-8
4.80000,-8
4.80833,-8
4.81667,-8
4.82500,-8
4.83333,-8
4.84167,-8
4.85000,-8
4.85833,-9
4.86667,-9
4.87500,-9
4.88333,-9
4.89167,-9
4.90000,-9
4.90833,-9
4.91667,-9
4.92500,-10
4.93333,-10
4.94167,-10
4.95000,-10
4.95833,-10
4.96667,-9
4.97500,-10
4.98333,-9
4.99167,-9
5.00000,-9
5.00833,-10
5.01667,-10
5.02500,-10
5.03333,-9
5.04167,-9
5.05000,-9
5.05833,-9
5.06667,-9
5.07500,-9
5.08333,-9
5.09167,-10
5.10000,-10
5.10833,-10
5.11667,-10
5.12500,-10
5.13333,-10
5.14167,-9
5.15000,-9
5.15833,-9
5.16667,-9
5.17500,-9
5.18333,-9
5.19167,-9
5.20000,-9
5.20833,-9
5.21667,-10
5.22500,-10
5.23333,-10
5.24167,-10
5.25000,-10
5.25833,-10
5.26667,-10
5.27500,-10
5.28333,-10
5.29167,-10
5.30000,-9
5.30833,-9
5.31667,-9
5.32500,-9
5.33333,-10
5.34167,-10
5.35000,-10
5.35833,-10
5.36667,-10
5.37500,-10
5.38333,-10
5.39167,-10
5.40000,-10
5.40833,-10
5.41667,-10
5.42500,-10
5.43333,-10
5.44167,-10
5.45000,-10
5.45833,-10
5.46667,-10
5.47500,-10
5.48333,-10
5.49167,-10
5.50000,-10
5.50833,-10
5.51667,-10
5.52500,-10
5.53333,-10
5.54167,-10
5.55000,-10
5.55833,-10
5.56667,-10
5.57500,-9
5.58333,-9
5.59167,-9
5.60000,-9
5.60833,-9
5.61667,-9
5.62500,-9
5.63333,-9
5.64167,-9
5.65000,-10
5.65833,-10
5.66667,-10
5.67500,-10
5.68333,-10
5.69167,-10
5.70000,-10
5.70833,-10
5.71667,-10
5.72500,-10
5.73333,-10
5.74167,-10
5.75000,-9
5.75833,-9
5.76667,-10
5.77500,-10
5.78333,-10
5.79167,-10
5.80000,-9
5.80833,-9
5.81667,-9
5.82500,-9
5.83333,-9
5.84167,-9
5.85000,-9
5.85833,-9
5.86667,-10
5.87500,-9
5.88333,-9
5.89167,-9
5.90000,-9
5.90833,-9
5.91667,-9
5.92500,-9
5.93333,-9
5.94167,-9
5.95000,-9
5.95833,-9
5.96667,-9
5.97500,-10
5.98333,-10
5.99167,-10
6.00000,-10
6.00833,-10
6.01667,-10
6.02500,-11
6.03333,-11
6.04167,-10
6.05000,-10
6.05833,-10
6.06667,-10
6.07500,-10
6.08333,-10
6.09167,-10
6.10000,-10
6.10833,-10
6.11667,-10
6.12500,-10
6.13333,-10
6.14167,-10
6.15000,-10
6.15833,-10
6.16667,-10
6.17500,-10
6.18333,-10
6.19167,-10
6.20000,-10
6.20833,-10
6.21667,-10
6.22500,-10
6.23333,-10
6.24167,-10
6.25000,-10
6.25833,-10
6.26667,-10
6.27500,-10
6.28333,-10
6.29167,-9
6.30000,-9
6.30833,-9
6.31667,-9
6.32500,-9
6.33333,-9
6.34167,-9
6.35000,-9
6.35833,-10
6.36667,-10
6.37500,-10
6.38333,-10
6.39167,-9
6.40000,-9
6.40833,-9
6.41667,-10
6.42500,-10
6.43333,-10
6.44167,-10
6.45000,-10
6.45833,-10
6.46667,-10
6.47500,-10
6.48333,-10
6.49167,-10
6.50000,-10
6.50833,-10
6.51667,-10
6.52500,-10
6.53333,-10
6.54167,-9
6.55000,-9
6.55833,-9
6.56667,-9
6.57500,-9
6.58333,-9
6.59167,-9
6.60000,-9
6.60833,-9
6.61667,-9
6.62500,-9
6.63333,-9
6.64167,-9
6.65000,-10
6.65833,-10
6.66667,-10
6.67500,-9
6.68333,-9
6.69167,-9
6.70000,-9
6.70833,-9
6.71667,-9
6.72500,-10
6.73333,-10
6.74167,-10
6.75000,-10
6.75833,-10
6.76667,-10
6.77500,-10
6.78333,-10
6.79167,-10
6.80000,-10
6.80833,-10
6.81667,-10
6.82500,-10
6.83333,-10
6.84167,-10
6.85000,-10
6.85833,-10
6.86667,-10
6.87500,-10
6.88333,-10
6.89167,-10
6.90000,-9
6.90833,-9
6.91667,-10
6.92500,-10
6.93333,-9
6.94167,-9
6.95000,-10
6.95833,-10
6.96667,-10
6.97500,-10
6.98333,-10
6.99167,-10
7.00000,-9
7.00833,-9
7.01667,-9
7.02500,-9
7.03333,-9
7.04167,-9
7.05000,-10
7.05833,-10
7.06667,-10
7.07500,-10
7.08333,-11
7.09167,-11
7.10000,-11
7.10833,-11
7.11667,-11
7.12500,-11
7.13333,-11
7.14167,-11
7.15000,-11
7.15833,-10
7.16667,-10
7.17500,-10
7.18333,-9
7.19167,-9
7.20000,-9
7.20833,-9
7.21667,-9
7.22500,-9
7.23333,-9
7.24167,-10
7.25000,-10
7.25833,-10
7.26667,-10
7.27500,-10
7.28333,-10
7.29167,-10
7.30000,-10
7.30833,-10
7.31667,-10
7.32500,-11
7.33333,-11
7.34167,-11
7.35000,-11
7.35833,-11
7.36667,-11
7.37500,-11
7.38333,-11
7.39167,-10
7.40000,-10
7.40833,-10
7.41667,-10
7.42500,-11
7.43333,-11
7.44167,-11
7.45000,-11
7.45833,-11
7.46667,-11
7.47500,-11
7.48333,-11
7.49167,-11
7.50000,-10
7.50833,-10
7.51667,-10
7.52500,-10
7.53333,-10
7.54167,-10
7.55000,-10
7.55833,-10
7.56667,-11
7.57500,-11
7.58333,-11
7.59167,-11
7.60000,-10
7.60833,-10
7.61667,-10
7.62500,-11
7.63333,-11
7.64167,-12
7.65000,-12
7.65833,-12
7.66667,-12
7.67500,-11
7.68333,-11
7.69167,-10
7.70000,-10
7.70833,-10
7.71667,-10
7.72500,-10
7.73333,-10
7.74167,-10
7.75000,-10
7.75833,-10
7.76667,-10
7.77500,-11
7.78333,-11
7.79167,-11
7.80000,-11
7.80833,-11
7.81667,-11
7.82500,-11
7.83333,-11
7.84167,-11
7.85000,-11
7.85833,-11
7.86667,-11
7.87500,-11
7.88333,-11
7.89167,-11
7.90000,-11
7.90833,-10
7.91667,-10
7.92500,-11
7.93333,-11
7.94167,-11
7.95000,-11
7.95833,-11
7.96667,-11
7.97500,-11
7.98333,-11
7.99167,-11
8.00000,-11
8.00833,-11
8.01667,-11
8.02500,-11
8.03333,-10
8.04167,-10
8.05000,-10
8.05833,-10
8.06667,-11
8.07500,-11
8.08333,-11
8.09167,-11
8.10000,-11
8.10833,-11
8.11667,-11
8.12500,-11
8.13333,-11
8.14167,-11
8.15000,-12
8.15833,-12
8.16667,-11
8.17500,-11
8.18333,-11
8.19167,-11
8.20000,-12
8.20833,-12
8.21667,-12
8.22500,-12
8.23333,-12
8.24167,-12
8.25000,-11
8.25833,-11
8.26667,-11
8.27500,-11
8.28333,-12
8.29167,-12
8.30000,-12
8.30833,-13
8.31667,-13
8.32500,-12
8.33333,-12
8.34167,-12
8.35000,-12
8.35833,-12
8.36667,-12
8.37500,-12
8.38333,-12
8.39167,-12
8.40000,-12
8.40833,-13
8.41667,-12
8.42500,-12
8.43333,-12
8.44167,-12
8.45000,-12
8.45833,-11
8.46667,-11
8.47500,-11
8.48333,-11
8.49167,-11
8.50000,-11
8.50833,-11
8.51667,-11
8.52500,-11
8.53333,-11
8.54167,-11
8.55000,-12
8.55833,-12
8.56667,-12
8.57500,-12
8.58333,-12
8.59167,-12
8.60000,-12
8.60833,-12
8.61667,-12
8.62500,-12
8.63333,-12
8.64167,-12
8.65000,-12
8.65833,-12
8.66667,-12
8.67500,-12
8.68333,-12
8.69167,-12
8.70000,-12
8.70833,-11
8.71667,-12
8.72500,-12
8.73333,-12
8.74167,-12
8.75000,-12
8.75833,-12
8.76667,-12
8.77500,-12
8.78333,-12
8.79167,-12
8.80000,-12
8.80833,-12
8.81667,-13
8.82500,-12
8.83333,-12
8.84167,-12
8.85000,-12
8.85833,-12
8.86667,-12
8.87500,-12
8.88333,-12
8.89167,-12
8.90000,-12
8.90833,-12
8.91667,-12
8.92500,-13
8.93333,-13
8.94167,-13
8.95000,-13
8.95833,-12
8.96667,-12
8.97500,-12
8.98333,-12
8.99167,-12
9.00000,-13
9.00833,-13
9.01667,-12
9.02500,-12
9.03333,-12
9.04167,-12
9.05000,-12
9.05833,-12
9.06667,-12
9.07500,-12
9.08333,-12
9.09167,-12
9.10000,-12
9.10833,-12
9.11667,-12
9.12500,-12
9.13333,-13
9.14167,-13
9.15000,-12
9.15833,-12
9.16667,-12
9.17500,-12
9.18333,-12
9.19167,-12
9.20000,-13
9.20833,-13
9.21667,-13
9.22500,-13
9.23333,-13
9.24167,-13
9.25000,-13
9.25833,-13
9.26667,-13
9.27500,-13
9.28333,-12
9.29167,-13
9.30000,-13
9.30833,-13
9.31667,-13
9.32500,-13
9.33333,-13
9.34167,-13
9.35000,-14
9.35833,-14
9.36667,-13
9.37500,-13
9.38333,-12
9.39167,-12
9.40000,-12
9.40833,-11
9.41667,-11
9.42500,-11
9.43333,-11
9.44167,-12
9.45000,-12
9.45833,-12
9.46667,-12
9.47500,-12
9.48333,-12
9.49167,-12
9.50000,-12
9.50833,-12
9.51667,-12
9.52500,-12
9.53333,-12
9.54167,-12
9.55000,-12
9.55833,-12
9.56667,-12
9.57500,-12
9.58333,-12
9.59167,-12
9.60000,-12
9.60833,-12
9.61667,-12
9.62500,-13
9.63333,-12
9.64167,-12
9.65000,-12
9.65833,-12
9.66667,-12
9.67500,-13
9.68333,-12
9.69167,-12
9.70000,-12
9.70833,-12
9.71667,-12
9.72500,-12
9.73333,-12
9.74167,-12
9.75000,-13
9.75833,-13
9.76667,-13
9.77500,-13
9.78333,-13
9.79167,-13
9.80000,-13
9.80833,-13
9.81667,-12
9.82500,-12
9.83333,-12
9.84167,-12
9.85000,-12
9.85833,-13
9.86667,-13
9.87500,-13
9.88333,-13
9.89167,-13
9.90000,-13
9.90833,-12
9.91667,-12
9.92500,-12
9.93333,-12
9.94167,-12
9.95000,-12
9.95833,-12
9.96667,-12
9.97500,-12
9.98333,-12
9.99167,-12
10.00000,-12
10.00833,-13
10.01667,-13
10.02500,-13
10.03333,-13
10.04167,-13
10.05000,-13
10.05833,-13
10.06667,-13
10.07500,-13
10.08333,-13
10.09167,-13
10.10000,-13
10.10833,-13
10.11667,-13
10.12500,-12
10.13333,-12
10.14167,-12
10.15000,-12
10.15833,-12
10.16667,-11
10.17500,-11
10.18333,-12
10.19167,-11
10.20000,-11
10.20833,-11
10.21667,-11
10.22500,-11
10.23333,-11
10.24167,-10
10.25000,-10
10.25833,-10
10.26667,-9
10.27500,-9
10.28333,-9
10.29167,-10
10.30000,-10
10.30833,-10
10.31667,-10
10.32500,-10
10.33333,-10
10.34167,-11
10.35000,-11
10.35833,-12
10.36667,-14
10.37500,-16
10.38333,-20
10.39167,-24
10.40000,-31
10.40833,-41
10.41667,-52
10.42500,-68
10.43333,-88
10.44167,-112
10.45000,-143
10.45833,-178
10.46667,-220
10.47500,-268
10.48333,-321
10.49167,-379
10.50000,-440
10.50833,-504
10.51667,-566
10.52500,-626
10.53333,-678
10.54167,-719
10.55000,-745
10.55833,-751
10.56667,-731
10.57500,-681
10.58333,-593
10.59167,-463
10.60000,-283
10.60833,-48
10.61667,247
10.62500,610
10.63333,1047
10.64167,1562
10.65000,2162
10.65833,2851
10.66667,3634
10.67500,4516
10.68333,5501
10.69167,6592
10.70000,7793
10.70833,9107
10.71667,10537
10.72500,12083
10.73333,13750
10.74167,15536
10.75000,17445
10.75833,19475
10.76667,21628
10.77500,23904
10.78333,26301
10.79167,28818
10.80000,31455
10.80833,34208
10.81667,37076
10.82500,40056
10.83333,43143
10.84167,46334
10.85000,49624
10.85833,53007
10.86667,56476
10.87500,60023
10.88333,63638
10.89167,67311
10.90000,71029
10.90833,74777
10.91667,78536
10.92500,82286
10.93333,86002
10.94167,89656
10.95000,93214
10.95833,96640
10.96667,99891
10.97500,102921
10.98333,105680
10.99167,108112
11.00000,110164
11.00833,111777
11.01667,112897
11.02500,113470
11.03333,113453
11.04167,112810
11.05000,111516
11.05833,109563
11.06667,106960
11.07500,103734
11.08333,99929
11.09167,95608
11.10000,90845
11.10833,85729
11.11667,80353
11.12500,74816
11.13333,69213
11.14167,63633
11.15000,58158
11.15833,52859
11.16667,47795
11.17500,43010
11.18333,38537
11.19167,34397
11.20000,30599
11.20833,27142
11.21667,24020
11.22500,21218
11.23333,18720
11.24167,16504
11.25000,14548
11.25833,12828
11.26667,11321
11.27500,10004
11.28333,8856
11.29167,7858
11.30000,6991
11.30833,6238
11.31667,5585
11.32500,5017
11.33333,4524
11.34167,4094
11.35000,3720
11.35833,3393
11.36667,3107
11.37500,2856
11.38333,2634
11.39167,2438
11.40000,2264
11.40833,2109
11.41667,1970
11.42500,1845
11.43333,1733
11.44167,1631
11.45000,1538
11.45833,1453
11.46667,1376
11.47500,1304
11.48333,1239
11.49167,1178
11.50000,1122
11.50833,1069
11.51667,1020
11.52500,974
11.53333,931
11.54167,890
11.55000,852
11.55833,816
11.56667,783
11.57500,751
11.58333,721
11.59167,693
11.60000,666
11.60833,640
11.61667,616
11.62500,592
11.63333,570
11.64167,549
11.65000,529
11.65833,511
11.66667,493
11.67500,476
11.68333,460
11.69167,445
11.70000,431
11.70833,417
11.71667,404
11.72500,392
11.73333,379
11.74167,368
11.75000,357
11.75833,347
11.76667,337
11.77500,328
11.78333,320
11.79167,312
11.80000,304
11.80833,296
11.81667,290
11.82500,283
11.83333,277
11.84167,271
11.85000,265
11.85833,260
11.86667,255
11.87500,251
11.88333,246
11.89167,242
11.90000,239
11.90833,235
11.91667,232
11.92500,229
11.93333,225
11.94167,222
11.95000,220
11.95833,218
11.96667,216
11.97500,214
11.98333,212
11.99167,209
12.00000,207
12.00833,206
12.01667,205
12.02500,203
12.03333,202
12.04167,200
12.05000,199
12.05833,197
12.06667,196
12.07500,195
12.08333,194
12.09167,193
12.10000,192
12.10833,191
12.11667,190
12.12500,189
12.13333,188
12.14167,187
12.15000,186
12.15833,185
12.16667,183
12.17500,182
12.18333,181
12.19167,180
12.20000,179
12.20833,178
12.21667,177
12.22500,176
12.23333,175
12.24167,173
12.25000,172
12.25833,171
12.26667,170
12.27500,169
12.28333,168
12.29167,167
12.30000,165
12.30833,164
12.31667,163
12.32500,162
12.33333,162
12.34167,161
12.35000,160
12.35833,158
12.36667,157
12.37500,156
12.38333,155
12.39167,154
12.40000,153
12.40833,152
12.41667,151
12.42500,150
12.43333,149
12.44167,148
12.45000,147
12.45833,146
12.46667,145
12.47500,144
12.48333,144
12.49167,143
12.50000,142
12.50833,141
12.51667,140
12.52500,139
12.53333,138
12.54167,137
12.55000,136
12.55833,135
12.56667,134
12.57500,133
12.58333,132
12.59167,131
12.60000,131
12.60833,131
12.61667,131
12.62500,130
12.63333,130
12.64167,130
12.65000,131
12.65833,132
12.66667,133
12.67500,135
12.68333,138
12.69167,142
12.70000,146
12.70833,152
12.71667,160
12.72500,169
12.73333,180
12.74167,193
12.75000,208
12.75833,226
12.76667,246
12.77500,269
12.78333,295
12.79167,324
12.80000,357
12.80833,394
12.81667,434
12.82500,479
12.83333,528
12.84167,581
12.85000,639
12.85833,701
12.86667,769
12.87500,841
12.88333,918
12.89167,1001
12.90000,1089
12.90833,1183
12.91667,1281
12.92500,1385
12.93333,1495
12.94167,1610
12.95000,1731
12.95833,1857
12.96667,1989
12.97500,2126
12.98333,2269
12.99167,2418
13.00000,2572
13.00833,2731
13.01667,2897
13.02500,3067
13.03333,3243
13.04167,3424
13.05000,3610
13.05833,3802
13.06667,3998
13.07500,4200
13.08333,4406
13.09167,4617
13.10000,4834
13.10833,5055
13.11667,5280
13.12500,5511
13.13333,5746
13.14167,5985
13.15000,6229
13.15833,6476
13.16667,6728
13.17500,6984
13.18333,7244
13.19167,7508
13.20000,7776
13.20833,8048
13.21667,8323
13.22500,8602
13.23333,8885
13.24167,9171
13.25000,9460
13.25833,9753
13.26667,10050
13.27500,10350
13.28333,10653
13.29167,10960
13.30000,11269
13.30833,11582
13.31667,11898
13.32500,12218
13.33333,12540
13.34167,12865
13.35000,13193
13.35833,13525
13.36667,13859
13.37500,14197
13.38333,14538
13.39167,14882
13.40000,15230
13.40833,15580
13.41667,15933
13.42500,16289
13.43333,16648
13.44167,17011
13.45000,17376
13.45833,17744
13.46667,18116
13.47500,18490
13.48333,18868
13.49167,19248
13.50000,19632
13.50833,20019
13.51667,20409
13.52500,20803
13.53333,21200
13.54167,21600
13.55000,22003
13.55833,22409
13.56667,22819
13.57500,23231
13.58333,23647
13.59167,24066
13.60000,24489
13.60833,24915
13.61667,25345
13.62500,25778
13.63333,26215
13.64167,26656
13.65000,27099
13.65833,27547
13.66667,27998
13.67500,28452
13.68333,28910
13.69167,29372
13.70000,29837
13.70833,30307
13.71667,30781
13.72500,31258
13.73333,31738
13.74167,32222
13.75000,32711
13.75833,33203
13.76667,33700
13.77500,34201
13.78333,34706
13.79167,35215
13.80000,35728
13.80833,36245
13.81667,36767
13.82500,37292
13.83333,37822
13.84167,38357
13.85000,38896
13.85833,39439
13.86667,39988
13.87500,40540
13.88333,41098
13.89167,41660
13.90000,42227
13.90833,42798
13.91667,43374
13.92500,43955
13.93333,44542
13.94167,45133
13.95000,45729
13.95833,46331
13.96667,46938
13.97500,47550
13.98333,48167
13.99167,48790
14.00000,49418
14.00833,50051
14.01667,50690
14.02500,51335
14.03333,51985
14.04167,52641
14.05000,53303
14.05833,53971
14.06667,54645
14.07500,55324
14.08333,56010
14.09167,56702
14.10000,57401
14.10833,58105
14.11667,58816
14.12500,59534
14.13333,60258
14.14167,60988
14.15000,61725
14.15833,62469
14.16667,63220
14.17500,63978
14.18333,64742
14.19167,65513
14.20000,66292
14.20833,67077
14.21667,67869
14.22500,68667
14.23333,69468
14.24167,70271
14.25000,71071
14.25833,71866
14.26667,72648
14.27500,73410
14.28333,74143
14.29167,74835
14.30000,75476
14.30833,76053
14.31667,76554
14.32500,76967
14.33333,77280
14.34167,77482
14.35000,77564
14.35833,77520
14.36667,77342
14.37500,77027
14.38333,76569
14.39167,75968
14.40000,75220
14.40833,74324
14.41667,73278
14.42500,72081
14.43333,70729
14.44167,69222
14.45000,67558
14.45833,65736
14.46667,63757
14.47500,61625
14.48333,59347
14.49167,56933
14.50000,54397
14.50833,51753
14.51667,49024
14.52500,46232
14.53333,43402
14.54167,40561
14.55000,37735
14.55833,34951
14.56667,32234
14.57500,29607
14.58333,27088
14.59167,24694
14.60000,22438
14.60833,20328
14.61667,18369
14.62500,16564
14.63333,14910
14.64167,13405
14.65000,12043
14.65833,10815
14.66667,9714
14.67500,8731
14.68333,7855
14.69167,7078
14.70000,6390
14.70833,5782
14.71667,5245
14.72500,4771
14.73333,4353
14.74167,3985
14.75000,3660
14.75833,3373
14.76667,3119
14.77500,2895
14.78333,2696
14.79167,2519
14.80000,2362
14.80833,2221
14.81667,2095
14.82500,1981
14.83333,1879
14.84167,1786
14.85000,1702
14.85833,1625
14.86667,1555
14.87500,1490
14.88333,1431
14.89167,1377
14.90000,1326
14.90833,1279
14.91667,1235
14.92500,1194
14.93333,1156
14.94167,1120
14.95000,1086
14.95833,1054
14.96667,1024
14.97500,996
14.98333,969
14.99167,943
15.00000,919
15.00833,896
15.01667,875
15.02500,855
15.03333,836
15.04167,817
15.05000,800
15.05833,784
15.06667,768
15.07500,754
15.08333,740
15.09167,727
15.10000,714
15.10833,703
15.11667,692
15.12500,682
15.13333,673
15.14167,664
15.15000,657
15.15833,651
15.16667,645
15.17500,641
15.18333,639
15.19167,639
15.20000,641
15.20833,646
15.21667,654
15.22500,667
15.23333,683
15.24167,706
15.25000,736
15.25833,773
15.26667,820
15.27500,879
15.28333,950
15.29167,1036
15.30000,1140
15.30833,1263
15.31667,1409
15.32500,1580
15.33333,1780
15.34167,2010
15.35000,2276
15.35833,2580
15.36667,2926
15.37500,3317
15.38333,3756
15.39167,4248
15.40000,4796
15.40833,5401
15.41667,6067
15.42500,6797
15.43333,7591
15.44167,8451
15.45000,9379
15.45833,10374
15.46667,11436
15.47500,12564
15.48333,13755
15.49167,15008
15.50000,16318
15.50833,17682
15.51667,19095
15.52500,20551
15.53333,22045
15.54167,23570
15.55000,25119
15.55833,26685
15.56667,28261
15.57500,29838
15.58333,31410
15.59167,32967
15.60000,34503
15.60833,36010
15.61667,37481
15.62500,38909
15.63333,40288
15.64167,41612
15.65000,42876
15.65833,44074
15.66667,45202
15.67500,46257
15.68333,47234
15.69167,48132
15.70000,48947
15.70833,49677
15.71667,50322
15.72500,50880
15.73333,51349
15.74167,51730
15.75000,52022
15.75833,52225
15.76667,52339
15.77500,52366
15.78333,52305
15.79167,52158
15.80000,51925
15.80833,51609
15.81667,51210
15.82500,50731
15.83333,50174
15.84167,49543
15.85000,48838
15.85833,48064
15.86667,47223
15.87500,46319
15.88333,45357
15.89167,44339
15.90000,43271
15.90833,42157
15.91667,41001
15.92500,39809
15.93333,38585
15.94167,37335
15.95000,36064
15.95833,34778
15.96667,33480
15.97500,32177
15.98333,30872
15.99167,29572
16.00000,28279
16.00833,27000
16.01667,25737
16.02500,24494
16.03333,23275
16.04167,22084
16.05000,20922
16.05833,19793
16.06667,18698
16.07500,17641
16.08333,16621
16.09167,15640
16.10000,14700
16.10833,13800
16.11667,12941
16.12500,12124
16.13333,11347
16.14167,10611
16.15000,9914
16.15833,9257
16.16667,8638
16.17500,8056
16.18333,7510
16.19167,6998
16.20000,6520
16.20833,6074
16.21667,5658
16.22500,5271
16.23333,4911
16.24167,4578
16.25000,4268
16.25833,3982
16.26667,3718
16.27500,3473
16.28333,3248
16.29167,3040
16.30000,2848
16.30833,2672
16.31667,2510
16.32500,2361
16.33333,2224
16.34167,2097
16.35000,1981
16.35833,1875
16.36667,1777
16.37500,1687
16.38333,1604
16.39167,1528
16.40000,1457
16.40833,1391
16.41667,1331
16.42500,1276
16.43333,1225
16.44167,1177
16.45000,1134
16.45833,1093
16.46667,1055
16.47500,1020
16.48333,987
16.49167,955
16.50000,926
16.50833,899
16.51667,873
16.52500,848
16.53333,825
16.54167,803
16.55000,782
16.55833,762
16.56667,743
16.57500,725
16.58333,708
16.59167,691
16.60000,675
16.60833,660
16.61667,645
16.62500,630
16.63333,616
16.64167,603
16.65000,590
16.65833,577
16.66667,565
16.67500,553
16.68333,542
16.69167,532
16.70000,521
16.70833,511
16.71667,501
16.72500,492
16.73333,483
16.74167,474
16.75000,466
16.75833,458
16.76667,449
16.77500,441
16.78333,434
16.79167,427
16.80000,420
16.80833,413
16.81667,407
16.82500,401
16.83333,395
16.84167,390
16.85000,384
16.85833,379
16.86667,374
16.87500,369
16.88333,365
16.89167,361
16.90000,357
16.90833,353
16.91667,350
16.92500,346
16.93333,343
16.94167,340
16.95000,336
16.95833,333
16.96667,330
16.97500,327
16.98333,324
16.99167,322
17.00000,319
17.00833,317
17.01667,314
17.02500,312
17.03333,310
17.04167,307
17.05000,305
17.05833,302
17.06667,300
17.07500,297
17.08333,295
17.09167,293
17.10000,291
17.10833,289
17.11667,287
17.12500,285
17.13333,283
17.14167,281
17.15000,279
17.15833,277
17.16667,275
17.17500,273
17.18333,271
17.19167,269
17.20000,268
17.20833,266
17.21667,264
17.22500,262
17.23333,260
17.24167,259
17.25000,257
17.25833,256
17.26667,254
17.27500,252
17.28333,250
17.29167,248
17.30000,246
17.30833,244
17.31667,243
17.32500,241
17.33333,239
17.34167,238
17.35000,236
17.35833,235
17.36667,233
17.37500,231
17.38333,230
17.39167,228
17.40000,227
17.40833,225
17.41667,223
17.42500,222
17.43333,220
17.44167,219
17.45000,217
17.45833,216
17.46667,214
17.47500,212
17.48333,210
17.49167,209
17.50000,207
17.50833,205
17.51667,204
17.52500,202
17.53333,200
17.54167,199
17.55000,197
17.55833,196
17.56667,195
17.57500,193
17.58333,192
17.59167,190
17.60000,189
17.60833,188
17.61667,186
17.62500,185
17.63333,183
17.64167,182
17.65000,181
17.65833,180
17.66667,179
17.67500,177
17.68333,176
17.69167,175
17.70000,173
17.70833,172
17.71667,171
17.72500,170
17.73333,169
17.74167,168
17.75000,167
17.75833,165
17.76667,164
17.77500,163
17.78333,162
17.79167,162
17.80000,161
17.80833,159
17.81667,158
17.82500,157
17.83333,156
17.84167,154
17.85000,153
17.85833,153
17.86667,152
17.87500,151
17.88333,150
17.89167,149
17.90000,149
17.90833,148
17.91667,147
17.92500,146
17.93333,145
17.94167,145
17.95000,144
17.95833,143
17.96667,142
17.97500,141
17.98333,140
17.99167,139
18.00000,138
18.00833,138
18.01667,137
18.02500,136
18.03333,135
18.04167,134
18.05000,133
18.05833,132
18.06667,132
18.07500,131
18.08333,130
18.09167,130
18.10000,129
18.10833,128
18.11667,127
18.12500,126
18.13333,126
18.14167,125
18.15000,125
18.15833,124
18.16667,123
18.17500,122
18.18333,122
18.19167,122
18.20000,121
18.20833,121
18.21667,121
18.22500,120
18.23333,119
18.24167,119
18.25000,118
18.25833,118
18.26667,117
18.27500,116
18.28333,115
18.29167,115
18.30000,114
18.30833,114
18.31667,113
18.32500,112
18.33333,112
18.34167,112
18.35000,111
18.35833,111
18.36667,110
18.37500,109
18.38333,109
18.39167,108
18.40000,108
18.40833,107
18.41667,107
18.42500,107
18.43333,106
18.44167,106
18.45000,105
18.45833,105
18.46667,105
18.47500,104
18.48333,103
18.49167,103
18.50000,102
18.50833,102
18.51667,101
18.52500,101
18.53333,101
18.54167,100
18.55000,99
18.55833,98
18.56667,98
18.57500,98
18.58333,97
18.59167,97
18.60000,96
18.60833,95
18.61667,95
18.62500,95
18.63333,94
18.64167,94
18.65000,94
18.65833,93
18.66667,92
18.67500,92
18.68333,91
18.69167,91
18.70000,91
18.70833,90
18.71667,90
18.72500,89
18.73333,88
18.74167,88
18.75000,88
18.75833,87
18.76667,87
18.77500,87
18.78333,86
18.79167,86
18.80000,85
18.80833,85
18.81667,84
18.82500,84
18.83333,84
18.84167,84
18.85000,83
18.85833,83
18.86667,83
18.87500,82
18.88333,82
18.89167,82
18.90000,81
18.90833,81
18.91667,81
18.92500,81
18.93333,81
18.94167,80
18.95000,80
18.95833,79
18.96667,79
18.97500,79
18.98333,79
18.99167,79
19.00000,78
19.00833,78
19.01667,78
19.02500,78
19.03333,78
19.04167,77
19.05000,77
19.05833,77
19.06667,77
19.07500,77
19.08333,77
19.09167,77
19.10000,76
19.10833,76
19.11667,75
19.12500,75
19.13333,75
19.14167,76
19.15000,76
19.15833,76
19.16667,75
19.17500,75
19.18333,75
19.19167,75
19.20000,74
19.20833,74
19.21667,74
19.22500,73
19.23333,73
19.24167,73
19.25000,73
19.25833,74
19.26667,74
19.27500,74
19.28333,73
19.29167,73
19.30000,73
19.30833,73
19.31667,72
19.32500,72
19.33333,72
19.34167,71
19.35000,71
19.35833,70
19.36667,69
19.37500,69
19.38333,69
19.39167,69
19.40000,68
19.40833,68
19.41667,67
19.42500,67
19.43333,67
19.44167,66
19.45000,66
19.45833,66
19.46667,65
19.47500,64
19.48333,64
19.49167,63
19.50000,62
19.50833,61
19.51667,60
19.52500,60
19.53333,59
19.54167,58
19.55000,58
19.55833,58
19.56667,58
19.57500,57
19.58333,56
19.59167,56
19.60000,55
19.60833,55
19.61667,54
19.62500,54
19.63333,53
19.64167,53
19.65000,53
19.65833,52
19.66667,51
19.67500,51
19.68333,51
19.69167,50
19.70000,49
19.70833,49
19.71667,49
19.72500,48
19.73333,48
19.74167,48
19.75000,47
19.75833,47
19.76667,47
19.77500,47
19.78333,46
19.79167,46
19.80000,46
19.80833,45
19.81667,45
19.82500,45
19.83333,45
19.84167,45
19.85000,44
19.85833,44
19.86667,44
19.87500,43
19.88333,43
19.89167,43
19.90000,42
19.90833,42
19.91667,41
19.92500,41
19.93333,41
19.94167,41
19.95000,41
19.95833,42
19.96667,42
19.97500,42
19.98333,41
19.99167,41
20.00000,40
20.00833,40
20.01667,40
20.02500,40
20.03333,40
20.04167,40
20.05000,39
20.05833,39
20.06667,40
20.07500,40
20.08333,40
20.09167,39
20.10000,39
20.10833,39
20.11667,39
20.12500,38
20.13333,38
20.14167,37
20.15000,37
20.15833,37
20.16667,36
20.17500,36
20.18333,36
20.19167,36
20.20000,36
20.20833,36
20.21667,36
20.22500,36
20.23333,35
20.24167,35
20.25000,35
20.25833,35
20.26667,34
20.27500,34
20.28333,34
20.29167,34
20.30000,34
20.30833,34
20.31667,34
20.32500,35
20.33333,35
20.34167,35
20.35000,35
20.35833,35
20.36667,35
20.37500,35
20.38333,35
20.39167,35
20.40000,36
20.40833,36
20.41667,37
20.42500,38
20.43333,38
20.44167,39
20.45000,40
20.45833,41
20.46667,42
20.47500,44
20.48333,45
20.49167,47
20.50000,48
20.50833,50
20.51667,52
20.52500,54
20.53333,56
20.54167,59
20.55000,62
20.55833,65
20.56667,69
20.57500,73
20.58333,76
20.59167,80
20.60000,84
20.60833,89
20.61667,93
20.62500,98
20.63333,103
20.64167,108
20.65000,113
20.65833,118
20.66667,123
20.67500,128
20.68333,133
20.69167,138
20.70000,144
20.70833,149
20.71667,154
20.72500,160
20.73333,165
20.74167,170
20.75000,175
20.75833,180
20.76667,184
20.77500,189
20.78333,194
20.79167,198
20.80000,202
20.80833,207
20.81667,211
20.82500,214
20.83333,218
20.84167,221
20.85000,224
20.85833,227
20.86667,230
20.87500,233
20.88333,236
20.89167,238
20.90000,240
20.90833,241
20.91667,243
20.92500,244
20.93333,245
20.94167,246
20.95000,247
20.95833,247
20.96667,248
20.97500,248
20.98333,248
20.99167,248
21.00000,248
21.00833,248
21.01667,247
21.02500,246
21.03333,244
21.04167,243
21.05000,241
21.05833,240
21.06667,238
21.07500,236
21.08333,234
21.09167,232
21.10000,230
21.10833,227
21.11667,225
21.12500,223
21.13333,220
21.14167,217
21.15000,214
21.15833,211
21.16667,208
21.17500,205
21.18333,202
21.19167,199
21.20000,195
21.20833,192
21.21667,189
21.22500,186
21.23333,183
21.24167,180
21.25000,178
21.25833,176
21.26667,174
21.27500,172
21.28333,170
21.29167,169
21.30000,168
21.30833,167
21.31667,167
21.32500,167
21.33333,168
21.34167,169
21.35000,171
21.35833,174
21.36667,177
21.37500,181
21.38333,186
21.39167,192
21.40000,199
21.40833,207
21.41667,216
21.42500,226
21.43333,237
21.44167,250
21.45000,264
21.45833,279
21.46667,296
21.47500,315
21.48333,335
21.49167,356
21.50000,380
21.50833,404
21.51667,430
21.52500,458
21.53333,487
21.54167,517
21.55000,549
21.55833,583
21.56667,617
21.57500,652
21.58333,689
21.59167,726
21.60000,764
21.60833,803
21.61667,842
21.62500,881
21.63333,921
21.64167,960
21.65000,1000
21.65833,1039
21.66667,1078
21.67500,1117
21.68333,1155
21.69167,1193
21.70000,1230
21.70833,1266
21.71667,1301
21.72500,1335
21.73333,1368
21.74167,1400
21.75000,1430
21.75833,1459
21.76667,1487
21.77500,1513
21.78333,1538
21.79167,1562
21.80000,1585
21.80833,1606
21.81667,1625
21.82500,1644
21.83333,1660
21.84167,1676
21.85000,1689
21.85833,1702
21.86667,1712
21.87500,1721
21.88333,1729
21.89167,1736
21.90000,1740
21.90833,1743
21.91667,1745
21.92500,1745
21.93333,1743
21.94167,1740
21.95000,1735
21.95833,1729
21.96667,1721
21.97500,1711
21.98333,1700
21.99167,1686
22.00000,1671
22.00833,1655
22.01667,1637
22.02500,1617
22.03333,1596
22.04167,1574
22.05000,1549
22.05833,1523
22.06667,1496
22.07500,1467
22.08333,1437
22.09167,1406
22.10000,1374
22.10833,1341
22.11667,1307
22.12500,1273
22.13333,1237
22.14167,1201
22.15000,1165
22.15833,1128
22.16667,1091
22.17500,1054
22.18333,1016
22.19167,979
22.20000,942
22.20833,906
22.21667,869
22.22500,833
22.23333,798
22.24167,763
22.25000,729
22.25833,695
22.26667,663
22.27500,631
22.28333,600
22.29167,570
22.30000,541
22.30833,513
22.31667,486
22.32500,460
22.33333,436
22.34167,412
22.35000,390
22.35833,368
22.36667,348
22.37500,328
22.38333,310
22.39167,293
22.40000,276
22.40833,261
22.41667,245
22.42500,231
22.43333,219
22.44167,207
22.45000,196
22.45833,186
22.46667,176
22.47500,168
22.48333,160
22.49167,152
22.50000,145
22.50833,139
22.51667,133
22.52500,128
22.53333,123
22.54167,118
22.55000,114
22.55833,110
22.56667,107
22.57500,104
22.58333,102
22.59167,99
22.60000,97
22.60833,95
22.61667,94
22.62500,93
22.63333,93
22.64167,92
22.65000,93
22.65833,93
22.66667,94
22.67500,94
22.68333,95
22.69167,96
22.70000,97
22.70833,98
22.71667,99
22.72500,101
22.73333,103
22.74167,105
22.75000,107
22.75833,109
22.76667,112
22.77500,114
22.78333,116
22.79167,118
22.80000,121
22.80833,123
22.81667,126
22.82500,129
22.83333,132
22.84167,135
22.85000,138
22.85833,141
22.86667,143
22.87500,146
22.88333,148
22.89167,151
22.90000,153
22.90833,155
22.91667,157
22.92500,160
22.93333,162
22.94167,164
22.95000,166
22.95833,168
22.96667,170
22.97500,172
22.98333,173
22.99167,175
23.00000,176
23.00833,177
23.01667,178
23.02500,179
23.03333,181
23.04167,182
23.05000,183
23.05833,184
23.06667,184
23.07500,185
23.08333,185
23.09167,186
23.10000,186
23.10833,185
23.11667,185
23.12500,185
23.13333,184
23.14167,183
23.15000,182
23.15833,181
23.16667,180
23.17500,178
23.18333,177
23.19167,175
23.20000,174
23.20833,172
23.21667,170
23.22500,167
23.23333,165
23.24167,162
23.25000,160
23.25833,157
23.26667,154
23.27500,151
23.28333,148
23.29167,145
23.30000,141
23.30833,138
23.31667,134
23.32500,131
23.33333,128
23.34167,125
23.35000,121
23.35833,117
23.36667,114
23.37500,110
23.38333,106
23.39167,103
23.40000,100
23.40833,96
23.41667,93
23.42500,89
23.43333,85
23.44167,82
23.45000,78
23.45833,75
23.46667,72
23.47500,69
23.48333,66
23.49167,63
23.50000,60
23.50833,58
23.51667,55
23.52500,52
23.53333,50
23.54167,47
23.55000,45
23.55833,43
23.56667,41
23.57500,40
23.58333,38
23.59167,36
23.60000,35
23.60833,33
23.61667,32
23.62500,30
23.63333,29
23.64167,28
23.65000,27
23.65833,26
23.66667,24
23.67500,23
23.68333,22
23.69167,21
23.70000,20
23.70833,19
23.71667,19
23.72500,19
23.73333,19
23.74167,18
23.75000,18
23.75833,17
23.76667,17
23.77500,16
23.78333,15
23.79167,15
23.80000,14
23.80833,13
23.81667,13
23.82500,13
23.83333,13
23.84167,13
23.85000,13
23.85833,13
23.86667,13
23.87500,13
23.88333,12
23.89167,12
23.90000,12
23.90833,12
23.91667,12
23.92500,12
23.93333,11
23.94167,11
23.95000,11
23.95833,11
23.96667,11
23.97500,11
23.98333,11
23.99167,11
24.00000,12
24.00833,11
24.01667,11
24.02500,11
24.03333,11
24.04167,11
24.05000,11
24.05833,11
24.06667,11
24.07500,11
24.08333,10
24.09167,10
24.10000,10
24.10833,10
24.11667,10
24.12500,10
24.13333,10
24.14167,10
24.15000,10
24.15833,10
24.16667,9
24.17500,9
24.18333,8
24.19167,9
24.20000,9
24.20833,9
24.21667,9
24.22500,10
24.23333,10
24.24167,11
24.25000,11
24.25833,12
24.26667,12
24.27500,13
24.28333,13
24.29167,14
24.30000,15
24.30833,16
24.31667,17
24.32500,18
24.33333,20
24.34167,22
24.35000,25
24.35833,28
24.36667,31
24.37500,35
24.38333,39
24.39167,44
24.40000,49
24.40833,55
24.41667,62
24.42500,70
24.43333,78
24.44167,88
24.45000,99
24.45833,111
24.46667,125
24.47500,140
24.48333,156
24.49167,174
24.50000,194
24.50833,216
24.51667,239
24.52500,265
24.53333,292
24.54167,321
24.55000,352
24.55833,386
24.56667,422
24.57500,460
24.58333,501
24.59167,544
24.60000,590
24.60833,639
24.61667,689
24.62500,742
24.63333,797
24.64167,855
24.65000,915
24.65833,976
24.66667,1040
24.67500,1106
24.68333,1173
24.69167,1242
24.70000,1313
24.70833,1385
24.71667,1458
24.72500,1532
24.73333,1607
24.74167,1682
24.75000,1758
24.75833,1834
24.76667,1910
24.77500,1986
24.78333,2062
24.79167,2138
24.80000,2212
24.80833,2286
24.81667,2358
24.82500,2429
24.83333,2499
24.84167,2567
24.85000,2634
24.85833,2700
24.86667,2763
24.87500,2825
24.88333,2885
24.89167,2943
24.90000,2998
24.90833,3052
24.91667,3103
24.92500,3153
24.93333,3200
24.94167,3244
24.95000,3287
24.95833,3327
24.96667,3365
24.97500,3400
24.98333,3433
24.99167,3464
25.00000,3492
25.00833,3518
25.01667,3542
25.02500,3563
25.03333,3581
25.04167,3597
25.05000,3610
25.05833,3621
25.06667,3629
25.07500,3634
25.08333,3636
25.09167,3636
25.10000,3632
25.10833,3626
25.11667,3616
25.12500,3603
25.13333,3588
25.14167,3569
25.15000,3548
25.15833,3524
25.16667,3496
25.17500,3466
25.18333,3432
25.19167,3396
25.20000,3356
25.20833,3314
25.21667,3269
25.22500,3221
25.23333,3171
25.24167,3118
25.25000,3062
25.25833,3004
25.26667,2945
25.27500,2883
25.28333,2820
25.29167,2754
25.30000,2688
25.30833,2620
25.31667,2550
25.32500,2481
25.33333,2410
25.34167,2338
25.35000,2266
25.35833,2193
25.36667,2121
25.37500,2048
25.38333,1976
25.39167,1904
25.40000,1832
25.40833,1762
25.41667,1692
25.42500,1622
25.43333,1554
25.44167,1488
25.45000,1423
25.45833,1359
25.46667,1297
25.47500,1236
25.48333,1177
25.49167,1119
25.50000,1063
25.50833,1009
25.51667,957
25.52500,907
25.53333,858
25.54167,812
25.55000,767
25.55833,724
25.56667,684
25.57500,645
25.58333,608
25.59167,572
25.60000,539
25.60833,507
25.61667,477
25.62500,448
25.63333,421
25.64167,395
25.65000,371
25.65833,348
25.66667,326
25.67500,306
25.68333,286
25.69167,269
25.70000,252
25.70833,237
25.71667,222
25.72500,208
25.73333,196
25.74167,184
25.75000,173
25.75833,162
25.76667,152
25.77500,143
25.78333,134
25.79167,126
25.80000,119
25.80833,113
25.81667,107
25.82500,101
25.83333,96
25.84167,91
25.85000,87
25.85833,83
25.86667,79
25.87500,75
25.88333,72
25.89167,68
25.90000,65
25.90833,62
25.91667,59
25.92500,57
25.93333,55
25.94167,53
25.95000,51
25.95833,49
25.96667,47
25.97500,46
25.98333,45
25.99167,43
26.00000,42
26.00833,41
26.01667,40
26.02500,39
26.03333,38
26.04167,37
26.05000,36
26.05833,35
26.06667,34
26.07500,33
26.08333,32
26.09167,31
26.10000,31
26.10833,31
26.11667,30
26.12500,30
26.13333,30
26.14167,29
26.15000,29
26.15833,28
26.16667,28
26.17500,27
26.18333,27
26.19167,26
26.20000,25
26.20833,25
26.21667,25
26.22500,24
26.23333,24
26.24167,24
26.25000,24
26.25833,24
26.26667,24
26.27500,24
26.28333,24
26.29167,23
26.30000,23
26.30833,22
26.31667,22
26.32500,22
26.33333,22
26.34167,22
26.35000,22
26.35833,22
26.36667,22
26.37500,22
26.38333,22
26.39167,22
26.40000,21
26.40833,21
26.41667,21
26.42500,21
26.43333,20
26.44167,20
26.45000,20
26.45833,20
26.46667,20
26.47500,20
26.48333,20
26.49167,20
26.50000,20
26.50833,20
26.51667,20
26.52500,20
26.53333,19
26.54167,19
26.55000,19
26.55833,19
26.56667,19
26.57500,19
26.58333,19
26.59167,18
26.60000,18
26.60833,18
26.61667,18
26.62500,18
26.63333,18
26.64167,17
26.65000,17
26.65833,17
26.66667,17
26.67500,17
26.68333,17
26.69167,17
26.70000,17
26.70833,17
26.71667,17
26.72500,17
26.73333,17
26.74167,17
26.75000,16
26.75833,16
26.76667,16
26.77500,16
26.78333,16
26.79167,16
26.80000,16
26.80833,16
26.81667,16
26.82500,16
26.83333,16
26.84167,16
26.85000,16
26.85833,15
26.86667,15
26.87500,15
26.88333,15
26.89167,14
26.90000,14
26.90833,14
26.91667,14
26.92500,14
26.93333,14
26.94167,14
26.95000,15
26.95833,15
26.96667,15
26.97500,14
26.98333,14
26.99167,14
27.00000,13
27.00833,13
27.01667,13
27.02500,13
27.03333,13
27.04167,12
27.05000,12
27.05833,11
27.06667,11
27.07500,11
27.08333,11
27.09167,10
27.10000,10
27.10833,10
27.11667,10
27.12500,9
27.13333,9
27.14167,8
27.15000,8
27.15833,8
27.16667,7
27.17500,6
27.18333,6
27.19167,5
27.20000,5
27.20833,5
27.21667,4
27.22500,3
27.23333,3
27.24167,2
27.25000,1
27.25833,0
27.26667,-1
27.27500,-2
27.28333,-3
27.29167,-4
27.30000,-5
27.30833,-6
27.31667,-7
27.32500,-9
27.33333,-10
27.34167,-11
27.35000,-12
27.35833,-14
27.36667,-15
27.37500,-16
27.38333,-17
27.39167,-18
27.40000,-20
27.40833,-22
27.41667,-24
27.42500,-26
27.43333,-28
27.44167,-29
27.45000,-31
27.45833,-33
27.46667,-35
27.47500,-37
27.48333,-39
27.49167,-41
27.50000,-43
27.50833,-45
27.51667,-47
27.52500,-49
27.53333,-51
27.54167,-53
27.55000,-55
27.55833,-57
27.56667,-58
27.57500,-60
27.58333,-62
27.59167,-64
27.60000,-66
27.60833,-68
27.61667,-70
27.62500,-72
27.63333,-74
27.64167,-76
27.65000,-78
27.65833,-79
27.66667,-81
27.67500,-83
27.68333,-85
27.69167,-87
27.70000,-88
27.70833,-90
27.71667,-91
27.72500,-93
27.73333,-94
27.74167,-96
27.75000,-97
27.75833,-98
27.76667,-100
27.77500,-101
27.78333,-102
27.79167,-103
27.80000,-104
27.80833,-105
27.81667,-105
27.82500,-106
27.83333,-106
27.84167,-107
27.85000,-108
27.85833,-109
27.86667,-109
27.87500,-109
27.88333,-110
27.89167,-110
27.90000,-110
27.90833,-110
27.91667,-109
27.92500,-109
27.93333,-109
27.94167,-109
27.95000,-108
27.95833,-108
27.96667,-107
27.97500,-107
27.98333,-106
27.99167,-105
28.00000,-104
28.00833,-103
28.01667,-102
28.02500,-101
28.03333,-100
28.04167,-99
28.05000,-97
28.05833,-96
28.06667,-95
28.07500,-93
28.08333,-92
28.09167,-90
28.10000,-88
28.10833,-87
28.11667,-85
28.12500,-83
28.13333,-81
28.14167,-80
28.15000,-78
28.15833,-76
28.16667,-75
28.17500,-73
28.18333,-71
28.19167,-69
28.20000,-67
28.20833,-66
28.21667,-65
28.22500,-63
28.23333,-61
28.24167,-59
28.25000,-58
28.25833,-56
28.26667,-54
28.27500,-52
28.28333,-51
28.29167,-49
28.30000,-47
28.30833,-46
28.31667,-44
28.32500,-43
28.33333,-41
28.34167,-40
28.35000,-39
28.35833,-37
28.36667,-36
28.37500,-35
28.38333,-34
28.39167,-33
28.40000,-31
28.40833,-30
28.41667,-28
28.42500,-27
28.43333,-26
28.44167,-25
28.45000,-23
28.45833,-22
28.46667,-21
28.47500,-20
28.48333,-19
28.49167,-19
28.50000,-18
28.50833,-18
28.51667,-17
28.52500,-16
28.53333,-15
28.54167,-15
28.55000,-14
28.55833,-13
28.56667,-12
28.57500,-11
28.58333,-10
28.59167,-10
28.60000,-9
28.60833,-8
28.61667,-8
28.62500,-7
28.63333,-6
28.64167,-6
28.65000,-5
28.65833,-4
28.66667,-3
28.67500,-3
28.68333,-3
28.69167,-2
28.70000,-2
28.70833,-1
28.71667,-0
28.72500,1
28.73333,2
28.74167,2
28.75000,3
28.75833,4
28.76667,4
28.77500,5
28.78333,5
28.79167,6
28.80000,6
28.80833,7
28.81667,8
28.82500,8
28.83333,9
28.84167,10
28.85000,10
28.85833,11
28.86667,11
28.87500,11
28.88333,12
28.89167,13
28.90000,13
28.90833,14
28.91667,14
28.92500,15
28.93333,16
28.94167,17
28.95000,18
28.95833,18
28.96667,18
28.97500,18
28.98333,18
28.99167,19
29.00000,19
29.00833,19
29.01667,19
29.02500,19
29.03333,19
29.04167,20
29.05000,20
29.05833,20
29.06667,20
29.07500,21
29.08333,21
29.09167,21
29.10000,21
29.10833,21
29.11667,21
29.12500,21
29.13333,21
29.14167,21
29.15000,21
29.15833,21
29.16667,21
29.17500,20
29.18333,20
29.19167,20
29.20000,19
29.20833,19
29.21667,19
29.22500,18
29.23333,17
29.24167,16
29.25000,16
29.25833,15
29.26667,15
29.27500,15
29.28333,14
29.29167,14
29.30000,13
29.30833,13
29.31667,12
29.32500,12
29.33333,11
29.34167,11
29.35000,10
29.35833,9
29.36667,9
29.37500,8
29.38333,7
29.39167,7
29.40000,6
29.40833,5
29.41667,5
29.42500,4
29.43333,3
29.44167,2
29.45000,1
29.45833,1
29.46667,-0
29.47500,-1
29.48333,-1
29.49167,-2
29.50000,-3
29.50833,-4
29.51667,-5
29.52500,-6
29.53333,-6
29.54167,-7
29.55000,-8
29.55833,-8
29.56667,-9
29.57500,-9
29.58333,-10
29.59167,-10
29.60000,-11
29.60833,-12
29.61667,-13
29.62500,-14
29.63333,-14
29.64167,-15
29.65000,-16
29.65833,-17
29.66667,-18
29.67500,-19
29.68333,-19
29.69167,-19
29.70000,-20
29.70833,-20
29.71667,-21
29.72500,-21
29.73333,-21
29.74167,-22
29.75000,-22
29.75833,-23
29.76667,-23
29.77500,-23
29.78333,-24
29.79167,-24
29.80000,-25
29.80833,-25
29.81667,-26
29.82500,-27
29.83333,-27
29.84167,-27
29.85000,-27
29.85833,-28
29.86667,-28
29.87500,-28
29.88333,-28
29.89167,-29
29.90000,-29
29.90833,-30
29.91667,-30
29.92500,-31
29.93333,-32
29.94167,-32
29.95000,-33
29.95833,-34
29.96667,-35
29.97500,-36
29.98333,-38
29.99167,-39
30.00000,-40
30.00833,-41
30.01667,-42
30.02500,-43
30.03333,-45
30.04167,-46
30.05000,-48
30.05833,-50
30.06667,-52
30.07500,-54
30.08333,-56
30.09167,-58
30.10000,-60
30.10833,-63
30.11667,-65
30.12500,-67
30.13333,-69
30.14167,-72
30.15000,-74
30.15833,-77
30.16667,-80
30.17500,-83
30.18333,-86
30.19167,-89
30.20000,-92
30.20833,-95
30.21667,-98
30.22500,-102
30.23333,-106
30.24167,-109
30.25000,-113
30.25833,-116
30.26667,-120
30.27500,-123
30.28333,-126
30.29167,-130
30.30000,-133
30.30833,-137
30.31667,-141
30.32500,-144
30.33333,-148
30.34167,-152
30.35000,-156
30.35833,-159
30.36667,-163
30.37500,-167
30.38333,-171
30.39167,-175
30.40000,-178
30.40833,-182
30.41667,-186
30.42500,-189
30.43333,-193
30.44167,-197
30.45000,-200
30.45833,-203
30.46667,-206
30.47500,-208
30.48333,-211
30.49167,-214
30.50000,-216
30.50833,-219
30.51667,-222
30.52500,-224
30.53333,-226
30.54167,-228
30.55000,-231
30.55833,-233
30.56667,-235
30.57500,-237
30.58333,-239
30.59167,-240
30.60000,-241
30.60833,-242
30.61667,-244
30.62500,-245
30.63333,-246
30.64167,-247
30.65000,-247
30.65833,-248
30.66667,-248
30.67500,-249
30.68333,-248
30.69167,-248
30.70000,-247
30.70833,-246
30.71667,-245
30.72500,-244
30.73333,-243
30.74167,-242
30.75000,-241
30.75833,-239
30.76667,-238
30.77500,-236
30.78333,-234
30.79167,-232
30.80000,-230
30.80833,-228
30.81667,-226
30.82500,-223
30.83333,-220
30.84167,-217
30.85000,-214
30.85833,-212
30.86667,-209
30.87500,-206
30.88333,-203
30.89167,-200
30.90000,-196
30.90833,-193
30.91667,-189
30.92500,-186
30.93333,-182
30.94167,-178
30.95000,-174
30.95833,-170
30.96667,-166
30.97500,-162
30.98333,-158
30.99167,-154
31.00000,-150
31.00833,-146
31.01667,-142
31.02500,-138
31.03333,-134
31.04167,-130
31.05000,-127
31.05833,-123
31.06667,-119
31.07500,-116
31.08333,-112
31.09167,-109
31.10000,-106
31.10833,-102
31.11667,-99
31.12500,-96
31.13333,-92
31.14167,-89
31.15000,-86
31.15833,-82
31.16667,-79
31.17500,-76
31.18333,-73
31.19167,-70
31.20000,-68
31.20833,-65
31.21667,-62
31.22500,-60
31.23333,-57
31.24167,-55
31.25000,-53
31.25833,-51
31.26667,-49
31.27500,-46
31.28333,-44
31.29167,-42
31.30000,-40
31.30833,-39
31.31667,-37
31.32500,-35
31.33333,-33
31.34167,-32
31.35000,-30
31.35833,-28
31.36667,-26
31.37500,-25
31.38333,-23
31.39167,-22
31.40000,-22
31.40833,-21
31.41667,-19
31.42500,-18
31.43333,-17
31.44167,-16
31.45000,-14
31.45833,-13
31.46667,-12
31.47500,-11
31.48333,-10
31.49167,-9
31.50000,-8
31.50833,-6
31.51667,-4
31.52500,-3
31.53333,-2
31.54167,-0
31.55000,1
31.55833,3
31.56667,4
31.57500,6
31.58333,7
31.59167,9
31.60000,11
31.60833,13
31.61667,15
31.62500,17
31.63333,19
31.64167,22
31.65000,24
31.65833,27
31.66667,30
31.67500,33
31.68333,37
31.69167,40
31.70000,44
31.70833,48
31.71667,52
31.72500,56
31.73333,60
31.74167,64
31.75000,69
31.75833,73
31.76667,78
31.77500,83
31.78333,89
31.79167,94
31.80000,100
31.80833,105
31.81667,111
31.82500,117
31.83333,122
31.84167,128
31.85000,134
31.85833,141
31.86667,148
31.87500,154
31.88333,161
31.89167,168
31.90000,176
31.90833,182
31.91667,189
31.92500,196
31.93333,204
31.94167,211
31.95000,218
31.95833,224
31.96667,231
31.97500,238
31.98333,245
31.99167,252
32.00000,259
32.00833,266
32.01667,273
32.02500,280
32.03333,286
32.04167,293
32.05000,300
32.05833,306
32.06667,313
32.07500,319
32.08333,325
32.09167,331
32.10000,337
32.10833,343
32.11667,349
32.12500,354
32.13333,359
32.14167,365
32.15000,370
32.15833,375
32.16667,379
32.17500,383
32.18333,387
32.19167,392
32.20000,396
32.20833,399
32.21667,403
32.22500,406
32.23333,409
32.24167,412
32.25000,414
32.25833,417
32.26667,419
32.27500,421
32.28333,424
32.29167,426
32.30000,427
32.30833,429
32.31667,430
32.32500,431
32.33333,432
32.34167,432
32.35000,433
32.35833,433
32.36667,433
32.37500,433
32.38333,433
32.39167,432
32.40000,431
32.40833,430
32.41667,429
32.42500,427
32.43333,425
32.44167,423
32.45000,421
32.45833,419
32.46667,415
32.47500,412
32.48333,409
32.49167,406
32.50000,402
32.50833,398
32.51667,394
32.52500,390
32.53333,386
32.54167,381
32.55000,376
32.55833,371
32.56667,366
32.57500,360
32.58333,355
32.59167,349
32.60000,342
32.60833,336
32.61667,330
32.62500,324
32.63333,317
32.64167,311
32.65000,304
32.65833,297
32.66667,291
32.67500,284
32.68333,277
32.69167,270
32.70000,263
32.70833,256
32.71667,249
32.72500,242
32.73333,235
32.74167,228
32.75000,221
32.75833,214
32.76667,207
32.77500,200
32.78333,194
32.79167,187
32.80000,180
32.80833,174
32.81667,168
32.82500,162
32.83333,156
32.84167,150
32.85000,144
32.85833,139
32.86667,133
32.87500,128
32.88333,122
32.89167,117
32.90000,112
32.90833,106
32.91667,102
32.92500,97
32.93333,92
32.94167,88
32.95000,84
32.95833,80
32.96667,76
32.97500,72
32.98333,69
32.99167,65
33.00000,62
33.00833,59
33.01667,56
33.02500,53
33.03333,50
33.04167,47
33.05000,45
33.05833,42
33.06667,40
33.07500,38
33.08333,36
33.09167,33
33.10000,31
33.10833,29
33.11667,28
33.12500,26
33.13333,25
33.14167,23
33.15000,22
33.15833,20
33.16667,19
33.17500,18
33.18333,17
33.19167,15
33.20000,14
33.20833,13
33.21667,12
33.22500,11
33.23333,10
33.24167,10
33.25000,10
33.25833,9
33.26667,8
33.27500,8
33.28333,7
33.29167,6
33.30000,6
33.30833,5
33.31667,4
33.32500,3
33.33333,3
33.34167,2
33.35000,2
33.35833,2
33.36667,2
33.37500,2
33.38333,1
33.39167,1
33.40000,0
33.40833,0
33.41667,0
33.42500,-0
33.43333,-0
33.44167,-1
33.45000,-1
33.45833,-2
33.46667,-2
33.47500,-3
33.48333,-3
33.49167,-3
33.50000,-4
33.50833,-4
33.51667,-4
33.52500,-4
33.53333,-4
33.54167,-4
33.55000,-4
33.55833,-4
33.56667,-4
33.57500,-4
33.58333,-4
33.59167,-5
33.60000,-5
33.60833,-6
33.61667,-6
33.62500,-6
33.63333,-6
33.64167,-6
33.65000,-6
33.65833,-6
33.66667,-6
33.67500,-6
33.68333,-6
33.69167,-6
33.70000,-6
33.70833,-6
33.71667,-5
33.72500,-5
33.73333,-5
33.74167,-5
33.75000,-5
33.75833,-5
33.76667,-6
33.77500,-6
33.78333,-6
33.79167,-6
33.80000,-6
33.80833,-5
33.81667,-5
33.82500,-5
33.83333,-5
33.84167,-5
33.85000,-5
33.85833,-5
33.86667,-5
33.87500,-5
33.88333,-5
33.89167,-5
33.90000,-5
33.90833,-5
33.91667,-5
33.92500,-5
33.93333,-5
33.94167,-5
33.95000,-5
33.95833,-5
33.96667,-5
33.97500,-4
33.98333,-4
33.99167,-5
34.00000,-5
34.00833,-5
34.01667,-5
34.02500,-5
34.03333,-5
34.04167,-5
34.05000,-5
34.05833,-4
34.06667,-4
34.07500,-4
34.08333,-4
34.09167,-4
34.10000,-4
34.10833,-4
34.11667,-3
34.12500,-3
34.13333,-3
34.14167,-3
34.15000,-3
34.15833,-3
34.16667,-3
34.17500,-3
34.18333,-3
34.19167,-3
34.20000,-3
34.20833,-3
34.21667,-2
34.22500,-2
34.23333,-2
34.24167,-2
34.25000,-2
34.25833,-2
34.26667,-2
34.27500,-1
34.28333,-1
34.29167,-0
34.30000,-0
34.30833,-0
34.31667,-0
34.32500,-0
34.33333,-1
34.34167,-1
34.35000,-1
34.35833,-1
34.36667,-1
34.37500,-1
34.38333,-1
34.39167,-1
34.40000,-1
34.40833,-0
34.41667,-0
34.42500,-1
34.43333,-1
34.44167,-1
34.45000,-1
34.45833,-1
34.46667,-1
34.47500,-0
34.48333,-0
34.49167,0
34.50000,0
34.50833,0
34.51667,-0
34.52500,-0
34.53333,-0
34.54167,-0
34.55000,-0
34.55833,-0
34.56667,-0
34.57500,-0
34.58333,0
34.59167,0
34.60000,0
34.60833,-0
34.61667,-0
34.62500,-0
34.63333,-0
34.64167,0
34.65000,0
34.65833,0
34.66667,-0
34.67500,-0
34.68333,-1
34.69167,-1
34.70000,-1
34.70833,-1
34.71667,-0
34.72500,-0
34.73333,-0
34.74167,-0
34.75000,-0
34.75833,-0
34.76667,-0
34.77500,-1
34.78333,-1
34.79167,-1
34.80000,-1
34.80833,-1
34.81667,-1
34.82500,-0
34.83333,-0
34.84167,-0
34.85000,-0
34.85833,-0
34.86667,-0
34.87500,-0
34.88333,-0
34.89167,-0
34.90000,-1
34.90833,-1
34.91667,-1
34.92500,-1
34.93333,-2
34.94167,-2
34.95000,-2
34.95833,-2
34.96667,-2
34.97500,-2
34.98333,-2
34.99167,-1
35.00000,-1
35.00833,-1
35.01667,-1
35.02500,-1
35.03333,-1
35.04167,-1
35.05000,-1
35.05833,-1
35.06667,-1
35.07500,-1
35.08333,-1
35.09167,-1
35.10000,-1
35.10833,-1
35.11667,-1
35.12500,-1
35.13333,-1
35.14167,-1
35.15000,-1
35.15833,-1
35.16667,-1
35.17500,-1
35.18333,-2
35.19167,-2
35.20000,-2
35.20833,-2
35.21667,-2
35.22500,-2
35.23333,-2
35.24167,-1
35.25000,-1
35.25833,-1
35.26667,-1
35.27500,-1
35.28333,-1
35.29167,-1
35.30000,-1
35.30833,-1
35.31667,-2
35.32500,-2
35.33333,-2
35.34167,-2
35.35000,-2
35.35833,-2
35.36667,-2
35.37500,-2
35.38333,-2
35.39167,-2
35.40000,-2
35.40833,-2
35.41667,-1
35.42500,-2
35.43333,-2
35.44167,-1
35.45000,-2
35.45833,-2
35.46667,-2
35.47500,-2
35.48333,-2
35.49167,-2
35.50000,-3
35.50833,-2
35.51667,-2
35.52500,-2
35.53333,-2
35.54167,-2
35.55000,-2
35.55833,-2
35.56667,-2
35.57500,-2
35.58333,-2
35.59167,-2
35.60000,-2
35.60833,-2
35.61667,-2
35.62500,-2
35.63333,-2
35.64167,-2
35.65000,-2
35.65833,-2
35.66667,-2
35.67500,-1
35.68333,-1
35.69167,-1
35.70000,-1
35.70833,-1
35.71667,-1
35.72500,-1
35.73333,-2
35.74167,-2
35.75000,-2
35.75833,-2
35.76667,-2
35.77500,-2
35.78333,-2
35.79167,-2
35.80000,-2
35.80833,-3
35.81667,-3
35.82500,-3
35.83333,-3
35.84167,-3
35.85000,-3
35.85833,-3
35.86667,-3
35.87500,-3
35.88333,-3
35.89167,-3
35.90000,-3
35.90833,-2
35.91667,-2
35.92500,-2
35.93333,-2
35.94167,-2
35.95000,-2
35.95833,-2
35.96667,-2
35.97500,-2
35.98333,-2
35.99167,-2
36.00000,-2
36.00833,-2
36.01667,-2
36.02500,-2
36.03333,-2
36.04167,-2
36.05000,-2
36.05833,-2
36.06667,-2
36.07500,-2
36.08333,-2
36.09167,-2
36.10000,-2
36.10833,-2
36.11667,-2
36.12500,-2
36.13333,-2
36.14167,-2
36.15000,-2
36.15833,-3
36.16667,-3
36.17500,-3
36.18333,-3
36.19167,-3
36.20000,-3
36.20833,-3
36.21667,-2
36.22500,-2
36.23333,-2
36.24167,-2
36.25000,-2
36.25833,-3
36.26667,-3
36.27500,-3
36.28333,-3
36.29167,-3
36.30000,-3
36.30833,-3
36.31667,-3
36.32500,-3
36.33333,-3
36.34167,-2
36.35000,-2
36.35833,-2
36.36667,-2
36.37500,-1
36.38333,-1
36.39167,-1
36.40000,-1
36.40833,-1
36.41667,-2
36.42500,-2
36.43333,-2
36.44167,-2
36.45000,-2
36.45833,-3
36.46667,-3
36.47500,-3
36.48333,-2
36.49167,-2
36.50000,-2
36.50833,-2
36.51667,-2
36.52500,-2
36.53333,-2
36.54167,-2
36.55000,-2
36.55833,-2
36.56667,-2
36.57500,-2
36.58333,-2
36.59167,-2
36.60000,-2
36.60833,-1
36.61667,-1
36.62500,-2
36.63333,-2
36.64167,-2
36.65000,-2
36.65833,-2
36.66667,-2
36.67500,-2
36.68333,-2
36.69167,-2
36.70000,-2
36.70833,-2
36.71667,-1
36.72500,-1
36.73333,-1
36.74167,-1
36.75000,-1
36.75833,-2
36.76667,-2
36.77500,-2
36.78333,-2
36.79167,-2
36.80000,-2
36.80833,-2
36.81667,-1
36.82500,-1
36.83333,-1
36.84167,-1
36.85000,-2
36.85833,-2
36.86667,-2
36.87500,-2
36.88333,-2
36.89167,-2
36.90000,-2
36.90833,-1
36.91667,-1
36.92500,-1
36.93333,-1
36.94167,-1
36.95000,-1
36.95833,-1
36.96667,-1
36.97500,-1
36.98333,-1
36.99167,-1
37.00000,-1
37.00833,-1
37.01667,-1
37.02500,-1
37.03333,-1
37.04167,-1
37.05000,-1
37.05833,-1
37.06667,-1
37.07500,-1
37.08333,-1
37.09167,-1
37.10000,-1
37.10833,-1
37.11667,-1
37.12500,-1
37.13333,-1
37.14167,-1
37.15000,-1
37.15833,-1
37.16667,-1
37.17500,-1
37.18333,-1
37.19167,-1
37.20000,-2
37.20833,-2
37.21667,-2
37.22500,-2
37.23333,-1
37.24167,-1
37.25000,-1
37.25833,-0
37.26667,-1
37.27500,-1
37.28333,-1
37.29167,-1
37.30000,-1
37.30833,-1
37.31667,-0
37.32500,-0
37.33333,-0
37.34167,-1
37.35000,-0
37.35833,-0
37.36667,0
37.37500,0
37.38333,0
37.39167,0
37.40000,0
37.40833,0
37.41667,1
37.42500,1
37.43333,1
37.44167,1
37.45000,1
37.45833,1
37.46667,1
37.47500,1
37.48333,1
37.49167,1
37.50000,1
37.50833,0
37.51667,0
37.52500,0
37.53333,0
37.54167,0
37.55000,0
37.55833,0
37.56667,0
37.57500,0
37.58333,0
37.59167,0
37.60000,0
37.60833,1
37.61667,1
37.62500,1
37.63333,1
37.64167,1
37.65000,1
37.65833,1
37.66667,1
37.67500,1
37.68333,1
37.69167,0
37.70000,0
37.70833,0
37.71667,0
37.72500,0
37.73333,0
37.74167,1
37.75000,1
37.75833,0
37.76667,0
37.77500,0
37.78333,1
37.79167,1
37.80000,1
37.80833,1
37.81667,1
37.82500,1
37.83333,1
37.84167,1
37.85000,1
37.85833,1
37.86667,1
37.87500,1
37.88333,1
37.89167,1
37.90000,1
37.90833,1
37.91667,1
37.92500,1
37.93333,1
37.94167,1
37.95000,0
37.95833,0
37.96667,0
37.97500,0
37.98333,1
37.99167,1
38.00000,1
38.00833,1
38.01667,1
38.02500,1
38.03333,1
38.04167,1
38.05000,1
38.05833,1
38.06667,1
38.07500,0
38.08333,0
38.09167,0
38.10000,0
38.10833,0
38.11667,0
38.12500,1
38.13333,1
38.14167,1
38.15000,1
38.15833,1
38.16667,1
38.17500,1
38.18333,1
38.19167,1
38.20000,1
38.20833,0
38.21667,0
38.22500,-0
38.23333,-1
38.24167,-1
38.25000,-1
38.25833,-1
38.26667,-1
38.27500,-1
38.28333,-1
38.29167,-1
38.30000,-1
38.30833,-1
38.31667,-1
38.32500,-1
38.33333,-1
38.34167,-1
38.35000,-1
38.35833,-1
38.36667,-1
38.37500,-1
38.38333,-2
38.39167,-2
38.40000,-2
38.40833,-2
38.41667,-2
38.42500,-2
38.43333,-2
38.44167,-2
38.45000,-2
38.45833,-2
38.46667,-2
38.47500,-2
38.48333,-2
38.49167,-2
38.50000,-2
38.50833,-2
38.51667,-2
38.52500,-2
38.53333,-3
38.54167,-2
38.55000,-3
38.55833,-3
38.56667,-3
38.57500,-3
38.58333,-3
38.59167,-3
38.60000,-3
38.60833,-3
38.61667,-3
38.62500,-3
38.63333,-3
38.64167,-4
38.65000,-4
38.65833,-4
38.66667,-4
38.67500,-4
38.68333,-5
38.69167,-5
38.70000,-5
38.70833,-5
38.71667,-4
38.72500,-5
38.73333,-4
38.74167,-4
38.75000,-4
38.75833,-5
38.76667,-5
38.77500,-5
38.78333,-5
38.79167,-5
38.80000,-5
38.80833,-5
38.81667,-5
38.82500,-5
38.83333,-5
38.84167,-5
38.85000,-5
38.85833,-5
38.86667,-5
38.87500,-4
38.88333,-5
38.89167,-5
38.90000,-5
38.90833,-5
38.91667,-5
38.92500,-5
38.93333,-5
38.94167,-6
38.95000,-6
38.95833,-6
38.96667,-6
38.97500,-6
38.98333,-6
38.99167,-6
39.00000,-6
39.00833,-6
39.01667,-6
39.02500,-6
39.03333,-6
39.04167,-6
39.05000,-7
39.05833,-6
39.06667,-7
39.07500,-7
39.08333,-7
39.09167,-7
39.10000,-7
39.10833,-7
39.11667,-7
39.12500,-7
39.13333,-7
39.14167,-7
39.15000,-7
39.15833,-7
39.16667,-7
39.17500,-7
39.18333,-7
39.19167,-7
39.20000,-8
39.20833,-8
39.21667,-8
39.22500,-8
39.23333,-8
39.24167,-8
39.25000,-8
39.25833,-8
39.26667,-8
39.27500,-7
39.28333,-7
39.29167,-7
39.30000,-7
39.30833,-7
39.31667,-7
39.32500,-8
39.33333,-8
39.34167,-8
39.35000,-8
39.35833,-8
39.36667,-9
39.37500,-9
39.38333,-9
39.39167,-8
39.40000,-8
39.40833,-8
39.41667,-8
39.42500,-7
39.43333,-7
39.44167,-7
39.45000,-7
39.45833,-7
39.46667,-7
39.47500,-7
39.48333,-8
39.49167,-8
39.50000,-8
39.50833,-8
39.51667,-8
39.52500,-8
39.53333,-8
39.54167,-8
39.55000,-8
39.55833,-8
39.56667,-7
39.57500,-7
39.58333,-8
39.59167,-8
39.60000,-8
39.60833,-8
39.61667,-8
39.62500,-7
39.63333,-7
39.64167,-7
39.65000,-7
39.65833,-7
39.66667,-7
39.67500,-7
39.68333,-8
39.69167,-8
39.70000,-8
39.70833,-7
39.71667,-7
39.72500,-7
39.73333,-7
39.74167,-7
39.75000,-7
39.75833,-7
39.76667,-7
39.77500,-7
39.78333,-7
39.79167,-8
39.80000,-8
39.80833,-7
39.81667,-7
39.82500,-8
39.83333,-8
39.84167,-8
39.85000,-8
39.85833,-8
39.86667,-7
39.87500,-7
39.88333,-8
39.89167,-8
39.90000,-8
39.90833,-8
39.91667,-8
39.92500,-8
39.93333,-8
39.94167,-9
39.95000,-9
39.95833,-9
39.96667,-9
39.97500,-8
39.98333,-8
39.99167,-8
40.00000,-8
40.00833,-8
40.01667,-8
40.02500,-8
40.03333,-8
40.04167,-9
40.05000,-9
40.05833,-9
40.06667,-9
40.07500,-9
40.08333,-9
40.09167,-10
40.10000,-10
40.10833,-10
40.11667,-10
40.12500,-9
40.13333,-9
40.14167,-9
40.15000,-9
40.15833,-9
40.16667,-9
40.17500,-8
40.18333,-8
40.19167,-8
40.20000,-9
40.20833,-9
40.21667,-10
40.22500,-10
40.23333,-10
40.24167,-10
40.25000,-10
40.25833,-9
40.26667,-9
40.27500,-9
40.28333,-9
40.29167,-9
40.30000,-9
40.30833,-9
40.31667,-9
40.32500,-9
40.33333,-9
40.34167,-9
40.35000,-9
40.35833,-10
40.36667,-10
40.37500,-10
40.38333,-10
40.39167,-10
40.40000,-10
40.40833,-11
40.41667,-11
40.42500,-11
40.43333,-11
40.44167,-11
40.45000,-11
40.45833,-11
40.46667,-11
40.47500,-11
40.48333,-11
40.49167,-11
40.50000,-11
40.50833,-11
40.51667,-11
40.52500,-11
40.53333,-11
40.54167,-11
40.55000,-11
40.55833,-11
40.56667,-12
40.57500,-12
40.58333,-12
40.59167,-11
40.60000,-11
40.60833,-11
40.61667,-11
40.62500,-11
40.63333,-11
40.64167,-12
40.65000,-12
40.65833,-12
40.66667,-12
40.67500,-12
40.68333,-13
40.69167,-13
40.70000,-12
40.70833,-12
40.71667,-12
40.72500,-12
40.73333,-11
40.74167,-11
40.75000,-11
40.75833,-11
40.76667,-12
40.77500,-12
40.78333,-12
40.79167,-11
40.80000,-12
40.80833,-12
40.81667,-12
40.82500,-13
40.83333,-13
40.84167,-13
40.85000,-13
40.85833,-14
40.86667,-14
40.87500,-14
40.88333,-13
40.89167,-13
40.90000,-13
40.90833,-13
40.91667,-13
40.92500,-13
40.93333,-13
40.94167,-13
40.95000,-13
40.95833,-13
40.96667,-13
40.97500,-13
40.98333,-13
40.99167,-13
41.00000,-13
41.00833,-13
41.01667,-13
41.02500,-13
41.03333,-13
41.04167,-13
41.05000,-13
41.05833,-13
41.06667,-13
41.07500,-13
41.08333,-13
41.09167,-13
41.10000,-12
41.10833,-12
41.11667,-13
41.12500,-13
41.13333,-13
41.14167,-13
41.15000,-14
41.15833,-14
41.16667,-14
41.17500,-14
41.18333,-13
41.19167,-13
41.20000,-13
41.20833,-13
41.21667,-13
41.22500,-13
41.23333,-13
41.24167,-13
41.25000,-13
41.25833,-13
41.26667,-13
41.27500,-13
41.28333,-13
41.29167,-13
41.30000,-13
41.30833,-13
41.31667,-13
41.32500,-12
41.33333,-13
41.34167,-13
41.35000,-13
41.35833,-13
41.36667,-13
41.37500,-13
41.38333,-12
41.39167,-12
41.40000,-12
41.40833,-12
41.41667,-12
41.42500,-13
41.43333,-13
41.44167,-13
41.45000,-13
41.45833,-13
41.46667,-13
41.47500,-14
41.48333,-14
41.49167,-14
41.50000,-14
41.50833,-14
41.51667,-14
41.52500,-14
41.53333,-14
41.54167,-14
41.55000,-14
41.55833,-13
41.56667,-13
41.57500,-13
41.58333,-13
41.59167,-13
41.60000,-13
41.60833,-13
41.61667,-13
41.62500,-13
41.63333,-13
41.64167,-13
41.65000,-13
41.65833,-13
41.66667,-13
41.67500,-13
41.68333,-14
41.69167,-14
41.70000,-14
41.70833,-14
41.71667,-13
41.72500,-13
41.73333,-14
41.74167,-14
41.75000,-14
41.75833,-14
41.76667,-14
41.77500,-14
41.78333,-14
41.79167,-14
41.80000,-14
41.80833,-14
41.81667,-14
41.82500,-14
41.83333,-14
41.84167,-14
41.85000,-14
41.85833,-14
41.86667,-14
41.87500,-14
41.88333,-14
41.89167,-13
41.90000,-13
41.90833,-13
41.91667,-13
41.92500,-13
41.93333,-13
41.94167,-13
41.95000,-13
41.95833,-13
41.96667,-13
41.97500,-13
41.98333,-13
41.99167,-13
42.00000,-13
42.00833,-13
42.01667,-13
42.02500,-13
42.03333,-12
42.04167,-13
42.05000,-13
42.05833,-13
42.06667,-13
42.07500,-13
42.08333,-13
42.09167,-13
42.10000,-12
42.10833,-12
42.11667,-12
42.12500,-13
42.13333,-13
42.14167,-13
42.15000,-13
42.15833,-12
42.16667,-12
42.17500,-12
42.18333,-12
42.19167,-12
42.20000,-12
42.20833,-12
42.21667,-13
42.22500,-13
42.23333,-13
42.24167,-13
42.25000,-13
42.25833,-13
42.26667,-13
42.27500,-13
42.28333,-13
42.29167,-13
42.30000,-13
42.30833,-13
42.31667,-13
42.32500,-13
42.33333,-13
42.34167,-12
42.35000,-12
42.35833,-12
42.36667,-12
42.37500,-12
42.38333,-12
42.39167,-12
42.40000,-12
42.40833,-12
42.41667,-12
42.42500,-12
42.43333,-12
42.44167,-12
42.45000,-13
42.45833,-13
42.46667,-12
42.47500,-12
42.48333,-12
42.49167,-12
42.50000,-12
42.50833,-12
42.51667,-12
42.52500,-12
42.53333,-12
42.54167,-12
42.55000,-12
42.55833,-12
42.56667,-12
42.57500,-12
42.58333,-12
42.59167,-12
42.60000,-13
42.60833,-12
42.61667,-12
42.62500,-12
42.63333,-12
42.64167,-12
42.65000,-12
42.65833,-13
42.66667,-13
42.67500,-12
42.68333,-12
42.69167,-12
42.70000,-12
42.70833,-12
42.71667,-12
42.72500,-12
42.73333,-12
42.74167,-12
42.75000,-12
42.75833,-12
42.76667,-12
42.77500,-12
42.78333,-12
42.79167,-12
42.80000,-12
42.80833,-12
42.81667,-13
42.82500,-13
42.83333,-12
42.84167,-13
42.85000,-13
42.85833,-13
42.86667,-13
42.87500,-14
42.88333,-14
42.89167,-13
42.90000,-13
42.90833,-13
42.91667,-13
42.92500,-13
42.93333,-13
42.94167,-13
42.95000,-13
42.95833,-13
42.96667,-13
42.97500,-13
42.98333,-13
42.99167,-13
43.00000,-13
43.00833,-13
43.01667,-13
43.02500,-13
43.03333,-13
43.04167,-13
43.05000,-13
43.05833,-12
43.06667,-12
43.07500,-12
43.08333,-12
43.09167,-13
43.10000,-13
43.10833,-13
43.11667,-13
43.12500,-13
43.13333,-13
43.14167,-13
43.15000,-13
43.15833,-13
43.16667,-13
43.17500,-13
43.18333,-12
43.19167,-12
43.20000,-12
43.20833,-12
43.21667,-13
43.22500,-13
43.23333,-13
43.24167,-13
43.25000,-13
43.25833,-13
43.26667,-13
43.27500,-13
43.28333,-13
43.29167,-13
43.30000,-13
43.30833,-13
43.31667,-12
43.32500,-12
43.33333,-12
43.34167,-12
43.35000,-12
43.35833,-12
43.36667,-12
43.37500,-12
43.38333,-13
43.39167,-13
43.40000,-13
43.40833,-14
43.41667,-14
43.42500,-14
43.43333,-13
43.44167,-13
43.45000,-13
43.45833,-13
43.46667,-13
43.47500,-13
43.48333,-13
43.49167,-13
43.50000,-13
43.50833,-12
43.51667,-12
43.52500,-13
43.53333,-13
43.54167,-13
43.55000,-12
43.55833,-12
43.56667,-12
43.57500,-12
43.58333,-13
43.59167,-13
43.60000,-13
43.60833,-13
43.61667,-13
43.62500,-13
43.63333,-13
43.64167,-13
43.65000,-12
43.65833,-12
43.66667,-12
43.67500,-12
43.68333,-12
43.69167,-13
43.70000,-13
43.70833,-13
43.71667,-14
43.72500,-14
43.73333,-14
43.74167,-13
43.75000,-13
43.75833,-13
43.76667,-13
43.77500,-13
43.78333,-12
43.79167,-12
43.80000,-12
43.80833,-12
43.81667,-12
43.82500,-12
43.83333,-12
43.84167,-13
43.85000,-13
43.85833,-13
43.86667,-13
43.87500,-13
43.88333,-13
43.89167,-13
43.90000,-13
43.90833,-13
43.91667,-12
43.92500,-12
43.93333,-12
43.94167,-12
43.95000,-12
43.95833,-12
43.96667,-12
43.97500,-12
43.98333,-12
43.99167,-12
44.00000,-12
44.00833,-13
44.01667,-13
44.02500,-13
44.03333,-13
44.04167,-12
44.05000,-12
44.05833,-12
44.06667,-12
44.07500,-12
44.08333,-12
44.09167,-12
44.10000,-12
44.10833,-12
44.11667,-12
44.12500,-12
44.13333,-12
44.14167,-12
44.15000,-12
44.15833,-12
44.16667,-13
44.17500,-13
44.18333,-13
44.19167,-13
44.20000,-13
44.20833,-13
44.21667,-13
44.22500,-13
44.23333,-12
44.24167,-13
44.25000,-13
44.25833,-13
44.26667,-13
44.27500,-13
44.28333,-13
44.29167,-13
44.30000,-13
44.30833,-13
44.31667,-13
44.32500,-13
44.33333,-13
44.34167,-13
44.35000,-13
44.35833,-13
44.36667,-13
44.37500,-13
44.38333,-13
44.39167,-13
44.40000,-13
44.40833,-14
44.41667,-14
44.42500,-13
44.43333,-13
44.44167,-14
44.45000,-14
44.45833,-14
44.46667,-14
44.47500,-14
44.48333,-14
44.49167,-14
44.50000,-14
44.50833,-14
44.51667,-14
44.52500,-14
44.53333,-14
44.54167,-14
44.55000,-14
44.55833,-13
44.56667,-13
44.57500,-13
44.58333,-14
44.59167,-14
44.60000,-14
44.60833,-14
44.61667,-14
44.62500,-14
44.63333,-13
44.64167,-13
44.65000,-14
44.65833,-14
44.66667,-14
44.67500,-15
44.68333,-15
44.69167,-15
44.70000,-15
44.70833,-15
44.71667,-15
44.72500,-15
44.73333,-15
44.74167,-15
44.75000,-15
44.75833,-15
44.76667,-15
44.77500,-15
44.78333,-15
44.79167,-15
44.80000,-15
44.80833,-15
44.81667,-15
44.82500,-15
44.83333,-15
44.84167,-15
44.85000,-15
44.85833,-15
44.86667,-14
44.87500,-14
44.88333,-14
44.89167,-14
44.90000,-14
44.90833,-14
44.91667,-14
44.92500,-14
44.93333,-14
44.94167,-14
44.95000,-14
44.95833,-15
44.96667,-15
44.97500,-15
44.98333,-15
44.99167,-15
45.00000,-15
45.00833,-15
45.01667,-15
45.02500,-15
45.03333,-15
45.04167,-15
45.05000,-15
45.05833,-15
45.06667,-16
45.07500,-16
45.08333,-16
45.09167,-16
45.10000,-15
45.10833,-15
45.11667,-14
45.12500,-14
45.13333,-14
45.14167,-14
45.15000,-14
45.15833,-14
45.16667,-15
45.17500,-15
45.18333,-15
45.19167,-15
45.20000,-15
45.20833,-15
45.21667,-15
45.22500,-15
45.23333,-15
45.24167,-15
45.25000,-15
45.25833,-15
45.26667,-15
45.27500,-15
45.28333,-15
45.29167,-14
45.30000,-15
45.30833,-15
45.31667,-15
45.32500,-15
45.33333,-16
45.34167,-16
45.35000,-16
45.35833,-16
45.36667,-16
45.37500,-16
45.38333,-16
45.39167,-16
45.40000,-15
45.40833,-15
45.41667,-15
45.42500,-16
45.43333,-16
45.44167,-16
45.45000,-16
45.45833,-16
45.46667,-16
45.47500,-16
45.48333,-16
45.49167,-16
45.50000,-16
45.50833,-15
45.51667,-15
45.52500,-15
45.53333,-15
45.54167,-15
45.55000,-15
45.55833,-15
45.56667,-15
45.57500,-15
45.58333,-16
45.59167,-16
45.60000,-16
45.60833,-16
45.61667,-15
45.62500,-15
45.63333,-15
45.64167,-15
45.65000,-15
45.65833,-16
45.66667,-16
45.67500,-16
45.68333,-16
45.69167,-16
45.70000,-16
45.70833,-17
45.71667,-17
45.72500,-16
45.73333,-16
45.74167,-16
45.75000,-16
45.75833,-16
45.76667,-16
45.77500,-16
45.78333,-16
45.79167,-16
45.80000,-16
45.80833,-16
45.81667,-16
45.82500,-16
45.83333,-16
45.84167,-16
45.85000,-16
45.85833,-16
45.86667,-16
45.87500,-16
45.88333,-16
45.89167,-16
45.90000,-16
45.90833,-16
45.91667,-16
45.92500,-16
45.93333,-15
45.94167,-15
45.95000,-15
45.95833,-15
45.96667,-15
45.97500,-15
45.98333,-15
45.99167,-15
46.00000,-15
46.00833,-15
46.01667,-15
46.02500,-15
46.03333,-15
46.04167,-16
46.05000,-16
46.05833,-16
46.06667,-16
46.07500,-15
46.08333,-15
46.09167,-15
46.10000,-15
46.10833,-15
46.11667,-15
46.12500,-15
46.13333,-15
46.14167,-16
46.15000,-16
46.15833,-16
46.16667,-16
46.17500,-16
46.18333,-16
46.19167,-16
46.20000,-16
46.20833,-16
46.21667,-16
46.22500,-16
46.23333,-16
46.24167,-16
46.25000,-16
46.25833,-16
46.26667,-16
46.27500,-16
46.28333,-15
46.29167,-15
46.30000,-16
46.30833,-16
46.31667,-16
46.32500,-16
46.33333,-16
46.34167,-16
46.35000,-16
46.35833,-16
46.36667,-16
46.37500,-16
46.38333,-16
46.39167,-16
46.40000,-16
46.40833,-16
46.41667,-16
46.42500,-16
46.43333,-16
46.44167,-16
46.45000,-16
46.45833,-16
46.46667,-16
46.47500,-16
46.48333,-16
46.49167,-16
46.50000,-16
46.50833,-16
46.51667,-16
46.52500,-16
46.53333,-16
46.54167,-16
46.55000,-16
46.55833,-16
46.56667,-16
46.57500,-16
46.58333,-16
46.59167,-16
46.60000,-16
46.60833,-16
46.61667,-16
46.62500,-16
46.63333,-16
46.64167,-16
46.65000,-16
46.65833,-17
46.66667,-17
46.67500,-17
46.68333,-16
46.69167,-16
46.70000,-16
46.70833,-16
46.71667,-16
46.72500,-15
46.73333,-15
46.74167,-15
46.75000,-15
46.75833,-15
46.76667,-16
46.77500,-16
46.78333,-16
46.79167,-16
46.80000,-16
46.80833,-16
46.81667,-16
46.82500,-16
46.83333,-16
46.84167,-16
46.85000,-16
46.85833,-16
46.86667,-16
46.87500,-16
46.88333,-16
46.89167,-16
46.90000,-16
46.90833,-16
46.91667,-16
46.92500,-16
46.93333,-16
46.94167,-15
46.95000,-15
46.95833,-15
46.96667,-16
46.97500,-16
46.98333,-16
46.99167,-16
47.00000,-15
47.00833,-15
47.01667,-15
47.02500,-15
47.03333,-14
47.04167,-15
47.05000,-15
47.05833,-15
47.06667,-15
47.07500,-15
47.08333,-15
47.09167,-15
47.10000,-15
47.10833,-15
47.11667,-15
47.12500,-15
47.13333,-15
47.14167,-15
47.15000,-15
47.15833,-15
47.16667,-15
47.17500,-15
47.18333,-15
47.19167,-15
47.20000,-15
47.20833,-15
47.21667,-15
47.22500,-15
47.23333,-15
47.24167,-15
47.25000,-16
47.25833,-16
47.26667,-16
47.27500,-16
47.28333,-15
47.29167,-15
47.30000,-15
47.30833,-16
47.31667,-16
47.32500,-16
47.33333,-16
47.34167,-15
47.35000,-15
47.35833,-15
47.36667,-15
47.37500,-15
47.38333,-15
47.39167,-15
47.40000,-15
47.40833,-15
47.41667,-15
47.42500,-15
47.43333,-16
47.44167,-16
47.45000,-15
47.45833,-15
47.46667,-15
47.47500,-15
47.48333,-14
47.49167,-14
47.50000,-14
47.50833,-15
47.51667,-15
47.52500,-15
47.53333,-15
47.54167,-15
47.55000,-15
47.55833,-16
47.56667,-16
47.57500,-16
47.58333,-16
47.59167,-16
47.60000,-16
47.60833,-16
47.61667,-16
47.62500,-16
47.63333,-16
47.64167,-16
47.65000,-15
47.65833,-15
47.66667,-15
47.67500,-14
47.68333,-14
47.69167,-14
47.70000,-14
47.70833,-15
47.71667,-15
47.72500,-16
47.73333,-16
47.74167,-16
47.75000,-16
47.75833,-16
47.76667,-16
47.77500,-16
47.78333,-16
47.79167,-16
47.80000,-15
47.80833,-15
47.81667,-15
47.82500,-15
47.83333,-15
47.84167,-16
47.85000,-16
47.85833,-16
47.86667,-16
47.87500,-16
47.88333,-16
47.89167,-16
47.90000,-16
47.90833,-16
47.91667,-16
47.92500,-16
47.93333,-16
47.94167,-16
47.95000,-16
47.95833,-16
47.96667,-16
47.97500,-16
47.98333,-16
47.99167,-16
48.00000,-16
48.00833,-16
48.01667,-16
48.02500,-16
48.03333,-16
48.04167,-16
48.05000,-16
48.05833,-16
48.06667,-16
48.07500,-16
48.08333,-16
48.09167,-16
48.10000,-16
48.10833,-16
48.11667,-16
48.12500,-16
48.13333,-15
48.14167,-15
48.15000,-15
48.15833,-15
48.16667,-16
48.17500,-16
48.18333,-16
48.19167,-16
48.20000,-16
48.20833,-16
48.21667,-16
48.22500,-16
48.23333,-16
48.24167,-16
48.25000,-16
48.25833,-16
48.26667,-16
48.27500,-16
48.28333,-16
48.29167,-16
48.30000,-15
48.30833,-16
48.31667,-16
48.32500,-16
48.33333,-16
48.34167,-16
48.35000,-16
48.35833,-16
48.36667,-17
48.37500,-17
48.38333,-17
48.39167,-17
48.40000,-16
48.40833,-16
48.41667,-16
48.42500,-16
48.43333,-17
48.44167,-17
48.45000,-16
48.45833,-16
48.46667,-16
48.47500,-16
48.48333,-16
48.49167,-16
48.50000,-17
48.50833,-17
48.51667,-17
48.52500,-17
48.53333,-17
48.54167,-17
48.55000,-17
48.55833,-17
48.56667,-17
48.57500,-17
48.58333,-17
48.59167,-16
48.60000,-16
48.60833,-16
48.61667,-16
48.62500,-15
48.63333,-15
48.64167,-16
48.65000,-16
48.65833,-16
48.66667,-16
48.67500,-16
48.68333,-15
48.69167,-16
48.70000,-16
48.70833,-16
48.71667,-16
48.72500,-15
48.73333,-16
48.74167,-16
48.75000,-16
48.75833,-16
48.76667,-16
48.77500,-16
48.78333,-16
48.79167,-16
48.80000,-16
48.80833,-16
48.81667,-15
48.82500,-15
48.83333,-15
48.84167,-15
48.85000,-15
48.85833,-15
48.86667,-16
48.87500,-16
48.88333,-16
48.89167,-16
48.90000,-16
48.90833,-16
48.91667,-16
48.92500,-16
48.93333,-16
48.94167,-16
48.95000,-16
48.95833,-16
48.96667,-16
48.97500,-16
48.98333,-16
48.99167,-16
49.00000,-16
49.00833,-15
49.01667,-15
49.02500,-15
49.03333,-16
49.04167,-16
49.05000,-15
49.05833,-15
49.06667,-15
49.07500,-15
49.08333,-15
49.09167,-16
49.10000,-16
49.10833,-16
49.11667,-16
49.12500,-16
49.13333,-15
49.14167,-15
49.15000,-15
49.15833,-15
49.16667,-15
49.17500,-15
49.18333,-15
49.19167,-15
49.20000,-16
49.20833,-15
49.21667,-15
49.22500,-15
49.23333,-15
49.24167,-15
49.25000,-15
49.25833,-15
49.26667,-15
49.27500,-15
49.28333,-15
49.29167,-16
49.30000,-16
49.30833,-15
49.31667,-15
49.32500,-15
49.33333,-15
49.34167,-15
49.35000,-15
49.35833,-15
49.36667,-15
49.37500,-15
49.38333,-15
49.39167,-15
49.40000,-15
49.40833,-15
49.41667,-15
49.42500,-15
49.43333,-14
49.44167,-14
49.45000,-14
49.45833,-14
49.46667,-15
49.47500,-15
49.48333,-15
49.49167,-15
49.50000,-15
49.50833,-15
49.51667,-15
49.52500,-15
49.53333,-14
49.54167,-14
49.55000,-14
49.55833,-14
49.56667,-15
49.57500,-15
49.58333,-15
49.59167,-15
49.60000,-15
49.60833,-15
49.61667,-15
49.62500,-15
49.63333,-15
49.64167,-15
49.65000,-15
49.65833,-14
49.66667,-14
49.67500,-14
49.68333,-14
49.69167,-13
49.70000,-13
49.70833,-13
49.71667,-13
49.72500,-13
49.73333,-13
49.74167,-13
49.75000,-13
49.75833,-13
49.76667,-13
49.77500,-13
49.78333,-13
49.79167,-13
49.80000,-13
49.80833,-12
49.81667,-13
49.82500,-13
49.83333,-13
49.84167,-13
49.85000,-12
49.85833,-12
49.86667,-12
49.87500,-12
49.88333,-13
49.89167,-13
49.90000,-13
49.90833,-13
49.91667,-13
49.92500,-13
49.93333,-13
49.94167,-12
49.95000,-12
49.95833,-12
49.96667,-12
49.97500,-12
49.98333,-12
49.99167,-12
50.00000,-12

