[Header]
Application Name,LabSolutions
Version,5.97 SP1
Data File Name,C:\Users\cremerlab\Desktop\Richa\Oct_18th_2022_yield_expt\Oct 18th 2022 yield expt_10182022_001_022.lcd
Output Date,10/19/2022
Output Time,11:18:22 AM

[File Information]
Type,Data File
Generated,10/19/2022 10:28:03 AM
Generated by,System Administrator
Modified,10/19/2022 11:18:22 AM
Modified by,System Administrator

[Sample Information]
Operator Name,System Administrator
Acquired,10/19/2022 10:28:22 AM
Sample Type,0:Unknown
Level,0
Sample Name,101822_BF_Trp_1
Sample ID,001
ISTD Amount1,1
ISTD Amount2,1
ISTD Amount3,1
ISTD Amount4,1
ISTD Amount5,1
ISTD Amount6,1
ISTD Amount7,1
ISTD Amount8,1
ISTD Amount9,1
ISTD Amount10,1
ISTD Amount11,1
ISTD Amount12,1
ISTD Amount13,1
ISTD Amount14,1
ISTD Amount15,1
ISTD Amount16,1
ISTD Amount17,1
ISTD Amount18,1
ISTD Amount19,1
ISTD Amount20,1
ISTD Amount21,1
ISTD Amount22,1
ISTD Amount23,1
ISTD Amount24,1
ISTD Amount25,1
ISTD Amount26,1
ISTD Amount27,1
ISTD Amount28,1
ISTD Amount29,1
ISTD Amount30,1
ISTD Amount31,1
ISTD Amount32,1
Sample Amount,1
Dilution Factor,1
Vial#,21
Injection Volume,20

[Original Files]
Data File,C:\Users\cremerlab\Desktop\Richa\Oct_18th_2022_yield_expt\Oct 18th 2022 yield expt_10182022_001_022.lcd
Method File,C:\Users\cremerlab\Desktop\Richa\acetate_excretion.lcm
Batch File,C:\Users\cremerlab\Desktop\Richa\Oct_18th_2022_yield_expt\Oct 18th 2022 yield expt.lcb
Report Format File,c:\LabSolutions\System\DEFAULT.lsr

[File Description]


[Configuration]
Instrument Name,HPLC-PC-Instrument1
Instrument #,1
Line #,1
# of Detectors,2
Detector ID,Detector A,Detector B
Detector Name,Detector A,Detector B
# of Channels,1,1

[Peak Table(Detector A)]
# of Peaks,0

[Peak Table(Detector B)]
# of Peaks,11
Peak#,R.Time,I.Time,F.Time,Area,Height,A/H,Conc.,Mark,ID#,Name,k',Plate #,Plate Ht.,Tailing,Resolution,Sep.Factor,Area Ratio,Height Ratio,Conc. %,Norm Conc.
1,10.483,10.283,10.525,1456,192,7.574,0.000,   ,,,0.000,7881,19.034,0.000,0.000,0.000,0,0,0.000,0.000
2,11.036,10.525,12.358,2339006,118876,19.676,0.000, V ,,,0.053,7474,20.069,0.966,1.124,0.000,0,0,0.000,0.000
3,14.365,12.667,15.208,3699652,78415,47.180,0.000,   ,,,0.370,2461,60.941,0.655,3.990,7.025,0,0,0.000,0.000
4,15.782,15.208,17.408,1568005,53117,29.520,0.000, V ,,,0.505,6831,21.958,1.150,1.474,1.365,0,0,0.000,0.000
5,17.892,17.408,18.450,12145,343,35.374,0.000, V ,,,0.707,5260,28.515,0.000,2.410,1.398,0,0,0.000,0.000
6,19.069,18.475,19.758,11153,283,39.410,0.000,   ,,,0.819,4876,30.762,1.063,1.133,1.159,0,0,0.000,0.000
7,20.308,19.800,20.817,14344,481,29.822,0.000,   ,,,0.937,10279,14.593,1.008,1.308,1.144,0,0,0.000,0.000
8,21.880,21.408,22.508,17136,525,32.660,0.000,   ,,,1.087,10206,14.698,1.122,1.886,1.160,0,0,0.000,0.000
9,25.095,24.317,26.408,144832,3480,41.613,0.000,   ,,,1.394,8822,17.002,1.172,3.322,1.282,0,0,0.000,0.000
10,29.206,28.333,30.533,140070,2916,48.036,0.000,   ,,,1.786,8877,16.897,1.126,3.562,1.281,0,0,0.000,0.000
11,32.430,31.683,33.042,9243,213,43.491,0.000,   ,,,2.093,12719,11.794,0.922,2.698,1.172,0,0,0.000,0.000

[LC Chromatogram(Detector B-Ch1)]
Interval(msec),500
# of Points,6001
Start Time(min),0.000
End Time(min),50.000
Intensity Units,mV
Intensity Multiplier,0.001
R.Time (min),Intensity
0.00000,-8
0.00833,-8
0.01667,-0
0.02500,-0
0.03333,-0
0.04167,-1
0.05000,-1
0.05833,-2
0.06667,-2
0.07500,-3
0.08333,-3
0.09167,-4
0.10000,-4
0.10833,-4
0.11667,-5
0.12500,-6
0.13333,-6
0.14167,-7
0.15000,-7
0.15833,-7
0.16667,-7
0.17500,-8
0.18333,-8
0.19167,-8
0.20000,-9
0.20833,-9
0.21667,-9
0.22500,-9
0.23333,-10
0.24167,-10
0.25000,-10
0.25833,-11
0.26667,-11
0.27500,-11
0.28333,-11
0.29167,-12
0.30000,-12
0.30833,-12
0.31667,-13
0.32500,-13
0.33333,-13
0.34167,-13
0.35000,-13
0.35833,-13
0.36667,-13
0.37500,-13
0.38333,-13
0.39167,-13
0.40000,-13
0.40833,-13
0.41667,-14
0.42500,-14
0.43333,-14
0.44167,-14
0.45000,-14
0.45833,-14
0.46667,-15
0.47500,-15
0.48333,-15
0.49167,-15
0.50000,-15
0.50833,-14
0.51667,-14
0.52500,-14
0.53333,-14
0.54167,-14
0.55000,-14
0.55833,-14
0.56667,-15
0.57500,-15
0.58333,-15
0.59167,-15
0.60000,-15
0.60833,-15
0.61667,-15
0.62500,-15
0.63333,-15
0.64167,-15
0.65000,-14
0.65833,-14
0.66667,-15
0.67500,-14
0.68333,-14
0.69167,-14
0.70000,-14
0.70833,-13
0.71667,-14
0.72500,-14
0.73333,-14
0.74167,-14
0.75000,-14
0.75833,-14
0.76667,-14
0.77500,-14
0.78333,-14
0.79167,-14
0.80000,-14
0.80833,-14
0.81667,-14
0.82500,-14
0.83333,-13
0.84167,-13
0.85000,-13
0.85833,-13
0.86667,-12
0.87500,-12
0.88333,-12
0.89167,-12
0.90000,-12
0.90833,-12
0.91667,-12
0.92500,-12
0.93333,-12
0.94167,-11
0.95000,-11
0.95833,-11
0.96667,-11
0.97500,-11
0.98333,-11
0.99167,-11
1.00000,-10
1.00833,-10
1.01667,-10
1.02500,-10
1.03333,-9
1.04167,-9
1.05000,-8
1.05833,-7
1.06667,-7
1.07500,-7
1.08333,-7
1.09167,-7
1.10000,-6
1.10833,-6
1.11667,-6
1.12500,-6
1.13333,-6
1.14167,-6
1.15000,-6
1.15833,-5
1.16667,-5
1.17500,-5
1.18333,-5
1.19167,-5
1.20000,-5
1.20833,-5
1.21667,-5
1.22500,-5
1.23333,-5
1.24167,-5
1.25000,-5
1.25833,-5
1.26667,-5
1.27500,-5
1.28333,-5
1.29167,-5
1.30000,-5
1.30833,-5
1.31667,-5
1.32500,-4
1.33333,-4
1.34167,-4
1.35000,-4
1.35833,-3
1.36667,-3
1.37500,-3
1.38333,-3
1.39167,-3
1.40000,-3
1.40833,-3
1.41667,-3
1.42500,-3
1.43333,-3
1.44167,-3
1.45000,-2
1.45833,-2
1.46667,-2
1.47500,-2
1.48333,-2
1.49167,-2
1.50000,-2
1.50833,-2
1.51667,-1
1.52500,-1
1.53333,-1
1.54167,-1
1.55000,-1
1.55833,-1
1.56667,-2
1.57500,-2
1.58333,-2
1.59167,-2
1.60000,-2
1.60833,-2
1.61667,-2
1.62500,-2
1.63333,-2
1.64167,-2
1.65000,-2
1.65833,-1
1.66667,-1
1.67500,-2
1.68333,-2
1.69167,-2
1.70000,-2
1.70833,-1
1.71667,-1
1.72500,-1
1.73333,-1
1.74167,-1
1.75000,-2
1.75833,-2
1.76667,-2
1.77500,-2
1.78333,-2
1.79167,-2
1.80000,-2
1.80833,-2
1.81667,-3
1.82500,-3
1.83333,-3
1.84167,-3
1.85000,-3
1.85833,-3
1.86667,-3
1.87500,-3
1.88333,-3
1.89167,-4
1.90000,-4
1.90833,-4
1.91667,-4
1.92500,-4
1.93333,-5
1.94167,-5
1.95000,-5
1.95833,-5
1.96667,-5
1.97500,-5
1.98333,-5
1.99167,-5
2.00000,-5
2.00833,-5
2.01667,-5
2.02500,-6
2.03333,-6
2.04167,-6
2.05000,-7
2.05833,-7
2.06667,-7
2.07500,-7
2.08333,-7
2.09167,-7
2.10000,-7
2.10833,-7
2.11667,-8
2.12500,-8
2.13333,-8
2.14167,-8
2.15000,-9
2.15833,-9
2.16667,-9
2.17500,-9
2.18333,-9
2.19167,-9
2.20000,-10
2.20833,-10
2.21667,-10
2.22500,-10
2.23333,-10
2.24167,-10
2.25000,-10
2.25833,-10
2.26667,-10
2.27500,-10
2.28333,-11
2.29167,-11
2.30000,-11
2.30833,-11
2.31667,-11
2.32500,-11
2.33333,-11
2.34167,-12
2.35000,-12
2.35833,-12
2.36667,-12
2.37500,-12
2.38333,-12
2.39167,-13
2.40000,-13
2.40833,-13
2.41667,-13
2.42500,-13
2.43333,-14
2.44167,-14
2.45000,-14
2.45833,-14
2.46667,-15
2.47500,-15
2.48333,-16
2.49167,-16
2.50000,-15
2.50833,-15
2.51667,-15
2.52500,-15
2.53333,-16
2.54167,-16
2.55000,-16
2.55833,-16
2.56667,-15
2.57500,-15
2.58333,-15
2.59167,-16
2.60000,-16
2.60833,-16
2.61667,-17
2.62500,-16
2.63333,-16
2.64167,-17
2.65000,-17
2.65833,-17
2.66667,-17
2.67500,-17
2.68333,-18
2.69167,-18
2.70000,-18
2.70833,-18
2.71667,-18
2.72500,-19
2.73333,-19
2.74167,-19
2.75000,-19
2.75833,-19
2.76667,-19
2.77500,-19
2.78333,-19
2.79167,-19
2.80000,-19
2.80833,-20
2.81667,-20
2.82500,-20
2.83333,-19
2.84167,-19
2.85000,-19
2.85833,-20
2.86667,-20
2.87500,-20
2.88333,-20
2.89167,-20
2.90000,-20
2.90833,-21
2.91667,-21
2.92500,-21
2.93333,-21
2.94167,-21
2.95000,-21
2.95833,-21
2.96667,-21
2.97500,-20
2.98333,-20
2.99167,-20
3.00000,-20
3.00833,-20
3.01667,-20
3.02500,-20
3.03333,-20
3.04167,-21
3.05000,-21
3.05833,-21
3.06667,-21
3.07500,-21
3.08333,-21
3.09167,-21
3.10000,-20
3.10833,-20
3.11667,-20
3.12500,-20
3.13333,-20
3.14167,-20
3.15000,-20
3.15833,-20
3.16667,-20
3.17500,-20
3.18333,-19
3.19167,-19
3.20000,-19
3.20833,-19
3.21667,-19
3.22500,-19
3.23333,-19
3.24167,-19
3.25000,-19
3.25833,-18
3.26667,-18
3.27500,-18
3.28333,-18
3.29167,-18
3.30000,-17
3.30833,-17
3.31667,-17
3.32500,-17
3.33333,-17
3.34167,-17
3.35000,-17
3.35833,-17
3.36667,-17
3.37500,-17
3.38333,-17
3.39167,-17
3.40000,-17
3.40833,-17
3.41667,-16
3.42500,-16
3.43333,-16
3.44167,-15
3.45000,-15
3.45833,-15
3.46667,-14
3.47500,-14
3.48333,-14
3.49167,-14
3.50000,-14
3.50833,-14
3.51667,-13
3.52500,-13
3.53333,-13
3.54167,-13
3.55000,-13
3.55833,-12
3.56667,-12
3.57500,-11
3.58333,-11
3.59167,-11
3.60000,-10
3.60833,-10
3.61667,-9
3.62500,-9
3.63333,-9
3.64167,-8
3.65000,-8
3.65833,-8
3.66667,-8
3.67500,-8
3.68333,-8
3.69167,-7
3.70000,-7
3.70833,-7
3.71667,-6
3.72500,-6
3.73333,-6
3.74167,-5
3.75000,-5
3.75833,-5
3.76667,-4
3.77500,-3
3.78333,-3
3.79167,-2
3.80000,-1
3.80833,-1
3.81667,-1
3.82500,-1
3.83333,-1
3.84167,-0
3.85000,-0
3.85833,0
3.86667,1
3.87500,2
3.88333,2
3.89167,2
3.90000,3
3.90833,3
3.91667,3
3.92500,4
3.93333,5
3.94167,5
3.95000,6
3.95833,6
3.96667,6
3.97500,7
3.98333,8
3.99167,9
4.00000,10
4.00833,11
4.01667,11
4.02500,12
4.03333,13
4.04167,14
4.05000,14
4.05833,15
4.06667,16
4.07500,16
4.08333,17
4.09167,17
4.10000,18
4.10833,18
4.11667,19
4.12500,20
4.13333,21
4.14167,21
4.15000,22
4.15833,23
4.16667,23
4.17500,24
4.18333,24
4.19167,25
4.20000,25
4.20833,26
4.21667,26
4.22500,27
4.23333,28
4.24167,28
4.25000,29
4.25833,29
4.26667,30
4.27500,30
4.28333,31
4.29167,32
4.30000,33
4.30833,34
4.31667,34
4.32500,35
4.33333,36
4.34167,36
4.35000,37
4.35833,37
4.36667,38
4.37500,38
4.38333,39
4.39167,40
4.40000,40
4.40833,41
4.41667,42
4.42500,42
4.43333,43
4.44167,43
4.45000,44
4.45833,45
4.46667,46
4.47500,46
4.48333,47
4.49167,48
4.50000,48
4.50833,49
4.51667,49
4.52500,50
4.53333,50
4.54167,50
4.55000,51
4.55833,51
4.56667,52
4.57500,52
4.58333,52
4.59167,53
4.60000,53
4.60833,53
4.61667,54
4.62500,54
4.63333,54
4.64167,54
4.65000,54
4.65833,54
4.66667,54
4.67500,55
4.68333,55
4.69167,55
4.70000,55
4.70833,55
4.71667,55
4.72500,55
4.73333,55
4.74167,56
4.75000,56
4.75833,56
4.76667,56
4.77500,56
4.78333,56
4.79167,56
4.80000,56
4.80833,56
4.81667,56
4.82500,56
4.83333,56
4.84167,56
4.85000,56
4.85833,56
4.86667,56
4.87500,56
4.88333,56
4.89167,55
4.90000,55
4.90833,54
4.91667,54
4.92500,53
4.93333,53
4.94167,53
4.95000,53
4.95833,53
4.96667,53
4.97500,53
4.98333,53
4.99167,52
5.00000,52
5.00833,52
5.01667,51
5.02500,51
5.03333,51
5.04167,50
5.05000,50
5.05833,50
5.06667,49
5.07500,49
5.08333,49
5.09167,49
5.10000,48
5.10833,47
5.11667,47
5.12500,47
5.13333,47
5.14167,46
5.15000,45
5.15833,45
5.16667,44
5.17500,43
5.18333,43
5.19167,42
5.20000,42
5.20833,41
5.21667,41
5.22500,40
5.23333,40
5.24167,39
5.25000,39
5.25833,39
5.26667,38
5.27500,38
5.28333,37
5.29167,37
5.30000,36
5.30833,35
5.31667,35
5.32500,34
5.33333,33
5.34167,32
5.35000,32
5.35833,31
5.36667,30
5.37500,29
5.38333,29
5.39167,28
5.40000,27
5.40833,27
5.41667,26
5.42500,25
5.43333,24
5.44167,24
5.45000,23
5.45833,23
5.46667,22
5.47500,21
5.48333,20
5.49167,19
5.50000,18
5.50833,17
5.51667,16
5.52500,16
5.53333,15
5.54167,14
5.55000,14
5.55833,13
5.56667,12
5.57500,11
5.58333,10
5.59167,10
5.60000,9
5.60833,8
5.61667,7
5.62500,6
5.63333,6
5.64167,5
5.65000,4
5.65833,4
5.66667,3
5.67500,2
5.68333,1
5.69167,0
5.70000,-0
5.70833,-1
5.71667,-2
5.72500,-3
5.73333,-3
5.74167,-4
5.75000,-5
5.75833,-6
5.76667,-7
5.77500,-8
5.78333,-8
5.79167,-9
5.80000,-10
5.80833,-11
5.81667,-12
5.82500,-13
5.83333,-14
5.84167,-15
5.85000,-16
5.85833,-16
5.86667,-17
5.87500,-17
5.88333,-18
5.89167,-19
5.90000,-20
5.90833,-21
5.91667,-22
5.92500,-22
5.93333,-23
5.94167,-23
5.95000,-24
5.95833,-25
5.96667,-26
5.97500,-27
5.98333,-27
5.99167,-28
6.00000,-28
6.00833,-29
6.01667,-30
6.02500,-30
6.03333,-31
6.04167,-31
6.05000,-31
6.05833,-32
6.06667,-33
6.07500,-33
6.08333,-34
6.09167,-34
6.10000,-35
6.10833,-35
6.11667,-35
6.12500,-36
6.13333,-36
6.14167,-37
6.15000,-37
6.15833,-38
6.16667,-38
6.17500,-38
6.18333,-39
6.19167,-39
6.20000,-39
6.20833,-40
6.21667,-40
6.22500,-41
6.23333,-41
6.24167,-41
6.25000,-42
6.25833,-42
6.26667,-43
6.27500,-44
6.28333,-44
6.29167,-45
6.30000,-45
6.30833,-45
6.31667,-46
6.32500,-46
6.33333,-46
6.34167,-46
6.35000,-46
6.35833,-47
6.36667,-47
6.37500,-48
6.38333,-48
6.39167,-48
6.40000,-48
6.40833,-49
6.41667,-49
6.42500,-49
6.43333,-50
6.44167,-50
6.45000,-50
6.45833,-50
6.46667,-50
6.47500,-50
6.48333,-50
6.49167,-50
6.50000,-50
6.50833,-51
6.51667,-51
6.52500,-51
6.53333,-52
6.54167,-52
6.55000,-52
6.55833,-52
6.56667,-52
6.57500,-52
6.58333,-52
6.59167,-52
6.60000,-53
6.60833,-53
6.61667,-53
6.62500,-53
6.63333,-53
6.64167,-53
6.65000,-53
6.65833,-53
6.66667,-53
6.67500,-53
6.68333,-53
6.69167,-53
6.70000,-53
6.70833,-53
6.71667,-53
6.72500,-54
6.73333,-54
6.74167,-54
6.75000,-54
6.75833,-54
6.76667,-54
6.77500,-54
6.78333,-54
6.79167,-54
6.80000,-55
6.80833,-55
6.81667,-54
6.82500,-54
6.83333,-54
6.84167,-54
6.85000,-54
6.85833,-54
6.86667,-54
6.87500,-54
6.88333,-55
6.89167,-54
6.90000,-54
6.90833,-55
6.91667,-55
6.92500,-55
6.93333,-55
6.94167,-55
6.95000,-55
6.95833,-54
6.96667,-54
6.97500,-54
6.98333,-54
6.99167,-54
7.00000,-54
7.00833,-55
7.01667,-55
7.02500,-55
7.03333,-55
7.04167,-55
7.05000,-55
7.05833,-55
7.06667,-55
7.07500,-54
7.08333,-54
7.09167,-54
7.10000,-54
7.10833,-54
7.11667,-54
7.12500,-54
7.13333,-54
7.14167,-54
7.15000,-54
7.15833,-54
7.16667,-54
7.17500,-55
7.18333,-55
7.19167,-55
7.20000,-55
7.20833,-55
7.21667,-55
7.22500,-55
7.23333,-55
7.24167,-55
7.25000,-55
7.25833,-55
7.26667,-55
7.27500,-55
7.28333,-55
7.29167,-54
7.30000,-54
7.30833,-54
7.31667,-54
7.32500,-54
7.33333,-55
7.34167,-55
7.35000,-55
7.35833,-54
7.36667,-54
7.37500,-54
7.38333,-54
7.39167,-55
7.40000,-55
7.40833,-55
7.41667,-55
7.42500,-55
7.43333,-55
7.44167,-55
7.45000,-55
7.45833,-54
7.46667,-54
7.47500,-54
7.48333,-54
7.49167,-54
7.50000,-54
7.50833,-54
7.51667,-54
7.52500,-54
7.53333,-55
7.54167,-55
7.55000,-55
7.55833,-55
7.56667,-55
7.57500,-55
7.58333,-55
7.59167,-55
7.60000,-55
7.60833,-55
7.61667,-55
7.62500,-55
7.63333,-55
7.64167,-56
7.65000,-56
7.65833,-56
7.66667,-56
7.67500,-56
7.68333,-56
7.69167,-56
7.70000,-56
7.70833,-56
7.71667,-56
7.72500,-55
7.73333,-55
7.74167,-55
7.75000,-55
7.75833,-55
7.76667,-55
7.77500,-56
7.78333,-56
7.79167,-56
7.80000,-56
7.80833,-57
7.81667,-57
7.82500,-57
7.83333,-56
7.84167,-56
7.85000,-56
7.85833,-56
7.86667,-56
7.87500,-56
7.88333,-56
7.89167,-56
7.90000,-56
7.90833,-56
7.91667,-56
7.92500,-56
7.93333,-56
7.94167,-56
7.95000,-56
7.95833,-56
7.96667,-56
7.97500,-56
7.98333,-56
7.99167,-56
8.00000,-56
8.00833,-56
8.01667,-56
8.02500,-56
8.03333,-55
8.04167,-55
8.05000,-55
8.05833,-55
8.06667,-56
8.07500,-55
8.08333,-55
8.09167,-55
8.10000,-55
8.10833,-55
8.11667,-56
8.12500,-56
8.13333,-56
8.14167,-56
8.15000,-56
8.15833,-56
8.16667,-56
8.17500,-57
8.18333,-57
8.19167,-57
8.20000,-56
8.20833,-56
8.21667,-56
8.22500,-56
8.23333,-56
8.24167,-56
8.25000,-56
8.25833,-56
8.26667,-56
8.27500,-56
8.28333,-56
8.29167,-56
8.30000,-56
8.30833,-56
8.31667,-56
8.32500,-56
8.33333,-56
8.34167,-56
8.35000,-57
8.35833,-57
8.36667,-57
8.37500,-57
8.38333,-57
8.39167,-57
8.40000,-57
8.40833,-57
8.41667,-57
8.42500,-57
8.43333,-56
8.44167,-57
8.45000,-57
8.45833,-57
8.46667,-57
8.47500,-57
8.48333,-56
8.49167,-56
8.50000,-56
8.50833,-56
8.51667,-56
8.52500,-57
8.53333,-57
8.54167,-57
8.55000,-57
8.55833,-56
8.56667,-56
8.57500,-56
8.58333,-56
8.59167,-56
8.60000,-57
8.60833,-57
8.61667,-57
8.62500,-57
8.63333,-57
8.64167,-57
8.65000,-57
8.65833,-57
8.66667,-57
8.67500,-57
8.68333,-57
8.69167,-57
8.70000,-57
8.70833,-57
8.71667,-57
8.72500,-57
8.73333,-57
8.74167,-57
8.75000,-57
8.75833,-57
8.76667,-56
8.77500,-56
8.78333,-56
8.79167,-56
8.80000,-56
8.80833,-56
8.81667,-56
8.82500,-56
8.83333,-56
8.84167,-56
8.85000,-56
8.85833,-56
8.86667,-57
8.87500,-57
8.88333,-57
8.89167,-57
8.90000,-57
8.90833,-57
8.91667,-57
8.92500,-57
8.93333,-57
8.94167,-57
8.95000,-57
8.95833,-57
8.96667,-56
8.97500,-57
8.98333,-57
8.99167,-57
9.00000,-57
9.00833,-57
9.01667,-57
9.02500,-57
9.03333,-56
9.04167,-56
9.05000,-56
9.05833,-56
9.06667,-56
9.07500,-56
9.08333,-56
9.09167,-55
9.10000,-55
9.10833,-55
9.11667,-55
9.12500,-55
9.13333,-55
9.14167,-56
9.15000,-56
9.15833,-56
9.16667,-56
9.17500,-56
9.18333,-56
9.19167,-56
9.20000,-56
9.20833,-56
9.21667,-56
9.22500,-56
9.23333,-57
9.24167,-57
9.25000,-57
9.25833,-57
9.26667,-56
9.27500,-56
9.28333,-56
9.29167,-56
9.30000,-56
9.30833,-57
9.31667,-57
9.32500,-57
9.33333,-57
9.34167,-56
9.35000,-56
9.35833,-56
9.36667,-56
9.37500,-56
9.38333,-56
9.39167,-55
9.40000,-55
9.40833,-55
9.41667,-55
9.42500,-56
9.43333,-56
9.44167,-55
9.45000,-55
9.45833,-55
9.46667,-56
9.47500,-56
9.48333,-55
9.49167,-55
9.50000,-55
9.50833,-55
9.51667,-55
9.52500,-55
9.53333,-55
9.54167,-55
9.55000,-55
9.55833,-55
9.56667,-55
9.57500,-55
9.58333,-55
9.59167,-55
9.60000,-55
9.60833,-55
9.61667,-55
9.62500,-54
9.63333,-54
9.64167,-54
9.65000,-54
9.65833,-55
9.66667,-55
9.67500,-55
9.68333,-55
9.69167,-55
9.70000,-54
9.70833,-54
9.71667,-54
9.72500,-54
9.73333,-54
9.74167,-55
9.75000,-55
9.75833,-55
9.76667,-54
9.77500,-54
9.78333,-54
9.79167,-54
9.80000,-54
9.80833,-54
9.81667,-54
9.82500,-54
9.83333,-54
9.84167,-54
9.85000,-54
9.85833,-54
9.86667,-54
9.87500,-54
9.88333,-54
9.89167,-54
9.90000,-54
9.90833,-54
9.91667,-54
9.92500,-53
9.93333,-53
9.94167,-53
9.95000,-53
9.95833,-53
9.96667,-53
9.97500,-53
9.98333,-53
9.99167,-53
10.00000,-53
10.00833,-53
10.01667,-53
10.02500,-53
10.03333,-52
10.04167,-52
10.05000,-52
10.05833,-51
10.06667,-51
10.07500,-51
10.08333,-50
10.09167,-50
10.10000,-49
10.10833,-49
10.11667,-49
10.12500,-48
10.13333,-48
10.14167,-47
10.15000,-46
10.15833,-45
10.16667,-44
10.17500,-43
10.18333,-43
10.19167,-42
10.20000,-40
10.20833,-39
10.21667,-38
10.22500,-36
10.23333,-35
10.24167,-33
10.25000,-32
10.25833,-30
10.26667,-28
10.27500,-26
10.28333,-24
10.29167,-21
10.30000,-18
10.30833,-14
10.31667,-10
10.32500,-4
10.33333,2
10.34167,9
10.35000,18
10.35833,28
10.36667,39
10.37500,52
10.38333,66
10.39167,82
10.40000,99
10.40833,116
10.41667,134
10.42500,152
10.43333,170
10.44167,186
10.45000,201
10.45833,213
10.46667,222
10.47500,228
10.48333,231
10.49167,231
10.50000,229
10.50833,225
10.51667,223
10.52500,223
10.53333,228
10.54167,243
10.55000,270
10.55833,314
10.56667,381
10.57500,474
10.58333,600
10.59167,765
10.60000,974
10.60833,1234
10.61667,1550
10.62500,1929
10.63333,2377
10.64167,2899
10.65000,3502
10.65833,4190
10.66667,4969
10.67500,5844
10.68333,6819
10.69167,7898
10.70000,9085
10.70833,10383
10.71667,11795
10.72500,13324
10.73333,14972
10.74167,16740
10.75000,18630
10.75833,20642
10.76667,22778
10.77500,25038
10.78333,27420
10.79167,29924
10.80000,32549
10.80833,35294
10.81667,38156
10.82500,41133
10.83333,44221
10.84167,47418
10.85000,50718
10.85833,54116
10.86667,57606
10.87500,61182
10.88333,64834
10.89167,68554
10.90000,72330
10.90833,76149
10.91667,79994
10.92500,83848
10.93333,87689
10.94167,91490
10.95000,95222
10.95833,98852
10.96667,102340
10.97500,105641
10.98333,108709
10.99167,111488
11.00000,113924
11.00833,115959
11.01667,117535
11.02500,118595
11.03333,119088
11.04167,118969
11.05000,118206
11.05833,116778
11.06667,114681
11.07500,111928
11.08333,108550
11.09167,104600
11.10000,100142
11.10833,95258
11.11667,90037
11.12500,84575
11.13333,78972
11.14167,73320
11.15000,67710
11.15833,62220
11.16667,56918
11.17500,51857
11.18333,47081
11.19167,42618
11.20000,38485
11.20833,34691
11.21667,31232
11.22500,28101
11.23333,25283
11.24167,22760
11.25000,20510
11.25833,18512
11.26667,16742
11.27500,15179
11.28333,13801
11.29167,12587
11.30000,11518
11.30833,10577
11.31667,9748
11.32500,9017
11.33333,8371
11.34167,7799
11.35000,7291
11.35833,6839
11.36667,6435
11.37500,6072
11.38333,5746
11.39167,5451
11.40000,5183
11.40833,4938
11.41667,4715
11.42500,4509
11.43333,4320
11.44167,4144
11.45000,3980
11.45833,3827
11.46667,3684
11.47500,3549
11.48333,3422
11.49167,3302
11.50000,3188
11.50833,3080
11.51667,2976
11.52500,2878
11.53333,2784
11.54167,2694
11.55000,2609
11.55833,2527
11.56667,2449
11.57500,2374
11.58333,2301
11.59167,2232
11.60000,2165
11.60833,2101
11.61667,2040
11.62500,1980
11.63333,1923
11.64167,1868
11.65000,1816
11.65833,1766
11.66667,1718
11.67500,1671
11.68333,1626
11.69167,1583
11.70000,1541
11.70833,1501
11.71667,1463
11.72500,1427
11.73333,1392
11.74167,1358
11.75000,1325
11.75833,1294
11.76667,1264
11.77500,1235
11.78333,1208
11.79167,1182
11.80000,1156
11.80833,1132
11.81667,1109
11.82500,1087
11.83333,1065
11.84167,1045
11.85000,1025
11.85833,1006
11.86667,988
11.87500,971
11.88333,955
11.89167,940
11.90000,924
11.90833,910
11.91667,896
11.92500,882
11.93333,870
11.94167,857
11.95000,846
11.95833,835
11.96667,825
11.97500,814
11.98333,805
11.99167,796
12.00000,787
12.00833,778
12.01667,770
12.02500,762
12.03333,755
12.04167,747
12.05000,740
12.05833,733
12.06667,727
12.07500,721
12.08333,715
12.09167,709
12.10000,704
12.10833,699
12.11667,693
12.12500,688
12.13333,684
12.14167,679
12.15000,675
12.15833,671
12.16667,667
12.17500,663
12.18333,660
12.19167,657
12.20000,653
12.20833,651
12.21667,648
12.22500,645
12.23333,643
12.24167,641
12.25000,639
12.25833,638
12.26667,636
12.27500,635
12.28333,633
12.29167,632
12.30000,631
12.30833,630
12.31667,629
12.32500,629
12.33333,628
12.34167,628
12.35000,627
12.35833,627
12.36667,627
12.37500,627
12.38333,626
12.39167,625
12.40000,625
12.40833,624
12.41667,624
12.42500,623
12.43333,623
12.44167,622
12.45000,621
12.45833,620
12.46667,619
12.47500,618
12.48333,617
12.49167,616
12.50000,615
12.50833,614
12.51667,612
12.52500,611
12.53333,610
12.54167,608
12.55000,607
12.55833,605
12.56667,603
12.57500,602
12.58333,600
12.59167,598
12.60000,597
12.60833,595
12.61667,593
12.62500,592
12.63333,590
12.64167,589
12.65000,588
12.65833,587
12.66667,586
12.67500,587
12.68333,587
12.69167,589
12.70000,591
12.70833,595
12.71667,599
12.72500,605
12.73333,613
12.74167,623
12.75000,635
12.75833,649
12.76667,665
12.77500,684
12.78333,707
12.79167,732
12.80000,761
12.80833,794
12.81667,830
12.82500,869
12.83333,914
12.84167,963
12.85000,1016
12.85833,1074
12.86667,1137
12.87500,1205
12.88333,1278
12.89167,1356
12.90000,1440
12.90833,1530
12.91667,1625
12.92500,1726
12.93333,1832
12.94167,1944
12.95000,2061
12.95833,2185
12.96667,2314
12.97500,2449
12.98333,2590
12.99167,2736
13.00000,2888
13.00833,3046
13.01667,3210
13.02500,3380
13.03333,3555
13.04167,3736
13.05000,3923
13.05833,4115
13.06667,4311
13.07500,4514
13.08333,4722
13.09167,4935
13.10000,5153
13.10833,5376
13.11667,5604
13.12500,5837
13.13333,6075
13.14167,6317
13.15000,6564
13.15833,6816
13.16667,7072
13.17500,7332
13.18333,7595
13.19167,7863
13.20000,8135
13.20833,8411
13.21667,8690
13.22500,8973
13.23333,9260
13.24167,9551
13.25000,9844
13.25833,10142
13.26667,10442
13.27500,10746
13.28333,11052
13.29167,11362
13.30000,11674
13.30833,11990
13.31667,12308
13.32500,12630
13.33333,12954
13.34167,13282
13.35000,13613
13.35833,13946
13.36667,14282
13.37500,14620
13.38333,14962
13.39167,15306
13.40000,15652
13.40833,16002
13.41667,16355
13.42500,16710
13.43333,17068
13.44167,17429
13.45000,17792
13.45833,18158
13.46667,18527
13.47500,18899
13.48333,19274
13.49167,19653
13.50000,20034
13.50833,20418
13.51667,20805
13.52500,21195
13.53333,21588
13.54167,21984
13.55000,22383
13.55833,22785
13.56667,23191
13.57500,23599
13.58333,24011
13.59167,24426
13.60000,24845
13.60833,25266
13.61667,25691
13.62500,26119
13.63333,26551
13.64167,26986
13.65000,27425
13.65833,27867
13.66667,28313
13.67500,28762
13.68333,29216
13.69167,29673
13.70000,30133
13.70833,30598
13.71667,31066
13.72500,31538
13.73333,32013
13.74167,32493
13.75000,32977
13.75833,33464
13.76667,33956
13.77500,34451
13.78333,34951
13.79167,35455
13.80000,35964
13.80833,36476
13.81667,36993
13.82500,37514
13.83333,38040
13.84167,38570
13.85000,39104
13.85833,39643
13.86667,40186
13.87500,40734
13.88333,41286
13.89167,41843
13.90000,42405
13.90833,42971
13.91667,43543
13.92500,44119
13.93333,44700
13.94167,45287
13.95000,45878
13.95833,46475
13.96667,47076
13.97500,47683
13.98333,48294
13.99167,48911
14.00000,49534
14.00833,50161
14.01667,50795
14.02500,51434
14.03333,52079
14.04167,52730
14.05000,53386
14.05833,54048
14.06667,54716
14.07500,55390
14.08333,56070
14.09167,56756
14.10000,57448
14.10833,58146
14.11667,58851
14.12500,59562
14.13333,60280
14.14167,61004
14.15000,61736
14.15833,62473
14.16667,63218
14.17500,63969
14.18333,64727
14.19167,65493
14.20000,66265
14.20833,67046
14.21667,67833
14.22500,68628
14.23333,69428
14.24167,70234
14.25000,71044
14.25833,71855
14.26667,72663
14.27500,73463
14.28333,74248
14.29167,75010
14.30000,75739
14.30833,76424
14.31667,77054
14.32500,77615
14.33333,78096
14.34167,78483
14.35000,78765
14.35833,78932
14.36667,78975
14.37500,78888
14.38333,78663
14.39167,78298
14.40000,77789
14.40833,77133
14.41667,76329
14.42500,75376
14.43333,74270
14.44167,73010
14.45000,71594
14.45833,70020
14.46667,68287
14.47500,66396
14.48333,64347
14.49167,62146
14.50000,59800
14.50833,57321
14.51667,54722
14.52500,52022
14.53333,49244
14.54167,46411
14.55000,43550
14.55833,40686
14.56667,37849
14.57500,35063
14.58333,32353
14.59167,29741
14.60000,27246
14.60833,24883
14.61667,22663
14.62500,20593
14.63333,18678
14.64167,16918
14.65000,15309
14.65833,13848
14.66667,12528
14.67500,11340
14.68333,10276
14.69167,9326
14.70000,8481
14.70833,7730
14.71667,7064
14.72500,6475
14.73333,5954
14.74167,5493
14.75000,5086
14.75833,4726
14.76667,4407
14.77500,4124
14.78333,3873
14.79167,3650
14.80000,3450
14.80833,3271
14.81667,3110
14.82500,2965
14.83333,2835
14.84167,2716
14.85000,2608
14.85833,2510
14.86667,2419
14.87500,2336
14.88333,2259
14.89167,2188
14.90000,2122
14.90833,2060
14.91667,2003
14.92500,1948
14.93333,1897
14.94167,1849
14.95000,1803
14.95833,1760
14.96667,1720
14.97500,1681
14.98333,1645
14.99167,1611
15.00000,1578
15.00833,1546
15.01667,1516
15.02500,1488
15.03333,1461
15.04167,1435
15.05000,1411
15.05833,1388
15.06667,1366
15.07500,1344
15.08333,1324
15.09167,1305
15.10000,1287
15.10833,1270
15.11667,1255
15.12500,1240
15.13333,1225
15.14167,1212
15.15000,1200
15.15833,1188
15.16667,1179
15.17500,1170
15.18333,1163
15.19167,1158
15.20000,1155
15.20833,1154
15.21667,1156
15.22500,1161
15.23333,1171
15.24167,1185
15.25000,1204
15.25833,1231
15.26667,1266
15.27500,1310
15.28333,1366
15.29167,1434
15.30000,1518
15.30833,1620
15.31667,1741
15.32500,1884
15.33333,2053
15.34167,2251
15.35000,2480
15.35833,2745
15.36667,3049
15.37500,3395
15.38333,3787
15.39167,4228
15.40000,4722
15.40833,5272
15.41667,5881
15.42500,6552
15.43333,7287
15.44167,8088
15.45000,8956
15.45833,9893
15.46667,10899
15.47500,11973
15.48333,13114
15.49167,14319
15.50000,15588
15.50833,16916
15.51667,18298
15.52500,19732
15.53333,21210
15.54167,22727
15.55000,24276
15.55833,25851
15.56667,27444
15.57500,29046
15.58333,30651
15.59167,32250
15.60000,33835
15.60833,35399
15.61667,36935
15.62500,38434
15.63333,39889
15.64167,41295
15.65000,42645
15.65833,43935
15.66667,45157
15.67500,46309
15.68333,47385
15.69167,48383
15.70000,49300
15.70833,50134
15.71667,50881
15.72500,51541
15.73333,52112
15.74167,52594
15.75000,52986
15.75833,53288
15.76667,53500
15.77500,53622
15.78333,53655
15.79167,53599
15.80000,53456
15.80833,53227
15.81667,52912
15.82500,52514
15.83333,52034
15.84167,51474
15.85000,50838
15.85833,50128
15.86667,49347
15.87500,48497
15.88333,47584
15.89167,46609
15.90000,45578
15.90833,44495
15.91667,43364
15.92500,42191
15.93333,40979
15.94167,39735
15.95000,38464
15.95833,37170
15.96667,35859
15.97500,34536
15.98333,33206
15.99167,31875
16.00000,30546
16.00833,29226
16.01667,27919
16.02500,26628
16.03333,25358
16.04167,24112
16.05000,22895
16.05833,21707
16.06667,20553
16.07500,19435
16.08333,18354
16.09167,17312
16.10000,16311
16.10833,15352
16.11667,14434
16.12500,13558
16.13333,12725
16.14167,11935
16.15000,11187
16.15833,10479
16.16667,9813
16.17500,9185
16.18333,8596
16.19167,8043
16.20000,7527
16.20833,7045
16.21667,6595
16.22500,6177
16.23333,5789
16.24167,5429
16.25000,5096
16.25833,4787
16.26667,4502
16.27500,4240
16.28333,3998
16.29167,3775
16.30000,3570
16.30833,3381
16.31667,3208
16.32500,3048
16.33333,2902
16.34167,2768
16.35000,2644
16.35833,2531
16.36667,2428
16.37500,2333
16.38333,2245
16.39167,2165
16.40000,2090
16.40833,2022
16.41667,1959
16.42500,1901
16.43333,1847
16.44167,1797
16.45000,1750
16.45833,1707
16.46667,1667
16.47500,1630
16.48333,1594
16.49167,1561
16.50000,1530
16.50833,1500
16.51667,1472
16.52500,1444
16.53333,1418
16.54167,1393
16.55000,1369
16.55833,1346
16.56667,1323
16.57500,1301
16.58333,1279
16.59167,1258
16.60000,1238
16.60833,1218
16.61667,1198
16.62500,1179
16.63333,1160
16.64167,1141
16.65000,1124
16.65833,1106
16.66667,1088
16.67500,1071
16.68333,1054
16.69167,1037
16.70000,1021
16.70833,1005
16.71667,990
16.72500,975
16.73333,960
16.74167,946
16.75000,933
16.75833,920
16.76667,907
16.77500,895
16.78333,883
16.79167,872
16.80000,861
16.80833,850
16.81667,840
16.82500,830
16.83333,821
16.84167,813
16.85000,805
16.85833,797
16.86667,790
16.87500,783
16.88333,776
16.89167,770
16.90000,764
16.90833,758
16.91667,753
16.92500,748
16.93333,743
16.94167,738
16.95000,734
16.95833,730
16.96667,727
16.97500,723
16.98333,720
16.99167,716
17.00000,713
17.00833,710
17.01667,707
17.02500,705
17.03333,702
17.04167,700
17.05000,697
17.05833,695
17.06667,692
17.07500,690
17.08333,688
17.09167,687
17.10000,685
17.10833,684
17.11667,682
17.12500,681
17.13333,679
17.14167,677
17.15000,675
17.15833,674
17.16667,673
17.17500,672
17.18333,670
17.19167,669
17.20000,668
17.20833,667
17.21667,666
17.22500,664
17.23333,663
17.24167,662
17.25000,660
17.25833,658
17.26667,657
17.27500,655
17.28333,654
17.29167,653
17.30000,652
17.30833,650
17.31667,649
17.32500,648
17.33333,647
17.34167,646
17.35000,645
17.35833,644
17.36667,643
17.37500,642
17.38333,641
17.39167,640
17.40000,640
17.40833,639
17.41667,639
17.42500,640
17.43333,641
17.44167,641
17.45000,642
17.45833,643
17.46667,644
17.47500,646
17.48333,648
17.49167,650
17.50000,652
17.50833,655
17.51667,658
17.52500,661
17.53333,665
17.54167,668
17.55000,673
17.55833,677
17.56667,682
17.57500,686
17.58333,691
17.59167,696
17.60000,701
17.60833,706
17.61667,712
17.62500,718
17.63333,724
17.64167,731
17.65000,737
17.65833,743
17.66667,748
17.67500,754
17.68333,760
17.69167,766
17.70000,772
17.70833,778
17.71667,784
17.72500,789
17.73333,795
17.74167,800
17.75000,805
17.75833,810
17.76667,814
17.77500,819
17.78333,823
17.79167,827
17.80000,831
17.80833,834
17.81667,837
17.82500,839
17.83333,842
17.84167,844
17.85000,845
17.85833,847
17.86667,848
17.87500,848
17.88333,849
17.89167,849
17.90000,849
17.90833,848
17.91667,847
17.92500,845
17.93333,843
17.94167,840
17.95000,836
17.95833,833
17.96667,830
17.97500,826
17.98333,822
17.99167,817
18.00000,812
18.00833,807
18.01667,801
18.02500,794
18.03333,788
18.04167,781
18.05000,774
18.05833,767
18.06667,760
18.07500,752
18.08333,745
18.09167,737
18.10000,729
18.10833,720
18.11667,712
18.12500,704
18.13333,696
18.14167,687
18.15000,679
18.15833,671
18.16667,662
18.17500,654
18.18333,646
18.19167,638
18.20000,630
18.20833,622
18.21667,615
18.22500,608
18.23333,601
18.24167,594
18.25000,587
18.25833,580
18.26667,573
18.27500,567
18.28333,561
18.29167,555
18.30000,549
18.30833,544
18.31667,539
18.32500,534
18.33333,529
18.34167,525
18.35000,521
18.35833,518
18.36667,514
18.37500,511
18.38333,508
18.39167,506
18.40000,504
18.40833,502
18.41667,500
18.42500,499
18.43333,498
18.44167,498
18.45000,497
18.45833,497
18.46667,498
18.47500,498
18.48333,499
18.49167,499
18.50000,500
18.50833,501
18.51667,503
18.52500,505
18.53333,508
18.54167,510
18.55000,513
18.55833,516
18.56667,519
18.57500,522
18.58333,525
18.59167,529
18.60000,533
18.60833,537
18.61667,541
18.62500,545
18.63333,550
18.64167,555
18.65000,559
18.65833,564
18.66667,569
18.67500,573
18.68333,578
18.69167,584
18.70000,589
18.70833,594
18.71667,599
18.72500,605
18.73333,610
18.74167,616
18.75000,621
18.75833,626
18.76667,631
18.77500,636
18.78333,642
18.79167,647
18.80000,653
18.80833,658
18.81667,663
18.82500,669
18.83333,674
18.84167,679
18.85000,684
18.85833,689
18.86667,694
18.87500,699
18.88333,703
18.89167,708
18.90000,712
18.90833,717
18.91667,721
18.92500,724
18.93333,728
18.94167,731
18.95000,735
18.95833,738
18.96667,741
18.97500,744
18.98333,747
18.99167,749
19.00000,751
19.00833,752
19.01667,754
19.02500,755
19.03333,757
19.04167,758
19.05000,759
19.05833,759
19.06667,759
19.07500,759
19.08333,759
19.09167,759
19.10000,758
19.10833,758
19.11667,757
19.12500,756
19.13333,754
19.14167,752
19.15000,750
19.15833,748
19.16667,745
19.17500,742
19.18333,740
19.19167,736
19.20000,733
19.20833,730
19.21667,726
19.22500,722
19.23333,718
19.24167,713
19.25000,709
19.25833,705
19.26667,701
19.27500,697
19.28333,692
19.29167,688
19.30000,683
19.30833,678
19.31667,673
19.32500,668
19.33333,662
19.34167,657
19.35000,652
19.35833,646
19.36667,640
19.37500,635
19.38333,629
19.39167,624
19.40000,619
19.40833,613
19.41667,608
19.42500,602
19.43333,597
19.44167,591
19.45000,585
19.45833,580
19.46667,574
19.47500,568
19.48333,563
19.49167,558
19.50000,553
19.50833,548
19.51667,543
19.52500,538
19.53333,533
19.54167,528
19.55000,523
19.55833,519
19.56667,514
19.57500,510
19.58333,506
19.59167,501
19.60000,497
19.60833,493
19.61667,489
19.62500,485
19.63333,481
19.64167,478
19.65000,474
19.65833,471
19.66667,468
19.67500,465
19.68333,462
19.69167,460
19.70000,458
19.70833,456
19.71667,455
19.72500,453
19.73333,452
19.74167,451
19.75000,451
19.75833,451
19.76667,451
19.77500,452
19.78333,453
19.79167,454
19.80000,455
19.80833,457
19.81667,460
19.82500,463
19.83333,467
19.84167,472
19.85000,477
19.85833,483
19.86667,489
19.87500,495
19.88333,503
19.89167,510
19.90000,519
19.90833,528
19.91667,539
19.92500,550
19.93333,561
19.94167,572
19.95000,583
19.95833,595
19.96667,608
19.97500,621
19.98333,635
19.99167,649
20.00000,663
20.00833,678
20.01667,693
20.02500,708
20.03333,722
20.04167,738
20.05000,753
20.05833,769
20.06667,784
20.07500,800
20.08333,815
20.09167,830
20.10000,844
20.10833,858
20.11667,873
20.12500,886
20.13333,899
20.14167,912
20.15000,925
20.15833,936
20.16667,947
20.17500,958
20.18333,969
20.19167,978
20.20000,987
20.20833,996
20.21667,1004
20.22500,1011
20.23333,1018
20.24167,1024
20.25000,1029
20.25833,1034
20.26667,1038
20.27500,1040
20.28333,1043
20.29167,1045
20.30000,1046
20.30833,1046
20.31667,1045
20.32500,1045
20.33333,1043
20.34167,1041
20.35000,1038
20.35833,1034
20.36667,1030
20.37500,1025
20.38333,1020
20.39167,1014
20.40000,1007
20.40833,1000
20.41667,993
20.42500,985
20.43333,977
20.44167,968
20.45000,959
20.45833,950
20.46667,940
20.47500,930
20.48333,920
20.49167,909
20.50000,899
20.50833,889
20.51667,878
20.52500,868
20.53333,858
20.54167,847
20.55000,837
20.55833,826
20.56667,816
20.57500,806
20.58333,797
20.59167,787
20.60000,778
20.60833,770
20.61667,762
20.62500,754
20.63333,746
20.64167,738
20.65000,731
20.65833,725
20.66667,719
20.67500,713
20.68333,708
20.69167,703
20.70000,699
20.70833,695
20.71667,692
20.72500,689
20.73333,687
20.74167,684
20.75000,682
20.75833,680
20.76667,679
20.77500,677
20.78333,676
20.79167,675
20.80000,675
20.80833,675
20.81667,674
20.82500,674
20.83333,675
20.84167,675
20.85000,676
20.85833,677
20.86667,678
20.87500,679
20.88333,680
20.89167,681
20.90000,682
20.90833,684
20.91667,685
20.92500,687
20.93333,688
20.94167,689
20.95000,691
20.95833,692
20.96667,693
20.97500,694
20.98333,696
20.99167,697
21.00000,698
21.00833,699
21.01667,700
21.02500,701
21.03333,701
21.04167,702
21.05000,702
21.05833,702
21.06667,702
21.07500,701
21.08333,701
21.09167,700
21.10000,700
21.10833,699
21.11667,698
21.12500,697
21.13333,696
21.14167,695
21.15000,693
21.15833,692
21.16667,690
21.17500,688
21.18333,686
21.19167,683
21.20000,681
21.20833,678
21.21667,676
21.22500,673
21.23333,671
21.24167,668
21.25000,665
21.25833,663
21.26667,661
21.27500,658
21.28333,655
21.29167,653
21.30000,650
21.30833,647
21.31667,645
21.32500,642
21.33333,640
21.34167,638
21.35000,636
21.35833,634
21.36667,632
21.37500,631
21.38333,630
21.39167,629
21.40000,629
21.40833,628
21.41667,629
21.42500,629
21.43333,630
21.44167,632
21.45000,634
21.45833,636
21.46667,639
21.47500,643
21.48333,647
21.49167,651
21.50000,657
21.50833,663
21.51667,670
21.52500,677
21.53333,683
21.54167,691
21.55000,699
21.55833,709
21.56667,719
21.57500,729
21.58333,740
21.59167,751
21.60000,762
21.60833,773
21.61667,784
21.62500,796
21.63333,807
21.64167,819
21.65000,831
21.65833,843
21.66667,854
21.67500,866
21.68333,877
21.69167,888
21.70000,899
21.70833,910
21.71667,920
21.72500,929
21.73333,938
21.74167,947
21.75000,955
21.75833,963
21.76667,970
21.77500,976
21.78333,983
21.79167,988
21.80000,994
21.80833,998
21.81667,1003
21.82500,1007
21.83333,1011
21.84167,1013
21.85000,1016
21.85833,1017
21.86667,1018
21.87500,1018
21.88333,1019
21.89167,1018
21.90000,1017
21.90833,1015
21.91667,1013
21.92500,1010
21.93333,1007
21.94167,1003
21.95000,999
21.95833,994
21.96667,989
21.97500,982
21.98333,976
21.99167,969
22.00000,962
22.00833,954
22.01667,945
22.02500,935
22.03333,925
22.04167,914
22.05000,903
22.05833,892
22.06667,879
22.07500,867
22.08333,854
22.09167,840
22.10000,826
22.10833,812
22.11667,797
22.12500,782
22.13333,767
22.14167,752
22.15000,736
22.15833,721
22.16667,706
22.17500,690
22.18333,675
22.19167,660
22.20000,644
22.20833,629
22.21667,614
22.22500,599
22.23333,584
22.24167,569
22.25000,555
22.25833,542
22.26667,528
22.27500,515
22.28333,502
22.29167,489
22.30000,478
22.30833,466
22.31667,455
22.32500,445
22.33333,435
22.34167,425
22.35000,416
22.35833,407
22.36667,399
22.37500,391
22.38333,384
22.39167,377
22.40000,370
22.40833,364
22.41667,359
22.42500,353
22.43333,348
22.44167,343
22.45000,338
22.45833,334
22.46667,330
22.47500,326
22.48333,323
22.49167,320
22.50000,317
22.50833,315
22.51667,313
22.52500,310
22.53333,308
22.54167,306
22.55000,305
22.55833,304
22.56667,303
22.57500,302
22.58333,301
22.59167,300
22.60000,300
22.60833,299
22.61667,298
22.62500,298
22.63333,298
22.64167,298
22.65000,297
22.65833,297
22.66667,297
22.67500,297
22.68333,298
22.69167,298
22.70000,298
22.70833,298
22.71667,299
22.72500,299
22.73333,299
22.74167,300
22.75000,300
22.75833,301
22.76667,302
22.77500,303
22.78333,303
22.79167,304
22.80000,304
22.80833,305
22.81667,305
22.82500,306
22.83333,307
22.84167,308
22.85000,309
22.85833,310
22.86667,311
22.87500,312
22.88333,313
22.89167,314
22.90000,315
22.90833,316
22.91667,317
22.92500,318
22.93333,319
22.94167,321
22.95000,322
22.95833,323
22.96667,324
22.97500,325
22.98333,325
22.99167,326
23.00000,327
23.00833,328
23.01667,329
23.02500,330
23.03333,331
23.04167,332
23.05000,333
23.05833,334
23.06667,335
23.07500,335
23.08333,336
23.09167,337
23.10000,337
23.10833,339
23.11667,340
23.12500,341
23.13333,342
23.14167,343
23.15000,343
23.15833,344
23.16667,345
23.17500,345
23.18333,346
23.19167,346
23.20000,347
23.20833,348
23.21667,349
23.22500,349
23.23333,350
23.24167,351
23.25000,352
23.25833,353
23.26667,353
23.27500,354
23.28333,355
23.29167,355
23.30000,356
23.30833,356
23.31667,356
23.32500,357
23.33333,358
23.34167,359
23.35000,360
23.35833,361
23.36667,362
23.37500,363
23.38333,363
23.39167,364
23.40000,364
23.40833,365
23.41667,365
23.42500,366
23.43333,366
23.44167,367
23.45000,367
23.45833,368
23.46667,369
23.47500,370
23.48333,371
23.49167,371
23.50000,372
23.50833,372
23.51667,373
23.52500,373
23.53333,374
23.54167,374
23.55000,374
23.55833,374
23.56667,375
23.57500,375
23.58333,375
23.59167,375
23.60000,376
23.60833,376
23.61667,377
23.62500,377
23.63333,377
23.64167,377
23.65000,377
23.65833,377
23.66667,377
23.67500,377
23.68333,377
23.69167,377
23.70000,377
23.70833,377
23.71667,377
23.72500,376
23.73333,376
23.74167,375
23.75000,375
23.75833,375
23.76667,374
23.77500,373
23.78333,373
23.79167,372
23.80000,372
23.80833,371
23.81667,370
23.82500,370
23.83333,368
23.84167,368
23.85000,367
23.85833,366
23.86667,366
23.87500,365
23.88333,364
23.89167,363
23.90000,362
23.90833,361
23.91667,360
23.92500,359
23.93333,358
23.94167,357
23.95000,356
23.95833,355
23.96667,354
23.97500,353
23.98333,352
23.99167,351
24.00000,350
24.00833,349
24.01667,348
24.02500,346
24.03333,345
24.04167,343
24.05000,342
24.05833,341
24.06667,341
24.07500,340
24.08333,339
24.09167,338
24.10000,337
24.10833,336
24.11667,335
24.12500,334
24.13333,333
24.14167,332
24.15000,331
24.15833,330
24.16667,329
24.17500,328
24.18333,328
24.19167,326
24.20000,325
24.20833,324
24.21667,323
24.22500,323
24.23333,322
24.24167,321
24.25000,321
24.25833,320
24.26667,320
24.27500,319
24.28333,319
24.29167,318
24.30000,318
24.30833,318
24.31667,318
24.32500,319
24.33333,320
24.34167,321
24.35000,322
24.35833,324
24.36667,326
24.37500,328
24.38333,331
24.39167,335
24.40000,338
24.40833,343
24.41667,348
24.42500,354
24.43333,361
24.44167,369
24.45000,378
24.45833,387
24.46667,398
24.47500,410
24.48333,423
24.49167,438
24.50000,454
24.50833,471
24.51667,491
24.52500,512
24.53333,535
24.54167,560
24.55000,587
24.55833,617
24.56667,648
24.57500,681
24.58333,717
24.59167,755
24.60000,795
24.60833,837
24.61667,882
24.62500,930
24.63333,979
24.64167,1031
24.65000,1085
24.65833,1142
24.66667,1200
24.67500,1260
24.68333,1323
24.69167,1387
24.70000,1453
24.70833,1520
24.71667,1588
24.72500,1658
24.73333,1728
24.74167,1799
24.75000,1870
24.75833,1943
24.76667,2016
24.77500,2088
24.78333,2161
24.79167,2233
24.80000,2305
24.80833,2376
24.81667,2446
24.82500,2515
24.83333,2583
24.84167,2650
24.85000,2715
24.85833,2779
24.86667,2841
24.87500,2901
24.88333,2960
24.89167,3017
24.90000,3073
24.90833,3126
24.91667,3177
24.92500,3225
24.93333,3272
24.94167,3316
24.95000,3358
24.95833,3399
24.96667,3437
24.97500,3472
24.98333,3506
24.99167,3537
25.00000,3566
25.00833,3593
25.01667,3617
25.02500,3640
25.03333,3659
25.04167,3676
25.05000,3691
25.05833,3703
25.06667,3713
25.07500,3720
25.08333,3725
25.09167,3728
25.10000,3727
25.10833,3724
25.11667,3718
25.12500,3709
25.13333,3698
25.14167,3685
25.15000,3668
25.15833,3648
25.16667,3625
25.17500,3600
25.18333,3572
25.19167,3541
25.20000,3507
25.20833,3470
25.21667,3430
25.22500,3388
25.23333,3343
25.24167,3296
25.25000,3246
25.25833,3195
25.26667,3141
25.27500,3086
25.28333,3028
25.29167,2969
25.30000,2909
25.30833,2847
25.31667,2783
25.32500,2718
25.33333,2652
25.34167,2586
25.35000,2519
25.35833,2452
25.36667,2384
25.37500,2316
25.38333,2249
25.39167,2182
25.40000,2114
25.40833,2048
25.41667,1981
25.42500,1916
25.43333,1851
25.44167,1787
25.45000,1725
25.45833,1664
25.46667,1604
25.47500,1545
25.48333,1488
25.49167,1433
25.50000,1379
25.50833,1328
25.51667,1277
25.52500,1229
25.53333,1182
25.54167,1136
25.55000,1093
25.55833,1051
25.56667,1011
25.57500,972
25.58333,936
25.59167,901
25.60000,867
25.60833,835
25.61667,804
25.62500,775
25.63333,748
25.64167,722
25.65000,697
25.65833,674
25.66667,652
25.67500,631
25.68333,611
25.69167,592
25.70000,574
25.70833,558
25.71667,542
25.72500,527
25.73333,513
25.74167,499
25.75000,486
25.75833,474
25.76667,462
25.77500,452
25.78333,441
25.79167,431
25.80000,422
25.80833,413
25.81667,404
25.82500,396
25.83333,389
25.84167,381
25.85000,374
25.85833,367
25.86667,360
25.87500,354
25.88333,347
25.89167,341
25.90000,335
25.90833,329
25.91667,324
25.92500,318
25.93333,313
25.94167,307
25.95000,301
25.95833,296
25.96667,291
25.97500,286
25.98333,281
25.99167,276
26.00000,271
26.00833,266
26.01667,261
26.02500,256
26.03333,251
26.04167,247
26.05000,242
26.05833,238
26.06667,233
26.07500,229
26.08333,224
26.09167,220
26.10000,216
26.10833,211
26.11667,207
26.12500,203
26.13333,200
26.14167,196
26.15000,192
26.15833,189
26.16667,186
26.17500,182
26.18333,179
26.19167,176
26.20000,173
26.20833,170
26.21667,167
26.22500,164
26.23333,161
26.24167,158
26.25000,156
26.25833,153
26.26667,151
26.27500,149
26.28333,147
26.29167,145
26.30000,143
26.30833,142
26.31667,140
26.32500,139
26.33333,137
26.34167,136
26.35000,135
26.35833,134
26.36667,132
26.37500,131
26.38333,129
26.39167,129
26.40000,128
26.40833,127
26.41667,126
26.42500,125
26.43333,125
26.44167,125
26.45000,124
26.45833,123
26.46667,123
26.47500,122
26.48333,121
26.49167,121
26.50000,121
26.50833,121
26.51667,121
26.52500,121
26.53333,121
26.54167,121
26.55000,121
26.55833,121
26.56667,121
26.57500,121
26.58333,121
26.59167,121
26.60000,121
26.60833,121
26.61667,121
26.62500,121
26.63333,121
26.64167,121
26.65000,121
26.65833,121
26.66667,122
26.67500,122
26.68333,122
26.69167,122
26.70000,122
26.70833,122
26.71667,122
26.72500,122
26.73333,123
26.74167,123
26.75000,124
26.75833,124
26.76667,125
26.77500,126
26.78333,126
26.79167,126
26.80000,126
26.80833,126
26.81667,126
26.82500,126
26.83333,126
26.84167,126
26.85000,126
26.85833,126
26.86667,127
26.87500,127
26.88333,127
26.89167,127
26.90000,127
26.90833,127
26.91667,127
26.92500,127
26.93333,128
26.94167,129
26.95000,129
26.95833,129
26.96667,130
26.97500,130
26.98333,130
26.99167,130
27.00000,131
27.00833,131
27.01667,131
27.02500,131
27.03333,131
27.04167,131
27.05000,131
27.05833,131
27.06667,131
27.07500,132
27.08333,132
27.09167,132
27.10000,132
27.10833,132
27.11667,132
27.12500,132
27.13333,133
27.14167,133
27.15000,133
27.15833,132
27.16667,133
27.17500,133
27.18333,133
27.19167,133
27.20000,133
27.20833,133
27.21667,133
27.22500,133
27.23333,134
27.24167,134
27.25000,134
27.25833,134
27.26667,134
27.27500,134
27.28333,134
27.29167,134
27.30000,134
27.30833,134
27.31667,133
27.32500,133
27.33333,133
27.34167,133
27.35000,133
27.35833,133
27.36667,133
27.37500,133
27.38333,132
27.39167,132
27.40000,132
27.40833,132
27.41667,132
27.42500,132
27.43333,131
27.44167,131
27.45000,131
27.45833,131
27.46667,131
27.47500,131
27.48333,131
27.49167,130
27.50000,130
27.50833,130
27.51667,129
27.52500,129
27.53333,129
27.54167,129
27.55000,128
27.55833,128
27.56667,127
27.57500,126
27.58333,126
27.59167,126
27.60000,125
27.60833,125
27.61667,124
27.62500,124
27.63333,123
27.64167,122
27.65000,122
27.65833,121
27.66667,121
27.67500,121
27.68333,120
27.69167,119
27.70000,118
27.70833,117
27.71667,117
27.72500,116
27.73333,115
27.74167,114
27.75000,113
27.75833,112
27.76667,112
27.77500,111
27.78333,110
27.79167,110
27.80000,109
27.80833,109
27.81667,108
27.82500,108
27.83333,107
27.84167,106
27.85000,105
27.85833,105
27.86667,105
27.87500,105
27.88333,104
27.89167,104
27.90000,103
27.90833,103
27.91667,103
27.92500,102
27.93333,101
27.94167,101
27.95000,101
27.95833,101
27.96667,101
27.97500,101
27.98333,101
27.99167,100
28.00000,100
28.00833,100
28.01667,100
28.02500,100
28.03333,100
28.04167,100
28.05000,100
28.05833,100
28.06667,100
28.07500,100
28.08333,100
28.09167,100
28.10000,100
28.10833,100
28.11667,100
28.12500,100
28.13333,100
28.14167,99
28.15000,99
28.15833,99
28.16667,99
28.17500,100
28.18333,100
28.19167,100
28.20000,100
28.20833,100
28.21667,100
28.22500,101
28.23333,101
28.24167,101
28.25000,102
28.25833,102
28.26667,102
28.27500,102
28.28333,102
28.29167,103
28.30000,104
28.30833,104
28.31667,105
28.32500,105
28.33333,105
28.34167,106
28.35000,107
28.35833,109
28.36667,110
28.37500,112
28.38333,114
28.39167,117
28.40000,119
28.40833,122
28.41667,126
28.42500,129
28.43333,133
28.44167,137
28.45000,142
28.45833,147
28.46667,153
28.47500,160
28.48333,167
28.49167,174
28.50000,183
28.50833,192
28.51667,202
28.52500,213
28.53333,225
28.54167,238
28.55000,252
28.55833,267
28.56667,283
28.57500,300
28.58333,319
28.59167,339
28.60000,360
28.60833,382
28.61667,406
28.62500,432
28.63333,458
28.64167,486
28.65000,516
28.65833,547
28.66667,579
28.67500,613
28.68333,649
28.69167,686
28.70000,724
28.70833,764
28.71667,805
28.72500,847
28.73333,891
28.74167,936
28.75000,983
28.75833,1031
28.76667,1080
28.77500,1130
28.78333,1181
28.79167,1233
28.80000,1285
28.80833,1338
28.81667,1392
28.82500,1446
28.83333,1500
28.84167,1555
28.85000,1610
28.85833,1664
28.86667,1719
28.87500,1774
28.88333,1828
28.89167,1882
28.90000,1936
28.90833,1989
28.91667,2041
28.92500,2092
28.93333,2142
28.94167,2191
28.95000,2239
28.95833,2286
28.96667,2332
28.97500,2376
28.98333,2419
28.99167,2460
29.00000,2500
29.00833,2538
29.01667,2575
29.02500,2610
29.03333,2644
29.04167,2676
29.05000,2706
29.05833,2734
29.06667,2761
29.07500,2786
29.08333,2810
29.09167,2831
29.10000,2851
29.10833,2869
29.11667,2886
29.12500,2901
29.13333,2915
29.14167,2927
29.15000,2938
29.15833,2946
29.16667,2954
29.17500,2959
29.18333,2964
29.19167,2967
29.20000,2970
29.20833,2970
29.21667,2969
29.22500,2966
29.23333,2961
29.24167,2956
29.25000,2949
29.25833,2941
29.26667,2931
29.27500,2920
29.28333,2907
29.29167,2893
29.30000,2878
29.30833,2860
29.31667,2842
29.32500,2822
29.33333,2801
29.34167,2778
29.35000,2754
29.35833,2728
29.36667,2701
29.37500,2672
29.38333,2642
29.39167,2610
29.40000,2577
29.40833,2543
29.41667,2508
29.42500,2472
29.43333,2434
29.44167,2395
29.45000,2355
29.45833,2313
29.46667,2271
29.47500,2227
29.48333,2183
29.49167,2138
29.50000,2093
29.50833,2047
29.51667,2000
29.52500,1952
29.53333,1904
29.54167,1856
29.55000,1808
29.55833,1759
29.56667,1710
29.57500,1662
29.58333,1613
29.59167,1565
29.60000,1517
29.60833,1469
29.61667,1422
29.62500,1374
29.63333,1328
29.64167,1282
29.65000,1236
29.65833,1191
29.66667,1148
29.67500,1105
29.68333,1063
29.69167,1021
29.70000,981
29.70833,941
29.71667,903
29.72500,865
29.73333,829
29.74167,793
29.75000,759
29.75833,726
29.76667,694
29.77500,663
29.78333,633
29.79167,604
29.80000,577
29.80833,550
29.81667,525
29.82500,500
29.83333,477
29.84167,455
29.85000,433
29.85833,413
29.86667,393
29.87500,374
29.88333,356
29.89167,339
29.90000,323
29.90833,307
29.91667,293
29.92500,279
29.93333,266
29.94167,254
29.95000,242
29.95833,231
29.96667,221
29.97500,211
29.98333,201
29.99167,192
30.00000,184
30.00833,176
30.01667,168
30.02500,161
30.03333,154
30.04167,148
30.05000,141
30.05833,135
30.06667,130
30.07500,124
30.08333,118
30.09167,113
30.10000,107
30.10833,102
30.11667,98
30.12500,94
30.13333,91
30.14167,86
30.15000,82
30.15833,78
30.16667,75
30.17500,71
30.18333,68
30.19167,65
30.20000,62
30.20833,58
30.21667,55
30.22500,52
30.23333,48
30.24167,44
30.25000,41
30.25833,38
30.26667,35
30.27500,32
30.28333,29
30.29167,26
30.30000,24
30.30833,21
30.31667,18
30.32500,16
30.33333,13
30.34167,11
30.35000,9
30.35833,6
30.36667,4
30.37500,1
30.38333,-1
30.39167,-3
30.40000,-5
30.40833,-7
30.41667,-9
30.42500,-11
30.43333,-13
30.44167,-14
30.45000,-16
30.45833,-17
30.46667,-18
30.47500,-20
30.48333,-21
30.49167,-22
30.50000,-23
30.50833,-23
30.51667,-24
30.52500,-24
30.53333,-24
30.54167,-24
30.55000,-25
30.55833,-25
30.56667,-25
30.57500,-25
30.58333,-24
30.59167,-24
30.60000,-23
30.60833,-23
30.61667,-22
30.62500,-22
30.63333,-21
30.64167,-20
30.65000,-18
30.65833,-17
30.66667,-16
30.67500,-15
30.68333,-14
30.69167,-12
30.70000,-10
30.70833,-7
30.71667,-5
30.72500,-3
30.73333,-1
30.74167,1
30.75000,4
30.75833,6
30.76667,8
30.77500,11
30.78333,14
30.79167,17
30.80000,20
30.80833,23
30.81667,25
30.82500,29
30.83333,32
30.84167,35
30.85000,38
30.85833,42
30.86667,45
30.87500,48
30.88333,52
30.89167,55
30.90000,58
30.90833,61
30.91667,65
30.92500,68
30.93333,71
30.94167,75
30.95000,78
30.95833,81
30.96667,84
30.97500,87
30.98333,91
30.99167,94
31.00000,97
31.00833,100
31.01667,104
31.02500,106
31.03333,109
31.04167,112
31.05000,115
31.05833,117
31.06667,120
31.07500,122
31.08333,124
31.09167,127
31.10000,129
31.10833,131
31.11667,133
31.12500,136
31.13333,138
31.14167,141
31.15000,142
31.15833,144
31.16667,146
31.17500,147
31.18333,148
31.19167,150
31.20000,151
31.20833,152
31.21667,154
31.22500,155
31.23333,155
31.24167,156
31.25000,157
31.25833,158
31.26667,158
31.27500,158
31.28333,159
31.29167,159
31.30000,159
31.30833,159
31.31667,159
31.32500,159
31.33333,159
31.34167,159
31.35000,159
31.35833,158
31.36667,158
31.37500,157
31.38333,156
31.39167,156
31.40000,155
31.40833,154
31.41667,153
31.42500,153
31.43333,152
31.44167,151
31.45000,150
31.45833,149
31.46667,148
31.47500,147
31.48333,146
31.49167,145
31.50000,144
31.50833,143
31.51667,143
31.52500,142
31.53333,142
31.54167,141
31.55000,141
31.55833,140
31.56667,139
31.57500,139
31.58333,138
31.59167,138
31.60000,138
31.60833,138
31.61667,138
31.62500,138
31.63333,139
31.64167,139
31.65000,139
31.65833,140
31.66667,140
31.67500,141
31.68333,142
31.69167,143
31.70000,145
31.70833,146
31.71667,148
31.72500,149
31.73333,151
31.74167,153
31.75000,155
31.75833,158
31.76667,160
31.77500,163
31.78333,167
31.79167,170
31.80000,173
31.80833,176
31.81667,180
31.82500,183
31.83333,187
31.84167,191
31.85000,196
31.85833,200
31.86667,204
31.87500,209
31.88333,213
31.89167,218
31.90000,224
31.90833,228
31.91667,233
31.92500,238
31.93333,243
31.94167,248
31.95000,254
31.95833,259
31.96667,265
31.97500,270
31.98333,276
31.99167,281
32.00000,286
32.00833,292
32.01667,297
32.02500,302
32.03333,306
32.04167,311
32.05000,316
32.05833,322
32.06667,327
32.07500,332
32.08333,337
32.09167,342
32.10000,346
32.10833,351
32.11667,355
32.12500,360
32.13333,364
32.14167,368
32.15000,372
32.15833,376
32.16667,380
32.17500,383
32.18333,386
32.19167,390
32.20000,393
32.20833,397
32.21667,400
32.22500,403
32.23333,406
32.24167,409
32.25000,412
32.25833,414
32.26667,417
32.27500,419
32.28333,421
32.29167,423
32.30000,425
32.30833,427
32.31667,429
32.32500,430
32.33333,431
32.34167,433
32.35000,434
32.35833,435
32.36667,436
32.37500,437
32.38333,437
32.39167,438
32.40000,438
32.40833,439
32.41667,439
32.42500,439
32.43333,439
32.44167,439
32.45000,438
32.45833,438
32.46667,437
32.47500,436
32.48333,434
32.49167,433
32.50000,432
32.50833,430
32.51667,429
32.52500,427
32.53333,425
32.54167,423
32.55000,421
32.55833,419
32.56667,417
32.57500,415
32.58333,412
32.59167,410
32.60000,407
32.60833,404
32.61667,401
32.62500,398
32.63333,394
32.64167,391
32.65000,388
32.65833,385
32.66667,382
32.67500,379
32.68333,376
32.69167,373
32.70000,369
32.70833,366
32.71667,362
32.72500,359
32.73333,356
32.74167,353
32.75000,350
32.75833,347
32.76667,345
32.77500,342
32.78333,340
32.79167,338
32.80000,335
32.80833,332
32.81667,329
32.82500,327
32.83333,324
32.84167,321
32.85000,319
32.85833,317
32.86667,315
32.87500,314
32.88333,312
32.89167,311
32.90000,309
32.90833,308
32.91667,307
32.92500,306
32.93333,305
32.94167,304
32.95000,303
32.95833,302
32.96667,302
32.97500,301
32.98333,300
32.99167,299
33.00000,298
33.00833,297
33.01667,296
33.02500,296
33.03333,296
33.04167,296
33.05000,296
33.05833,295
33.06667,295
33.07500,295
33.08333,295
33.09167,295
33.10000,294
33.10833,294
33.11667,293
33.12500,292
33.13333,291
33.14167,291
33.15000,290
33.15833,290
33.16667,289
33.17500,289
33.18333,288
33.19167,288
33.20000,287
33.20833,287
33.21667,286
33.22500,286
33.23333,285
33.24167,284
33.25000,283
33.25833,282
33.26667,280
33.27500,279
33.28333,278
33.29167,277
33.30000,276
33.30833,275
33.31667,273
33.32500,272
33.33333,271
33.34167,269
33.35000,267
33.35833,265
33.36667,263
33.37500,261
33.38333,260
33.39167,258
33.40000,257
33.40833,255
33.41667,253
33.42500,251
33.43333,249
33.44167,246
33.45000,244
33.45833,242
33.46667,240
33.47500,237
33.48333,235
33.49167,232
33.50000,229
33.50833,226
33.51667,224
33.52500,221
33.53333,219
33.54167,216
33.55000,213
33.55833,210
33.56667,207
33.57500,204
33.58333,202
33.59167,199
33.60000,196
33.60833,193
33.61667,189
33.62500,186
33.63333,184
33.64167,181
33.65000,178
33.65833,176
33.66667,173
33.67500,170
33.68333,167
33.69167,164
33.70000,161
33.70833,157
33.71667,154
33.72500,150
33.73333,147
33.74167,145
33.75000,142
33.75833,140
33.76667,137
33.77500,134
33.78333,131
33.79167,127
33.80000,125
33.80833,122
33.81667,120
33.82500,117
33.83333,115
33.84167,112
33.85000,109
33.85833,106
33.86667,103
33.87500,100
33.88333,97
33.89167,94
33.90000,92
33.90833,89
33.91667,87
33.92500,85
33.93333,83
33.94167,81
33.95000,78
33.95833,76
33.96667,74
33.97500,72
33.98333,70
33.99167,68
34.00000,66
34.00833,64
34.01667,62
34.02500,61
34.03333,59
34.04167,57
34.05000,56
34.05833,55
34.06667,53
34.07500,51
34.08333,50
34.09167,48
34.10000,47
34.10833,45
34.11667,44
34.12500,42
34.13333,41
34.14167,40
34.15000,39
34.15833,38
34.16667,37
34.17500,36
34.18333,35
34.19167,34
34.20000,33
34.20833,31
34.21667,30
34.22500,30
34.23333,29
34.24167,29
34.25000,28
34.25833,27
34.26667,26
34.27500,26
34.28333,25
34.29167,24
34.30000,23
34.30833,22
34.31667,22
34.32500,21
34.33333,21
34.34167,20
34.35000,19
34.35833,19
34.36667,18
34.37500,18
34.38333,17
34.39167,17
34.40000,16
34.40833,15
34.41667,15
34.42500,14
34.43333,14
34.44167,13
34.45000,13
34.45833,12
34.46667,12
34.47500,11
34.48333,11
34.49167,11
34.50000,11
34.50833,11
34.51667,10
34.52500,10
34.53333,9
34.54167,9
34.55000,8
34.55833,8
34.56667,7
34.57500,7
34.58333,7
34.59167,7
34.60000,7
34.60833,6
34.61667,6
34.62500,5
34.63333,5
34.64167,5
34.65000,4
34.65833,4
34.66667,4
34.67500,4
34.68333,3
34.69167,3
34.70000,3
34.70833,2
34.71667,2
34.72500,2
34.73333,2
34.74167,1
34.75000,1
34.75833,1
34.76667,1
34.77500,0
34.78333,0
34.79167,-0
34.80000,-1
34.80833,-1
34.81667,-1
34.82500,-1
34.83333,-1
34.84167,-1
34.85000,-1
34.85833,-1
34.86667,-1
34.87500,-2
34.88333,-2
34.89167,-2
34.90000,-2
34.90833,-2
34.91667,-3
34.92500,-3
34.93333,-3
34.94167,-3
34.95000,-3
34.95833,-3
34.96667,-3
34.97500,-3
34.98333,-3
34.99167,-3
35.00000,-3
35.00833,-4
35.01667,-4
35.02500,-4
35.03333,-4
35.04167,-3
35.05000,-3
35.05833,-4
35.06667,-4
35.07500,-4
35.08333,-4
35.09167,-3
35.10000,-3
35.10833,-3
35.11667,-3
35.12500,-3
35.13333,-3
35.14167,-3
35.15000,-3
35.15833,-3
35.16667,-3
35.17500,-3
35.18333,-3
35.19167,-3
35.20000,-3
35.20833,-3
35.21667,-3
35.22500,-2
35.23333,-2
35.24167,-2
35.25000,-2
35.25833,-2
35.26667,-2
35.27500,-2
35.28333,-2
35.29167,-2
35.30000,-2
35.30833,-2
35.31667,-2
35.32500,-2
35.33333,-2
35.34167,-2
35.35000,-1
35.35833,-1
35.36667,-1
35.37500,-1
35.38333,-0
35.39167,-0
35.40000,0
35.40833,0
35.41667,1
35.42500,0
35.43333,0
35.44167,0
35.45000,1
35.45833,1
35.46667,1
35.47500,1
35.48333,1
35.49167,1
35.50000,1
35.50833,1
35.51667,1
35.52500,2
35.53333,2
35.54167,2
35.55000,2
35.55833,2
35.56667,2
35.57500,3
35.58333,3
35.59167,4
35.60000,4
35.60833,4
35.61667,3
35.62500,3
35.63333,3
35.64167,3
35.65000,3
35.65833,4
35.66667,4
35.67500,4
35.68333,5
35.69167,5
35.70000,4
35.70833,4
35.71667,4
35.72500,5
35.73333,5
35.74167,5
35.75000,5
35.75833,5
35.76667,5
35.77500,5
35.78333,5
35.79167,5
35.80000,5
35.80833,5
35.81667,6
35.82500,6
35.83333,6
35.84167,6
35.85000,6
35.85833,6
35.86667,7
35.87500,7
35.88333,7
35.89167,7
35.90000,7
35.90833,7
35.91667,7
35.92500,8
35.93333,8
35.94167,8
35.95000,9
35.95833,9
35.96667,9
35.97500,9
35.98333,9
35.99167,9
36.00000,10
36.00833,10
36.01667,11
36.02500,11
36.03333,11
36.04167,11
36.05000,11
36.05833,11
36.06667,11
36.07500,12
36.08333,12
36.09167,12
36.10000,12
36.10833,13
36.11667,14
36.12500,14
36.13333,15
36.14167,15
36.15000,15
36.15833,16
36.16667,16
36.17500,16
36.18333,17
36.19167,17
36.20000,17
36.20833,17
36.21667,17
36.22500,18
36.23333,18
36.24167,18
36.25000,18
36.25833,18
36.26667,18
36.27500,19
36.28333,19
36.29167,19
36.30000,19
36.30833,20
36.31667,20
36.32500,20
36.33333,21
36.34167,21
36.35000,21
36.35833,22
36.36667,22
36.37500,22
36.38333,22
36.39167,22
36.40000,22
36.40833,23
36.41667,23
36.42500,23
36.43333,23
36.44167,24
36.45000,25
36.45833,25
36.46667,25
36.47500,25
36.48333,25
36.49167,26
36.50000,26
36.50833,27
36.51667,27
36.52500,28
36.53333,28
36.54167,29
36.55000,29
36.55833,30
36.56667,31
36.57500,31
36.58333,31
36.59167,32
36.60000,32
36.60833,32
36.61667,33
36.62500,33
36.63333,33
36.64167,34
36.65000,34
36.65833,34
36.66667,34
36.67500,34
36.68333,35
36.69167,35
36.70000,36
36.70833,36
36.71667,37
36.72500,37
36.73333,38
36.74167,38
36.75000,39
36.75833,39
36.76667,40
36.77500,40
36.78333,41
36.79167,41
36.80000,42
36.80833,42
36.81667,43
36.82500,43
36.83333,44
36.84167,44
36.85000,45
36.85833,46
36.86667,47
36.87500,48
36.88333,48
36.89167,49
36.90000,49
36.90833,50
36.91667,50
36.92500,51
36.93333,51
36.94167,52
36.95000,52
36.95833,52
36.96667,53
36.97500,54
36.98333,55
36.99167,55
37.00000,56
37.00833,57
37.01667,58
37.02500,58
37.03333,59
37.04167,59
37.05000,60
37.05833,61
37.06667,61
37.07500,62
37.08333,63
37.09167,63
37.10000,64
37.10833,65
37.11667,65
37.12500,66
37.13333,66
37.14167,67
37.15000,68
37.15833,68
37.16667,69
37.17500,70
37.18333,71
37.19167,72
37.20000,73
37.20833,74
37.21667,75
37.22500,75
37.23333,76
37.24167,77
37.25000,78
37.25833,79
37.26667,80
37.27500,80
37.28333,81
37.29167,82
37.30000,82
37.30833,83
37.31667,84
37.32500,85
37.33333,85
37.34167,86
37.35000,87
37.35833,88
37.36667,89
37.37500,89
37.38333,90
37.39167,91
37.40000,92
37.40833,93
37.41667,94
37.42500,94
37.43333,95
37.44167,96
37.45000,96
37.45833,97
37.46667,98
37.47500,99
37.48333,100
37.49167,100
37.50000,101
37.50833,101
37.51667,102
37.52500,103
37.53333,103
37.54167,104
37.55000,105
37.55833,105
37.56667,106
37.57500,106
37.58333,107
37.59167,107
37.60000,108
37.60833,108
37.61667,109
37.62500,109
37.63333,109
37.64167,110
37.65000,110
37.65833,110
37.66667,110
37.67500,110
37.68333,111
37.69167,111
37.70000,111
37.70833,111
37.71667,111
37.72500,111
37.73333,110
37.74167,110
37.75000,110
37.75833,110
37.76667,110
37.77500,110
37.78333,110
37.79167,109
37.80000,109
37.80833,108
37.81667,108
37.82500,108
37.83333,108
37.84167,107
37.85000,107
37.85833,106
37.86667,106
37.87500,105
37.88333,104
37.89167,103
37.90000,103
37.90833,102
37.91667,102
37.92500,101
37.93333,100
37.94167,100
37.95000,99
37.95833,99
37.96667,98
37.97500,97
37.98333,96
37.99167,95
38.00000,94
38.00833,94
38.01667,93
38.02500,92
38.03333,91
38.04167,91
38.05000,90
38.05833,89
38.06667,88
38.07500,87
38.08333,85
38.09167,84
38.10000,83
38.10833,82
38.11667,81
38.12500,80
38.13333,79
38.14167,78
38.15000,76
38.15833,75
38.16667,74
38.17500,73
38.18333,72
38.19167,71
38.20000,69
38.20833,68
38.21667,67
38.22500,67
38.23333,66
38.24167,64
38.25000,63
38.25833,61
38.26667,60
38.27500,59
38.28333,57
38.29167,56
38.30000,55
38.30833,53
38.31667,52
38.32500,51
38.33333,49
38.34167,48
38.35000,47
38.35833,46
38.36667,45
38.37500,44
38.38333,43
38.39167,42
38.40000,40
38.40833,39
38.41667,38
38.42500,37
38.43333,35
38.44167,34
38.45000,33
38.45833,32
38.46667,30
38.47500,29
38.48333,28
38.49167,28
38.50000,27
38.50833,25
38.51667,24
38.52500,23
38.53333,21
38.54167,20
38.55000,19
38.55833,18
38.56667,17
38.57500,16
38.58333,15
38.59167,15
38.60000,14
38.60833,13
38.61667,13
38.62500,11
38.63333,10
38.64167,9
38.65000,8
38.65833,7
38.66667,6
38.67500,5
38.68333,4
38.69167,3
38.70000,2
38.70833,1
38.71667,1
38.72500,0
38.73333,-1
38.74167,-1
38.75000,-2
38.75833,-2
38.76667,-3
38.77500,-3
38.78333,-4
38.79167,-4
38.80000,-5
38.80833,-5
38.81667,-5
38.82500,-6
38.83333,-6
38.84167,-7
38.85000,-7
38.85833,-7
38.86667,-8
38.87500,-8
38.88333,-8
38.89167,-8
38.90000,-9
38.90833,-9
38.91667,-9
38.92500,-9
38.93333,-10
38.94167,-10
38.95000,-10
38.95833,-10
38.96667,-10
38.97500,-10
38.98333,-10
38.99167,-11
39.00000,-11
39.00833,-11
39.01667,-12
39.02500,-12
39.03333,-12
39.04167,-12
39.05000,-12
39.05833,-12
39.06667,-12
39.07500,-12
39.08333,-12
39.09167,-12
39.10000,-12
39.10833,-12
39.11667,-12
39.12500,-12
39.13333,-12
39.14167,-12
39.15000,-12
39.15833,-12
39.16667,-12
39.17500,-12
39.18333,-13
39.19167,-13
39.20000,-12
39.20833,-12
39.21667,-12
39.22500,-12
39.23333,-12
39.24167,-12
39.25000,-12
39.25833,-12
39.26667,-12
39.27500,-12
39.28333,-12
39.29167,-12
39.30000,-12
39.30833,-12
39.31667,-11
39.32500,-11
39.33333,-11
39.34167,-10
39.35000,-10
39.35833,-10
39.36667,-10
39.37500,-10
39.38333,-10
39.39167,-11
39.40000,-11
39.40833,-11
39.41667,-11
39.42500,-11
39.43333,-11
39.44167,-11
39.45000,-10
39.45833,-11
39.46667,-11
39.47500,-10
39.48333,-10
39.49167,-10
39.50000,-10
39.50833,-10
39.51667,-10
39.52500,-10
39.53333,-10
39.54167,-10
39.55000,-10
39.55833,-10
39.56667,-10
39.57500,-10
39.58333,-10
39.59167,-10
39.60000,-10
39.60833,-10
39.61667,-10
39.62500,-10
39.63333,-10
39.64167,-10
39.65000,-10
39.65833,-10
39.66667,-10
39.67500,-10
39.68333,-10
39.69167,-10
39.70000,-10
39.70833,-10
39.71667,-10
39.72500,-10
39.73333,-10
39.74167,-10
39.75000,-10
39.75833,-10
39.76667,-10
39.77500,-10
39.78333,-10
39.79167,-10
39.80000,-9
39.80833,-9
39.81667,-9
39.82500,-10
39.83333,-10
39.84167,-10
39.85000,-11
39.85833,-11
39.86667,-10
39.87500,-10
39.88333,-10
39.89167,-10
39.90000,-10
39.90833,-10
39.91667,-10
39.92500,-9
39.93333,-9
39.94167,-9
39.95000,-9
39.95833,-9
39.96667,-9
39.97500,-9
39.98333,-9
39.99167,-9
40.00000,-9
40.00833,-9
40.01667,-9
40.02500,-9
40.03333,-9
40.04167,-9
40.05000,-9
40.05833,-9
40.06667,-9
40.07500,-9
40.08333,-9
40.09167,-9
40.10000,-9
40.10833,-9
40.11667,-9
40.12500,-9
40.13333,-9
40.14167,-8
40.15000,-8
40.15833,-8
40.16667,-7
40.17500,-7
40.18333,-7
40.19167,-7
40.20000,-7
40.20833,-7
40.21667,-7
40.22500,-8
40.23333,-8
40.24167,-8
40.25000,-8
40.25833,-8
40.26667,-7
40.27500,-7
40.28333,-7
40.29167,-7
40.30000,-6
40.30833,-6
40.31667,-6
40.32500,-5
40.33333,-5
40.34167,-5
40.35000,-4
40.35833,-4
40.36667,-4
40.37500,-4
40.38333,-4
40.39167,-4
40.40000,-3
40.40833,-3
40.41667,-3
40.42500,-2
40.43333,-2
40.44167,-1
40.45000,-1
40.45833,-1
40.46667,-0
40.47500,-0
40.48333,0
40.49167,1
40.50000,1
40.50833,1
40.51667,1
40.52500,2
40.53333,2
40.54167,2
40.55000,2
40.55833,2
40.56667,3
40.57500,4
40.58333,4
40.59167,4
40.60000,4
40.60833,4
40.61667,5
40.62500,5
40.63333,6
40.64167,6
40.65000,7
40.65833,7
40.66667,8
40.67500,8
40.68333,9
40.69167,9
40.70000,10
40.70833,10
40.71667,11
40.72500,12
40.73333,13
40.74167,13
40.75000,14
40.75833,14
40.76667,14
40.77500,15
40.78333,16
40.79167,16
40.80000,17
40.80833,17
40.81667,18
40.82500,18
40.83333,18
40.84167,20
40.85000,20
40.85833,21
40.86667,22
40.87500,22
40.88333,23
40.89167,24
40.90000,25
40.90833,26
40.91667,26
40.92500,27
40.93333,27
40.94167,28
40.95000,29
40.95833,30
40.96667,30
40.97500,31
40.98333,32
40.99167,32
41.00000,33
41.00833,34
41.01667,35
41.02500,36
41.03333,37
41.04167,38
41.05000,40
41.05833,41
41.06667,42
41.07500,43
41.08333,44
41.09167,45
41.10000,46
41.10833,47
41.11667,48
41.12500,49
41.13333,50
41.14167,51
41.15000,53
41.15833,54
41.16667,55
41.17500,57
41.18333,57
41.19167,58
41.20000,59
41.20833,60
41.21667,61
41.22500,63
41.23333,64
41.24167,65
41.25000,66
41.25833,68
41.26667,69
41.27500,70
41.28333,71
41.29167,72
41.30000,74
41.30833,75
41.31667,76
41.32500,78
41.33333,79
41.34167,80
41.35000,81
41.35833,82
41.36667,84
41.37500,85
41.38333,87
41.39167,88
41.40000,89
41.40833,90
41.41667,91
41.42500,93
41.43333,94
41.44167,96
41.45000,98
41.45833,99
41.46667,100
41.47500,102
41.48333,103
41.49167,105
41.50000,106
41.50833,107
41.51667,109
41.52500,110
41.53333,112
41.54167,113
41.55000,115
41.55833,116
41.56667,118
41.57500,119
41.58333,120
41.59167,121
41.60000,122
41.60833,123
41.61667,124
41.62500,125
41.63333,127
41.64167,128
41.65000,130
41.65833,132
41.66667,133
41.67500,135
41.68333,136
41.69167,137
41.70000,139
41.70833,141
41.71667,142
41.72500,143
41.73333,144
41.74167,145
41.75000,146
41.75833,147
41.76667,148
41.77500,149
41.78333,150
41.79167,151
41.80000,152
41.80833,153
41.81667,154
41.82500,156
41.83333,157
41.84167,158
41.85000,159
41.85833,160
41.86667,161
41.87500,162
41.88333,163
41.89167,164
41.90000,165
41.90833,166
41.91667,166
41.92500,167
41.93333,168
41.94167,169
41.95000,170
41.95833,171
41.96667,172
41.97500,173
41.98333,173
41.99167,174
42.00000,175
42.00833,176
42.01667,176
42.02500,177
42.03333,178
42.04167,178
42.05000,178
42.05833,178
42.06667,179
42.07500,180
42.08333,180
42.09167,180
42.10000,181
42.10833,181
42.11667,182
42.12500,182
42.13333,182
42.14167,183
42.15000,183
42.15833,183
42.16667,183
42.17500,184
42.18333,184
42.19167,184
42.20000,185
42.20833,184
42.21667,184
42.22500,184
42.23333,184
42.24167,185
42.25000,185
42.25833,185
42.26667,184
42.27500,184
42.28333,184
42.29167,185
42.30000,184
42.30833,184
42.31667,184
42.32500,184
42.33333,184
42.34167,184
42.35000,183
42.35833,183
42.36667,183
42.37500,183
42.38333,182
42.39167,182
42.40000,181
42.40833,181
42.41667,180
42.42500,180
42.43333,179
42.44167,179
42.45000,179
42.45833,178
42.46667,178
42.47500,177
42.48333,177
42.49167,176
42.50000,176
42.50833,175
42.51667,175
42.52500,174
42.53333,174
42.54167,173
42.55000,173
42.55833,172
42.56667,171
42.57500,170
42.58333,169
42.59167,168
42.60000,168
42.60833,167
42.61667,166
42.62500,166
42.63333,165
42.64167,164
42.65000,163
42.65833,163
42.66667,162
42.67500,162
42.68333,161
42.69167,160
42.70000,160
42.70833,158
42.71667,157
42.72500,156
42.73333,155
42.74167,154
42.75000,153
42.75833,152
42.76667,151
42.77500,150
42.78333,150
42.79167,149
42.80000,148
42.80833,147
42.81667,145
42.82500,145
42.83333,144
42.84167,143
42.85000,142
42.85833,141
42.86667,140
42.87500,139
42.88333,138
42.89167,136
42.90000,135
42.90833,134
42.91667,133
42.92500,133
42.93333,131
42.94167,130
42.95000,129
42.95833,128
42.96667,127
42.97500,126
42.98333,124
42.99167,123
43.00000,122
43.00833,121
43.01667,120
43.02500,119
43.03333,119
43.04167,118
43.05000,117
43.05833,116
43.06667,114
43.07500,113
43.08333,112
43.09167,111
43.10000,110
43.10833,109
43.11667,108
43.12500,107
43.13333,105
43.14167,105
43.15000,104
43.15833,103
43.16667,102
43.17500,101
43.18333,100
43.19167,99
43.20000,98
43.20833,97
43.21667,96
43.22500,96
43.23333,95
43.24167,94
43.25000,93
43.25833,92
43.26667,90
43.27500,89
43.28333,88
43.29167,87
43.30000,86
43.30833,84
43.31667,83
43.32500,83
43.33333,82
43.34167,81
43.35000,81
43.35833,80
43.36667,79
43.37500,78
43.38333,77
43.39167,76
43.40000,75
43.40833,74
43.41667,72
43.42500,71
43.43333,70
43.44167,70
43.45000,69
43.45833,69
43.46667,68
43.47500,67
43.48333,66
43.49167,65
43.50000,64
43.50833,64
43.51667,63
43.52500,62
43.53333,61
43.54167,60
43.55000,59
43.55833,58
43.56667,58
43.57500,57
43.58333,57
43.59167,56
43.60000,55
43.60833,54
43.61667,53
43.62500,53
43.63333,52
43.64167,51
43.65000,50
43.65833,49
43.66667,49
43.67500,48
43.68333,47
43.69167,46
43.70000,45
43.70833,45
43.71667,44
43.72500,43
43.73333,43
43.74167,42
43.75000,41
43.75833,41
43.76667,40
43.77500,40
43.78333,39
43.79167,38
43.80000,37
43.80833,36
43.81667,35
43.82500,34
43.83333,34
43.84167,33
43.85000,33
43.85833,32
43.86667,31
43.87500,30
43.88333,30
43.89167,29
43.90000,29
43.90833,28
43.91667,28
43.92500,27
43.93333,26
43.94167,26
43.95000,25
43.95833,24
43.96667,23
43.97500,23
43.98333,22
43.99167,22
44.00000,21
44.00833,21
44.01667,20
44.02500,20
44.03333,19
44.04167,19
44.05000,18
44.05833,18
44.06667,18
44.07500,17
44.08333,16
44.09167,16
44.10000,15
44.10833,14
44.11667,13
44.12500,13
44.13333,12
44.14167,12
44.15000,11
44.15833,11
44.16667,11
44.17500,10
44.18333,10
44.19167,9
44.20000,9
44.20833,8
44.21667,7
44.22500,6
44.23333,6
44.24167,5
44.25000,5
44.25833,5
44.26667,4
44.27500,3
44.28333,3
44.29167,3
44.30000,3
44.30833,2
44.31667,2
44.32500,2
44.33333,1
44.34167,1
44.35000,1
44.35833,0
44.36667,0
44.37500,-0
44.38333,-1
44.39167,-2
44.40000,-2
44.40833,-3
44.41667,-3
44.42500,-3
44.43333,-3
44.44167,-3
44.45000,-4
44.45833,-5
44.46667,-5
44.47500,-5
44.48333,-6
44.49167,-6
44.50000,-7
44.50833,-7
44.51667,-7
44.52500,-7
44.53333,-7
44.54167,-7
44.55000,-7
44.55833,-8
44.56667,-8
44.57500,-8
44.58333,-8
44.59167,-9
44.60000,-9
44.60833,-9
44.61667,-10
44.62500,-10
44.63333,-10
44.64167,-11
44.65000,-11
44.65833,-12
44.66667,-12
44.67500,-13
44.68333,-13
44.69167,-13
44.70000,-14
44.70833,-14
44.71667,-14
44.72500,-14
44.73333,-14
44.74167,-14
44.75000,-14
44.75833,-14
44.76667,-15
44.77500,-15
44.78333,-15
44.79167,-15
44.80000,-15
44.80833,-15
44.81667,-15
44.82500,-15
44.83333,-15
44.84167,-16
44.85000,-16
44.85833,-16
44.86667,-16
44.87500,-17
44.88333,-17
44.89167,-17
44.90000,-17
44.90833,-17
44.91667,-17
44.92500,-17
44.93333,-17
44.94167,-17
44.95000,-17
44.95833,-17
44.96667,-18
44.97500,-18
44.98333,-18
44.99167,-18
45.00000,-18
45.00833,-18
45.01667,-18
45.02500,-18
45.03333,-18
45.04167,-17
45.05000,-17
45.05833,-17
45.06667,-17
45.07500,-17
45.08333,-17
45.09167,-17
45.10000,-16
45.10833,-16
45.11667,-16
45.12500,-16
45.13333,-16
45.14167,-17
45.15000,-17
45.15833,-17
45.16667,-17
45.17500,-17
45.18333,-17
45.19167,-17
45.20000,-17
45.20833,-16
45.21667,-16
45.22500,-16
45.23333,-16
45.24167,-16
45.25000,-16
45.25833,-16
45.26667,-16
45.27500,-16
45.28333,-16
45.29167,-16
45.30000,-16
45.30833,-15
45.31667,-15
45.32500,-15
45.33333,-14
45.34167,-14
45.35000,-14
45.35833,-15
45.36667,-15
45.37500,-15
45.38333,-15
45.39167,-15
45.40000,-15
45.40833,-14
45.41667,-14
45.42500,-15
45.43333,-15
45.44167,-15
45.45000,-15
45.45833,-15
45.46667,-15
45.47500,-14
45.48333,-14
45.49167,-14
45.50000,-14
45.50833,-14
45.51667,-14
45.52500,-14
45.53333,-14
45.54167,-14
45.55000,-13
45.55833,-13
45.56667,-13
45.57500,-13
45.58333,-13
45.59167,-13
45.60000,-13
45.60833,-13
45.61667,-13
45.62500,-13
45.63333,-13
45.64167,-13
45.65000,-13
45.65833,-13
45.66667,-13
45.67500,-13
45.68333,-13
45.69167,-14
45.70000,-14
45.70833,-14
45.71667,-13
45.72500,-13
45.73333,-13
45.74167,-13
45.75000,-13
45.75833,-13
45.76667,-13
45.77500,-13
45.78333,-13
45.79167,-13
45.80000,-13
45.80833,-14
45.81667,-14
45.82500,-14
45.83333,-14
45.84167,-14
45.85000,-14
45.85833,-14
45.86667,-14
45.87500,-14
45.88333,-14
45.89167,-14
45.90000,-14
45.90833,-14
45.91667,-14
45.92500,-14
45.93333,-14
45.94167,-14
45.95000,-15
45.95833,-15
45.96667,-15
45.97500,-15
45.98333,-16
45.99167,-16
46.00000,-16
46.00833,-16
46.01667,-17
46.02500,-16
46.03333,-16
46.04167,-17
46.05000,-17
46.05833,-17
46.06667,-16
46.07500,-17
46.08333,-17
46.09167,-17
46.10000,-17
46.10833,-18
46.11667,-18
46.12500,-18
46.13333,-18
46.14167,-18
46.15000,-18
46.15833,-19
46.16667,-19
46.17500,-19
46.18333,-19
46.19167,-19
46.20000,-19
46.20833,-19
46.21667,-20
46.22500,-20
46.23333,-20
46.24167,-20
46.25000,-20
46.25833,-20
46.26667,-21
46.27500,-21
46.28333,-21
46.29167,-21
46.30000,-22
46.30833,-22
46.31667,-23
46.32500,-23
46.33333,-24
46.34167,-24
46.35000,-24
46.35833,-24
46.36667,-25
46.37500,-25
46.38333,-25
46.39167,-25
46.40000,-26
46.40833,-26
46.41667,-26
46.42500,-26
46.43333,-26
46.44167,-26
46.45000,-27
46.45833,-27
46.46667,-28
46.47500,-28
46.48333,-29
46.49167,-29
46.50000,-30
46.50833,-30
46.51667,-30
46.52500,-31
46.53333,-31
46.54167,-31
46.55000,-31
46.55833,-32
46.56667,-32
46.57500,-32
46.58333,-31
46.59167,-31
46.60000,-31
46.60833,-31
46.61667,-31
46.62500,-32
46.63333,-32
46.64167,-32
46.65000,-32
46.65833,-33
46.66667,-33
46.67500,-34
46.68333,-34
46.69167,-34
46.70000,-34
46.70833,-34
46.71667,-34
46.72500,-34
46.73333,-35
46.74167,-35
46.75000,-35
46.75833,-35
46.76667,-35
46.77500,-35
46.78333,-35
46.79167,-35
46.80000,-36
46.80833,-36
46.81667,-36
46.82500,-36
46.83333,-37
46.84167,-37
46.85000,-37
46.85833,-37
46.86667,-37
46.87500,-38
46.88333,-38
46.89167,-37
46.90000,-37
46.90833,-38
46.91667,-38
46.92500,-38
46.93333,-38
46.94167,-38
46.95000,-38
46.95833,-38
46.96667,-38
46.97500,-37
46.98333,-37
46.99167,-37
47.00000,-36
47.00833,-36
47.01667,-36
47.02500,-36
47.03333,-35
47.04167,-35
47.05000,-35
47.05833,-34
47.06667,-34
47.07500,-34
47.08333,-34
47.09167,-34
47.10000,-33
47.10833,-33
47.11667,-33
47.12500,-32
47.13333,-32
47.14167,-31
47.15000,-31
47.15833,-31
47.16667,-31
47.17500,-31
47.18333,-30
47.19167,-30
47.20000,-29
47.20833,-29
47.21667,-28
47.22500,-27
47.23333,-27
47.24167,-27
47.25000,-26
47.25833,-25
47.26667,-24
47.27500,-24
47.28333,-23
47.29167,-22
47.30000,-22
47.30833,-21
47.31667,-21
47.32500,-20
47.33333,-19
47.34167,-18
47.35000,-18
47.35833,-17
47.36667,-17
47.37500,-16
47.38333,-15
47.39167,-14
47.40000,-13
47.40833,-12
47.41667,-11
47.42500,-11
47.43333,-10
47.44167,-9
47.45000,-8
47.45833,-8
47.46667,-7
47.47500,-6
47.48333,-5
47.49167,-4
47.50000,-3
47.50833,-3
47.51667,-2
47.52500,-1
47.53333,-0
47.54167,1
47.55000,2
47.55833,3
47.56667,4
47.57500,5
47.58333,5
47.59167,6
47.60000,7
47.60833,8
47.61667,8
47.62500,9
47.63333,9
47.64167,10
47.65000,11
47.65833,12
47.66667,13
47.67500,13
47.68333,14
47.69167,15
47.70000,16
47.70833,17
47.71667,17
47.72500,18
47.73333,18
47.74167,19
47.75000,20
47.75833,20
47.76667,21
47.77500,22
47.78333,23
47.79167,23
47.80000,24
47.80833,25
47.81667,25
47.82500,26
47.83333,26
47.84167,27
47.85000,28
47.85833,29
47.86667,29
47.87500,30
47.88333,30
47.89167,31
47.90000,31
47.90833,31
47.91667,31
47.92500,31
47.93333,32
47.94167,33
47.95000,33
47.95833,33
47.96667,34
47.97500,34
47.98333,35
47.99167,36
48.00000,36
48.00833,36
48.01667,36
48.02500,37
48.03333,37
48.04167,37
48.05000,37
48.05833,37
48.06667,37
48.07500,38
48.08333,38
48.09167,39
48.10000,39
48.10833,40
48.11667,40
48.12500,40
48.13333,40
48.14167,40
48.15000,40
48.15833,40
48.16667,41
48.17500,41
48.18333,41
48.19167,41
48.20000,41
48.20833,41
48.21667,41
48.22500,42
48.23333,42
48.24167,42
48.25000,42
48.25833,43
48.26667,43
48.27500,42
48.28333,43
48.29167,43
48.30000,42
48.30833,42
48.31667,42
48.32500,42
48.33333,42
48.34167,42
48.35000,42
48.35833,43
48.36667,43
48.37500,44
48.38333,44
48.39167,44
48.40000,44
48.40833,44
48.41667,44
48.42500,44
48.43333,44
48.44167,44
48.45000,44
48.45833,44
48.46667,44
48.47500,44
48.48333,44
48.49167,44
48.50000,44
48.50833,44
48.51667,44
48.52500,44
48.53333,44
48.54167,45
48.55000,44
48.55833,44
48.56667,45
48.57500,45
48.58333,45
48.59167,45
48.60000,45
48.60833,45
48.61667,46
48.62500,46
48.63333,46
48.64167,46
48.65000,46
48.65833,46
48.66667,47
48.67500,47
48.68333,47
48.69167,48
48.70000,48
48.70833,48
48.71667,48
48.72500,48
48.73333,48
48.74167,48
48.75000,48
48.75833,48
48.76667,48
48.77500,48
48.78333,48
48.79167,49
48.80000,49
48.80833,49
48.81667,49
48.82500,48
48.83333,48
48.84167,48
48.85000,48
48.85833,49
48.86667,49
48.87500,49
48.88333,50
48.89167,50
48.90000,50
48.90833,51
48.91667,51
48.92500,51
48.93333,51
48.94167,51
48.95000,51
48.95833,51
48.96667,51
48.97500,51
48.98333,50
48.99167,50
49.00000,50
49.00833,50
49.01667,50
49.02500,50
49.03333,49
49.04167,49
49.05000,49
49.05833,50
49.06667,50
49.07500,50
49.08333,50
49.09167,50
49.10000,51
49.10833,51
49.11667,51
49.12500,51
49.13333,51
49.14167,50
49.15000,50
49.15833,50
49.16667,50
49.17500,50
49.18333,50
49.19167,50
49.20000,50
49.20833,50
49.21667,50
49.22500,50
49.23333,50
49.24167,50
49.25000,50
49.25833,50
49.26667,49
49.27500,49
49.28333,49
49.29167,49
49.30000,49
49.30833,48
49.31667,48
49.32500,48
49.33333,47
49.34167,47
49.35000,47
49.35833,47
49.36667,46
49.37500,46
49.38333,46
49.39167,46
49.40000,45
49.40833,45
49.41667,45
49.42500,44
49.43333,44
49.44167,44
49.45000,44
49.45833,44
49.46667,44
49.47500,44
49.48333,44
49.49167,43
49.50000,43
49.50833,42
49.51667,41
49.52500,41
49.53333,40
49.54167,40
49.55000,40
49.55833,39
49.56667,39
49.57500,38
49.58333,38
49.59167,37
49.60000,36
49.60833,36
49.61667,36
49.62500,36
49.63333,36
49.64167,35
49.65000,34
49.65833,34
49.66667,33
49.67500,33
49.68333,32
49.69167,31
49.70000,30
49.70833,30
49.71667,29
49.72500,28
49.73333,27
49.74167,27
49.75000,27
49.75833,26
49.76667,26
49.77500,25
49.78333,24
49.79167,23
49.80000,22
49.80833,21
49.81667,21
49.82500,20
49.83333,19
49.84167,18
49.85000,17
49.85833,16
49.86667,15
49.87500,15
49.88333,14
49.89167,13
49.90000,12
49.90833,11
49.91667,11
49.92500,10
49.93333,9
49.94167,9
49.95000,8
49.95833,7
49.96667,6
49.97500,5
49.98333,4
49.99167,3
50.00000,2

