[Header]
Application Name,LabSolutions
Version,5.97 SP1
Data File Name,C:\Users\cremerlab\Desktop\Richa\Oct_18th_2022_yield_expt\Oct 18th 2022 yield expt_10182022_001_023.lcd
Output Date,10/19/2022
Output Time,12:08:42 PM

[File Information]
Type,Data File
Generated,10/19/2022 11:18:23 AM
Generated by,System Administrator
Modified,10/19/2022 12:08:42 PM
Modified by,System Administrator

[Sample Information]
Operator Name,System Administrator
Acquired,10/19/2022 11:18:41 AM
Sample Type,0:Unknown
Level,0
Sample Name,101822_BF_Trp_2
Sample ID,001
ISTD Amount1,1
ISTD Amount2,1
ISTD Amount3,1
ISTD Amount4,1
ISTD Amount5,1
ISTD Amount6,1
ISTD Amount7,1
ISTD Amount8,1
ISTD Amount9,1
ISTD Amount10,1
ISTD Amount11,1
ISTD Amount12,1
ISTD Amount13,1
ISTD Amount14,1
ISTD Amount15,1
ISTD Amount16,1
ISTD Amount17,1
ISTD Amount18,1
ISTD Amount19,1
ISTD Amount20,1
ISTD Amount21,1
ISTD Amount22,1
ISTD Amount23,1
ISTD Amount24,1
ISTD Amount25,1
ISTD Amount26,1
ISTD Amount27,1
ISTD Amount28,1
ISTD Amount29,1
ISTD Amount30,1
ISTD Amount31,1
ISTD Amount32,1
Sample Amount,1
Dilution Factor,1
Vial#,22
Injection Volume,20

[Original Files]
Data File,C:\Users\cremerlab\Desktop\Richa\Oct_18th_2022_yield_expt\Oct 18th 2022 yield expt_10182022_001_023.lcd
Method File,C:\Users\cremerlab\Desktop\Richa\acetate_excretion.lcm
Batch File,C:\Users\cremerlab\Desktop\Richa\Oct_18th_2022_yield_expt\Oct 18th 2022 yield expt.lcb
Report Format File,c:\LabSolutions\System\DEFAULT.lsr

[File Description]


[Configuration]
Instrument Name,HPLC-PC-Instrument1
Instrument #,1
Line #,1
# of Detectors,2
Detector ID,Detector A,Detector B
Detector Name,Detector A,Detector B
# of Channels,1,1

[Peak Table(Detector A)]
# of Peaks,0

[Peak Table(Detector B)]
# of Peaks,12
Peak#,R.Time,I.Time,F.Time,Area,Height,A/H,Conc.,Mark,ID#,Name,k',Plate #,Plate Ht.,Tailing,Resolution,Sep.Factor,Area Ratio,Height Ratio,Conc. %,Norm Conc.
1,10.483,10.267,10.525,1518,195,7.784,0.000,   ,,,0.000,7925,18.928,0.000,0.000,0.000,0,0,0.000,0.000
2,11.033,10.525,12.417,2334011,118615,19.677,0.000, V ,,,0.052,7462,20.103,0.966,1.119,0.000,0,0,0.000,0.000
3,14.362,12.658,15.208,3692196,78287,47.162,0.000,   ,,,0.370,2465,60.848,0.655,3.991,7.057,0,0,0.000,0.000
4,15.780,15.208,17.417,1533873,51885,29.563,0.000, V ,,,0.505,6818,22.000,1.150,1.476,1.366,0,0,0.000,0.000
5,17.882,17.417,18.450,12056,342,35.287,0.000, V ,,,0.706,5251,28.566,0.000,2.400,1.397,0,0,0.000,0.000
6,19.060,18.475,19.758,11050,279,39.624,0.000,   ,,,0.818,4954,30.276,1.082,1.138,1.159,0,0,0.000,0.000
7,20.305,19.758,20.683,21146,618,34.228,0.000,   ,,,0.937,5428,27.632,0.000,1.139,1.145,0,0,0.000,0.000
8,21.014,20.683,21.442,19454,508,38.314,0.000, V ,,,1.005,2194,68.355,0.000,0.490,1.072,0,0,0.000,0.000
9,21.872,21.442,22.617,25873,681,37.982,0.000, V ,,,1.086,6643,22.580,0.000,0.598,1.081,0,0,0.000,0.000
10,25.095,24.317,26.408,148885,3582,41.565,0.000,   ,,,1.394,8831,16.985,1.166,3.010,1.283,0,0,0.000,0.000
11,29.205,28.342,30.533,141571,2943,48.102,0.000,   ,,,1.786,8870,16.910,1.132,3.561,1.281,0,0,0.000,0.000
12,32.410,31.675,33.100,10406,237,43.882,0.000,   ,,,2.092,12553,11.949,0.979,2.673,1.171,0,0,0.000,0.000

[LC Chromatogram(Detector B-Ch1)]
Interval(msec),500
# of Points,6001
Start Time(min),0.000
End Time(min),50.000
Intensity Units,mV
Intensity Multiplier,0.001
R.Time (min),Intensity
0.00000,-5
0.00833,-5
0.01667,-0
0.02500,-0
0.03333,-1
0.04167,-2
0.05000,-3
0.05833,-3
0.06667,-4
0.07500,-4
0.08333,-4
0.09167,-4
0.10000,-4
0.10833,-5
0.11667,-5
0.12500,-6
0.13333,-6
0.14167,-6
0.15000,-6
0.15833,-6
0.16667,-7
0.17500,-7
0.18333,-8
0.19167,-8
0.20000,-8
0.20833,-8
0.21667,-9
0.22500,-9
0.23333,-9
0.24167,-9
0.25000,-10
0.25833,-10
0.26667,-10
0.27500,-10
0.28333,-11
0.29167,-12
0.30000,-12
0.30833,-12
0.31667,-12
0.32500,-12
0.33333,-13
0.34167,-13
0.35000,-13
0.35833,-13
0.36667,-14
0.37500,-13
0.38333,-13
0.39167,-13
0.40000,-13
0.40833,-13
0.41667,-13
0.42500,-13
0.43333,-13
0.44167,-13
0.45000,-13
0.45833,-13
0.46667,-13
0.47500,-13
0.48333,-13
0.49167,-14
0.50000,-14
0.50833,-14
0.51667,-14
0.52500,-14
0.53333,-14
0.54167,-14
0.55000,-14
0.55833,-14
0.56667,-14
0.57500,-14
0.58333,-14
0.59167,-13
0.60000,-13
0.60833,-13
0.61667,-13
0.62500,-13
0.63333,-13
0.64167,-13
0.65000,-14
0.65833,-14
0.66667,-13
0.67500,-13
0.68333,-12
0.69167,-12
0.70000,-12
0.70833,-12
0.71667,-12
0.72500,-12
0.73333,-12
0.74167,-12
0.75000,-13
0.75833,-12
0.76667,-12
0.77500,-12
0.78333,-12
0.79167,-12
0.80000,-11
0.80833,-11
0.81667,-11
0.82500,-11
0.83333,-11
0.84167,-11
0.85000,-11
0.85833,-11
0.86667,-11
0.87500,-11
0.88333,-10
0.89167,-10
0.90000,-10
0.90833,-10
0.91667,-9
0.92500,-10
0.93333,-10
0.94167,-10
0.95000,-10
0.95833,-9
0.96667,-9
0.97500,-9
0.98333,-9
0.99167,-9
1.00000,-9
1.00833,-8
1.01667,-8
1.02500,-7
1.03333,-7
1.04167,-6
1.05000,-6
1.05833,-6
1.06667,-5
1.07500,-5
1.08333,-4
1.09167,-4
1.10000,-4
1.10833,-4
1.11667,-4
1.12500,-4
1.13333,-4
1.14167,-4
1.15000,-4
1.15833,-4
1.16667,-4
1.17500,-4
1.18333,-4
1.19167,-3
1.20000,-4
1.20833,-4
1.21667,-3
1.22500,-3
1.23333,-3
1.24167,-3
1.25000,-3
1.25833,-3
1.26667,-3
1.27500,-3
1.28333,-3
1.29167,-3
1.30000,-3
1.30833,-2
1.31667,-2
1.32500,-2
1.33333,-2
1.34167,-2
1.35000,-2
1.35833,-2
1.36667,-2
1.37500,-2
1.38333,-1
1.39167,-1
1.40000,-1
1.40833,-1
1.41667,-1
1.42500,-1
1.43333,-0
1.44167,-0
1.45000,0
1.45833,0
1.46667,0
1.47500,0
1.48333,0
1.49167,1
1.50000,1
1.50833,1
1.51667,1
1.52500,2
1.53333,2
1.54167,1
1.55000,1
1.55833,1
1.56667,1
1.57500,1
1.58333,1
1.59167,1
1.60000,1
1.60833,1
1.61667,1
1.62500,1
1.63333,2
1.64167,1
1.65000,1
1.65833,1
1.66667,1
1.67500,1
1.68333,1
1.69167,1
1.70000,1
1.70833,0
1.71667,0
1.72500,0
1.73333,1
1.74167,1
1.75000,1
1.75833,1
1.76667,1
1.77500,1
1.78333,1
1.79167,1
1.80000,1
1.80833,1
1.81667,1
1.82500,1
1.83333,0
1.84167,0
1.85000,0
1.85833,-0
1.86667,-0
1.87500,-0
1.88333,-0
1.89167,-1
1.90000,-1
1.90833,-1
1.91667,-1
1.92500,-1
1.93333,-1
1.94167,-1
1.95000,-1
1.95833,-1
1.96667,-1
1.97500,-1
1.98333,-1
1.99167,-1
2.00000,-1
2.00833,-1
2.01667,-1
2.02500,-2
2.03333,-2
2.04167,-2
2.05000,-2
2.05833,-2
2.06667,-3
2.07500,-3
2.08333,-3
2.09167,-3
2.10000,-3
2.10833,-3
2.11667,-3
2.12500,-4
2.13333,-4
2.14167,-4
2.15000,-4
2.15833,-5
2.16667,-5
2.17500,-5
2.18333,-5
2.19167,-5
2.20000,-5
2.20833,-6
2.21667,-6
2.22500,-6
2.23333,-6
2.24167,-6
2.25000,-7
2.25833,-7
2.26667,-7
2.27500,-7
2.28333,-7
2.29167,-7
2.30000,-7
2.30833,-7
2.31667,-7
2.32500,-7
2.33333,-7
2.34167,-7
2.35000,-8
2.35833,-8
2.36667,-8
2.37500,-9
2.38333,-9
2.39167,-9
2.40000,-10
2.40833,-10
2.41667,-10
2.42500,-10
2.43333,-10
2.44167,-10
2.45000,-10
2.45833,-10
2.46667,-10
2.47500,-10
2.48333,-10
2.49167,-11
2.50000,-11
2.50833,-11
2.51667,-12
2.52500,-12
2.53333,-12
2.54167,-12
2.55000,-13
2.55833,-13
2.56667,-13
2.57500,-13
2.58333,-13
2.59167,-13
2.60000,-13
2.60833,-13
2.61667,-13
2.62500,-13
2.63333,-14
2.64167,-14
2.65000,-15
2.65833,-15
2.66667,-15
2.67500,-15
2.68333,-15
2.69167,-15
2.70000,-15
2.70833,-15
2.71667,-15
2.72500,-15
2.73333,-15
2.74167,-16
2.75000,-16
2.75833,-16
2.76667,-16
2.77500,-16
2.78333,-16
2.79167,-16
2.80000,-16
2.80833,-16
2.81667,-16
2.82500,-17
2.83333,-17
2.84167,-17
2.85000,-17
2.85833,-17
2.86667,-17
2.87500,-17
2.88333,-17
2.89167,-17
2.90000,-17
2.90833,-17
2.91667,-17
2.92500,-17
2.93333,-17
2.94167,-17
2.95000,-17
2.95833,-17
2.96667,-17
2.97500,-17
2.98333,-17
2.99167,-17
3.00000,-18
3.00833,-18
3.01667,-18
3.02500,-18
3.03333,-18
3.04167,-18
3.05000,-17
3.05833,-17
3.06667,-18
3.07500,-18
3.08333,-18
3.09167,-18
3.10000,-17
3.10833,-17
3.11667,-17
3.12500,-16
3.13333,-16
3.14167,-16
3.15000,-16
3.15833,-16
3.16667,-17
3.17500,-16
3.18333,-16
3.19167,-16
3.20000,-16
3.20833,-16
3.21667,-16
3.22500,-16
3.23333,-16
3.24167,-16
3.25000,-16
3.25833,-16
3.26667,-16
3.27500,-16
3.28333,-16
3.29167,-16
3.30000,-16
3.30833,-15
3.31667,-14
3.32500,-14
3.33333,-14
3.34167,-14
3.35000,-14
3.35833,-14
3.36667,-13
3.37500,-13
3.38333,-13
3.39167,-13
3.40000,-13
3.40833,-13
3.41667,-12
3.42500,-12
3.43333,-12
3.44167,-12
3.45000,-13
3.45833,-12
3.46667,-12
3.47500,-11
3.48333,-11
3.49167,-10
3.50000,-10
3.50833,-10
3.51667,-10
3.52500,-10
3.53333,-9
3.54167,-10
3.55000,-10
3.55833,-10
3.56667,-10
3.57500,-10
3.58333,-9
3.59167,-9
3.60000,-9
3.60833,-8
3.61667,-7
3.62500,-7
3.63333,-6
3.64167,-6
3.65000,-5
3.65833,-5
3.66667,-5
3.67500,-4
3.68333,-4
3.69167,-4
3.70000,-4
3.70833,-4
3.71667,-4
3.72500,-4
3.73333,-4
3.74167,-4
3.75000,-3
3.75833,-2
3.76667,-2
3.77500,-2
3.78333,-1
3.79167,-1
3.80000,-1
3.80833,-0
3.81667,0
3.82500,1
3.83333,1
3.84167,2
3.85000,2
3.85833,2
3.86667,3
3.87500,3
3.88333,4
3.89167,4
3.90000,4
3.90833,4
3.91667,5
3.92500,5
3.93333,5
3.94167,6
3.95000,7
3.95833,8
3.96667,9
3.97500,9
3.98333,10
3.99167,11
4.00000,11
4.00833,12
4.01667,13
4.02500,14
4.03333,15
4.04167,16
4.05000,16
4.05833,17
4.06667,17
4.07500,17
4.08333,18
4.09167,18
4.10000,19
4.10833,19
4.11667,20
4.12500,21
4.13333,22
4.14167,22
4.15000,23
4.15833,23
4.16667,23
4.17500,24
4.18333,25
4.19167,25
4.20000,26
4.20833,27
4.21667,27
4.22500,28
4.23333,29
4.24167,30
4.25000,31
4.25833,32
4.26667,33
4.27500,34
4.28333,34
4.29167,35
4.30000,35
4.30833,36
4.31667,37
4.32500,38
4.33333,38
4.34167,39
4.35000,39
4.35833,40
4.36667,40
4.37500,41
4.38333,41
4.39167,42
4.40000,42
4.40833,42
4.41667,43
4.42500,44
4.43333,44
4.44167,45
4.45000,46
4.45833,46
4.46667,47
4.47500,48
4.48333,48
4.49167,48
4.50000,48
4.50833,49
4.51667,49
4.52500,49
4.53333,50
4.54167,50
4.55000,50
4.55833,51
4.56667,52
4.57500,52
4.58333,53
4.59167,53
4.60000,53
4.60833,54
4.61667,55
4.62500,55
4.63333,56
4.64167,56
4.65000,56
4.65833,56
4.66667,56
4.67500,55
4.68333,55
4.69167,56
4.70000,56
4.70833,56
4.71667,56
4.72500,56
4.73333,56
4.74167,56
4.75000,57
4.75833,57
4.76667,57
4.77500,57
4.78333,57
4.79167,57
4.80000,56
4.80833,56
4.81667,56
4.82500,57
4.83333,57
4.84167,57
4.85000,57
4.85833,58
4.86667,58
4.87500,58
4.88333,57
4.89167,57
4.90000,56
4.90833,56
4.91667,56
4.92500,56
4.93333,56
4.94167,56
4.95000,56
4.95833,55
4.96667,55
4.97500,55
4.98333,55
4.99167,54
5.00000,54
5.00833,53
5.01667,53
5.02500,53
5.03333,53
5.04167,52
5.05000,52
5.05833,52
5.06667,51
5.07500,51
5.08333,51
5.09167,50
5.10000,49
5.10833,49
5.11667,48
5.12500,48
5.13333,48
5.14167,47
5.15000,47
5.15833,47
5.16667,46
5.17500,46
5.18333,46
5.19167,45
5.20000,44
5.20833,43
5.21667,43
5.22500,43
5.23333,42
5.24167,42
5.25000,41
5.25833,40
5.26667,39
5.27500,38
5.28333,37
5.29167,37
5.30000,36
5.30833,36
5.31667,35
5.32500,35
5.33333,34
5.34167,34
5.35000,33
5.35833,33
5.36667,33
5.37500,32
5.38333,32
5.39167,31
5.40000,30
5.40833,29
5.41667,28
5.42500,28
5.43333,27
5.44167,26
5.45000,26
5.45833,25
5.46667,24
5.47500,23
5.48333,22
5.49167,21
5.50000,20
5.50833,20
5.51667,19
5.52500,18
5.53333,17
5.54167,16
5.55000,15
5.55833,14
5.56667,13
5.57500,13
5.58333,12
5.59167,11
5.60000,10
5.60833,10
5.61667,9
5.62500,8
5.63333,8
5.64167,7
5.65000,6
5.65833,6
5.66667,5
5.67500,4
5.68333,3
5.69167,2
5.70000,1
5.70833,0
5.71667,-0
5.72500,-1
5.73333,-3
5.74167,-3
5.75000,-4
5.75833,-5
5.76667,-5
5.77500,-6
5.78333,-7
5.79167,-8
5.80000,-9
5.80833,-10
5.81667,-11
5.82500,-11
5.83333,-12
5.84167,-13
5.85000,-13
5.85833,-14
5.86667,-14
5.87500,-15
5.88333,-16
5.89167,-16
5.90000,-17
5.90833,-18
5.91667,-18
5.92500,-20
5.93333,-21
5.94167,-22
5.95000,-22
5.95833,-23
5.96667,-24
5.97500,-25
5.98333,-26
5.99167,-26
6.00000,-27
6.00833,-27
6.01667,-28
6.02500,-29
6.03333,-29
6.04167,-30
6.05000,-30
6.05833,-31
6.06667,-31
6.07500,-32
6.08333,-33
6.09167,-34
6.10000,-34
6.10833,-35
6.11667,-35
6.12500,-36
6.13333,-36
6.14167,-36
6.15000,-36
6.15833,-37
6.16667,-37
6.17500,-38
6.18333,-38
6.19167,-39
6.20000,-40
6.20833,-40
6.21667,-41
6.22500,-42
6.23333,-42
6.24167,-42
6.25000,-43
6.25833,-43
6.26667,-44
6.27500,-44
6.28333,-44
6.29167,-44
6.30000,-44
6.30833,-45
6.31667,-45
6.32500,-45
6.33333,-45
6.34167,-46
6.35000,-46
6.35833,-47
6.36667,-47
6.37500,-47
6.38333,-47
6.39167,-47
6.40000,-47
6.40833,-47
6.41667,-48
6.42500,-48
6.43333,-49
6.44167,-49
6.45000,-49
6.45833,-49
6.46667,-49
6.47500,-49
6.48333,-49
6.49167,-49
6.50000,-50
6.50833,-50
6.51667,-51
6.52500,-51
6.53333,-51
6.54167,-51
6.55000,-51
6.55833,-51
6.56667,-51
6.57500,-51
6.58333,-51
6.59167,-51
6.60000,-51
6.60833,-51
6.61667,-51
6.62500,-51
6.63333,-51
6.64167,-51
6.65000,-51
6.65833,-51
6.66667,-51
6.67500,-51
6.68333,-51
6.69167,-52
6.70000,-52
6.70833,-52
6.71667,-52
6.72500,-52
6.73333,-52
6.74167,-52
6.75000,-52
6.75833,-52
6.76667,-52
6.77500,-52
6.78333,-52
6.79167,-52
6.80000,-52
6.80833,-52
6.81667,-52
6.82500,-53
6.83333,-53
6.84167,-53
6.85000,-53
6.85833,-53
6.86667,-53
6.87500,-53
6.88333,-54
6.89167,-53
6.90000,-53
6.90833,-53
6.91667,-53
6.92500,-53
6.93333,-53
6.94167,-54
6.95000,-54
6.95833,-54
6.96667,-54
6.97500,-54
6.98333,-54
6.99167,-54
7.00000,-54
7.00833,-54
7.01667,-54
7.02500,-54
7.03333,-54
7.04167,-54
7.05000,-54
7.05833,-54
7.06667,-54
7.07500,-53
7.08333,-53
7.09167,-53
7.10000,-53
7.10833,-53
7.11667,-53
7.12500,-53
7.13333,-54
7.14167,-54
7.15000,-54
7.15833,-54
7.16667,-54
7.17500,-54
7.18333,-54
7.19167,-54
7.20000,-54
7.20833,-54
7.21667,-54
7.22500,-54
7.23333,-54
7.24167,-54
7.25000,-54
7.25833,-54
7.26667,-54
7.27500,-54
7.28333,-55
7.29167,-55
7.30000,-55
7.30833,-55
7.31667,-55
7.32500,-55
7.33333,-55
7.34167,-54
7.35000,-54
7.35833,-54
7.36667,-54
7.37500,-54
7.38333,-54
7.39167,-54
7.40000,-54
7.40833,-54
7.41667,-55
7.42500,-55
7.43333,-54
7.44167,-54
7.45000,-54
7.45833,-54
7.46667,-54
7.47500,-54
7.48333,-54
7.49167,-54
7.50000,-55
7.50833,-55
7.51667,-55
7.52500,-55
7.53333,-55
7.54167,-55
7.55000,-55
7.55833,-55
7.56667,-55
7.57500,-55
7.58333,-55
7.59167,-55
7.60000,-55
7.60833,-56
7.61667,-56
7.62500,-55
7.63333,-55
7.64167,-54
7.65000,-54
7.65833,-54
7.66667,-54
7.67500,-54
7.68333,-55
7.69167,-55
7.70000,-55
7.70833,-55
7.71667,-55
7.72500,-55
7.73333,-54
7.74167,-55
7.75000,-55
7.75833,-55
7.76667,-56
7.77500,-56
7.78333,-56
7.79167,-56
7.80000,-55
7.80833,-55
7.81667,-56
7.82500,-55
7.83333,-55
7.84167,-55
7.85000,-55
7.85833,-55
7.86667,-55
7.87500,-55
7.88333,-55
7.89167,-55
7.90000,-55
7.90833,-55
7.91667,-56
7.92500,-56
7.93333,-56
7.94167,-56
7.95000,-56
7.95833,-56
7.96667,-56
7.97500,-56
7.98333,-56
7.99167,-57
8.00000,-57
8.00833,-57
8.01667,-57
8.02500,-57
8.03333,-57
8.04167,-57
8.05000,-57
8.05833,-56
8.06667,-56
8.07500,-56
8.08333,-56
8.09167,-57
8.10000,-57
8.10833,-57
8.11667,-56
8.12500,-56
8.13333,-57
8.14167,-57
8.15000,-57
8.15833,-57
8.16667,-57
8.17500,-57
8.18333,-57
8.19167,-57
8.20000,-57
8.20833,-57
8.21667,-57
8.22500,-57
8.23333,-57
8.24167,-57
8.25000,-57
8.25833,-57
8.26667,-57
8.27500,-56
8.28333,-56
8.29167,-56
8.30000,-56
8.30833,-56
8.31667,-56
8.32500,-56
8.33333,-56
8.34167,-57
8.35000,-57
8.35833,-57
8.36667,-56
8.37500,-56
8.38333,-56
8.39167,-56
8.40000,-56
8.40833,-56
8.41667,-56
8.42500,-56
8.43333,-56
8.44167,-56
8.45000,-56
8.45833,-56
8.46667,-56
8.47500,-57
8.48333,-57
8.49167,-57
8.50000,-58
8.50833,-58
8.51667,-58
8.52500,-58
8.53333,-58
8.54167,-58
8.55000,-58
8.55833,-57
8.56667,-57
8.57500,-57
8.58333,-57
8.59167,-57
8.60000,-57
8.60833,-57
8.61667,-57
8.62500,-57
8.63333,-57
8.64167,-57
8.65000,-57
8.65833,-57
8.66667,-57
8.67500,-57
8.68333,-56
8.69167,-56
8.70000,-56
8.70833,-56
8.71667,-56
8.72500,-56
8.73333,-56
8.74167,-57
8.75000,-57
8.75833,-57
8.76667,-57
8.77500,-57
8.78333,-57
8.79167,-57
8.80000,-57
8.80833,-57
8.81667,-57
8.82500,-57
8.83333,-57
8.84167,-57
8.85000,-57
8.85833,-57
8.86667,-57
8.87500,-57
8.88333,-56
8.89167,-56
8.90000,-56
8.90833,-56
8.91667,-56
8.92500,-56
8.93333,-56
8.94167,-56
8.95000,-57
8.95833,-57
8.96667,-57
8.97500,-57
8.98333,-56
8.99167,-56
9.00000,-56
9.00833,-56
9.01667,-56
9.02500,-56
9.03333,-55
9.04167,-55
9.05000,-55
9.05833,-55
9.06667,-55
9.07500,-55
9.08333,-56
9.09167,-56
9.10000,-56
9.10833,-56
9.11667,-56
9.12500,-56
9.13333,-56
9.14167,-56
9.15000,-56
9.15833,-56
9.16667,-56
9.17500,-56
9.18333,-56
9.19167,-56
9.20000,-56
9.20833,-56
9.21667,-56
9.22500,-56
9.23333,-56
9.24167,-56
9.25000,-56
9.25833,-56
9.26667,-56
9.27500,-56
9.28333,-56
9.29167,-55
9.30000,-55
9.30833,-55
9.31667,-55
9.32500,-55
9.33333,-55
9.34167,-55
9.35000,-55
9.35833,-56
9.36667,-56
9.37500,-56
9.38333,-56
9.39167,-56
9.40000,-56
9.40833,-55
9.41667,-55
9.42500,-56
9.43333,-56
9.44167,-55
9.45000,-56
9.45833,-56
9.46667,-56
9.47500,-56
9.48333,-57
9.49167,-57
9.50000,-57
9.50833,-56
9.51667,-56
9.52500,-56
9.53333,-55
9.54167,-55
9.55000,-55
9.55833,-55
9.56667,-55
9.57500,-55
9.58333,-55
9.59167,-55
9.60000,-55
9.60833,-55
9.61667,-55
9.62500,-55
9.63333,-55
9.64167,-55
9.65000,-55
9.65833,-54
9.66667,-54
9.67500,-54
9.68333,-54
9.69167,-54
9.70000,-54
9.70833,-55
9.71667,-55
9.72500,-55
9.73333,-55
9.74167,-55
9.75000,-55
9.75833,-55
9.76667,-55
9.77500,-55
9.78333,-54
9.79167,-54
9.80000,-55
9.80833,-55
9.81667,-55
9.82500,-55
9.83333,-54
9.84167,-54
9.85000,-54
9.85833,-53
9.86667,-53
9.87500,-53
9.88333,-53
9.89167,-53
9.90000,-53
9.90833,-53
9.91667,-53
9.92500,-53
9.93333,-54
9.94167,-54
9.95000,-54
9.95833,-54
9.96667,-54
9.97500,-53
9.98333,-53
9.99167,-53
10.00000,-53
10.00833,-52
10.01667,-52
10.02500,-52
10.03333,-52
10.04167,-52
10.05000,-52
10.05833,-52
10.06667,-52
10.07500,-52
10.08333,-51
10.09167,-51
10.10000,-51
10.10833,-51
10.11667,-50
10.12500,-49
10.13333,-49
10.14167,-48
10.15000,-47
10.15833,-46
10.16667,-45
10.17500,-44
10.18333,-43
10.19167,-42
10.20000,-41
10.20833,-40
10.21667,-39
10.22500,-37
10.23333,-36
10.24167,-35
10.25000,-33
10.25833,-31
10.26667,-28
10.27500,-26
10.28333,-23
10.29167,-19
10.30000,-16
10.30833,-12
10.31667,-7
10.32500,-2
10.33333,5
10.34167,13
10.35000,22
10.35833,33
10.36667,44
10.37500,58
10.38333,72
10.39167,88
10.40000,104
10.40833,122
10.41667,139
10.42500,158
10.43333,175
10.44167,191
10.45000,205
10.45833,216
10.46667,224
10.47500,229
10.48333,231
10.49167,230
10.50000,227
10.50833,223
10.51667,221
10.52500,222
10.53333,230
10.54167,248
10.55000,280
10.55833,331
10.56667,405
10.57500,508
10.58333,646
10.59167,824
10.60000,1049
10.60833,1326
10.61667,1661
10.62500,2061
10.63333,2532
10.64167,3080
10.65000,3709
10.65833,4426
10.66667,5235
10.67500,6141
10.68333,7148
10.69167,8261
10.70000,9482
10.70833,10816
10.71667,12264
10.72500,13830
10.73333,15515
10.74167,17322
10.75000,19250
10.75833,21300
10.76667,23474
10.77500,25771
10.78333,28190
10.79167,30731
10.80000,33393
10.80833,36174
10.81667,39070
10.82500,42081
10.83333,45202
10.84167,48428
10.85000,51757
10.85833,55182
10.86667,58697
10.87500,62294
10.88333,65965
10.89167,69700
10.90000,73486
10.90833,77309
10.91667,81153
10.92500,84998
10.93333,88820
10.94167,92593
10.95000,96286
10.95833,99862
10.96667,103280
10.97500,106497
10.98333,109461
10.99167,112117
11.00000,114411
11.00833,116284
11.01667,117678
11.02500,118538
11.03333,118815
11.04167,118470
11.05000,117473
11.05833,115811
11.06667,113484
11.07500,110511
11.08333,106933
11.09167,102805
11.10000,98198
11.10833,93197
11.11667,87895
11.12500,82388
11.13333,76772
11.14167,71141
11.15000,65580
11.15833,60164
11.16667,54954
11.17500,50003
11.18333,45346
11.19167,41009
11.20000,37005
11.20833,33338
11.21667,30004
11.22500,26991
11.23333,24286
11.24167,21867
11.25000,19713
11.25833,17802
11.26667,16112
11.27500,14621
11.28333,13306
11.29167,12149
11.30000,11129
11.30833,10232
11.31667,9441
11.32500,8743
11.33333,8126
11.34167,7580
11.35000,7094
11.35833,6661
11.36667,6274
11.37500,5926
11.38333,5613
11.39167,5329
11.40000,5071
11.40833,4835
11.41667,4619
11.42500,4420
11.43333,4237
11.44167,4066
11.45000,3907
11.45833,3758
11.46667,3619
11.47500,3488
11.48333,3364
11.49167,3246
11.50000,3135
11.50833,3029
11.51667,2928
11.52500,2832
11.53333,2741
11.54167,2653
11.55000,2568
11.55833,2488
11.56667,2411
11.57500,2337
11.58333,2265
11.59167,2197
11.60000,2132
11.60833,2069
11.61667,2008
11.62500,1949
11.63333,1893
11.64167,1839
11.65000,1787
11.65833,1738
11.66667,1690
11.67500,1644
11.68333,1599
11.69167,1557
11.70000,1516
11.70833,1477
11.71667,1440
11.72500,1404
11.73333,1369
11.74167,1336
11.75000,1304
11.75833,1273
11.76667,1243
11.77500,1215
11.78333,1189
11.79167,1163
11.80000,1138
11.80833,1114
11.81667,1091
11.82500,1069
11.83333,1049
11.84167,1029
11.85000,1010
11.85833,991
11.86667,974
11.87500,957
11.88333,941
11.89167,925
11.90000,911
11.90833,896
11.91667,882
11.92500,869
11.93333,857
11.94167,845
11.95000,833
11.95833,823
11.96667,813
11.97500,803
11.98333,793
11.99167,784
12.00000,776
12.00833,768
12.01667,760
12.02500,752
12.03333,744
12.04167,737
12.05000,730
12.05833,724
12.06667,717
12.07500,711
12.08333,705
12.09167,699
12.10000,693
12.10833,688
12.11667,683
12.12500,678
12.13333,674
12.14167,669
12.15000,665
12.15833,661
12.16667,657
12.17500,653
12.18333,649
12.19167,646
12.20000,643
12.20833,640
12.21667,638
12.22500,636
12.23333,634
12.24167,632
12.25000,630
12.25833,628
12.26667,627
12.27500,625
12.28333,624
12.29167,623
12.30000,622
12.30833,621
12.31667,620
12.32500,619
12.33333,619
12.34167,618
12.35000,617
12.35833,617
12.36667,616
12.37500,616
12.38333,615
12.39167,615
12.40000,614
12.40833,614
12.41667,613
12.42500,613
12.43333,613
12.44167,613
12.45000,612
12.45833,611
12.46667,610
12.47500,609
12.48333,608
12.49167,608
12.50000,607
12.50833,605
12.51667,604
12.52500,603
12.53333,601
12.54167,600
12.55000,598
12.55833,597
12.56667,595
12.57500,594
12.58333,592
12.59167,590
12.60000,589
12.60833,587
12.61667,585
12.62500,584
12.63333,582
12.64167,581
12.65000,581
12.65833,580
12.66667,580
12.67500,581
12.68333,582
12.69167,584
12.70000,587
12.70833,591
12.71667,596
12.72500,602
12.73333,611
12.74167,621
12.75000,633
12.75833,649
12.76667,666
12.77500,686
12.78333,709
12.79167,736
12.80000,765
12.80833,799
12.81667,836
12.82500,877
12.83333,923
12.84167,973
12.85000,1027
12.85833,1087
12.86667,1152
12.87500,1222
12.88333,1297
12.89167,1378
12.90000,1463
12.90833,1554
12.91667,1651
12.92500,1753
12.93333,1861
12.94167,1975
12.95000,2094
12.95833,2219
12.96667,2350
12.97500,2487
12.98333,2630
12.99167,2778
13.00000,2933
13.00833,3092
13.01667,3258
13.02500,3430
13.03333,3607
13.04167,3789
13.05000,3977
13.05833,4171
13.06667,4370
13.07500,4575
13.08333,4785
13.09167,4999
13.10000,5219
13.10833,5444
13.11667,5674
13.12500,5909
13.13333,6148
13.14167,6392
13.15000,6641
13.15833,6893
13.16667,7150
13.17500,7411
13.18333,7676
13.19167,7945
13.20000,8219
13.20833,8496
13.21667,8777
13.22500,9061
13.23333,9350
13.24167,9641
13.25000,9936
13.25833,10234
13.26667,10536
13.27500,10840
13.28333,11148
13.29167,11458
13.30000,11772
13.30833,12089
13.31667,12408
13.32500,12731
13.33333,13057
13.34167,13385
13.35000,13716
13.35833,14050
13.36667,14387
13.37500,14727
13.38333,15069
13.39167,15414
13.40000,15762
13.40833,16112
13.41667,16466
13.42500,16822
13.43333,17180
13.44167,17542
13.45000,17906
13.45833,18273
13.46667,18644
13.47500,19017
13.48333,19393
13.49167,19772
13.50000,20153
13.50833,20538
13.51667,20926
13.52500,21316
13.53333,21710
13.54167,22106
13.55000,22506
13.55833,22909
13.56667,23316
13.57500,23725
13.58333,24138
13.59167,24554
13.60000,24973
13.60833,25396
13.61667,25822
13.62500,26251
13.63333,26684
13.64167,27120
13.65000,27560
13.65833,28003
13.66667,28449
13.67500,28900
13.68333,29354
13.69167,29812
13.70000,30274
13.70833,30739
13.71667,31209
13.72500,31681
13.73333,32158
13.74167,32639
13.75000,33124
13.75833,33613
13.76667,34106
13.77500,34603
13.78333,35104
13.79167,35609
13.80000,36119
13.80833,36632
13.81667,37150
13.82500,37672
13.83333,38199
13.84167,38730
13.85000,39266
13.85833,39806
13.86667,40351
13.87500,40900
13.88333,41454
13.89167,42012
13.90000,42575
13.90833,43143
13.91667,43716
13.92500,44294
13.93333,44877
13.94167,45465
13.95000,46058
13.95833,46656
13.96667,47259
13.97500,47867
13.98333,48481
13.99167,49100
14.00000,49725
14.00833,50354
14.01667,50989
14.02500,51630
14.03333,52277
14.04167,52929
14.05000,53586
14.05833,54250
14.06667,54920
14.07500,55595
14.08333,56277
14.09167,56965
14.10000,57659
14.10833,58359
14.11667,59066
14.12500,59778
14.13333,60497
14.14167,61224
14.15000,61956
14.15833,62696
14.16667,63443
14.17500,64196
14.18333,64957
14.19167,65725
14.20000,66500
14.20833,67282
14.21667,68072
14.22500,68868
14.23333,69670
14.24167,70477
14.25000,71286
14.25833,72095
14.26667,72899
14.27500,73692
14.28333,74468
14.29167,75216
14.30000,75926
14.30833,76588
14.31667,77189
14.32500,77716
14.33333,78156
14.34167,78497
14.35000,78729
14.35833,78842
14.36667,78827
14.37500,78679
14.38333,78392
14.39167,77962
14.40000,77387
14.40833,76664
14.41667,75792
14.42500,74768
14.43333,73591
14.44167,72259
14.45000,70770
14.45833,69123
14.46667,67317
14.47500,65352
14.48333,63232
14.49167,60963
14.50000,58555
14.50833,56020
14.51667,53374
14.52500,50637
14.53333,47833
14.54167,44987
14.55000,42126
14.55833,39275
14.56667,36463
14.57500,33715
14.58333,31054
14.59167,28501
14.60000,26071
14.60833,23779
14.61667,21633
14.62500,19640
14.63333,17801
14.64167,16115
14.65000,14580
14.65833,13189
14.66667,11935
14.67500,10809
14.68333,9801
14.69167,8903
14.70000,8105
14.70833,7397
14.71667,6770
14.72500,6215
14.73333,5725
14.74167,5291
14.75000,4907
14.75833,4567
14.76667,4266
14.77500,3999
14.78333,3762
14.79167,3550
14.80000,3361
14.80833,3191
14.81667,3039
14.82500,2901
14.83333,2776
14.84167,2662
14.85000,2559
14.85833,2464
14.86667,2377
14.87500,2297
14.88333,2224
14.89167,2155
14.90000,2091
14.90833,2031
14.91667,1975
14.92500,1922
14.93333,1872
14.94167,1826
14.95000,1782
14.95833,1740
14.96667,1700
14.97500,1663
14.98333,1627
14.99167,1593
15.00000,1561
15.00833,1530
15.01667,1501
15.02500,1473
15.03333,1447
15.04167,1422
15.05000,1398
15.05833,1375
15.06667,1353
15.07500,1333
15.08333,1313
15.09167,1294
15.10000,1276
15.10833,1260
15.11667,1244
15.12500,1229
15.13333,1215
15.14167,1203
15.15000,1191
15.15833,1181
15.16667,1171
15.17500,1163
15.18333,1156
15.19167,1152
15.20000,1149
15.20833,1148
15.21667,1151
15.22500,1157
15.23333,1167
15.24167,1182
15.25000,1204
15.25833,1232
15.26667,1269
15.27500,1316
15.28333,1374
15.29167,1445
15.30000,1532
15.30833,1637
15.31667,1761
15.32500,1909
15.33333,2081
15.34167,2283
15.35000,2518
15.35833,2787
15.36667,3096
15.37500,3447
15.38333,3844
15.39167,4290
15.40000,4788
15.40833,5343
15.41667,5956
15.42500,6630
15.43333,7367
15.44167,8170
15.45000,9038
15.45833,9974
15.46667,10976
15.47500,12045
15.48333,13179
15.49167,14376
15.50000,15633
15.50833,16946
15.51667,18312
15.52500,19725
15.53333,21180
15.54167,22671
15.55000,24192
15.55833,25735
15.56667,27293
15.57500,28859
15.58333,30425
15.59167,31982
15.60000,33524
15.60833,35043
15.61667,36532
15.62500,37983
15.63333,39390
15.64167,40747
15.65000,42047
15.65833,43287
15.66667,44460
15.67500,45563
15.68333,46592
15.69167,47544
15.70000,48415
15.70833,49205
15.71667,49910
15.72500,50530
15.73333,51063
15.74167,51509
15.75000,51867
15.75833,52136
15.76667,52318
15.77500,52412
15.78333,52419
15.79167,52340
15.80000,52176
15.80833,51927
15.81667,51595
15.82500,51183
15.83333,50691
15.84167,50123
15.85000,49480
15.85833,48765
15.86667,47982
15.87500,47133
15.88333,46223
15.89167,45253
15.90000,44230
15.90833,43157
15.91667,42040
15.92500,40882
15.93333,39688
15.94167,38464
15.95000,37215
15.95833,35946
15.96667,34661
15.97500,33366
15.98333,32066
15.99167,30766
16.00000,29470
16.00833,28184
16.01667,26911
16.02500,25656
16.03333,24422
16.04167,23213
16.05000,22031
16.05833,20881
16.06667,19764
16.07500,18682
16.08333,17637
16.09167,16631
16.10000,15664
16.10833,14738
16.11667,13853
16.12500,13011
16.13333,12209
16.14167,11449
16.15000,10730
16.15833,10051
16.16667,9411
16.17500,8809
16.18333,8244
16.19167,7716
16.20000,7221
16.20833,6760
16.21667,6331
16.22500,5932
16.23333,5561
16.24167,5217
16.25000,4899
16.25833,4605
16.26667,4333
16.27500,4083
16.28333,3852
16.29167,3640
16.30000,3444
16.30833,3264
16.31667,3100
16.32500,2949
16.33333,2810
16.34167,2682
16.35000,2566
16.35833,2459
16.36667,2361
16.37500,2271
16.38333,2188
16.39167,2112
16.40000,2042
16.40833,1977
16.41667,1917
16.42500,1862
16.43333,1811
16.44167,1764
16.45000,1721
16.45833,1681
16.46667,1643
16.47500,1608
16.48333,1575
16.49167,1544
16.50000,1514
16.50833,1486
16.51667,1460
16.52500,1435
16.53333,1410
16.54167,1387
16.55000,1365
16.55833,1344
16.56667,1323
16.57500,1302
16.58333,1282
16.59167,1263
16.60000,1243
16.60833,1225
16.61667,1206
16.62500,1189
16.63333,1171
16.64167,1154
16.65000,1137
16.65833,1121
16.66667,1104
16.67500,1088
16.68333,1073
16.69167,1057
16.70000,1042
16.70833,1027
16.71667,1012
16.72500,998
16.73333,984
16.74167,971
16.75000,957
16.75833,945
16.76667,933
16.77500,921
16.78333,909
16.79167,899
16.80000,888
16.80833,878
16.81667,868
16.82500,859
16.83333,850
16.84167,842
16.85000,833
16.85833,826
16.86667,818
16.87500,811
16.88333,804
16.89167,797
16.90000,791
16.90833,785
16.91667,779
16.92500,774
16.93333,768
16.94167,763
16.95000,758
16.95833,753
16.96667,749
16.97500,745
16.98333,741
16.99167,737
17.00000,733
17.00833,730
17.01667,726
17.02500,723
17.03333,720
17.04167,717
17.05000,714
17.05833,711
17.06667,708
17.07500,705
17.08333,702
17.09167,699
17.10000,696
17.10833,694
17.11667,692
17.12500,690
17.13333,688
17.14167,686
17.15000,684
17.15833,682
17.16667,681
17.17500,679
17.18333,677
17.19167,675
17.20000,673
17.20833,671
17.21667,670
17.22500,668
17.23333,667
17.24167,665
17.25000,664
17.25833,662
17.26667,660
17.27500,659
17.28333,657
17.29167,655
17.30000,654
17.30833,652
17.31667,651
17.32500,649
17.33333,648
17.34167,647
17.35000,646
17.35833,644
17.36667,643
17.37500,642
17.38333,641
17.39167,640
17.40000,640
17.40833,639
17.41667,639
17.42500,639
17.43333,640
17.44167,640
17.45000,640
17.45833,641
17.46667,643
17.47500,644
17.48333,646
17.49167,648
17.50000,650
17.50833,653
17.51667,656
17.52500,660
17.53333,663
17.54167,667
17.55000,671
17.55833,675
17.56667,680
17.57500,685
17.58333,690
17.59167,695
17.60000,701
17.60833,706
17.61667,712
17.62500,717
17.63333,723
17.64167,729
17.65000,735
17.65833,742
17.66667,748
17.67500,754
17.68333,760
17.69167,765
17.70000,771
17.70833,776
17.71667,782
17.72500,787
17.73333,792
17.74167,797
17.75000,802
17.75833,806
17.76667,810
17.77500,815
17.78333,819
17.79167,823
17.80000,826
17.80833,830
17.81667,833
17.82500,836
17.83333,838
17.84167,840
17.85000,841
17.85833,843
17.86667,843
17.87500,844
17.88333,844
17.89167,844
17.90000,843
17.90833,842
17.91667,841
17.92500,839
17.93333,837
17.94167,834
17.95000,831
17.95833,828
17.96667,824
17.97500,820
17.98333,816
17.99167,811
18.00000,805
18.00833,800
18.01667,794
18.02500,788
18.03333,781
18.04167,774
18.05000,767
18.05833,760
18.06667,753
18.07500,746
18.08333,738
18.09167,730
18.10000,722
18.10833,713
18.11667,705
18.12500,697
18.13333,689
18.14167,681
18.15000,672
18.15833,665
18.16667,656
18.17500,648
18.18333,640
18.19167,632
18.20000,624
18.20833,617
18.21667,609
18.22500,602
18.23333,594
18.24167,587
18.25000,581
18.25833,574
18.26667,567
18.27500,561
18.28333,556
18.29167,550
18.30000,544
18.30833,539
18.31667,534
18.32500,529
18.33333,525
18.34167,521
18.35000,517
18.35833,514
18.36667,510
18.37500,508
18.38333,505
18.39167,503
18.40000,501
18.40833,499
18.41667,498
18.42500,497
18.43333,495
18.44167,494
18.45000,494
18.45833,494
18.46667,495
18.47500,495
18.48333,496
18.49167,497
18.50000,499
18.50833,500
18.51667,502
18.52500,504
18.53333,506
18.54167,509
18.55000,511
18.55833,515
18.56667,518
18.57500,521
18.58333,525
18.59167,528
18.60000,532
18.60833,536
18.61667,540
18.62500,545
18.63333,549
18.64167,554
18.65000,558
18.65833,563
18.66667,568
18.67500,573
18.68333,578
18.69167,583
18.70000,589
18.70833,594
18.71667,599
18.72500,604
18.73333,609
18.74167,615
18.75000,620
18.75833,626
18.76667,631
18.77500,637
18.78333,642
18.79167,648
18.80000,653
18.80833,658
18.81667,663
18.82500,669
18.83333,674
18.84167,679
18.85000,684
18.85833,688
18.86667,693
18.87500,698
18.88333,702
18.89167,706
18.90000,711
18.90833,715
18.91667,719
18.92500,723
18.93333,726
18.94167,730
18.95000,733
18.95833,736
18.96667,740
18.97500,742
18.98333,745
18.99167,746
19.00000,748
19.00833,750
19.01667,752
19.02500,753
19.03333,754
19.04167,755
19.05000,756
19.05833,756
19.06667,756
19.07500,756
19.08333,756
19.09167,755
19.10000,754
19.10833,753
19.11667,752
19.12500,751
19.13333,750
19.14167,748
19.15000,746
19.15833,743
19.16667,741
19.17500,739
19.18333,736
19.19167,733
19.20000,730
19.20833,726
19.21667,723
19.22500,719
19.23333,715
19.24167,711
19.25000,707
19.25833,703
19.26667,699
19.27500,694
19.28333,689
19.29167,684
19.30000,680
19.30833,675
19.31667,670
19.32500,665
19.33333,660
19.34167,654
19.35000,649
19.35833,643
19.36667,637
19.37500,632
19.38333,627
19.39167,622
19.40000,617
19.40833,612
19.41667,607
19.42500,602
19.43333,597
19.44167,592
19.45000,587
19.45833,582
19.46667,576
19.47500,571
19.48333,565
19.49167,560
19.50000,555
19.50833,550
19.51667,545
19.52500,541
19.53333,536
19.54167,531
19.55000,527
19.55833,522
19.56667,518
19.57500,514
19.58333,510
19.59167,505
19.60000,501
19.60833,497
19.61667,493
19.62500,489
19.63333,485
19.64167,482
19.65000,478
19.65833,475
19.66667,472
19.67500,470
19.68333,467
19.69167,465
19.70000,463
19.70833,461
19.71667,460
19.72500,458
19.73333,457
19.74167,456
19.75000,456
19.75833,456
19.76667,456
19.77500,456
19.78333,458
19.79167,459
19.80000,461
19.80833,463
19.81667,466
19.82500,470
19.83333,474
19.84167,478
19.85000,483
19.85833,489
19.86667,495
19.87500,502
19.88333,509
19.89167,517
19.90000,526
19.90833,535
19.91667,544
19.92500,554
19.93333,565
19.94167,576
19.95000,588
19.95833,601
19.96667,614
19.97500,627
19.98333,642
19.99167,656
20.00000,670
20.00833,685
20.01667,700
20.02500,715
20.03333,729
20.04167,744
20.05000,760
20.05833,775
20.06667,790
20.07500,805
20.08333,820
20.09167,834
20.10000,849
20.10833,863
20.11667,876
20.12500,890
20.13333,902
20.14167,915
20.15000,927
20.15833,939
20.16667,950
20.17500,961
20.18333,971
20.19167,980
20.20000,989
20.20833,997
20.21667,1005
20.22500,1012
20.23333,1018
20.24167,1023
20.25000,1028
20.25833,1032
20.26667,1036
20.27500,1038
20.28333,1041
20.29167,1043
20.30000,1044
20.30833,1044
20.31667,1043
20.32500,1042
20.33333,1041
20.34167,1039
20.35000,1036
20.35833,1032
20.36667,1028
20.37500,1023
20.38333,1017
20.39167,1012
20.40000,1006
20.40833,999
20.41667,992
20.42500,985
20.43333,977
20.44167,969
20.45000,961
20.45833,952
20.46667,943
20.47500,934
20.48333,925
20.49167,916
20.50000,907
20.50833,898
20.51667,889
20.52500,881
20.53333,873
20.54167,864
20.55000,856
20.55833,849
20.56667,841
20.57500,834
20.58333,828
20.59167,822
20.60000,817
20.60833,812
20.61667,808
20.62500,804
20.63333,801
20.64167,798
20.65000,796
20.65833,795
20.66667,794
20.67500,793
20.68333,793
20.69167,793
20.70000,794
20.70833,795
20.71667,797
20.72500,798
20.73333,801
20.74167,803
20.75000,806
20.75833,809
20.76667,813
20.77500,816
20.78333,820
20.79167,823
20.80000,827
20.80833,831
20.81667,835
20.82500,839
20.83333,843
20.84167,847
20.85000,850
20.85833,854
20.86667,858
20.87500,862
20.88333,865
20.89167,868
20.90000,871
20.90833,874
20.91667,877
20.92500,879
20.93333,882
20.94167,884
20.95000,886
20.95833,888
20.96667,890
20.97500,892
20.98333,893
20.99167,894
21.00000,895
21.00833,895
21.01667,895
21.02500,895
21.03333,894
21.04167,894
21.05000,892
21.05833,890
21.06667,888
21.07500,885
21.08333,883
21.09167,880
21.10000,877
21.10833,873
21.11667,869
21.12500,865
21.13333,860
21.14167,855
21.15000,850
21.15833,844
21.16667,838
21.17500,832
21.18333,826
21.19167,820
21.20000,814
21.20833,808
21.21667,801
21.22500,795
21.23333,788
21.24167,781
21.25000,774
21.25833,767
21.26667,760
21.27500,753
21.28333,747
21.29167,740
21.30000,733
21.30833,727
21.31667,721
21.32500,715
21.33333,709
21.34167,703
21.35000,698
21.35833,693
21.36667,689
21.37500,685
21.38333,681
21.39167,678
21.40000,675
21.40833,672
21.41667,670
21.42500,669
21.43333,668
21.44167,668
21.45000,668
21.45833,669
21.46667,671
21.47500,673
21.48333,676
21.49167,680
21.50000,684
21.50833,689
21.51667,694
21.52500,700
21.53333,707
21.54167,714
21.55000,722
21.55833,731
21.56667,740
21.57500,749
21.58333,759
21.59167,769
21.60000,779
21.60833,790
21.61667,801
21.62500,813
21.63333,824
21.64167,835
21.65000,847
21.65833,858
21.66667,869
21.67500,880
21.68333,891
21.69167,901
21.70000,912
21.70833,922
21.71667,931
21.72500,941
21.73333,950
21.74167,958
21.75000,966
21.75833,973
21.76667,980
21.77500,987
21.78333,993
21.79167,998
21.80000,1002
21.80833,1006
21.81667,1010
21.82500,1013
21.83333,1016
21.84167,1019
21.85000,1020
21.85833,1022
21.86667,1022
21.87500,1022
21.88333,1022
21.89167,1021
21.90000,1020
21.90833,1017
21.91667,1015
21.92500,1011
21.93333,1008
21.94167,1003
21.95000,998
21.95833,993
21.96667,988
21.97500,981
21.98333,974
21.99167,967
22.00000,959
22.00833,950
22.01667,941
22.02500,931
22.03333,921
22.04167,911
22.05000,900
22.05833,888
22.06667,876
22.07500,863
22.08333,850
22.09167,836
22.10000,822
22.10833,808
22.11667,794
22.12500,779
22.13333,764
22.14167,749
22.15000,733
22.15833,718
22.16667,702
22.17500,686
22.18333,670
22.19167,655
22.20000,640
22.20833,624
22.21667,609
22.22500,594
22.23333,580
22.24167,566
22.25000,552
22.25833,538
22.26667,524
22.27500,511
22.28333,499
22.29167,487
22.30000,475
22.30833,464
22.31667,453
22.32500,443
22.33333,432
22.34167,423
22.35000,414
22.35833,405
22.36667,397
22.37500,389
22.38333,381
22.39167,374
22.40000,367
22.40833,361
22.41667,355
22.42500,350
22.43333,345
22.44167,340
22.45000,336
22.45833,333
22.46667,329
22.47500,326
22.48333,323
22.49167,320
22.50000,317
22.50833,315
22.51667,313
22.52500,311
22.53333,309
22.54167,308
22.55000,306
22.55833,305
22.56667,303
22.57500,303
22.58333,302
22.59167,302
22.60000,301
22.60833,301
22.61667,301
22.62500,301
22.63333,301
22.64167,301
22.65000,302
22.65833,302
22.66667,303
22.67500,304
22.68333,305
22.69167,306
22.70000,307
22.70833,308
22.71667,309
22.72500,310
22.73333,311
22.74167,312
22.75000,314
22.75833,315
22.76667,316
22.77500,318
22.78333,320
22.79167,322
22.80000,324
22.80833,326
22.81667,327
22.82500,329
22.83333,331
22.84167,333
22.85000,335
22.85833,338
22.86667,340
22.87500,342
22.88333,345
22.89167,346
22.90000,348
22.90833,351
22.91667,352
22.92500,354
22.93333,356
22.94167,358
22.95000,360
22.95833,362
22.96667,365
22.97500,366
22.98333,368
22.99167,370
23.00000,372
23.00833,374
23.01667,375
23.02500,377
23.03333,379
23.04167,381
23.05000,382
23.05833,383
23.06667,385
23.07500,386
23.08333,387
23.09167,388
23.10000,390
23.10833,391
23.11667,392
23.12500,394
23.13333,395
23.14167,395
23.15000,396
23.15833,396
23.16667,397
23.17500,397
23.18333,398
23.19167,398
23.20000,399
23.20833,399
23.21667,400
23.22500,400
23.23333,400
23.24167,400
23.25000,400
23.25833,400
23.26667,400
23.27500,400
23.28333,400
23.29167,400
23.30000,400
23.30833,400
23.31667,399
23.32500,398
23.33333,398
23.34167,397
23.35000,397
23.35833,396
23.36667,396
23.37500,395
23.38333,394
23.39167,394
23.40000,394
23.40833,394
23.41667,394
23.42500,393
23.43333,392
23.44167,392
23.45000,392
23.45833,391
23.46667,391
23.47500,391
23.48333,390
23.49167,390
23.50000,390
23.50833,389
23.51667,389
23.52500,389
23.53333,389
23.54167,388
23.55000,387
23.55833,387
23.56667,387
23.57500,386
23.58333,386
23.59167,386
23.60000,386
23.60833,385
23.61667,385
23.62500,385
23.63333,385
23.64167,384
23.65000,383
23.65833,383
23.66667,382
23.67500,382
23.68333,382
23.69167,382
23.70000,381
23.70833,381
23.71667,380
23.72500,379
23.73333,379
23.74167,379
23.75000,378
23.75833,378
23.76667,377
23.77500,377
23.78333,376
23.79167,375
23.80000,374
23.80833,373
23.81667,372
23.82500,372
23.83333,371
23.84167,370
23.85000,369
23.85833,369
23.86667,368
23.87500,367
23.88333,366
23.89167,364
23.90000,363
23.90833,363
23.91667,362
23.92500,361
23.93333,360
23.94167,358
23.95000,357
23.95833,356
23.96667,354
23.97500,353
23.98333,352
23.99167,351
24.00000,350
24.00833,349
24.01667,348
24.02500,346
24.03333,345
24.04167,344
24.05000,342
24.05833,341
24.06667,340
24.07500,339
24.08333,338
24.09167,338
24.10000,337
24.10833,336
24.11667,335
24.12500,334
24.13333,333
24.14167,332
24.15000,332
24.15833,331
24.16667,330
24.17500,329
24.18333,327
24.19167,326
24.20000,326
24.20833,325
24.21667,324
24.22500,323
24.23333,323
24.24167,322
24.25000,322
24.25833,321
24.26667,321
24.27500,320
24.28333,320
24.29167,320
24.30000,320
24.30833,320
24.31667,321
24.32500,321
24.33333,322
24.34167,322
24.35000,324
24.35833,326
24.36667,328
24.37500,331
24.38333,334
24.39167,338
24.40000,342
24.40833,347
24.41667,352
24.42500,358
24.43333,365
24.44167,373
24.45000,382
24.45833,392
24.46667,403
24.47500,416
24.48333,430
24.49167,445
24.50000,462
24.50833,480
24.51667,500
24.52500,522
24.53333,547
24.54167,573
24.55000,601
24.55833,631
24.56667,664
24.57500,699
24.58333,737
24.59167,776
24.60000,819
24.60833,863
24.61667,910
24.62500,959
24.63333,1010
24.64167,1064
24.65000,1121
24.65833,1179
24.66667,1239
24.67500,1302
24.68333,1366
24.69167,1432
24.70000,1499
24.70833,1569
24.71667,1639
24.72500,1711
24.73333,1784
24.74167,1857
24.75000,1931
24.75833,2005
24.76667,2080
24.77500,2155
24.78333,2229
24.79167,2303
24.80000,2377
24.80833,2450
24.81667,2522
24.82500,2593
24.83333,2662
24.84167,2731
24.85000,2798
24.85833,2863
24.86667,2927
24.87500,2989
24.88333,3049
24.89167,3107
24.90000,3163
24.90833,3217
24.91667,3269
24.92500,3319
24.93333,3367
24.94167,3413
24.95000,3456
24.95833,3497
24.96667,3536
24.97500,3572
24.98333,3607
24.99167,3639
25.00000,3669
25.00833,3696
25.01667,3721
25.02500,3743
25.03333,3763
25.04167,3780
25.05000,3795
25.05833,3807
25.06667,3817
25.07500,3824
25.08333,3829
25.09167,3832
25.10000,3831
25.10833,3828
25.11667,3822
25.12500,3812
25.13333,3800
25.14167,3785
25.15000,3766
25.15833,3745
25.16667,3722
25.17500,3695
25.18333,3666
25.19167,3633
25.20000,3598
25.20833,3560
25.21667,3519
25.22500,3476
25.23333,3430
25.24167,3381
25.25000,3330
25.25833,3277
25.26667,3222
25.27500,3164
25.28333,3105
25.29167,3044
25.30000,2981
25.30833,2916
25.31667,2850
25.32500,2784
25.33333,2716
25.34167,2647
25.35000,2578
25.35833,2508
25.36667,2439
25.37500,2369
25.38333,2299
25.39167,2229
25.40000,2160
25.40833,2092
25.41667,2023
25.42500,1956
25.43333,1890
25.44167,1825
25.45000,1762
25.45833,1699
25.46667,1638
25.47500,1578
25.48333,1520
25.49167,1463
25.50000,1408
25.50833,1354
25.51667,1303
25.52500,1253
25.53333,1204
25.54167,1158
25.55000,1113
25.55833,1070
25.56667,1029
25.57500,990
25.58333,952
25.59167,916
25.60000,881
25.60833,848
25.61667,817
25.62500,788
25.63333,760
25.64167,734
25.65000,708
25.65833,684
25.66667,661
25.67500,639
25.68333,619
25.69167,600
25.70000,582
25.70833,565
25.71667,549
25.72500,533
25.73333,518
25.74167,504
25.75000,492
25.75833,479
25.76667,468
25.77500,457
25.78333,446
25.79167,436
25.80000,426
25.80833,417
25.81667,408
25.82500,400
25.83333,392
25.84167,385
25.85000,378
25.85833,371
25.86667,364
25.87500,357
25.88333,350
25.89167,344
25.90000,338
25.90833,332
25.91667,326
25.92500,321
25.93333,315
25.94167,310
25.95000,304
25.95833,299
25.96667,294
25.97500,288
25.98333,284
25.99167,279
26.00000,273
26.00833,268
26.01667,263
26.02500,258
26.03333,253
26.04167,249
26.05000,244
26.05833,240
26.06667,236
26.07500,232
26.08333,228
26.09167,223
26.10000,219
26.10833,214
26.11667,210
26.12500,206
26.13333,202
26.14167,198
26.15000,195
26.15833,191
26.16667,188
26.17500,184
26.18333,181
26.19167,178
26.20000,175
26.20833,172
26.21667,170
26.22500,167
26.23333,164
26.24167,161
26.25000,159
26.25833,157
26.26667,154
26.27500,152
26.28333,150
26.29167,148
26.30000,147
26.30833,145
26.31667,143
26.32500,141
26.33333,140
26.34167,138
26.35000,137
26.35833,135
26.36667,134
26.37500,133
26.38333,132
26.39167,132
26.40000,131
26.40833,130
26.41667,129
26.42500,128
26.43333,128
26.44167,127
26.45000,127
26.45833,126
26.46667,125
26.47500,125
26.48333,125
26.49167,126
26.50000,125
26.50833,125
26.51667,125
26.52500,125
26.53333,125
26.54167,124
26.55000,124
26.55833,124
26.56667,124
26.57500,124
26.58333,124
26.59167,124
26.60000,125
26.60833,125
26.61667,125
26.62500,126
26.63333,126
26.64167,126
26.65000,126
26.65833,126
26.66667,126
26.67500,126
26.68333,126
26.69167,126
26.70000,127
26.70833,127
26.71667,127
26.72500,127
26.73333,128
26.74167,128
26.75000,128
26.75833,128
26.76667,128
26.77500,128
26.78333,128
26.79167,128
26.80000,128
26.80833,129
26.81667,130
26.82500,130
26.83333,130
26.84167,130
26.85000,130
26.85833,130
26.86667,131
26.87500,131
26.88333,131
26.89167,130
26.90000,131
26.90833,131
26.91667,131
26.92500,131
26.93333,132
26.94167,132
26.95000,132
26.95833,132
26.96667,132
26.97500,133
26.98333,133
26.99167,133
27.00000,133
27.00833,133
27.01667,133
27.02500,133
27.03333,133
27.04167,133
27.05000,134
27.05833,134
27.06667,134
27.07500,134
27.08333,134
27.09167,134
27.10000,135
27.10833,135
27.11667,135
27.12500,136
27.13333,136
27.14167,136
27.15000,137
27.15833,137
27.16667,136
27.17500,136
27.18333,136
27.19167,136
27.20000,136
27.20833,136
27.21667,137
27.22500,137
27.23333,137
27.24167,137
27.25000,137
27.25833,137
27.26667,137
27.27500,137
27.28333,137
27.29167,137
27.30000,137
27.30833,137
27.31667,137
27.32500,137
27.33333,137
27.34167,137
27.35000,136
27.35833,136
27.36667,136
27.37500,136
27.38333,136
27.39167,136
27.40000,136
27.40833,136
27.41667,136
27.42500,136
27.43333,135
27.44167,135
27.45000,135
27.45833,134
27.46667,134
27.47500,133
27.48333,133
27.49167,132
27.50000,132
27.50833,131
27.51667,131
27.52500,131
27.53333,131
27.54167,131
27.55000,130
27.55833,130
27.56667,130
27.57500,129
27.58333,129
27.59167,128
27.60000,127
27.60833,126
27.61667,125
27.62500,125
27.63333,124
27.64167,124
27.65000,123
27.65833,123
27.66667,123
27.67500,123
27.68333,122
27.69167,121
27.70000,121
27.70833,120
27.71667,119
27.72500,118
27.73333,118
27.74167,117
27.75000,116
27.75833,116
27.76667,115
27.77500,114
27.78333,113
27.79167,113
27.80000,113
27.80833,112
27.81667,112
27.82500,112
27.83333,111
27.84167,110
27.85000,109
27.85833,108
27.86667,108
27.87500,107
27.88333,106
27.89167,106
27.90000,105
27.90833,105
27.91667,104
27.92500,104
27.93333,104
27.94167,104
27.95000,104
27.95833,103
27.96667,104
27.97500,104
27.98333,103
27.99167,103
28.00000,103
28.00833,103
28.01667,103
28.02500,103
28.03333,103
28.04167,103
28.05000,103
28.05833,103
28.06667,103
28.07500,103
28.08333,103
28.09167,103
28.10000,104
28.10833,103
28.11667,103
28.12500,103
28.13333,102
28.14167,102
28.15000,103
28.15833,103
28.16667,103
28.17500,103
28.18333,104
28.19167,104
28.20000,105
28.20833,105
28.21667,105
28.22500,104
28.23333,104
28.24167,105
28.25000,105
28.25833,105
28.26667,105
28.27500,106
28.28333,106
28.29167,107
28.30000,108
28.30833,109
28.31667,109
28.32500,110
28.33333,111
28.34167,113
28.35000,114
28.35833,116
28.36667,117
28.37500,118
28.38333,120
28.39167,122
28.40000,125
28.40833,128
28.41667,131
28.42500,135
28.43333,139
28.44167,143
28.45000,148
28.45833,153
28.46667,159
28.47500,166
28.48333,173
28.49167,181
28.50000,189
28.50833,198
28.51667,208
28.52500,219
28.53333,231
28.54167,244
28.55000,257
28.55833,272
28.56667,288
28.57500,305
28.58333,324
28.59167,344
28.60000,366
28.60833,388
28.61667,412
28.62500,438
28.63333,465
28.64167,493
28.65000,523
28.65833,554
28.66667,587
28.67500,621
28.68333,657
28.69167,693
28.70000,732
28.70833,772
28.71667,814
28.72500,857
28.73333,901
28.74167,947
28.75000,993
28.75833,1041
28.76667,1091
28.77500,1141
28.78333,1192
28.79167,1244
28.80000,1297
28.80833,1351
28.81667,1405
28.82500,1460
28.83333,1514
28.84167,1569
28.85000,1625
28.85833,1680
28.86667,1736
28.87500,1791
28.88333,1846
28.89167,1900
28.90000,1954
28.90833,2008
28.91667,2060
28.92500,2112
28.93333,2162
28.94167,2212
28.95000,2261
28.95833,2308
28.96667,2354
28.97500,2399
28.98333,2442
28.99167,2484
29.00000,2524
29.00833,2562
29.01667,2600
29.02500,2635
29.03333,2669
29.04167,2702
29.05000,2732
29.05833,2761
29.06667,2788
29.07500,2813
29.08333,2837
29.09167,2859
29.10000,2880
29.10833,2899
29.11667,2917
29.12500,2932
29.13333,2946
29.14167,2958
29.15000,2969
29.15833,2978
29.16667,2986
29.17500,2993
29.18333,2997
29.19167,3001
29.20000,3002
29.20833,3003
29.21667,3002
29.22500,2999
29.23333,2995
29.24167,2990
29.25000,2983
29.25833,2975
29.26667,2965
29.27500,2954
29.28333,2941
29.29167,2928
29.30000,2912
29.30833,2895
29.31667,2877
29.32500,2857
29.33333,2836
29.34167,2814
29.35000,2790
29.35833,2764
29.36667,2736
29.37500,2707
29.38333,2677
29.39167,2645
29.40000,2612
29.40833,2578
29.41667,2542
29.42500,2506
29.43333,2468
29.44167,2429
29.45000,2388
29.45833,2347
29.46667,2305
29.47500,2261
29.48333,2217
29.49167,2172
29.50000,2126
29.50833,2079
29.51667,2032
29.52500,1985
29.53333,1937
29.54167,1888
29.55000,1840
29.55833,1791
29.56667,1742
29.57500,1692
29.58333,1643
29.59167,1594
29.60000,1545
29.60833,1496
29.61667,1448
29.62500,1401
29.63333,1354
29.64167,1307
29.65000,1262
29.65833,1217
29.66667,1172
29.67500,1129
29.68333,1087
29.69167,1045
29.70000,1004
29.70833,964
29.71667,925
29.72500,887
29.73333,850
29.74167,814
29.75000,779
29.75833,746
29.76667,713
29.77500,682
29.78333,652
29.79167,622
29.80000,594
29.80833,567
29.81667,541
29.82500,515
29.83333,491
29.84167,469
29.85000,447
29.85833,426
29.86667,406
29.87500,387
29.88333,369
29.89167,351
29.90000,336
29.90833,320
29.91667,306
29.92500,291
29.93333,278
29.94167,265
29.95000,253
29.95833,242
29.96667,231
29.97500,221
29.98333,211
29.99167,202
30.00000,193
30.00833,184
30.01667,177
30.02500,169
30.03333,162
30.04167,155
30.05000,149
30.05833,143
30.06667,137
30.07500,131
30.08333,126
30.09167,121
30.10000,116
30.10833,111
30.11667,106
30.12500,101
30.13333,97
30.14167,92
30.15000,88
30.15833,84
30.16667,80
30.17500,76
30.18333,73
30.19167,69
30.20000,65
30.20833,62
30.21667,58
30.22500,55
30.23333,52
30.24167,49
30.25000,46
30.25833,43
30.26667,40
30.27500,37
30.28333,34
30.29167,31
30.30000,28
30.30833,25
30.31667,23
30.32500,20
30.33333,17
30.34167,15
30.35000,12
30.35833,10
30.36667,7
30.37500,5
30.38333,3
30.39167,1
30.40000,-1
30.40833,-3
30.41667,-5
30.42500,-6
30.43333,-8
30.44167,-10
30.45000,-12
30.45833,-13
30.46667,-15
30.47500,-16
30.48333,-18
30.49167,-19
30.50000,-20
30.50833,-21
30.51667,-22
30.52500,-22
30.53333,-22
30.54167,-22
30.55000,-22
30.55833,-22
30.56667,-22
30.57500,-22
30.58333,-22
30.59167,-22
30.60000,-21
30.60833,-21
30.61667,-20
30.62500,-19
30.63333,-18
30.64167,-17
30.65000,-15
30.65833,-14
30.66667,-13
30.67500,-11
30.68333,-10
30.69167,-8
30.70000,-6
30.70833,-4
30.71667,-2
30.72500,0
30.73333,2
30.74167,5
30.75000,7
30.75833,10
30.76667,12
30.77500,15
30.78333,17
30.79167,20
30.80000,23
30.80833,26
30.81667,29
30.82500,32
30.83333,35
30.84167,38
30.85000,41
30.85833,45
30.86667,49
30.87500,52
30.88333,56
30.89167,59
30.90000,62
30.90833,66
30.91667,69
30.92500,73
30.93333,76
30.94167,79
30.95000,83
30.95833,86
30.96667,89
30.97500,92
30.98333,96
30.99167,99
31.00000,102
31.00833,105
31.01667,108
31.02500,110
31.03333,113
31.04167,117
31.05000,120
31.05833,123
31.06667,125
31.07500,127
31.08333,130
31.09167,133
31.10000,135
31.10833,137
31.11667,140
31.12500,142
31.13333,144
31.14167,146
31.15000,148
31.15833,150
31.16667,151
31.17500,153
31.18333,154
31.19167,155
31.20000,156
31.20833,157
31.21667,158
31.22500,160
31.23333,161
31.24167,162
31.25000,162
31.25833,163
31.26667,163
31.27500,164
31.28333,164
31.29167,164
31.30000,164
31.30833,164
31.31667,164
31.32500,164
31.33333,164
31.34167,164
31.35000,164
31.35833,164
31.36667,163
31.37500,163
31.38333,162
31.39167,162
31.40000,161
31.40833,160
31.41667,159
31.42500,158
31.43333,158
31.44167,157
31.45000,156
31.45833,155
31.46667,154
31.47500,154
31.48333,153
31.49167,152
31.50000,151
31.50833,151
31.51667,150
31.52500,150
31.53333,149
31.54167,148
31.55000,147
31.55833,147
31.56667,146
31.57500,146
31.58333,146
31.59167,146
31.60000,145
31.60833,145
31.61667,145
31.62500,146
31.63333,146
31.64167,147
31.65000,147
31.65833,147
31.66667,148
31.67500,149
31.68333,150
31.69167,152
31.70000,154
31.70833,155
31.71667,157
31.72500,159
31.73333,161
31.74167,163
31.75000,166
31.75833,169
31.76667,172
31.77500,175
31.78333,178
31.79167,181
31.80000,185
31.80833,189
31.81667,192
31.82500,196
31.83333,201
31.84167,205
31.85000,209
31.85833,213
31.86667,218
31.87500,222
31.88333,228
31.89167,233
31.90000,239
31.90833,244
31.91667,249
31.92500,255
31.93333,260
31.94167,266
31.95000,271
31.95833,277
31.96667,282
31.97500,287
31.98333,293
31.99167,298
32.00000,304
32.00833,309
32.01667,314
32.02500,320
32.03333,325
32.04167,330
32.05000,335
32.05833,341
32.06667,346
32.07500,352
32.08333,357
32.09167,362
32.10000,367
32.10833,372
32.11667,376
32.12500,381
32.13333,385
32.14167,390
32.15000,394
32.15833,399
32.16667,403
32.17500,407
32.18333,411
32.19167,414
32.20000,417
32.20833,421
32.21667,424
32.22500,428
32.23333,431
32.24167,434
32.25000,437
32.25833,440
32.26667,442
32.27500,444
32.28333,446
32.29167,448
32.30000,450
32.30833,452
32.31667,454
32.32500,455
32.33333,457
32.34167,458
32.35000,460
32.35833,461
32.36667,462
32.37500,463
32.38333,464
32.39167,464
32.40000,465
32.40833,465
32.41667,465
32.42500,465
32.43333,464
32.44167,463
32.45000,463
32.45833,462
32.46667,461
32.47500,460
32.48333,459
32.49167,457
32.50000,456
32.50833,454
32.51667,452
32.52500,450
32.53333,448
32.54167,446
32.55000,444
32.55833,441
32.56667,438
32.57500,436
32.58333,433
32.59167,430
32.60000,427
32.60833,424
32.61667,421
32.62500,418
32.63333,414
32.64167,411
32.65000,408
32.65833,404
32.66667,401
32.67500,397
32.68333,394
32.69167,390
32.70000,386
32.70833,383
32.71667,379
32.72500,376
32.73333,373
32.74167,370
32.75000,366
32.75833,363
32.76667,360
32.77500,357
32.78333,354
32.79167,351
32.80000,349
32.80833,346
32.81667,344
32.82500,341
32.83333,339
32.84167,336
32.85000,333
32.85833,331
32.86667,329
32.87500,328
32.88333,326
32.89167,324
32.90000,322
32.90833,321
32.91667,319
32.92500,318
32.93333,316
32.94167,315
32.95000,314
32.95833,313
32.96667,312
32.97500,311
32.98333,310
32.99167,309
33.00000,309
33.00833,308
33.01667,307
33.02500,306
33.03333,306
33.04167,305
33.05000,305
33.05833,304
33.06667,303
33.07500,303
33.08333,303
33.09167,302
33.10000,302
33.10833,302
33.11667,301
33.12500,300
33.13333,300
33.14167,300
33.15000,299
33.15833,298
33.16667,298
33.17500,297
33.18333,296
33.19167,296
33.20000,295
33.20833,294
33.21667,293
33.22500,293
33.23333,292
33.24167,291
33.25000,290
33.25833,288
33.26667,287
33.27500,286
33.28333,285
33.29167,284
33.30000,283
33.30833,282
33.31667,281
33.32500,280
33.33333,278
33.34167,276
33.35000,274
33.35833,272
33.36667,271
33.37500,269
33.38333,267
33.39167,265
33.40000,263
33.40833,261
33.41667,260
33.42500,258
33.43333,256
33.44167,253
33.45000,252
33.45833,249
33.46667,247
33.47500,244
33.48333,242
33.49167,240
33.50000,237
33.50833,234
33.51667,232
33.52500,229
33.53333,226
33.54167,223
33.55000,220
33.55833,217
33.56667,214
33.57500,211
33.58333,208
33.59167,206
33.60000,203
33.60833,200
33.61667,197
33.62500,194
33.63333,191
33.64167,188
33.65000,186
33.65833,183
33.66667,179
33.67500,176
33.68333,173
33.69167,170
33.70000,167
33.70833,164
33.71667,161
33.72500,158
33.73333,155
33.74167,152
33.75000,149
33.75833,146
33.76667,144
33.77500,141
33.78333,138
33.79167,135
33.80000,132
33.80833,129
33.81667,126
33.82500,123
33.83333,121
33.84167,118
33.85000,115
33.85833,113
33.86667,110
33.87500,107
33.88333,105
33.89167,102
33.90000,99
33.90833,97
33.91667,94
33.92500,92
33.93333,90
33.94167,88
33.95000,86
33.95833,84
33.96667,82
33.97500,80
33.98333,78
33.99167,76
34.00000,74
34.00833,72
34.01667,70
34.02500,68
34.03333,67
34.04167,65
34.05000,64
34.05833,62
34.06667,61
34.07500,59
34.08333,58
34.09167,56
34.10000,54
34.10833,53
34.11667,52
34.12500,50
34.13333,49
34.14167,48
34.15000,47
34.15833,45
34.16667,44
34.17500,43
34.18333,42
34.19167,41
34.20000,41
34.20833,40
34.21667,39
34.22500,38
34.23333,37
34.24167,36
34.25000,35
34.25833,34
34.26667,34
34.27500,33
34.28333,32
34.29167,31
34.30000,31
34.30833,30
34.31667,29
34.32500,28
34.33333,28
34.34167,27
34.35000,26
34.35833,26
34.36667,25
34.37500,25
34.38333,24
34.39167,24
34.40000,24
34.40833,23
34.41667,23
34.42500,23
34.43333,22
34.44167,21
34.45000,21
34.45833,21
34.46667,20
34.47500,20
34.48333,19
34.49167,19
34.50000,18
34.50833,18
34.51667,17
34.52500,17
34.53333,17
34.54167,16
34.55000,16
34.55833,15
34.56667,15
34.57500,15
34.58333,15
34.59167,15
34.60000,15
34.60833,14
34.61667,14
34.62500,13
34.63333,13
34.64167,13
34.65000,13
34.65833,12
34.66667,12
34.67500,11
34.68333,11
34.69167,11
34.70000,11
34.70833,10
34.71667,10
34.72500,10
34.73333,10
34.74167,9
34.75000,9
34.75833,9
34.76667,9
34.77500,9
34.78333,9
34.79167,9
34.80000,8
34.80833,8
34.81667,7
34.82500,7
34.83333,6
34.84167,6
34.85000,6
34.85833,6
34.86667,6
34.87500,6
34.88333,6
34.89167,6
34.90000,6
34.90833,6
34.91667,6
34.92500,6
34.93333,5
34.94167,5
34.95000,5
34.95833,5
34.96667,4
34.97500,4
34.98333,4
34.99167,4
35.00000,5
35.00833,5
35.01667,5
35.02500,5
35.03333,4
35.04167,4
35.05000,4
35.05833,4
35.06667,4
35.07500,4
35.08333,4
35.09167,4
35.10000,4
35.10833,4
35.11667,4
35.12500,4
35.13333,4
35.14167,4
35.15000,4
35.15833,5
35.16667,5
35.17500,5
35.18333,4
35.19167,5
35.20000,5
35.20833,4
35.21667,4
35.22500,4
35.23333,4
35.24167,3
35.25000,3
35.25833,3
35.26667,4
35.27500,4
35.28333,4
35.29167,4
35.30000,5
35.30833,5
35.31667,5
35.32500,5
35.33333,6
35.34167,6
35.35000,6
35.35833,6
35.36667,6
35.37500,6
35.38333,6
35.39167,6
35.40000,7
35.40833,7
35.41667,7
35.42500,7
35.43333,7
35.44167,6
35.45000,6
35.45833,7
35.46667,7
35.47500,7
35.48333,8
35.49167,8
35.50000,8
35.50833,8
35.51667,8
35.52500,8
35.53333,8
35.54167,8
35.55000,8
35.55833,8
35.56667,8
35.57500,8
35.58333,8
35.59167,8
35.60000,8
35.60833,9
35.61667,9
35.62500,9
35.63333,9
35.64167,9
35.65000,9
35.65833,10
35.66667,9
35.67500,9
35.68333,9
35.69167,9
35.70000,9
35.70833,10
35.71667,9
35.72500,9
35.73333,9
35.74167,9
35.75000,10
35.75833,10
35.76667,11
35.77500,11
35.78333,12
35.79167,12
35.80000,12
35.80833,12
35.81667,12
35.82500,12
35.83333,12
35.84167,12
35.85000,12
35.85833,12
35.86667,12
35.87500,12
35.88333,13
35.89167,13
35.90000,14
35.90833,14
35.91667,14
35.92500,14
35.93333,14
35.94167,14
35.95000,14
35.95833,15
35.96667,15
35.97500,15
35.98333,16
35.99167,15
36.00000,15
36.00833,16
36.01667,16
36.02500,16
36.03333,16
36.04167,16
36.05000,16
36.05833,17
36.06667,17
36.07500,17
36.08333,18
36.09167,18
36.10000,19
36.10833,19
36.11667,20
36.12500,20
36.13333,20
36.14167,20
36.15000,20
36.15833,20
36.16667,20
36.17500,21
36.18333,21
36.19167,22
36.20000,22
36.20833,22
36.21667,22
36.22500,22
36.23333,22
36.24167,23
36.25000,23
36.25833,23
36.26667,23
36.27500,23
36.28333,24
36.29167,24
36.30000,25
36.30833,25
36.31667,25
36.32500,25
36.33333,25
36.34167,25
36.35000,26
36.35833,26
36.36667,26
36.37500,27
36.38333,27
36.39167,28
36.40000,28
36.40833,28
36.41667,28
36.42500,29
36.43333,29
36.44167,30
36.45000,30
36.45833,30
36.46667,31
36.47500,31
36.48333,31
36.49167,31
36.50000,31
36.50833,31
36.51667,32
36.52500,33
36.53333,33
36.54167,34
36.55000,34
36.55833,34
36.56667,35
36.57500,35
36.58333,36
36.59167,36
36.60000,37
36.60833,37
36.61667,37
36.62500,37
36.63333,37
36.64167,38
36.65000,38
36.65833,38
36.66667,39
36.67500,39
36.68333,40
36.69167,41
36.70000,41
36.70833,42
36.71667,43
36.72500,43
36.73333,43
36.74167,44
36.75000,44
36.75833,44
36.76667,45
36.77500,45
36.78333,46
36.79167,46
36.80000,47
36.80833,48
36.81667,48
36.82500,49
36.83333,49
36.84167,50
36.85000,50
36.85833,51
36.86667,52
36.87500,52
36.88333,53
36.89167,53
36.90000,54
36.90833,54
36.91667,55
36.92500,55
36.93333,55
36.94167,56
36.95000,56
36.95833,57
36.96667,58
36.97500,58
36.98333,59
36.99167,60
37.00000,61
37.00833,61
37.01667,62
37.02500,62
37.03333,63
37.04167,64
37.05000,64
37.05833,65
37.06667,66
37.07500,66
37.08333,66
37.09167,67
37.10000,68
37.10833,69
37.11667,69
37.12500,70
37.13333,71
37.14167,72
37.15000,73
37.15833,74
37.16667,74
37.17500,75
37.18333,76
37.19167,76
37.20000,77
37.20833,78
37.21667,79
37.22500,80
37.23333,80
37.24167,81
37.25000,81
37.25833,82
37.26667,83
37.27500,84
37.28333,85
37.29167,86
37.30000,86
37.30833,87
37.31667,88
37.32500,89
37.33333,89
37.34167,90
37.35000,91
37.35833,92
37.36667,93
37.37500,94
37.38333,95
37.39167,95
37.40000,95
37.40833,96
37.41667,96
37.42500,97
37.43333,98
37.44167,99
37.45000,100
37.45833,101
37.46667,101
37.47500,102
37.48333,103
37.49167,103
37.50000,104
37.50833,104
37.51667,105
37.52500,106
37.53333,106
37.54167,106
37.55000,107
37.55833,108
37.56667,108
37.57500,108
37.58333,109
37.59167,110
37.60000,111
37.60833,112
37.61667,112
37.62500,113
37.63333,113
37.64167,113
37.65000,113
37.65833,113
37.66667,113
37.67500,113
37.68333,113
37.69167,113
37.70000,112
37.70833,112
37.71667,112
37.72500,112
37.73333,113
37.74167,113
37.75000,112
37.75833,112
37.76667,112
37.77500,112
37.78333,112
37.79167,112
37.80000,111
37.80833,110
37.81667,110
37.82500,110
37.83333,109
37.84167,109
37.85000,108
37.85833,108
37.86667,107
37.87500,107
37.88333,106
37.89167,106
37.90000,105
37.90833,105
37.91667,104
37.92500,103
37.93333,103
37.94167,102
37.95000,101
37.95833,100
37.96667,100
37.97500,99
37.98333,98
37.99167,97
38.00000,96
38.00833,95
38.01667,94
38.02500,94
38.03333,93
38.04167,92
38.05000,91
38.05833,90
38.06667,89
38.07500,88
38.08333,87
38.09167,86
38.10000,85
38.10833,84
38.11667,83
38.12500,82
38.13333,81
38.14167,80
38.15000,79
38.15833,78
38.16667,77
38.17500,76
38.18333,75
38.19167,73
38.20000,72
38.20833,71
38.21667,69
38.22500,68
38.23333,67
38.24167,66
38.25000,65
38.25833,63
38.26667,62
38.27500,60
38.28333,59
38.29167,58
38.30000,56
38.30833,55
38.31667,54
38.32500,53
38.33333,51
38.34167,50
38.35000,49
38.35833,48
38.36667,46
38.37500,45
38.38333,43
38.39167,42
38.40000,41
38.40833,40
38.41667,39
38.42500,38
38.43333,37
38.44167,35
38.45000,34
38.45833,33
38.46667,32
38.47500,31
38.48333,30
38.49167,29
38.50000,28
38.50833,27
38.51667,25
38.52500,24
38.53333,23
38.54167,22
38.55000,21
38.55833,20
38.56667,19
38.57500,18
38.58333,17
38.59167,16
38.60000,15
38.60833,14
38.61667,13
38.62500,12
38.63333,12
38.64167,11
38.65000,10
38.65833,9
38.66667,9
38.67500,8
38.68333,7
38.69167,6
38.70000,5
38.70833,4
38.71667,4
38.72500,3
38.73333,3
38.74167,2
38.75000,2
38.75833,1
38.76667,1
38.77500,0
38.78333,-0
38.79167,-1
38.80000,-2
38.80833,-2
38.81667,-3
38.82500,-3
38.83333,-3
38.84167,-4
38.85000,-4
38.85833,-5
38.86667,-5
38.87500,-5
38.88333,-6
38.89167,-6
38.90000,-6
38.90833,-7
38.91667,-7
38.92500,-8
38.93333,-8
38.94167,-8
38.95000,-8
38.95833,-8
38.96667,-8
38.97500,-8
38.98333,-9
38.99167,-9
39.00000,-9
39.00833,-9
39.01667,-9
39.02500,-9
39.03333,-9
39.04167,-9
39.05000,-9
39.05833,-8
39.06667,-8
39.07500,-9
39.08333,-9
39.09167,-9
39.10000,-9
39.10833,-9
39.11667,-9
39.12500,-9
39.13333,-9
39.14167,-10
39.15000,-10
39.15833,-10
39.16667,-10
39.17500,-9
39.18333,-9
39.19167,-9
39.20000,-9
39.20833,-9
39.21667,-9
39.22500,-10
39.23333,-10
39.24167,-10
39.25000,-10
39.25833,-9
39.26667,-9
39.27500,-9
39.28333,-9
39.29167,-9
39.30000,-9
39.30833,-9
39.31667,-8
39.32500,-8
39.33333,-8
39.34167,-8
39.35000,-8
39.35833,-8
39.36667,-8
39.37500,-8
39.38333,-8
39.39167,-8
39.40000,-8
39.40833,-8
39.41667,-8
39.42500,-8
39.43333,-8
39.44167,-8
39.45000,-8
39.45833,-8
39.46667,-8
39.47500,-8
39.48333,-8
39.49167,-9
39.50000,-8
39.50833,-8
39.51667,-8
39.52500,-8
39.53333,-8
39.54167,-8
39.55000,-8
39.55833,-8
39.56667,-8
39.57500,-8
39.58333,-8
39.59167,-7
39.60000,-7
39.60833,-7
39.61667,-7
39.62500,-7
39.63333,-8
39.64167,-8
39.65000,-9
39.65833,-9
39.66667,-9
39.67500,-9
39.68333,-9
39.69167,-9
39.70000,-9
39.70833,-9
39.71667,-9
39.72500,-9
39.73333,-9
39.74167,-9
39.75000,-9
39.75833,-8
39.76667,-8
39.77500,-8
39.78333,-8
39.79167,-8
39.80000,-8
39.80833,-8
39.81667,-7
39.82500,-7
39.83333,-7
39.84167,-7
39.85000,-7
39.85833,-7
39.86667,-7
39.87500,-7
39.88333,-7
39.89167,-7
39.90000,-7
39.90833,-6
39.91667,-6
39.92500,-6
39.93333,-7
39.94167,-7
39.95000,-8
39.95833,-8
39.96667,-7
39.97500,-7
39.98333,-7
39.99167,-7
40.00000,-7
40.00833,-7
40.01667,-7
40.02500,-7
40.03333,-7
40.04167,-7
40.05000,-7
40.05833,-7
40.06667,-7
40.07500,-6
40.08333,-6
40.09167,-6
40.10000,-6
40.10833,-6
40.11667,-6
40.12500,-6
40.13333,-6
40.14167,-6
40.15000,-6
40.15833,-6
40.16667,-6
40.17500,-6
40.18333,-6
40.19167,-6
40.20000,-6
40.20833,-6
40.21667,-6
40.22500,-6
40.23333,-6
40.24167,-5
40.25000,-5
40.25833,-5
40.26667,-5
40.27500,-5
40.28333,-5
40.29167,-5
40.30000,-5
40.30833,-4
40.31667,-4
40.32500,-4
40.33333,-4
40.34167,-3
40.35000,-3
40.35833,-3
40.36667,-3
40.37500,-2
40.38333,-2
40.39167,-2
40.40000,-2
40.40833,-1
40.41667,-1
40.42500,-1
40.43333,-1
40.44167,-1
40.45000,-0
40.45833,0
40.46667,0
40.47500,0
40.48333,1
40.49167,1
40.50000,1
40.50833,1
40.51667,2
40.52500,3
40.53333,3
40.54167,3
40.55000,4
40.55833,5
40.56667,5
40.57500,5
40.58333,6
40.59167,6
40.60000,6
40.60833,6
40.61667,6
40.62500,7
40.63333,7
40.64167,8
40.65000,8
40.65833,9
40.66667,9
40.67500,9
40.68333,10
40.69167,11
40.70000,11
40.70833,11
40.71667,12
40.72500,12
40.73333,13
40.74167,14
40.75000,14
40.75833,15
40.76667,15
40.77500,16
40.78333,17
40.79167,17
40.80000,18
40.80833,18
40.81667,19
40.82500,20
40.83333,21
40.84167,22
40.85000,22
40.85833,23
40.86667,24
40.87500,25
40.88333,25
40.89167,26
40.90000,27
40.90833,27
40.91667,28
40.92500,28
40.93333,29
40.94167,30
40.95000,31
40.95833,32
40.96667,32
40.97500,33
40.98333,34
40.99167,34
41.00000,35
41.00833,36
41.01667,37
41.02500,39
41.03333,40
41.04167,41
41.05000,41
41.05833,42
41.06667,43
41.07500,44
41.08333,44
41.09167,45
41.10000,46
41.10833,48
41.11667,49
41.12500,50
41.13333,52
41.14167,53
41.15000,54
41.15833,55
41.16667,55
41.17500,56
41.18333,57
41.19167,58
41.20000,59
41.20833,60
41.21667,62
41.22500,63
41.23333,64
41.24167,65
41.25000,67
41.25833,68
41.26667,69
41.27500,71
41.28333,72
41.29167,73
41.30000,75
41.30833,76
41.31667,77
41.32500,78
41.33333,79
41.34167,81
41.35000,82
41.35833,83
41.36667,85
41.37500,86
41.38333,87
41.39167,88
41.40000,90
41.40833,91
41.41667,93
41.42500,94
41.43333,95
41.44167,96
41.45000,98
41.45833,99
41.46667,101
41.47500,103
41.48333,104
41.49167,105
41.50000,106
41.50833,108
41.51667,109
41.52500,111
41.53333,112
41.54167,113
41.55000,114
41.55833,116
41.56667,117
41.57500,118
41.58333,120
41.59167,121
41.60000,123
41.60833,124
41.61667,126
41.62500,128
41.63333,129
41.64167,130
41.65000,131
41.65833,132
41.66667,133
41.67500,134
41.68333,136
41.69167,137
41.70000,138
41.70833,139
41.71667,141
41.72500,142
41.73333,143
41.74167,144
41.75000,145
41.75833,146
41.76667,147
41.77500,148
41.78333,149
41.79167,151
41.80000,152
41.80833,153
41.81667,155
41.82500,156
41.83333,157
41.84167,158
41.85000,158
41.85833,159
41.86667,161
41.87500,162
41.88333,163
41.89167,164
41.90000,165
41.90833,166
41.91667,167
41.92500,168
41.93333,168
41.94167,169
41.95000,170
41.95833,170
41.96667,172
41.97500,172
41.98333,173
41.99167,174
42.00000,175
42.00833,175
42.01667,175
42.02500,175
42.03333,176
42.04167,176
42.05000,177
42.05833,178
42.06667,178
42.07500,179
42.08333,179
42.09167,180
42.10000,180
42.10833,181
42.11667,182
42.12500,182
42.13333,183
42.14167,183
42.15000,183
42.15833,183
42.16667,184
42.17500,184
42.18333,184
42.19167,184
42.20000,185
42.20833,184
42.21667,184
42.22500,185
42.23333,185
42.24167,185
42.25000,185
42.25833,184
42.26667,185
42.27500,185
42.28333,185
42.29167,185
42.30000,185
42.30833,185
42.31667,185
42.32500,184
42.33333,184
42.34167,184
42.35000,183
42.35833,183
42.36667,183
42.37500,183
42.38333,182
42.39167,182
42.40000,181
42.40833,181
42.41667,181
42.42500,180
42.43333,180
42.44167,180
42.45000,179
42.45833,178
42.46667,178
42.47500,177
42.48333,177
42.49167,176
42.50000,176
42.50833,175
42.51667,175
42.52500,174
42.53333,174
42.54167,173
42.55000,173
42.55833,172
42.56667,172
42.57500,171
42.58333,170
42.59167,169
42.60000,168
42.60833,167
42.61667,166
42.62500,165
42.63333,165
42.64167,164
42.65000,163
42.65833,162
42.66667,162
42.67500,161
42.68333,160
42.69167,160
42.70000,159
42.70833,158
42.71667,157
42.72500,156
42.73333,155
42.74167,154
42.75000,153
42.75833,152
42.76667,151
42.77500,150
42.78333,149
42.79167,148
42.80000,147
42.80833,147
42.81667,145
42.82500,144
42.83333,143
42.84167,142
42.85000,141
42.85833,141
42.86667,140
42.87500,139
42.88333,139
42.89167,138
42.90000,136
42.90833,135
42.91667,134
42.92500,133
42.93333,131
42.94167,130
42.95000,129
42.95833,128
42.96667,127
42.97500,126
42.98333,125
42.99167,124
43.00000,123
43.00833,122
43.01667,121
43.02500,120
43.03333,119
43.04167,118
43.05000,118
43.05833,116
43.06667,115
43.07500,113
43.08333,112
43.09167,111
43.10000,111
43.10833,109
43.11667,108
43.12500,107
43.13333,106
43.14167,106
43.15000,105
43.15833,104
43.16667,103
43.17500,102
43.18333,101
43.19167,100
43.20000,98
43.20833,97
43.21667,96
43.22500,95
43.23333,95
43.24167,94
43.25000,93
43.25833,92
43.26667,91
43.27500,90
43.28333,89
43.29167,88
43.30000,87
43.30833,86
43.31667,86
43.32500,85
43.33333,84
43.34167,83
43.35000,82
43.35833,81
43.36667,81
43.37500,80
43.38333,79
43.39167,78
43.40000,77
43.40833,76
43.41667,74
43.42500,73
43.43333,72
43.44167,71
43.45000,71
43.45833,70
43.46667,69
43.47500,68
43.48333,68
43.49167,67
43.50000,66
43.50833,65
43.51667,64
43.52500,64
43.53333,63
43.54167,62
43.55000,61
43.55833,60
43.56667,60
43.57500,59
43.58333,58
43.59167,57
43.60000,57
43.60833,56
43.61667,56
43.62500,55
43.63333,54
43.64167,53
43.65000,52
43.65833,52
43.66667,51
43.67500,50
43.68333,49
43.69167,48
43.70000,47
43.70833,46
43.71667,45
43.72500,44
43.73333,44
43.74167,43
43.75000,42
43.75833,41
43.76667,41
43.77500,40
43.78333,39
43.79167,39
43.80000,38
43.80833,38
43.81667,37
43.82500,36
43.83333,36
43.84167,35
43.85000,34
43.85833,34
43.86667,33
43.87500,33
43.88333,32
43.89167,31
43.90000,30
43.90833,29
43.91667,29
43.92500,28
43.93333,28
43.94167,27
43.95000,27
43.95833,26
43.96667,25
43.97500,24
43.98333,24
43.99167,24
44.00000,24
44.00833,23
44.01667,23
44.02500,22
44.03333,22
44.04167,21
44.05000,20
44.05833,19
44.06667,18
44.07500,18
44.08333,17
44.09167,16
44.10000,16
44.10833,15
44.11667,15
44.12500,14
44.13333,13
44.14167,13
44.15000,13
44.15833,12
44.16667,12
44.17500,11
44.18333,11
44.19167,10
44.20000,10
44.20833,9
44.21667,8
44.22500,8
44.23333,7
44.24167,6
44.25000,6
44.25833,6
44.26667,6
44.27500,5
44.28333,5
44.29167,4
44.30000,4
44.30833,4
44.31667,3
44.32500,3
44.33333,3
44.34167,3
44.35000,2
44.35833,2
44.36667,2
44.37500,1
44.38333,1
44.39167,0
44.40000,-0
44.40833,-0
44.41667,-1
44.42500,-1
44.43333,-2
44.44167,-2
44.45000,-2
44.45833,-3
44.46667,-3
44.47500,-4
44.48333,-4
44.49167,-5
44.50000,-5
44.50833,-5
44.51667,-6
44.52500,-6
44.53333,-7
44.54167,-7
44.55000,-8
44.55833,-8
44.56667,-8
44.57500,-9
44.58333,-9
44.59167,-9
44.60000,-9
44.60833,-10
44.61667,-10
44.62500,-11
44.63333,-11
44.64167,-11
44.65000,-11
44.65833,-12
44.66667,-12
44.67500,-12
44.68333,-12
44.69167,-12
44.70000,-12
44.70833,-12
44.71667,-12
44.72500,-12
44.73333,-12
44.74167,-12
44.75000,-12
44.75833,-12
44.76667,-13
44.77500,-13
44.78333,-14
44.79167,-14
44.80000,-14
44.80833,-14
44.81667,-14
44.82500,-13
44.83333,-13
44.84167,-13
44.85000,-14
44.85833,-14
44.86667,-15
44.87500,-15
44.88333,-16
44.89167,-15
44.90000,-15
44.90833,-15
44.91667,-15
44.92500,-15
44.93333,-16
44.94167,-16
44.95000,-16
44.95833,-15
44.96667,-16
44.97500,-16
44.98333,-16
44.99167,-16
45.00000,-16
45.00833,-16
45.01667,-16
45.02500,-17
45.03333,-17
45.04167,-17
45.05000,-16
45.05833,-16
45.06667,-16
45.07500,-16
45.08333,-16
45.09167,-16
45.10000,-16
45.10833,-16
45.11667,-16
45.12500,-16
45.13333,-16
45.14167,-16
45.15000,-16
45.15833,-16
45.16667,-16
45.17500,-16
45.18333,-16
45.19167,-16
45.20000,-16
45.20833,-16
45.21667,-16
45.22500,-16
45.23333,-15
45.24167,-15
45.25000,-15
45.25833,-15
45.26667,-15
45.27500,-15
45.28333,-15
45.29167,-15
45.30000,-15
45.30833,-15
45.31667,-15
45.32500,-14
45.33333,-14
45.34167,-14
45.35000,-15
45.35833,-15
45.36667,-15
45.37500,-14
45.38333,-14
45.39167,-14
45.40000,-14
45.40833,-14
45.41667,-14
45.42500,-14
45.43333,-13
45.44167,-13
45.45000,-13
45.45833,-13
45.46667,-13
45.47500,-12
45.48333,-12
45.49167,-12
45.50000,-12
45.50833,-12
45.51667,-12
45.52500,-12
45.53333,-12
45.54167,-11
45.55000,-11
45.55833,-11
45.56667,-11
45.57500,-11
45.58333,-11
45.59167,-11
45.60000,-11
45.60833,-11
45.61667,-11
45.62500,-11
45.63333,-12
45.64167,-11
45.65000,-11
45.65833,-11
45.66667,-11
45.67500,-11
45.68333,-11
45.69167,-11
45.70000,-11
45.70833,-11
45.71667,-11
45.72500,-11
45.73333,-12
45.74167,-12
45.75000,-11
45.75833,-11
45.76667,-11
45.77500,-11
45.78333,-11
45.79167,-11
45.80000,-12
45.80833,-12
45.81667,-12
45.82500,-12
45.83333,-12
45.84167,-12
45.85000,-12
45.85833,-13
45.86667,-12
45.87500,-12
45.88333,-12
45.89167,-12
45.90000,-12
45.90833,-13
45.91667,-13
45.92500,-13
45.93333,-13
45.94167,-13
45.95000,-13
45.95833,-13
45.96667,-12
45.97500,-12
45.98333,-12
45.99167,-13
46.00000,-13
46.00833,-13
46.01667,-14
46.02500,-14
46.03333,-14
46.04167,-14
46.05000,-14
46.05833,-14
46.06667,-14
46.07500,-14
46.08333,-14
46.09167,-15
46.10000,-15
46.10833,-15
46.11667,-16
46.12500,-16
46.13333,-16
46.14167,-16
46.15000,-16
46.15833,-16
46.16667,-16
46.17500,-17
46.18333,-17
46.19167,-17
46.20000,-17
46.20833,-18
46.21667,-18
46.22500,-18
46.23333,-18
46.24167,-18
46.25000,-18
46.25833,-19
46.26667,-19
46.27500,-20
46.28333,-20
46.29167,-20
46.30000,-21
46.30833,-21
46.31667,-22
46.32500,-22
46.33333,-23
46.34167,-23
46.35000,-23
46.35833,-23
46.36667,-23
46.37500,-23
46.38333,-23
46.39167,-23
46.40000,-24
46.40833,-24
46.41667,-25
46.42500,-25
46.43333,-25
46.44167,-25
46.45000,-25
46.45833,-25
46.46667,-25
46.47500,-25
46.48333,-26
46.49167,-27
46.50000,-27
46.50833,-27
46.51667,-27
46.52500,-27
46.53333,-27
46.54167,-27
46.55000,-27
46.55833,-28
46.56667,-28
46.57500,-28
46.58333,-29
46.59167,-29
46.60000,-30
46.60833,-30
46.61667,-30
46.62500,-30
46.63333,-31
46.64167,-31
46.65000,-31
46.65833,-31
46.66667,-32
46.67500,-32
46.68333,-32
46.69167,-32
46.70000,-32
46.70833,-33
46.71667,-33
46.72500,-34
46.73333,-34
46.74167,-34
46.75000,-34
46.75833,-34
46.76667,-34
46.77500,-34
46.78333,-34
46.79167,-35
46.80000,-34
46.80833,-35
46.81667,-35
46.82500,-35
46.83333,-36
46.84167,-36
46.85000,-36
46.85833,-36
46.86667,-36
46.87500,-36
46.88333,-36
46.89167,-36
46.90000,-36
46.90833,-36
46.91667,-36
46.92500,-36
46.93333,-36
46.94167,-36
46.95000,-36
46.95833,-36
46.96667,-36
46.97500,-36
46.98333,-36
46.99167,-35
47.00000,-35
47.00833,-35
47.01667,-35
47.02500,-34
47.03333,-34
47.04167,-34
47.05000,-33
47.05833,-33
47.06667,-33
47.07500,-32
47.08333,-33
47.09167,-33
47.10000,-32
47.10833,-32
47.11667,-32
47.12500,-31
47.13333,-31
47.14167,-30
47.15000,-30
47.15833,-29
47.16667,-29
47.17500,-28
47.18333,-27
47.19167,-27
47.20000,-27
47.20833,-26
47.21667,-25
47.22500,-25
47.23333,-24
47.24167,-24
47.25000,-23
47.25833,-23
47.26667,-22
47.27500,-22
47.28333,-21
47.29167,-21
47.30000,-20
47.30833,-19
47.31667,-18
47.32500,-18
47.33333,-17
47.34167,-16
47.35000,-15
47.35833,-14
47.36667,-13
47.37500,-13
47.38333,-12
47.39167,-12
47.40000,-11
47.40833,-10
47.41667,-9
47.42500,-8
47.43333,-7
47.44167,-7
47.45000,-6
47.45833,-6
47.46667,-5
47.47500,-4
47.48333,-3
47.49167,-2
47.50000,-1
47.50833,-1
47.51667,-0
47.52500,1
47.53333,2
47.54167,3
47.55000,4
47.55833,5
47.56667,6
47.57500,7
47.58333,8
47.59167,8
47.60000,9
47.60833,10
47.61667,11
47.62500,12
47.63333,12
47.64167,13
47.65000,14
47.65833,14
47.66667,15
47.67500,16
47.68333,17
47.69167,18
47.70000,18
47.70833,19
47.71667,19
47.72500,20
47.73333,20
47.74167,21
47.75000,22
47.75833,22
47.76667,23
47.77500,23
47.78333,24
47.79167,24
47.80000,25
47.80833,26
47.81667,27
47.82500,27
47.83333,28
47.84167,29
47.85000,29
47.85833,30
47.86667,30
47.87500,31
47.88333,31
47.89167,31
47.90000,32
47.90833,32
47.91667,33
47.92500,33
47.93333,34
47.94167,34
47.95000,35
47.95833,35
47.96667,35
47.97500,36
47.98333,36
47.99167,36
48.00000,36
48.00833,36
48.01667,37
48.02500,37
48.03333,38
48.04167,38
48.05000,39
48.05833,39
48.06667,39
48.07500,39
48.08333,40
48.09167,40
48.10000,40
48.10833,40
48.11667,40
48.12500,41
48.13333,41
48.14167,41
48.15000,42
48.15833,42
48.16667,42
48.17500,42
48.18333,42
48.19167,42
48.20000,42
48.20833,43
48.21667,43
48.22500,43
48.23333,43
48.24167,44
48.25000,44
48.25833,44
48.26667,44
48.27500,44
48.28333,44
48.29167,45
48.30000,45
48.30833,45
48.31667,45
48.32500,45
48.33333,44
48.34167,44
48.35000,44
48.35833,44
48.36667,44
48.37500,44
48.38333,44
48.39167,45
48.40000,45
48.40833,46
48.41667,46
48.42500,46
48.43333,46
48.44167,46
48.45000,46
48.45833,47
48.46667,47
48.47500,47
48.48333,47
48.49167,47
48.50000,47
48.50833,47
48.51667,47
48.52500,47
48.53333,47
48.54167,47
48.55000,48
48.55833,48
48.56667,48
48.57500,48
48.58333,48
48.59167,48
48.60000,48
48.60833,48
48.61667,48
48.62500,48
48.63333,48
48.64167,49
48.65000,49
48.65833,49
48.66667,49
48.67500,50
48.68333,49
48.69167,49
48.70000,49
48.70833,49
48.71667,48
48.72500,48
48.73333,49
48.74167,49
48.75000,49
48.75833,49
48.76667,49
48.77500,49
48.78333,49
48.79167,50
48.80000,50
48.80833,51
48.81667,51
48.82500,51
48.83333,51
48.84167,51
48.85000,51
48.85833,51
48.86667,51
48.87500,52
48.88333,52
48.89167,52
48.90000,52
48.90833,52
48.91667,52
48.92500,52
48.93333,52
48.94167,52
48.95000,52
48.95833,52
48.96667,52
48.97500,52
48.98333,53
48.99167,53
49.00000,53
49.00833,53
49.01667,53
49.02500,52
49.03333,52
49.04167,52
49.05000,52
49.05833,52
49.06667,52
49.07500,52
49.08333,52
49.09167,52
49.10000,52
49.10833,52
49.11667,52
49.12500,52
49.13333,52
49.14167,52
49.15000,52
49.15833,51
49.16667,51
49.17500,51
49.18333,51
49.19167,51
49.20000,51
49.20833,52
49.21667,51
49.22500,51
49.23333,51
49.24167,51
49.25000,51
49.25833,51
49.26667,51
49.27500,51
49.28333,51
49.29167,50
49.30000,50
49.30833,49
49.31667,49
49.32500,49
49.33333,48
49.34167,48
49.35000,48
49.35833,47
49.36667,47
49.37500,47
49.38333,47
49.39167,47
49.40000,47
49.40833,47
49.41667,47
49.42500,46
49.43333,46
49.44167,45
49.45000,45
49.45833,44
49.46667,44
49.47500,44
49.48333,44
49.49167,44
49.50000,43
49.50833,43
49.51667,42
49.52500,42
49.53333,42
49.54167,41
49.55000,41
49.55833,40
49.56667,40
49.57500,39
49.58333,38
49.59167,38
49.60000,37
49.60833,37
49.61667,36
49.62500,36
49.63333,36
49.64167,35
49.65000,35
49.65833,35
49.66667,34
49.67500,34
49.68333,33
49.69167,32
49.70000,31
49.70833,30
49.71667,30
49.72500,29
49.73333,28
49.74167,28
49.75000,28
49.75833,27
49.76667,26
49.77500,25
49.78333,24
49.79167,24
49.80000,23
49.80833,23
49.81667,22
49.82500,21
49.83333,21
49.84167,20
49.85000,19
49.85833,18
49.86667,17
49.87500,16
49.88333,15
49.89167,14
49.90000,13
49.90833,13
49.91667,12
49.92500,12
49.93333,11
49.94167,10
49.95000,9
49.95833,9
49.96667,8
49.97500,7
49.98333,6
49.99167,5
50.00000,4

