[Header]
Application Name,LabSolutions
Version,5.97 SP1
Data File Name,C:\Users\cremerlab\Desktop\Richa\Oct_18th_2022_yield_expt\Oct 18th 2022 yield expt_10182022_001_025.lcd
Output Date,10/19/2022
Output Time,1:49:23 PM

[File Information]
Type,Data File
Generated,10/19/2022 12:59:03 PM
Generated by,System Administrator
Modified,10/19/2022 1:49:23 PM
Modified by,System Administrator

[Sample Information]
Operator Name,System Administrator
Acquired,10/19/2022 12:59:21 PM
Sample Type,0:Unknown
Level,0
Sample Name,101822_BF_Trp_4
Sample ID,001
ISTD Amount1,1
ISTD Amount2,1
ISTD Amount3,1
ISTD Amount4,1
ISTD Amount5,1
ISTD Amount6,1
ISTD Amount7,1
ISTD Amount8,1
ISTD Amount9,1
ISTD Amount10,1
ISTD Amount11,1
ISTD Amount12,1
ISTD Amount13,1
ISTD Amount14,1
ISTD Amount15,1
ISTD Amount16,1
ISTD Amount17,1
ISTD Amount18,1
ISTD Amount19,1
ISTD Amount20,1
ISTD Amount21,1
ISTD Amount22,1
ISTD Amount23,1
ISTD Amount24,1
ISTD Amount25,1
ISTD Amount26,1
ISTD Amount27,1
ISTD Amount28,1
ISTD Amount29,1
ISTD Amount30,1
ISTD Amount31,1
ISTD Amount32,1
Sample Amount,1
Dilution Factor,1
Vial#,24
Injection Volume,20

[Original Files]
Data File,C:\Users\cremerlab\Desktop\Richa\Oct_18th_2022_yield_expt\Oct 18th 2022 yield expt_10182022_001_025.lcd
Method File,C:\Users\cremerlab\Desktop\Richa\acetate_excretion.lcm
Batch File,C:\Users\cremerlab\Desktop\Richa\Oct_18th_2022_yield_expt\Oct 18th 2022 yield expt.lcb
Report Format File,c:\LabSolutions\System\DEFAULT.lsr

[File Description]


[Configuration]
Instrument Name,HPLC-PC-Instrument1
Instrument #,1
Line #,1
# of Detectors,2
Detector ID,Detector A,Detector B
Detector Name,Detector A,Detector B
# of Channels,1,1

[Peak Table(Detector A)]
# of Peaks,0

[Peak Table(Detector B)]
# of Peaks,13
Peak#,R.Time,I.Time,F.Time,Area,Height,A/H,Conc.,Mark,ID#,Name,k',Plate #,Plate Ht.,Tailing,Resolution,Sep.Factor,Area Ratio,Height Ratio,Conc. %,Norm Conc.
1,10.483,10.275,10.525,1449,191,7.588,0.000,   ,,,0.000,9050,16.574,0.000,0.000,0.000,0,0,0.000,0.000
2,11.035,10.525,12.358,2341744,119009,19.677,0.000, V ,,,0.053,7467,20.089,0.965,1.160,0.000,0,0,0.000,0.000
3,14.365,12.667,15.208,3707196,78565,47.186,0.000,   ,,,0.370,2461,60.947,0.655,3.990,7.034,0,0,0.000,0.000
4,15.781,15.208,18.458,1455507,49001,29.704,0.000,SV ,,,0.505,6816,22.008,1.149,1.473,1.365,0,0,0.000,0.000
5,17.877,17.433,18.417,7964,269,29.579,0.000,T  ,,,0.705,7693,19.498,1.093,2.653,1.396,0,0,0.000,0.000
6,19.065,18.467,19.750,11225,283,39.725,0.000,   ,,,0.819,4703,31.895,1.065,1.232,1.161,0,0,0.000,0.000
7,20.310,19.758,20.558,18611,626,29.751,0.000,   ,,,0.937,3511,42.723,0.000,1.003,1.145,0,0,0.000,0.000
8,20.993,20.558,21.492,42555,1066,39.916,0.000, V ,,,1.003,4929,30.432,0.000,0.533,1.070,0,0,0.000,0.000
9,21.873,21.492,22.575,25415,688,36.960,0.000, V ,,,1.086,6092,24.624,0.000,0.759,1.084,0,0,0.000,0.000
10,23.171,22.608,24.242,14476,266,54.517,0.000,   ,,,1.210,5480,27.374,0.000,1.094,1.114,0,0,0.000,0.000
11,25.093,24.242,26.492,168374,3972,42.392,0.000, V ,,,1.394,8661,17.318,1.136,1.650,1.152,0,0,0.000,0.000
12,29.209,28.325,30.442,143855,3036,47.389,0.000,   ,,,1.786,8986,16.693,1.088,3.562,1.282,0,0,0.000,0.000
13,32.424,31.667,33.108,10423,233,44.652,0.000,   ,,,2.093,12549,11.953,0.959,2.690,1.172,0,0,0.000,0.000

[LC Chromatogram(Detector B-Ch1)]
Interval(msec),500
# of Points,6001
Start Time(min),0.000
End Time(min),50.000
Intensity Units,mV
Intensity Multiplier,0.001
R.Time (min),Intensity
0.00000,-15
0.00833,-15
0.01667,-0
0.02500,-1
0.03333,-1
0.04167,-1
0.05000,-2
0.05833,-2
0.06667,-2
0.07500,-2
0.08333,-3
0.09167,-3
0.10000,-4
0.10833,-4
0.11667,-5
0.12500,-5
0.13333,-5
0.14167,-6
0.15000,-7
0.15833,-7
0.16667,-7
0.17500,-8
0.18333,-8
0.19167,-8
0.20000,-8
0.20833,-9
0.21667,-9
0.22500,-10
0.23333,-9
0.24167,-9
0.25000,-10
0.25833,-10
0.26667,-10
0.27500,-10
0.28333,-11
0.29167,-11
0.30000,-11
0.30833,-11
0.31667,-11
0.32500,-12
0.33333,-12
0.34167,-12
0.35000,-12
0.35833,-12
0.36667,-12
0.37500,-12
0.38333,-12
0.39167,-12
0.40000,-12
0.40833,-12
0.41667,-12
0.42500,-12
0.43333,-11
0.44167,-11
0.45000,-11
0.45833,-11
0.46667,-11
0.47500,-12
0.48333,-12
0.49167,-12
0.50000,-12
0.50833,-12
0.51667,-12
0.52500,-13
0.53333,-13
0.54167,-13
0.55000,-12
0.55833,-12
0.56667,-12
0.57500,-13
0.58333,-12
0.59167,-12
0.60000,-12
0.60833,-12
0.61667,-12
0.62500,-12
0.63333,-12
0.64167,-12
0.65000,-12
0.65833,-12
0.66667,-12
0.67500,-12
0.68333,-12
0.69167,-12
0.70000,-12
0.70833,-12
0.71667,-12
0.72500,-12
0.73333,-12
0.74167,-12
0.75000,-11
0.75833,-11
0.76667,-11
0.77500,-11
0.78333,-11
0.79167,-11
0.80000,-11
0.80833,-11
0.81667,-11
0.82500,-10
0.83333,-10
0.84167,-9
0.85000,-9
0.85833,-8
0.86667,-8
0.87500,-8
0.88333,-8
0.89167,-8
0.90000,-7
0.90833,-7
0.91667,-7
0.92500,-8
0.93333,-8
0.94167,-7
0.95000,-7
0.95833,-7
0.96667,-7
0.97500,-7
0.98333,-6
0.99167,-6
1.00000,-5
1.00833,-5
1.01667,-5
1.02500,-5
1.03333,-5
1.04167,-4
1.05000,-4
1.05833,-4
1.06667,-4
1.07500,-3
1.08333,-3
1.09167,-3
1.10000,-2
1.10833,-2
1.11667,-1
1.12500,-1
1.13333,-1
1.14167,-1
1.15000,-2
1.15833,-2
1.16667,-2
1.17500,-2
1.18333,-1
1.19167,-1
1.20000,-1
1.20833,-1
1.21667,-1
1.22500,-1
1.23333,-1
1.24167,-2
1.25000,-2
1.25833,-2
1.26667,-2
1.27500,-2
1.28333,-1
1.29167,-1
1.30000,-0
1.30833,-0
1.31667,-0
1.32500,0
1.33333,0
1.34167,0
1.35000,-0
1.35833,-0
1.36667,0
1.37500,1
1.38333,1
1.39167,1
1.40000,1
1.40833,2
1.41667,1
1.42500,1
1.43333,1
1.44167,1
1.45000,1
1.45833,1
1.46667,1
1.47500,1
1.48333,1
1.49167,2
1.50000,2
1.50833,2
1.51667,3
1.52500,3
1.53333,3
1.54167,3
1.55000,2
1.55833,2
1.56667,2
1.57500,2
1.58333,2
1.59167,2
1.60000,2
1.60833,2
1.61667,2
1.62500,2
1.63333,2
1.64167,2
1.65000,2
1.65833,2
1.66667,2
1.67500,3
1.68333,2
1.69167,2
1.70000,2
1.70833,2
1.71667,2
1.72500,2
1.73333,2
1.74167,2
1.75000,3
1.75833,3
1.76667,2
1.77500,2
1.78333,2
1.79167,1
1.80000,1
1.80833,1
1.81667,1
1.82500,1
1.83333,1
1.84167,1
1.85000,0
1.85833,0
1.86667,0
1.87500,1
1.88333,1
1.89167,1
1.90000,1
1.90833,1
1.91667,1
1.92500,1
1.93333,1
1.94167,1
1.95000,1
1.95833,0
1.96667,0
1.97500,-0
1.98333,-0
1.99167,-0
2.00000,-0
2.00833,-0
2.01667,-0
2.02500,-1
2.03333,-1
2.04167,-1
2.05000,-1
2.05833,-1
2.06667,-1
2.07500,-1
2.08333,-2
2.09167,-2
2.10000,-2
2.10833,-2
2.11667,-2
2.12500,-3
2.13333,-3
2.14167,-3
2.15000,-4
2.15833,-4
2.16667,-4
2.17500,-4
2.18333,-4
2.19167,-4
2.20000,-4
2.20833,-4
2.21667,-4
2.22500,-4
2.23333,-4
2.24167,-4
2.25000,-5
2.25833,-5
2.26667,-5
2.27500,-5
2.28333,-5
2.29167,-6
2.30000,-6
2.30833,-6
2.31667,-6
2.32500,-6
2.33333,-7
2.34167,-7
2.35000,-7
2.35833,-8
2.36667,-8
2.37500,-8
2.38333,-8
2.39167,-8
2.40000,-8
2.40833,-9
2.41667,-9
2.42500,-10
2.43333,-10
2.44167,-11
2.45000,-11
2.45833,-10
2.46667,-11
2.47500,-11
2.48333,-11
2.49167,-11
2.50000,-10
2.50833,-10
2.51667,-11
2.52500,-11
2.53333,-11
2.54167,-11
2.55000,-11
2.55833,-11
2.56667,-11
2.57500,-12
2.58333,-12
2.59167,-13
2.60000,-13
2.60833,-13
2.61667,-13
2.62500,-14
2.63333,-14
2.64167,-14
2.65000,-14
2.65833,-13
2.66667,-13
2.67500,-13
2.68333,-14
2.69167,-14
2.70000,-14
2.70833,-14
2.71667,-15
2.72500,-14
2.73333,-15
2.74167,-15
2.75000,-15
2.75833,-15
2.76667,-15
2.77500,-15
2.78333,-15
2.79167,-16
2.80000,-16
2.80833,-16
2.81667,-16
2.82500,-16
2.83333,-16
2.84167,-15
2.85000,-15
2.85833,-15
2.86667,-15
2.87500,-15
2.88333,-15
2.89167,-15
2.90000,-15
2.90833,-15
2.91667,-15
2.92500,-15
2.93333,-16
2.94167,-16
2.95000,-16
2.95833,-15
2.96667,-15
2.97500,-15
2.98333,-15
2.99167,-15
3.00000,-16
3.00833,-16
3.01667,-16
3.02500,-16
3.03333,-16
3.04167,-15
3.05000,-15
3.05833,-15
3.06667,-15
3.07500,-15
3.08333,-15
3.09167,-15
3.10000,-15
3.10833,-15
3.11667,-15
3.12500,-15
3.13333,-15
3.14167,-15
3.15000,-14
3.15833,-14
3.16667,-14
3.17500,-14
3.18333,-14
3.19167,-14
3.20000,-13
3.20833,-13
3.21667,-13
3.22500,-13
3.23333,-14
3.24167,-14
3.25000,-13
3.25833,-13
3.26667,-13
3.27500,-13
3.28333,-12
3.29167,-12
3.30000,-12
3.30833,-12
3.31667,-12
3.32500,-12
3.33333,-12
3.34167,-12
3.35000,-12
3.35833,-12
3.36667,-12
3.37500,-12
3.38333,-11
3.39167,-11
3.40000,-11
3.40833,-11
3.41667,-10
3.42500,-10
3.43333,-10
3.44167,-10
3.45000,-9
3.45833,-9
3.46667,-9
3.47500,-8
3.48333,-8
3.49167,-8
3.50000,-8
3.50833,-8
3.51667,-7
3.52500,-7
3.53333,-6
3.54167,-6
3.55000,-5
3.55833,-5
3.56667,-5
3.57500,-4
3.58333,-4
3.59167,-4
3.60000,-4
3.60833,-4
3.61667,-4
3.62500,-3
3.63333,-3
3.64167,-3
3.65000,-2
3.65833,-2
3.66667,-1
3.67500,-1
3.68333,-0
3.69167,0
3.70000,0
3.70833,0
3.71667,1
3.72500,1
3.73333,1
3.74167,2
3.75000,3
3.75833,3
3.76667,3
3.77500,3
3.78333,4
3.79167,4
3.80000,5
3.80833,5
3.81667,5
3.82500,5
3.83333,5
3.84167,6
3.85000,6
3.85833,7
3.86667,7
3.87500,8
3.88333,9
3.89167,10
3.90000,10
3.90833,11
3.91667,11
3.92500,12
3.93333,12
3.94167,12
3.95000,13
3.95833,13
3.96667,14
3.97500,14
3.98333,15
3.99167,16
4.00000,16
4.00833,17
4.01667,18
4.02500,19
4.03333,19
4.04167,20
4.05000,21
4.05833,22
4.06667,23
4.07500,23
4.08333,24
4.09167,24
4.10000,25
4.10833,25
4.11667,26
4.12500,27
4.13333,28
4.14167,29
4.15000,29
4.15833,30
4.16667,30
4.17500,31
4.18333,32
4.19167,32
4.20000,33
4.20833,34
4.21667,35
4.22500,35
4.23333,36
4.24167,37
4.25000,37
4.25833,38
4.26667,39
4.27500,40
4.28333,40
4.29167,41
4.30000,41
4.30833,42
4.31667,43
4.32500,43
4.33333,44
4.34167,45
4.35000,45
4.35833,46
4.36667,46
4.37500,47
4.38333,48
4.39167,49
4.40000,49
4.40833,50
4.41667,50
4.42500,51
4.43333,51
4.44167,51
4.45000,51
4.45833,51
4.46667,52
4.47500,52
4.48333,53
4.49167,54
4.50000,54
4.50833,55
4.51667,55
4.52500,55
4.53333,55
4.54167,56
4.55000,56
4.55833,57
4.56667,57
4.57500,58
4.58333,58
4.59167,58
4.60000,59
4.60833,59
4.61667,59
4.62500,59
4.63333,59
4.64167,59
4.65000,60
4.65833,60
4.66667,60
4.67500,60
4.68333,60
4.69167,60
4.70000,60
4.70833,60
4.71667,60
4.72500,61
4.73333,61
4.74167,61
4.75000,61
4.75833,61
4.76667,61
4.77500,61
4.78333,61
4.79167,61
4.80000,61
4.80833,61
4.81667,61
4.82500,61
4.83333,61
4.84167,60
4.85000,60
4.85833,60
4.86667,60
4.87500,59
4.88333,59
4.89167,60
4.90000,59
4.90833,59
4.91667,59
4.92500,59
4.93333,58
4.94167,58
4.95000,57
4.95833,57
4.96667,57
4.97500,57
4.98333,57
4.99167,56
5.00000,56
5.00833,56
5.01667,55
5.02500,55
5.03333,55
5.04167,55
5.05000,55
5.05833,55
5.06667,54
5.07500,53
5.08333,53
5.09167,53
5.10000,52
5.10833,52
5.11667,51
5.12500,51
5.13333,51
5.14167,50
5.15000,50
5.15833,49
5.16667,49
5.17500,48
5.18333,48
5.19167,47
5.20000,47
5.20833,46
5.21667,45
5.22500,44
5.23333,44
5.24167,43
5.25000,43
5.25833,42
5.26667,41
5.27500,41
5.28333,40
5.29167,40
5.30000,39
5.30833,39
5.31667,38
5.32500,37
5.33333,36
5.34167,35
5.35000,34
5.35833,34
5.36667,34
5.37500,33
5.38333,33
5.39167,32
5.40000,31
5.40833,31
5.41667,30
5.42500,30
5.43333,29
5.44167,28
5.45000,27
5.45833,26
5.46667,25
5.47500,24
5.48333,23
5.49167,23
5.50000,22
5.50833,21
5.51667,21
5.52500,20
5.53333,19
5.54167,18
5.55000,18
5.55833,17
5.56667,16
5.57500,15
5.58333,14
5.59167,13
5.60000,13
5.60833,12
5.61667,11
5.62500,10
5.63333,9
5.64167,8
5.65000,8
5.65833,7
5.66667,6
5.67500,6
5.68333,5
5.69167,4
5.70000,3
5.70833,2
5.71667,1
5.72500,0
5.73333,-0
5.74167,-1
5.75000,-2
5.75833,-3
5.76667,-4
5.77500,-5
5.78333,-5
5.79167,-6
5.80000,-7
5.80833,-7
5.81667,-8
5.82500,-9
5.83333,-10
5.84167,-10
5.85000,-11
5.85833,-12
5.86667,-13
5.87500,-14
5.88333,-15
5.89167,-15
5.90000,-16
5.90833,-16
5.91667,-17
5.92500,-18
5.93333,-18
5.94167,-19
5.95000,-19
5.95833,-20
5.96667,-21
5.97500,-21
5.98333,-22
5.99167,-23
6.00000,-24
6.00833,-25
6.01667,-25
6.02500,-26
6.03333,-26
6.04167,-27
6.05000,-28
6.05833,-28
6.06667,-29
6.07500,-29
6.08333,-30
6.09167,-30
6.10000,-31
6.10833,-31
6.11667,-31
6.12500,-32
6.13333,-32
6.14167,-33
6.15000,-33
6.15833,-34
6.16667,-34
6.17500,-35
6.18333,-35
6.19167,-36
6.20000,-36
6.20833,-37
6.21667,-37
6.22500,-38
6.23333,-38
6.24167,-38
6.25000,-39
6.25833,-39
6.26667,-39
6.27500,-40
6.28333,-40
6.29167,-40
6.30000,-40
6.30833,-40
6.31667,-41
6.32500,-41
6.33333,-42
6.34167,-42
6.35000,-42
6.35833,-43
6.36667,-43
6.37500,-43
6.38333,-43
6.39167,-43
6.40000,-43
6.40833,-43
6.41667,-44
6.42500,-44
6.43333,-44
6.44167,-44
6.45000,-44
6.45833,-44
6.46667,-44
6.47500,-45
6.48333,-45
6.49167,-45
6.50000,-45
6.50833,-45
6.51667,-45
6.52500,-45
6.53333,-45
6.54167,-45
6.55000,-45
6.55833,-46
6.56667,-46
6.57500,-46
6.58333,-47
6.59167,-47
6.60000,-47
6.60833,-47
6.61667,-47
6.62500,-47
6.63333,-47
6.64167,-47
6.65000,-47
6.65833,-47
6.66667,-47
6.67500,-47
6.68333,-47
6.69167,-47
6.70000,-48
6.70833,-47
6.71667,-47
6.72500,-48
6.73333,-48
6.74167,-48
6.75000,-48
6.75833,-48
6.76667,-48
6.77500,-48
6.78333,-48
6.79167,-48
6.80000,-47
6.80833,-47
6.81667,-47
6.82500,-48
6.83333,-48
6.84167,-48
6.85000,-48
6.85833,-48
6.86667,-48
6.87500,-48
6.88333,-48
6.89167,-49
6.90000,-49
6.90833,-49
6.91667,-49
6.92500,-48
6.93333,-48
6.94167,-48
6.95000,-48
6.95833,-48
6.96667,-47
6.97500,-47
6.98333,-47
6.99167,-47
7.00000,-47
7.00833,-48
7.01667,-47
7.02500,-47
7.03333,-47
7.04167,-48
7.05000,-48
7.05833,-48
7.06667,-48
7.07500,-49
7.08333,-49
7.09167,-49
7.10000,-48
7.10833,-48
7.11667,-48
7.12500,-48
7.13333,-48
7.14167,-48
7.15000,-48
7.15833,-48
7.16667,-48
7.17500,-48
7.18333,-48
7.19167,-48
7.20000,-48
7.20833,-49
7.21667,-49
7.22500,-49
7.23333,-49
7.24167,-49
7.25000,-49
7.25833,-49
7.26667,-49
7.27500,-49
7.28333,-49
7.29167,-49
7.30000,-49
7.30833,-49
7.31667,-48
7.32500,-48
7.33333,-48
7.34167,-48
7.35000,-48
7.35833,-48
7.36667,-48
7.37500,-48
7.38333,-48
7.39167,-48
7.40000,-48
7.40833,-48
7.41667,-49
7.42500,-49
7.43333,-49
7.44167,-49
7.45000,-49
7.45833,-49
7.46667,-49
7.47500,-49
7.48333,-49
7.49167,-49
7.50000,-49
7.50833,-49
7.51667,-49
7.52500,-49
7.53333,-49
7.54167,-49
7.55000,-49
7.55833,-49
7.56667,-49
7.57500,-49
7.58333,-49
7.59167,-49
7.60000,-49
7.60833,-48
7.61667,-48
7.62500,-48
7.63333,-47
7.64167,-47
7.65000,-47
7.65833,-47
7.66667,-48
7.67500,-48
7.68333,-48
7.69167,-48
7.70000,-48
7.70833,-48
7.71667,-48
7.72500,-48
7.73333,-48
7.74167,-48
7.75000,-48
7.75833,-48
7.76667,-48
7.77500,-48
7.78333,-48
7.79167,-49
7.80000,-49
7.80833,-49
7.81667,-49
7.82500,-49
7.83333,-49
7.84167,-49
7.85000,-50
7.85833,-50
7.86667,-50
7.87500,-50
7.88333,-50
7.89167,-50
7.90000,-50
7.90833,-50
7.91667,-50
7.92500,-49
7.93333,-49
7.94167,-49
7.95000,-49
7.95833,-49
7.96667,-49
7.97500,-49
7.98333,-49
7.99167,-49
8.00000,-49
8.00833,-50
8.01667,-50
8.02500,-50
8.03333,-49
8.04167,-49
8.05000,-50
8.05833,-50
8.06667,-50
8.07500,-50
8.08333,-50
8.09167,-50
8.10000,-50
8.10833,-51
8.11667,-51
8.12500,-50
8.13333,-50
8.14167,-49
8.15000,-49
8.15833,-49
8.16667,-49
8.17500,-49
8.18333,-49
8.19167,-50
8.20000,-50
8.20833,-50
8.21667,-50
8.22500,-49
8.23333,-49
8.24167,-49
8.25000,-49
8.25833,-49
8.26667,-49
8.27500,-49
8.28333,-49
8.29167,-49
8.30000,-49
8.30833,-49
8.31667,-49
8.32500,-49
8.33333,-49
8.34167,-48
8.35000,-48
8.35833,-49
8.36667,-49
8.37500,-49
8.38333,-49
8.39167,-49
8.40000,-49
8.40833,-49
8.41667,-49
8.42500,-48
8.43333,-48
8.44167,-48
8.45000,-48
8.45833,-48
8.46667,-48
8.47500,-48
8.48333,-48
8.49167,-49
8.50000,-49
8.50833,-49
8.51667,-49
8.52500,-49
8.53333,-49
8.54167,-49
8.55000,-49
8.55833,-49
8.56667,-49
8.57500,-49
8.58333,-49
8.59167,-49
8.60000,-49
8.60833,-49
8.61667,-49
8.62500,-49
8.63333,-49
8.64167,-49
8.65000,-49
8.65833,-49
8.66667,-49
8.67500,-49
8.68333,-49
8.69167,-49
8.70000,-49
8.70833,-49
8.71667,-50
8.72500,-50
8.73333,-50
8.74167,-49
8.75000,-49
8.75833,-49
8.76667,-49
8.77500,-49
8.78333,-49
8.79167,-49
8.80000,-49
8.80833,-49
8.81667,-49
8.82500,-49
8.83333,-48
8.84167,-48
8.85000,-48
8.85833,-48
8.86667,-48
8.87500,-48
8.88333,-48
8.89167,-48
8.90000,-48
8.90833,-48
8.91667,-48
8.92500,-48
8.93333,-48
8.94167,-48
8.95000,-48
8.95833,-48
8.96667,-48
8.97500,-48
8.98333,-48
8.99167,-48
9.00000,-48
9.00833,-48
9.01667,-48
9.02500,-48
9.03333,-48
9.04167,-48
9.05000,-48
9.05833,-48
9.06667,-48
9.07500,-48
9.08333,-48
9.09167,-48
9.10000,-48
9.10833,-48
9.11667,-48
9.12500,-49
9.13333,-49
9.14167,-49
9.15000,-49
9.15833,-48
9.16667,-48
9.17500,-48
9.18333,-48
9.19167,-48
9.20000,-48
9.20833,-47
9.21667,-47
9.22500,-47
9.23333,-46
9.24167,-46
9.25000,-46
9.25833,-46
9.26667,-46
9.27500,-47
9.28333,-47
9.29167,-47
9.30000,-48
9.30833,-48
9.31667,-48
9.32500,-47
9.33333,-47
9.34167,-47
9.35000,-46
9.35833,-46
9.36667,-46
9.37500,-47
9.38333,-47
9.39167,-47
9.40000,-47
9.40833,-47
9.41667,-47
9.42500,-46
9.43333,-46
9.44167,-46
9.45000,-46
9.45833,-46
9.46667,-46
9.47500,-46
9.48333,-46
9.49167,-46
9.50000,-46
9.50833,-46
9.51667,-46
9.52500,-46
9.53333,-45
9.54167,-45
9.55000,-45
9.55833,-46
9.56667,-46
9.57500,-46
9.58333,-46
9.59167,-46
9.60000,-46
9.60833,-45
9.61667,-45
9.62500,-45
9.63333,-45
9.64167,-45
9.65000,-45
9.65833,-45
9.66667,-45
9.67500,-45
9.68333,-45
9.69167,-45
9.70000,-45
9.70833,-45
9.71667,-45
9.72500,-45
9.73333,-45
9.74167,-45
9.75000,-45
9.75833,-45
9.76667,-45
9.77500,-45
9.78333,-45
9.79167,-45
9.80000,-45
9.80833,-45
9.81667,-45
9.82500,-45
9.83333,-45
9.84167,-45
9.85000,-45
9.85833,-45
9.86667,-45
9.87500,-45
9.88333,-44
9.89167,-44
9.90000,-44
9.90833,-44
9.91667,-44
9.92500,-44
9.93333,-44
9.94167,-43
9.95000,-43
9.95833,-43
9.96667,-43
9.97500,-43
9.98333,-42
9.99167,-42
10.00000,-42
10.00833,-43
10.01667,-43
10.02500,-43
10.03333,-42
10.04167,-42
10.05000,-42
10.05833,-42
10.06667,-42
10.07500,-42
10.08333,-42
10.09167,-42
10.10000,-41
10.10833,-41
10.11667,-40
10.12500,-39
10.13333,-38
10.14167,-38
10.15000,-37
10.15833,-37
10.16667,-36
10.17500,-35
10.18333,-34
10.19167,-33
10.20000,-32
10.20833,-30
10.21667,-29
10.22500,-27
10.23333,-26
10.24167,-24
10.25000,-23
10.25833,-21
10.26667,-18
10.27500,-16
10.28333,-13
10.29167,-10
10.30000,-7
10.30833,-3
10.31667,1
10.32500,6
10.33333,12
10.34167,20
10.35000,28
10.35833,38
10.36667,50
10.37500,62
10.38333,76
10.39167,92
10.40000,109
10.40833,126
10.41667,144
10.42500,163
10.43333,180
10.44167,196
10.45000,210
10.45833,222
10.46667,231
10.47500,236
10.48333,239
10.49167,239
10.50000,236
10.50833,232
10.51667,229
10.52500,229
10.53333,235
10.54167,251
10.55000,279
10.55833,325
10.56667,394
10.57500,491
10.58333,622
10.59167,792
10.60000,1007
10.60833,1273
10.61667,1597
10.62500,1984
10.63333,2440
10.64167,2972
10.65000,3585
10.65833,4283
10.66667,5073
10.67500,5960
10.68333,6947
10.69167,8038
10.70000,9238
10.70833,10549
10.71667,11975
10.72500,13517
10.73333,15179
10.74167,16961
10.75000,18864
10.75833,20891
10.76667,23040
10.77500,25312
10.78333,27708
10.79167,30225
10.80000,32863
10.80833,35620
10.81667,38493
10.82500,41481
10.83333,44580
10.84167,47786
10.85000,51095
10.85833,54501
10.86667,57999
10.87500,61581
10.88333,65240
10.89167,68965
10.90000,72745
10.90833,76567
10.91667,80414
10.92500,84268
10.93333,88107
10.94167,91905
10.95000,95631
10.95833,99251
10.96667,102726
10.97500,106011
10.98333,109057
10.99167,111813
11.00000,114220
11.00833,116222
11.01667,117760
11.02500,118778
11.03333,119225
11.04167,119058
11.05000,118244
11.05833,116764
11.06667,114615
11.07500,111812
11.08333,108387
11.09167,104394
11.10000,99898
11.10833,94980
11.11667,89733
11.12500,84251
11.13333,78634
11.14167,72976
11.15000,67364
11.15833,61877
11.16667,56582
11.17500,51533
11.18333,46771
11.19167,42324
11.20000,38209
11.20833,34433
11.21667,30993
11.22500,27879
11.23333,25078
11.24167,22570
11.25000,20336
11.25833,18352
11.26667,16596
11.27500,15045
11.28333,13678
11.29167,12475
11.30000,11415
11.30833,10483
11.31667,9662
11.32500,8938
11.33333,8298
11.34167,7733
11.35000,7230
11.35833,6783
11.36667,6383
11.37500,6024
11.38333,5702
11.39167,5410
11.40000,5146
11.40833,4905
11.41667,4684
11.42500,4480
11.43333,4293
11.44167,4119
11.45000,3957
11.45833,3806
11.46667,3665
11.47500,3531
11.48333,3405
11.49167,3286
11.50000,3172
11.50833,3065
11.51667,2963
11.52500,2865
11.53333,2773
11.54167,2684
11.55000,2599
11.55833,2517
11.56667,2439
11.57500,2364
11.58333,2292
11.59167,2223
11.60000,2156
11.60833,2092
11.61667,2030
11.62500,1971
11.63333,1914
11.64167,1860
11.65000,1808
11.65833,1757
11.66667,1709
11.67500,1662
11.68333,1617
11.69167,1574
11.70000,1533
11.70833,1493
11.71667,1455
11.72500,1418
11.73333,1383
11.74167,1349
11.75000,1317
11.75833,1285
11.76667,1255
11.77500,1226
11.78333,1199
11.79167,1173
11.80000,1147
11.80833,1122
11.81667,1099
11.82500,1077
11.83333,1056
11.84167,1036
11.85000,1017
11.85833,999
11.86667,981
11.87500,964
11.88333,948
11.89167,932
11.90000,918
11.90833,903
11.91667,890
11.92500,876
11.93333,864
11.94167,852
11.95000,840
11.95833,829
11.96667,819
11.97500,809
11.98333,799
11.99167,790
12.00000,780
12.00833,771
12.01667,763
12.02500,755
12.03333,747
12.04167,740
12.05000,733
12.05833,727
12.06667,721
12.07500,715
12.08333,709
12.09167,703
12.10000,698
12.10833,692
12.11667,687
12.12500,682
12.13333,677
12.14167,672
12.15000,668
12.15833,663
12.16667,660
12.17500,656
12.18333,653
12.19167,649
12.20000,646
12.20833,643
12.21667,641
12.22500,638
12.23333,636
12.24167,634
12.25000,632
12.25833,630
12.26667,628
12.27500,627
12.28333,626
12.29167,625
12.30000,624
12.30833,623
12.31667,622
12.32500,622
12.33333,621
12.34167,621
12.35000,620
12.35833,620
12.36667,620
12.37500,619
12.38333,619
12.39167,618
12.40000,618
12.40833,617
12.41667,617
12.42500,617
12.43333,616
12.44167,616
12.45000,616
12.45833,616
12.46667,615
12.47500,614
12.48333,613
12.49167,612
12.50000,611
12.50833,610
12.51667,609
12.52500,607
12.53333,606
12.54167,605
12.55000,603
12.55833,602
12.56667,601
12.57500,599
12.58333,598
12.59167,596
12.60000,595
12.60833,593
12.61667,592
12.62500,591
12.63333,589
12.64167,588
12.65000,587
12.65833,586
12.66667,586
12.67500,587
12.68333,587
12.69167,589
12.70000,592
12.70833,595
12.71667,600
12.72500,607
12.73333,615
12.74167,625
12.75000,637
12.75833,651
12.76667,668
12.77500,687
12.78333,709
12.79167,735
12.80000,764
12.80833,797
12.81667,833
12.82500,874
12.83333,919
12.84167,968
12.85000,1022
12.85833,1081
12.86667,1144
12.87500,1213
12.88333,1286
12.89167,1365
12.90000,1450
12.90833,1540
12.91667,1635
12.92500,1737
12.93333,1843
12.94167,1956
12.95000,2074
12.95833,2198
12.96667,2328
12.97500,2464
12.98333,2605
12.99167,2752
13.00000,2906
13.00833,3065
13.01667,3229
13.02500,3400
13.03333,3576
13.04167,3757
13.05000,3944
13.05833,4136
13.06667,4334
13.07500,4538
13.08333,4747
13.09167,4961
13.10000,5180
13.10833,5404
13.11667,5633
13.12500,5867
13.13333,6106
13.14167,6350
13.15000,6598
13.15833,6850
13.16667,7107
13.17500,7367
13.18333,7632
13.19167,7901
13.20000,8174
13.20833,8451
13.21667,8731
13.22500,9015
13.23333,9302
13.24167,9594
13.25000,9888
13.25833,10186
13.26667,10487
13.27500,10791
13.28333,11099
13.29167,11409
13.30000,11722
13.30833,12039
13.31667,12358
13.32500,12680
13.33333,13006
13.34167,13334
13.35000,13665
13.35833,13999
13.36667,14335
13.37500,14674
13.38333,15016
13.39167,15361
13.40000,15708
13.40833,16058
13.41667,16411
13.42500,16766
13.43333,17125
13.44167,17487
13.45000,17851
13.45833,18217
13.46667,18586
13.47500,18958
13.48333,19334
13.49167,19711
13.50000,20093
13.50833,20477
13.51667,20864
13.52500,21253
13.53333,21646
13.54167,22042
13.55000,22441
13.55833,22843
13.56667,23249
13.57500,23657
13.58333,24069
13.59167,24484
13.60000,24902
13.60833,25324
13.61667,25749
13.62500,26178
13.63333,26610
13.64167,27045
13.65000,27485
13.65833,27927
13.66667,28374
13.67500,28823
13.68333,29276
13.69167,29733
13.70000,30194
13.70833,30659
13.71667,31127
13.72500,31599
13.73333,32075
13.74167,32555
13.75000,33039
13.75833,33527
13.76667,34019
13.77500,34515
13.78333,35016
13.79167,35520
13.80000,36028
13.80833,36541
13.81667,37058
13.82500,37580
13.83333,38106
13.84167,38636
13.85000,39171
13.85833,39710
13.86667,40254
13.87500,40802
13.88333,41354
13.89167,41912
13.90000,42474
13.90833,43042
13.91667,43614
13.92500,44191
13.93333,44774
13.94167,45361
13.95000,45953
13.95833,46550
13.96667,47152
13.97500,47760
13.98333,48373
13.99167,48991
14.00000,49615
14.00833,50244
14.01667,50879
14.02500,51519
14.03333,52165
14.04167,52816
14.05000,53473
14.05833,54136
14.06667,54805
14.07500,55479
14.08333,56160
14.09167,56848
14.10000,57541
14.10833,58240
14.11667,58946
14.12500,59658
14.13333,60377
14.14167,61102
14.15000,61834
14.15833,62572
14.16667,63317
14.17500,64070
14.18333,64829
14.19167,65596
14.20000,66370
14.20833,67151
14.21667,67940
14.22500,68734
14.23333,69536
14.24167,70343
14.25000,71154
14.25833,71966
14.26667,72776
14.27500,73578
14.28333,74365
14.29167,75129
14.30000,75862
14.30833,76550
14.31667,77183
14.32500,77748
14.33333,78233
14.34167,78624
14.35000,78909
14.35833,79080
14.36667,79127
14.37500,79042
14.38333,78820
14.39167,78455
14.40000,77946
14.40833,77290
14.41667,76484
14.42500,75527
14.43333,74417
14.44167,73152
14.45000,71730
14.45833,70149
14.46667,68408
14.47500,66508
14.48333,64450
14.49167,62241
14.50000,59886
14.50833,57399
14.51667,54793
14.52500,52088
14.53333,49303
14.54167,46465
14.55000,43600
14.55833,40733
14.56667,37892
14.57500,35105
14.58333,32393
14.59167,29781
14.60000,27286
14.60833,24923
14.61667,22703
14.62500,20633
14.63333,18718
14.64167,16956
14.65000,15346
14.65833,13884
14.66667,12562
14.67500,11374
14.68333,10308
14.69167,9357
14.70000,8510
14.70833,7758
14.71667,7091
14.72500,6500
14.73333,5978
14.74167,5516
14.75000,5108
14.75833,4747
14.76667,4427
14.77500,4143
14.78333,3891
14.79167,3667
14.80000,3467
14.80833,3288
14.81667,3127
14.82500,2982
14.83333,2851
14.84167,2732
14.85000,2623
14.85833,2524
14.86667,2433
14.87500,2349
14.88333,2272
14.89167,2201
14.90000,2134
14.90833,2072
14.91667,2014
14.92500,1960
14.93333,1909
14.94167,1860
14.95000,1815
14.95833,1772
14.96667,1731
14.97500,1693
14.98333,1657
14.99167,1622
15.00000,1589
15.00833,1558
15.01667,1528
15.02500,1500
15.03333,1473
15.04167,1447
15.05000,1422
15.05833,1399
15.06667,1377
15.07500,1356
15.08333,1336
15.09167,1317
15.10000,1299
15.10833,1282
15.11667,1266
15.12500,1251
15.13333,1237
15.14167,1224
15.15000,1212
15.15833,1200
15.16667,1190
15.17500,1181
15.18333,1174
15.19167,1168
15.20000,1165
15.20833,1164
15.21667,1165
15.22500,1170
15.23333,1178
15.24167,1191
15.25000,1210
15.25833,1235
15.26667,1268
15.27500,1309
15.28333,1361
15.29167,1426
15.30000,1505
15.30833,1600
15.31667,1714
15.32500,1850
15.33333,2009
15.34167,2195
15.35000,2411
15.35833,2660
15.36667,2945
15.37500,3270
15.38333,3638
15.39167,4052
15.40000,4515
15.40833,5030
15.41667,5600
15.42500,6227
15.43333,6914
15.44167,7662
15.45000,8472
15.45833,9345
15.46667,10281
15.47500,11280
15.48333,12340
15.49167,13460
15.50000,14637
15.50833,15868
15.51667,17148
15.52500,18474
15.53333,19841
15.54167,21242
15.55000,22672
15.55833,24124
15.56667,25591
15.57500,27066
15.58333,28542
15.59167,30011
15.60000,31468
15.60833,32903
15.61667,34311
15.62500,35685
15.63333,37019
15.64167,38305
15.65000,39541
15.65833,40719
15.66667,41835
15.67500,42887
15.68333,43870
15.69167,44780
15.70000,45616
15.70833,46374
15.71667,47054
15.72500,47653
15.73333,48171
15.74167,48607
15.75000,48960
15.75833,49230
15.76667,49416
15.77500,49521
15.78333,49542
15.79167,49483
15.80000,49342
15.80833,49121
15.81667,48822
15.82500,48446
15.83333,47995
15.84167,47470
15.85000,46875
15.85833,46212
15.86667,45482
15.87500,44691
15.88333,43840
15.89167,42934
15.90000,41976
15.90833,40970
15.91667,39922
15.92500,38834
15.93333,37713
15.94167,36561
15.95000,35385
15.95833,34188
15.96667,32977
15.97500,31756
15.98333,30530
15.99167,29302
16.00000,28079
16.00833,26863
16.01667,25659
16.02500,24472
16.03333,23304
16.04167,22159
16.05000,21040
16.05833,19949
16.06667,18890
16.07500,17863
16.08333,16872
16.09167,15916
16.10000,14998
16.10833,14118
16.11667,13277
16.12500,12475
16.13333,11712
16.14167,10988
16.15000,10303
16.15833,9656
16.16667,9045
16.17500,8471
16.18333,7932
16.19167,7427
16.20000,6955
16.20833,6515
16.21667,6105
16.22500,5723
16.23333,5368
16.24167,5039
16.25000,4735
16.25833,4453
16.26667,4193
16.27500,3953
16.28333,3732
16.29167,3529
16.30000,3342
16.30833,3170
16.31667,3013
16.32500,2868
16.33333,2736
16.34167,2614
16.35000,2502
16.35833,2400
16.36667,2306
16.37500,2219
16.38333,2140
16.39167,2067
16.40000,2001
16.40833,1939
16.41667,1882
16.42500,1830
16.43333,1782
16.44167,1737
16.45000,1696
16.45833,1657
16.46667,1621
16.47500,1587
16.48333,1555
16.49167,1525
16.50000,1497
16.50833,1471
16.51667,1446
16.52500,1422
16.53333,1400
16.54167,1378
16.55000,1357
16.55833,1337
16.56667,1317
16.57500,1298
16.58333,1279
16.59167,1261
16.60000,1244
16.60833,1227
16.61667,1210
16.62500,1194
16.63333,1177
16.64167,1160
16.65000,1144
16.65833,1127
16.66667,1112
16.67500,1097
16.68333,1082
16.69167,1068
16.70000,1053
16.70833,1039
16.71667,1025
16.72500,1012
16.73333,999
16.74167,987
16.75000,974
16.75833,962
16.76667,950
16.77500,939
16.78333,928
16.79167,918
16.80000,908
16.80833,898
16.81667,889
16.82500,880
16.83333,871
16.84167,863
16.85000,855
16.85833,848
16.86667,840
16.87500,833
16.88333,827
16.89167,820
16.90000,814
16.90833,808
16.91667,803
16.92500,798
16.93333,793
16.94167,788
16.95000,783
16.95833,779
16.96667,775
16.97500,770
16.98333,766
16.99167,762
17.00000,758
17.00833,755
17.01667,751
17.02500,747
17.03333,744
17.04167,741
17.05000,737
17.05833,734
17.06667,731
17.07500,728
17.08333,725
17.09167,723
17.10000,720
17.10833,718
17.11667,716
17.12500,713
17.13333,710
17.14167,708
17.15000,705
17.15833,703
17.16667,701
17.17500,699
17.18333,697
17.19167,695
17.20000,694
17.20833,692
17.21667,690
17.22500,688
17.23333,687
17.24167,685
17.25000,683
17.25833,681
17.26667,679
17.27500,678
17.28333,676
17.29167,674
17.30000,672
17.30833,670
17.31667,668
17.32500,666
17.33333,664
17.34167,662
17.35000,661
17.35833,659
17.36667,658
17.37500,656
17.38333,655
17.39167,654
17.40000,654
17.40833,653
17.41667,653
17.42500,652
17.43333,652
17.44167,652
17.45000,652
17.45833,652
17.46667,653
17.47500,654
17.48333,656
17.49167,658
17.50000,661
17.50833,664
17.51667,666
17.52500,669
17.53333,673
17.54167,676
17.55000,680
17.55833,684
17.56667,689
17.57500,693
17.58333,698
17.59167,704
17.60000,709
17.60833,715
17.61667,721
17.62500,727
17.63333,733
17.64167,739
17.65000,745
17.65833,750
17.66667,756
17.67500,762
17.68333,768
17.69167,774
17.70000,779
17.70833,785
17.71667,791
17.72500,796
17.73333,802
17.74167,807
17.75000,812
17.75833,817
17.76667,821
17.77500,825
17.78333,829
17.79167,833
17.80000,837
17.80833,840
17.81667,843
17.82500,846
17.83333,849
17.84167,852
17.85000,853
17.85833,855
17.86667,856
17.87500,856
17.88333,856
17.89167,856
17.90000,855
17.90833,854
17.91667,853
17.92500,852
17.93333,850
17.94167,847
17.95000,844
17.95833,840
17.96667,836
17.97500,832
17.98333,827
17.99167,823
18.00000,818
18.00833,813
18.01667,807
18.02500,800
18.03333,794
18.04167,787
18.05000,780
18.05833,772
18.06667,765
18.07500,757
18.08333,749
18.09167,741
18.10000,733
18.10833,725
18.11667,717
18.12500,709
18.13333,701
18.14167,693
18.15000,684
18.15833,676
18.16667,667
18.17500,659
18.18333,650
18.19167,642
18.20000,635
18.20833,627
18.21667,620
18.22500,612
18.23333,605
18.24167,598
18.25000,591
18.25833,584
18.26667,577
18.27500,570
18.28333,564
18.29167,559
18.30000,553
18.30833,548
18.31667,543
18.32500,539
18.33333,535
18.34167,531
18.35000,527
18.35833,524
18.36667,520
18.37500,517
18.38333,515
18.39167,512
18.40000,510
18.40833,508
18.41667,507
18.42500,506
18.43333,505
18.44167,505
18.45000,504
18.45833,504
18.46667,504
18.47500,505
18.48333,506
18.49167,507
18.50000,509
18.50833,510
18.51667,512
18.52500,515
18.53333,517
18.54167,519
18.55000,522
18.55833,525
18.56667,529
18.57500,532
18.58333,535
18.59167,539
18.60000,543
18.60833,547
18.61667,551
18.62500,555
18.63333,560
18.64167,565
18.65000,569
18.65833,575
18.66667,580
18.67500,586
18.68333,591
18.69167,596
18.70000,601
18.70833,607
18.71667,612
18.72500,618
18.73333,623
18.74167,628
18.75000,633
18.75833,638
18.76667,644
18.77500,649
18.78333,655
18.79167,661
18.80000,666
18.80833,671
18.81667,677
18.82500,682
18.83333,687
18.84167,692
18.85000,698
18.85833,703
18.86667,708
18.87500,712
18.88333,717
18.89167,721
18.90000,725
18.90833,729
18.91667,733
18.92500,737
18.93333,741
18.94167,744
18.95000,747
18.95833,750
18.96667,753
18.97500,755
18.98333,758
18.99167,760
19.00000,762
19.00833,764
19.01667,765
19.02500,766
19.03333,767
19.04167,768
19.05000,769
19.05833,769
19.06667,769
19.07500,769
19.08333,769
19.09167,768
19.10000,767
19.10833,766
19.11667,765
19.12500,763
19.13333,762
19.14167,760
19.15000,758
19.15833,755
19.16667,753
19.17500,750
19.18333,747
19.19167,745
19.20000,742
19.20833,738
19.21667,735
19.22500,731
19.23333,727
19.24167,723
19.25000,719
19.25833,714
19.26667,710
19.27500,705
19.28333,700
19.29167,696
19.30000,691
19.30833,687
19.31667,682
19.32500,677
19.33333,671
19.34167,666
19.35000,661
19.35833,656
19.36667,651
19.37500,646
19.38333,641
19.39167,636
19.40000,630
19.40833,625
19.41667,619
19.42500,614
19.43333,609
19.44167,603
19.45000,598
19.45833,593
19.46667,588
19.47500,582
19.48333,577
19.49167,573
19.50000,568
19.50833,562
19.51667,557
19.52500,552
19.53333,547
19.54167,542
19.55000,538
19.55833,533
19.56667,529
19.57500,524
19.58333,520
19.59167,516
19.60000,512
19.60833,508
19.61667,504
19.62500,500
19.63333,496
19.64167,493
19.65000,490
19.65833,487
19.66667,484
19.67500,481
19.68333,478
19.69167,476
19.70000,474
19.70833,472
19.71667,470
19.72500,469
19.73333,468
19.74167,468
19.75000,467
19.75833,467
19.76667,468
19.77500,468
19.78333,469
19.79167,470
19.80000,473
19.80833,475
19.81667,478
19.82500,481
19.83333,486
19.84167,490
19.85000,495
19.85833,500
19.86667,506
19.87500,513
19.88333,520
19.89167,528
19.90000,537
19.90833,546
19.91667,556
19.92500,566
19.93333,577
19.94167,589
19.95000,601
19.95833,613
19.96667,627
19.97500,640
19.98333,654
19.99167,669
20.00000,683
20.00833,698
20.01667,713
20.02500,727
20.03333,742
20.04167,758
20.05000,773
20.05833,789
20.06667,804
20.07500,818
20.08333,833
20.09167,848
20.10000,863
20.10833,877
20.11667,891
20.12500,905
20.13333,919
20.14167,932
20.15000,944
20.15833,956
20.16667,967
20.17500,978
20.18333,988
20.19167,998
20.20000,1007
20.20833,1016
20.21667,1023
20.22500,1030
20.23333,1037
20.24167,1043
20.25000,1048
20.25833,1053
20.26667,1057
20.27500,1060
20.28333,1062
20.29167,1064
20.30000,1065
20.30833,1066
20.31667,1065
20.32500,1064
20.33333,1063
20.34167,1060
20.35000,1058
20.35833,1055
20.36667,1052
20.37500,1048
20.38333,1043
20.39167,1039
20.40000,1034
20.40833,1028
20.41667,1022
20.42500,1016
20.43333,1009
20.44167,1003
20.45000,997
20.45833,990
20.46667,984
20.47500,978
20.48333,972
20.49167,967
20.50000,962
20.50833,958
20.51667,954
20.52500,951
20.53333,948
20.54167,946
20.55000,945
20.55833,944
20.56667,945
20.57500,947
20.58333,949
20.59167,953
20.60000,958
20.60833,963
20.61667,970
20.62500,977
20.63333,985
20.64167,995
20.65000,1005
20.65833,1016
20.66667,1028
20.67500,1041
20.68333,1054
20.69167,1068
20.70000,1083
20.70833,1098
20.71667,1113
20.72500,1128
20.73333,1144
20.74167,1160
20.75000,1177
20.75833,1193
20.76667,1209
20.77500,1226
20.78333,1242
20.79167,1259
20.80000,1275
20.80833,1290
20.81667,1305
20.82500,1319
20.83333,1332
20.84167,1346
20.85000,1358
20.85833,1371
20.86667,1382
20.87500,1393
20.88333,1404
20.89167,1413
20.90000,1422
20.90833,1431
20.91667,1438
20.92500,1445
20.93333,1451
20.94167,1457
20.95000,1461
20.95833,1465
20.96667,1468
20.97500,1470
20.98333,1471
20.99167,1472
21.00000,1472
21.00833,1471
21.01667,1469
21.02500,1466
21.03333,1463
21.04167,1458
21.05000,1453
21.05833,1447
21.06667,1439
21.07500,1431
21.08333,1422
21.09167,1412
21.10000,1402
21.10833,1390
21.11667,1378
21.12500,1365
21.13333,1351
21.14167,1336
21.15000,1321
21.15833,1305
21.16667,1289
21.17500,1272
21.18333,1255
21.19167,1237
21.20000,1219
21.20833,1201
21.21667,1182
21.22500,1163
21.23333,1144
21.24167,1125
21.25000,1106
21.25833,1086
21.26667,1067
21.27500,1049
21.28333,1030
21.29167,1011
21.30000,993
21.30833,975
21.31667,958
21.32500,941
21.33333,924
21.34167,908
21.35000,893
21.35833,879
21.36667,865
21.37500,852
21.38333,839
21.39167,827
21.40000,816
21.40833,806
21.41667,797
21.42500,789
21.43333,782
21.44167,776
21.45000,771
21.45833,767
21.46667,763
21.47500,761
21.48333,759
21.49167,758
21.50000,758
21.50833,759
21.51667,762
21.52500,764
21.53333,768
21.54167,773
21.55000,778
21.55833,784
21.56667,791
21.57500,799
21.58333,807
21.59167,816
21.60000,825
21.60833,835
21.61667,845
21.62500,855
21.63333,864
21.64167,874
21.65000,885
21.65833,895
21.66667,906
21.67500,916
21.68333,927
21.69167,937
21.70000,947
21.70833,956
21.71667,965
21.72500,974
21.73333,982
21.74167,990
21.75000,997
21.75833,1004
21.76667,1011
21.77500,1017
21.78333,1022
21.79167,1027
21.80000,1032
21.80833,1036
21.81667,1039
21.82500,1042
21.83333,1045
21.84167,1047
21.85000,1048
21.85833,1049
21.86667,1050
21.87500,1050
21.88333,1049
21.89167,1048
21.90000,1047
21.90833,1044
21.91667,1042
21.92500,1039
21.93333,1035
21.94167,1031
21.95000,1026
21.95833,1021
21.96667,1015
21.97500,1009
21.98333,1001
21.99167,994
22.00000,985
22.00833,977
22.01667,967
22.02500,958
22.03333,947
22.04167,936
22.05000,924
22.05833,912
22.06667,900
22.07500,887
22.08333,873
22.09167,860
22.10000,846
22.10833,832
22.11667,817
22.12500,802
22.13333,787
22.14167,772
22.15000,756
22.15833,741
22.16667,725
22.17500,710
22.18333,694
22.19167,678
22.20000,663
22.20833,648
22.21667,633
22.22500,618
22.23333,603
22.24167,588
22.25000,573
22.25833,559
22.26667,546
22.27500,533
22.28333,520
22.29167,508
22.30000,496
22.30833,485
22.31667,474
22.32500,463
22.33333,453
22.34167,443
22.35000,434
22.35833,426
22.36667,418
22.37500,410
22.38333,403
22.39167,396
22.40000,390
22.40833,383
22.41667,377
22.42500,372
22.43333,367
22.44167,362
22.45000,358
22.45833,354
22.46667,350
22.47500,347
22.48333,344
22.49167,341
22.50000,338
22.50833,336
22.51667,334
22.52500,332
22.53333,331
22.54167,330
22.55000,330
22.55833,329
22.56667,328
22.57500,327
22.58333,327
22.59167,328
22.60000,328
22.60833,329
22.61667,330
22.62500,331
22.63333,332
22.64167,333
22.65000,334
22.65833,337
22.66667,339
22.67500,342
22.68333,345
22.69167,347
22.70000,350
22.70833,353
22.71667,356
22.72500,359
22.73333,363
22.74167,367
22.75000,371
22.75833,375
22.76667,380
22.77500,385
22.78333,389
22.79167,394
22.80000,399
22.80833,404
22.81667,409
22.82500,414
22.83333,420
22.84167,425
22.85000,431
22.85833,436
22.86667,442
22.87500,447
22.88333,453
22.89167,458
22.90000,463
22.90833,469
22.91667,474
22.92500,478
22.93333,483
22.94167,488
22.95000,493
22.95833,498
22.96667,503
22.97500,508
22.98333,512
22.99167,517
23.00000,520
23.00833,524
23.01667,528
23.02500,532
23.03333,535
23.04167,539
23.05000,542
23.05833,545
23.06667,548
23.07500,551
23.08333,553
23.09167,555
23.10000,558
23.10833,560
23.11667,561
23.12500,563
23.13333,565
23.14167,566
23.15000,567
23.15833,568
23.16667,568
23.17500,568
23.18333,568
23.19167,567
23.20000,566
23.20833,565
23.21667,564
23.22500,562
23.23333,561
23.24167,559
23.25000,557
23.25833,555
23.26667,553
23.27500,550
23.28333,548
23.29167,545
23.30000,541
23.30833,538
23.31667,535
23.32500,532
23.33333,529
23.34167,526
23.35000,523
23.35833,519
23.36667,515
23.37500,511
23.38333,507
23.39167,504
23.40000,500
23.40833,496
23.41667,492
23.42500,489
23.43333,485
23.44167,482
23.45000,478
23.45833,475
23.46667,471
23.47500,467
23.48333,464
23.49167,461
23.50000,458
23.50833,455
23.51667,452
23.52500,449
23.53333,446
23.54167,443
23.55000,441
23.55833,438
23.56667,436
23.57500,433
23.58333,431
23.59167,430
23.60000,428
23.60833,426
23.61667,424
23.62500,423
23.63333,421
23.64167,419
23.65000,418
23.65833,416
23.66667,415
23.67500,413
23.68333,412
23.69167,411
23.70000,409
23.70833,408
23.71667,407
23.72500,406
23.73333,405
23.74167,403
23.75000,402
23.75833,401
23.76667,400
23.77500,399
23.78333,398
23.79167,397
23.80000,396
23.80833,395
23.81667,394
23.82500,393
23.83333,392
23.84167,391
23.85000,390
23.85833,389
23.86667,388
23.87500,387
23.88333,386
23.89167,385
23.90000,384
23.90833,383
23.91667,382
23.92500,381
23.93333,380
23.94167,378
23.95000,377
23.95833,376
23.96667,375
23.97500,374
23.98333,373
23.99167,372
24.00000,370
24.00833,369
24.01667,368
24.02500,367
24.03333,365
24.04167,364
24.05000,363
24.05833,362
24.06667,361
24.07500,360
24.08333,359
24.09167,358
24.10000,356
24.10833,355
24.11667,354
24.12500,353
24.13333,352
24.14167,352
24.15000,351
24.15833,350
24.16667,349
24.17500,348
24.18333,347
24.19167,346
24.20000,345
24.20833,344
24.21667,343
24.22500,343
24.23333,342
24.24167,342
24.25000,342
24.25833,342
24.26667,341
24.27500,340
24.28333,339
24.29167,339
24.30000,339
24.30833,340
24.31667,340
24.32500,341
24.33333,342
24.34167,343
24.35000,345
24.35833,347
24.36667,350
24.37500,353
24.38333,356
24.39167,360
24.40000,364
24.40833,369
24.41667,375
24.42500,383
24.43333,390
24.44167,399
24.45000,409
24.45833,420
24.46667,432
24.47500,445
24.48333,461
24.49167,478
24.50000,497
24.50833,517
24.51667,540
24.52500,564
24.53333,591
24.54167,620
24.55000,650
24.55833,683
24.56667,719
24.57500,757
24.58333,798
24.59167,841
24.60000,887
24.60833,936
24.61667,986
24.62500,1040
24.63333,1097
24.64167,1156
24.65000,1218
24.65833,1282
24.66667,1348
24.67500,1416
24.68333,1486
24.69167,1558
24.70000,1633
24.70833,1708
24.71667,1786
24.72500,1864
24.73333,1944
24.74167,2024
24.75000,2105
24.75833,2186
24.76667,2268
24.77500,2350
24.78333,2431
24.79167,2512
24.80000,2593
24.80833,2673
24.81667,2751
24.82500,2828
24.83333,2905
24.84167,2980
24.85000,3053
24.85833,3125
24.86667,3194
24.87500,3262
24.88333,3328
24.89167,3392
24.90000,3454
24.90833,3513
24.91667,3570
24.92500,3625
24.93333,3678
24.94167,3727
24.95000,3774
24.95833,3819
24.96667,3862
24.97500,3902
24.98333,3939
24.99167,3974
25.00000,4006
25.00833,4036
25.01667,4063
25.02500,4087
25.03333,4109
25.04167,4128
25.05000,4144
25.05833,4158
25.06667,4168
25.07500,4176
25.08333,4181
25.09167,4183
25.10000,4182
25.10833,4178
25.11667,4171
25.12500,4161
25.13333,4148
25.14167,4132
25.15000,4112
25.15833,4089
25.16667,4063
25.17500,4034
25.18333,4001
25.19167,3966
25.20000,3927
25.20833,3886
25.21667,3841
25.22500,3793
25.23333,3743
25.24167,3689
25.25000,3633
25.25833,3575
25.26667,3514
25.27500,3451
25.28333,3386
25.29167,3318
25.30000,3249
25.30833,3179
25.31667,3107
25.32500,3035
25.33333,2961
25.34167,2886
25.35000,2810
25.35833,2734
25.36667,2657
25.37500,2581
25.38333,2504
25.39167,2428
25.40000,2352
25.40833,2277
25.41667,2203
25.42500,2129
25.43333,2057
25.44167,1986
25.45000,1916
25.45833,1847
25.46667,1780
25.47500,1715
25.48333,1651
25.49167,1588
25.50000,1528
25.50833,1469
25.51667,1412
25.52500,1358
25.53333,1305
25.54167,1254
25.55000,1205
25.55833,1158
25.56667,1113
25.57500,1070
25.58333,1029
25.59167,990
25.60000,952
25.60833,916
25.61667,882
25.62500,849
25.63333,819
25.64167,789
25.65000,762
25.65833,736
25.66667,711
25.67500,686
25.68333,664
25.69167,643
25.70000,623
25.70833,604
25.71667,587
25.72500,570
25.73333,554
25.74167,539
25.75000,525
25.75833,512
25.76667,499
25.77500,487
25.78333,476
25.79167,465
25.80000,455
25.80833,445
25.81667,436
25.82500,427
25.83333,418
25.84167,409
25.85000,401
25.85833,394
25.86667,387
25.87500,380
25.88333,373
25.89167,366
25.90000,360
25.90833,353
25.91667,347
25.92500,342
25.93333,336
25.94167,330
25.95000,324
25.95833,318
25.96667,313
25.97500,308
25.98333,303
25.99167,298
26.00000,293
26.00833,288
26.01667,283
26.02500,278
26.03333,273
26.04167,269
26.05000,264
26.05833,260
26.06667,255
26.07500,251
26.08333,246
26.09167,242
26.10000,238
26.10833,234
26.11667,230
26.12500,226
26.13333,222
26.14167,218
26.15000,215
26.15833,211
26.16667,207
26.17500,204
26.18333,200
26.19167,197
26.20000,194
26.20833,191
26.21667,189
26.22500,186
26.23333,184
26.24167,181
26.25000,179
26.25833,176
26.26667,174
26.27500,172
26.28333,170
26.29167,168
26.30000,167
26.30833,165
26.31667,163
26.32500,162
26.33333,160
26.34167,158
26.35000,156
26.35833,155
26.36667,154
26.37500,153
26.38333,152
26.39167,151
26.40000,150
26.40833,150
26.41667,149
26.42500,149
26.43333,148
26.44167,148
26.45000,147
26.45833,147
26.46667,146
26.47500,146
26.48333,145
26.49167,145
26.50000,145
26.50833,145
26.51667,145
26.52500,145
26.53333,145
26.54167,145
26.55000,145
26.55833,145
26.56667,145
26.57500,145
26.58333,145
26.59167,145
26.60000,145
26.60833,145
26.61667,145
26.62500,145
26.63333,145
26.64167,145
26.65000,145
26.65833,146
26.66667,146
26.67500,146
26.68333,146
26.69167,147
26.70000,147
26.70833,147
26.71667,148
26.72500,148
26.73333,148
26.74167,149
26.75000,148
26.75833,148
26.76667,148
26.77500,149
26.78333,149
26.79167,149
26.80000,149
26.80833,150
26.81667,150
26.82500,150
26.83333,150
26.84167,150
26.85000,150
26.85833,150
26.86667,151
26.87500,151
26.88333,151
26.89167,151
26.90000,151
26.90833,151
26.91667,152
26.92500,152
26.93333,153
26.94167,153
26.95000,154
26.95833,154
26.96667,154
26.97500,154
26.98333,154
26.99167,154
27.00000,154
27.00833,154
27.01667,155
27.02500,155
27.03333,155
27.04167,155
27.05000,156
27.05833,156
27.06667,156
27.07500,156
27.08333,156
27.09167,156
27.10000,156
27.10833,156
27.11667,157
27.12500,157
27.13333,157
27.14167,157
27.15000,157
27.15833,157
27.16667,158
27.17500,158
27.18333,158
27.19167,158
27.20000,158
27.20833,158
27.21667,158
27.22500,158
27.23333,158
27.24167,158
27.25000,158
27.25833,158
27.26667,158
27.27500,158
27.28333,159
27.29167,159
27.30000,159
27.30833,159
27.31667,158
27.32500,158
27.33333,158
27.34167,158
27.35000,158
27.35833,158
27.36667,158
27.37500,157
27.38333,157
27.39167,156
27.40000,156
27.40833,156
27.41667,155
27.42500,155
27.43333,155
27.44167,155
27.45000,155
27.45833,155
27.46667,155
27.47500,155
27.48333,154
27.49167,154
27.50000,154
27.50833,154
27.51667,153
27.52500,153
27.53333,153
27.54167,153
27.55000,152
27.55833,152
27.56667,151
27.57500,150
27.58333,149
27.59167,149
27.60000,148
27.60833,148
27.61667,147
27.62500,147
27.63333,146
27.64167,146
27.65000,146
27.65833,145
27.66667,144
27.67500,144
27.68333,143
27.69167,143
27.70000,142
27.70833,142
27.71667,142
27.72500,141
27.73333,141
27.74167,140
27.75000,139
27.75833,138
27.76667,138
27.77500,137
27.78333,137
27.79167,136
27.80000,135
27.80833,135
27.81667,134
27.82500,134
27.83333,133
27.84167,132
27.85000,131
27.85833,131
27.86667,131
27.87500,131
27.88333,130
27.89167,130
27.90000,129
27.90833,129
27.91667,129
27.92500,128
27.93333,128
27.94167,127
27.95000,127
27.95833,127
27.96667,127
27.97500,126
27.98333,126
27.99167,126
28.00000,126
28.00833,126
28.01667,126
28.02500,125
28.03333,125
28.04167,126
28.05000,126
28.05833,126
28.06667,126
28.07500,126
28.08333,127
28.09167,127
28.10000,127
28.10833,128
28.11667,128
28.12500,128
28.13333,128
28.14167,128
28.15000,128
28.15833,128
28.16667,128
28.17500,128
28.18333,128
28.19167,128
28.20000,127
28.20833,127
28.21667,127
28.22500,128
28.23333,128
28.24167,129
28.25000,129
28.25833,130
28.26667,130
28.27500,131
28.28333,131
28.29167,131
28.30000,132
28.30833,132
28.31667,133
28.32500,134
28.33333,135
28.34167,136
28.35000,137
28.35833,138
28.36667,140
28.37500,142
28.38333,144
28.39167,146
28.40000,148
28.40833,151
28.41667,154
28.42500,158
28.43333,162
28.44167,167
28.45000,172
28.45833,177
28.46667,183
28.47500,190
28.48333,197
28.49167,205
28.50000,214
28.50833,224
28.51667,235
28.52500,247
28.53333,259
28.54167,273
28.55000,287
28.55833,303
28.56667,320
28.57500,337
28.58333,357
28.59167,377
28.60000,399
28.60833,422
28.61667,447
28.62500,473
28.63333,501
28.64167,530
28.65000,560
28.65833,592
28.66667,626
28.67500,661
28.68333,699
28.69167,737
28.70000,777
28.70833,819
28.71667,862
28.72500,907
28.73333,953
28.74167,1000
28.75000,1049
28.75833,1099
28.76667,1149
28.77500,1201
28.78333,1254
28.79167,1309
28.80000,1363
28.80833,1419
28.81667,1475
28.82500,1532
28.83333,1589
28.84167,1647
28.85000,1704
28.85833,1762
28.86667,1819
28.87500,1877
28.88333,1933
28.89167,1990
28.90000,2046
28.90833,2101
28.91667,2156
28.92500,2210
28.93333,2264
28.94167,2315
28.95000,2366
28.95833,2416
28.96667,2464
28.97500,2510
28.98333,2555
28.99167,2599
29.00000,2641
29.00833,2681
29.01667,2720
29.02500,2758
29.03333,2794
29.04167,2828
29.05000,2860
29.05833,2890
29.06667,2919
29.07500,2945
29.08333,2970
29.09167,2993
29.10000,3014
29.10833,3034
29.11667,3052
29.12500,3069
29.13333,3084
29.14167,3097
29.15000,3109
29.15833,3120
29.16667,3129
29.17500,3136
29.18333,3141
29.19167,3145
29.20000,3147
29.20833,3148
29.21667,3147
29.22500,3145
29.23333,3141
29.24167,3136
29.25000,3129
29.25833,3121
29.26667,3111
29.27500,3100
29.28333,3087
29.29167,3073
29.30000,3057
29.30833,3040
29.31667,3021
29.32500,3000
29.33333,2979
29.34167,2955
29.35000,2931
29.35833,2904
29.36667,2876
29.37500,2846
29.38333,2815
29.39167,2783
29.40000,2749
29.40833,2713
29.41667,2676
29.42500,2638
29.43333,2599
29.44167,2558
29.45000,2516
29.45833,2473
29.46667,2429
29.47500,2384
29.48333,2338
29.49167,2291
29.50000,2244
29.50833,2195
29.51667,2146
29.52500,2097
29.53333,2047
29.54167,1997
29.55000,1946
29.55833,1895
29.56667,1844
29.57500,1793
29.58333,1742
29.59167,1692
29.60000,1641
29.60833,1591
29.61667,1541
29.62500,1491
29.63333,1442
29.64167,1394
29.65000,1346
29.65833,1298
29.66667,1252
29.67500,1206
29.68333,1162
29.69167,1118
29.70000,1075
29.70833,1033
29.71667,993
29.72500,953
29.73333,914
29.74167,876
29.75000,840
29.75833,805
29.76667,771
29.77500,739
29.78333,707
29.79167,677
29.80000,648
29.80833,620
29.81667,593
29.82500,567
29.83333,543
29.84167,519
29.85000,495
29.85833,473
29.86667,452
29.87500,432
29.88333,413
29.89167,395
29.90000,378
29.90833,362
29.91667,346
29.92500,332
29.93333,318
29.94167,305
29.95000,293
29.95833,281
29.96667,270
29.97500,259
29.98333,249
29.99167,240
30.00000,231
30.00833,223
30.01667,215
30.02500,208
30.03333,201
30.04167,195
30.05000,189
30.05833,183
30.06667,178
30.07500,173
30.08333,168
30.09167,164
30.10000,159
30.10833,155
30.11667,150
30.12500,146
30.13333,143
30.14167,140
30.15000,137
30.15833,134
30.16667,131
30.17500,129
30.18333,126
30.19167,123
30.20000,120
30.20833,118
30.21667,115
30.22500,113
30.23333,111
30.24167,110
30.25000,108
30.25833,106
30.26667,105
30.27500,103
30.28333,101
30.29167,100
30.30000,98
30.30833,97
30.31667,95
30.32500,94
30.33333,92
30.34167,91
30.35000,90
30.35833,89
30.36667,88
30.37500,87
30.38333,86
30.39167,85
30.40000,84
30.40833,84
30.41667,83
30.42500,83
30.43333,82
30.44167,82
30.45000,82
30.45833,82
30.46667,81
30.47500,81
30.48333,81
30.49167,81
30.50000,81
30.50833,81
30.51667,81
30.52500,80
30.53333,81
30.54167,81
30.55000,82
30.55833,83
30.56667,84
30.57500,85
30.58333,86
30.59167,86
30.60000,87
30.60833,88
30.61667,90
30.62500,91
30.63333,92
30.64167,93
30.65000,95
30.65833,96
30.66667,98
30.67500,100
30.68333,102
30.69167,104
30.70000,106
30.70833,108
30.71667,110
30.72500,111
30.73333,113
30.74167,115
30.75000,117
30.75833,119
30.76667,121
30.77500,123
30.78333,125
30.79167,127
30.80000,130
30.80833,132
30.81667,134
30.82500,137
30.83333,139
30.84167,141
30.85000,144
30.85833,146
30.86667,148
30.87500,150
30.88333,152
30.89167,154
30.90000,157
30.90833,159
30.91667,162
30.92500,164
30.93333,167
30.94167,169
30.95000,171
30.95833,173
30.96667,175
30.97500,177
30.98333,179
30.99167,181
31.00000,182
31.00833,184
31.01667,185
31.02500,187
31.03333,189
31.04167,190
31.05000,191
31.05833,192
31.06667,194
31.07500,195
31.08333,196
31.09167,197
31.10000,199
31.10833,200
31.11667,201
31.12500,202
31.13333,203
31.14167,204
31.15000,205
31.15833,206
31.16667,206
31.17500,207
31.18333,207
31.19167,207
31.20000,208
31.20833,208
31.21667,208
31.22500,208
31.23333,208
31.24167,208
31.25000,207
31.25833,206
31.26667,206
31.27500,206
31.28333,205
31.29167,205
31.30000,204
31.30833,204
31.31667,203
31.32500,203
31.33333,202
31.34167,202
31.35000,202
31.35833,201
31.36667,200
31.37500,199
31.38333,197
31.39167,196
31.40000,195
31.40833,194
31.41667,193
31.42500,191
31.43333,190
31.44167,189
31.45000,188
31.45833,186
31.46667,185
31.47500,184
31.48333,183
31.49167,182
31.50000,181
31.50833,180
31.51667,179
31.52500,179
31.53333,178
31.54167,177
31.55000,176
31.55833,176
31.56667,175
31.57500,175
31.58333,175
31.59167,174
31.60000,174
31.60833,174
31.61667,173
31.62500,173
31.63333,173
31.64167,174
31.65000,175
31.65833,176
31.66667,177
31.67500,178
31.68333,179
31.69167,180
31.70000,182
31.70833,183
31.71667,186
31.72500,188
31.73333,190
31.74167,192
31.75000,195
31.75833,198
31.76667,201
31.77500,204
31.78333,207
31.79167,210
31.80000,214
31.80833,217
31.81667,221
31.82500,225
31.83333,230
31.84167,234
31.85000,239
31.85833,243
31.86667,248
31.87500,253
31.88333,258
31.89167,263
31.90000,268
31.90833,273
31.91667,279
31.92500,285
31.93333,290
31.94167,295
31.95000,300
31.95833,306
31.96667,311
31.97500,317
31.98333,322
31.99167,328
32.00000,333
32.00833,339
32.01667,344
32.02500,350
32.03333,356
32.04167,361
32.05000,366
32.05833,370
32.06667,375
32.07500,380
32.08333,384
32.09167,389
32.10000,394
32.10833,399
32.11667,404
32.12500,409
32.13333,413
32.14167,418
32.15000,422
32.15833,426
32.16667,430
32.17500,434
32.18333,437
32.19167,441
32.20000,444
32.20833,447
32.21667,450
32.22500,454
32.23333,457
32.24167,459
32.25000,462
32.25833,464
32.26667,467
32.27500,469
32.28333,471
32.29167,473
32.30000,475
32.30833,477
32.31667,479
32.32500,481
32.33333,482
32.34167,484
32.35000,485
32.35833,486
32.36667,487
32.37500,487
32.38333,488
32.39167,488
32.40000,488
32.40833,488
32.41667,488
32.42500,488
32.43333,488
32.44167,488
32.45000,487
32.45833,485
32.46667,484
32.47500,483
32.48333,482
32.49167,480
32.50000,479
32.50833,477
32.51667,475
32.52500,473
32.53333,471
32.54167,468
32.55000,466
32.55833,463
32.56667,460
32.57500,458
32.58333,455
32.59167,452
32.60000,449
32.60833,446
32.61667,443
32.62500,440
32.63333,436
32.64167,433
32.65000,430
32.65833,426
32.66667,423
32.67500,419
32.68333,416
32.69167,412
32.70000,408
32.70833,405
32.71667,402
32.72500,399
32.73333,396
32.74167,392
32.75000,389
32.75833,386
32.76667,383
32.77500,381
32.78333,378
32.79167,375
32.80000,372
32.80833,370
32.81667,368
32.82500,365
32.83333,363
32.84167,361
32.85000,358
32.85833,356
32.86667,354
32.87500,352
32.88333,350
32.89167,348
32.90000,346
32.90833,345
32.91667,343
32.92500,342
32.93333,340
32.94167,339
32.95000,338
32.95833,337
32.96667,336
32.97500,335
32.98333,334
32.99167,334
33.00000,333
33.00833,332
33.01667,331
33.02500,331
33.03333,330
33.04167,329
33.05000,328
33.05833,328
33.06667,327
33.07500,327
33.08333,327
33.09167,326
33.10000,326
33.10833,325
33.11667,325
33.12500,325
33.13333,324
33.14167,324
33.15000,324
33.15833,323
33.16667,322
33.17500,321
33.18333,320
33.19167,320
33.20000,319
33.20833,318
33.21667,317
33.22500,316
33.23333,315
33.24167,314
33.25000,314
33.25833,313
33.26667,312
33.27500,311
33.28333,309
33.29167,308
33.30000,306
33.30833,305
33.31667,304
33.32500,303
33.33333,301
33.34167,300
33.35000,298
33.35833,296
33.36667,294
33.37500,293
33.38333,291
33.39167,289
33.40000,286
33.40833,284
33.41667,282
33.42500,280
33.43333,278
33.44167,275
33.45000,273
33.45833,271
33.46667,268
33.47500,266
33.48333,263
33.49167,260
33.50000,257
33.50833,255
33.51667,252
33.52500,249
33.53333,247
33.54167,244
33.55000,241
33.55833,238
33.56667,235
33.57500,232
33.58333,230
33.59167,227
33.60000,225
33.60833,222
33.61667,219
33.62500,216
33.63333,213
33.64167,210
33.65000,207
33.65833,204
33.66667,201
33.67500,198
33.68333,195
33.69167,192
33.70000,189
33.70833,186
33.71667,183
33.72500,180
33.73333,177
33.74167,174
33.75000,171
33.75833,168
33.76667,165
33.77500,162
33.78333,159
33.79167,156
33.80000,153
33.80833,151
33.81667,149
33.82500,146
33.83333,143
33.84167,141
33.85000,138
33.85833,135
33.86667,132
33.87500,129
33.88333,126
33.89167,124
33.90000,122
33.90833,119
33.91667,117
33.92500,115
33.93333,113
33.94167,110
33.95000,108
33.95833,106
33.96667,104
33.97500,102
33.98333,100
33.99167,98
34.00000,96
34.00833,94
34.01667,92
34.02500,91
34.03333,89
34.04167,88
34.05000,86
34.05833,85
34.06667,84
34.07500,82
34.08333,81
34.09167,79
34.10000,78
34.10833,76
34.11667,75
34.12500,74
34.13333,73
34.14167,72
34.15000,71
34.15833,70
34.16667,69
34.17500,67
34.18333,66
34.19167,65
34.20000,64
34.20833,63
34.21667,62
34.22500,61
34.23333,61
34.24167,60
34.25000,59
34.25833,58
34.26667,57
34.27500,57
34.28333,56
34.29167,55
34.30000,54
34.30833,53
34.31667,52
34.32500,51
34.33333,51
34.34167,50
34.35000,50
34.35833,49
34.36667,49
34.37500,49
34.38333,48
34.39167,48
34.40000,47
34.40833,47
34.41667,46
34.42500,45
34.43333,45
34.44167,44
34.45000,44
34.45833,44
34.46667,43
34.47500,43
34.48333,43
34.49167,42
34.50000,42
34.50833,42
34.51667,41
34.52500,41
34.53333,40
34.54167,40
34.55000,39
34.55833,39
34.56667,39
34.57500,38
34.58333,38
34.59167,38
34.60000,38
34.60833,37
34.61667,37
34.62500,37
34.63333,36
34.64167,36
34.65000,36
34.65833,35
34.66667,35
34.67500,35
34.68333,34
34.69167,34
34.70000,33
34.70833,33
34.71667,33
34.72500,32
34.73333,32
34.74167,31
34.75000,31
34.75833,31
34.76667,31
34.77500,32
34.78333,32
34.79167,31
34.80000,31
34.80833,30
34.81667,30
34.82500,30
34.83333,29
34.84167,29
34.85000,29
34.85833,29
34.86667,29
34.87500,29
34.88333,29
34.89167,29
34.90000,29
34.90833,29
34.91667,28
34.92500,28
34.93333,28
34.94167,28
34.95000,28
34.95833,28
34.96667,28
34.97500,28
34.98333,28
34.99167,28
35.00000,27
35.00833,27
35.01667,27
35.02500,27
35.03333,27
35.04167,28
35.05000,28
35.05833,28
35.06667,28
35.07500,28
35.08333,27
35.09167,27
35.10000,27
35.10833,27
35.11667,27
35.12500,27
35.13333,27
35.14167,27
35.15000,27
35.15833,27
35.16667,27
35.17500,27
35.18333,26
35.19167,26
35.20000,26
35.20833,26
35.21667,27
35.22500,27
35.23333,27
35.24167,27
35.25000,27
35.25833,27
35.26667,27
35.27500,27
35.28333,27
35.29167,28
35.30000,28
35.30833,28
35.31667,28
35.32500,29
35.33333,29
35.34167,29
35.35000,29
35.35833,29
35.36667,29
35.37500,30
35.38333,30
35.39167,30
35.40000,30
35.40833,30
35.41667,30
35.42500,30
35.43333,30
35.44167,30
35.45000,30
35.45833,30
35.46667,31
35.47500,31
35.48333,31
35.49167,31
35.50000,31
35.50833,30
35.51667,31
35.52500,31
35.53333,31
35.54167,31
35.55000,31
35.55833,32
35.56667,32
35.57500,32
35.58333,32
35.59167,32
35.60000,33
35.60833,33
35.61667,33
35.62500,33
35.63333,33
35.64167,33
35.65000,33
35.65833,33
35.66667,34
35.67500,34
35.68333,34
35.69167,34
35.70000,34
35.70833,34
35.71667,34
35.72500,34
35.73333,35
35.74167,35
35.75000,35
35.75833,35
35.76667,34
35.77500,34
35.78333,34
35.79167,34
35.80000,35
35.80833,35
35.81667,35
35.82500,36
35.83333,36
35.84167,37
35.85000,37
35.85833,36
35.86667,36
35.87500,36
35.88333,37
35.89167,37
35.90000,37
35.90833,37
35.91667,37
35.92500,37
35.93333,37
35.94167,37
35.95000,38
35.95833,38
35.96667,38
35.97500,38
35.98333,38
35.99167,39
36.00000,40
36.00833,40
36.01667,41
36.02500,41
36.03333,41
36.04167,42
36.05000,42
36.05833,42
36.06667,42
36.07500,43
36.08333,43
36.09167,43
36.10000,43
36.10833,43
36.11667,43
36.12500,43
36.13333,43
36.14167,44
36.15000,44
36.15833,44
36.16667,44
36.17500,45
36.18333,45
36.19167,45
36.20000,45
36.20833,45
36.21667,46
36.22500,46
36.23333,46
36.24167,46
36.25000,46
36.25833,47
36.26667,47
36.27500,48
36.28333,48
36.29167,49
36.30000,49
36.30833,49
36.31667,49
36.32500,50
36.33333,50
36.34167,51
36.35000,51
36.35833,51
36.36667,51
36.37500,52
36.38333,52
36.39167,52
36.40000,52
36.40833,52
36.41667,52
36.42500,53
36.43333,53
36.44167,53
36.45000,54
36.45833,55
36.46667,55
36.47500,55
36.48333,56
36.49167,56
36.50000,57
36.50833,57
36.51667,57
36.52500,58
36.53333,58
36.54167,58
36.55000,59
36.55833,59
36.56667,59
36.57500,59
36.58333,59
36.59167,60
36.60000,60
36.60833,60
36.61667,61
36.62500,62
36.63333,62
36.64167,62
36.65000,63
36.65833,64
36.66667,64
36.67500,65
36.68333,65
36.69167,66
36.70000,66
36.70833,67
36.71667,68
36.72500,68
36.73333,68
36.74167,69
36.75000,69
36.75833,69
36.76667,70
36.77500,70
36.78333,71
36.79167,71
36.80000,71
36.80833,72
36.81667,72
36.82500,73
36.83333,74
36.84167,74
36.85000,75
36.85833,76
36.86667,76
36.87500,77
36.88333,77
36.89167,78
36.90000,79
36.90833,79
36.91667,80
36.92500,81
36.93333,82
36.94167,82
36.95000,83
36.95833,83
36.96667,84
36.97500,85
36.98333,85
36.99167,86
37.00000,86
37.00833,87
37.01667,87
37.02500,88
37.03333,89
37.04167,89
37.05000,90
37.05833,91
37.06667,91
37.07500,92
37.08333,93
37.09167,94
37.10000,95
37.10833,95
37.11667,96
37.12500,96
37.13333,97
37.14167,98
37.15000,99
37.15833,100
37.16667,100
37.17500,101
37.18333,101
37.19167,102
37.20000,102
37.20833,103
37.21667,103
37.22500,104
37.23333,104
37.24167,105
37.25000,106
37.25833,107
37.26667,107
37.27500,108
37.28333,109
37.29167,110
37.30000,110
37.30833,111
37.31667,112
37.32500,113
37.33333,114
37.34167,115
37.35000,116
37.35833,116
37.36667,116
37.37500,117
37.38333,118
37.39167,119
37.40000,120
37.40833,121
37.41667,122
37.42500,122
37.43333,123
37.44167,124
37.45000,125
37.45833,126
37.46667,127
37.47500,128
37.48333,128
37.49167,129
37.50000,129
37.50833,130
37.51667,130
37.52500,131
37.53333,131
37.54167,131
37.55000,132
37.55833,133
37.56667,133
37.57500,133
37.58333,134
37.59167,134
37.60000,135
37.60833,135
37.61667,136
37.62500,136
37.63333,136
37.64167,136
37.65000,136
37.65833,137
37.66667,136
37.67500,136
37.68333,136
37.69167,136
37.70000,136
37.70833,136
37.71667,135
37.72500,135
37.73333,135
37.74167,135
37.75000,135
37.75833,135
37.76667,136
37.77500,136
37.78333,136
37.79167,135
37.80000,135
37.80833,135
37.81667,134
37.82500,134
37.83333,133
37.84167,133
37.85000,132
37.85833,132
37.86667,131
37.87500,131
37.88333,130
37.89167,130
37.90000,129
37.90833,129
37.91667,128
37.92500,127
37.93333,126
37.94167,126
37.95000,125
37.95833,124
37.96667,124
37.97500,123
37.98333,122
37.99167,121
38.00000,121
38.00833,120
38.01667,119
38.02500,118
38.03333,117
38.04167,115
38.05000,114
38.05833,113
38.06667,112
38.07500,111
38.08333,110
38.09167,109
38.10000,108
38.10833,106
38.11667,105
38.12500,104
38.13333,103
38.14167,102
38.15000,101
38.15833,100
38.16667,99
38.17500,98
38.18333,97
38.19167,96
38.20000,95
38.20833,94
38.21667,92
38.22500,91
38.23333,89
38.24167,88
38.25000,87
38.25833,86
38.26667,85
38.27500,84
38.28333,82
38.29167,81
38.30000,80
38.30833,78
38.31667,77
38.32500,76
38.33333,74
38.34167,73
38.35000,72
38.35833,70
38.36667,69
38.37500,68
38.38333,67
38.39167,66
38.40000,65
38.40833,63
38.41667,62
38.42500,61
38.43333,60
38.44167,59
38.45000,58
38.45833,56
38.46667,55
38.47500,54
38.48333,53
38.49167,52
38.50000,51
38.50833,49
38.51667,48
38.52500,47
38.53333,46
38.54167,44
38.55000,43
38.55833,42
38.56667,41
38.57500,41
38.58333,40
38.59167,39
38.60000,39
38.60833,38
38.61667,37
38.62500,36
38.63333,35
38.64167,34
38.65000,33
38.65833,32
38.66667,31
38.67500,31
38.68333,30
38.69167,29
38.70000,29
38.70833,28
38.71667,28
38.72500,28
38.73333,28
38.74167,27
38.75000,26
38.75833,26
38.76667,25
38.77500,24
38.78333,23
38.79167,22
38.80000,22
38.80833,21
38.81667,21
38.82500,20
38.83333,19
38.84167,19
38.85000,19
38.85833,19
38.86667,19
38.87500,18
38.88333,18
38.89167,18
38.90000,18
38.90833,18
38.91667,18
38.92500,17
38.93333,16
38.94167,16
38.95000,16
38.95833,16
38.96667,16
38.97500,15
38.98333,15
38.99167,15
39.00000,15
39.00833,15
39.01667,15
39.02500,15
39.03333,15
39.04167,15
39.05000,15
39.05833,15
39.06667,15
39.07500,15
39.08333,15
39.09167,15
39.10000,15
39.10833,14
39.11667,14
39.12500,15
39.13333,15
39.14167,15
39.15000,15
39.15833,15
39.16667,15
39.17500,15
39.18333,15
39.19167,16
39.20000,16
39.20833,15
39.21667,15
39.22500,16
39.23333,16
39.24167,16
39.25000,15
39.25833,15
39.26667,14
39.27500,14
39.28333,15
39.29167,15
39.30000,15
39.30833,15
39.31667,15
39.32500,15
39.33333,15
39.34167,16
39.35000,15
39.35833,15
39.36667,16
39.37500,16
39.38333,16
39.39167,16
39.40000,16
39.40833,16
39.41667,16
39.42500,16
39.43333,16
39.44167,16
39.45000,16
39.45833,16
39.46667,16
39.47500,16
39.48333,16
39.49167,16
39.50000,16
39.50833,16
39.51667,16
39.52500,17
39.53333,17
39.54167,16
39.55000,16
39.55833,16
39.56667,17
39.57500,17
39.58333,17
39.59167,17
39.60000,17
39.60833,17
39.61667,16
39.62500,16
39.63333,16
39.64167,16
39.65000,16
39.65833,16
39.66667,16
39.67500,16
39.68333,16
39.69167,17
39.70000,17
39.70833,16
39.71667,16
39.72500,16
39.73333,16
39.74167,16
39.75000,16
39.75833,16
39.76667,17
39.77500,17
39.78333,17
39.79167,17
39.80000,17
39.80833,17
39.81667,17
39.82500,17
39.83333,17
39.84167,17
39.85000,17
39.85833,17
39.86667,17
39.87500,17
39.88333,17
39.89167,18
39.90000,18
39.90833,18
39.91667,17
39.92500,17
39.93333,18
39.94167,17
39.95000,17
39.95833,17
39.96667,17
39.97500,17
39.98333,18
39.99167,18
40.00000,18
40.00833,18
40.01667,18
40.02500,18
40.03333,18
40.04167,18
40.05000,18
40.05833,18
40.06667,18
40.07500,18
40.08333,18
40.09167,18
40.10000,18
40.10833,17
40.11667,17
40.12500,17
40.13333,17
40.14167,18
40.15000,18
40.15833,18
40.16667,18
40.17500,18
40.18333,18
40.19167,19
40.20000,19
40.20833,19
40.21667,20
40.22500,20
40.23333,21
40.24167,21
40.25000,21
40.25833,21
40.26667,21
40.27500,21
40.28333,21
40.29167,21
40.30000,21
40.30833,21
40.31667,22
40.32500,22
40.33333,22
40.34167,22
40.35000,22
40.35833,22
40.36667,22
40.37500,22
40.38333,23
40.39167,23
40.40000,24
40.40833,24
40.41667,25
40.42500,25
40.43333,25
40.44167,26
40.45000,26
40.45833,26
40.46667,27
40.47500,27
40.48333,27
40.49167,27
40.50000,27
40.50833,28
40.51667,29
40.52500,29
40.53333,30
40.54167,30
40.55000,30
40.55833,30
40.56667,31
40.57500,31
40.58333,31
40.59167,31
40.60000,32
40.60833,32
40.61667,33
40.62500,33
40.63333,34
40.64167,35
40.65000,35
40.65833,36
40.66667,36
40.67500,37
40.68333,37
40.69167,37
40.70000,38
40.70833,38
40.71667,39
40.72500,39
40.73333,40
40.74167,41
40.75000,42
40.75833,42
40.76667,43
40.77500,44
40.78333,44
40.79167,45
40.80000,45
40.80833,46
40.81667,47
40.82500,48
40.83333,48
40.84167,49
40.85000,49
40.85833,50
40.86667,51
40.87500,52
40.88333,53
40.89167,54
40.90000,55
40.90833,55
40.91667,56
40.92500,57
40.93333,57
40.94167,58
40.95000,59
40.95833,60
40.96667,61
40.97500,62
40.98333,63
40.99167,64
41.00000,65
41.00833,65
41.01667,66
41.02500,67
41.03333,68
41.04167,69
41.05000,70
41.05833,71
41.06667,72
41.07500,73
41.08333,74
41.09167,75
41.10000,76
41.10833,77
41.11667,78
41.12500,79
41.13333,80
41.14167,81
41.15000,82
41.15833,84
41.16667,85
41.17500,86
41.18333,87
41.19167,88
41.20000,89
41.20833,90
41.21667,91
41.22500,93
41.23333,94
41.24167,95
41.25000,97
41.25833,98
41.26667,99
41.27500,101
41.28333,102
41.29167,103
41.30000,104
41.30833,106
41.31667,107
41.32500,108
41.33333,110
41.34167,111
41.35000,112
41.35833,113
41.36667,114
41.37500,116
41.38333,117
41.39167,119
41.40000,120
41.40833,122
41.41667,123
41.42500,124
41.43333,126
41.44167,127
41.45000,129
41.45833,130
41.46667,132
41.47500,132
41.48333,133
41.49167,134
41.50000,135
41.50833,137
41.51667,139
41.52500,140
41.53333,142
41.54167,143
41.55000,145
41.55833,146
41.56667,148
41.57500,149
41.58333,151
41.59167,152
41.60000,153
41.60833,155
41.61667,156
41.62500,158
41.63333,159
41.64167,161
41.65000,162
41.65833,163
41.66667,164
41.67500,166
41.68333,167
41.69167,168
41.70000,169
41.70833,171
41.71667,172
41.72500,173
41.73333,175
41.74167,176
41.75000,177
41.75833,179
41.76667,180
41.77500,180
41.78333,181
41.79167,182
41.80000,183
41.80833,184
41.81667,185
41.82500,187
41.83333,188
41.84167,189
41.85000,190
41.85833,191
41.86667,192
41.87500,193
41.88333,194
41.89167,194
41.90000,195
41.90833,196
41.91667,197
41.92500,198
41.93333,199
41.94167,200
41.95000,200
41.95833,201
41.96667,202
41.97500,203
41.98333,203
41.99167,204
42.00000,205
42.00833,206
42.01667,207
42.02500,207
42.03333,207
42.04167,208
42.05000,208
42.05833,208
42.06667,209
42.07500,210
42.08333,210
42.09167,210
42.10000,210
42.10833,211
42.11667,211
42.12500,211
42.13333,212
42.14167,212
42.15000,212
42.15833,213
42.16667,213
42.17500,213
42.18333,214
42.19167,214
42.20000,215
42.20833,215
42.21667,215
42.22500,215
42.23333,215
42.24167,214
42.25000,214
42.25833,214
42.26667,214
42.27500,214
42.28333,214
42.29167,214
42.30000,214
42.30833,214
42.31667,213
42.32500,213
42.33333,213
42.34167,213
42.35000,213
42.35833,212
42.36667,212
42.37500,212
42.38333,212
42.39167,211
42.40000,211
42.40833,210
42.41667,210
42.42500,210
42.43333,209
42.44167,209
42.45000,209
42.45833,208
42.46667,208
42.47500,207
42.48333,206
42.49167,206
42.50000,206
42.50833,205
42.51667,205
42.52500,205
42.53333,204
42.54167,204
42.55000,203
42.55833,202
42.56667,202
42.57500,201
42.58333,200
42.59167,199
42.60000,198
42.60833,197
42.61667,197
42.62500,196
42.63333,196
42.64167,195
42.65000,194
42.65833,193
42.66667,192
42.67500,191
42.68333,190
42.69167,189
42.70000,188
42.70833,187
42.71667,186
42.72500,185
42.73333,184
42.74167,184
42.75000,183
42.75833,182
42.76667,181
42.77500,181
42.78333,180
42.79167,179
42.80000,178
42.80833,177
42.81667,176
42.82500,176
42.83333,174
42.84167,173
42.85000,172
42.85833,171
42.86667,171
42.87500,170
42.88333,169
42.89167,168
42.90000,166
42.90833,165
42.91667,164
42.92500,163
42.93333,162
42.94167,161
42.95000,160
42.95833,159
42.96667,158
42.97500,157
42.98333,156
42.99167,156
43.00000,155
43.00833,153
43.01667,152
43.02500,151
43.03333,150
43.04167,149
43.05000,148
43.05833,147
43.06667,146
43.07500,145
43.08333,143
43.09167,142
43.10000,141
43.10833,140
43.11667,139
43.12500,138
43.13333,137
43.14167,137
43.15000,136
43.15833,135
43.16667,133
43.17500,132
43.18333,131
43.19167,130
43.20000,129
43.20833,128
43.21667,127
43.22500,126
43.23333,125
43.24167,124
43.25000,124
43.25833,123
43.26667,122
43.27500,121
43.28333,120
43.29167,119
43.30000,118
43.30833,117
43.31667,116
43.32500,115
43.33333,115
43.34167,114
43.35000,113
43.35833,112
43.36667,111
43.37500,110
43.38333,109
43.39167,107
43.40000,106
43.40833,106
43.41667,105
43.42500,104
43.43333,104
43.44167,103
43.45000,101
43.45833,100
43.46667,99
43.47500,98
43.48333,97
43.49167,96
43.50000,96
43.50833,95
43.51667,94
43.52500,93
43.53333,92
43.54167,91
43.55000,90
43.55833,89
43.56667,88
43.57500,87
43.58333,87
43.59167,86
43.60000,85
43.60833,85
43.61667,84
43.62500,83
43.63333,83
43.64167,82
43.65000,81
43.65833,80
43.66667,80
43.67500,79
43.68333,79
43.69167,78
43.70000,77
43.70833,76
43.71667,75
43.72500,74
43.73333,73
43.74167,73
43.75000,72
43.75833,71
43.76667,70
43.77500,69
43.78333,69
43.79167,68
43.80000,67
43.80833,66
43.81667,66
43.82500,65
43.83333,65
43.84167,64
43.85000,63
43.85833,63
43.86667,62
43.87500,61
43.88333,60
43.89167,60
43.90000,59
43.90833,58
43.91667,57
43.92500,56
43.93333,55
43.94167,55
43.95000,54
43.95833,54
43.96667,53
43.97500,53
43.98333,53
43.99167,52
44.00000,52
44.00833,51
44.01667,50
44.02500,50
44.03333,49
44.04167,48
44.05000,48
44.05833,47
44.06667,47
44.07500,46
44.08333,46
44.09167,45
44.10000,45
44.10833,44
44.11667,44
44.12500,44
44.13333,43
44.14167,42
44.15000,41
44.15833,41
44.16667,40
44.17500,40
44.18333,39
44.19167,38
44.20000,38
44.20833,37
44.21667,37
44.22500,36
44.23333,36
44.24167,35
44.25000,35
44.25833,35
44.26667,34
44.27500,34
44.28333,34
44.29167,33
44.30000,33
44.30833,32
44.31667,32
44.32500,32
44.33333,31
44.34167,31
44.35000,30
44.35833,30
44.36667,29
44.37500,29
44.38333,29
44.39167,28
44.40000,28
44.40833,27
44.41667,27
44.42500,27
44.43333,26
44.44167,26
44.45000,26
44.45833,25
44.46667,25
44.47500,24
44.48333,24
44.49167,23
44.50000,22
44.50833,22
44.51667,21
44.52500,21
44.53333,21
44.54167,21
44.55000,20
44.55833,20
44.56667,20
44.57500,20
44.58333,20
44.59167,20
44.60000,19
44.60833,19
44.61667,19
44.62500,19
44.63333,19
44.64167,18
44.65000,18
44.65833,17
44.66667,17
44.67500,17
44.68333,17
44.69167,17
44.70000,17
44.70833,17
44.71667,16
44.72500,16
44.73333,16
44.74167,15
44.75000,15
44.75833,15
44.76667,15
44.77500,15
44.78333,15
44.79167,15
44.80000,15
44.80833,16
44.81667,15
44.82500,15
44.83333,14
44.84167,14
44.85000,14
44.85833,14
44.86667,13
44.87500,13
44.88333,12
44.89167,12
44.90000,12
44.90833,12
44.91667,13
44.92500,13
44.93333,13
44.94167,13
44.95000,12
44.95833,12
44.96667,12
44.97500,12
44.98333,11
44.99167,11
45.00000,11
45.00833,11
45.01667,11
45.02500,11
45.03333,12
45.04167,12
45.05000,12
45.05833,12
45.06667,12
45.07500,12
45.08333,12
45.09167,12
45.10000,12
45.10833,12
45.11667,12
45.12500,12
45.13333,12
45.14167,13
45.15000,13
45.15833,13
45.16667,13
45.17500,13
45.18333,13
45.19167,13
45.20000,13
45.20833,13
45.21667,14
45.22500,14
45.23333,14
45.24167,14
45.25000,13
45.25833,13
45.26667,13
45.27500,14
45.28333,14
45.29167,15
45.30000,15
45.30833,15
45.31667,15
45.32500,15
45.33333,15
45.34167,16
45.35000,16
45.35833,16
45.36667,16
45.37500,16
45.38333,16
45.39167,16
45.40000,16
45.40833,16
45.41667,16
45.42500,16
45.43333,17
45.44167,17
45.45000,17
45.45833,17
45.46667,17
45.47500,17
45.48333,17
45.49167,17
45.50000,17
45.50833,17
45.51667,18
45.52500,18
45.53333,17
45.54167,17
45.55000,16
45.55833,16
45.56667,17
45.57500,17
45.58333,17
45.59167,17
45.60000,17
45.60833,17
45.61667,17
45.62500,17
45.63333,17
45.64167,17
45.65000,17
45.65833,17
45.66667,17
45.67500,17
45.68333,17
45.69167,18
45.70000,18
45.70833,18
45.71667,18
45.72500,18
45.73333,18
45.74167,18
45.75000,18
45.75833,18
45.76667,18
45.77500,18
45.78333,18
45.79167,18
45.80000,18
45.80833,18
45.81667,18
45.82500,18
45.83333,18
45.84167,19
45.85000,19
45.85833,19
45.86667,19
45.87500,18
45.88333,18
45.89167,18
45.90000,18
45.90833,18
45.91667,18
45.92500,17
45.93333,17
45.94167,17
45.95000,17
45.95833,17
45.96667,16
45.97500,16
45.98333,16
45.99167,15
46.00000,15
46.00833,15
46.01667,15
46.02500,16
46.03333,16
46.04167,16
46.05000,16
46.05833,15
46.06667,15
46.07500,15
46.08333,14
46.09167,14
46.10000,14
46.10833,14
46.11667,14
46.12500,14
46.13333,13
46.14167,13
46.15000,13
46.15833,13
46.16667,12
46.17500,12
46.18333,12
46.19167,12
46.20000,12
46.20833,12
46.21667,12
46.22500,12
46.23333,11
46.24167,11
46.25000,10
46.25833,10
46.26667,9
46.27500,9
46.28333,9
46.29167,9
46.30000,9
46.30833,9
46.31667,9
46.32500,9
46.33333,8
46.34167,8
46.35000,8
46.35833,7
46.36667,7
46.37500,7
46.38333,6
46.39167,6
46.40000,6
46.40833,6
46.41667,5
46.42500,5
46.43333,5
46.44167,5
46.45000,5
46.45833,4
46.46667,4
46.47500,4
46.48333,3
46.49167,3
46.50000,2
46.50833,2
46.51667,2
46.52500,2
46.53333,2
46.54167,2
46.55000,2
46.55833,1
46.56667,1
46.57500,-0
46.58333,-1
46.59167,-1
46.60000,-2
46.60833,-2
46.61667,-2
46.62500,-2
46.63333,-2
46.64167,-2
46.65000,-1
46.65833,-2
46.66667,-2
46.67500,-3
46.68333,-3
46.69167,-3
46.70000,-3
46.70833,-3
46.71667,-3
46.72500,-3
46.73333,-3
46.74167,-3
46.75000,-3
46.75833,-4
46.76667,-4
46.77500,-4
46.78333,-5
46.79167,-5
46.80000,-5
46.80833,-5
46.81667,-5
46.82500,-6
46.83333,-6
46.84167,-6
46.85000,-6
46.85833,-6
46.86667,-6
46.87500,-6
46.88333,-6
46.89167,-6
46.90000,-6
46.90833,-6
46.91667,-6
46.92500,-6
46.93333,-6
46.94167,-6
46.95000,-6
46.95833,-6
46.96667,-6
46.97500,-6
46.98333,-5
46.99167,-5
47.00000,-5
47.00833,-5
47.01667,-5
47.02500,-5
47.03333,-5
47.04167,-5
47.05000,-4
47.05833,-4
47.06667,-4
47.07500,-3
47.08333,-3
47.09167,-3
47.10000,-2
47.10833,-2
47.11667,-2
47.12500,-1
47.13333,-1
47.14167,-0
47.15000,0
47.15833,1
47.16667,1
47.17500,2
47.18333,2
47.19167,3
47.20000,3
47.20833,3
47.21667,3
47.22500,4
47.23333,5
47.24167,6
47.25000,6
47.25833,7
47.26667,8
47.27500,9
47.28333,9
47.29167,10
47.30000,11
47.30833,12
47.31667,12
47.32500,13
47.33333,13
47.34167,14
47.35000,15
47.35833,16
47.36667,16
47.37500,17
47.38333,18
47.39167,19
47.40000,20
47.40833,21
47.41667,22
47.42500,23
47.43333,23
47.44167,24
47.45000,24
47.45833,25
47.46667,26
47.47500,27
47.48333,28
47.49167,29
47.50000,30
47.50833,31
47.51667,32
47.52500,32
47.53333,33
47.54167,34
47.55000,34
47.55833,35
47.56667,36
47.57500,37
47.58333,37
47.59167,38
47.60000,39
47.60833,40
47.61667,41
47.62500,41
47.63333,42
47.64167,43
47.65000,43
47.65833,44
47.66667,45
47.67500,46
47.68333,48
47.69167,49
47.70000,49
47.70833,50
47.71667,50
47.72500,51
47.73333,51
47.74167,52
47.75000,52
47.75833,53
47.76667,53
47.77500,54
47.78333,55
47.79167,55
47.80000,56
47.80833,56
47.81667,57
47.82500,57
47.83333,57
47.84167,58
47.85000,58
47.85833,58
47.86667,59
47.87500,59
47.88333,60
47.89167,61
47.90000,61
47.90833,62
47.91667,62
47.92500,63
47.93333,63
47.94167,64
47.95000,64
47.95833,64
47.96667,65
47.97500,65
47.98333,65
47.99167,66
48.00000,67
48.00833,67
48.01667,67
48.02500,68
48.03333,68
48.04167,68
48.05000,67
48.05833,68
48.06667,68
48.07500,68
48.08333,68
48.09167,69
48.10000,69
48.10833,69
48.11667,70
48.12500,70
48.13333,70
48.14167,71
48.15000,71
48.15833,71
48.16667,71
48.17500,71
48.18333,72
48.19167,72
48.20000,72
48.20833,72
48.21667,72
48.22500,72
48.23333,72
48.24167,72
48.25000,72
48.25833,73
48.26667,73
48.27500,73
48.28333,73
48.29167,73
48.30000,73
48.30833,74
48.31667,74
48.32500,74
48.33333,74
48.34167,74
48.35000,74
48.35833,74
48.36667,74
48.37500,74
48.38333,74
48.39167,74
48.40000,74
48.40833,74
48.41667,74
48.42500,74
48.43333,74
48.44167,74
48.45000,75
48.45833,75
48.46667,75
48.47500,75
48.48333,75
48.49167,75
48.50000,75
48.50833,75
48.51667,75
48.52500,75
48.53333,75
48.54167,75
48.55000,75
48.55833,75
48.56667,75
48.57500,75
48.58333,75
48.59167,76
48.60000,76
48.60833,76
48.61667,76
48.62500,76
48.63333,76
48.64167,76
48.65000,77
48.65833,77
48.66667,77
48.67500,78
48.68333,78
48.69167,78
48.70000,78
48.70833,78
48.71667,78
48.72500,78
48.73333,78
48.74167,78
48.75000,78
48.75833,78
48.76667,78
48.77500,78
48.78333,78
48.79167,78
48.80000,79
48.80833,79
48.81667,80
48.82500,80
48.83333,80
48.84167,80
48.85000,80
48.85833,80
48.86667,80
48.87500,80
48.88333,80
48.89167,80
48.90000,80
48.90833,80
48.91667,80
48.92500,80
48.93333,80
48.94167,81
48.95000,81
48.95833,81
48.96667,81
48.97500,81
48.98333,81
48.99167,81
49.00000,81
49.00833,81
49.01667,81
49.02500,81
49.03333,81
49.04167,81
49.05000,82
49.05833,82
49.06667,82
49.07500,82
49.08333,82
49.09167,82
49.10000,82
49.10833,82
49.11667,81
49.12500,81
49.13333,81
49.14167,80
49.15000,80
49.15833,80
49.16667,80
49.17500,80
49.18333,80
49.19167,80
49.20000,80
49.20833,80
49.21667,80
49.22500,80
49.23333,80
49.24167,79
49.25000,79
49.25833,79
49.26667,79
49.27500,79
49.28333,79
49.29167,78
49.30000,78
49.30833,78
49.31667,78
49.32500,78
49.33333,78
49.34167,78
49.35000,78
49.35833,77
49.36667,77
49.37500,76
49.38333,76
49.39167,76
49.40000,76
49.40833,76
49.41667,75
49.42500,75
49.43333,74
49.44167,74
49.45000,75
49.45833,74
49.46667,74
49.47500,74
49.48333,74
49.49167,73
49.50000,72
49.50833,72
49.51667,71
49.52500,71
49.53333,70
49.54167,69
49.55000,68
49.55833,68
49.56667,67
49.57500,67
49.58333,67
49.59167,67
49.60000,67
49.60833,67
49.61667,66
49.62500,66
49.63333,65
49.64167,65
49.65000,64
49.65833,63
49.66667,62
49.67500,61
49.68333,61
49.69167,60
49.70000,60
49.70833,59
49.71667,59
49.72500,58
49.73333,58
49.74167,57
49.75000,56
49.75833,55
49.76667,54
49.77500,53
49.78333,52
49.79167,52
49.80000,51
49.80833,50
49.81667,50
49.82500,49
49.83333,49
49.84167,48
49.85000,48
49.85833,47
49.86667,46
49.87500,45
49.88333,45
49.89167,44
49.90000,43
49.90833,42
49.91667,41
49.92500,41
49.93333,40
49.94167,39
49.95000,38
49.95833,38
49.96667,37
49.97500,36
49.98333,35
49.99167,34
50.00000,33

