[Header]
Application Name,LabSolutions
Version,5.97 SP1
Data File Name,C:\Users\cremerlab\Desktop\Richa\Oct_18th_2022_yield_expt\Oct 18th 2022 yield expt_10182022_001_032.lcd
Output Date,10/19/2022
Output Time,7:41:47 PM

[File Information]
Type,Data File
Generated,10/19/2022 6:51:27 PM
Generated by,System Administrator
Modified,10/19/2022 7:41:47 PM
Modified by,System Administrator

[Sample Information]
Operator Name,System Administrator
Acquired,10/19/2022 6:51:45 PM
Sample Type,0:Unknown
Level,0
Sample Name,101822_BT_Trp_3
Sample ID,001
ISTD Amount1,1
ISTD Amount2,1
ISTD Amount3,1
ISTD Amount4,1
ISTD Amount5,1
ISTD Amount6,1
ISTD Amount7,1
ISTD Amount8,1
ISTD Amount9,1
ISTD Amount10,1
ISTD Amount11,1
ISTD Amount12,1
ISTD Amount13,1
ISTD Amount14,1
ISTD Amount15,1
ISTD Amount16,1
ISTD Amount17,1
ISTD Amount18,1
ISTD Amount19,1
ISTD Amount20,1
ISTD Amount21,1
ISTD Amount22,1
ISTD Amount23,1
ISTD Amount24,1
ISTD Amount25,1
ISTD Amount26,1
ISTD Amount27,1
ISTD Amount28,1
ISTD Amount29,1
ISTD Amount30,1
ISTD Amount31,1
ISTD Amount32,1
Sample Amount,1
Dilution Factor,1
Vial#,31
Injection Volume,20

[Original Files]
Data File,C:\Users\cremerlab\Desktop\Richa\Oct_18th_2022_yield_expt\Oct 18th 2022 yield expt_10182022_001_032.lcd
Method File,C:\Users\cremerlab\Desktop\Richa\acetate_excretion.lcm
Batch File,C:\Users\cremerlab\Desktop\Richa\Oct_18th_2022_yield_expt\Oct 18th 2022 yield expt.lcb
Report Format File,c:\LabSolutions\System\DEFAULT.lsr

[File Description]


[Configuration]
Instrument Name,HPLC-PC-Instrument1
Instrument #,1
Line #,1
# of Detectors,2
Detector ID,Detector A,Detector B
Detector Name,Detector A,Detector B
# of Channels,1,1

[Peak Table(Detector A)]
# of Peaks,0

[Peak Table(Detector B)]
# of Peaks,13
Peak#,R.Time,I.Time,F.Time,Area,Height,A/H,Conc.,Mark,ID#,Name,k',Plate #,Plate Ht.,Tailing,Resolution,Sep.Factor,Area Ratio,Height Ratio,Conc. %,Norm Conc.
1,10.492,10.283,10.525,1520,204,7.469,0.000,   ,,,0.000,4881,30.732,0.000,0.000,0.000,0,0,0.000,0.000
2,11.038,10.525,12.375,2336408,118127,19.779,0.000, V ,,,0.052,7445,20.149,0.977,0.982,0.000,0,0,0.000,0.000
3,14.365,12.675,15.208,3673742,78116,47.029,0.000,   ,,,0.369,2468,60.772,0.655,3.989,7.095,0,0,0.000,0.000
4,15.786,15.208,17.183,1516845,51714,29.331,0.000, V ,,,0.505,6837,21.940,1.147,1.480,1.367,0,0,0.000,0.000
5,17.893,17.425,18.458,8518,282,30.205,0.000,   ,,,0.705,7480,20.053,1.037,2.648,1.398,0,0,0.000,0.000
6,19.072,18.492,19.750,11326,290,39.016,0.000,   ,,,0.818,5120,29.298,1.059,1.245,1.159,0,0,0.000,0.000
7,20.311,19.758,20.667,21226,631,33.621,0.000,   ,,,0.936,5242,28.615,0.000,1.132,1.144,0,0,0.000,0.000
8,20.968,20.667,21.392,18665,529,35.256,0.000, V ,,,0.998,2902,51.688,0.000,0.490,1.067,0,0,0.000,0.000
9,21.910,21.392,22.575,52820,1471,35.908,0.000, V ,,,1.088,8534,17.576,0.000,0.752,1.090,0,0,0.000,0.000
10,23.164,22.583,24.267,25148,667,37.703,0.000,   ,,,1.208,9143,16.406,1.321,1.308,1.110,0,0,0.000,0.000
11,25.096,24.325,26.392,175573,4262,41.192,0.000,   ,,,1.392,8893,16.867,1.135,1.900,1.152,0,0,0.000,0.000
12,29.214,28.308,30.500,152788,3197,47.790,0.000,   ,,,1.785,8896,16.862,1.094,3.575,1.282,0,0,0.000,0.000
13,32.370,31.592,33.083,17314,392,44.169,0.000,   ,,,2.085,12014,12.485,0.976,2.607,1.169,0,0,0.000,0.000

[LC Chromatogram(Detector B-Ch1)]
Interval(msec),500
# of Points,6001
Start Time(min),0.000
End Time(min),50.000
Intensity Units,mV
Intensity Multiplier,0.001
R.Time (min),Intensity
0.00000,-10
0.00833,-10
0.01667,-0
0.02500,-1
0.03333,-1
0.04167,-1
0.05000,-1
0.05833,-2
0.06667,-2
0.07500,-2
0.08333,-2
0.09167,-2
0.10000,-2
0.10833,-3
0.11667,-3
0.12500,-3
0.13333,-4
0.14167,-4
0.15000,-4
0.15833,-5
0.16667,-5
0.17500,-6
0.18333,-6
0.19167,-6
0.20000,-7
0.20833,-7
0.21667,-7
0.22500,-8
0.23333,-8
0.24167,-8
0.25000,-8
0.25833,-8
0.26667,-8
0.27500,-8
0.28333,-8
0.29167,-9
0.30000,-9
0.30833,-9
0.31667,-9
0.32500,-9
0.33333,-8
0.34167,-8
0.35000,-9
0.35833,-9
0.36667,-9
0.37500,-9
0.38333,-10
0.39167,-10
0.40000,-10
0.40833,-10
0.41667,-10
0.42500,-10
0.43333,-11
0.44167,-11
0.45000,-11
0.45833,-11
0.46667,-11
0.47500,-11
0.48333,-11
0.49167,-11
0.50000,-11
0.50833,-11
0.51667,-11
0.52500,-11
0.53333,-11
0.54167,-11
0.55000,-10
0.55833,-10
0.56667,-10
0.57500,-10
0.58333,-10
0.59167,-9
0.60000,-9
0.60833,-9
0.61667,-9
0.62500,-9
0.63333,-9
0.64167,-8
0.65000,-8
0.65833,-8
0.66667,-8
0.67500,-9
0.68333,-9
0.69167,-9
0.70000,-9
0.70833,-9
0.71667,-9
0.72500,-9
0.73333,-9
0.74167,-8
0.75000,-8
0.75833,-8
0.76667,-8
0.77500,-8
0.78333,-8
0.79167,-8
0.80000,-7
0.80833,-7
0.81667,-7
0.82500,-7
0.83333,-7
0.84167,-7
0.85000,-7
0.85833,-7
0.86667,-6
0.87500,-6
0.88333,-6
0.89167,-6
0.90000,-6
0.90833,-6
0.91667,-6
0.92500,-5
0.93333,-5
0.94167,-5
0.95000,-5
0.95833,-5
0.96667,-5
0.97500,-4
0.98333,-4
0.99167,-4
1.00000,-4
1.00833,-3
1.01667,-3
1.02500,-3
1.03333,-2
1.04167,-2
1.05000,-2
1.05833,-1
1.06667,-1
1.07500,-1
1.08333,-1
1.09167,-1
1.10000,-1
1.10833,-1
1.11667,-1
1.12500,-1
1.13333,-0
1.14167,-0
1.15000,-0
1.15833,-0
1.16667,0
1.17500,1
1.18333,1
1.19167,2
1.20000,2
1.20833,2
1.21667,2
1.22500,2
1.23333,2
1.24167,2
1.25000,1
1.25833,2
1.26667,2
1.27500,2
1.28333,2
1.29167,2
1.30000,2
1.30833,2
1.31667,2
1.32500,2
1.33333,2
1.34167,2
1.35000,2
1.35833,2
1.36667,2
1.37500,2
1.38333,3
1.39167,3
1.40000,3
1.40833,3
1.41667,3
1.42500,3
1.43333,3
1.44167,3
1.45000,3
1.45833,3
1.46667,3
1.47500,4
1.48333,4
1.49167,4
1.50000,3
1.50833,4
1.51667,4
1.52500,4
1.53333,3
1.54167,3
1.55000,3
1.55833,3
1.56667,3
1.57500,2
1.58333,2
1.59167,2
1.60000,3
1.60833,3
1.61667,3
1.62500,3
1.63333,3
1.64167,3
1.65000,3
1.65833,3
1.66667,2
1.67500,2
1.68333,2
1.69167,2
1.70000,2
1.70833,2
1.71667,3
1.72500,3
1.73333,2
1.74167,2
1.75000,2
1.75833,2
1.76667,2
1.77500,2
1.78333,2
1.79167,3
1.80000,2
1.80833,2
1.81667,2
1.82500,2
1.83333,1
1.84167,1
1.85000,1
1.85833,1
1.86667,1
1.87500,1
1.88333,1
1.89167,0
1.90000,0
1.90833,-0
1.91667,-0
1.92500,-0
1.93333,-0
1.94167,-0
1.95000,-1
1.95833,-1
1.96667,-1
1.97500,-1
1.98333,-1
1.99167,-1
2.00000,-1
2.00833,-2
2.01667,-2
2.02500,-2
2.03333,-1
2.04167,-1
2.05000,-1
2.05833,-2
2.06667,-2
2.07500,-2
2.08333,-2
2.09167,-2
2.10000,-2
2.10833,-3
2.11667,-3
2.12500,-3
2.13333,-4
2.14167,-4
2.15000,-5
2.15833,-5
2.16667,-5
2.17500,-5
2.18333,-6
2.19167,-6
2.20000,-6
2.20833,-6
2.21667,-6
2.22500,-7
2.23333,-7
2.24167,-7
2.25000,-7
2.25833,-7
2.26667,-7
2.27500,-7
2.28333,-7
2.29167,-7
2.30000,-7
2.30833,-7
2.31667,-7
2.32500,-8
2.33333,-8
2.34167,-8
2.35000,-9
2.35833,-9
2.36667,-9
2.37500,-9
2.38333,-9
2.39167,-9
2.40000,-9
2.40833,-10
2.41667,-10
2.42500,-10
2.43333,-11
2.44167,-11
2.45000,-11
2.45833,-11
2.46667,-11
2.47500,-11
2.48333,-11
2.49167,-11
2.50000,-11
2.50833,-12
2.51667,-12
2.52500,-12
2.53333,-12
2.54167,-13
2.55000,-13
2.55833,-13
2.56667,-14
2.57500,-14
2.58333,-14
2.59167,-14
2.60000,-14
2.60833,-14
2.61667,-13
2.62500,-13
2.63333,-14
2.64167,-14
2.65000,-14
2.65833,-14
2.66667,-15
2.67500,-15
2.68333,-14
2.69167,-14
2.70000,-14
2.70833,-15
2.71667,-15
2.72500,-15
2.73333,-16
2.74167,-16
2.75000,-16
2.75833,-16
2.76667,-15
2.77500,-15
2.78333,-15
2.79167,-15
2.80000,-15
2.80833,-15
2.81667,-15
2.82500,-16
2.83333,-16
2.84167,-16
2.85000,-16
2.85833,-16
2.86667,-17
2.87500,-17
2.88333,-17
2.89167,-17
2.90000,-17
2.90833,-17
2.91667,-17
2.92500,-17
2.93333,-17
2.94167,-16
2.95000,-16
2.95833,-16
2.96667,-16
2.97500,-16
2.98333,-16
2.99167,-16
3.00000,-16
3.00833,-16
3.01667,-16
3.02500,-16
3.03333,-16
3.04167,-16
3.05000,-16
3.05833,-16
3.06667,-16
3.07500,-16
3.08333,-16
3.09167,-16
3.10000,-16
3.10833,-16
3.11667,-16
3.12500,-16
3.13333,-16
3.14167,-16
3.15000,-16
3.15833,-16
3.16667,-16
3.17500,-15
3.18333,-15
3.19167,-15
3.20000,-14
3.20833,-14
3.21667,-14
3.22500,-13
3.23333,-13
3.24167,-13
3.25000,-13
3.25833,-13
3.26667,-13
3.27500,-13
3.28333,-13
3.29167,-13
3.30000,-13
3.30833,-13
3.31667,-13
3.32500,-12
3.33333,-12
3.34167,-12
3.35000,-12
3.35833,-11
3.36667,-11
3.37500,-10
3.38333,-10
3.39167,-10
3.40000,-10
3.40833,-10
3.41667,-10
3.42500,-10
3.43333,-9
3.44167,-9
3.45000,-8
3.45833,-8
3.46667,-8
3.47500,-7
3.48333,-7
3.49167,-7
3.50000,-7
3.50833,-7
3.51667,-6
3.52500,-6
3.53333,-6
3.54167,-6
3.55000,-6
3.55833,-6
3.56667,-5
3.57500,-5
3.58333,-5
3.59167,-5
3.60000,-4
3.60833,-4
3.61667,-4
3.62500,-4
3.63333,-4
3.64167,-4
3.65000,-3
3.65833,-2
3.66667,-2
3.67500,-1
3.68333,-0
3.69167,0
3.70000,0
3.70833,1
3.71667,1
3.72500,1
3.73333,2
3.74167,2
3.75000,2
3.75833,3
3.76667,3
3.77500,4
3.78333,4
3.79167,5
3.80000,6
3.80833,7
3.81667,7
3.82500,7
3.83333,8
3.84167,8
3.85000,9
3.85833,9
3.86667,10
3.87500,10
3.88333,11
3.89167,11
3.90000,11
3.90833,12
3.91667,12
3.92500,13
3.93333,14
3.94167,14
3.95000,15
3.95833,16
3.96667,16
3.97500,17
3.98333,18
3.99167,18
4.00000,19
4.00833,20
4.01667,20
4.02500,21
4.03333,21
4.04167,22
4.05000,22
4.05833,23
4.06667,24
4.07500,24
4.08333,25
4.09167,26
4.10000,27
4.10833,27
4.11667,28
4.12500,28
4.13333,28
4.14167,29
4.15000,30
4.15833,30
4.16667,31
4.17500,32
4.18333,33
4.19167,34
4.20000,35
4.20833,36
4.21667,37
4.22500,37
4.23333,38
4.24167,39
4.25000,39
4.25833,40
4.26667,40
4.27500,41
4.28333,41
4.29167,42
4.30000,43
4.30833,44
4.31667,45
4.32500,45
4.33333,46
4.34167,47
4.35000,47
4.35833,47
4.36667,48
4.37500,49
4.38333,49
4.39167,49
4.40000,50
4.40833,50
4.41667,51
4.42500,51
4.43333,52
4.44167,52
4.45000,53
4.45833,54
4.46667,54
4.47500,55
4.48333,55
4.49167,55
4.50000,55
4.50833,55
4.51667,56
4.52500,56
4.53333,56
4.54167,56
4.55000,57
4.55833,57
4.56667,58
4.57500,58
4.58333,58
4.59167,58
4.60000,59
4.60833,59
4.61667,59
4.62500,59
4.63333,59
4.64167,59
4.65000,59
4.65833,60
4.66667,60
4.67500,60
4.68333,60
4.69167,60
4.70000,60
4.70833,60
4.71667,60
4.72500,60
4.73333,59
4.74167,59
4.75000,60
4.75833,60
4.76667,60
4.77500,60
4.78333,59
4.79167,59
4.80000,59
4.80833,58
4.81667,58
4.82500,59
4.83333,59
4.84167,58
4.85000,58
4.85833,58
4.86667,58
4.87500,58
4.88333,58
4.89167,58
4.90000,58
4.90833,58
4.91667,58
4.92500,58
4.93333,57
4.94167,57
4.95000,57
4.95833,56
4.96667,56
4.97500,55
4.98333,55
4.99167,54
5.00000,54
5.00833,53
5.01667,53
5.02500,52
5.03333,52
5.04167,51
5.05000,51
5.05833,51
5.06667,50
5.07500,50
5.08333,50
5.09167,49
5.10000,49
5.10833,48
5.11667,48
5.12500,48
5.13333,47
5.14167,47
5.15000,46
5.15833,46
5.16667,45
5.17500,45
5.18333,44
5.19167,44
5.20000,43
5.20833,43
5.21667,42
5.22500,41
5.23333,41
5.24167,40
5.25000,39
5.25833,38
5.26667,37
5.27500,36
5.28333,36
5.29167,35
5.30000,34
5.30833,33
5.31667,33
5.32500,32
5.33333,32
5.34167,32
5.35000,31
5.35833,30
5.36667,30
5.37500,29
5.38333,28
5.39167,27
5.40000,27
5.40833,26
5.41667,25
5.42500,25
5.43333,24
5.44167,23
5.45000,22
5.45833,21
5.46667,21
5.47500,20
5.48333,19
5.49167,18
5.50000,17
5.50833,16
5.51667,15
5.52500,14
5.53333,13
5.54167,13
5.55000,12
5.55833,12
5.56667,11
5.57500,10
5.58333,9
5.59167,8
5.60000,7
5.60833,7
5.61667,6
5.62500,5
5.63333,4
5.64167,3
5.65000,2
5.65833,2
5.66667,1
5.67500,-0
5.68333,-1
5.69167,-1
5.70000,-2
5.70833,-3
5.71667,-4
5.72500,-5
5.73333,-6
5.74167,-7
5.75000,-8
5.75833,-8
5.76667,-9
5.77500,-10
5.78333,-11
5.79167,-12
5.80000,-12
5.80833,-13
5.81667,-14
5.82500,-15
5.83333,-15
5.84167,-16
5.85000,-17
5.85833,-18
5.86667,-19
5.87500,-19
5.88333,-19
5.89167,-20
5.90000,-20
5.90833,-20
5.91667,-21
5.92500,-22
5.93333,-22
5.94167,-23
5.95000,-24
5.95833,-24
5.96667,-25
5.97500,-26
5.98333,-26
5.99167,-27
6.00000,-27
6.00833,-28
6.01667,-29
6.02500,-30
6.03333,-30
6.04167,-31
6.05000,-31
6.05833,-32
6.06667,-32
6.07500,-32
6.08333,-33
6.09167,-33
6.10000,-33
6.10833,-33
6.11667,-34
6.12500,-35
6.13333,-35
6.14167,-36
6.15000,-37
6.15833,-37
6.16667,-38
6.17500,-38
6.18333,-39
6.19167,-39
6.20000,-39
6.20833,-38
6.21667,-39
6.22500,-39
6.23333,-40
6.24167,-40
6.25000,-40
6.25833,-41
6.26667,-41
6.27500,-42
6.28333,-42
6.29167,-42
6.30000,-43
6.30833,-43
6.31667,-43
6.32500,-44
6.33333,-44
6.34167,-45
6.35000,-45
6.35833,-44
6.36667,-45
6.37500,-45
6.38333,-45
6.39167,-45
6.40000,-45
6.40833,-46
6.41667,-46
6.42500,-45
6.43333,-45
6.44167,-45
6.45000,-45
6.45833,-46
6.46667,-46
6.47500,-46
6.48333,-46
6.49167,-46
6.50000,-47
6.50833,-47
6.51667,-47
6.52500,-47
6.53333,-47
6.54167,-48
6.55000,-48
6.55833,-48
6.56667,-48
6.57500,-49
6.58333,-49
6.59167,-49
6.60000,-49
6.60833,-49
6.61667,-49
6.62500,-49
6.63333,-49
6.64167,-49
6.65000,-49
6.65833,-49
6.66667,-49
6.67500,-49
6.68333,-49
6.69167,-49
6.70000,-49
6.70833,-49
6.71667,-49
6.72500,-49
6.73333,-49
6.74167,-49
6.75000,-49
6.75833,-49
6.76667,-50
6.77500,-50
6.78333,-50
6.79167,-50
6.80000,-50
6.80833,-49
6.81667,-49
6.82500,-49
6.83333,-49
6.84167,-49
6.85000,-49
6.85833,-49
6.86667,-49
6.87500,-49
6.88333,-50
6.89167,-50
6.90000,-50
6.90833,-50
6.91667,-50
6.92500,-50
6.93333,-50
6.94167,-50
6.95000,-50
6.95833,-51
6.96667,-51
6.97500,-51
6.98333,-51
6.99167,-51
7.00000,-50
7.00833,-51
7.01667,-51
7.02500,-51
7.03333,-51
7.04167,-51
7.05000,-51
7.05833,-51
7.06667,-51
7.07500,-51
7.08333,-51
7.09167,-51
7.10000,-51
7.10833,-51
7.11667,-50
7.12500,-50
7.13333,-50
7.14167,-50
7.15000,-50
7.15833,-50
7.16667,-50
7.17500,-50
7.18333,-50
7.19167,-50
7.20000,-50
7.20833,-50
7.21667,-51
7.22500,-51
7.23333,-51
7.24167,-51
7.25000,-50
7.25833,-51
7.26667,-51
7.27500,-50
7.28333,-50
7.29167,-50
7.30000,-51
7.30833,-50
7.31667,-50
7.32500,-50
7.33333,-50
7.34167,-50
7.35000,-50
7.35833,-50
7.36667,-50
7.37500,-50
7.38333,-50
7.39167,-50
7.40000,-50
7.40833,-51
7.41667,-51
7.42500,-51
7.43333,-51
7.44167,-52
7.45000,-52
7.45833,-52
7.46667,-52
7.47500,-52
7.48333,-52
7.49167,-52
7.50000,-52
7.50833,-52
7.51667,-52
7.52500,-51
7.53333,-52
7.54167,-52
7.55000,-51
7.55833,-51
7.56667,-51
7.57500,-51
7.58333,-51
7.59167,-51
7.60000,-51
7.60833,-51
7.61667,-51
7.62500,-51
7.63333,-51
7.64167,-51
7.65000,-51
7.65833,-51
7.66667,-51
7.67500,-51
7.68333,-51
7.69167,-51
7.70000,-51
7.70833,-51
7.71667,-51
7.72500,-51
7.73333,-51
7.74167,-51
7.75000,-51
7.75833,-51
7.76667,-51
7.77500,-51
7.78333,-51
7.79167,-51
7.80000,-51
7.80833,-51
7.81667,-51
7.82500,-51
7.83333,-51
7.84167,-51
7.85000,-51
7.85833,-51
7.86667,-51
7.87500,-51
7.88333,-51
7.89167,-51
7.90000,-51
7.90833,-50
7.91667,-50
7.92500,-50
7.93333,-51
7.94167,-51
7.95000,-51
7.95833,-51
7.96667,-51
7.97500,-50
7.98333,-51
7.99167,-51
8.00000,-51
8.00833,-51
8.01667,-51
8.02500,-51
8.03333,-51
8.04167,-51
8.05000,-51
8.05833,-51
8.06667,-51
8.07500,-51
8.08333,-51
8.09167,-51
8.10000,-52
8.10833,-52
8.11667,-52
8.12500,-52
8.13333,-52
8.14167,-53
8.15000,-52
8.15833,-52
8.16667,-52
8.17500,-52
8.18333,-52
8.19167,-52
8.20000,-52
8.20833,-52
8.21667,-52
8.22500,-52
8.23333,-52
8.24167,-52
8.25000,-52
8.25833,-52
8.26667,-52
8.27500,-51
8.28333,-51
8.29167,-51
8.30000,-51
8.30833,-51
8.31667,-51
8.32500,-52
8.33333,-52
8.34167,-52
8.35000,-52
8.35833,-52
8.36667,-52
8.37500,-52
8.38333,-52
8.39167,-52
8.40000,-52
8.40833,-52
8.41667,-52
8.42500,-52
8.43333,-51
8.44167,-51
8.45000,-51
8.45833,-51
8.46667,-51
8.47500,-51
8.48333,-51
8.49167,-51
8.50000,-52
8.50833,-52
8.51667,-52
8.52500,-52
8.53333,-52
8.54167,-52
8.55000,-52
8.55833,-52
8.56667,-52
8.57500,-52
8.58333,-52
8.59167,-52
8.60000,-52
8.60833,-52
8.61667,-51
8.62500,-51
8.63333,-50
8.64167,-50
8.65000,-50
8.65833,-50
8.66667,-50
8.67500,-50
8.68333,-51
8.69167,-51
8.70000,-51
8.70833,-51
8.71667,-50
8.72500,-50
8.73333,-51
8.74167,-51
8.75000,-51
8.75833,-51
8.76667,-51
8.77500,-51
8.78333,-51
8.79167,-51
8.80000,-51
8.80833,-51
8.81667,-51
8.82500,-51
8.83333,-51
8.84167,-51
8.85000,-51
8.85833,-51
8.86667,-50
8.87500,-50
8.88333,-51
8.89167,-50
8.90000,-50
8.90833,-50
8.91667,-50
8.92500,-51
8.93333,-51
8.94167,-50
8.95000,-50
8.95833,-50
8.96667,-50
8.97500,-50
8.98333,-50
8.99167,-50
9.00000,-50
9.00833,-50
9.01667,-50
9.02500,-50
9.03333,-50
9.04167,-50
9.05000,-50
9.05833,-49
9.06667,-49
9.07500,-49
9.08333,-49
9.09167,-50
9.10000,-50
9.10833,-50
9.11667,-50
9.12500,-50
9.13333,-50
9.14167,-50
9.15000,-50
9.15833,-50
9.16667,-50
9.17500,-50
9.18333,-50
9.19167,-50
9.20000,-50
9.20833,-50
9.21667,-50
9.22500,-50
9.23333,-49
9.24167,-49
9.25000,-49
9.25833,-49
9.26667,-49
9.27500,-49
9.28333,-49
9.29167,-49
9.30000,-49
9.30833,-49
9.31667,-49
9.32500,-48
9.33333,-48
9.34167,-49
9.35000,-48
9.35833,-48
9.36667,-48
9.37500,-48
9.38333,-48
9.39167,-49
9.40000,-49
9.40833,-49
9.41667,-49
9.42500,-49
9.43333,-49
9.44167,-49
9.45000,-48
9.45833,-48
9.46667,-48
9.47500,-48
9.48333,-47
9.49167,-47
9.50000,-47
9.50833,-47
9.51667,-48
9.52500,-48
9.53333,-48
9.54167,-48
9.55000,-48
9.55833,-48
9.56667,-48
9.57500,-48
9.58333,-48
9.59167,-48
9.60000,-48
9.60833,-48
9.61667,-48
9.62500,-48
9.63333,-48
9.64167,-49
9.65000,-49
9.65833,-48
9.66667,-48
9.67500,-48
9.68333,-48
9.69167,-48
9.70000,-48
9.70833,-48
9.71667,-48
9.72500,-48
9.73333,-48
9.74167,-48
9.75000,-48
9.75833,-48
9.76667,-48
9.77500,-48
9.78333,-48
9.79167,-48
9.80000,-48
9.80833,-48
9.81667,-48
9.82500,-48
9.83333,-48
9.84167,-48
9.85000,-48
9.85833,-48
9.86667,-47
9.87500,-47
9.88333,-47
9.89167,-47
9.90000,-47
9.90833,-47
9.91667,-47
9.92500,-47
9.93333,-47
9.94167,-47
9.95000,-47
9.95833,-47
9.96667,-47
9.97500,-47
9.98333,-47
9.99167,-47
10.00000,-47
10.00833,-47
10.01667,-47
10.02500,-47
10.03333,-47
10.04167,-47
10.05000,-46
10.05833,-46
10.06667,-46
10.07500,-46
10.08333,-45
10.09167,-45
10.10000,-44
10.10833,-44
10.11667,-43
10.12500,-43
10.13333,-42
10.14167,-41
10.15000,-41
10.15833,-40
10.16667,-38
10.17500,-37
10.18333,-36
10.19167,-35
10.20000,-34
10.20833,-33
10.21667,-32
10.22500,-31
10.23333,-29
10.24167,-28
10.25000,-26
10.25833,-24
10.26667,-22
10.27500,-20
10.28333,-18
10.29167,-15
10.30000,-12
10.30833,-7
10.31667,-3
10.32500,3
10.33333,9
10.34167,16
10.35000,24
10.35833,34
10.36667,45
10.37500,57
10.38333,71
10.39167,86
10.40000,103
10.40833,121
10.41667,140
10.42500,159
10.43333,177
10.44167,195
10.45000,211
10.45833,224
10.46667,235
10.47500,243
10.48333,248
10.49167,250
10.50000,249
10.50833,247
10.51667,245
10.52500,246
10.53333,252
10.54167,266
10.55000,291
10.55833,333
10.56667,395
10.57500,482
10.58333,601
10.59167,757
10.60000,956
10.60833,1203
10.61667,1506
10.62500,1869
10.63333,2300
10.64167,2804
10.65000,3387
10.65833,4053
10.66667,4808
10.67500,5658
10.68333,6607
10.69167,7658
10.70000,8816
10.70833,10084
10.71667,11464
10.72500,12961
10.73333,14575
10.74167,16310
10.75000,18166
10.75833,20143
10.76667,22243
10.77500,24466
10.78333,26812
10.79167,29279
10.80000,31867
10.80833,34574
10.81667,37398
10.82500,40337
10.83333,43386
10.84167,46544
10.85000,49806
10.85833,53166
10.86667,56620
10.87500,60159
10.88333,63776
10.89167,67461
10.90000,71204
10.90833,74990
10.91667,78807
10.92500,82635
10.93333,86453
10.94167,90237
10.95000,93959
10.95833,97584
10.96667,101076
10.97500,104392
10.98333,107484
10.99167,110303
11.00000,112792
11.00833,114895
11.01667,116555
11.02500,117716
11.03333,118326
11.04167,118341
11.05000,117724
11.05833,116453
11.06667,114520
11.07500,111935
11.08333,108726
11.09167,104939
11.10000,100634
11.10833,95889
11.11667,90789
11.12500,85429
11.13333,79906
11.14167,74312
11.15000,68738
11.15833,63265
11.16667,57961
11.17500,52885
11.18333,48081
11.19167,43580
11.20000,39404
11.20833,35561
11.21667,32052
11.22500,28871
11.23333,26005
11.24167,23435
11.25000,21144
11.25833,19108
11.26667,17305
11.27500,15712
11.28333,14308
11.29167,13073
11.30000,11986
11.30833,11029
11.31667,10187
11.32500,9445
11.33333,8790
11.34167,8210
11.35000,7695
11.35833,7238
11.36667,6829
11.37500,6463
11.38333,6132
11.39167,5833
11.40000,5561
11.40833,5311
11.41667,5082
11.42500,4869
11.43333,4672
11.44167,4489
11.45000,4316
11.45833,4154
11.46667,4000
11.47500,3855
11.48333,3716
11.49167,3585
11.50000,3459
11.50833,3338
11.51667,3223
11.52500,3112
11.53333,3006
11.54167,2905
11.55000,2807
11.55833,2714
11.56667,2624
11.57500,2538
11.58333,2455
11.59167,2376
11.60000,2300
11.60833,2227
11.61667,2157
11.62500,2089
11.63333,2025
11.64167,1964
11.65000,1904
11.65833,1848
11.66667,1793
11.67500,1741
11.68333,1692
11.69167,1644
11.70000,1599
11.70833,1555
11.71667,1514
11.72500,1474
11.73333,1435
11.74167,1399
11.75000,1364
11.75833,1330
11.76667,1298
11.77500,1267
11.78333,1238
11.79167,1210
11.80000,1183
11.80833,1157
11.81667,1133
11.82500,1109
11.83333,1087
11.84167,1066
11.85000,1045
11.85833,1025
11.86667,1007
11.87500,988
11.88333,971
11.89167,954
11.90000,939
11.90833,924
11.91667,909
11.92500,895
11.93333,882
11.94167,870
11.95000,858
11.95833,847
11.96667,835
11.97500,825
11.98333,814
11.99167,805
12.00000,796
12.00833,787
12.01667,778
12.02500,770
12.03333,762
12.04167,754
12.05000,746
12.05833,739
12.06667,732
12.07500,726
12.08333,719
12.09167,714
12.10000,708
12.10833,702
12.11667,697
12.12500,691
12.13333,686
12.14167,682
12.15000,677
12.15833,673
12.16667,669
12.17500,665
12.18333,661
12.19167,658
12.20000,654
12.20833,651
12.21667,648
12.22500,646
12.23333,644
12.24167,642
12.25000,639
12.25833,637
12.26667,635
12.27500,634
12.28333,632
12.29167,631
12.30000,630
12.30833,629
12.31667,628
12.32500,628
12.33333,627
12.34167,626
12.35000,626
12.35833,625
12.36667,625
12.37500,625
12.38333,624
12.39167,624
12.40000,623
12.40833,623
12.41667,622
12.42500,622
12.43333,621
12.44167,621
12.45000,620
12.45833,619
12.46667,619
12.47500,618
12.48333,617
12.49167,616
12.50000,615
12.50833,614
12.51667,613
12.52500,612
12.53333,610
12.54167,609
12.55000,608
12.55833,607
12.56667,605
12.57500,604
12.58333,602
12.59167,600
12.60000,598
12.60833,597
12.61667,595
12.62500,593
12.63333,592
12.64167,590
12.65000,588
12.65833,587
12.66667,586
12.67500,586
12.68333,587
12.69167,588
12.70000,590
12.70833,593
12.71667,597
12.72500,602
12.73333,609
12.74167,618
12.75000,628
12.75833,641
12.76667,656
12.77500,673
12.78333,694
12.79167,718
12.80000,745
12.80833,775
12.81667,809
12.82500,847
12.83333,890
12.84167,937
12.85000,988
12.85833,1044
12.86667,1106
12.87500,1172
12.88333,1243
12.89167,1320
12.90000,1402
12.90833,1489
12.91667,1582
12.92500,1680
12.93333,1784
12.94167,1894
12.95000,2010
12.95833,2131
12.96667,2258
12.97500,2391
12.98333,2530
12.99167,2674
13.00000,2824
13.00833,2979
13.01667,3141
13.02500,3307
13.03333,3479
13.04167,3657
13.05000,3840
13.05833,4029
13.06667,4223
13.07500,4422
13.08333,4626
13.09167,4835
13.10000,5049
13.10833,5269
13.11667,5493
13.12500,5722
13.13333,5955
13.14167,6193
13.15000,6436
13.15833,6683
13.16667,6934
13.17500,7189
13.18333,7448
13.19167,7712
13.20000,7979
13.20833,8251
13.21667,8526
13.22500,8804
13.23333,9087
13.24167,9373
13.25000,9663
13.25833,9957
13.26667,10253
13.27500,10553
13.28333,10856
13.29167,11162
13.30000,11472
13.30833,11786
13.31667,12102
13.32500,12422
13.33333,12744
13.34167,13069
13.35000,13397
13.35833,13728
13.36667,14063
13.37500,14401
13.38333,14742
13.39167,15086
13.40000,15433
13.40833,15783
13.41667,16135
13.42500,16491
13.43333,16850
13.44167,17211
13.45000,17576
13.45833,17944
13.46667,18315
13.47500,18688
13.48333,19065
13.49167,19445
13.50000,19828
13.50833,20214
13.51667,20602
13.52500,20994
13.53333,21389
13.54167,21787
13.55000,22188
13.55833,22592
13.56667,22999
13.57500,23410
13.58333,23823
13.59167,24240
13.60000,24660
13.60833,25083
13.61667,25509
13.62500,25939
13.63333,26372
13.64167,26809
13.65000,27249
13.65833,27693
13.66667,28140
13.67500,28590
13.68333,29044
13.69167,29502
13.70000,29964
13.70833,30429
13.71667,30897
13.72500,31370
13.73333,31846
13.74167,32326
13.75000,32809
13.75833,33297
13.76667,33789
13.77500,34284
13.78333,34784
13.79167,35287
13.80000,35795
13.80833,36307
13.81667,36823
13.82500,37343
13.83333,37868
13.84167,38398
13.85000,38932
13.85833,39470
13.86667,40012
13.87500,40559
13.88333,41110
13.89167,41666
13.90000,42227
13.90833,42793
13.91667,43363
13.92500,43938
13.93333,44518
13.94167,45103
13.95000,45693
13.95833,46288
13.96667,46888
13.97500,47493
13.98333,48104
13.99167,48720
14.00000,49341
14.00833,49968
14.01667,50600
14.02500,51237
14.03333,51881
14.04167,52530
14.05000,53184
14.05833,53845
14.06667,54511
14.07500,55183
14.08333,55860
14.09167,56544
14.10000,57235
14.10833,57931
14.11667,58634
14.12500,59343
14.13333,60058
14.14167,60781
14.15000,61510
14.15833,62245
14.16667,62988
14.17500,63737
14.18333,64493
14.19167,65256
14.20000,66026
14.20833,66804
14.21667,67588
14.22500,68380
14.23333,69178
14.24167,69982
14.25000,70789
14.25833,71597
14.26667,72402
14.27500,73200
14.28333,73984
14.29167,74745
14.30000,75473
14.30833,76158
14.31667,76788
14.32500,77349
14.33333,77831
14.34167,78219
14.35000,78503
14.35833,78672
14.36667,78718
14.37500,78632
14.38333,78409
14.39167,78044
14.40000,77535
14.40833,76878
14.41667,76071
14.42500,75113
14.43333,74001
14.44167,72734
14.45000,71310
14.45833,69727
14.46667,67984
14.47500,66083
14.48333,64024
14.49167,61815
14.50000,59462
14.50833,56977
14.51667,54375
14.52500,51675
14.53333,48899
14.54167,46071
14.55000,43217
14.55833,40364
14.56667,37540
14.57500,34769
14.58333,32076
14.59167,29482
14.60000,27005
14.60833,24661
14.61667,22459
14.62500,20407
14.63333,18509
14.64167,16764
14.65000,15171
14.65833,13724
14.66667,12416
14.67500,11240
14.68333,10186
14.69167,9246
14.70000,8409
14.70833,7666
14.71667,7007
14.72500,6424
14.73333,5909
14.74167,5453
14.75000,5051
14.75833,4695
14.76667,4379
14.77500,4100
14.78333,3852
14.79167,3630
14.80000,3433
14.80833,3256
14.81667,3098
14.82500,2955
14.83333,2826
14.84167,2709
14.85000,2602
14.85833,2504
14.86667,2415
14.87500,2333
14.88333,2257
14.89167,2187
14.90000,2122
14.90833,2061
14.91667,2004
14.92500,1951
14.93333,1900
14.94167,1853
14.95000,1808
14.95833,1766
14.96667,1726
14.97500,1687
14.98333,1651
14.99167,1616
15.00000,1584
15.00833,1553
15.01667,1523
15.02500,1495
15.03333,1468
15.04167,1442
15.05000,1417
15.05833,1393
15.06667,1371
15.07500,1350
15.08333,1329
15.09167,1310
15.10000,1292
15.10833,1275
15.11667,1259
15.12500,1244
15.13333,1229
15.14167,1216
15.15000,1203
15.15833,1192
15.16667,1181
15.17500,1172
15.18333,1164
15.19167,1159
15.20000,1155
15.20833,1153
15.21667,1153
15.22500,1156
15.23333,1163
15.24167,1174
15.25000,1191
15.25833,1214
15.26667,1244
15.27500,1283
15.28333,1332
15.29167,1393
15.30000,1468
15.30833,1559
15.31667,1668
15.32500,1798
15.33333,1951
15.34167,2131
15.35000,2340
15.35833,2582
15.36667,2860
15.37500,3178
15.38333,3539
15.39167,3947
15.40000,4405
15.40833,4916
15.41667,5483
15.42500,6109
15.43333,6796
15.44167,7547
15.45000,8364
15.45833,9246
15.46667,10196
15.47500,11212
15.48333,12293
15.49167,13439
15.50000,14647
15.50833,15914
15.51667,17237
15.52500,18610
15.53333,20030
15.54167,21490
15.55000,22984
15.55833,24507
15.56667,26050
15.57500,27606
15.58333,29169
15.59167,30729
15.60000,32280
15.60833,33813
15.61667,35322
15.62500,36799
15.63333,38237
15.64167,39630
15.65000,40970
15.65833,42254
15.66667,43476
15.67500,44632
15.68333,45716
15.69167,46725
15.70000,47657
15.70833,48510
15.71667,49279
15.72500,49965
15.73333,50565
15.74167,51078
15.75000,51503
15.75833,51841
15.76667,52091
15.77500,52254
15.78333,52329
15.79167,52317
15.80000,52220
15.80833,52038
15.81667,51772
15.82500,51424
15.83333,50995
15.84167,50488
15.85000,49905
15.85833,49248
15.86667,48520
15.87500,47724
15.88333,46863
15.89167,45942
15.90000,44964
15.90833,43933
15.91667,42853
15.92500,41729
15.93333,40566
15.94167,39369
15.95000,38143
15.95833,36892
15.96667,35622
15.97500,34338
15.98333,33046
15.99167,31749
16.00000,30453
16.00833,29163
16.01667,27883
16.02500,26618
16.03333,25370
16.04167,24144
16.05000,22944
16.05833,21772
16.06667,20631
16.07500,19524
16.08333,18453
16.09167,17419
16.10000,16424
16.10833,15468
16.11667,14553
16.12500,13679
16.13333,12846
16.14167,12055
16.15000,11305
16.15833,10595
16.16667,9925
16.17500,9294
16.18333,8700
16.19167,8144
16.20000,7622
16.20833,7135
16.21667,6681
16.22500,6258
16.23333,5865
16.24167,5500
16.25000,5161
16.25833,4847
16.26667,4557
16.27500,4290
16.28333,4044
16.29167,3817
16.30000,3608
16.30833,3415
16.31667,3238
16.32500,3076
16.33333,2926
16.34167,2789
16.35000,2664
16.35833,2548
16.36667,2442
16.37500,2345
16.38333,2255
16.39167,2173
16.40000,2097
16.40833,2027
16.41667,1962
16.42500,1902
16.43333,1847
16.44167,1795
16.45000,1747
16.45833,1703
16.46667,1661
16.47500,1622
16.48333,1584
16.49167,1549
16.50000,1517
16.50833,1485
16.51667,1455
16.52500,1427
16.53333,1399
16.54167,1373
16.55000,1347
16.55833,1323
16.56667,1299
16.57500,1276
16.58333,1253
16.59167,1231
16.60000,1209
16.60833,1188
16.61667,1168
16.62500,1147
16.63333,1127
16.64167,1107
16.65000,1088
16.65833,1069
16.66667,1050
16.67500,1032
16.68333,1014
16.69167,996
16.70000,979
16.70833,963
16.71667,947
16.72500,931
16.73333,916
16.74167,901
16.75000,887
16.75833,873
16.76667,859
16.77500,846
16.78333,834
16.79167,821
16.80000,810
16.80833,799
16.81667,788
16.82500,778
16.83333,768
16.84167,759
16.85000,751
16.85833,742
16.86667,735
16.87500,727
16.88333,720
16.89167,714
16.90000,708
16.90833,702
16.91667,696
16.92500,691
16.93333,686
16.94167,681
16.95000,677
16.95833,673
16.96667,670
16.97500,666
16.98333,662
16.99167,659
17.00000,657
17.00833,654
17.01667,652
17.02500,649
17.03333,647
17.04167,645
17.05000,643
17.05833,641
17.06667,640
17.07500,638
17.08333,637
17.09167,636
17.10000,635
17.10833,634
17.11667,633
17.12500,632
17.13333,631
17.14167,630
17.15000,629
17.15833,629
17.16667,628
17.17500,628
17.18333,628
17.19167,627
17.20000,627
17.20833,627
17.21667,627
17.22500,626
17.23333,626
17.24167,626
17.25000,626
17.25833,626
17.26667,625
17.27500,625
17.28333,625
17.29167,625
17.30000,625
17.30833,625
17.31667,624
17.32500,624
17.33333,623
17.34167,623
17.35000,624
17.35833,624
17.36667,624
17.37500,624
17.38333,624
17.39167,624
17.40000,625
17.40833,626
17.41667,626
17.42500,627
17.43333,628
17.44167,630
17.45000,631
17.45833,633
17.46667,635
17.47500,637
17.48333,640
17.49167,642
17.50000,645
17.50833,648
17.51667,652
17.52500,655
17.53333,660
17.54167,664
17.55000,669
17.55833,674
17.56667,679
17.57500,684
17.58333,689
17.59167,695
17.60000,701
17.60833,707
17.61667,713
17.62500,719
17.63333,724
17.64167,731
17.65000,737
17.65833,743
17.66667,750
17.67500,756
17.68333,762
17.69167,768
17.70000,774
17.70833,780
17.71667,786
17.72500,792
17.73333,797
17.74167,802
17.75000,807
17.75833,812
17.76667,817
17.77500,821
17.78333,826
17.79167,830
17.80000,833
17.80833,836
17.81667,839
17.82500,842
17.83333,844
17.84167,847
17.85000,849
17.85833,850
17.86667,851
17.87500,851
17.88333,852
17.89167,852
17.90000,852
17.90833,851
17.91667,850
17.92500,849
17.93333,847
17.94167,844
17.95000,842
17.95833,838
17.96667,835
17.97500,831
17.98333,826
17.99167,821
18.00000,817
18.00833,812
18.01667,806
18.02500,800
18.03333,794
18.04167,787
18.05000,780
18.05833,773
18.06667,765
18.07500,758
18.08333,750
18.09167,743
18.10000,735
18.10833,727
18.11667,718
18.12500,710
18.13333,702
18.14167,694
18.15000,686
18.15833,677
18.16667,669
18.17500,661
18.18333,653
18.19167,645
18.20000,637
18.20833,629
18.21667,621
18.22500,614
18.23333,606
18.24167,599
18.25000,592
18.25833,585
18.26667,578
18.27500,572
18.28333,566
18.29167,560
18.30000,555
18.30833,550
18.31667,545
18.32500,540
18.33333,536
18.34167,532
18.35000,527
18.35833,523
18.36667,520
18.37500,516
18.38333,513
18.39167,511
18.40000,509
18.40833,507
18.41667,505
18.42500,503
18.43333,502
18.44167,502
18.45000,501
18.45833,501
18.46667,501
18.47500,502
18.48333,502
18.49167,503
18.50000,504
18.50833,506
18.51667,507
18.52500,509
18.53333,511
18.54167,513
18.55000,515
18.55833,518
18.56667,521
18.57500,524
18.58333,528
18.59167,532
18.60000,535
18.60833,539
18.61667,543
18.62500,547
18.63333,552
18.64167,556
18.65000,561
18.65833,566
18.66667,570
18.67500,575
18.68333,580
18.69167,585
18.70000,590
18.70833,595
18.71667,600
18.72500,606
18.73333,611
18.74167,616
18.75000,622
18.75833,627
18.76667,632
18.77500,638
18.78333,643
18.79167,649
18.80000,655
18.80833,660
18.81667,665
18.82500,671
18.83333,676
18.84167,681
18.85000,686
18.85833,691
18.86667,696
18.87500,701
18.88333,705
18.89167,709
18.90000,714
18.90833,718
18.91667,722
18.92500,726
18.93333,729
18.94167,733
18.95000,736
18.95833,739
18.96667,741
18.97500,744
18.98333,747
18.99167,749
19.00000,751
19.00833,753
19.01667,755
19.02500,756
19.03333,757
19.04167,758
19.05000,758
19.05833,759
19.06667,759
19.07500,759
19.08333,759
19.09167,758
19.10000,757
19.10833,756
19.11667,754
19.12500,753
19.13333,751
19.14167,749
19.15000,747
19.15833,745
19.16667,742
19.17500,740
19.18333,737
19.19167,733
19.20000,730
19.20833,726
19.21667,722
19.22500,718
19.23333,714
19.24167,709
19.25000,705
19.25833,701
19.26667,696
19.27500,691
19.28333,686
19.29167,681
19.30000,676
19.30833,670
19.31667,665
19.32500,659
19.33333,653
19.34167,647
19.35000,642
19.35833,636
19.36667,630
19.37500,624
19.38333,617
19.39167,611
19.40000,605
19.40833,599
19.41667,593
19.42500,587
19.43333,581
19.44167,576
19.45000,570
19.45833,564
19.46667,559
19.47500,553
19.48333,547
19.49167,542
19.50000,536
19.50833,530
19.51667,525
19.52500,519
19.53333,514
19.54167,509
19.55000,504
19.55833,499
19.56667,494
19.57500,489
19.58333,484
19.59167,480
19.60000,475
19.60833,471
19.61667,467
19.62500,463
19.63333,459
19.64167,456
19.65000,452
19.65833,449
19.66667,445
19.67500,443
19.68333,440
19.69167,438
19.70000,435
19.70833,433
19.71667,431
19.72500,430
19.73333,429
19.74167,429
19.75000,429
19.75833,429
19.76667,429
19.77500,430
19.78333,431
19.79167,432
19.80000,434
19.80833,437
19.81667,440
19.82500,443
19.83333,447
19.84167,451
19.85000,457
19.85833,463
19.86667,469
19.87500,476
19.88333,484
19.89167,492
19.90000,501
19.90833,511
19.91667,522
19.92500,533
19.93333,544
19.94167,556
19.95000,568
19.95833,580
19.96667,594
19.97500,608
19.98333,622
19.99167,637
20.00000,652
20.00833,667
20.01667,682
20.02500,697
20.03333,712
20.04167,728
20.05000,744
20.05833,759
20.06667,775
20.07500,791
20.08333,807
20.09167,822
20.10000,837
20.10833,852
20.11667,866
20.12500,880
20.13333,894
20.14167,907
20.15000,920
20.15833,932
20.16667,944
20.17500,955
20.18333,966
20.19167,976
20.20000,985
20.20833,994
20.21667,1001
20.22500,1009
20.23333,1015
20.24167,1021
20.25000,1027
20.25833,1032
20.26667,1036
20.27500,1040
20.28333,1042
20.29167,1044
20.30000,1045
20.30833,1046
20.31667,1046
20.32500,1045
20.33333,1044
20.34167,1042
20.35000,1039
20.35833,1036
20.36667,1032
20.37500,1028
20.38333,1023
20.39167,1017
20.40000,1011
20.40833,1004
20.41667,998
20.42500,990
20.43333,983
20.44167,976
20.45000,967
20.45833,959
20.46667,951
20.47500,943
20.48333,934
20.49167,925
20.50000,917
20.50833,908
20.51667,899
20.52500,891
20.53333,883
20.54167,875
20.55000,867
20.55833,860
20.56667,853
20.57500,847
20.58333,841
20.59167,836
20.60000,832
20.60833,827
20.61667,824
20.62500,821
20.63333,819
20.64167,817
20.65000,816
20.65833,815
20.66667,815
20.67500,816
20.68333,817
20.69167,819
20.70000,822
20.70833,824
20.71667,827
20.72500,830
20.73333,834
20.74167,837
20.75000,841
20.75833,845
20.76667,850
20.77500,855
20.78333,859
20.79167,864
20.80000,869
20.80833,874
20.81667,878
20.82500,883
20.83333,887
20.84167,891
20.85000,895
20.85833,899
20.86667,903
20.87500,907
20.88333,910
20.89167,913
20.90000,916
20.90833,919
20.91667,921
20.92500,923
20.93333,925
20.94167,926
20.95000,927
20.95833,928
20.96667,928
20.97500,928
20.98333,927
20.99167,926
21.00000,924
21.00833,923
21.01667,921
21.02500,918
21.03333,915
21.04167,912
21.05000,908
21.05833,904
21.06667,899
21.07500,894
21.08333,889
21.09167,884
21.10000,878
21.10833,872
21.11667,865
21.12500,858
21.13333,851
21.14167,843
21.15000,835
21.15833,827
21.16667,819
21.17500,810
21.18333,802
21.19167,793
21.20000,784
21.20833,775
21.21667,766
21.22500,756
21.23333,747
21.24167,738
21.25000,729
21.25833,719
21.26667,710
21.27500,702
21.28333,693
21.29167,685
21.30000,678
21.30833,670
21.31667,664
21.32500,657
21.33333,651
21.34167,645
21.35000,641
21.35833,637
21.36667,634
21.37500,633
21.38333,632
21.39167,631
21.40000,632
21.40833,634
21.41667,636
21.42500,640
21.43333,646
21.44167,653
21.45000,661
21.45833,670
21.46667,681
21.47500,694
21.48333,708
21.49167,723
21.50000,740
21.50833,758
21.51667,778
21.52500,799
21.53333,822
21.54167,845
21.55000,871
21.55833,898
21.56667,926
21.57500,955
21.58333,984
21.59167,1015
21.60000,1046
21.60833,1078
21.61667,1110
21.62500,1143
21.63333,1177
21.64167,1210
21.65000,1243
21.65833,1276
21.66667,1309
21.67500,1342
21.68333,1374
21.69167,1406
21.70000,1437
21.70833,1467
21.71667,1497
21.72500,1525
21.73333,1552
21.74167,1579
21.75000,1604
21.75833,1628
21.76667,1650
21.77500,1672
21.78333,1693
21.79167,1712
21.80000,1729
21.80833,1746
21.81667,1761
21.82500,1775
21.83333,1788
21.84167,1799
21.85000,1809
21.85833,1819
21.86667,1827
21.87500,1833
21.88333,1838
21.89167,1842
21.90000,1845
21.90833,1846
21.91667,1845
21.92500,1844
21.93333,1841
21.94167,1837
21.95000,1831
21.95833,1824
21.96667,1815
21.97500,1805
21.98333,1794
21.99167,1781
22.00000,1766
22.00833,1750
22.01667,1733
22.02500,1714
22.03333,1693
22.04167,1672
22.05000,1650
22.05833,1626
22.06667,1601
22.07500,1575
22.08333,1548
22.09167,1519
22.10000,1490
22.10833,1460
22.11667,1429
22.12500,1398
22.13333,1366
22.14167,1333
22.15000,1300
22.15833,1267
22.16667,1233
22.17500,1200
22.18333,1166
22.19167,1132
22.20000,1099
22.20833,1066
22.21667,1033
22.22500,1000
22.23333,968
22.24167,937
22.25000,906
22.25833,876
22.26667,847
22.27500,818
22.28333,790
22.29167,763
22.30000,737
22.30833,713
22.31667,688
22.32500,665
22.33333,643
22.34167,622
22.35000,601
22.35833,582
22.36667,563
22.37500,545
22.38333,529
22.39167,513
22.40000,498
22.40833,484
22.41667,471
22.42500,459
22.43333,448
22.44167,438
22.45000,428
22.45833,418
22.46667,410
22.47500,403
22.48333,396
22.49167,389
22.50000,384
22.50833,379
22.51667,374
22.52500,370
22.53333,367
22.54167,364
22.55000,362
22.55833,360
22.56667,359
22.57500,358
22.58333,358
22.59167,359
22.60000,360
22.60833,362
22.61667,363
22.62500,366
22.63333,370
22.64167,373
22.65000,378
22.65833,383
22.66667,389
22.67500,395
22.68333,402
22.69167,410
22.70000,418
22.70833,427
22.71667,435
22.72500,445
22.73333,455
22.74167,466
22.75000,478
22.75833,490
22.76667,502
22.77500,515
22.78333,527
22.79167,541
22.80000,555
22.80833,570
22.81667,584
22.82500,599
22.83333,614
22.84167,629
22.85000,644
22.85833,659
22.86667,674
22.87500,690
22.88333,705
22.89167,721
22.90000,736
22.90833,751
22.91667,766
22.92500,781
22.93333,796
22.94167,810
22.95000,824
22.95833,837
22.96667,850
22.97500,863
22.98333,875
22.99167,887
23.00000,899
23.00833,910
23.01667,920
23.02500,930
23.03333,940
23.04167,949
23.05000,958
23.05833,966
23.06667,974
23.07500,981
23.08333,987
23.09167,992
23.10000,997
23.10833,1002
23.11667,1006
23.12500,1009
23.13333,1012
23.14167,1014
23.15000,1015
23.15833,1016
23.16667,1016
23.17500,1015
23.18333,1014
23.19167,1012
23.20000,1009
23.20833,1005
23.21667,1001
23.22500,996
23.23333,990
23.24167,984
23.25000,976
23.25833,969
23.26667,961
23.27500,952
23.28333,943
23.29167,933
23.30000,922
23.30833,911
23.31667,900
23.32500,888
23.33333,876
23.34167,864
23.35000,851
23.35833,838
23.36667,825
23.37500,812
23.38333,798
23.39167,784
23.40000,771
23.40833,757
23.41667,744
23.42500,730
23.43333,716
23.44167,702
23.45000,689
23.45833,676
23.46667,663
23.47500,650
23.48333,638
23.49167,626
23.50000,614
23.50833,603
23.51667,592
23.52500,582
23.53333,572
23.54167,562
23.55000,552
23.55833,543
23.56667,533
23.57500,525
23.58333,517
23.59167,509
23.60000,502
23.60833,495
23.61667,488
23.62500,482
23.63333,475
23.64167,470
23.65000,464
23.65833,459
23.66667,455
23.67500,451
23.68333,446
23.69167,442
23.70000,438
23.70833,434
23.71667,431
23.72500,427
23.73333,424
23.74167,420
23.75000,417
23.75833,415
23.76667,413
23.77500,411
23.78333,409
23.79167,407
23.80000,404
23.80833,402
23.81667,400
23.82500,398
23.83333,396
23.84167,394
23.85000,393
23.85833,391
23.86667,389
23.87500,387
23.88333,385
23.89167,383
23.90000,382
23.90833,380
23.91667,379
23.92500,377
23.93333,376
23.94167,374
23.95000,373
23.95833,372
23.96667,371
23.97500,369
23.98333,368
23.99167,367
24.00000,365
24.00833,364
24.01667,362
24.02500,361
24.03333,360
24.04167,359
24.05000,357
24.05833,356
24.06667,355
24.07500,354
24.08333,352
24.09167,351
24.10000,349
24.10833,347
24.11667,346
24.12500,345
24.13333,344
24.14167,343
24.15000,342
24.15833,341
24.16667,340
24.17500,339
24.18333,337
24.19167,336
24.20000,335
24.20833,334
24.21667,334
24.22500,333
24.23333,333
24.24167,332
24.25000,332
24.25833,331
24.26667,331
24.27500,331
24.28333,331
24.29167,331
24.30000,331
24.30833,330
24.31667,330
24.32500,331
24.33333,332
24.34167,334
24.35000,335
24.35833,336
24.36667,339
24.37500,342
24.38333,345
24.39167,349
24.40000,353
24.40833,358
24.41667,365
24.42500,372
24.43333,380
24.44167,389
24.45000,399
24.45833,411
24.46667,424
24.47500,438
24.48333,454
24.49167,472
24.50000,491
24.50833,513
24.51667,537
24.52500,563
24.53333,591
24.54167,621
24.55000,653
24.55833,688
24.56667,726
24.57500,767
24.58333,811
24.59167,857
24.60000,906
24.60833,958
24.61667,1013
24.62500,1071
24.63333,1132
24.64167,1195
24.65000,1261
24.65833,1329
24.66667,1400
24.67500,1474
24.68333,1549
24.69167,1627
24.70000,1707
24.70833,1790
24.71667,1873
24.72500,1958
24.73333,2045
24.74167,2133
24.75000,2221
24.75833,2310
24.76667,2398
24.77500,2487
24.78333,2576
24.79167,2665
24.80000,2753
24.80833,2840
24.81667,2927
24.82500,3013
24.83333,3096
24.84167,3179
24.85000,3259
24.85833,3338
24.86667,3415
24.87500,3490
24.88333,3562
24.89167,3633
24.90000,3701
24.90833,3767
24.91667,3830
24.92500,3890
24.93333,3949
24.94167,4004
24.95000,4056
24.95833,4106
24.96667,4154
24.97500,4199
24.98333,4241
24.99167,4280
25.00000,4316
25.00833,4350
25.01667,4381
25.02500,4408
25.03333,4433
25.04167,4455
25.05000,4474
25.05833,4490
25.06667,4503
25.07500,4513
25.08333,4519
25.09167,4523
25.10000,4523
25.10833,4520
25.11667,4514
25.12500,4504
25.13333,4491
25.14167,4474
25.15000,4454
25.15833,4430
25.16667,4403
25.17500,4372
25.18333,4338
25.19167,4301
25.20000,4260
25.20833,4215
25.21667,4168
25.22500,4117
25.23333,4063
25.24167,4006
25.25000,3946
25.25833,3883
25.26667,3818
25.27500,3750
25.28333,3679
25.29167,3607
25.30000,3532
25.30833,3455
25.31667,3377
25.32500,3297
25.33333,3217
25.34167,3135
25.35000,3053
25.35833,2971
25.36667,2887
25.37500,2804
25.38333,2720
25.39167,2637
25.40000,2554
25.40833,2471
25.41667,2389
25.42500,2308
25.43333,2228
25.44167,2149
25.45000,2072
25.45833,1996
25.46667,1922
25.47500,1849
25.48333,1779
25.49167,1710
25.50000,1643
25.50833,1578
25.51667,1516
25.52500,1455
25.53333,1397
25.54167,1340
25.55000,1286
25.55833,1234
25.56667,1184
25.57500,1136
25.58333,1090
25.59167,1047
25.60000,1005
25.60833,965
25.61667,926
25.62500,890
25.63333,856
25.64167,823
25.65000,792
25.65833,762
25.66667,735
25.67500,709
25.68333,684
25.69167,660
25.70000,639
25.70833,618
25.71667,598
25.72500,579
25.73333,561
25.74167,544
25.75000,529
25.75833,514
25.76667,500
25.77500,486
25.78333,474
25.79167,461
25.80000,450
25.80833,439
25.81667,429
25.82500,419
25.83333,410
25.84167,401
25.85000,392
25.85833,384
25.86667,376
25.87500,368
25.88333,361
25.89167,355
25.90000,348
25.90833,342
25.91667,335
25.92500,329
25.93333,323
25.94167,317
25.95000,312
25.95833,306
25.96667,301
25.97500,295
25.98333,290
25.99167,285
26.00000,280
26.00833,275
26.01667,270
26.02500,265
26.03333,260
26.04167,255
26.05000,250
26.05833,245
26.06667,241
26.07500,237
26.08333,232
26.09167,228
26.10000,223
26.10833,220
26.11667,216
26.12500,212
26.13333,208
26.14167,205
26.15000,201
26.15833,197
26.16667,194
26.17500,190
26.18333,187
26.19167,185
26.20000,182
26.20833,179
26.21667,177
26.22500,174
26.23333,171
26.24167,168
26.25000,166
26.25833,163
26.26667,161
26.27500,159
26.28333,157
26.29167,156
26.30000,154
26.30833,153
26.31667,151
26.32500,150
26.33333,149
26.34167,148
26.35000,147
26.35833,146
26.36667,145
26.37500,144
26.38333,143
26.39167,142
26.40000,141
26.40833,141
26.41667,140
26.42500,140
26.43333,139
26.44167,139
26.45000,139
26.45833,138
26.46667,138
26.47500,137
26.48333,137
26.49167,136
26.50000,136
26.50833,136
26.51667,136
26.52500,136
26.53333,136
26.54167,136
26.55000,135
26.55833,135
26.56667,135
26.57500,135
26.58333,136
26.59167,136
26.60000,136
26.60833,137
26.61667,137
26.62500,137
26.63333,138
26.64167,138
26.65000,138
26.65833,138
26.66667,138
26.67500,139
26.68333,139
26.69167,139
26.70000,139
26.70833,140
26.71667,140
26.72500,140
26.73333,141
26.74167,141
26.75000,140
26.75833,141
26.76667,141
26.77500,141
26.78333,141
26.79167,141
26.80000,141
26.80833,142
26.81667,142
26.82500,142
26.83333,143
26.84167,144
26.85000,144
26.85833,144
26.86667,144
26.87500,144
26.88333,144
26.89167,145
26.90000,145
26.90833,145
26.91667,146
26.92500,146
26.93333,146
26.94167,146
26.95000,146
26.95833,146
26.96667,147
26.97500,147
26.98333,147
26.99167,148
27.00000,148
27.00833,148
27.01667,148
27.02500,149
27.03333,149
27.04167,148
27.05000,149
27.05833,149
27.06667,149
27.07500,149
27.08333,149
27.09167,149
27.10000,149
27.10833,149
27.11667,149
27.12500,149
27.13333,149
27.14167,149
27.15000,149
27.15833,149
27.16667,149
27.17500,148
27.18333,148
27.19167,148
27.20000,148
27.20833,148
27.21667,148
27.22500,148
27.23333,148
27.24167,148
27.25000,147
27.25833,147
27.26667,147
27.27500,148
27.28333,148
27.29167,148
27.30000,148
27.30833,148
27.31667,148
27.32500,147
27.33333,147
27.34167,146
27.35000,146
27.35833,145
27.36667,145
27.37500,145
27.38333,144
27.39167,144
27.40000,143
27.40833,142
27.41667,142
27.42500,141
27.43333,141
27.44167,140
27.45000,140
27.45833,140
27.46667,139
27.47500,139
27.48333,138
27.49167,138
27.50000,137
27.50833,136
27.51667,135
27.52500,134
27.53333,133
27.54167,132
27.55000,131
27.55833,130
27.56667,129
27.57500,129
27.58333,128
27.59167,127
27.60000,127
27.60833,126
27.61667,125
27.62500,123
27.63333,122
27.64167,122
27.65000,121
27.65833,120
27.66667,120
27.67500,119
27.68333,118
27.69167,117
27.70000,116
27.70833,115
27.71667,114
27.72500,113
27.73333,112
27.74167,111
27.75000,110
27.75833,109
27.76667,109
27.77500,108
27.78333,107
27.79167,107
27.80000,106
27.80833,106
27.81667,105
27.82500,104
27.83333,104
27.84167,103
27.85000,103
27.85833,102
27.86667,101
27.87500,100
27.88333,100
27.89167,99
27.90000,99
27.90833,98
27.91667,98
27.92500,98
27.93333,98
27.94167,98
27.95000,97
27.95833,97
27.96667,97
27.97500,97
27.98333,97
27.99167,97
28.00000,97
28.00833,97
28.01667,97
28.02500,98
28.03333,98
28.04167,98
28.05000,98
28.05833,98
28.06667,98
28.07500,98
28.08333,97
28.09167,98
28.10000,98
28.10833,99
28.11667,100
28.12500,101
28.13333,101
28.14167,101
28.15000,101
28.15833,102
28.16667,102
28.17500,102
28.18333,103
28.19167,103
28.20000,103
28.20833,104
28.21667,104
28.22500,105
28.23333,105
28.24167,106
28.25000,106
28.25833,106
28.26667,106
28.27500,107
28.28333,107
28.29167,108
28.30000,109
28.30833,111
28.31667,112
28.32500,112
28.33333,113
28.34167,114
28.35000,116
28.35833,118
28.36667,120
28.37500,123
28.38333,125
28.39167,128
28.40000,131
28.40833,134
28.41667,137
28.42500,140
28.43333,145
28.44167,149
28.45000,154
28.45833,160
28.46667,166
28.47500,174
28.48333,181
28.49167,190
28.50000,199
28.50833,210
28.51667,221
28.52500,233
28.53333,245
28.54167,259
28.55000,273
28.55833,289
28.56667,307
28.57500,325
28.58333,345
28.59167,366
28.60000,388
28.60833,412
28.61667,437
28.62500,464
28.63333,492
28.64167,522
28.65000,553
28.65833,586
28.66667,621
28.67500,657
28.68333,695
28.69167,735
28.70000,777
28.70833,819
28.71667,864
28.72500,910
28.73333,957
28.74167,1006
28.75000,1056
28.75833,1108
28.76667,1161
28.77500,1215
28.78333,1270
28.79167,1326
28.80000,1383
28.80833,1441
28.81667,1499
28.82500,1558
28.83333,1617
28.84167,1677
28.85000,1737
28.85833,1797
28.86667,1857
28.87500,1917
28.88333,1977
28.89167,2037
28.90000,2095
28.90833,2154
28.91667,2212
28.92500,2268
28.93333,2324
28.94167,2379
28.95000,2432
28.95833,2484
28.96667,2535
28.97500,2585
28.98333,2633
28.99167,2679
29.00000,2723
29.00833,2767
29.01667,2809
29.02500,2849
29.03333,2887
29.04167,2923
29.05000,2958
29.05833,2990
29.06667,3021
29.07500,3050
29.08333,3078
29.09167,3103
29.10000,3126
29.10833,3148
29.11667,3168
29.12500,3187
29.13333,3204
29.14167,3219
29.15000,3232
29.15833,3243
29.16667,3253
29.17500,3261
29.18333,3268
29.19167,3274
29.20000,3277
29.20833,3279
29.21667,3279
29.22500,3278
29.23333,3275
29.24167,3270
29.25000,3264
29.25833,3256
29.26667,3247
29.27500,3236
29.28333,3224
29.29167,3210
29.30000,3194
29.30833,3177
29.31667,3158
29.32500,3138
29.33333,3116
29.34167,3092
29.35000,3067
29.35833,3041
29.36667,3012
29.37500,2982
29.38333,2950
29.39167,2916
29.40000,2881
29.40833,2845
29.41667,2807
29.42500,2768
29.43333,2728
29.44167,2686
29.45000,2643
29.45833,2599
29.46667,2553
29.47500,2507
29.48333,2460
29.49167,2411
29.50000,2362
29.50833,2311
29.51667,2261
29.52500,2209
29.53333,2158
29.54167,2105
29.55000,2052
29.55833,1999
29.56667,1946
29.57500,1892
29.58333,1839
29.59167,1785
29.60000,1732
29.60833,1680
29.61667,1627
29.62500,1575
29.63333,1524
29.64167,1473
29.65000,1422
29.65833,1372
29.66667,1323
29.67500,1275
29.68333,1228
29.69167,1181
29.70000,1136
29.70833,1092
29.71667,1049
29.72500,1007
29.73333,966
29.74167,926
29.75000,888
29.75833,850
29.76667,813
29.77500,778
29.78333,744
29.79167,711
29.80000,680
29.80833,650
29.81667,621
29.82500,593
29.83333,566
29.84167,540
29.85000,515
29.85833,492
29.86667,469
29.87500,448
29.88333,428
29.89167,408
29.90000,389
29.90833,372
29.91667,355
29.92500,339
29.93333,323
29.94167,309
29.95000,296
29.95833,283
29.96667,271
29.97500,259
29.98333,248
29.99167,238
30.00000,228
30.00833,219
30.01667,210
30.02500,202
30.03333,194
30.04167,187
30.05000,180
30.05833,174
30.06667,168
30.07500,162
30.08333,156
30.09167,151
30.10000,145
30.10833,140
30.11667,136
30.12500,131
30.13333,127
30.14167,123
30.15000,119
30.15833,116
30.16667,112
30.17500,109
30.18333,106
30.19167,103
30.20000,99
30.20833,96
30.21667,92
30.22500,89
30.23333,87
30.24167,84
30.25000,82
30.25833,80
30.26667,77
30.27500,75
30.28333,73
30.29167,71
30.30000,69
30.30833,67
30.31667,65
30.32500,63
30.33333,61
30.34167,59
30.35000,58
30.35833,56
30.36667,55
30.37500,54
30.38333,52
30.39167,51
30.40000,50
30.40833,48
30.41667,47
30.42500,46
30.43333,46
30.44167,45
30.45000,45
30.45833,44
30.46667,43
30.47500,43
30.48333,43
30.49167,42
30.50000,41
30.50833,41
30.51667,42
30.52500,42
30.53333,42
30.54167,43
30.55000,43
30.55833,43
30.56667,43
30.57500,43
30.58333,44
30.59167,45
30.60000,46
30.60833,47
30.61667,48
30.62500,49
30.63333,51
30.64167,52
30.65000,54
30.65833,56
30.66667,57
30.67500,59
30.68333,61
30.69167,63
30.70000,64
30.70833,66
30.71667,69
30.72500,71
30.73333,73
30.74167,75
30.75000,77
30.75833,79
30.76667,82
30.77500,85
30.78333,87
30.79167,90
30.80000,92
30.80833,94
30.81667,96
30.82500,99
30.83333,101
30.84167,104
30.85000,107
30.85833,110
30.86667,112
30.87500,115
30.88333,118
30.89167,120
30.90000,123
30.90833,126
30.91667,128
30.92500,131
30.93333,133
30.94167,136
30.95000,139
30.95833,141
30.96667,144
30.97500,147
30.98333,149
30.99167,151
31.00000,154
31.00833,156
31.01667,158
31.02500,160
31.03333,162
31.04167,165
31.05000,167
31.05833,169
31.06667,170
31.07500,171
31.08333,173
31.09167,174
31.10000,175
31.10833,177
31.11667,178
31.12500,179
31.13333,180
31.14167,181
31.15000,182
31.15833,183
31.16667,184
31.17500,185
31.18333,186
31.19167,186
31.20000,186
31.20833,187
31.21667,187
31.22500,188
31.23333,188
31.24167,188
31.25000,188
31.25833,188
31.26667,189
31.27500,189
31.28333,188
31.29167,188
31.30000,187
31.30833,187
31.31667,186
31.32500,186
31.33333,185
31.34167,185
31.35000,184
31.35833,184
31.36667,184
31.37500,183
31.38333,182
31.39167,181
31.40000,180
31.40833,178
31.41667,177
31.42500,177
31.43333,176
31.44167,175
31.45000,175
31.45833,174
31.46667,174
31.47500,173
31.48333,172
31.49167,171
31.50000,171
31.50833,170
31.51667,170
31.52500,170
31.53333,170
31.54167,169
31.55000,169
31.55833,169
31.56667,169
31.57500,170
31.58333,170
31.59167,171
31.60000,172
31.60833,173
31.61667,174
31.62500,176
31.63333,178
31.64167,179
31.65000,181
31.65833,183
31.66667,185
31.67500,188
31.68333,191
31.69167,194
31.70000,198
31.70833,201
31.71667,205
31.72500,208
31.73333,213
31.74167,217
31.75000,222
31.75833,226
31.76667,231
31.77500,237
31.78333,243
31.79167,249
31.80000,255
31.80833,262
31.81667,268
31.82500,275
31.83333,282
31.84167,289
31.85000,297
31.85833,304
31.86667,312
31.87500,320
31.88333,328
31.89167,336
31.90000,344
31.90833,352
31.91667,360
31.92500,369
31.93333,377
31.94167,386
31.95000,395
31.95833,403
31.96667,412
31.97500,420
31.98333,428
31.99167,436
32.00000,444
32.00833,452
32.01667,461
32.02500,469
32.03333,477
32.04167,484
32.05000,492
32.05833,500
32.06667,507
32.07500,514
32.08333,521
32.09167,528
32.10000,535
32.10833,542
32.11667,549
32.12500,556
32.13333,562
32.14167,568
32.15000,573
32.15833,579
32.16667,584
32.17500,589
32.18333,594
32.19167,598
32.20000,603
32.20833,607
32.21667,612
32.22500,617
32.23333,621
32.24167,625
32.25000,628
32.25833,631
32.26667,634
32.27500,637
32.28333,639
32.29167,641
32.30000,644
32.30833,646
32.31667,647
32.32500,649
32.33333,650
32.34167,651
32.35000,652
32.35833,653
32.36667,653
32.37500,653
32.38333,653
32.39167,653
32.40000,652
32.40833,651
32.41667,650
32.42500,649
32.43333,647
32.44167,645
32.45000,643
32.45833,641
32.46667,638
32.47500,635
32.48333,632
32.49167,628
32.50000,625
32.50833,621
32.51667,617
32.52500,612
32.53333,608
32.54167,603
32.55000,598
32.55833,593
32.56667,588
32.57500,582
32.58333,576
32.59167,570
32.60000,565
32.60833,559
32.61667,553
32.62500,547
32.63333,541
32.64167,535
32.65000,529
32.65833,523
32.66667,516
32.67500,510
32.68333,503
32.69167,497
32.70000,491
32.70833,484
32.71667,478
32.72500,472
32.73333,467
32.74167,461
32.75000,455
32.75833,449
32.76667,444
32.77500,438
32.78333,433
32.79167,427
32.80000,422
32.80833,417
32.81667,412
32.82500,407
32.83333,402
32.84167,398
32.85000,394
32.85833,390
32.86667,386
32.87500,383
32.88333,379
32.89167,376
32.90000,374
32.90833,371
32.91667,368
32.92500,366
32.93333,364
32.94167,362
32.95000,361
32.95833,359
32.96667,357
32.97500,356
32.98333,354
32.99167,353
33.00000,352
33.00833,351
33.01667,350
33.02500,349
33.03333,348
33.04167,347
33.05000,346
33.05833,345
33.06667,345
33.07500,345
33.08333,344
33.09167,344
33.10000,344
33.10833,344
33.11667,343
33.12500,343
33.13333,343
33.14167,343
33.15000,343
33.15833,344
33.16667,344
33.17500,344
33.18333,343
33.19167,343
33.20000,342
33.20833,342
33.21667,342
33.22500,341
33.23333,341
33.24167,340
33.25000,340
33.25833,339
33.26667,339
33.27500,338
33.28333,337
33.29167,336
33.30000,335
33.30833,334
33.31667,333
33.32500,332
33.33333,331
33.34167,329
33.35000,328
33.35833,327
33.36667,326
33.37500,325
33.38333,323
33.39167,321
33.40000,320
33.40833,318
33.41667,317
33.42500,315
33.43333,313
33.44167,311
33.45000,309
33.45833,307
33.46667,305
33.47500,303
33.48333,300
33.49167,298
33.50000,296
33.50833,293
33.51667,291
33.52500,288
33.53333,285
33.54167,283
33.55000,280
33.55833,277
33.56667,274
33.57500,271
33.58333,268
33.59167,265
33.60000,263
33.60833,260
33.61667,257
33.62500,254
33.63333,251
33.64167,248
33.65000,245
33.65833,241
33.66667,238
33.67500,235
33.68333,231
33.69167,228
33.70000,224
33.70833,221
33.71667,218
33.72500,214
33.73333,211
33.74167,208
33.75000,204
33.75833,201
33.76667,198
33.77500,195
33.78333,192
33.79167,188
33.80000,185
33.80833,182
33.81667,178
33.82500,175
33.83333,172
33.84167,169
33.85000,165
33.85833,162
33.86667,159
33.87500,156
33.88333,152
33.89167,149
33.90000,147
33.90833,143
33.91667,140
33.92500,137
33.93333,134
33.94167,131
33.95000,128
33.95833,125
33.96667,123
33.97500,120
33.98333,117
33.99167,114
34.00000,112
34.00833,109
34.01667,107
34.02500,105
34.03333,102
34.04167,100
34.05000,97
34.05833,95
34.06667,93
34.07500,91
34.08333,89
34.09167,87
34.10000,85
34.10833,83
34.11667,81
34.12500,79
34.13333,77
34.14167,75
34.15000,74
34.15833,72
34.16667,70
34.17500,69
34.18333,67
34.19167,66
34.20000,65
34.20833,63
34.21667,62
34.22500,61
34.23333,59
34.24167,58
34.25000,57
34.25833,56
34.26667,54
34.27500,53
34.28333,52
34.29167,51
34.30000,50
34.30833,49
34.31667,48
34.32500,47
34.33333,46
34.34167,46
34.35000,45
34.35833,45
34.36667,44
34.37500,43
34.38333,42
34.39167,42
34.40000,41
34.40833,40
34.41667,40
34.42500,39
34.43333,38
34.44167,38
34.45000,38
34.45833,37
34.46667,37
34.47500,36
34.48333,36
34.49167,36
34.50000,35
34.50833,35
34.51667,34
34.52500,33
34.53333,32
34.54167,32
34.55000,31
34.55833,31
34.56667,31
34.57500,31
34.58333,31
34.59167,30
34.60000,30
34.60833,29
34.61667,29
34.62500,28
34.63333,28
34.64167,28
34.65000,27
34.65833,27
34.66667,26
34.67500,26
34.68333,26
34.69167,26
34.70000,25
34.70833,25
34.71667,25
34.72500,25
34.73333,25
34.74167,25
34.75000,24
34.75833,24
34.76667,24
34.77500,24
34.78333,24
34.79167,24
34.80000,23
34.80833,23
34.81667,23
34.82500,23
34.83333,22
34.84167,22
34.85000,22
34.85833,22
34.86667,22
34.87500,22
34.88333,21
34.89167,21
34.90000,21
34.90833,21
34.91667,21
34.92500,21
34.93333,21
34.94167,20
34.95000,20
34.95833,21
34.96667,21
34.97500,21
34.98333,21
34.99167,21
35.00000,21
35.00833,20
35.01667,20
35.02500,20
35.03333,20
35.04167,19
35.05000,19
35.05833,19
35.06667,20
35.07500,20
35.08333,20
35.09167,20
35.10000,19
35.10833,19
35.11667,19
35.12500,19
35.13333,19
35.14167,19
35.15000,20
35.15833,20
35.16667,20
35.17500,21
35.18333,21
35.19167,21
35.20000,21
35.20833,21
35.21667,21
35.22500,22
35.23333,22
35.24167,22
35.25000,22
35.25833,21
35.26667,21
35.27500,21
35.28333,21
35.29167,21
35.30000,22
35.30833,22
35.31667,22
35.32500,23
35.33333,23
35.34167,23
35.35000,22
35.35833,23
35.36667,23
35.37500,23
35.38333,23
35.39167,23
35.40000,23
35.40833,23
35.41667,23
35.42500,23
35.43333,23
35.44167,24
35.45000,24
35.45833,24
35.46667,24
35.47500,24
35.48333,24
35.49167,24
35.50000,24
35.50833,25
35.51667,25
35.52500,26
35.53333,26
35.54167,26
35.55000,26
35.55833,26
35.56667,26
35.57500,26
35.58333,26
35.59167,26
35.60000,26
35.60833,26
35.61667,26
35.62500,26
35.63333,27
35.64167,27
35.65000,27
35.65833,27
35.66667,28
35.67500,28
35.68333,28
35.69167,28
35.70000,27
35.70833,27
35.71667,27
35.72500,27
35.73333,27
35.74167,27
35.75000,27
35.75833,27
35.76667,27
35.77500,27
35.78333,28
35.79167,28
35.80000,28
35.80833,28
35.81667,29
35.82500,29
35.83333,30
35.84167,30
35.85000,31
35.85833,31
35.86667,31
35.87500,31
35.88333,32
35.89167,32
35.90000,32
35.90833,32
35.91667,32
35.92500,33
35.93333,33
35.94167,34
35.95000,34
35.95833,34
35.96667,34
35.97500,33
35.98333,33
35.99167,34
36.00000,34
36.00833,34
36.01667,34
36.02500,34
36.03333,34
36.04167,34
36.05000,35
36.05833,35
36.06667,35
36.07500,36
36.08333,36
36.09167,37
36.10000,37
36.10833,37
36.11667,37
36.12500,37
36.13333,38
36.14167,38
36.15000,39
36.15833,39
36.16667,39
36.17500,39
36.18333,40
36.19167,40
36.20000,40
36.20833,40
36.21667,40
36.22500,40
36.23333,40
36.24167,41
36.25000,41
36.25833,41
36.26667,42
36.27500,42
36.28333,42
36.29167,42
36.30000,43
36.30833,43
36.31667,43
36.32500,43
36.33333,44
36.34167,44
36.35000,44
36.35833,45
36.36667,45
36.37500,46
36.38333,47
36.39167,47
36.40000,48
36.40833,48
36.41667,48
36.42500,48
36.43333,49
36.44167,49
36.45000,49
36.45833,50
36.46667,50
36.47500,50
36.48333,50
36.49167,51
36.50000,51
36.50833,51
36.51667,51
36.52500,52
36.53333,52
36.54167,52
36.55000,52
36.55833,52
36.56667,53
36.57500,54
36.58333,54
36.59167,55
36.60000,56
36.60833,56
36.61667,56
36.62500,57
36.63333,57
36.64167,58
36.65000,58
36.65833,58
36.66667,58
36.67500,59
36.68333,59
36.69167,59
36.70000,60
36.70833,60
36.71667,61
36.72500,61
36.73333,62
36.74167,63
36.75000,63
36.75833,64
36.76667,64
36.77500,65
36.78333,65
36.79167,66
36.80000,66
36.80833,66
36.81667,67
36.82500,67
36.83333,68
36.84167,69
36.85000,70
36.85833,71
36.86667,71
36.87500,72
36.88333,72
36.89167,73
36.90000,73
36.90833,74
36.91667,75
36.92500,75
36.93333,76
36.94167,77
36.95000,77
36.95833,78
36.96667,78
36.97500,79
36.98333,80
36.99167,80
37.00000,81
37.00833,81
37.01667,82
37.02500,82
37.03333,83
37.04167,83
37.05000,84
37.05833,84
37.06667,85
37.07500,86
37.08333,87
37.09167,87
37.10000,88
37.10833,89
37.11667,90
37.12500,91
37.13333,91
37.14167,92
37.15000,93
37.15833,94
37.16667,94
37.17500,94
37.18333,95
37.19167,96
37.20000,97
37.20833,98
37.21667,99
37.22500,99
37.23333,100
37.24167,101
37.25000,102
37.25833,103
37.26667,103
37.27500,104
37.28333,105
37.29167,106
37.30000,106
37.30833,107
37.31667,108
37.32500,109
37.33333,110
37.34167,110
37.35000,111
37.35833,112
37.36667,113
37.37500,114
37.38333,115
37.39167,116
37.40000,117
37.40833,118
37.41667,118
37.42500,119
37.43333,119
37.44167,119
37.45000,120
37.45833,121
37.46667,121
37.47500,122
37.48333,123
37.49167,123
37.50000,124
37.50833,125
37.51667,125
37.52500,126
37.53333,126
37.54167,127
37.55000,127
37.55833,128
37.56667,129
37.57500,129
37.58333,129
37.59167,129
37.60000,129
37.60833,130
37.61667,130
37.62500,131
37.63333,131
37.64167,132
37.65000,132
37.65833,132
37.66667,132
37.67500,132
37.68333,131
37.69167,131
37.70000,130
37.70833,130
37.71667,130
37.72500,130
37.73333,131
37.74167,131
37.75000,131
37.75833,131
37.76667,130
37.77500,130
37.78333,130
37.79167,130
37.80000,129
37.80833,129
37.81667,128
37.82500,128
37.83333,127
37.84167,127
37.85000,126
37.85833,126
37.86667,125
37.87500,125
37.88333,124
37.89167,124
37.90000,123
37.90833,122
37.91667,121
37.92500,121
37.93333,120
37.94167,119
37.95000,119
37.95833,118
37.96667,117
37.97500,117
37.98333,116
37.99167,115
38.00000,114
38.00833,113
38.01667,112
38.02500,111
38.03333,109
38.04167,109
38.05000,108
38.05833,106
38.06667,105
38.07500,104
38.08333,103
38.09167,102
38.10000,101
38.10833,100
38.11667,99
38.12500,98
38.13333,97
38.14167,96
38.15000,95
38.15833,94
38.16667,92
38.17500,91
38.18333,90
38.19167,89
38.20000,88
38.20833,87
38.21667,85
38.22500,84
38.23333,83
38.24167,82
38.25000,81
38.25833,80
38.26667,79
38.27500,78
38.28333,76
38.29167,75
38.30000,73
38.30833,72
38.31667,71
38.32500,70
38.33333,69
38.34167,67
38.35000,66
38.35833,65
38.36667,64
38.37500,62
38.38333,61
38.39167,60
38.40000,58
38.40833,57
38.41667,56
38.42500,55
38.43333,55
38.44167,54
38.45000,53
38.45833,51
38.46667,50
38.47500,49
38.48333,48
38.49167,47
38.50000,45
38.50833,44
38.51667,43
38.52500,41
38.53333,40
38.54167,39
38.55000,39
38.55833,38
38.56667,37
38.57500,36
38.58333,35
38.59167,34
38.60000,33
38.60833,32
38.61667,31
38.62500,30
38.63333,29
38.64167,29
38.65000,28
38.65833,27
38.66667,27
38.67500,26
38.68333,25
38.69167,24
38.70000,23
38.70833,23
38.71667,22
38.72500,22
38.73333,21
38.74167,21
38.75000,20
38.75833,19
38.76667,19
38.77500,18
38.78333,18
38.79167,18
38.80000,18
38.80833,17
38.81667,17
38.82500,17
38.83333,16
38.84167,16
38.85000,16
38.85833,16
38.86667,15
38.87500,15
38.88333,15
38.89167,15
38.90000,15
38.90833,15
38.91667,14
38.92500,14
38.93333,14
38.94167,13
38.95000,13
38.95833,13
38.96667,13
38.97500,13
38.98333,13
38.99167,13
39.00000,12
39.00833,12
39.01667,13
39.02500,13
39.03333,13
39.04167,13
39.05000,14
39.05833,14
39.06667,14
39.07500,14
39.08333,14
39.09167,14
39.10000,14
39.10833,14
39.11667,14
39.12500,14
39.13333,14
39.14167,15
39.15000,15
39.15833,15
39.16667,15
39.17500,15
39.18333,15
39.19167,15
39.20000,15
39.20833,16
39.21667,16
39.22500,17
39.23333,17
39.24167,17
39.25000,17
39.25833,18
39.26667,18
39.27500,18
39.28333,19
39.29167,19
39.30000,20
39.30833,20
39.31667,21
39.32500,21
39.33333,21
39.34167,21
39.35000,21
39.35833,22
39.36667,22
39.37500,23
39.38333,23
39.39167,24
39.40000,24
39.40833,25
39.41667,25
39.42500,25
39.43333,26
39.44167,26
39.45000,27
39.45833,27
39.46667,28
39.47500,28
39.48333,28
39.49167,28
39.50000,29
39.50833,29
39.51667,29
39.52500,30
39.53333,30
39.54167,31
39.55000,31
39.55833,32
39.56667,32
39.57500,33
39.58333,33
39.59167,33
39.60000,33
39.60833,34
39.61667,34
39.62500,35
39.63333,35
39.64167,35
39.65000,36
39.65833,36
39.66667,36
39.67500,37
39.68333,37
39.69167,38
39.70000,38
39.70833,38
39.71667,38
39.72500,38
39.73333,38
39.74167,39
39.75000,39
39.75833,39
39.76667,40
39.77500,40
39.78333,40
39.79167,40
39.80000,41
39.80833,41
39.81667,41
39.82500,41
39.83333,41
39.84167,41
39.85000,41
39.85833,41
39.86667,41
39.87500,41
39.88333,42
39.89167,42
39.90000,42
39.90833,42
39.91667,42
39.92500,42
39.93333,43
39.94167,43
39.95000,43
39.95833,44
39.96667,44
39.97500,44
39.98333,44
39.99167,43
40.00000,43
40.00833,43
40.01667,43
40.02500,43
40.03333,43
40.04167,44
40.05000,44
40.05833,44
40.06667,44
40.07500,44
40.08333,44
40.09167,44
40.10000,44
40.10833,44
40.11667,44
40.12500,44
40.13333,45
40.14167,45
40.15000,45
40.15833,44
40.16667,44
40.17500,44
40.18333,44
40.19167,44
40.20000,44
40.20833,44
40.21667,43
40.22500,43
40.23333,44
40.24167,44
40.25000,44
40.25833,44
40.26667,44
40.27500,44
40.28333,44
40.29167,43
40.30000,43
40.30833,43
40.31667,43
40.32500,43
40.33333,43
40.34167,43
40.35000,42
40.35833,42
40.36667,42
40.37500,41
40.38333,41
40.39167,41
40.40000,41
40.40833,41
40.41667,41
40.42500,41
40.43333,41
40.44167,41
40.45000,41
40.45833,40
40.46667,40
40.47500,40
40.48333,40
40.49167,40
40.50000,40
40.50833,40
40.51667,40
40.52500,40
40.53333,40
40.54167,40
40.55000,41
40.55833,41
40.56667,41
40.57500,41
40.58333,42
40.59167,42
40.60000,41
40.60833,41
40.61667,41
40.62500,42
40.63333,42
40.64167,42
40.65000,42
40.65833,42
40.66667,42
40.67500,42
40.68333,43
40.69167,43
40.70000,43
40.70833,44
40.71667,44
40.72500,44
40.73333,44
40.74167,45
40.75000,45
40.75833,45
40.76667,46
40.77500,46
40.78333,46
40.79167,46
40.80000,46
40.80833,47
40.81667,47
40.82500,48
40.83333,48
40.84167,49
40.85000,49
40.85833,50
40.86667,50
40.87500,51
40.88333,51
40.89167,52
40.90000,53
40.90833,54
40.91667,54
40.92500,55
40.93333,55
40.94167,56
40.95000,56
40.95833,57
40.96667,57
40.97500,59
40.98333,60
40.99167,61
41.00000,61
41.00833,62
41.01667,63
41.02500,64
41.03333,64
41.04167,65
41.05000,66
41.05833,67
41.06667,68
41.07500,69
41.08333,69
41.09167,70
41.10000,71
41.10833,73
41.11667,74
41.12500,75
41.13333,76
41.14167,77
41.15000,78
41.15833,79
41.16667,80
41.17500,81
41.18333,82
41.19167,83
41.20000,84
41.20833,85
41.21667,86
41.22500,88
41.23333,89
41.24167,90
41.25000,91
41.25833,92
41.26667,93
41.27500,95
41.28333,96
41.29167,97
41.30000,98
41.30833,99
41.31667,100
41.32500,101
41.33333,102
41.34167,104
41.35000,105
41.35833,107
41.36667,108
41.37500,110
41.38333,111
41.39167,113
41.40000,114
41.40833,116
41.41667,117
41.42500,118
41.43333,119
41.44167,121
41.45000,122
41.45833,124
41.46667,125
41.47500,127
41.48333,129
41.49167,130
41.50000,131
41.50833,132
41.51667,133
41.52500,135
41.53333,136
41.54167,138
41.55000,140
41.55833,141
41.56667,142
41.57500,143
41.58333,144
41.59167,146
41.60000,147
41.60833,148
41.61667,150
41.62500,151
41.63333,152
41.64167,154
41.65000,155
41.65833,156
41.66667,158
41.67500,159
41.68333,160
41.69167,162
41.70000,163
41.70833,165
41.71667,166
41.72500,167
41.73333,168
41.74167,169
41.75000,171
41.75833,172
41.76667,174
41.77500,175
41.78333,176
41.79167,177
41.80000,178
41.80833,179
41.81667,180
41.82500,182
41.83333,183
41.84167,184
41.85000,185
41.85833,186
41.86667,187
41.87500,188
41.88333,189
41.89167,189
41.90000,191
41.90833,192
41.91667,193
41.92500,194
41.93333,195
41.94167,195
41.95000,196
41.95833,197
41.96667,198
41.97500,198
41.98333,199
41.99167,200
42.00000,201
42.00833,201
42.01667,202
42.02500,203
42.03333,203
42.04167,204
42.05000,205
42.05833,206
42.06667,206
42.07500,207
42.08333,207
42.09167,207
42.10000,208
42.10833,208
42.11667,208
42.12500,209
42.13333,209
42.14167,210
42.15000,211
42.15833,211
42.16667,212
42.17500,212
42.18333,212
42.19167,212
42.20000,212
42.20833,212
42.21667,212
42.22500,212
42.23333,212
42.24167,212
42.25000,212
42.25833,212
42.26667,212
42.27500,212
42.28333,212
42.29167,213
42.30000,213
42.30833,213
42.31667,213
42.32500,213
42.33333,213
42.34167,213
42.35000,212
42.35833,211
42.36667,211
42.37500,211
42.38333,210
42.39167,210
42.40000,210
42.40833,210
42.41667,209
42.42500,209
42.43333,208
42.44167,208
42.45000,207
42.45833,207
42.46667,207
42.47500,206
42.48333,206
42.49167,205
42.50000,205
42.50833,204
42.51667,204
42.52500,203
42.53333,202
42.54167,201
42.55000,201
42.55833,201
42.56667,200
42.57500,200
42.58333,199
42.59167,199
42.60000,198
42.60833,198
42.61667,197
42.62500,197
42.63333,196
42.64167,195
42.65000,194
42.65833,193
42.66667,192
42.67500,191
42.68333,190
42.69167,190
42.70000,189
42.70833,188
42.71667,187
42.72500,186
42.73333,186
42.74167,185
42.75000,184
42.75833,184
42.76667,183
42.77500,182
42.78333,181
42.79167,180
42.80000,179
42.80833,178
42.81667,177
42.82500,176
42.83333,175
42.84167,174
42.85000,174
42.85833,173
42.86667,172
42.87500,171
42.88333,170
42.89167,169
42.90000,168
42.90833,167
42.91667,166
42.92500,165
42.93333,164
42.94167,163
42.95000,162
42.95833,161
42.96667,159
42.97500,158
42.98333,157
42.99167,156
43.00000,155
43.00833,154
43.01667,153
43.02500,152
43.03333,151
43.04167,150
43.05000,149
43.05833,148
43.06667,147
43.07500,146
43.08333,145
43.09167,144
43.10000,143
43.10833,142
43.11667,141
43.12500,140
43.13333,139
43.14167,138
43.15000,137
43.15833,136
43.16667,135
43.17500,133
43.18333,132
43.19167,131
43.20000,130
43.20833,129
43.21667,129
43.22500,128
43.23333,127
43.24167,126
43.25000,125
43.25833,124
43.26667,123
43.27500,123
43.28333,122
43.29167,120
43.30000,119
43.30833,118
43.31667,117
43.32500,116
43.33333,115
43.34167,114
43.35000,113
43.35833,112
43.36667,111
43.37500,110
43.38333,109
43.39167,109
43.40000,108
43.40833,107
43.41667,106
43.42500,105
43.43333,104
43.44167,103
43.45000,102
43.45833,101
43.46667,100
43.47500,98
43.48333,98
43.49167,97
43.50000,96
43.50833,95
43.51667,94
43.52500,93
43.53333,92
43.54167,91
43.55000,91
43.55833,90
43.56667,89
43.57500,89
43.58333,88
43.59167,87
43.60000,86
43.60833,86
43.61667,85
43.62500,84
43.63333,83
43.64167,82
43.65000,81
43.65833,81
43.66667,80
43.67500,79
43.68333,78
43.69167,77
43.70000,76
43.70833,75
43.71667,74
43.72500,73
43.73333,72
43.74167,72
43.75000,71
43.75833,70
43.76667,69
43.77500,68
43.78333,67
43.79167,67
43.80000,66
43.80833,65
43.81667,64
43.82500,64
43.83333,64
43.84167,63
43.85000,62
43.85833,61
43.86667,60
43.87500,59
43.88333,59
43.89167,58
43.90000,57
43.90833,56
43.91667,56
43.92500,55
43.93333,55
43.94167,54
43.95000,53
43.95833,53
43.96667,52
43.97500,52
43.98333,51
43.99167,51
44.00000,50
44.00833,49
44.01667,49
44.02500,48
44.03333,48
44.04167,47
44.05000,47
44.05833,46
44.06667,46
44.07500,45
44.08333,44
44.09167,43
44.10000,42
44.10833,42
44.11667,41
44.12500,40
44.13333,40
44.14167,40
44.15000,40
44.15833,39
44.16667,39
44.17500,38
44.18333,38
44.19167,38
44.20000,37
44.20833,37
44.21667,36
44.22500,36
44.23333,35
44.24167,35
44.25000,35
44.25833,34
44.26667,34
44.27500,33
44.28333,32
44.29167,32
44.30000,31
44.30833,31
44.31667,30
44.32500,30
44.33333,29
44.34167,29
44.35000,28
44.35833,29
44.36667,28
44.37500,28
44.38333,28
44.39167,27
44.40000,27
44.40833,27
44.41667,27
44.42500,26
44.43333,26
44.44167,26
44.45000,25
44.45833,25
44.46667,24
44.47500,24
44.48333,23
44.49167,23
44.50000,23
44.50833,22
44.51667,22
44.52500,21
44.53333,21
44.54167,21
44.55000,20
44.55833,20
44.56667,20
44.57500,20
44.58333,20
44.59167,20
44.60000,19
44.60833,19
44.61667,19
44.62500,18
44.63333,18
44.64167,17
44.65000,17
44.65833,17
44.66667,16
44.67500,16
44.68333,17
44.69167,17
44.70000,17
44.70833,17
44.71667,17
44.72500,16
44.73333,16
44.74167,16
44.75000,15
44.75833,15
44.76667,15
44.77500,15
44.78333,15
44.79167,15
44.80000,15
44.80833,15
44.81667,15
44.82500,14
44.83333,14
44.84167,14
44.85000,14
44.85833,14
44.86667,14
44.87500,14
44.88333,14
44.89167,14
44.90000,14
44.90833,14
44.91667,14
44.92500,13
44.93333,13
44.94167,13
44.95000,13
44.95833,13
44.96667,13
44.97500,14
44.98333,14
44.99167,14
45.00000,14
45.00833,14
45.01667,14
45.02500,14
45.03333,13
45.04167,13
45.05000,13
45.05833,13
45.06667,13
45.07500,13
45.08333,14
45.09167,14
45.10000,14
45.10833,13
45.11667,13
45.12500,13
45.13333,13
45.14167,13
45.15000,13
45.15833,14
45.16667,14
45.17500,15
45.18333,15
45.19167,15
45.20000,15
45.20833,15
45.21667,15
45.22500,15
45.23333,16
45.24167,16
45.25000,16
45.25833,16
45.26667,16
45.27500,16
45.28333,16
45.29167,16
45.30000,17
45.30833,17
45.31667,16
45.32500,16
45.33333,16
45.34167,16
45.35000,17
45.35833,17
45.36667,17
45.37500,17
45.38333,17
45.39167,17
45.40000,17
45.40833,17
45.41667,17
45.42500,17
45.43333,17
45.44167,17
45.45000,17
45.45833,18
45.46667,18
45.47500,18
45.48333,18
45.49167,18
45.50000,19
45.50833,19
45.51667,19
45.52500,19
45.53333,20
45.54167,19
45.55000,19
45.55833,19
45.56667,19
45.57500,19
45.58333,19
45.59167,19
45.60000,19
45.60833,19
45.61667,18
45.62500,18
45.63333,18
45.64167,17
45.65000,18
45.65833,18
45.66667,18
45.67500,19
45.68333,19
45.69167,19
45.70000,19
45.70833,19
45.71667,19
45.72500,19
45.73333,19
45.74167,19
45.75000,19
45.75833,19
45.76667,19
45.77500,19
45.78333,19
45.79167,18
45.80000,18
45.80833,18
45.81667,18
45.82500,18
45.83333,18
45.84167,18
45.85000,17
45.85833,17
45.86667,17
45.87500,17
45.88333,17
45.89167,17
45.90000,17
45.90833,17
45.91667,17
45.92500,17
45.93333,17
45.94167,16
45.95000,16
45.95833,16
45.96667,16
45.97500,16
45.98333,16
45.99167,16
46.00000,16
46.00833,16
46.01667,16
46.02500,15
46.03333,15
46.04167,14
46.05000,14
46.05833,14
46.06667,14
46.07500,14
46.08333,14
46.09167,13
46.10000,13
46.10833,12
46.11667,12
46.12500,11
46.13333,11
46.14167,11
46.15000,11
46.15833,11
46.16667,11
46.17500,11
46.18333,11
46.19167,10
46.20000,10
46.20833,10
46.21667,9
46.22500,9
46.23333,9
46.24167,8
46.25000,8
46.25833,8
46.26667,8
46.27500,8
46.28333,8
46.29167,8
46.30000,7
46.30833,7
46.31667,7
46.32500,7
46.33333,6
46.34167,6
46.35000,6
46.35833,5
46.36667,5
46.37500,4
46.38333,3
46.39167,3
46.40000,3
46.40833,2
46.41667,2
46.42500,2
46.43333,2
46.44167,2
46.45000,2
46.45833,1
46.46667,1
46.47500,1
46.48333,1
46.49167,1
46.50000,0
46.50833,0
46.51667,-0
46.52500,-0
46.53333,-0
46.54167,-1
46.55000,-1
46.55833,-1
46.56667,-2
46.57500,-2
46.58333,-2
46.59167,-3
46.60000,-3
46.60833,-3
46.61667,-4
46.62500,-4
46.63333,-4
46.64167,-4
46.65000,-5
46.65833,-5
46.66667,-5
46.67500,-6
46.68333,-6
46.69167,-6
46.70000,-6
46.70833,-6
46.71667,-6
46.72500,-7
46.73333,-7
46.74167,-7
46.75000,-8
46.75833,-8
46.76667,-8
46.77500,-8
46.78333,-8
46.79167,-8
46.80000,-8
46.80833,-8
46.81667,-8
46.82500,-8
46.83333,-7
46.84167,-7
46.85000,-7
46.85833,-7
46.86667,-7
46.87500,-8
46.88333,-8
46.89167,-8
46.90000,-8
46.90833,-8
46.91667,-8
46.92500,-8
46.93333,-8
46.94167,-7
46.95000,-7
46.95833,-7
46.96667,-7
46.97500,-8
46.98333,-8
46.99167,-8
47.00000,-7
47.00833,-7
47.01667,-6
47.02500,-6
47.03333,-5
47.04167,-5
47.05000,-5
47.05833,-4
47.06667,-4
47.07500,-5
47.08333,-4
47.09167,-4
47.10000,-4
47.10833,-3
47.11667,-2
47.12500,-2
47.13333,-1
47.14167,-1
47.15000,-0
47.15833,-0
47.16667,0
47.17500,0
47.18333,1
47.19167,1
47.20000,2
47.20833,2
47.21667,3
47.22500,4
47.23333,5
47.24167,6
47.25000,6
47.25833,6
47.26667,7
47.27500,8
47.28333,8
47.29167,9
47.30000,10
47.30833,10
47.31667,11
47.32500,12
47.33333,13
47.34167,14
47.35000,15
47.35833,16
47.36667,17
47.37500,18
47.38333,19
47.39167,20
47.40000,21
47.40833,22
47.41667,22
47.42500,23
47.43333,24
47.44167,24
47.45000,25
47.45833,26
47.46667,27
47.47500,28
47.48333,29
47.49167,29
47.50000,30
47.50833,31
47.51667,31
47.52500,32
47.53333,32
47.54167,33
47.55000,34
47.55833,34
47.56667,35
47.57500,36
47.58333,37
47.59167,38
47.60000,39
47.60833,39
47.61667,40
47.62500,41
47.63333,43
47.64167,43
47.65000,44
47.65833,45
47.66667,46
47.67500,46
47.68333,47
47.69167,48
47.70000,48
47.70833,49
47.71667,50
47.72500,51
47.73333,51
47.74167,52
47.75000,52
47.75833,53
47.76667,53
47.77500,54
47.78333,54
47.79167,55
47.80000,55
47.80833,56
47.81667,57
47.82500,57
47.83333,58
47.84167,59
47.85000,59
47.85833,59
47.86667,59
47.87500,60
47.88333,60
47.89167,61
47.90000,62
47.90833,63
47.91667,63
47.92500,63
47.93333,64
47.94167,64
47.95000,64
47.95833,64
47.96667,65
47.97500,65
47.98333,65
47.99167,66
48.00000,66
48.00833,66
48.01667,67
48.02500,67
48.03333,68
48.04167,68
48.05000,68
48.05833,68
48.06667,68
48.07500,69
48.08333,69
48.09167,69
48.10000,69
48.10833,70
48.11667,70
48.12500,70
48.13333,70
48.14167,71
48.15000,71
48.15833,71
48.16667,72
48.17500,73
48.18333,73
48.19167,73
48.20000,73
48.20833,73
48.21667,73
48.22500,73
48.23333,73
48.24167,73
48.25000,74
48.25833,74
48.26667,74
48.27500,74
48.28333,74
48.29167,74
48.30000,74
48.30833,74
48.31667,74
48.32500,74
48.33333,74
48.34167,74
48.35000,74
48.35833,74
48.36667,74
48.37500,75
48.38333,75
48.39167,75
48.40000,75
48.40833,76
48.41667,76
48.42500,76
48.43333,76
48.44167,76
48.45000,76
48.45833,76
48.46667,75
48.47500,76
48.48333,76
48.49167,76
48.50000,77
48.50833,77
48.51667,76
48.52500,76
48.53333,76
48.54167,77
48.55000,77
48.55833,77
48.56667,77
48.57500,77
48.58333,78
48.59167,78
48.60000,78
48.60833,78
48.61667,78
48.62500,78
48.63333,79
48.64167,79
48.65000,79
48.65833,79
48.66667,79
48.67500,79
48.68333,79
48.69167,79
48.70000,80
48.70833,80
48.71667,81
48.72500,81
48.73333,81
48.74167,80
48.75000,80
48.75833,80
48.76667,81
48.77500,81
48.78333,81
48.79167,82
48.80000,82
48.80833,82
48.81667,82
48.82500,82
48.83333,82
48.84167,82
48.85000,82
48.85833,82
48.86667,83
48.87500,84
48.88333,84
48.89167,84
48.90000,84
48.90833,84
48.91667,84
48.92500,85
48.93333,85
48.94167,85
48.95000,85
48.95833,85
48.96667,85
48.97500,85
48.98333,85
48.99167,85
49.00000,85
49.00833,85
49.01667,85
49.02500,85
49.03333,85
49.04167,85
49.05000,85
49.05833,85
49.06667,85
49.07500,85
49.08333,84
49.09167,84
49.10000,84
49.10833,84
49.11667,84
49.12500,84
49.13333,84
49.14167,84
49.15000,83
49.15833,83
49.16667,84
49.17500,83
49.18333,83
49.19167,83
49.20000,83
49.20833,83
49.21667,84
49.22500,84
49.23333,84
49.24167,83
49.25000,83
49.25833,83
49.26667,83
49.27500,83
49.28333,82
49.29167,82
49.30000,81
49.30833,81
49.31667,81
49.32500,81
49.33333,80
49.34167,80
49.35000,80
49.35833,80
49.36667,80
49.37500,80
49.38333,79
49.39167,79
49.40000,79
49.40833,79
49.41667,79
49.42500,79
49.43333,78
49.44167,78
49.45000,77
49.45833,77
49.46667,76
49.47500,75
49.48333,75
49.49167,75
49.50000,75
49.50833,74
49.51667,74
49.52500,74
49.53333,73
49.54167,73
49.55000,72
49.55833,71
49.56667,70
49.57500,70
49.58333,69
49.59167,69
49.60000,68
49.60833,68
49.61667,67
49.62500,67
49.63333,66
49.64167,65
49.65000,64
49.65833,64
49.66667,64
49.67500,63
49.68333,63
49.69167,62
49.70000,61
49.70833,61
49.71667,60
49.72500,59
49.73333,59
49.74167,58
49.75000,58
49.75833,57
49.76667,56
49.77500,56
49.78333,55
49.79167,53
49.80000,52
49.80833,52
49.81667,51
49.82500,50
49.83333,50
49.84167,49
49.85000,48
49.85833,47
49.86667,46
49.87500,45
49.88333,45
49.89167,44
49.90000,43
49.90833,42
49.91667,41
49.92500,41
49.93333,40
49.94167,39
49.95000,38
49.95833,37
49.96667,36
49.97500,36
49.98333,35
49.99167,35
50.00000,35

