[Header]
Application Name,LabSolutions
Version,5.97 SP1
Data File Name,C:\Users\cremerlab\Desktop\Richa\Oct_18th_2022_yield_expt\Oct 18th 2022 yield expt_10182022_001_007.lcd
Output Date,10/18/2022
Output Time,10:43:21 PM

[File Information]
Type,Data File
Generated,10/18/2022 9:53:02 PM
Generated by,System Administrator
Modified,10/18/2022 10:43:21 PM
Modified by,System Administrator

[Sample Information]
Operator Name,System Administrator
Acquired,10/18/2022 9:53:21 PM
Sample Type,0:Unknown
Level,0
Sample Name,101822_BF_2
Sample ID,001
ISTD Amount1,1
ISTD Amount2,1
ISTD Amount3,1
ISTD Amount4,1
ISTD Amount5,1
ISTD Amount6,1
ISTD Amount7,1
ISTD Amount8,1
ISTD Amount9,1
ISTD Amount10,1
ISTD Amount11,1
ISTD Amount12,1
ISTD Amount13,1
ISTD Amount14,1
ISTD Amount15,1
ISTD Amount16,1
ISTD Amount17,1
ISTD Amount18,1
ISTD Amount19,1
ISTD Amount20,1
ISTD Amount21,1
ISTD Amount22,1
ISTD Amount23,1
ISTD Amount24,1
ISTD Amount25,1
ISTD Amount26,1
ISTD Amount27,1
ISTD Amount28,1
ISTD Amount29,1
ISTD Amount30,1
ISTD Amount31,1
ISTD Amount32,1
Sample Amount,1
Dilution Factor,1
Vial#,6
Injection Volume,20

[Original Files]
Data File,C:\Users\cremerlab\Desktop\Richa\Oct_18th_2022_yield_expt\Oct 18th 2022 yield expt_10182022_001_007.lcd
Method File,C:\Users\cremerlab\Desktop\Richa\acetate_excretion.lcm
Batch File,C:\Users\cremerlab\Desktop\Richa\Oct_18th_2022_yield_expt\Oct 18th 2022 yield expt.lcb
Report Format File,c:\LabSolutions\System\DEFAULT.lsr

[File Description]


[Configuration]
Instrument Name,HPLC-PC-Instrument1
Instrument #,1
Line #,1
# of Detectors,2
Detector ID,Detector A,Detector B
Detector Name,Detector A,Detector B
# of Channels,1,1

[Peak Table(Detector A)]
# of Peaks,0

[Peak Table(Detector B)]
# of Peaks,7
Peak#,R.Time,I.Time,F.Time,Area,Height,A/H,Conc.,Mark,ID#,Name,k',Plate #,Plate Ht.,Tailing,Resolution,Sep.Factor,Area Ratio,Height Ratio,Conc. %,Norm Conc.
1,11.028,10.558,12.642,2204975,114175,19.312,0.000,   ,,,0.000,7768,19.311,0.922,0.000,0.000,0,0,0.000,0.000
2,14.350,12.642,15.183,3700079,77893,47.502,0.000, V ,,,0.301,2444,61.381,0.652,3.998,0.000,0,0,0.000,0.000
3,15.771,15.183,18.258,1581214,52865,29.910,0.000, V ,,,0.430,6775,22.139,1.147,1.474,1.428,0,0,0.000,0.000
4,21.700,21.092,22.450,7344,170,43.153,0.000,   ,,,0.968,4811,31.178,1.072,5.877,2.250,0,0,0.000,0.000
5,23.038,22.658,23.692,2579,78,33.248,0.000,   ,,,1.089,11302,13.271,1.275,1.264,1.125,0,0,0.000,0.000
6,25.083,24.292,26.150,140147,3509,39.939,0.000,   ,,,1.274,9156,16.383,1.047,2.134,1.170,0,0,0.000,0.000
7,32.378,30.725,33.342,34177,467,73.195,0.000,   ,,,1.936,6160,24.351,0.775,5.407,1.519,0,0,0.000,0.000

[LC Chromatogram(Detector B-Ch1)]
Interval(msec),500
# of Points,6001
Start Time(min),0.000
End Time(min),50.000
Intensity Units,mV
Intensity Multiplier,0.001
R.Time (min),Intensity
0.00000,2
0.00833,2
0.01667,1
0.02500,0
0.03333,1
0.04167,1
0.05000,1
0.05833,1
0.06667,0
0.07500,0
0.08333,0
0.09167,0
0.10000,0
0.10833,0
0.11667,0
0.12500,0
0.13333,0
0.14167,1
0.15000,1
0.15833,0
0.16667,0
0.17500,1
0.18333,1
0.19167,1
0.20000,1
0.20833,1
0.21667,1
0.22500,1
0.23333,1
0.24167,1
0.25000,1
0.25833,1
0.26667,1
0.27500,1
0.28333,1
0.29167,1
0.30000,0
0.30833,0
0.31667,-0
0.32500,-0
0.33333,-0
0.34167,0
0.35000,0
0.35833,-0
0.36667,-0
0.37500,0
0.38333,0
0.39167,-0
0.40000,-0
0.40833,-0
0.41667,0
0.42500,0
0.43333,1
0.44167,1
0.45000,0
0.45833,0
0.46667,0
0.47500,0
0.48333,0
0.49167,0
0.50000,1
0.50833,1
0.51667,1
0.52500,1
0.53333,1
0.54167,1
0.55000,1
0.55833,1
0.56667,1
0.57500,1
0.58333,1
0.59167,1
0.60000,1
0.60833,1
0.61667,0
0.62500,-0
0.63333,-0
0.64167,-0
0.65000,-0
0.65833,-0
0.66667,-0
0.67500,-0
0.68333,-0
0.69167,-0
0.70000,-0
0.70833,-0
0.71667,-0
0.72500,-0
0.73333,-0
0.74167,-1
0.75000,-1
0.75833,-2
0.76667,-2
0.77500,-2
0.78333,-2
0.79167,-2
0.80000,-2
0.80833,-2
0.81667,-2
0.82500,-2
0.83333,-2
0.84167,-2
0.85000,-2
0.85833,-3
0.86667,-3
0.87500,-3
0.88333,-3
0.89167,-3
0.90000,-3
0.90833,-3
0.91667,-3
0.92500,-3
0.93333,-2
0.94167,-2
0.95000,-2
0.95833,-2
0.96667,-2
0.97500,-2
0.98333,-3
0.99167,-3
1.00000,-3
1.00833,-3
1.01667,-3
1.02500,-3
1.03333,-3
1.04167,-3
1.05000,-4
1.05833,-3
1.06667,-3
1.07500,-3
1.08333,-3
1.09167,-3
1.10000,-3
1.10833,-3
1.11667,-4
1.12500,-4
1.13333,-4
1.14167,-5
1.15000,-5
1.15833,-5
1.16667,-5
1.17500,-5
1.18333,-5
1.19167,-5
1.20000,-6
1.20833,-6
1.21667,-6
1.22500,-6
1.23333,-6
1.24167,-6
1.25000,-7
1.25833,-7
1.26667,-7
1.27500,-7
1.28333,-7
1.29167,-7
1.30000,-7
1.30833,-7
1.31667,-8
1.32500,-7
1.33333,-7
1.34167,-7
1.35000,-7
1.35833,-8
1.36667,-8
1.37500,-8
1.38333,-8
1.39167,-8
1.40000,-9
1.40833,-9
1.41667,-9
1.42500,-9
1.43333,-9
1.44167,-9
1.45000,-10
1.45833,-10
1.46667,-10
1.47500,-10
1.48333,-10
1.49167,-10
1.50000,-10
1.50833,-10
1.51667,-10
1.52500,-10
1.53333,-10
1.54167,-10
1.55000,-10
1.55833,-10
1.56667,-10
1.57500,-10
1.58333,-10
1.59167,-10
1.60000,-10
1.60833,-10
1.61667,-10
1.62500,-10
1.63333,-10
1.64167,-10
1.65000,-11
1.65833,-11
1.66667,-11
1.67500,-11
1.68333,-11
1.69167,-11
1.70000,-11
1.70833,-11
1.71667,-11
1.72500,-10
1.73333,-10
1.74167,-10
1.75000,-10
1.75833,-10
1.76667,-10
1.77500,-10
1.78333,-10
1.79167,-11
1.80000,-11
1.80833,-11
1.81667,-11
1.82500,-11
1.83333,-11
1.84167,-11
1.85000,-11
1.85833,-11
1.86667,-11
1.87500,-10
1.88333,-10
1.89167,-10
1.90000,-11
1.90833,-11
1.91667,-11
1.92500,-11
1.93333,-10
1.94167,-10
1.95000,-10
1.95833,-11
1.96667,-11
1.97500,-11
1.98333,-12
1.99167,-12
2.00000,-12
2.00833,-12
2.01667,-12
2.02500,-12
2.03333,-12
2.04167,-12
2.05000,-11
2.05833,-11
2.06667,-11
2.07500,-11
2.08333,-11
2.09167,-10
2.10000,-10
2.10833,-11
2.11667,-11
2.12500,-11
2.13333,-11
2.14167,-11
2.15000,-11
2.15833,-11
2.16667,-11
2.17500,-11
2.18333,-11
2.19167,-11
2.20000,-11
2.20833,-11
2.21667,-11
2.22500,-11
2.23333,-11
2.24167,-11
2.25000,-11
2.25833,-11
2.26667,-11
2.27500,-11
2.28333,-10
2.29167,-10
2.30000,-10
2.30833,-10
2.31667,-11
2.32500,-11
2.33333,-11
2.34167,-11
2.35000,-11
2.35833,-11
2.36667,-11
2.37500,-11
2.38333,-12
2.39167,-12
2.40000,-12
2.40833,-12
2.41667,-12
2.42500,-11
2.43333,-11
2.44167,-12
2.45000,-12
2.45833,-12
2.46667,-12
2.47500,-12
2.48333,-12
2.49167,-12
2.50000,-12
2.50833,-12
2.51667,-12
2.52500,-12
2.53333,-12
2.54167,-12
2.55000,-12
2.55833,-12
2.56667,-12
2.57500,-11
2.58333,-11
2.59167,-11
2.60000,-11
2.60833,-11
2.61667,-11
2.62500,-11
2.63333,-11
2.64167,-11
2.65000,-12
2.65833,-12
2.66667,-12
2.67500,-12
2.68333,-12
2.69167,-12
2.70000,-12
2.70833,-12
2.71667,-12
2.72500,-12
2.73333,-11
2.74167,-12
2.75000,-12
2.75833,-12
2.76667,-12
2.77500,-12
2.78333,-12
2.79167,-12
2.80000,-12
2.80833,-12
2.81667,-12
2.82500,-12
2.83333,-12
2.84167,-13
2.85000,-12
2.85833,-12
2.86667,-12
2.87500,-13
2.88333,-12
2.89167,-12
2.90000,-12
2.90833,-12
2.91667,-12
2.92500,-12
2.93333,-11
2.94167,-12
2.95000,-12
2.95833,-12
2.96667,-12
2.97500,-12
2.98333,-13
2.99167,-12
3.00000,-12
3.00833,-12
3.01667,-12
3.02500,-12
3.03333,-12
3.04167,-11
3.05000,-12
3.05833,-12
3.06667,-12
3.07500,-12
3.08333,-12
3.09167,-12
3.10000,-12
3.10833,-12
3.11667,-12
3.12500,-13
3.13333,-13
3.14167,-12
3.15000,-12
3.15833,-12
3.16667,-12
3.17500,-12
3.18333,-12
3.19167,-12
3.20000,-12
3.20833,-12
3.21667,-12
3.22500,-13
3.23333,-13
3.24167,-13
3.25000,-13
3.25833,-13
3.26667,-13
3.27500,-12
3.28333,-12
3.29167,-12
3.30000,-12
3.30833,-12
3.31667,-11
3.32500,-11
3.33333,-12
3.34167,-12
3.35000,-12
3.35833,-12
3.36667,-12
3.37500,-12
3.38333,-13
3.39167,-13
3.40000,-13
3.40833,-13
3.41667,-13
3.42500,-13
3.43333,-13
3.44167,-13
3.45000,-13
3.45833,-12
3.46667,-12
3.47500,-12
3.48333,-12
3.49167,-12
3.50000,-12
3.50833,-12
3.51667,-12
3.52500,-12
3.53333,-12
3.54167,-12
3.55000,-12
3.55833,-12
3.56667,-12
3.57500,-12
3.58333,-12
3.59167,-12
3.60000,-12
3.60833,-12
3.61667,-12
3.62500,-12
3.63333,-12
3.64167,-12
3.65000,-12
3.65833,-12
3.66667,-12
3.67500,-12
3.68333,-12
3.69167,-11
3.70000,-11
3.70833,-12
3.71667,-12
3.72500,-13
3.73333,-13
3.74167,-14
3.75000,-14
3.75833,-14
3.76667,-14
3.77500,-14
3.78333,-13
3.79167,-13
3.80000,-13
3.80833,-13
3.81667,-13
3.82500,-13
3.83333,-14
3.84167,-14
3.85000,-14
3.85833,-13
3.86667,-13
3.87500,-14
3.88333,-14
3.89167,-14
3.90000,-14
3.90833,-14
3.91667,-13
3.92500,-13
3.93333,-14
3.94167,-14
3.95000,-13
3.95833,-13
3.96667,-13
3.97500,-13
3.98333,-13
3.99167,-13
4.00000,-13
4.00833,-13
4.01667,-13
4.02500,-13
4.03333,-13
4.04167,-14
4.05000,-14
4.05833,-14
4.06667,-13
4.07500,-13
4.08333,-13
4.09167,-13
4.10000,-13
4.10833,-13
4.11667,-13
4.12500,-13
4.13333,-13
4.14167,-13
4.15000,-13
4.15833,-13
4.16667,-13
4.17500,-13
4.18333,-13
4.19167,-13
4.20000,-13
4.20833,-13
4.21667,-12
4.22500,-12
4.23333,-12
4.24167,-12
4.25000,-12
4.25833,-12
4.26667,-13
4.27500,-13
4.28333,-13
4.29167,-13
4.30000,-13
4.30833,-13
4.31667,-12
4.32500,-12
4.33333,-12
4.34167,-12
4.35000,-12
4.35833,-12
4.36667,-12
4.37500,-12
4.38333,-13
4.39167,-13
4.40000,-13
4.40833,-13
4.41667,-12
4.42500,-12
4.43333,-12
4.44167,-12
4.45000,-12
4.45833,-12
4.46667,-12
4.47500,-12
4.48333,-12
4.49167,-12
4.50000,-12
4.50833,-12
4.51667,-12
4.52500,-13
4.53333,-13
4.54167,-13
4.55000,-13
4.55833,-13
4.56667,-13
4.57500,-13
4.58333,-12
4.59167,-13
4.60000,-13
4.60833,-13
4.61667,-13
4.62500,-13
4.63333,-13
4.64167,-13
4.65000,-13
4.65833,-13
4.66667,-13
4.67500,-12
4.68333,-12
4.69167,-12
4.70000,-12
4.70833,-12
4.71667,-13
4.72500,-13
4.73333,-13
4.74167,-13
4.75000,-12
4.75833,-12
4.76667,-12
4.77500,-12
4.78333,-12
4.79167,-12
4.80000,-13
4.80833,-13
4.81667,-13
4.82500,-13
4.83333,-13
4.84167,-13
4.85000,-13
4.85833,-13
4.86667,-13
4.87500,-13
4.88333,-13
4.89167,-14
4.90000,-14
4.90833,-14
4.91667,-14
4.92500,-13
4.93333,-13
4.94167,-13
4.95000,-13
4.95833,-13
4.96667,-13
4.97500,-13
4.98333,-13
4.99167,-13
5.00000,-12
5.00833,-12
5.01667,-13
5.02500,-13
5.03333,-13
5.04167,-13
5.05000,-13
5.05833,-13
5.06667,-13
5.07500,-13
5.08333,-13
5.09167,-12
5.10000,-12
5.10833,-12
5.11667,-12
5.12500,-12
5.13333,-13
5.14167,-13
5.15000,-13
5.15833,-13
5.16667,-13
5.17500,-14
5.18333,-14
5.19167,-14
5.20000,-14
5.20833,-14
5.21667,-14
5.22500,-14
5.23333,-14
5.24167,-14
5.25000,-14
5.25833,-14
5.26667,-13
5.27500,-13
5.28333,-13
5.29167,-13
5.30000,-13
5.30833,-13
5.31667,-13
5.32500,-13
5.33333,-13
5.34167,-14
5.35000,-14
5.35833,-14
5.36667,-14
5.37500,-14
5.38333,-14
5.39167,-14
5.40000,-14
5.40833,-14
5.41667,-14
5.42500,-14
5.43333,-14
5.44167,-14
5.45000,-14
5.45833,-13
5.46667,-14
5.47500,-14
5.48333,-13
5.49167,-13
5.50000,-13
5.50833,-13
5.51667,-13
5.52500,-13
5.53333,-13
5.54167,-13
5.55000,-13
5.55833,-13
5.56667,-13
5.57500,-13
5.58333,-13
5.59167,-13
5.60000,-13
5.60833,-13
5.61667,-13
5.62500,-13
5.63333,-13
5.64167,-14
5.65000,-14
5.65833,-14
5.66667,-14
5.67500,-13
5.68333,-13
5.69167,-13
5.70000,-13
5.70833,-13
5.71667,-13
5.72500,-13
5.73333,-13
5.74167,-13
5.75000,-13
5.75833,-13
5.76667,-13
5.77500,-13
5.78333,-13
5.79167,-13
5.80000,-13
5.80833,-13
5.81667,-13
5.82500,-13
5.83333,-14
5.84167,-14
5.85000,-14
5.85833,-14
5.86667,-14
5.87500,-14
5.88333,-14
5.89167,-14
5.90000,-14
5.90833,-14
5.91667,-14
5.92500,-13
5.93333,-14
5.94167,-13
5.95000,-13
5.95833,-13
5.96667,-13
5.97500,-13
5.98333,-13
5.99167,-13
6.00000,-14
6.00833,-14
6.01667,-14
6.02500,-14
6.03333,-14
6.04167,-14
6.05000,-15
6.05833,-15
6.06667,-15
6.07500,-15
6.08333,-15
6.09167,-15
6.10000,-14
6.10833,-14
6.11667,-14
6.12500,-13
6.13333,-13
6.14167,-14
6.15000,-14
6.15833,-14
6.16667,-14
6.17500,-14
6.18333,-14
6.19167,-14
6.20000,-14
6.20833,-14
6.21667,-14
6.22500,-14
6.23333,-14
6.24167,-14
6.25000,-14
6.25833,-14
6.26667,-14
6.27500,-14
6.28333,-14
6.29167,-14
6.30000,-14
6.30833,-14
6.31667,-14
6.32500,-14
6.33333,-14
6.34167,-14
6.35000,-14
6.35833,-14
6.36667,-14
6.37500,-14
6.38333,-15
6.39167,-15
6.40000,-15
6.40833,-14
6.41667,-14
6.42500,-14
6.43333,-13
6.44167,-13
6.45000,-13
6.45833,-13
6.46667,-13
6.47500,-13
6.48333,-14
6.49167,-14
6.50000,-14
6.50833,-14
6.51667,-14
6.52500,-14
6.53333,-15
6.54167,-14
6.55000,-14
6.55833,-14
6.56667,-14
6.57500,-14
6.58333,-14
6.59167,-15
6.60000,-15
6.60833,-15
6.61667,-15
6.62500,-15
6.63333,-15
6.64167,-14
6.65000,-14
6.65833,-14
6.66667,-14
6.67500,-14
6.68333,-14
6.69167,-14
6.70000,-14
6.70833,-13
6.71667,-13
6.72500,-13
6.73333,-13
6.74167,-13
6.75000,-14
6.75833,-14
6.76667,-14
6.77500,-14
6.78333,-14
6.79167,-14
6.80000,-14
6.80833,-14
6.81667,-14
6.82500,-13
6.83333,-13
6.84167,-13
6.85000,-13
6.85833,-13
6.86667,-13
6.87500,-13
6.88333,-13
6.89167,-13
6.90000,-14
6.90833,-14
6.91667,-14
6.92500,-14
6.93333,-14
6.94167,-14
6.95000,-14
6.95833,-14
6.96667,-14
6.97500,-14
6.98333,-14
6.99167,-14
7.00000,-14
7.00833,-14
7.01667,-14
7.02500,-14
7.03333,-14
7.04167,-14
7.05000,-14
7.05833,-14
7.06667,-14
7.07500,-14
7.08333,-14
7.09167,-14
7.10000,-14
7.10833,-15
7.11667,-15
7.12500,-14
7.13333,-14
7.14167,-14
7.15000,-14
7.15833,-13
7.16667,-13
7.17500,-13
7.18333,-14
7.19167,-14
7.20000,-14
7.20833,-14
7.21667,-14
7.22500,-14
7.23333,-14
7.24167,-15
7.25000,-15
7.25833,-15
7.26667,-15
7.27500,-15
7.28333,-15
7.29167,-15
7.30000,-14
7.30833,-14
7.31667,-14
7.32500,-15
7.33333,-15
7.34167,-14
7.35000,-14
7.35833,-14
7.36667,-14
7.37500,-14
7.38333,-14
7.39167,-14
7.40000,-14
7.40833,-14
7.41667,-14
7.42500,-15
7.43333,-15
7.44167,-15
7.45000,-15
7.45833,-15
7.46667,-15
7.47500,-15
7.48333,-15
7.49167,-15
7.50000,-15
7.50833,-15
7.51667,-15
7.52500,-15
7.53333,-15
7.54167,-15
7.55000,-15
7.55833,-15
7.56667,-15
7.57500,-15
7.58333,-15
7.59167,-14
7.60000,-14
7.60833,-15
7.61667,-15
7.62500,-14
7.63333,-14
7.64167,-14
7.65000,-15
7.65833,-15
7.66667,-15
7.67500,-15
7.68333,-15
7.69167,-15
7.70000,-15
7.70833,-15
7.71667,-15
7.72500,-15
7.73333,-15
7.74167,-15
7.75000,-15
7.75833,-14
7.76667,-15
7.77500,-15
7.78333,-15
7.79167,-15
7.80000,-15
7.80833,-15
7.81667,-15
7.82500,-15
7.83333,-15
7.84167,-15
7.85000,-15
7.85833,-15
7.86667,-15
7.87500,-15
7.88333,-15
7.89167,-15
7.90000,-15
7.90833,-15
7.91667,-14
7.92500,-14
7.93333,-14
7.94167,-15
7.95000,-15
7.95833,-15
7.96667,-15
7.97500,-15
7.98333,-15
7.99167,-15
8.00000,-15
8.00833,-15
8.01667,-16
8.02500,-16
8.03333,-16
8.04167,-16
8.05000,-16
8.05833,-16
8.06667,-16
8.07500,-16
8.08333,-16
8.09167,-16
8.10000,-15
8.10833,-15
8.11667,-15
8.12500,-15
8.13333,-15
8.14167,-15
8.15000,-15
8.15833,-15
8.16667,-15
8.17500,-16
8.18333,-16
8.19167,-16
8.20000,-16
8.20833,-16
8.21667,-16
8.22500,-16
8.23333,-16
8.24167,-16
8.25000,-16
8.25833,-16
8.26667,-16
8.27500,-16
8.28333,-16
8.29167,-16
8.30000,-16
8.30833,-16
8.31667,-16
8.32500,-16
8.33333,-16
8.34167,-16
8.35000,-17
8.35833,-16
8.36667,-16
8.37500,-16
8.38333,-16
8.39167,-16
8.40000,-16
8.40833,-16
8.41667,-16
8.42500,-16
8.43333,-16
8.44167,-15
8.45000,-15
8.45833,-15
8.46667,-15
8.47500,-16
8.48333,-16
8.49167,-16
8.50000,-16
8.50833,-16
8.51667,-17
8.52500,-17
8.53333,-17
8.54167,-16
8.55000,-16
8.55833,-16
8.56667,-16
8.57500,-16
8.58333,-16
8.59167,-16
8.60000,-16
8.60833,-17
8.61667,-17
8.62500,-17
8.63333,-17
8.64167,-17
8.65000,-17
8.65833,-17
8.66667,-17
8.67500,-17
8.68333,-18
8.69167,-18
8.70000,-18
8.70833,-17
8.71667,-17
8.72500,-17
8.73333,-17
8.74167,-17
8.75000,-17
8.75833,-17
8.76667,-17
8.77500,-17
8.78333,-17
8.79167,-17
8.80000,-17
8.80833,-17
8.81667,-17
8.82500,-17
8.83333,-17
8.84167,-17
8.85000,-17
8.85833,-17
8.86667,-17
8.87500,-17
8.88333,-17
8.89167,-17
8.90000,-17
8.90833,-17
8.91667,-17
8.92500,-17
8.93333,-17
8.94167,-17
8.95000,-18
8.95833,-18
8.96667,-18
8.97500,-18
8.98333,-18
8.99167,-18
9.00000,-18
9.00833,-17
9.01667,-17
9.02500,-17
9.03333,-17
9.04167,-17
9.05000,-17
9.05833,-17
9.06667,-17
9.07500,-17
9.08333,-17
9.09167,-17
9.10000,-17
9.10833,-17
9.11667,-17
9.12500,-17
9.13333,-16
9.14167,-16
9.15000,-16
9.15833,-17
9.16667,-17
9.17500,-17
9.18333,-17
9.19167,-17
9.20000,-17
9.20833,-18
9.21667,-17
9.22500,-17
9.23333,-17
9.24167,-17
9.25000,-17
9.25833,-17
9.26667,-17
9.27500,-17
9.28333,-17
9.29167,-17
9.30000,-17
9.30833,-17
9.31667,-17
9.32500,-17
9.33333,-17
9.34167,-17
9.35000,-17
9.35833,-17
9.36667,-18
9.37500,-18
9.38333,-17
9.39167,-17
9.40000,-17
9.40833,-17
9.41667,-17
9.42500,-17
9.43333,-17
9.44167,-17
9.45000,-17
9.45833,-17
9.46667,-17
9.47500,-17
9.48333,-17
9.49167,-17
9.50000,-17
9.50833,-17
9.51667,-17
9.52500,-17
9.53333,-17
9.54167,-17
9.55000,-18
9.55833,-18
9.56667,-18
9.57500,-18
9.58333,-18
9.59167,-18
9.60000,-17
9.60833,-17
9.61667,-17
9.62500,-17
9.63333,-17
9.64167,-17
9.65000,-17
9.65833,-17
9.66667,-17
9.67500,-17
9.68333,-17
9.69167,-17
9.70000,-17
9.70833,-17
9.71667,-17
9.72500,-17
9.73333,-17
9.74167,-17
9.75000,-17
9.75833,-18
9.76667,-18
9.77500,-17
9.78333,-18
9.79167,-18
9.80000,-17
9.80833,-17
9.81667,-17
9.82500,-16
9.83333,-16
9.84167,-16
9.85000,-16
9.85833,-17
9.86667,-17
9.87500,-17
9.88333,-17
9.89167,-17
9.90000,-17
9.90833,-17
9.91667,-17
9.92500,-17
9.93333,-17
9.94167,-18
9.95000,-18
9.95833,-17
9.96667,-17
9.97500,-17
9.98333,-17
9.99167,-17
10.00000,-17
10.00833,-17
10.01667,-17
10.02500,-18
10.03333,-18
10.04167,-18
10.05000,-18
10.05833,-18
10.06667,-18
10.07500,-18
10.08333,-18
10.09167,-18
10.10000,-18
10.10833,-18
10.11667,-18
10.12500,-18
10.13333,-18
10.14167,-18
10.15000,-18
10.15833,-17
10.16667,-17
10.17500,-17
10.18333,-17
10.19167,-18
10.20000,-18
10.20833,-18
10.21667,-18
10.22500,-18
10.23333,-18
10.24167,-18
10.25000,-17
10.25833,-17
10.26667,-17
10.27500,-17
10.28333,-16
10.29167,-16
10.30000,-16
10.30833,-16
10.31667,-16
10.32500,-17
10.33333,-17
10.34167,-17
10.35000,-18
10.35833,-19
10.36667,-20
10.37500,-22
10.38333,-26
10.39167,-30
10.40000,-37
10.40833,-47
10.41667,-59
10.42500,-75
10.43333,-96
10.44167,-121
10.45000,-151
10.45833,-187
10.46667,-229
10.47500,-277
10.48333,-330
10.49167,-389
10.50000,-450
10.50833,-514
10.51667,-576
10.52500,-636
10.53333,-688
10.54167,-729
10.55000,-754
10.55833,-759
10.56667,-738
10.57500,-685
10.58333,-595
10.59167,-462
10.60000,-279
10.60833,-41
10.61667,259
10.62500,628
10.63333,1070
10.64167,1591
10.65000,2197
10.65833,2892
10.66667,3682
10.67500,4572
10.68333,5564
10.69167,6664
10.70000,7874
10.70833,9197
10.71667,10636
10.72500,12193
10.73333,13870
10.74167,15667
10.75000,17587
10.75833,19629
10.76667,21793
10.77500,24081
10.78333,26489
10.79167,29019
10.80000,31667
10.80833,34431
10.81667,37311
10.82500,40302
10.83333,43402
10.84167,46605
10.85000,49907
10.85833,53302
10.86667,56783
10.87500,60341
10.88333,63968
10.89167,67651
10.90000,71378
10.90833,75133
10.91667,78898
10.92500,82650
10.93333,86366
10.94167,90017
10.95000,93568
10.95833,96983
10.96667,100217
10.97500,103223
10.98333,105951
10.99167,108346
11.00000,110351
11.00833,111910
11.01667,112966
11.02500,113469
11.03333,113375
11.04167,112648
11.05000,111268
11.05833,109227
11.06667,106537
11.07500,103227
11.08333,99345
11.09167,94953
11.10000,90130
11.10833,84966
11.11667,79554
11.12500,73993
11.13333,68380
11.14167,62802
11.15000,57342
11.15833,52068
11.16667,47036
11.17500,42290
11.18333,37861
11.19167,33766
11.20000,30016
11.20833,26606
11.21667,23531
11.22500,20774
11.23333,18319
11.24167,16143
11.25000,14224
11.25833,12538
11.26667,11062
11.27500,9774
11.28333,8651
11.29167,7675
11.30000,6827
11.30833,6091
11.31667,5453
11.32500,4899
11.33333,4418
11.34167,3999
11.35000,3633
11.35833,3313
11.36667,3033
11.37500,2787
11.38333,2571
11.39167,2380
11.40000,2210
11.40833,2058
11.41667,1922
11.42500,1800
11.43333,1689
11.44167,1590
11.45000,1499
11.45833,1417
11.46667,1341
11.47500,1271
11.48333,1207
11.49167,1148
11.50000,1093
11.50833,1042
11.51667,994
11.52500,950
11.53333,908
11.54167,869
11.55000,833
11.55833,798
11.56667,765
11.57500,734
11.58333,705
11.59167,678
11.60000,652
11.60833,627
11.61667,603
11.62500,580
11.63333,559
11.64167,539
11.65000,520
11.65833,502
11.66667,485
11.67500,468
11.68333,452
11.69167,438
11.70000,424
11.70833,410
11.71667,397
11.72500,385
11.73333,373
11.74167,362
11.75000,352
11.75833,342
11.76667,332
11.77500,323
11.78333,314
11.79167,307
11.80000,299
11.80833,292
11.81667,286
11.82500,280
11.83333,274
11.84167,269
11.85000,264
11.85833,259
11.86667,253
11.87500,249
11.88333,244
11.89167,241
11.90000,238
11.90833,235
11.91667,232
11.92500,229
11.93333,226
11.94167,224
11.95000,221
11.95833,219
11.96667,217
11.97500,215
11.98333,213
11.99167,211
12.00000,210
12.00833,208
12.01667,207
12.02500,206
12.03333,205
12.04167,204
12.05000,203
12.05833,202
12.06667,201
12.07500,200
12.08333,199
12.09167,197
12.10000,196
12.10833,195
12.11667,193
12.12500,192
12.13333,191
12.14167,190
12.15000,189
12.15833,188
12.16667,187
12.17500,186
12.18333,185
12.19167,184
12.20000,183
12.20833,181
12.21667,180
12.22500,179
12.23333,177
12.24167,176
12.25000,174
12.25833,173
12.26667,171
12.27500,170
12.28333,169
12.29167,167
12.30000,165
12.30833,164
12.31667,162
12.32500,161
12.33333,160
12.34167,158
12.35000,157
12.35833,155
12.36667,154
12.37500,152
12.38333,151
12.39167,149
12.40000,148
12.40833,147
12.41667,145
12.42500,144
12.43333,143
12.44167,141
12.45000,140
12.45833,139
12.46667,137
12.47500,136
12.48333,135
12.49167,134
12.50000,133
12.50833,132
12.51667,130
12.52500,129
12.53333,128
12.54167,126
12.55000,125
12.55833,124
12.56667,123
12.57500,122
12.58333,121
12.59167,120
12.60000,119
12.60833,118
12.61667,117
12.62500,117
12.63333,116
12.64167,116
12.65000,116
12.65833,117
12.66667,118
12.67500,120
12.68333,123
12.69167,127
12.70000,132
12.70833,138
12.71667,145
12.72500,154
12.73333,165
12.74167,178
12.75000,193
12.75833,211
12.76667,232
12.77500,255
12.78333,281
12.79167,310
12.80000,344
12.80833,381
12.81667,421
12.82500,466
12.83333,516
12.84167,570
12.85000,629
12.85833,692
12.86667,761
12.87500,834
12.88333,912
12.89167,995
12.90000,1084
12.90833,1178
12.91667,1278
12.92500,1382
12.93333,1493
12.94167,1609
12.95000,1730
12.95833,1858
12.96667,1991
12.97500,2129
12.98333,2273
12.99167,2422
13.00000,2577
13.00833,2738
13.01667,2904
13.02500,3075
13.03333,3252
13.04167,3433
13.05000,3621
13.05833,3814
13.06667,4012
13.07500,4215
13.08333,4423
13.09167,4636
13.10000,4854
13.10833,5076
13.11667,5303
13.12500,5535
13.13333,5771
13.14167,6012
13.15000,6257
13.15833,6506
13.16667,6760
13.17500,7017
13.18333,7279
13.19167,7545
13.20000,7814
13.20833,8087
13.21667,8364
13.22500,8645
13.23333,8929
13.24167,9216
13.25000,9508
13.25833,9802
13.26667,10100
13.27500,10401
13.28333,10705
13.29167,11013
13.30000,11324
13.30833,11638
13.31667,11956
13.32500,12276
13.33333,12600
13.34167,12926
13.35000,13255
13.35833,13588
13.36667,13924
13.37500,14262
13.38333,14604
13.39167,14949
13.40000,15296
13.40833,15646
13.41667,16000
13.42500,16356
13.43333,16716
13.44167,17079
13.45000,17444
13.45833,17813
13.46667,18185
13.47500,18559
13.48333,18938
13.49167,19318
13.50000,19702
13.50833,20089
13.51667,20479
13.52500,20873
13.53333,21269
13.54167,21669
13.55000,22071
13.55833,22477
13.56667,22887
13.57500,23299
13.58333,23715
13.59167,24134
13.60000,24557
13.60833,24984
13.61667,25413
13.62500,25847
13.63333,26284
13.64167,26724
13.65000,27167
13.65833,27614
13.66667,28065
13.67500,28519
13.68333,28977
13.69167,29439
13.70000,29905
13.70833,30375
13.71667,30848
13.72500,31325
13.73333,31806
13.74167,32291
13.75000,32780
13.75833,33273
13.76667,33770
13.77500,34271
13.78333,34777
13.79167,35286
13.80000,35800
13.80833,36318
13.81667,36840
13.82500,37367
13.83333,37897
13.84167,38433
13.85000,38972
13.85833,39517
13.86667,40066
13.87500,40619
13.88333,41177
13.89167,41739
13.90000,42307
13.90833,42879
13.91667,43456
13.92500,44038
13.93333,44625
13.94167,45217
13.95000,45813
13.95833,46416
13.96667,47023
13.97500,47636
13.98333,48255
13.99167,48878
14.00000,49507
14.00833,50142
14.01667,50782
14.02500,51428
14.03333,52079
14.04167,52736
14.05000,53399
14.05833,54068
14.06667,54742
14.07500,55423
14.08333,56110
14.09167,56803
14.10000,57503
14.10833,58208
14.11667,58920
14.12500,59639
14.13333,60364
14.14167,61095
14.15000,61834
14.15833,62579
14.16667,63331
14.17500,64090
14.18333,64857
14.19167,65630
14.20000,66410
14.20833,67197
14.21667,67990
14.22500,68788
14.23333,69590
14.24167,70393
14.25000,71194
14.25833,71988
14.26667,72768
14.27500,73526
14.28333,74254
14.29167,74940
14.30000,75572
14.30833,76139
14.31667,76628
14.32500,77025
14.33333,77320
14.34167,77503
14.35000,77563
14.35833,77495
14.36667,77292
14.37500,76950
14.38333,76464
14.39167,75832
14.40000,75053
14.40833,74124
14.41667,73043
14.42500,71809
14.43333,70419
14.44167,68872
14.45000,67167
14.45833,65303
14.46667,63283
14.47500,61111
14.48333,58795
14.49167,56345
14.50000,53775
14.50833,51105
14.51667,48353
14.52500,45544
14.53333,42704
14.54167,39860
14.55000,37038
14.55833,34265
14.56667,31564
14.57500,28958
14.58333,26466
14.59167,24103
14.60000,21880
14.60833,19806
14.61667,17884
14.62500,16115
14.63333,14498
14.64167,13029
14.65000,11700
14.65833,10505
14.66667,9434
14.67500,8478
14.68333,7628
14.69167,6873
14.70000,6206
14.70833,5617
14.71667,5096
14.72500,4638
14.73333,4234
14.74167,3878
14.75000,3563
14.75833,3286
14.76667,3040
14.77500,2823
14.78333,2630
14.79167,2459
14.80000,2306
14.80833,2170
14.81667,2047
14.82500,1936
14.83333,1837
14.84167,1746
14.85000,1664
14.85833,1589
14.86667,1521
14.87500,1459
14.88333,1401
14.89167,1348
14.90000,1298
14.90833,1252
14.91667,1210
14.92500,1170
14.93333,1133
14.94167,1098
14.95000,1064
14.95833,1033
14.96667,1004
14.97500,976
14.98333,950
14.99167,925
15.00000,901
15.00833,879
15.01667,858
15.02500,838
15.03333,819
15.04167,802
15.05000,785
15.05833,769
15.06667,754
15.07500,740
15.08333,726
15.09167,713
15.10000,701
15.10833,690
15.11667,680
15.12500,670
15.13333,662
15.14167,654
15.15000,647
15.15833,641
15.16667,636
15.17500,632
15.18333,630
15.19167,631
15.20000,633
15.20833,639
15.21667,648
15.22500,662
15.23333,680
15.24167,705
15.25000,737
15.25833,777
15.26667,828
15.27500,890
15.28333,965
15.29167,1056
15.30000,1165
15.30833,1295
15.31667,1448
15.32500,1627
15.33333,1836
15.34167,2077
15.35000,2355
15.35833,2671
15.36667,3031
15.37500,3438
15.38333,3894
15.39167,4404
15.40000,4970
15.40833,5595
15.41667,6283
15.42500,7035
15.43333,7853
15.44167,8738
15.45000,9690
15.45833,10711
15.46667,11799
15.47500,12952
15.48333,14169
15.49167,15447
15.50000,16783
15.50833,18171
15.51667,19608
15.52500,21087
15.53333,22603
15.54167,24148
15.55000,25716
15.55833,27299
15.56667,28889
15.57500,30479
15.58333,32060
15.59167,33626
15.60000,35167
15.60833,36678
15.61667,38151
15.62500,39578
15.63333,40954
15.64167,42272
15.65000,43528
15.65833,44715
15.66667,45831
15.67500,46872
15.68333,47834
15.69167,48713
15.70000,49509
15.70833,50218
15.71667,50841
15.72500,51374
15.73333,51818
15.74167,52172
15.75000,52437
15.75833,52611
15.76667,52697
15.77500,52693
15.78333,52601
15.79167,52423
15.80000,52159
15.80833,51811
15.81667,51380
15.82500,50869
15.83333,50280
15.84167,49616
15.85000,48880
15.85833,48074
15.86667,47202
15.87500,46268
15.88333,45276
15.89167,44230
15.90000,43135
15.90833,41994
15.91667,40814
15.92500,39599
15.93333,38355
15.94167,37086
15.95000,35797
15.95833,34494
15.96667,33182
15.97500,31866
15.98333,30551
15.99167,29241
16.00000,27941
16.00833,26656
16.01667,25389
16.02500,24144
16.03333,22925
16.04167,21734
16.05000,20575
16.05833,19450
16.06667,18360
16.07500,17309
16.08333,16296
16.09167,15324
16.10000,14393
16.10833,13503
16.11667,12654
16.12500,11847
16.13333,11082
16.14167,10357
16.15000,9672
16.15833,9025
16.16667,8417
16.17500,7847
16.18333,7312
16.19167,6812
16.20000,6344
16.20833,5908
16.21667,5502
16.22500,5125
16.23333,4775
16.24167,4450
16.25000,4150
16.25833,3871
16.26667,3614
16.27500,3378
16.28333,3159
16.29167,2958
16.30000,2772
16.30833,2602
16.31667,2445
16.32500,2300
16.33333,2168
16.34167,2046
16.35000,1934
16.35833,1831
16.36667,1736
16.37500,1649
16.38333,1568
16.39167,1494
16.40000,1426
16.40833,1364
16.41667,1305
16.42500,1252
16.43333,1202
16.44167,1156
16.45000,1113
16.45833,1073
16.46667,1036
16.47500,1002
16.48333,970
16.49167,940
16.50000,911
16.50833,885
16.51667,859
16.52500,835
16.53333,812
16.54167,791
16.55000,770
16.55833,751
16.56667,732
16.57500,714
16.58333,698
16.59167,681
16.60000,665
16.60833,650
16.61667,636
16.62500,622
16.63333,608
16.64167,595
16.65000,582
16.65833,569
16.66667,557
16.67500,546
16.68333,535
16.69167,524
16.70000,514
16.70833,504
16.71667,494
16.72500,485
16.73333,476
16.74167,468
16.75000,460
16.75833,452
16.76667,444
16.77500,437
16.78333,430
16.79167,423
16.80000,417
16.80833,410
16.81667,405
16.82500,399
16.83333,394
16.84167,389
16.85000,384
16.85833,380
16.86667,376
16.87500,372
16.88333,368
16.89167,364
16.90000,360
16.90833,356
16.91667,353
16.92500,350
16.93333,346
16.94167,343
16.95000,341
16.95833,338
16.96667,336
16.97500,333
16.98333,331
16.99167,329
17.00000,327
17.00833,325
17.01667,322
17.02500,320
17.03333,317
17.04167,315
17.05000,313
17.05833,311
17.06667,309
17.07500,306
17.08333,304
17.09167,302
17.10000,301
17.10833,299
17.11667,297
17.12500,295
17.13333,293
17.14167,291
17.15000,289
17.15833,287
17.16667,286
17.17500,284
17.18333,281
17.19167,279
17.20000,277
17.20833,275
17.21667,272
17.22500,270
17.23333,268
17.24167,266
17.25000,264
17.25833,262
17.26667,260
17.27500,258
17.28333,256
17.29167,254
17.30000,252
17.30833,250
17.31667,248
17.32500,246
17.33333,244
17.34167,242
17.35000,239
17.35833,237
17.36667,236
17.37500,233
17.38333,231
17.39167,229
17.40000,227
17.40833,226
17.41667,224
17.42500,222
17.43333,221
17.44167,219
17.45000,218
17.45833,216
17.46667,214
17.47500,212
17.48333,209
17.49167,207
17.50000,206
17.50833,204
17.51667,202
17.52500,200
17.53333,198
17.54167,197
17.55000,195
17.55833,193
17.56667,191
17.57500,190
17.58333,189
17.59167,187
17.60000,186
17.60833,184
17.61667,183
17.62500,182
17.63333,180
17.64167,179
17.65000,177
17.65833,176
17.66667,174
17.67500,173
17.68333,172
17.69167,171
17.70000,170
17.70833,169
17.71667,167
17.72500,166
17.73333,165
17.74167,164
17.75000,163
17.75833,162
17.76667,161
17.77500,160
17.78333,159
17.79167,158
17.80000,157
17.80833,155
17.81667,154
17.82500,153
17.83333,152
17.84167,151
17.85000,150
17.85833,149
17.86667,148
17.87500,147
17.88333,146
17.89167,144
17.90000,144
17.90833,143
17.91667,142
17.92500,142
17.93333,141
17.94167,140
17.95000,139
17.95833,138
17.96667,137
17.97500,137
17.98333,136
17.99167,135
18.00000,135
18.00833,134
18.01667,133
18.02500,132
18.03333,131
18.04167,130
18.05000,130
18.05833,129
18.06667,129
18.07500,128
18.08333,128
18.09167,127
18.10000,126
18.10833,124
18.11667,124
18.12500,123
18.13333,122
18.14167,121
18.15000,121
18.15833,120
18.16667,120
18.17500,119
18.18333,118
18.19167,118
18.20000,117
18.20833,116
18.21667,115
18.22500,115
18.23333,115
18.24167,114
18.25000,114
18.25833,113
18.26667,113
18.27500,113
18.28333,112
18.29167,111
18.30000,111
18.30833,110
18.31667,110
18.32500,109
18.33333,108
18.34167,108
18.35000,107
18.35833,106
18.36667,106
18.37500,105
18.38333,104
18.39167,104
18.40000,104
18.40833,103
18.41667,102
18.42500,102
18.43333,101
18.44167,101
18.45000,101
18.45833,100
18.46667,100
18.47500,99
18.48333,98
18.49167,98
18.50000,97
18.50833,97
18.51667,96
18.52500,96
18.53333,95
18.54167,94
18.55000,94
18.55833,94
18.56667,93
18.57500,93
18.58333,92
18.59167,92
18.60000,91
18.60833,90
18.61667,90
18.62500,89
18.63333,89
18.64167,89
18.65000,88
18.65833,88
18.66667,87
18.67500,87
18.68333,86
18.69167,86
18.70000,85
18.70833,85
18.71667,85
18.72500,85
18.73333,84
18.74167,84
18.75000,83
18.75833,83
18.76667,82
18.77500,82
18.78333,82
18.79167,82
18.80000,81
18.80833,81
18.81667,81
18.82500,81
18.83333,80
18.84167,80
18.85000,79
18.85833,78
18.86667,78
18.87500,77
18.88333,77
18.89167,77
18.90000,77
18.90833,77
18.91667,76
18.92500,76
18.93333,75
18.94167,75
18.95000,75
18.95833,74
18.96667,74
18.97500,74
18.98333,73
18.99167,73
19.00000,73
19.00833,73
19.01667,73
19.02500,73
19.03333,73
19.04167,73
19.05000,73
19.05833,73
19.06667,72
19.07500,72
19.08333,72
19.09167,72
19.10000,72
19.10833,72
19.11667,72
19.12500,72
19.13333,72
19.14167,72
19.15000,72
19.15833,71
19.16667,71
19.17500,71
19.18333,71
19.19167,71
19.20000,70
19.20833,70
19.21667,70
19.22500,70
19.23333,70
19.24167,70
19.25000,70
19.25833,69
19.26667,69
19.27500,69
19.28333,69
19.29167,69
19.30000,68
19.30833,68
19.31667,68
19.32500,68
19.33333,68
19.34167,68
19.35000,68
19.35833,67
19.36667,67
19.37500,66
19.38333,66
19.39167,65
19.40000,65
19.40833,64
19.41667,64
19.42500,64
19.43333,63
19.44167,63
19.45000,63
19.45833,62
19.46667,62
19.47500,61
19.48333,61
19.49167,60
19.50000,59
19.50833,59
19.51667,58
19.52500,57
19.53333,57
19.54167,56
19.55000,56
19.55833,55
19.56667,54
19.57500,54
19.58333,54
19.59167,53
19.60000,53
19.60833,52
19.61667,52
19.62500,51
19.63333,51
19.64167,50
19.65000,50
19.65833,50
19.66667,49
19.67500,49
19.68333,48
19.69167,47
19.70000,47
19.70833,46
19.71667,46
19.72500,45
19.73333,45
19.74167,45
19.75000,44
19.75833,43
19.76667,43
19.77500,43
19.78333,43
19.79167,42
19.80000,42
19.80833,42
19.81667,42
19.82500,41
19.83333,41
19.84167,41
19.85000,40
19.85833,40
19.86667,40
19.87500,39
19.88333,39
19.89167,38
19.90000,38
19.90833,38
19.91667,38
19.92500,38
19.93333,37
19.94167,37
19.95000,37
19.95833,36
19.96667,36
19.97500,36
19.98333,36
19.99167,36
20.00000,36
20.00833,36
20.01667,36
20.02500,36
20.03333,36
20.04167,36
20.05000,35
20.05833,35
20.06667,35
20.07500,35
20.08333,35
20.09167,35
20.10000,35
20.10833,35
20.11667,34
20.12500,34
20.13333,34
20.14167,34
20.15000,34
20.15833,33
20.16667,33
20.17500,33
20.18333,33
20.19167,33
20.20000,33
20.20833,33
20.21667,32
20.22500,32
20.23333,31
20.24167,32
20.25000,32
20.25833,31
20.26667,31
20.27500,31
20.28333,32
20.29167,32
20.30000,32
20.30833,32
20.31667,32
20.32500,32
20.33333,32
20.34167,31
20.35000,31
20.35833,31
20.36667,31
20.37500,31
20.38333,31
20.39167,31
20.40000,31
20.40833,31
20.41667,31
20.42500,31
20.43333,32
20.44167,32
20.45000,32
20.45833,33
20.46667,32
20.47500,32
20.48333,33
20.49167,33
20.50000,33
20.50833,33
20.51667,34
20.52500,35
20.53333,35
20.54167,36
20.55000,36
20.55833,36
20.56667,37
20.57500,37
20.58333,38
20.59167,39
20.60000,39
20.60833,40
20.61667,41
20.62500,41
20.63333,42
20.64167,43
20.65000,44
20.65833,44
20.66667,45
20.67500,46
20.68333,47
20.69167,48
20.70000,48
20.70833,49
20.71667,50
20.72500,50
20.73333,51
20.74167,51
20.75000,52
20.75833,53
20.76667,54
20.77500,55
20.78333,56
20.79167,57
20.80000,58
20.80833,58
20.81667,59
20.82500,59
20.83333,59
20.84167,59
20.85000,59
20.85833,60
20.86667,60
20.87500,60
20.88333,60
20.89167,61
20.90000,61
20.90833,62
20.91667,62
20.92500,63
20.93333,63
20.94167,64
20.95000,64
20.95833,64
20.96667,64
20.97500,64
20.98333,65
20.99167,65
21.00000,65
21.00833,66
21.01667,67
21.02500,67
21.03333,68
21.04167,69
21.05000,70
21.05833,71
21.06667,72
21.07500,73
21.08333,74
21.09167,76
21.10000,77
21.10833,78
21.11667,80
21.12500,81
21.13333,83
21.14167,85
21.15000,87
21.15833,90
21.16667,92
21.17500,95
21.18333,98
21.19167,100
21.20000,103
21.20833,105
21.21667,108
21.22500,110
21.23333,113
21.24167,116
21.25000,119
21.25833,122
21.26667,124
21.27500,127
21.28333,130
21.29167,133
21.30000,137
21.30833,139
21.31667,142
21.32500,145
21.33333,148
21.34167,150
21.35000,153
21.35833,156
21.36667,158
21.37500,161
21.38333,163
21.39167,165
21.40000,167
21.40833,170
21.41667,172
21.42500,174
21.43333,176
21.44167,178
21.45000,181
21.45833,183
21.46667,185
21.47500,188
21.48333,190
21.49167,192
21.50000,194
21.50833,196
21.51667,198
21.52500,199
21.53333,201
21.54167,203
21.55000,205
21.55833,208
21.56667,210
21.57500,212
21.58333,214
21.59167,216
21.60000,218
21.60833,220
21.61667,222
21.62500,223
21.63333,225
21.64167,226
21.65000,227
21.65833,228
21.66667,228
21.67500,229
21.68333,229
21.69167,229
21.70000,229
21.70833,229
21.71667,229
21.72500,229
21.73333,228
21.74167,227
21.75000,226
21.75833,225
21.76667,224
21.77500,223
21.78333,222
21.79167,221
21.80000,219
21.80833,218
21.81667,216
21.82500,215
21.83333,213
21.84167,212
21.85000,210
21.85833,208
21.86667,206
21.87500,204
21.88333,201
21.89167,199
21.90000,196
21.90833,194
21.91667,192
21.92500,189
21.93333,187
21.94167,185
21.95000,183
21.95833,180
21.96667,178
21.97500,175
21.98333,173
21.99167,170
22.00000,168
22.00833,165
22.01667,162
22.02500,159
22.03333,156
22.04167,153
22.05000,150
22.05833,147
22.06667,143
22.07500,140
22.08333,137
22.09167,134
22.10000,131
22.10833,127
22.11667,124
22.12500,121
22.13333,117
22.14167,114
22.15000,111
22.15833,108
22.16667,104
22.17500,101
22.18333,98
22.19167,94
22.20000,91
22.20833,88
22.21667,85
22.22500,82
22.23333,80
22.24167,77
22.25000,74
22.25833,72
22.26667,69
22.27500,66
22.28333,64
22.29167,61
22.30000,59
22.30833,57
22.31667,56
22.32500,54
22.33333,53
22.34167,51
22.35000,49
22.35833,48
22.36667,47
22.37500,46
22.38333,44
22.39167,43
22.40000,42
22.40833,41
22.41667,40
22.42500,40
22.43333,39
22.44167,39
22.45000,39
22.45833,39
22.46667,38
22.47500,38
22.48333,38
22.49167,39
22.50000,39
22.50833,39
22.51667,39
22.52500,39
22.53333,39
22.54167,39
22.55000,40
22.55833,40
22.56667,41
22.57500,41
22.58333,42
22.59167,43
22.60000,44
22.60833,45
22.61667,46
22.62500,47
22.63333,48
22.64167,49
22.65000,50
22.65833,51
22.66667,52
22.67500,53
22.68333,54
22.69167,56
22.70000,57
22.70833,59
22.71667,61
22.72500,63
22.73333,65
22.74167,66
22.75000,68
22.75833,69
22.76667,71
22.77500,73
22.78333,74
22.79167,76
22.80000,78
22.80833,80
22.81667,82
22.82500,83
22.83333,85
22.84167,87
22.85000,88
22.85833,90
22.86667,91
22.87500,93
22.88333,95
22.89167,97
22.90000,99
22.90833,100
22.91667,102
22.92500,103
22.93333,104
22.94167,105
22.95000,106
22.95833,108
22.96667,108
22.97500,109
22.98333,110
22.99167,111
23.00000,111
23.00833,112
23.01667,113
23.02500,113
23.03333,113
23.04167,113
23.05000,113
23.05833,113
23.06667,113
23.07500,113
23.08333,113
23.09167,113
23.10000,113
23.10833,113
23.11667,112
23.12500,112
23.13333,111
23.14167,110
23.15000,110
23.15833,109
23.16667,108
23.17500,107
23.18333,105
23.19167,104
23.20000,103
23.20833,102
23.21667,100
23.22500,99
23.23333,97
23.24167,95
23.25000,94
23.25833,92
23.26667,90
23.27500,88
23.28333,86
23.29167,84
23.30000,82
23.30833,79
23.31667,77
23.32500,75
23.33333,73
23.34167,71
23.35000,68
23.35833,66
23.36667,64
23.37500,61
23.38333,59
23.39167,57
23.40000,55
23.40833,52
23.41667,50
23.42500,49
23.43333,47
23.44167,45
23.45000,43
23.45833,41
23.46667,39
23.47500,37
23.48333,35
23.49167,33
23.50000,32
23.50833,30
23.51667,29
23.52500,27
23.53333,26
23.54167,25
23.55000,24
23.55833,23
23.56667,21
23.57500,20
23.58333,19
23.59167,18
23.60000,17
23.60833,16
23.61667,15
23.62500,14
23.63333,13
23.64167,13
23.65000,12
23.65833,12
23.66667,11
23.67500,11
23.68333,10
23.69167,10
23.70000,10
23.70833,9
23.71667,9
23.72500,8
23.73333,8
23.74167,7
23.75000,7
23.75833,7
23.76667,6
23.77500,6
23.78333,6
23.79167,5
23.80000,5
23.80833,5
23.81667,5
23.82500,5
23.83333,4
23.84167,4
23.85000,4
23.85833,5
23.86667,4
23.87500,4
23.88333,4
23.89167,4
23.90000,4
23.90833,4
23.91667,4
23.92500,4
23.93333,4
23.94167,4
23.95000,4
23.95833,4
23.96667,4
23.97500,4
23.98333,4
23.99167,4
24.00000,4
24.00833,4
24.01667,4
24.02500,4
24.03333,4
24.04167,4
24.05000,3
24.05833,3
24.06667,3
24.07500,3
24.08333,3
24.09167,3
24.10000,3
24.10833,3
24.11667,3
24.12500,2
24.13333,2
24.14167,2
24.15000,2
24.15833,3
24.16667,3
24.17500,3
24.18333,3
24.19167,3
24.20000,3
24.20833,3
24.21667,4
24.22500,4
24.23333,5
24.24167,5
24.25000,5
24.25833,5
24.26667,5
24.27500,6
24.28333,6
24.29167,7
24.30000,9
24.30833,10
24.31667,11
24.32500,13
24.33333,15
24.34167,17
24.35000,20
24.35833,23
24.36667,26
24.37500,30
24.38333,34
24.39167,39
24.40000,45
24.40833,51
24.41667,58
24.42500,65
24.43333,74
24.44167,84
24.45000,95
24.45833,108
24.46667,121
24.47500,136
24.48333,153
24.49167,171
24.50000,190
24.50833,212
24.51667,235
24.52500,260
24.53333,286
24.54167,316
24.55000,347
24.55833,381
24.56667,416
24.57500,454
24.58333,494
24.59167,537
24.60000,583
24.60833,630
24.61667,680
24.62500,732
24.63333,787
24.64167,844
24.65000,903
24.65833,963
24.66667,1026
24.67500,1090
24.68333,1156
24.69167,1224
24.70000,1293
24.70833,1363
24.71667,1434
24.72500,1507
24.73333,1580
24.74167,1653
24.75000,1727
24.75833,1801
24.76667,1875
24.77500,1948
24.78333,2022
24.79167,2095
24.80000,2168
24.80833,2239
24.81667,2309
24.82500,2378
24.83333,2445
24.84167,2511
24.85000,2576
24.85833,2638
24.86667,2700
24.87500,2759
24.88333,2817
24.89167,2872
24.90000,2926
24.90833,2977
24.91667,3026
24.92500,3073
24.93333,3117
24.94167,3160
24.95000,3201
24.95833,3239
24.96667,3275
24.97500,3308
24.98333,3339
24.99167,3368
25.00000,3394
25.00833,3418
25.01667,3440
25.02500,3460
25.03333,3477
25.04167,3491
25.05000,3503
25.05833,3512
25.06667,3519
25.07500,3523
25.08333,3524
25.09167,3523
25.10000,3518
25.10833,3511
25.11667,3501
25.12500,3488
25.13333,3472
25.14167,3453
25.15000,3431
25.15833,3406
25.16667,3378
25.17500,3348
25.18333,3314
25.19167,3278
25.20000,3238
25.20833,3196
25.21667,3152
25.22500,3104
25.23333,3055
25.24167,3003
25.25000,2948
25.25833,2891
25.26667,2832
25.27500,2771
25.28333,2708
25.29167,2644
25.30000,2579
25.30833,2512
25.31667,2444
25.32500,2376
25.33333,2307
25.34167,2237
25.35000,2166
25.35833,2095
25.36667,2025
25.37500,1954
25.38333,1884
25.39167,1814
25.40000,1745
25.40833,1677
25.41667,1609
25.42500,1542
25.43333,1477
25.44167,1413
25.45000,1350
25.45833,1289
25.46667,1228
25.47500,1170
25.48333,1113
25.49167,1057
25.50000,1004
25.50833,952
25.51667,902
25.52500,855
25.53333,809
25.54167,764
25.55000,721
25.55833,681
25.56667,642
25.57500,605
25.58333,570
25.59167,537
25.60000,505
25.60833,475
25.61667,447
25.62500,420
25.63333,394
25.64167,370
25.65000,347
25.65833,325
25.66667,305
25.67500,285
25.68333,267
25.69167,250
25.70000,235
25.70833,219
25.71667,206
25.72500,193
25.73333,181
25.74167,170
25.75000,160
25.75833,150
25.76667,141
25.77500,133
25.78333,125
25.79167,118
25.80000,111
25.80833,105
25.81667,99
25.82500,93
25.83333,88
25.84167,84
25.85000,79
25.85833,75
25.86667,72
25.87500,68
25.88333,65
25.89167,62
25.90000,59
25.90833,57
25.91667,54
25.92500,51
25.93333,49
25.94167,47
25.95000,45
25.95833,44
25.96667,42
25.97500,41
25.98333,40
25.99167,39
26.00000,38
26.00833,37
26.01667,36
26.02500,35
26.03333,34
26.04167,33
26.05000,32
26.05833,32
26.06667,31
26.07500,30
26.08333,30
26.09167,30
26.10000,29
26.10833,28
26.11667,27
26.12500,27
26.13333,26
26.14167,26
26.15000,26
26.15833,26
26.16667,25
26.17500,25
26.18333,25
26.19167,24
26.20000,23
26.20833,23
26.21667,23
26.22500,23
26.23333,23
26.24167,22
26.25000,22
26.25833,22
26.26667,21
26.27500,21
26.28333,21
26.29167,21
26.30000,21
26.30833,21
26.31667,21
26.32500,21
26.33333,21
26.34167,20
26.35000,19
26.35833,19
26.36667,19
26.37500,19
26.38333,19
26.39167,18
26.40000,18
26.40833,18
26.41667,17
26.42500,17
26.43333,17
26.44167,17
26.45000,17
26.45833,17
26.46667,17
26.47500,17
26.48333,17
26.49167,17
26.50000,17
26.50833,17
26.51667,17
26.52500,17
26.53333,17
26.54167,17
26.55000,17
26.55833,17
26.56667,16
26.57500,16
26.58333,16
26.59167,16
26.60000,16
26.60833,16
26.61667,16
26.62500,16
26.63333,16
26.64167,16
26.65000,16
26.65833,16
26.66667,15
26.67500,15
26.68333,14
26.69167,14
26.70000,13
26.70833,13
26.71667,13
26.72500,13
26.73333,13
26.74167,13
26.75000,13
26.75833,13
26.76667,13
26.77500,13
26.78333,13
26.79167,13
26.80000,13
26.80833,13
26.81667,13
26.82500,13
26.83333,12
26.84167,12
26.85000,12
26.85833,13
26.86667,13
26.87500,13
26.88333,13
26.89167,12
26.90000,12
26.90833,12
26.91667,12
26.92500,12
26.93333,12
26.94167,12
26.95000,12
26.95833,12
26.96667,11
26.97500,11
26.98333,11
26.99167,10
27.00000,10
27.00833,10
27.01667,10
27.02500,9
27.03333,9
27.04167,9
27.05000,9
27.05833,9
27.06667,9
27.07500,8
27.08333,8
27.09167,8
27.10000,8
27.10833,8
27.11667,8
27.12500,8
27.13333,8
27.14167,8
27.15000,7
27.15833,6
27.16667,6
27.17500,5
27.18333,4
27.19167,3
27.20000,3
27.20833,3
27.21667,2
27.22500,2
27.23333,1
27.24167,1
27.25000,0
27.25833,-0
27.26667,-1
27.27500,-2
27.28333,-3
27.29167,-5
27.30000,-6
27.30833,-7
27.31667,-8
27.32500,-9
27.33333,-10
27.34167,-12
27.35000,-13
27.35833,-14
27.36667,-16
27.37500,-17
27.38333,-19
27.39167,-20
27.40000,-21
27.40833,-23
27.41667,-25
27.42500,-27
27.43333,-29
27.44167,-30
27.45000,-32
27.45833,-34
27.46667,-36
27.47500,-38
27.48333,-39
27.49167,-41
27.50000,-43
27.50833,-45
27.51667,-47
27.52500,-49
27.53333,-51
27.54167,-53
27.55000,-54
27.55833,-57
27.56667,-59
27.57500,-61
27.58333,-64
27.59167,-66
27.60000,-68
27.60833,-70
27.61667,-72
27.62500,-74
27.63333,-75
27.64167,-77
27.65000,-79
27.65833,-80
27.66667,-82
27.67500,-84
27.68333,-86
27.69167,-88
27.70000,-90
27.70833,-92
27.71667,-93
27.72500,-95
27.73333,-97
27.74167,-98
27.75000,-99
27.75833,-101
27.76667,-102
27.77500,-103
27.78333,-105
27.79167,-106
27.80000,-107
27.80833,-108
27.81667,-110
27.82500,-111
27.83333,-111
27.84167,-112
27.85000,-112
27.85833,-113
27.86667,-113
27.87500,-114
27.88333,-114
27.89167,-114
27.90000,-114
27.90833,-114
27.91667,-114
27.92500,-114
27.93333,-114
27.94167,-114
27.95000,-114
27.95833,-113
27.96667,-113
27.97500,-112
27.98333,-111
27.99167,-110
28.00000,-109
28.00833,-108
28.01667,-107
28.02500,-106
28.03333,-105
28.04167,-104
28.05000,-103
28.05833,-102
28.06667,-100
28.07500,-99
28.08333,-97
28.09167,-95
28.10000,-94
28.10833,-92
28.11667,-90
28.12500,-88
28.13333,-87
28.14167,-86
28.15000,-84
28.15833,-82
28.16667,-81
28.17500,-79
28.18333,-77
28.19167,-75
28.20000,-73
28.20833,-70
28.21667,-68
28.22500,-66
28.23333,-65
28.24167,-63
28.25000,-61
28.25833,-59
28.26667,-58
28.27500,-56
28.28333,-55
28.29167,-53
28.30000,-51
28.30833,-50
28.31667,-48
28.32500,-46
28.33333,-45
28.34167,-43
28.35000,-42
28.35833,-40
28.36667,-39
28.37500,-37
28.38333,-36
28.39167,-35
28.40000,-34
28.40833,-33
28.41667,-31
28.42500,-30
28.43333,-29
28.44167,-28
28.45000,-27
28.45833,-26
28.46667,-25
28.47500,-24
28.48333,-23
28.49167,-22
28.50000,-21
28.50833,-20
28.51667,-19
28.52500,-18
28.53333,-16
28.54167,-15
28.55000,-15
28.55833,-14
28.56667,-13
28.57500,-12
28.58333,-10
28.59167,-10
28.60000,-9
28.60833,-8
28.61667,-7
28.62500,-5
28.63333,-4
28.64167,-3
28.65000,-3
28.65833,-3
28.66667,-2
28.67500,-1
28.68333,-0
28.69167,1
28.70000,2
28.70833,3
28.71667,4
28.72500,6
28.73333,7
28.74167,8
28.75000,10
28.75833,11
28.76667,13
28.77500,14
28.78333,15
28.79167,17
28.80000,19
28.80833,20
28.81667,21
28.82500,23
28.83333,25
28.84167,26
28.85000,28
28.85833,29
28.86667,31
28.87500,33
28.88333,34
28.89167,36
28.90000,37
28.90833,39
28.91667,41
28.92500,43
28.93333,45
28.94167,46
28.95000,47
28.95833,49
28.96667,50
28.97500,51
28.98333,53
28.99167,55
29.00000,57
29.00833,58
29.01667,59
29.02500,60
29.03333,61
29.04167,62
29.05000,64
29.05833,64
29.06667,65
29.07500,66
29.08333,67
29.09167,69
29.10000,70
29.10833,70
29.11667,71
29.12500,71
29.13333,71
29.14167,72
29.15000,72
29.15833,72
29.16667,72
29.17500,72
29.18333,73
29.19167,73
29.20000,73
29.20833,73
29.21667,73
29.22500,73
29.23333,73
29.24167,73
29.25000,73
29.25833,73
29.26667,73
29.27500,72
29.28333,72
29.29167,72
29.30000,71
29.30833,70
29.31667,70
29.32500,69
29.33333,69
29.34167,68
29.35000,67
29.35833,66
29.36667,65
29.37500,65
29.38333,64
29.39167,63
29.40000,62
29.40833,61
29.41667,60
29.42500,58
29.43333,57
29.44167,55
29.45000,54
29.45833,53
29.46667,51
29.47500,50
29.48333,49
29.49167,48
29.50000,46
29.50833,45
29.51667,44
29.52500,42
29.53333,40
29.54167,38
29.55000,36
29.55833,35
29.56667,33
29.57500,31
29.58333,29
29.59167,28
29.60000,26
29.60833,24
29.61667,23
29.62500,21
29.63333,20
29.64167,18
29.65000,17
29.65833,15
29.66667,14
29.67500,12
29.68333,10
29.69167,8
29.70000,7
29.70833,5
29.71667,4
29.72500,2
29.73333,1
29.74167,0
29.75000,-1
29.75833,-3
29.76667,-4
29.77500,-6
29.78333,-7
29.79167,-9
29.80000,-10
29.80833,-11
29.81667,-12
29.82500,-13
29.83333,-14
29.84167,-15
29.85000,-16
29.85833,-17
29.86667,-18
29.87500,-20
29.88333,-21
29.89167,-22
29.90000,-23
29.90833,-24
29.91667,-25
29.92500,-26
29.93333,-27
29.94167,-29
29.95000,-30
29.95833,-31
29.96667,-32
29.97500,-33
29.98333,-35
29.99167,-36
30.00000,-38
30.00833,-40
30.01667,-42
30.02500,-44
30.03333,-46
30.04167,-48
30.05000,-50
30.05833,-52
30.06667,-55
30.07500,-57
30.08333,-60
30.09167,-62
30.10000,-65
30.10833,-67
30.11667,-70
30.12500,-73
30.13333,-77
30.14167,-80
30.15000,-83
30.15833,-87
30.16667,-91
30.17500,-94
30.18333,-98
30.19167,-101
30.20000,-105
30.20833,-109
30.21667,-112
30.22500,-116
30.23333,-120
30.24167,-124
30.25000,-128
30.25833,-132
30.26667,-135
30.27500,-140
30.28333,-144
30.29167,-148
30.30000,-153
30.30833,-157
30.31667,-161
30.32500,-166
30.33333,-171
30.34167,-175
30.35000,-179
30.35833,-183
30.36667,-187
30.37500,-192
30.38333,-196
30.39167,-200
30.40000,-204
30.40833,-208
30.41667,-212
30.42500,-216
30.43333,-220
30.44167,-224
30.45000,-228
30.45833,-232
30.46667,-235
30.47500,-239
30.48333,-242
30.49167,-246
30.50000,-249
30.50833,-253
30.51667,-256
30.52500,-259
30.53333,-262
30.54167,-265
30.55000,-268
30.55833,-271
30.56667,-273
30.57500,-275
30.58333,-277
30.59167,-279
30.60000,-281
30.60833,-282
30.61667,-284
30.62500,-285
30.63333,-286
30.64167,-287
30.65000,-288
30.65833,-288
30.66667,-288
30.67500,-288
30.68333,-288
30.69167,-288
30.70000,-288
30.70833,-288
30.71667,-287
30.72500,-287
30.73333,-286
30.74167,-284
30.75000,-283
30.75833,-281
30.76667,-279
30.77500,-277
30.78333,-275
30.79167,-273
30.80000,-270
30.80833,-267
30.81667,-265
30.82500,-262
30.83333,-259
30.84167,-256
30.85000,-253
30.85833,-250
30.86667,-246
30.87500,-243
30.88333,-239
30.89167,-236
30.90000,-232
30.90833,-227
30.91667,-223
30.92500,-219
30.93333,-215
30.94167,-210
30.95000,-206
30.95833,-201
30.96667,-197
30.97500,-192
30.98333,-188
30.99167,-183
31.00000,-178
31.00833,-174
31.01667,-170
31.02500,-165
31.03333,-161
31.04167,-156
31.05000,-152
31.05833,-147
31.06667,-142
31.07500,-138
31.08333,-135
31.09167,-131
31.10000,-127
31.10833,-122
31.11667,-119
31.12500,-115
31.13333,-111
31.14167,-107
31.15000,-103
31.15833,-99
31.16667,-95
31.17500,-92
31.18333,-88
31.19167,-85
31.20000,-81
31.20833,-78
31.21667,-75
31.22500,-72
31.23333,-69
31.24167,-66
31.25000,-64
31.25833,-61
31.26667,-58
31.27500,-55
31.28333,-53
31.29167,-51
31.30000,-49
31.30833,-46
31.31667,-45
31.32500,-43
31.33333,-41
31.34167,-39
31.35000,-37
31.35833,-35
31.36667,-34
31.37500,-32
31.38333,-30
31.39167,-29
31.40000,-28
31.40833,-26
31.41667,-25
31.42500,-23
31.43333,-22
31.44167,-21
31.45000,-19
31.45833,-18
31.46667,-16
31.47500,-16
31.48333,-15
31.49167,-14
31.50000,-13
31.50833,-12
31.51667,-11
31.52500,-10
31.53333,-8
31.54167,-6
31.55000,-5
31.55833,-4
31.56667,-2
31.57500,-1
31.58333,0
31.59167,2
31.60000,4
31.60833,5
31.61667,7
31.62500,9
31.63333,11
31.64167,13
31.65000,15
31.65833,18
31.66667,21
31.67500,23
31.68333,26
31.69167,29
31.70000,32
31.70833,34
31.71667,37
31.72500,40
31.73333,44
31.74167,47
31.75000,50
31.75833,54
31.76667,58
31.77500,62
31.78333,66
31.79167,71
31.80000,76
31.80833,81
31.81667,85
31.82500,90
31.83333,95
31.84167,100
31.85000,105
31.85833,111
31.86667,116
31.87500,122
31.88333,128
31.89167,133
31.90000,139
31.90833,145
31.91667,150
31.92500,156
31.93333,162
31.94167,169
31.95000,174
31.95833,180
31.96667,186
31.97500,192
31.98333,198
31.99167,204
32.00000,209
32.00833,215
32.01667,221
32.02500,227
32.03333,233
32.04167,238
32.05000,244
32.05833,250
32.06667,256
32.07500,261
32.08333,266
32.09167,271
32.10000,276
32.10833,281
32.11667,285
32.12500,290
32.13333,294
32.14167,298
32.15000,303
32.15833,307
32.16667,311
32.17500,315
32.18333,319
32.19167,323
32.20000,326
32.20833,329
32.21667,332
32.22500,335
32.23333,338
32.24167,340
32.25000,343
32.25833,345
32.26667,347
32.27500,349
32.28333,351
32.29167,353
32.30000,354
32.30833,356
32.31667,357
32.32500,358
32.33333,359
32.34167,359
32.35000,360
32.35833,360
32.36667,361
32.37500,361
32.38333,361
32.39167,360
32.40000,360
32.40833,360
32.41667,359
32.42500,358
32.43333,357
32.44167,356
32.45000,354
32.45833,352
32.46667,350
32.47500,347
32.48333,345
32.49167,342
32.50000,338
32.50833,335
32.51667,332
32.52500,329
32.53333,325
32.54167,321
32.55000,317
32.55833,313
32.56667,309
32.57500,305
32.58333,300
32.59167,295
32.60000,290
32.60833,285
32.61667,281
32.62500,275
32.63333,270
32.64167,265
32.65000,260
32.65833,254
32.66667,249
32.67500,243
32.68333,237
32.69167,232
32.70000,226
32.70833,220
32.71667,214
32.72500,208
32.73333,202
32.74167,196
32.75000,190
32.75833,184
32.76667,178
32.77500,172
32.78333,166
32.79167,160
32.80000,155
32.80833,150
32.81667,145
32.82500,139
32.83333,134
32.84167,129
32.85000,125
32.85833,120
32.86667,115
32.87500,111
32.88333,106
32.89167,101
32.90000,97
32.90833,92
32.91667,88
32.92500,84
32.93333,80
32.94167,76
32.95000,72
32.95833,69
32.96667,66
32.97500,62
32.98333,59
32.99167,56
33.00000,52
33.00833,50
33.01667,47
33.02500,45
33.03333,42
33.04167,40
33.05000,37
33.05833,35
33.06667,33
33.07500,31
33.08333,29
33.09167,28
33.10000,26
33.10833,25
33.11667,23
33.12500,21
33.13333,19
33.14167,18
33.15000,16
33.15833,15
33.16667,14
33.17500,12
33.18333,12
33.19167,11
33.20000,10
33.20833,9
33.21667,8
33.22500,7
33.23333,6
33.24167,6
33.25000,5
33.25833,4
33.26667,4
33.27500,3
33.28333,2
33.29167,2
33.30000,1
33.30833,1
33.31667,0
33.32500,-0
33.33333,-1
33.34167,-1
33.35000,-1
33.35833,-1
33.36667,-2
33.37500,-2
33.38333,-3
33.39167,-3
33.40000,-4
33.40833,-5
33.41667,-5
33.42500,-5
33.43333,-6
33.44167,-6
33.45000,-7
33.45833,-7
33.46667,-7
33.47500,-8
33.48333,-8
33.49167,-8
33.50000,-8
33.50833,-8
33.51667,-8
33.52500,-8
33.53333,-8
33.54167,-8
33.55000,-9
33.55833,-9
33.56667,-10
33.57500,-10
33.58333,-11
33.59167,-11
33.60000,-11
33.60833,-10
33.61667,-10
33.62500,-10
33.63333,-10
33.64167,-10
33.65000,-10
33.65833,-11
33.66667,-11
33.67500,-11
33.68333,-11
33.69167,-11
33.70000,-11
33.70833,-11
33.71667,-12
33.72500,-12
33.73333,-12
33.74167,-12
33.75000,-12
33.75833,-12
33.76667,-12
33.77500,-12
33.78333,-12
33.79167,-12
33.80000,-12
33.80833,-12
33.81667,-12
33.82500,-12
33.83333,-12
33.84167,-11
33.85000,-11
33.85833,-11
33.86667,-11
33.87500,-11
33.88333,-11
33.89167,-12
33.90000,-11
33.90833,-11
33.91667,-10
33.92500,-10
33.93333,-10
33.94167,-10
33.95000,-10
33.95833,-10
33.96667,-10
33.97500,-10
33.98333,-9
33.99167,-9
34.00000,-9
34.00833,-9
34.01667,-9
34.02500,-8
34.03333,-9
34.04167,-9
34.05000,-8
34.05833,-8
34.06667,-8
34.07500,-8
34.08333,-8
34.09167,-8
34.10000,-8
34.10833,-7
34.11667,-6
34.12500,-6
34.13333,-6
34.14167,-6
34.15000,-6
34.15833,-6
34.16667,-6
34.17500,-6
34.18333,-6
34.19167,-6
34.20000,-5
34.20833,-5
34.21667,-5
34.22500,-4
34.23333,-4
34.24167,-4
34.25000,-4
34.25833,-4
34.26667,-4
34.27500,-4
34.28333,-3
34.29167,-3
34.30000,-3
34.30833,-3
34.31667,-3
34.32500,-3
34.33333,-3
34.34167,-3
34.35000,-3
34.35833,-3
34.36667,-3
34.37500,-3
34.38333,-2
34.39167,-2
34.40000,-2
34.40833,-2
34.41667,-2
34.42500,-2
34.43333,-2
34.44167,-2
34.45000,-1
34.45833,-2
34.46667,-2
34.47500,-2
34.48333,-2
34.49167,-2
34.50000,-2
34.50833,-2
34.51667,-2
34.52500,-1
34.53333,-1
34.54167,-1
34.55000,-1
34.55833,-1
34.56667,-1
34.57500,-1
34.58333,-1
34.59167,-1
34.60000,-1
34.60833,-1
34.61667,-1
34.62500,-1
34.63333,-1
34.64167,-1
34.65000,-1
34.65833,-1
34.66667,-1
34.67500,-1
34.68333,-1
34.69167,-1
34.70000,-2
34.70833,-2
34.71667,-2
34.72500,-2
34.73333,-2
34.74167,-2
34.75000,-2
34.75833,-1
34.76667,-1
34.77500,-2
34.78333,-1
34.79167,-1
34.80000,-2
34.80833,-1
34.81667,-1
34.82500,-1
34.83333,-1
34.84167,-1
34.85000,-1
34.85833,-2
34.86667,-2
34.87500,-2
34.88333,-2
34.89167,-1
34.90000,-1
34.90833,-1
34.91667,-1
34.92500,-1
34.93333,-2
34.94167,-2
34.95000,-2
34.95833,-2
34.96667,-2
34.97500,-2
34.98333,-2
34.99167,-2
35.00000,-2
35.00833,-2
35.01667,-2
35.02500,-2
35.03333,-2
35.04167,-2
35.05000,-2
35.05833,-3
35.06667,-3
35.07500,-3
35.08333,-3
35.09167,-3
35.10000,-3
35.10833,-3
35.11667,-2
35.12500,-2
35.13333,-2
35.14167,-1
35.15000,-1
35.15833,-2
35.16667,-2
35.17500,-2
35.18333,-2
35.19167,-2
35.20000,-2
35.20833,-2
35.21667,-2
35.22500,-2
35.23333,-2
35.24167,-2
35.25000,-2
35.25833,-2
35.26667,-2
35.27500,-2
35.28333,-2
35.29167,-2
35.30000,-2
35.30833,-2
35.31667,-2
35.32500,-1
35.33333,-1
35.34167,-1
35.35000,-1
35.35833,-1
35.36667,-2
35.37500,-2
35.38333,-2
35.39167,-2
35.40000,-2
35.40833,-2
35.41667,-2
35.42500,-2
35.43333,-2
35.44167,-2
35.45000,-2
35.45833,-2
35.46667,-1
35.47500,-1
35.48333,-1
35.49167,-1
35.50000,-1
35.50833,-2
35.51667,-2
35.52500,-2
35.53333,-2
35.54167,-2
35.55000,-2
35.55833,-2
35.56667,-2
35.57500,-3
35.58333,-3
35.59167,-2
35.60000,-2
35.60833,-2
35.61667,-3
35.62500,-3
35.63333,-3
35.64167,-3
35.65000,-3
35.65833,-3
35.66667,-3
35.67500,-2
35.68333,-2
35.69167,-2
35.70000,-2
35.70833,-2
35.71667,-2
35.72500,-2
35.73333,-2
35.74167,-2
35.75000,-2
35.75833,-3
35.76667,-3
35.77500,-3
35.78333,-3
35.79167,-3
35.80000,-3
35.80833,-3
35.81667,-3
35.82500,-3
35.83333,-3
35.84167,-3
35.85000,-4
35.85833,-3
35.86667,-3
35.87500,-3
35.88333,-3
35.89167,-3
35.90000,-2
35.90833,-2
35.91667,-2
35.92500,-3
35.93333,-3
35.94167,-3
35.95000,-3
35.95833,-3
35.96667,-3
35.97500,-3
35.98333,-3
35.99167,-3
36.00000,-3
36.00833,-3
36.01667,-3
36.02500,-3
36.03333,-4
36.04167,-4
36.05000,-4
36.05833,-4
36.06667,-4
36.07500,-4
36.08333,-4
36.09167,-4
36.10000,-4
36.10833,-4
36.11667,-4
36.12500,-4
36.13333,-3
36.14167,-4
36.15000,-4
36.15833,-4
36.16667,-4
36.17500,-5
36.18333,-5
36.19167,-5
36.20000,-5
36.20833,-5
36.21667,-4
36.22500,-4
36.23333,-4
36.24167,-4
36.25000,-4
36.25833,-4
36.26667,-4
36.27500,-4
36.28333,-4
36.29167,-4
36.30000,-4
36.30833,-4
36.31667,-4
36.32500,-4
36.33333,-4
36.34167,-4
36.35000,-4
36.35833,-4
36.36667,-4
36.37500,-4
36.38333,-4
36.39167,-4
36.40000,-4
36.40833,-4
36.41667,-4
36.42500,-4
36.43333,-5
36.44167,-5
36.45000,-4
36.45833,-4
36.46667,-4
36.47500,-4
36.48333,-5
36.49167,-5
36.50000,-5
36.50833,-5
36.51667,-5
36.52500,-5
36.53333,-5
36.54167,-5
36.55000,-5
36.55833,-5
36.56667,-5
36.57500,-5
36.58333,-5
36.59167,-5
36.60000,-4
36.60833,-4
36.61667,-4
36.62500,-4
36.63333,-4
36.64167,-4
36.65000,-4
36.65833,-4
36.66667,-4
36.67500,-4
36.68333,-4
36.69167,-4
36.70000,-5
36.70833,-4
36.71667,-4
36.72500,-4
36.73333,-4
36.74167,-4
36.75000,-4
36.75833,-4
36.76667,-4
36.77500,-5
36.78333,-4
36.79167,-4
36.80000,-4
36.80833,-5
36.81667,-5
36.82500,-5
36.83333,-5
36.84167,-5
36.85000,-5
36.85833,-5
36.86667,-5
36.87500,-5
36.88333,-5
36.89167,-5
36.90000,-4
36.90833,-4
36.91667,-4
36.92500,-4
36.93333,-3
36.94167,-3
36.95000,-3
36.95833,-3
36.96667,-3
36.97500,-3
36.98333,-3
36.99167,-3
37.00000,-4
37.00833,-4
37.01667,-4
37.02500,-3
37.03333,-4
37.04167,-4
37.05000,-4
37.05833,-3
37.06667,-3
37.07500,-3
37.08333,-3
37.09167,-3
37.10000,-3
37.10833,-2
37.11667,-2
37.12500,-2
37.13333,-2
37.14167,-2
37.15000,-2
37.15833,-2
37.16667,-3
37.17500,-3
37.18333,-3
37.19167,-3
37.20000,-3
37.20833,-3
37.21667,-3
37.22500,-3
37.23333,-3
37.24167,-3
37.25000,-3
37.25833,-3
37.26667,-3
37.27500,-3
37.28333,-3
37.29167,-3
37.30000,-3
37.30833,-3
37.31667,-3
37.32500,-3
37.33333,-3
37.34167,-2
37.35000,-2
37.35833,-2
37.36667,-2
37.37500,-3
37.38333,-2
37.39167,-2
37.40000,-2
37.40833,-2
37.41667,-1
37.42500,-1
37.43333,-1
37.44167,-2
37.45000,-2
37.45833,-2
37.46667,-2
37.47500,-1
37.48333,-1
37.49167,-1
37.50000,-2
37.50833,-2
37.51667,-2
37.52500,-2
37.53333,-2
37.54167,-2
37.55000,-2
37.55833,-2
37.56667,-2
37.57500,-2
37.58333,-2
37.59167,-2
37.60000,-2
37.60833,-2
37.61667,-2
37.62500,-2
37.63333,-2
37.64167,-2
37.65000,-2
37.65833,-2
37.66667,-2
37.67500,-2
37.68333,-3
37.69167,-2
37.70000,-2
37.70833,-2
37.71667,-2
37.72500,-2
37.73333,-2
37.74167,-2
37.75000,-1
37.75833,-1
37.76667,-1
37.77500,-1
37.78333,-1
37.79167,-1
37.80000,-2
37.80833,-2
37.81667,-2
37.82500,-2
37.83333,-2
37.84167,-2
37.85000,-2
37.85833,-2
37.86667,-2
37.87500,-2
37.88333,-2
37.89167,-2
37.90000,-2
37.90833,-2
37.91667,-2
37.92500,-3
37.93333,-3
37.94167,-3
37.95000,-3
37.95833,-3
37.96667,-3
37.97500,-3
37.98333,-3
37.99167,-3
38.00000,-3
38.00833,-3
38.01667,-3
38.02500,-3
38.03333,-4
38.04167,-3
38.05000,-3
38.05833,-3
38.06667,-3
38.07500,-2
38.08333,-2
38.09167,-2
38.10000,-2
38.10833,-3
38.11667,-3
38.12500,-3
38.13333,-3
38.14167,-4
38.15000,-4
38.15833,-3
38.16667,-4
38.17500,-4
38.18333,-4
38.19167,-4
38.20000,-4
38.20833,-4
38.21667,-4
38.22500,-4
38.23333,-4
38.24167,-4
38.25000,-4
38.25833,-4
38.26667,-4
38.27500,-4
38.28333,-4
38.29167,-4
38.30000,-4
38.30833,-4
38.31667,-4
38.32500,-4
38.33333,-4
38.34167,-4
38.35000,-5
38.35833,-5
38.36667,-5
38.37500,-5
38.38333,-5
38.39167,-5
38.40000,-5
38.40833,-5
38.41667,-5
38.42500,-5
38.43333,-6
38.44167,-6
38.45000,-6
38.45833,-5
38.46667,-5
38.47500,-5
38.48333,-5
38.49167,-5
38.50000,-5
38.50833,-5
38.51667,-6
38.52500,-6
38.53333,-6
38.54167,-7
38.55000,-7
38.55833,-7
38.56667,-7
38.57500,-7
38.58333,-7
38.59167,-7
38.60000,-7
38.60833,-7
38.61667,-7
38.62500,-7
38.63333,-7
38.64167,-7
38.65000,-8
38.65833,-7
38.66667,-7
38.67500,-8
38.68333,-8
38.69167,-7
38.70000,-7
38.70833,-7
38.71667,-7
38.72500,-7
38.73333,-7
38.74167,-7
38.75000,-7
38.75833,-8
38.76667,-8
38.77500,-8
38.78333,-8
38.79167,-8
38.80000,-8
38.80833,-8
38.81667,-8
38.82500,-7
38.83333,-8
38.84167,-8
38.85000,-8
38.85833,-8
38.86667,-8
38.87500,-9
38.88333,-9
38.89167,-9
38.90000,-9
38.90833,-10
38.91667,-9
38.92500,-9
38.93333,-9
38.94167,-9
38.95000,-10
38.95833,-10
38.96667,-10
38.97500,-10
38.98333,-10
38.99167,-10
39.00000,-10
39.00833,-10
39.01667,-10
39.02500,-11
39.03333,-11
39.04167,-11
39.05000,-11
39.05833,-11
39.06667,-11
39.07500,-11
39.08333,-11
39.09167,-11
39.10000,-11
39.10833,-11
39.11667,-11
39.12500,-11
39.13333,-11
39.14167,-11
39.15000,-11
39.15833,-12
39.16667,-11
39.17500,-12
39.18333,-12
39.19167,-12
39.20000,-12
39.20833,-11
39.21667,-11
39.22500,-10
39.23333,-10
39.24167,-10
39.25000,-11
39.25833,-11
39.26667,-11
39.27500,-11
39.28333,-11
39.29167,-11
39.30000,-12
39.30833,-12
39.31667,-12
39.32500,-12
39.33333,-11
39.34167,-11
39.35000,-12
39.35833,-12
39.36667,-12
39.37500,-12
39.38333,-11
39.39167,-11
39.40000,-11
39.40833,-12
39.41667,-12
39.42500,-12
39.43333,-12
39.44167,-11
39.45000,-11
39.45833,-11
39.46667,-11
39.47500,-11
39.48333,-11
39.49167,-11
39.50000,-11
39.50833,-11
39.51667,-11
39.52500,-11
39.53333,-11
39.54167,-11
39.55000,-11
39.55833,-11
39.56667,-12
39.57500,-12
39.58333,-12
39.59167,-12
39.60000,-12
39.60833,-13
39.61667,-13
39.62500,-13
39.63333,-13
39.64167,-13
39.65000,-13
39.65833,-13
39.66667,-13
39.67500,-12
39.68333,-12
39.69167,-12
39.70000,-12
39.70833,-12
39.71667,-12
39.72500,-12
39.73333,-11
39.74167,-11
39.75000,-12
39.75833,-12
39.76667,-12
39.77500,-12
39.78333,-13
39.79167,-13
39.80000,-12
39.80833,-12
39.81667,-12
39.82500,-12
39.83333,-11
39.84167,-11
39.85000,-11
39.85833,-11
39.86667,-12
39.87500,-12
39.88333,-12
39.89167,-12
39.90000,-12
39.90833,-13
39.91667,-13
39.92500,-13
39.93333,-13
39.94167,-13
39.95000,-13
39.95833,-13
39.96667,-13
39.97500,-13
39.98333,-13
39.99167,-13
40.00000,-13
40.00833,-13
40.01667,-13
40.02500,-13
40.03333,-13
40.04167,-13
40.05000,-12
40.05833,-12
40.06667,-12
40.07500,-12
40.08333,-13
40.09167,-13
40.10000,-13
40.10833,-14
40.11667,-14
40.12500,-13
40.13333,-13
40.14167,-13
40.15000,-13
40.15833,-13
40.16667,-13
40.17500,-13
40.18333,-12
40.19167,-12
40.20000,-12
40.20833,-12
40.21667,-13
40.22500,-13
40.23333,-13
40.24167,-13
40.25000,-13
40.25833,-13
40.26667,-13
40.27500,-14
40.28333,-13
40.29167,-13
40.30000,-13
40.30833,-13
40.31667,-13
40.32500,-13
40.33333,-13
40.34167,-13
40.35000,-13
40.35833,-13
40.36667,-13
40.37500,-14
40.38333,-14
40.39167,-14
40.40000,-14
40.40833,-14
40.41667,-14
40.42500,-14
40.43333,-14
40.44167,-14
40.45000,-14
40.45833,-14
40.46667,-14
40.47500,-14
40.48333,-14
40.49167,-14
40.50000,-14
40.50833,-14
40.51667,-13
40.52500,-13
40.53333,-13
40.54167,-14
40.55000,-14
40.55833,-14
40.56667,-14
40.57500,-14
40.58333,-14
40.59167,-14
40.60000,-14
40.60833,-15
40.61667,-15
40.62500,-15
40.63333,-15
40.64167,-15
40.65000,-15
40.65833,-15
40.66667,-15
40.67500,-15
40.68333,-15
40.69167,-15
40.70000,-15
40.70833,-15
40.71667,-16
40.72500,-16
40.73333,-16
40.74167,-16
40.75000,-16
40.75833,-16
40.76667,-17
40.77500,-17
40.78333,-17
40.79167,-16
40.80000,-17
40.80833,-17
40.81667,-16
40.82500,-16
40.83333,-16
40.84167,-16
40.85000,-16
40.85833,-16
40.86667,-17
40.87500,-17
40.88333,-17
40.89167,-17
40.90000,-16
40.90833,-16
40.91667,-16
40.92500,-16
40.93333,-16
40.94167,-16
40.95000,-16
40.95833,-17
40.96667,-17
40.97500,-17
40.98333,-17
40.99167,-17
41.00000,-17
41.00833,-17
41.01667,-16
41.02500,-16
41.03333,-16
41.04167,-16
41.05000,-16
41.05833,-16
41.06667,-16
41.07500,-16
41.08333,-17
41.09167,-17
41.10000,-17
41.10833,-17
41.11667,-17
41.12500,-17
41.13333,-17
41.14167,-16
41.15000,-16
41.15833,-16
41.16667,-16
41.17500,-16
41.18333,-16
41.19167,-16
41.20000,-17
41.20833,-17
41.21667,-17
41.22500,-17
41.23333,-17
41.24167,-17
41.25000,-17
41.25833,-17
41.26667,-17
41.27500,-17
41.28333,-16
41.29167,-16
41.30000,-17
41.30833,-17
41.31667,-17
41.32500,-17
41.33333,-17
41.34167,-17
41.35000,-17
41.35833,-17
41.36667,-18
41.37500,-18
41.38333,-17
41.39167,-17
41.40000,-17
41.40833,-17
41.41667,-17
41.42500,-17
41.43333,-17
41.44167,-17
41.45000,-17
41.45833,-17
41.46667,-17
41.47500,-17
41.48333,-17
41.49167,-17
41.50000,-17
41.50833,-17
41.51667,-17
41.52500,-17
41.53333,-17
41.54167,-17
41.55000,-17
41.55833,-17
41.56667,-17
41.57500,-17
41.58333,-17
41.59167,-17
41.60000,-17
41.60833,-17
41.61667,-17
41.62500,-17
41.63333,-17
41.64167,-17
41.65000,-17
41.65833,-17
41.66667,-17
41.67500,-17
41.68333,-17
41.69167,-18
41.70000,-18
41.70833,-18
41.71667,-18
41.72500,-18
41.73333,-18
41.74167,-18
41.75000,-18
41.75833,-18
41.76667,-18
41.77500,-18
41.78333,-18
41.79167,-17
41.80000,-17
41.80833,-17
41.81667,-17
41.82500,-17
41.83333,-17
41.84167,-17
41.85000,-17
41.85833,-17
41.86667,-16
41.87500,-16
41.88333,-17
41.89167,-17
41.90000,-17
41.90833,-17
41.91667,-16
41.92500,-16
41.93333,-16
41.94167,-16
41.95000,-16
41.95833,-17
41.96667,-17
41.97500,-16
41.98333,-16
41.99167,-16
42.00000,-16
42.00833,-16
42.01667,-16
42.02500,-16
42.03333,-16
42.04167,-16
42.05000,-16
42.05833,-16
42.06667,-16
42.07500,-16
42.08333,-16
42.09167,-16
42.10000,-16
42.10833,-16
42.11667,-16
42.12500,-17
42.13333,-17
42.14167,-16
42.15000,-16
42.15833,-16
42.16667,-16
42.17500,-16
42.18333,-16
42.19167,-17
42.20000,-17
42.20833,-17
42.21667,-17
42.22500,-17
42.23333,-17
42.24167,-16
42.25000,-16
42.25833,-16
42.26667,-16
42.27500,-15
42.28333,-15
42.29167,-15
42.30000,-15
42.30833,-15
42.31667,-15
42.32500,-16
42.33333,-16
42.34167,-16
42.35000,-16
42.35833,-15
42.36667,-15
42.37500,-15
42.38333,-15
42.39167,-15
42.40000,-15
42.40833,-15
42.41667,-15
42.42500,-15
42.43333,-16
42.44167,-16
42.45000,-16
42.45833,-16
42.46667,-16
42.47500,-16
42.48333,-16
42.49167,-16
42.50000,-16
42.50833,-16
42.51667,-15
42.52500,-15
42.53333,-15
42.54167,-16
42.55000,-16
42.55833,-16
42.56667,-16
42.57500,-16
42.58333,-15
42.59167,-15
42.60000,-15
42.60833,-16
42.61667,-16
42.62500,-15
42.63333,-15
42.64167,-14
42.65000,-14
42.65833,-14
42.66667,-14
42.67500,-14
42.68333,-14
42.69167,-15
42.70000,-15
42.70833,-15
42.71667,-15
42.72500,-15
42.73333,-15
42.74167,-15
42.75000,-14
42.75833,-14
42.76667,-14
42.77500,-14
42.78333,-14
42.79167,-15
42.80000,-15
42.80833,-15
42.81667,-16
42.82500,-16
42.83333,-15
42.84167,-15
42.85000,-15
42.85833,-14
42.86667,-14
42.87500,-14
42.88333,-14
42.89167,-15
42.90000,-15
42.90833,-16
42.91667,-16
42.92500,-16
42.93333,-16
42.94167,-16
42.95000,-15
42.95833,-15
42.96667,-15
42.97500,-15
42.98333,-15
42.99167,-15
43.00000,-15
43.00833,-15
43.01667,-15
43.02500,-14
43.03333,-14
43.04167,-14
43.05000,-15
43.05833,-15
43.06667,-15
43.07500,-15
43.08333,-15
43.09167,-15
43.10000,-15
43.10833,-15
43.11667,-15
43.12500,-16
43.13333,-15
43.14167,-15
43.15000,-15
43.15833,-15
43.16667,-15
43.17500,-16
43.18333,-16
43.19167,-16
43.20000,-16
43.20833,-15
43.21667,-16
43.22500,-16
43.23333,-16
43.24167,-16
43.25000,-16
43.25833,-16
43.26667,-16
43.27500,-16
43.28333,-16
43.29167,-16
43.30000,-16
43.30833,-15
43.31667,-15
43.32500,-15
43.33333,-15
43.34167,-16
43.35000,-15
43.35833,-15
43.36667,-15
43.37500,-15
43.38333,-15
43.39167,-15
43.40000,-15
43.40833,-15
43.41667,-15
43.42500,-16
43.43333,-16
43.44167,-16
43.45000,-16
43.45833,-16
43.46667,-16
43.47500,-15
43.48333,-15
43.49167,-16
43.50000,-15
43.50833,-15
43.51667,-15
43.52500,-15
43.53333,-15
43.54167,-15
43.55000,-15
43.55833,-14
43.56667,-14
43.57500,-14
43.58333,-15
43.59167,-15
43.60000,-15
43.60833,-15
43.61667,-15
43.62500,-15
43.63333,-15
43.64167,-14
43.65000,-14
43.65833,-14
43.66667,-14
43.67500,-14
43.68333,-14
43.69167,-15
43.70000,-15
43.70833,-16
43.71667,-16
43.72500,-16
43.73333,-16
43.74167,-16
43.75000,-16
43.75833,-16
43.76667,-15
43.77500,-15
43.78333,-15
43.79167,-15
43.80000,-15
43.80833,-15
43.81667,-15
43.82500,-15
43.83333,-15
43.84167,-15
43.85000,-15
43.85833,-15
43.86667,-15
43.87500,-15
43.88333,-15
43.89167,-15
43.90000,-15
43.90833,-15
43.91667,-14
43.92500,-14
43.93333,-15
43.94167,-15
43.95000,-15
43.95833,-15
43.96667,-15
43.97500,-15
43.98333,-15
43.99167,-15
44.00000,-15
44.00833,-15
44.01667,-15
44.02500,-15
44.03333,-15
44.04167,-15
44.05000,-15
44.05833,-15
44.06667,-15
44.07500,-15
44.08333,-15
44.09167,-15
44.10000,-15
44.10833,-15
44.11667,-15
44.12500,-15
44.13333,-15
44.14167,-15
44.15000,-14
44.15833,-14
44.16667,-14
44.17500,-15
44.18333,-15
44.19167,-15
44.20000,-15
44.20833,-15
44.21667,-14
44.22500,-14
44.23333,-14
44.24167,-14
44.25000,-15
44.25833,-14
44.26667,-14
44.27500,-14
44.28333,-14
44.29167,-14
44.30000,-14
44.30833,-14
44.31667,-14
44.32500,-14
44.33333,-14
44.34167,-14
44.35000,-14
44.35833,-14
44.36667,-14
44.37500,-15
44.38333,-15
44.39167,-15
44.40000,-15
44.40833,-15
44.41667,-15
44.42500,-15
44.43333,-15
44.44167,-15
44.45000,-15
44.45833,-15
44.46667,-15
44.47500,-15
44.48333,-15
44.49167,-15
44.50000,-15
44.50833,-15
44.51667,-15
44.52500,-15
44.53333,-15
44.54167,-15
44.55000,-16
44.55833,-15
44.56667,-15
44.57500,-16
44.58333,-16
44.59167,-16
44.60000,-16
44.60833,-16
44.61667,-16
44.62500,-16
44.63333,-16
44.64167,-16
44.65000,-16
44.65833,-16
44.66667,-16
44.67500,-16
44.68333,-16
44.69167,-16
44.70000,-16
44.70833,-16
44.71667,-16
44.72500,-16
44.73333,-16
44.74167,-16
44.75000,-16
44.75833,-16
44.76667,-16
44.77500,-16
44.78333,-16
44.79167,-17
44.80000,-17
44.80833,-17
44.81667,-17
44.82500,-16
44.83333,-16
44.84167,-17
44.85000,-16
44.85833,-16
44.86667,-16
44.87500,-16
44.88333,-16
44.89167,-16
44.90000,-16
44.90833,-16
44.91667,-16
44.92500,-16
44.93333,-17
44.94167,-17
44.95000,-17
44.95833,-17
44.96667,-17
44.97500,-17
44.98333,-17
44.99167,-17
45.00000,-17
45.00833,-17
45.01667,-17
45.02500,-17
45.03333,-17
45.04167,-17
45.05000,-17
45.05833,-16
45.06667,-17
45.07500,-16
45.08333,-16
45.09167,-16
45.10000,-16
45.10833,-16
45.11667,-16
45.12500,-16
45.13333,-16
45.14167,-16
45.15000,-17
45.15833,-17
45.16667,-17
45.17500,-17
45.18333,-17
45.19167,-17
45.20000,-17
45.20833,-17
45.21667,-17
45.22500,-17
45.23333,-17
45.24167,-17
45.25000,-17
45.25833,-17
45.26667,-17
45.27500,-17
45.28333,-17
45.29167,-17
45.30000,-17
45.30833,-17
45.31667,-17
45.32500,-18
45.33333,-18
45.34167,-18
45.35000,-18
45.35833,-18
45.36667,-18
45.37500,-17
45.38333,-17
45.39167,-17
45.40000,-17
45.40833,-17
45.41667,-17
45.42500,-17
45.43333,-17
45.44167,-18
45.45000,-18
45.45833,-18
45.46667,-18
45.47500,-17
45.48333,-17
45.49167,-17
45.50000,-17
45.50833,-17
45.51667,-17
45.52500,-17
45.53333,-16
45.54167,-16
45.55000,-16
45.55833,-16
45.56667,-16
45.57500,-16
45.58333,-17
45.59167,-17
45.60000,-17
45.60833,-17
45.61667,-17
45.62500,-17
45.63333,-17
45.64167,-17
45.65000,-17
45.65833,-17
45.66667,-17
45.67500,-17
45.68333,-17
45.69167,-17
45.70000,-17
45.70833,-17
45.71667,-18
45.72500,-18
45.73333,-18
45.74167,-18
45.75000,-18
45.75833,-17
45.76667,-17
45.77500,-17
45.78333,-16
45.79167,-16
45.80000,-16
45.80833,-16
45.81667,-16
45.82500,-16
45.83333,-16
45.84167,-16
45.85000,-17
45.85833,-17
45.86667,-17
45.87500,-17
45.88333,-17
45.89167,-17
45.90000,-17
45.90833,-17
45.91667,-17
45.92500,-17
45.93333,-18
45.94167,-18
45.95000,-18
45.95833,-18
45.96667,-18
45.97500,-17
45.98333,-17
45.99167,-17
46.00000,-17
46.00833,-17
46.01667,-17
46.02500,-17
46.03333,-17
46.04167,-17
46.05000,-17
46.05833,-17
46.06667,-17
46.07500,-17
46.08333,-17
46.09167,-17
46.10000,-17
46.10833,-17
46.11667,-17
46.12500,-16
46.13333,-16
46.14167,-16
46.15000,-16
46.15833,-16
46.16667,-17
46.17500,-17
46.18333,-17
46.19167,-17
46.20000,-17
46.20833,-17
46.21667,-17
46.22500,-18
46.23333,-18
46.24167,-18
46.25000,-18
46.25833,-18
46.26667,-18
46.27500,-18
46.28333,-18
46.29167,-18
46.30000,-17
46.30833,-17
46.31667,-17
46.32500,-17
46.33333,-17
46.34167,-17
46.35000,-17
46.35833,-17
46.36667,-17
46.37500,-17
46.38333,-17
46.39167,-17
46.40000,-17
46.40833,-17
46.41667,-17
46.42500,-17
46.43333,-17
46.44167,-17
46.45000,-17
46.45833,-17
46.46667,-17
46.47500,-18
46.48333,-18
46.49167,-18
46.50000,-18
46.50833,-17
46.51667,-17
46.52500,-17
46.53333,-17
46.54167,-17
46.55000,-17
46.55833,-16
46.56667,-17
46.57500,-16
46.58333,-16
46.59167,-16
46.60000,-17
46.60833,-17
46.61667,-17
46.62500,-17
46.63333,-17
46.64167,-17
46.65000,-18
46.65833,-18
46.66667,-18
46.67500,-18
46.68333,-18
46.69167,-18
46.70000,-18
46.70833,-18
46.71667,-18
46.72500,-18
46.73333,-17
46.74167,-17
46.75000,-18
46.75833,-17
46.76667,-17
46.77500,-18
46.78333,-18
46.79167,-18
46.80000,-18
46.80833,-18
46.81667,-18
46.82500,-18
46.83333,-18
46.84167,-18
46.85000,-18
46.85833,-18
46.86667,-18
46.87500,-17
46.88333,-17
46.89167,-17
46.90000,-17
46.90833,-18
46.91667,-18
46.92500,-18
46.93333,-18
46.94167,-18
46.95000,-18
46.95833,-18
46.96667,-18
46.97500,-19
46.98333,-19
46.99167,-19
47.00000,-19
47.00833,-19
47.01667,-18
47.02500,-19
47.03333,-18
47.04167,-18
47.05000,-18
47.05833,-18
47.06667,-19
47.07500,-18
47.08333,-18
47.09167,-18
47.10000,-18
47.10833,-18
47.11667,-18
47.12500,-17
47.13333,-18
47.14167,-18
47.15000,-18
47.15833,-18
47.16667,-18
47.17500,-18
47.18333,-18
47.19167,-18
47.20000,-18
47.20833,-19
47.21667,-19
47.22500,-19
47.23333,-19
47.24167,-19
47.25000,-18
47.25833,-18
47.26667,-18
47.27500,-18
47.28333,-17
47.29167,-17
47.30000,-17
47.30833,-17
47.31667,-17
47.32500,-18
47.33333,-17
47.34167,-17
47.35000,-17
47.35833,-17
47.36667,-17
47.37500,-17
47.38333,-17
47.39167,-17
47.40000,-17
47.40833,-17
47.41667,-17
47.42500,-17
47.43333,-18
47.44167,-18
47.45000,-18
47.45833,-19
47.46667,-19
47.47500,-19
47.48333,-19
47.49167,-19
47.50000,-19
47.50833,-19
47.51667,-19
47.52500,-18
47.53333,-18
47.54167,-18
47.55000,-18
47.55833,-18
47.56667,-18
47.57500,-18
47.58333,-18
47.59167,-18
47.60000,-19
47.60833,-19
47.61667,-19
47.62500,-19
47.63333,-19
47.64167,-19
47.65000,-19
47.65833,-19
47.66667,-19
47.67500,-19
47.68333,-19
47.69167,-18
47.70000,-18
47.70833,-18
47.71667,-18
47.72500,-18
47.73333,-18
47.74167,-18
47.75000,-18
47.75833,-17
47.76667,-17
47.77500,-17
47.78333,-17
47.79167,-17
47.80000,-18
47.80833,-18
47.81667,-18
47.82500,-19
47.83333,-19
47.84167,-19
47.85000,-19
47.85833,-19
47.86667,-19
47.87500,-19
47.88333,-19
47.89167,-19
47.90000,-19
47.90833,-19
47.91667,-19
47.92500,-19
47.93333,-19
47.94167,-19
47.95000,-19
47.95833,-19
47.96667,-18
47.97500,-18
47.98333,-18
47.99167,-18
48.00000,-18
48.00833,-17
48.01667,-17
48.02500,-18
48.03333,-18
48.04167,-18
48.05000,-18
48.05833,-18
48.06667,-18
48.07500,-18
48.08333,-18
48.09167,-18
48.10000,-18
48.10833,-18
48.11667,-18
48.12500,-18
48.13333,-18
48.14167,-18
48.15000,-18
48.15833,-18
48.16667,-18
48.17500,-18
48.18333,-18
48.19167,-18
48.20000,-18
48.20833,-18
48.21667,-18
48.22500,-18
48.23333,-18
48.24167,-19
48.25000,-19
48.25833,-19
48.26667,-19
48.27500,-19
48.28333,-19
48.29167,-19
48.30000,-19
48.30833,-19
48.31667,-19
48.32500,-19
48.33333,-19
48.34167,-18
48.35000,-18
48.35833,-18
48.36667,-18
48.37500,-18
48.38333,-18
48.39167,-19
48.40000,-19
48.40833,-19
48.41667,-19
48.42500,-19
48.43333,-19
48.44167,-19
48.45000,-19
48.45833,-18
48.46667,-18
48.47500,-18
48.48333,-18
48.49167,-18
48.50000,-18
48.50833,-18
48.51667,-18
48.52500,-19
48.53333,-19
48.54167,-19
48.55000,-19
48.55833,-19
48.56667,-19
48.57500,-19
48.58333,-19
48.59167,-20
48.60000,-20
48.60833,-20
48.61667,-20
48.62500,-19
48.63333,-19
48.64167,-19
48.65000,-19
48.65833,-19
48.66667,-19
48.67500,-19
48.68333,-20
48.69167,-20
48.70000,-20
48.70833,-20
48.71667,-20
48.72500,-20
48.73333,-20
48.74167,-20
48.75000,-20
48.75833,-19
48.76667,-19
48.77500,-20
48.78333,-19
48.79167,-19
48.80000,-19
48.80833,-19
48.81667,-20
48.82500,-20
48.83333,-20
48.84167,-20
48.85000,-21
48.85833,-21
48.86667,-21
48.87500,-20
48.88333,-20
48.89167,-20
48.90000,-20
48.90833,-19
48.91667,-19
48.92500,-19
48.93333,-19
48.94167,-19
48.95000,-19
48.95833,-19
48.96667,-19
48.97500,-19
48.98333,-19
48.99167,-19
49.00000,-19
49.00833,-19
49.01667,-19
49.02500,-19
49.03333,-20
49.04167,-20
49.05000,-20
49.05833,-20
49.06667,-20
49.07500,-20
49.08333,-20
49.09167,-20
49.10000,-20
49.10833,-20
49.11667,-20
49.12500,-20
49.13333,-20
49.14167,-20
49.15000,-20
49.15833,-20
49.16667,-20
49.17500,-20
49.18333,-20
49.19167,-20
49.20000,-20
49.20833,-20
49.21667,-20
49.22500,-20
49.23333,-20
49.24167,-19
49.25000,-20
49.25833,-20
49.26667,-20
49.27500,-20
49.28333,-20
49.29167,-20
49.30000,-19
49.30833,-19
49.31667,-19
49.32500,-20
49.33333,-20
49.34167,-20
49.35000,-20
49.35833,-20
49.36667,-20
49.37500,-20
49.38333,-20
49.39167,-20
49.40000,-19
49.40833,-19
49.41667,-19
49.42500,-19
49.43333,-19
49.44167,-18
49.45000,-18
49.45833,-18
49.46667,-18
49.47500,-18
49.48333,-18
49.49167,-18
49.50000,-18
49.50833,-19
49.51667,-19
49.52500,-19
49.53333,-19
49.54167,-19
49.55000,-19
49.55833,-18
49.56667,-18
49.57500,-19
49.58333,-19
49.59167,-18
49.60000,-18
49.60833,-19
49.61667,-19
49.62500,-18
49.63333,-18
49.64167,-18
49.65000,-18
49.65833,-18
49.66667,-18
49.67500,-18
49.68333,-18
49.69167,-18
49.70000,-18
49.70833,-18
49.71667,-18
49.72500,-18
49.73333,-18
49.74167,-18
49.75000,-18
49.75833,-18
49.76667,-18
49.77500,-18
49.78333,-18
49.79167,-18
49.80000,-17
49.80833,-17
49.81667,-18
49.82500,-18
49.83333,-18
49.84167,-18
49.85000,-18
49.85833,-18
49.86667,-17
49.87500,-17
49.88333,-17
49.89167,-17
49.90000,-17
49.90833,-17
49.91667,-16
49.92500,-16
49.93333,-16
49.94167,-16
49.95000,-16
49.95833,-16
49.96667,-16
49.97500,-15
49.98333,-15
49.99167,-15
50.00000,-15

