[Header]
Application Name,LabSolutions
Version,5.97 SP1
Data File Name,C:\Users\cremerlab\Desktop\Richa\Oct_18th_2022_yield_expt\Oct 18th 2022 yield expt_10182022_001_016.lcd
Output Date,10/19/2022
Output Time,6:16:23 AM

[File Information]
Type,Data File
Generated,10/19/2022 5:26:05 AM
Generated by,System Administrator
Modified,10/19/2022 6:16:23 AM
Modified by,System Administrator

[Sample Information]
Operator Name,System Administrator
Acquired,10/19/2022 5:26:23 AM
Sample Type,0:Unknown
Level,0
Sample Name,101822_BT_3
Sample ID,001
ISTD Amount1,1
ISTD Amount2,1
ISTD Amount3,1
ISTD Amount4,1
ISTD Amount5,1
ISTD Amount6,1
ISTD Amount7,1
ISTD Amount8,1
ISTD Amount9,1
ISTD Amount10,1
ISTD Amount11,1
ISTD Amount12,1
ISTD Amount13,1
ISTD Amount14,1
ISTD Amount15,1
ISTD Amount16,1
ISTD Amount17,1
ISTD Amount18,1
ISTD Amount19,1
ISTD Amount20,1
ISTD Amount21,1
ISTD Amount22,1
ISTD Amount23,1
ISTD Amount24,1
ISTD Amount25,1
ISTD Amount26,1
ISTD Amount27,1
ISTD Amount28,1
ISTD Amount29,1
ISTD Amount30,1
ISTD Amount31,1
ISTD Amount32,1
Sample Amount,1
Dilution Factor,1
Vial#,15
Injection Volume,20

[Original Files]
Data File,C:\Users\cremerlab\Desktop\Richa\Oct_18th_2022_yield_expt\Oct 18th 2022 yield expt_10182022_001_016.lcd
Method File,C:\Users\cremerlab\Desktop\Richa\acetate_excretion.lcm
Batch File,C:\Users\cremerlab\Desktop\Richa\Oct_18th_2022_yield_expt\Oct 18th 2022 yield expt.lcb
Report Format File,c:\LabSolutions\System\DEFAULT.lsr

[File Description]


[Configuration]
Instrument Name,HPLC-PC-Instrument1
Instrument #,1
Line #,1
# of Detectors,2
Detector ID,Detector A,Detector B
Detector Name,Detector A,Detector B
# of Channels,1,1

[Peak Table(Detector A)]
# of Peaks,0

[Peak Table(Detector B)]
# of Peaks,8
Peak#,R.Time,I.Time,F.Time,Area,Height,A/H,Conc.,Mark,ID#,Name,k',Plate #,Plate Ht.,Tailing,Resolution,Sep.Factor,Area Ratio,Height Ratio,Conc. %,Norm Conc.
1,11.032,10.558,12.633,2211658,114401,19.333,0.000,   ,,,0.000,7738,19.384,0.922,0.000,0.000,0,0,0.000,0.000
2,14.355,12.633,15.192,3710634,77951,47.602,0.000, V ,,,0.301,2441,61.439,0.653,3.995,0.000,0,0,0.000,0.000
3,15.777,15.192,18.408,1525406,50754,30.055,0.000, V ,,,0.430,6747,22.231,1.147,1.473,1.428,0,0,0.000,0.000
4,20.988,20.408,21.358,13039,377,34.596,0.000,   ,,,0.903,6518,23.015,0.000,5.764,2.098,0,0,0.000,0.000
5,21.925,21.358,22.600,63192,1700,37.161,0.000, V ,,,0.987,8266,18.146,0.000,0.935,1.094,0,0,0.000,0.000
6,23.124,22.600,23.867,13246,351,37.747,0.000, V ,,,1.096,8462,17.727,0.000,1.217,1.110,0,0,0.000,0.000
7,25.090,24.300,26.142,153976,3853,39.960,0.000,   ,,,1.274,9135,16.420,1.049,1.912,1.163,0,0,0.000,0.000
8,32.359,30.758,33.342,34612,545,63.546,0.000,   ,,,1.933,7656,19.592,0.784,5.748,1.517,0,0,0.000,0.000

[LC Chromatogram(Detector B-Ch1)]
Interval(msec),500
# of Points,6001
Start Time(min),0.000
End Time(min),50.000
Intensity Units,mV
Intensity Multiplier,0.001
R.Time (min),Intensity
0.00000,2
0.00833,2
0.01667,0
0.02500,0
0.03333,0
0.04167,0
0.05000,-0
0.05833,-0
0.06667,-0
0.07500,0
0.08333,0
0.09167,1
0.10000,1
0.10833,1
0.11667,2
0.12500,2
0.13333,1
0.14167,1
0.15000,0
0.15833,-0
0.16667,-0
0.17500,-1
0.18333,-0
0.19167,-0
0.20000,0
0.20833,0
0.21667,0
0.22500,0
0.23333,-0
0.24167,-0
0.25000,-0
0.25833,-0
0.26667,-0
0.27500,-0
0.28333,-0
0.29167,-0
0.30000,-0
0.30833,-0
0.31667,0
0.32500,0
0.33333,1
0.34167,1
0.35000,1
0.35833,1
0.36667,1
0.37500,0
0.38333,0
0.39167,0
0.40000,0
0.40833,0
0.41667,0
0.42500,0
0.43333,0
0.44167,0
0.45000,0
0.45833,1
0.46667,1
0.47500,0
0.48333,0
0.49167,0
0.50000,-0
0.50833,-0
0.51667,-0
0.52500,-0
0.53333,0
0.54167,0
0.55000,0
0.55833,1
0.56667,1
0.57500,1
0.58333,1
0.59167,0
0.60000,0
0.60833,-0
0.61667,-0
0.62500,-1
0.63333,-1
0.64167,-1
0.65000,-1
0.65833,-0
0.66667,-0
0.67500,-0
0.68333,0
0.69167,0
0.70000,0
0.70833,-0
0.71667,-0
0.72500,-1
0.73333,-1
0.74167,-1
0.75000,-1
0.75833,-1
0.76667,-1
0.77500,-1
0.78333,-1
0.79167,-1
0.80000,-1
0.80833,-1
0.81667,-1
0.82500,-1
0.83333,-1
0.84167,-1
0.85000,-1
0.85833,-1
0.86667,-1
0.87500,-1
0.88333,-1
0.89167,-0
0.90000,-1
0.90833,-1
0.91667,-1
0.92500,-2
0.93333,-2
0.94167,-2
0.95000,-2
0.95833,-3
0.96667,-3
0.97500,-3
0.98333,-3
0.99167,-2
1.00000,-2
1.00833,-2
1.01667,-2
1.02500,-2
1.03333,-2
1.04167,-3
1.05000,-3
1.05833,-3
1.06667,-3
1.07500,-3
1.08333,-3
1.09167,-3
1.10000,-2
1.10833,-2
1.11667,-2
1.12500,-2
1.13333,-2
1.14167,-2
1.15000,-3
1.15833,-3
1.16667,-3
1.17500,-3
1.18333,-3
1.19167,-3
1.20000,-3
1.20833,-3
1.21667,-3
1.22500,-3
1.23333,-4
1.24167,-4
1.25000,-4
1.25833,-4
1.26667,-5
1.27500,-5
1.28333,-5
1.29167,-4
1.30000,-4
1.30833,-4
1.31667,-4
1.32500,-4
1.33333,-4
1.34167,-4
1.35000,-4
1.35833,-3
1.36667,-4
1.37500,-4
1.38333,-4
1.39167,-4
1.40000,-4
1.40833,-4
1.41667,-5
1.42500,-5
1.43333,-5
1.44167,-5
1.45000,-5
1.45833,-5
1.46667,-5
1.47500,-5
1.48333,-5
1.49167,-5
1.50000,-5
1.50833,-5
1.51667,-5
1.52500,-5
1.53333,-5
1.54167,-5
1.55000,-5
1.55833,-5
1.56667,-5
1.57500,-5
1.58333,-5
1.59167,-6
1.60000,-6
1.60833,-6
1.61667,-6
1.62500,-6
1.63333,-6
1.64167,-6
1.65000,-6
1.65833,-6
1.66667,-6
1.67500,-6
1.68333,-6
1.69167,-6
1.70000,-6
1.70833,-6
1.71667,-6
1.72500,-6
1.73333,-6
1.74167,-7
1.75000,-7
1.75833,-6
1.76667,-6
1.77500,-6
1.78333,-6
1.79167,-6
1.80000,-7
1.80833,-7
1.81667,-7
1.82500,-7
1.83333,-6
1.84167,-6
1.85000,-6
1.85833,-6
1.86667,-6
1.87500,-6
1.88333,-6
1.89167,-6
1.90000,-6
1.90833,-6
1.91667,-6
1.92500,-7
1.93333,-7
1.94167,-7
1.95000,-7
1.95833,-6
1.96667,-6
1.97500,-7
1.98333,-7
1.99167,-7
2.00000,-6
2.00833,-6
2.01667,-6
2.02500,-6
2.03333,-6
2.04167,-6
2.05000,-6
2.05833,-6
2.06667,-6
2.07500,-6
2.08333,-5
2.09167,-5
2.10000,-6
2.10833,-6
2.11667,-7
2.12500,-7
2.13333,-7
2.14167,-7
2.15000,-7
2.15833,-7
2.16667,-7
2.17500,-7
2.18333,-7
2.19167,-6
2.20000,-6
2.20833,-6
2.21667,-6
2.22500,-6
2.23333,-7
2.24167,-7
2.25000,-7
2.25833,-8
2.26667,-8
2.27500,-8
2.28333,-8
2.29167,-7
2.30000,-7
2.30833,-7
2.31667,-7
2.32500,-7
2.33333,-6
2.34167,-6
2.35000,-7
2.35833,-7
2.36667,-7
2.37500,-6
2.38333,-6
2.39167,-6
2.40000,-7
2.40833,-7
2.41667,-7
2.42500,-7
2.43333,-7
2.44167,-7
2.45000,-7
2.45833,-7
2.46667,-7
2.47500,-7
2.48333,-7
2.49167,-7
2.50000,-7
2.50833,-7
2.51667,-8
2.52500,-8
2.53333,-8
2.54167,-8
2.55000,-8
2.55833,-8
2.56667,-8
2.57500,-8
2.58333,-7
2.59167,-7
2.60000,-6
2.60833,-6
2.61667,-6
2.62500,-6
2.63333,-6
2.64167,-7
2.65000,-7
2.65833,-7
2.66667,-7
2.67500,-7
2.68333,-8
2.69167,-8
2.70000,-8
2.70833,-8
2.71667,-8
2.72500,-8
2.73333,-8
2.74167,-8
2.75000,-8
2.75833,-8
2.76667,-8
2.77500,-7
2.78333,-7
2.79167,-7
2.80000,-7
2.80833,-7
2.81667,-7
2.82500,-7
2.83333,-7
2.84167,-8
2.85000,-8
2.85833,-8
2.86667,-8
2.87500,-7
2.88333,-7
2.89167,-7
2.90000,-7
2.90833,-7
2.91667,-7
2.92500,-7
2.93333,-7
2.94167,-7
2.95000,-7
2.95833,-7
2.96667,-7
2.97500,-7
2.98333,-7
2.99167,-7
3.00000,-7
3.00833,-7
3.01667,-7
3.02500,-7
3.03333,-7
3.04167,-7
3.05000,-8
3.05833,-8
3.06667,-7
3.07500,-7
3.08333,-7
3.09167,-7
3.10000,-7
3.10833,-7
3.11667,-7
3.12500,-7
3.13333,-7
3.14167,-7
3.15000,-7
3.15833,-7
3.16667,-7
3.17500,-7
3.18333,-7
3.19167,-7
3.20000,-7
3.20833,-7
3.21667,-7
3.22500,-7
3.23333,-7
3.24167,-7
3.25000,-7
3.25833,-7
3.26667,-7
3.27500,-7
3.28333,-7
3.29167,-7
3.30000,-6
3.30833,-6
3.31667,-6
3.32500,-7
3.33333,-7
3.34167,-7
3.35000,-7
3.35833,-7
3.36667,-7
3.37500,-7
3.38333,-7
3.39167,-7
3.40000,-7
3.40833,-7
3.41667,-7
3.42500,-7
3.43333,-7
3.44167,-7
3.45000,-7
3.45833,-7
3.46667,-7
3.47500,-7
3.48333,-7
3.49167,-7
3.50000,-7
3.50833,-7
3.51667,-7
3.52500,-7
3.53333,-6
3.54167,-6
3.55000,-6
3.55833,-6
3.56667,-6
3.57500,-6
3.58333,-6
3.59167,-7
3.60000,-7
3.60833,-7
3.61667,-7
3.62500,-7
3.63333,-7
3.64167,-7
3.65000,-7
3.65833,-7
3.66667,-7
3.67500,-6
3.68333,-6
3.69167,-6
3.70000,-6
3.70833,-6
3.71667,-6
3.72500,-6
3.73333,-6
3.74167,-6
3.75000,-6
3.75833,-5
3.76667,-6
3.77500,-6
3.78333,-6
3.79167,-6
3.80000,-6
3.80833,-6
3.81667,-6
3.82500,-5
3.83333,-5
3.84167,-6
3.85000,-5
3.85833,-6
3.86667,-6
3.87500,-6
3.88333,-6
3.89167,-6
3.90000,-6
3.90833,-6
3.91667,-6
3.92500,-6
3.93333,-5
3.94167,-5
3.95000,-5
3.95833,-4
3.96667,-4
3.97500,-5
3.98333,-5
3.99167,-5
4.00000,-5
4.00833,-5
4.01667,-6
4.02500,-6
4.03333,-6
4.04167,-6
4.05000,-6
4.05833,-7
4.06667,-6
4.07500,-6
4.08333,-6
4.09167,-6
4.10000,-6
4.10833,-6
4.11667,-6
4.12500,-6
4.13333,-5
4.14167,-5
4.15000,-5
4.15833,-5
4.16667,-5
4.17500,-5
4.18333,-5
4.19167,-5
4.20000,-5
4.20833,-4
4.21667,-4
4.22500,-5
4.23333,-5
4.24167,-5
4.25000,-5
4.25833,-6
4.26667,-6
4.27500,-6
4.28333,-6
4.29167,-6
4.30000,-6
4.30833,-5
4.31667,-5
4.32500,-5
4.33333,-5
4.34167,-5
4.35000,-6
4.35833,-6
4.36667,-6
4.37500,-6
4.38333,-6
4.39167,-6
4.40000,-6
4.40833,-6
4.41667,-6
4.42500,-6
4.43333,-6
4.44167,-6
4.45000,-6
4.45833,-6
4.46667,-6
4.47500,-6
4.48333,-5
4.49167,-5
4.50000,-5
4.50833,-5
4.51667,-5
4.52500,-5
4.53333,-6
4.54167,-6
4.55000,-6
4.55833,-6
4.56667,-6
4.57500,-6
4.58333,-6
4.59167,-5
4.60000,-5
4.60833,-5
4.61667,-5
4.62500,-5
4.63333,-5
4.64167,-5
4.65000,-5
4.65833,-5
4.66667,-5
4.67500,-6
4.68333,-6
4.69167,-6
4.70000,-6
4.70833,-6
4.71667,-5
4.72500,-5
4.73333,-5
4.74167,-5
4.75000,-5
4.75833,-5
4.76667,-5
4.77500,-5
4.78333,-6
4.79167,-6
4.80000,-6
4.80833,-6
4.81667,-6
4.82500,-6
4.83333,-6
4.84167,-5
4.85000,-5
4.85833,-5
4.86667,-5
4.87500,-6
4.88333,-6
4.89167,-6
4.90000,-6
4.90833,-6
4.91667,-6
4.92500,-6
4.93333,-6
4.94167,-6
4.95000,-6
4.95833,-6
4.96667,-6
4.97500,-6
4.98333,-6
4.99167,-7
5.00000,-7
5.00833,-7
5.01667,-7
5.02500,-7
5.03333,-7
5.04167,-7
5.05000,-6
5.05833,-6
5.06667,-5
5.07500,-5
5.08333,-5
5.09167,-5
5.10000,-5
5.10833,-6
5.11667,-6
5.12500,-6
5.13333,-6
5.14167,-6
5.15000,-6
5.15833,-6
5.16667,-5
5.17500,-6
5.18333,-6
5.19167,-6
5.20000,-6
5.20833,-6
5.21667,-6
5.22500,-6
5.23333,-7
5.24167,-7
5.25000,-7
5.25833,-7
5.26667,-7
5.27500,-6
5.28333,-7
5.29167,-7
5.30000,-7
5.30833,-6
5.31667,-6
5.32500,-6
5.33333,-6
5.34167,-6
5.35000,-6
5.35833,-6
5.36667,-6
5.37500,-6
5.38333,-6
5.39167,-6
5.40000,-6
5.40833,-6
5.41667,-6
5.42500,-7
5.43333,-7
5.44167,-7
5.45000,-7
5.45833,-6
5.46667,-6
5.47500,-6
5.48333,-6
5.49167,-6
5.50000,-7
5.50833,-7
5.51667,-6
5.52500,-6
5.53333,-6
5.54167,-5
5.55000,-5
5.55833,-5
5.56667,-6
5.57500,-6
5.58333,-6
5.59167,-6
5.60000,-6
5.60833,-6
5.61667,-6
5.62500,-6
5.63333,-6
5.64167,-6
5.65000,-6
5.65833,-6
5.66667,-6
5.67500,-7
5.68333,-7
5.69167,-6
5.70000,-6
5.70833,-5
5.71667,-5
5.72500,-5
5.73333,-5
5.74167,-5
5.75000,-5
5.75833,-5
5.76667,-6
5.77500,-6
5.78333,-6
5.79167,-5
5.80000,-6
5.80833,-6
5.81667,-6
5.82500,-6
5.83333,-6
5.84167,-6
5.85000,-6
5.85833,-6
5.86667,-6
5.87500,-6
5.88333,-6
5.89167,-6
5.90000,-6
5.90833,-6
5.91667,-6
5.92500,-6
5.93333,-6
5.94167,-7
5.95000,-7
5.95833,-7
5.96667,-7
5.97500,-6
5.98333,-6
5.99167,-6
6.00000,-6
6.00833,-6
6.01667,-6
6.02500,-7
6.03333,-6
6.04167,-6
6.05000,-6
6.05833,-6
6.06667,-6
6.07500,-6
6.08333,-6
6.09167,-6
6.10000,-6
6.10833,-6
6.11667,-7
6.12500,-6
6.13333,-6
6.14167,-6
6.15000,-6
6.15833,-6
6.16667,-6
6.17500,-6
6.18333,-6
6.19167,-6
6.20000,-6
6.20833,-6
6.21667,-6
6.22500,-6
6.23333,-6
6.24167,-6
6.25000,-6
6.25833,-6
6.26667,-6
6.27500,-6
6.28333,-6
6.29167,-6
6.30000,-6
6.30833,-6
6.31667,-6
6.32500,-6
6.33333,-6
6.34167,-6
6.35000,-6
6.35833,-6
6.36667,-6
6.37500,-6
6.38333,-6
6.39167,-6
6.40000,-6
6.40833,-6
6.41667,-6
6.42500,-6
6.43333,-5
6.44167,-5
6.45000,-5
6.45833,-5
6.46667,-5
6.47500,-5
6.48333,-5
6.49167,-5
6.50000,-6
6.50833,-6
6.51667,-6
6.52500,-6
6.53333,-6
6.54167,-6
6.55000,-6
6.55833,-6
6.56667,-7
6.57500,-7
6.58333,-7
6.59167,-7
6.60000,-7
6.60833,-6
6.61667,-6
6.62500,-6
6.63333,-6
6.64167,-7
6.65000,-7
6.65833,-7
6.66667,-6
6.67500,-6
6.68333,-6
6.69167,-6
6.70000,-6
6.70833,-6
6.71667,-6
6.72500,-6
6.73333,-6
6.74167,-6
6.75000,-6
6.75833,-6
6.76667,-6
6.77500,-6
6.78333,-6
6.79167,-6
6.80000,-6
6.80833,-6
6.81667,-7
6.82500,-7
6.83333,-6
6.84167,-6
6.85000,-6
6.85833,-6
6.86667,-6
6.87500,-6
6.88333,-6
6.89167,-6
6.90000,-5
6.90833,-5
6.91667,-5
6.92500,-5
6.93333,-5
6.94167,-5
6.95000,-5
6.95833,-5
6.96667,-5
6.97500,-5
6.98333,-5
6.99167,-5
7.00000,-6
7.00833,-6
7.01667,-6
7.02500,-6
7.03333,-6
7.04167,-7
7.05000,-7
7.05833,-7
7.06667,-7
7.07500,-7
7.08333,-7
7.09167,-7
7.10000,-7
7.10833,-7
7.11667,-6
7.12500,-6
7.13333,-6
7.14167,-6
7.15000,-6
7.15833,-5
7.16667,-5
7.17500,-5
7.18333,-6
7.19167,-6
7.20000,-6
7.20833,-7
7.21667,-6
7.22500,-6
7.23333,-6
7.24167,-6
7.25000,-5
7.25833,-5
7.26667,-5
7.27500,-6
7.28333,-6
7.29167,-6
7.30000,-6
7.30833,-6
7.31667,-6
7.32500,-5
7.33333,-5
7.34167,-5
7.35000,-5
7.35833,-5
7.36667,-5
7.37500,-5
7.38333,-6
7.39167,-6
7.40000,-6
7.40833,-6
7.41667,-6
7.42500,-6
7.43333,-6
7.44167,-6
7.45000,-6
7.45833,-6
7.46667,-6
7.47500,-6
7.48333,-6
7.49167,-6
7.50000,-6
7.50833,-6
7.51667,-6
7.52500,-6
7.53333,-6
7.54167,-5
7.55000,-5
7.55833,-5
7.56667,-6
7.57500,-6
7.58333,-6
7.59167,-6
7.60000,-5
7.60833,-5
7.61667,-5
7.62500,-5
7.63333,-5
7.64167,-5
7.65000,-6
7.65833,-6
7.66667,-6
7.67500,-6
7.68333,-6
7.69167,-6
7.70000,-7
7.70833,-7
7.71667,-7
7.72500,-7
7.73333,-6
7.74167,-6
7.75000,-6
7.75833,-6
7.76667,-6
7.77500,-7
7.78333,-7
7.79167,-7
7.80000,-7
7.80833,-7
7.81667,-7
7.82500,-7
7.83333,-7
7.84167,-7
7.85000,-7
7.85833,-7
7.86667,-7
7.87500,-7
7.88333,-7
7.89167,-7
7.90000,-7
7.90833,-7
7.91667,-6
7.92500,-7
7.93333,-7
7.94167,-7
7.95000,-7
7.95833,-7
7.96667,-7
7.97500,-7
7.98333,-6
7.99167,-6
8.00000,-6
8.00833,-7
8.01667,-7
8.02500,-7
8.03333,-7
8.04167,-7
8.05000,-7
8.05833,-7
8.06667,-7
8.07500,-6
8.08333,-6
8.09167,-6
8.10000,-7
8.10833,-7
8.11667,-7
8.12500,-7
8.13333,-8
8.14167,-8
8.15000,-8
8.15833,-8
8.16667,-8
8.17500,-8
8.18333,-8
8.19167,-8
8.20000,-8
8.20833,-8
8.21667,-7
8.22500,-7
8.23333,-8
8.24167,-8
8.25000,-8
8.25833,-8
8.26667,-8
8.27500,-8
8.28333,-8
8.29167,-7
8.30000,-7
8.30833,-7
8.31667,-7
8.32500,-7
8.33333,-7
8.34167,-7
8.35000,-6
8.35833,-6
8.36667,-7
8.37500,-7
8.38333,-7
8.39167,-7
8.40000,-7
8.40833,-7
8.41667,-7
8.42500,-7
8.43333,-7
8.44167,-7
8.45000,-7
8.45833,-7
8.46667,-7
8.47500,-7
8.48333,-7
8.49167,-7
8.50000,-7
8.50833,-7
8.51667,-7
8.52500,-7
8.53333,-7
8.54167,-7
8.55000,-7
8.55833,-7
8.56667,-7
8.57500,-7
8.58333,-8
8.59167,-8
8.60000,-8
8.60833,-8
8.61667,-8
8.62500,-7
8.63333,-7
8.64167,-7
8.65000,-7
8.65833,-7
8.66667,-7
8.67500,-7
8.68333,-7
8.69167,-7
8.70000,-7
8.70833,-7
8.71667,-7
8.72500,-7
8.73333,-7
8.74167,-7
8.75000,-7
8.75833,-7
8.76667,-7
8.77500,-7
8.78333,-7
8.79167,-6
8.80000,-6
8.80833,-6
8.81667,-6
8.82500,-7
8.83333,-7
8.84167,-7
8.85000,-7
8.85833,-7
8.86667,-7
8.87500,-7
8.88333,-7
8.89167,-7
8.90000,-7
8.90833,-7
8.91667,-7
8.92500,-7
8.93333,-7
8.94167,-7
8.95000,-7
8.95833,-7
8.96667,-7
8.97500,-7
8.98333,-6
8.99167,-7
9.00000,-7
9.00833,-7
9.01667,-7
9.02500,-8
9.03333,-7
9.04167,-7
9.05000,-7
9.05833,-7
9.06667,-7
9.07500,-7
9.08333,-7
9.09167,-7
9.10000,-7
9.10833,-7
9.11667,-7
9.12500,-7
9.13333,-8
9.14167,-8
9.15000,-7
9.15833,-7
9.16667,-7
9.17500,-7
9.18333,-7
9.19167,-7
9.20000,-7
9.20833,-7
9.21667,-7
9.22500,-7
9.23333,-7
9.24167,-7
9.25000,-7
9.25833,-7
9.26667,-7
9.27500,-7
9.28333,-7
9.29167,-7
9.30000,-7
9.30833,-7
9.31667,-8
9.32500,-8
9.33333,-8
9.34167,-8
9.35000,-7
9.35833,-7
9.36667,-7
9.37500,-7
9.38333,-7
9.39167,-7
9.40000,-6
9.40833,-6
9.41667,-6
9.42500,-6
9.43333,-6
9.44167,-6
9.45000,-7
9.45833,-8
9.46667,-8
9.47500,-8
9.48333,-8
9.49167,-8
9.50000,-7
9.50833,-7
9.51667,-7
9.52500,-7
9.53333,-7
9.54167,-7
9.55000,-7
9.55833,-7
9.56667,-7
9.57500,-7
9.58333,-7
9.59167,-7
9.60000,-7
9.60833,-7
9.61667,-7
9.62500,-6
9.63333,-6
9.64167,-6
9.65000,-6
9.65833,-6
9.66667,-6
9.67500,-6
9.68333,-6
9.69167,-6
9.70000,-7
9.70833,-7
9.71667,-7
9.72500,-7
9.73333,-7
9.74167,-7
9.75000,-7
9.75833,-7
9.76667,-7
9.77500,-8
9.78333,-8
9.79167,-8
9.80000,-8
9.80833,-8
9.81667,-7
9.82500,-7
9.83333,-7
9.84167,-7
9.85000,-7
9.85833,-7
9.86667,-7
9.87500,-7
9.88333,-7
9.89167,-7
9.90000,-8
9.90833,-8
9.91667,-8
9.92500,-8
9.93333,-8
9.94167,-7
9.95000,-7
9.95833,-7
9.96667,-7
9.97500,-7
9.98333,-7
9.99167,-7
10.00000,-7
10.00833,-7
10.01667,-8
10.02500,-8
10.03333,-8
10.04167,-8
10.05000,-8
10.05833,-8
10.06667,-7
10.07500,-7
10.08333,-7
10.09167,-7
10.10000,-7
10.10833,-7
10.11667,-7
10.12500,-7
10.13333,-7
10.14167,-7
10.15000,-7
10.15833,-6
10.16667,-6
10.17500,-6
10.18333,-6
10.19167,-6
10.20000,-6
10.20833,-6
10.21667,-6
10.22500,-6
10.23333,-6
10.24167,-6
10.25000,-6
10.25833,-5
10.26667,-5
10.27500,-5
10.28333,-5
10.29167,-6
10.30000,-6
10.30833,-6
10.31667,-6
10.32500,-6
10.33333,-6
10.34167,-6
10.35000,-6
10.35833,-7
10.36667,-8
10.37500,-9
10.38333,-12
10.39167,-17
10.40000,-23
10.40833,-31
10.41667,-42
10.42500,-57
10.43333,-75
10.44167,-99
10.45000,-127
10.45833,-161
10.46667,-201
10.47500,-247
10.48333,-299
10.49167,-355
10.50000,-415
10.50833,-478
10.51667,-541
10.52500,-601
10.53333,-656
10.54167,-702
10.55000,-733
10.55833,-747
10.56667,-736
10.57500,-697
10.58333,-622
10.59167,-507
10.60000,-345
10.60833,-129
10.61667,146
10.62500,487
10.63333,899
10.64167,1388
10.65000,1959
10.65833,2618
10.66667,3370
10.67500,4219
10.68333,5169
10.69167,6225
10.70000,7389
10.70833,8666
10.71667,10057
10.72500,11565
10.73333,13193
10.74167,14940
10.75000,16809
10.75833,18800
10.76667,20913
10.77500,23149
10.78333,25507
10.79167,27986
10.80000,30584
10.80833,33301
10.81667,36132
10.82500,39077
10.83333,42131
10.84167,45290
10.85000,48550
10.85833,51906
10.86667,55350
10.87500,58876
10.88333,62474
10.89167,66134
10.90000,69844
10.90833,73588
10.91667,77350
10.92500,81112
10.93333,84848
10.94167,88532
10.95000,92133
10.95833,95614
10.96667,98936
10.97500,102053
10.98333,104917
10.99167,107473
11.00000,109667
11.00833,111442
11.01667,112742
11.02500,113513
11.03333,113706
11.04167,113282
11.05000,112214
11.05833,110486
11.06667,108102
11.07500,105081
11.08333,101463
11.09167,97304
11.10000,92675
11.10833,87661
11.11667,82354
11.12500,76852
11.13333,71250
11.14167,65642
11.15000,60112
11.15833,54737
11.16667,49577
11.17500,44684
11.18333,40094
11.19167,35832
11.20000,31910
11.20833,28331
11.21667,25091
11.22500,22178
11.23333,19575
11.24167,17261
11.25000,15216
11.25833,13415
11.26667,11836
11.27500,10455
11.28333,9251
11.29167,8202
11.30000,7291
11.30833,6501
11.31667,5814
11.32500,5217
11.33333,4699
11.34167,4248
11.35000,3855
11.35833,3512
11.36667,3212
11.37500,2949
11.38333,2717
11.39167,2512
11.40000,2330
11.40833,2169
11.41667,2024
11.42500,1895
11.43333,1778
11.44167,1673
11.45000,1577
11.45833,1489
11.46667,1409
11.47500,1335
11.48333,1267
11.49167,1204
11.50000,1146
11.50833,1092
11.51667,1042
11.52500,995
11.53333,951
11.54167,909
11.55000,870
11.55833,834
11.56667,799
11.57500,767
11.58333,736
11.59167,707
11.60000,679
11.60833,653
11.61667,629
11.62500,605
11.63333,583
11.64167,562
11.65000,542
11.65833,523
11.66667,504
11.67500,487
11.68333,471
11.69167,455
11.70000,440
11.70833,425
11.71667,412
11.72500,399
11.73333,387
11.74167,375
11.75000,364
11.75833,354
11.76667,345
11.77500,336
11.78333,327
11.79167,319
11.80000,311
11.80833,304
11.81667,296
11.82500,290
11.83333,284
11.84167,278
11.85000,272
11.85833,266
11.86667,261
11.87500,256
11.88333,252
11.89167,247
11.90000,243
11.90833,240
11.91667,236
11.92500,233
11.93333,230
11.94167,228
11.95000,225
11.95833,223
11.96667,221
11.97500,219
11.98333,218
11.99167,216
12.00000,214
12.00833,212
12.01667,210
12.02500,209
12.03333,208
12.04167,206
12.05000,205
12.05833,204
12.06667,202
12.07500,201
12.08333,200
12.09167,199
12.10000,198
12.10833,197
12.11667,196
12.12500,195
12.13333,193
12.14167,192
12.15000,191
12.15833,190
12.16667,190
12.17500,189
12.18333,188
12.19167,187
12.20000,185
12.20833,184
12.21667,183
12.22500,182
12.23333,181
12.24167,179
12.25000,178
12.25833,177
12.26667,176
12.27500,175
12.28333,174
12.29167,173
12.30000,171
12.30833,170
12.31667,169
12.32500,168
12.33333,167
12.34167,166
12.35000,164
12.35833,163
12.36667,162
12.37500,161
12.38333,160
12.39167,159
12.40000,158
12.40833,157
12.41667,156
12.42500,155
12.43333,154
12.44167,153
12.45000,152
12.45833,151
12.46667,151
12.47500,150
12.48333,149
12.49167,148
12.50000,147
12.50833,147
12.51667,146
12.52500,145
12.53333,144
12.54167,143
12.55000,142
12.55833,142
12.56667,141
12.57500,140
12.58333,139
12.59167,139
12.60000,138
12.60833,138
12.61667,137
12.62500,137
12.63333,136
12.64167,136
12.65000,137
12.65833,138
12.66667,139
12.67500,140
12.68333,143
12.69167,146
12.70000,151
12.70833,156
12.71667,163
12.72500,172
12.73333,182
12.74167,194
12.75000,209
12.75833,225
12.76667,244
12.77500,266
12.78333,291
12.79167,318
12.80000,350
12.80833,385
12.81667,425
12.82500,468
12.83333,515
12.84167,567
12.85000,623
12.85833,684
12.86667,750
12.87500,820
12.88333,896
12.89167,976
12.90000,1062
12.90833,1153
12.91667,1249
12.92500,1351
12.93333,1459
12.94167,1572
12.95000,1690
12.95833,1815
12.96667,1945
12.97500,2080
12.98333,2221
12.99167,2367
13.00000,2519
13.00833,2677
13.01667,2840
13.02500,3008
13.03333,3182
13.04167,3361
13.05000,3545
13.05833,3734
13.06667,3928
13.07500,4128
13.08333,4333
13.09167,4543
13.10000,4757
13.10833,4977
13.11667,5201
13.12500,5429
13.13333,5663
13.14167,5900
13.15000,6142
13.15833,6388
13.16667,6638
13.17500,6893
13.18333,7151
13.19167,7413
13.20000,7680
13.20833,7949
13.21667,8223
13.22500,8500
13.23333,8781
13.24167,9065
13.25000,9354
13.25833,9646
13.26667,9941
13.27500,10239
13.28333,10541
13.29167,10846
13.30000,11154
13.30833,11466
13.31667,11780
13.32500,12098
13.33333,12419
13.34167,12743
13.35000,13070
13.35833,13401
13.36667,13735
13.37500,14071
13.38333,14411
13.39167,14753
13.40000,15099
13.40833,15447
13.41667,15799
13.42500,16154
13.43333,16512
13.44167,16873
13.45000,17237
13.45833,17604
13.46667,17975
13.47500,18348
13.48333,18724
13.49167,19104
13.50000,19486
13.50833,19872
13.51667,20261
13.52500,20652
13.53333,21047
13.54167,21446
13.55000,21847
13.55833,22252
13.56667,22660
13.57500,23072
13.58333,23487
13.59167,23905
13.60000,24326
13.60833,24751
13.61667,25179
13.62500,25611
13.63333,26046
13.64167,26485
13.65000,26927
13.65833,27372
13.66667,27822
13.67500,28275
13.68333,28731
13.69167,29191
13.70000,29655
13.70833,30123
13.71667,30594
13.72500,31069
13.73333,31548
13.74167,32031
13.75000,32518
13.75833,33008
13.76667,33503
13.77500,34002
13.78333,34505
13.79167,35012
13.80000,35523
13.80833,36039
13.81667,36559
13.82500,37083
13.83333,37611
13.84167,38144
13.85000,38681
13.85833,39222
13.86667,39768
13.87500,40319
13.88333,40874
13.89167,41434
13.90000,41999
13.90833,42568
13.91667,43142
13.92500,43721
13.93333,44306
13.94167,44895
13.95000,45489
13.95833,46088
13.96667,46693
13.97500,47302
13.98333,47917
13.99167,48538
14.00000,49163
14.00833,49794
14.01667,50431
14.02500,51073
14.03333,51721
14.04167,52374
14.05000,53033
14.05833,53699
14.06667,54370
14.07500,55047
14.08333,55730
14.09167,56420
14.10000,57115
14.10833,57817
14.11667,58526
14.12500,59240
14.13333,59961
14.14167,60688
14.15000,61422
14.15833,62163
14.16667,62911
14.17500,63666
14.18333,64427
14.19167,65196
14.20000,65971
14.20833,66754
14.21667,67544
14.22500,68339
14.23333,69139
14.24167,69942
14.25000,70744
14.25833,71543
14.26667,72332
14.27500,73105
14.28333,73853
14.29167,74566
14.30000,75234
14.30833,75844
14.31667,76384
14.32500,76841
14.33333,77203
14.34167,77460
14.35000,77602
14.35833,77620
14.36667,77508
14.37500,77260
14.38333,76873
14.39167,76343
14.40000,75667
14.40833,74844
14.41667,73873
14.42500,72751
14.43333,71476
14.44167,70047
14.45000,68461
14.45833,66717
14.46667,64817
14.47500,62762
14.48333,60557
14.49167,58209
14.50000,55731
14.50833,53138
14.51667,50448
14.52500,47684
14.53333,44869
14.54167,42029
14.55000,39192
14.55833,36382
14.56667,33627
14.57500,30950
14.58333,28372
14.59167,25911
14.60000,23582
14.60833,21395
14.61667,19358
14.62500,17474
14.63333,15744
14.64167,14163
14.65000,12729
14.65833,11433
14.66667,10268
14.67500,9226
14.68333,8297
14.69167,7471
14.70000,6738
14.70833,6091
14.71667,5519
14.72500,5014
14.73333,4568
14.74167,4175
14.75000,3829
14.75833,3524
14.76667,3254
14.77500,3015
14.78333,2803
14.79167,2615
14.80000,2447
14.80833,2298
14.81667,2165
14.82500,2045
14.83333,1937
14.84167,1839
14.85000,1751
14.85833,1670
14.86667,1596
14.87500,1529
14.88333,1468
14.89167,1411
14.90000,1358
14.90833,1309
14.91667,1264
14.92500,1222
14.93333,1182
14.94167,1144
14.95000,1109
14.95833,1077
14.96667,1046
14.97500,1017
14.98333,990
14.99167,964
15.00000,939
15.00833,915
15.01667,893
15.02500,872
15.03333,852
15.04167,833
15.05000,815
15.05833,799
15.06667,783
15.07500,768
15.08333,754
15.09167,740
15.10000,728
15.10833,716
15.11667,704
15.12500,694
15.13333,684
15.14167,675
15.15000,667
15.15833,660
15.16667,654
15.17500,650
15.18333,647
15.19167,645
15.20000,646
15.20833,649
15.21667,655
15.22500,665
15.23333,679
15.24167,698
15.25000,723
15.25833,756
15.26667,797
15.27500,848
15.28333,911
15.29167,988
15.30000,1080
15.30833,1190
15.31667,1321
15.32500,1474
15.33333,1655
15.34167,1864
15.35000,2105
15.35833,2382
15.36667,2697
15.37500,3055
15.38333,3459
15.39167,3912
15.40000,4417
15.40833,4977
15.41667,5595
15.42500,6273
15.43333,7013
15.44167,7816
15.45000,8684
15.45833,9617
15.46667,10615
15.47500,11676
15.48333,12800
15.49167,13984
15.50000,15226
15.50833,16521
15.51667,17866
15.52500,19254
15.53333,20682
15.54167,22142
15.55000,23628
15.55833,25133
15.56667,26650
15.57500,28173
15.58333,29693
15.59167,31203
15.60000,32696
15.60833,34163
15.61667,35599
15.62500,36996
15.63333,38348
15.64167,39649
15.65000,40894
15.65833,42079
15.66667,43198
15.67500,44247
15.68333,45223
15.69167,46124
15.70000,46946
15.70833,47687
15.71667,48346
15.72500,48921
15.73333,49411
15.74167,49816
15.75000,50136
15.75833,50369
15.76667,50517
15.77500,50580
15.78333,50558
15.79167,50451
15.80000,50262
15.80833,49992
15.81667,49641
15.82500,49213
15.83333,48708
15.84167,48129
15.85000,47478
15.85833,46759
15.86667,45974
15.87500,45127
15.88333,44220
15.89167,43259
15.90000,42247
15.90833,41190
15.91667,40090
15.92500,38954
15.93333,37784
15.94167,36587
15.95000,35368
15.95833,34131
15.96667,32881
15.97500,31624
15.98333,30363
15.99167,29104
16.00000,27851
16.00833,26610
16.01667,25382
16.02500,24173
16.03333,22986
16.04167,21823
16.05000,20688
16.05833,19583
16.06667,18511
16.07500,17474
16.08333,16473
16.09167,15510
16.10000,14585
16.10833,13699
16.11667,12853
16.12500,12047
16.13333,11281
16.14167,10553
16.15000,9865
16.15833,9215
16.16667,8603
16.17500,8026
16.18333,7484
16.19167,6976
16.20000,6501
16.20833,6057
16.21667,5643
16.22500,5258
16.23333,4900
16.24167,4568
16.25000,4260
16.25833,3974
16.26667,3711
16.27500,3467
16.28333,3242
16.29167,3035
16.30000,2844
16.30833,2667
16.31667,2505
16.32500,2356
16.33333,2218
16.34167,2092
16.35000,1976
16.35833,1869
16.36667,1772
16.37500,1682
16.38333,1599
16.39167,1523
16.40000,1452
16.40833,1388
16.41667,1328
16.42500,1272
16.43333,1221
16.44167,1174
16.45000,1130
16.45833,1090
16.46667,1052
16.47500,1017
16.48333,984
16.49167,953
16.50000,924
16.50833,897
16.51667,871
16.52500,847
16.53333,824
16.54167,802
16.55000,782
16.55833,762
16.56667,744
16.57500,726
16.58333,708
16.59167,692
16.60000,676
16.60833,661
16.61667,646
16.62500,632
16.63333,618
16.64167,605
16.65000,593
16.65833,581
16.66667,569
16.67500,557
16.68333,546
16.69167,536
16.70000,525
16.70833,515
16.71667,505
16.72500,495
16.73333,486
16.74167,477
16.75000,468
16.75833,461
16.76667,453
16.77500,445
16.78333,438
16.79167,431
16.80000,424
16.80833,418
16.81667,412
16.82500,406
16.83333,400
16.84167,394
16.85000,389
16.85833,384
16.86667,380
16.87500,375
16.88333,370
16.89167,366
16.90000,361
16.90833,357
16.91667,353
16.92500,350
16.93333,346
16.94167,343
16.95000,339
16.95833,336
16.96667,333
16.97500,330
16.98333,328
16.99167,325
17.00000,321
17.00833,318
17.01667,316
17.02500,313
17.03333,311
17.04167,309
17.05000,307
17.05833,304
17.06667,301
17.07500,299
17.08333,298
17.09167,296
17.10000,294
17.10833,292
17.11667,289
17.12500,287
17.13333,285
17.14167,283
17.15000,281
17.15833,279
17.16667,277
17.17500,275
17.18333,274
17.19167,272
17.20000,271
17.20833,269
17.21667,267
17.22500,266
17.23333,264
17.24167,263
17.25000,261
17.25833,259
17.26667,257
17.27500,255
17.28333,253
17.29167,252
17.30000,250
17.30833,248
17.31667,246
17.32500,244
17.33333,243
17.34167,241
17.35000,240
17.35833,238
17.36667,236
17.37500,235
17.38333,233
17.39167,232
17.40000,231
17.40833,229
17.41667,228
17.42500,226
17.43333,224
17.44167,222
17.45000,220
17.45833,219
17.46667,217
17.47500,216
17.48333,214
17.49167,213
17.50000,212
17.50833,210
17.51667,209
17.52500,207
17.53333,206
17.54167,204
17.55000,202
17.55833,201
17.56667,199
17.57500,197
17.58333,196
17.59167,195
17.60000,194
17.60833,192
17.61667,191
17.62500,189
17.63333,188
17.64167,187
17.65000,186
17.65833,184
17.66667,182
17.67500,181
17.68333,180
17.69167,179
17.70000,178
17.70833,177
17.71667,176
17.72500,175
17.73333,173
17.74167,172
17.75000,171
17.75833,170
17.76667,170
17.77500,169
17.78333,168
17.79167,166
17.80000,165
17.80833,165
17.81667,164
17.82500,162
17.83333,161
17.84167,160
17.85000,160
17.85833,159
17.86667,158
17.87500,157
17.88333,156
17.89167,155
17.90000,154
17.90833,153
17.91667,152
17.92500,151
17.93333,150
17.94167,149
17.95000,148
17.95833,148
17.96667,147
17.97500,146
17.98333,146
17.99167,145
18.00000,144
18.00833,144
18.01667,143
18.02500,142
18.03333,141
18.04167,140
18.05000,139
18.05833,138
18.06667,138
18.07500,137
18.08333,137
18.09167,136
18.10000,136
18.10833,135
18.11667,134
18.12500,133
18.13333,132
18.14167,132
18.15000,131
18.15833,131
18.16667,130
18.17500,129
18.18333,129
18.19167,128
18.20000,127
18.20833,127
18.21667,126
18.22500,126
18.23333,125
18.24167,125
18.25000,124
18.25833,124
18.26667,123
18.27500,123
18.28333,122
18.29167,122
18.30000,121
18.30833,121
18.31667,120
18.32500,120
18.33333,119
18.34167,119
18.35000,118
18.35833,117
18.36667,117
18.37500,116
18.38333,115
18.39167,115
18.40000,115
18.40833,114
18.41667,114
18.42500,114
18.43333,114
18.44167,114
18.45000,113
18.45833,113
18.46667,112
18.47500,112
18.48333,111
18.49167,111
18.50000,111
18.50833,110
18.51667,110
18.52500,110
18.53333,109
18.54167,109
18.55000,109
18.55833,109
18.56667,109
18.57500,108
18.58333,108
18.59167,108
18.60000,108
18.60833,108
18.61667,107
18.62500,107
18.63333,107
18.64167,106
18.65000,105
18.65833,105
18.66667,104
18.67500,104
18.68333,103
18.69167,103
18.70000,102
18.70833,102
18.71667,101
18.72500,101
18.73333,100
18.74167,100
18.75000,99
18.75833,99
18.76667,99
18.77500,98
18.78333,98
18.79167,98
18.80000,98
18.80833,98
18.81667,97
18.82500,96
18.83333,96
18.84167,95
18.85000,95
18.85833,94
18.86667,94
18.87500,93
18.88333,93
18.89167,92
18.90000,92
18.90833,91
18.91667,91
18.92500,90
18.93333,90
18.94167,89
18.95000,89
18.95833,89
18.96667,89
18.97500,88
18.98333,88
18.99167,88
19.00000,87
19.00833,87
19.01667,86
19.02500,86
19.03333,86
19.04167,86
19.05000,86
19.05833,86
19.06667,86
19.07500,86
19.08333,86
19.09167,86
19.10000,85
19.10833,85
19.11667,84
19.12500,84
19.13333,84
19.14167,84
19.15000,84
19.15833,84
19.16667,84
19.17500,84
19.18333,84
19.19167,84
19.20000,83
19.20833,83
19.21667,82
19.22500,82
19.23333,82
19.24167,82
19.25000,82
19.25833,82
19.26667,82
19.27500,82
19.28333,83
19.29167,82
19.30000,82
19.30833,81
19.31667,81
19.32500,80
19.33333,80
19.34167,80
19.35000,80
19.35833,79
19.36667,79
19.37500,78
19.38333,78
19.39167,78
19.40000,77
19.40833,77
19.41667,76
19.42500,75
19.43333,75
19.44167,75
19.45000,75
19.45833,74
19.46667,74
19.47500,73
19.48333,73
19.49167,72
19.50000,71
19.50833,71
19.51667,70
19.52500,70
19.53333,69
19.54167,69
19.55000,68
19.55833,67
19.56667,67
19.57500,66
19.58333,65
19.59167,65
19.60000,64
19.60833,64
19.61667,63
19.62500,63
19.63333,62
19.64167,61
19.65000,61
19.65833,60
19.66667,60
19.67500,59
19.68333,59
19.69167,58
19.70000,57
19.70833,57
19.71667,56
19.72500,56
19.73333,56
19.74167,56
19.75000,56
19.75833,55
19.76667,55
19.77500,54
19.78333,54
19.79167,54
19.80000,53
19.80833,53
19.81667,52
19.82500,52
19.83333,51
19.84167,50
19.85000,50
19.85833,50
19.86667,50
19.87500,50
19.88333,50
19.89167,50
19.90000,50
19.90833,50
19.91667,50
19.92500,50
19.93333,49
19.94167,49
19.95000,49
19.95833,49
19.96667,48
19.97500,48
19.98333,47
19.99167,47
20.00000,47
20.00833,47
20.01667,47
20.02500,47
20.03333,47
20.04167,47
20.05000,47
20.05833,46
20.06667,46
20.07500,46
20.08333,46
20.09167,46
20.10000,46
20.10833,45
20.11667,45
20.12500,45
20.13333,44
20.14167,44
20.15000,44
20.15833,44
20.16667,44
20.17500,44
20.18333,44
20.19167,44
20.20000,44
20.20833,44
20.21667,44
20.22500,44
20.23333,44
20.24167,44
20.25000,43
20.25833,43
20.26667,43
20.27500,43
20.28333,43
20.29167,42
20.30000,42
20.30833,42
20.31667,42
20.32500,43
20.33333,43
20.34167,43
20.35000,43
20.35833,43
20.36667,43
20.37500,43
20.38333,44
20.39167,44
20.40000,45
20.40833,46
20.41667,47
20.42500,48
20.43333,50
20.44167,51
20.45000,53
20.45833,55
20.46667,57
20.47500,59
20.48333,62
20.49167,65
20.50000,67
20.50833,71
20.51667,74
20.52500,78
20.53333,82
20.54167,87
20.55000,91
20.55833,97
20.56667,102
20.57500,109
20.58333,115
20.59167,122
20.60000,129
20.60833,136
20.61667,143
20.62500,151
20.63333,159
20.64167,167
20.65000,176
20.65833,185
20.66667,194
20.67500,203
20.68333,212
20.69167,222
20.70000,231
20.70833,240
20.71667,250
20.72500,259
20.73333,268
20.74167,277
20.75000,286
20.75833,295
20.76667,304
20.77500,312
20.78333,320
20.79167,328
20.80000,335
20.80833,343
20.81667,349
20.82500,356
20.83333,362
20.84167,368
20.85000,374
20.85833,379
20.86667,384
20.87500,389
20.88333,394
20.89167,398
20.90000,401
20.90833,405
20.91667,408
20.92500,410
20.93333,413
20.94167,415
20.95000,416
20.95833,418
20.96667,419
20.97500,420
20.98333,420
20.99167,420
21.00000,419
21.00833,418
21.01667,417
21.02500,415
21.03333,413
21.04167,411
21.05000,409
21.05833,406
21.06667,403
21.07500,399
21.08333,395
21.09167,391
21.10000,386
21.10833,381
21.11667,377
21.12500,372
21.13333,367
21.14167,362
21.15000,356
21.15833,350
21.16667,344
21.17500,339
21.18333,333
21.19167,326
21.20000,320
21.20833,314
21.21667,307
21.22500,301
21.23333,295
21.24167,289
21.25000,283
21.25833,277
21.26667,271
21.27500,266
21.28333,261
21.29167,256
21.30000,252
21.30833,248
21.31667,244
21.32500,242
21.33333,239
21.34167,238
21.35000,237
21.35833,236
21.36667,236
21.37500,237
21.38333,239
21.39167,242
21.40000,246
21.40833,252
21.41667,258
21.42500,266
21.43333,275
21.44167,286
21.45000,298
21.45833,311
21.46667,326
21.47500,342
21.48333,360
21.49167,379
21.50000,400
21.50833,423
21.51667,447
21.52500,473
21.53333,500
21.54167,528
21.55000,558
21.55833,590
21.56667,623
21.57500,657
21.58333,692
21.59167,728
21.60000,765
21.60833,802
21.61667,840
21.62500,878
21.63333,917
21.64167,955
21.65000,995
21.65833,1034
21.66667,1073
21.67500,1111
21.68333,1148
21.69167,1185
21.70000,1221
21.70833,1256
21.71667,1291
21.72500,1325
21.73333,1357
21.74167,1389
21.75000,1420
21.75833,1449
21.76667,1477
21.77500,1504
21.78333,1529
21.79167,1552
21.80000,1575
21.80833,1596
21.81667,1615
21.82500,1633
21.83333,1650
21.84167,1666
21.85000,1680
21.85833,1692
21.86667,1703
21.87500,1712
21.88333,1720
21.89167,1727
21.90000,1732
21.90833,1736
21.91667,1738
21.92500,1739
21.93333,1738
21.94167,1736
21.95000,1731
21.95833,1726
21.96667,1718
21.97500,1709
21.98333,1698
21.99167,1686
22.00000,1672
22.00833,1657
22.01667,1640
22.02500,1621
22.03333,1600
22.04167,1578
22.05000,1554
22.05833,1529
22.06667,1503
22.07500,1476
22.08333,1447
22.09167,1416
22.10000,1385
22.10833,1353
22.11667,1319
22.12500,1285
22.13333,1250
22.14167,1215
22.15000,1179
22.15833,1143
22.16667,1106
22.17500,1069
22.18333,1032
22.19167,995
22.20000,958
22.20833,922
22.21667,886
22.22500,851
22.23333,816
22.24167,781
22.25000,747
22.25833,714
22.26667,681
22.27500,649
22.28333,618
22.29167,588
22.30000,558
22.30833,530
22.31667,503
22.32500,477
22.33333,453
22.34167,429
22.35000,406
22.35833,385
22.36667,364
22.37500,344
22.38333,326
22.39167,308
22.40000,292
22.40833,277
22.41667,262
22.42500,248
22.43333,235
22.44167,223
22.45000,212
22.45833,202
22.46667,193
22.47500,184
22.48333,176
22.49167,168
22.50000,161
22.50833,155
22.51667,149
22.52500,143
22.53333,139
22.54167,134
22.55000,131
22.55833,128
22.56667,125
22.57500,123
22.58333,121
22.59167,119
22.60000,119
22.60833,119
22.61667,119
22.62500,120
22.63333,121
22.64167,122
22.65000,123
22.65833,125
22.66667,127
22.67500,130
22.68333,134
22.69167,137
22.70000,141
22.70833,144
22.71667,148
22.72500,153
22.73333,158
22.74167,163
22.75000,168
22.75833,174
22.76667,180
22.77500,186
22.78333,192
22.79167,198
22.80000,204
22.80833,211
22.81667,218
22.82500,224
22.83333,231
22.84167,238
22.85000,245
22.85833,252
22.86667,259
22.87500,266
22.88333,272
22.89167,279
22.90000,285
22.90833,292
22.91667,298
22.92500,304
22.93333,310
22.94167,316
22.95000,322
22.95833,327
22.96667,333
22.97500,337
22.98333,342
22.99167,347
23.00000,352
23.00833,356
23.01667,360
23.02500,363
23.03333,366
23.04167,370
23.05000,373
23.05833,375
23.06667,377
23.07500,379
23.08333,380
23.09167,382
23.10000,382
23.10833,382
23.11667,383
23.12500,383
23.13333,383
23.14167,382
23.15000,381
23.15833,380
23.16667,379
23.17500,377
23.18333,375
23.19167,372
23.20000,369
23.20833,366
23.21667,362
23.22500,358
23.23333,353
23.24167,348
23.25000,343
23.25833,337
23.26667,332
23.27500,326
23.28333,320
23.29167,314
23.30000,308
23.30833,301
23.31667,294
23.32500,287
23.33333,280
23.34167,272
23.35000,265
23.35833,257
23.36667,249
23.37500,241
23.38333,233
23.39167,225
23.40000,218
23.40833,211
23.41667,203
23.42500,196
23.43333,189
23.44167,182
23.45000,174
23.45833,167
23.46667,160
23.47500,153
23.48333,147
23.49167,141
23.50000,135
23.50833,128
23.51667,122
23.52500,117
23.53333,112
23.54167,106
23.55000,101
23.55833,96
23.56667,92
23.57500,87
23.58333,83
23.59167,79
23.60000,76
23.60833,72
23.61667,69
23.62500,66
23.63333,63
23.64167,60
23.65000,58
23.65833,56
23.66667,53
23.67500,51
23.68333,48
23.69167,47
23.70000,45
23.70833,43
23.71667,42
23.72500,41
23.73333,40
23.74167,38
23.75000,37
23.75833,36
23.76667,36
23.77500,35
23.78333,34
23.79167,33
23.80000,33
23.80833,32
23.81667,31
23.82500,31
23.83333,30
23.84167,29
23.85000,29
23.85833,28
23.86667,28
23.87500,28
23.88333,28
23.89167,27
23.90000,27
23.90833,27
23.91667,27
23.92500,27
23.93333,26
23.94167,26
23.95000,26
23.95833,26
23.96667,26
23.97500,26
23.98333,26
23.99167,26
24.00000,26
24.00833,26
24.01667,26
24.02500,26
24.03333,25
24.04167,25
24.05000,25
24.05833,25
24.06667,24
24.07500,24
24.08333,24
24.09167,24
24.10000,24
24.10833,25
24.11667,25
24.12500,25
24.13333,24
24.14167,24
24.15000,24
24.15833,24
24.16667,24
24.17500,24
24.18333,24
24.19167,24
24.20000,24
24.20833,25
24.21667,25
24.22500,25
24.23333,26
24.24167,26
24.25000,26
24.25833,26
24.26667,26
24.27500,26
24.28333,27
24.29167,28
24.30000,29
24.30833,30
24.31667,32
24.32500,33
24.33333,35
24.34167,37
24.35000,39
24.35833,42
24.36667,45
24.37500,49
24.38333,53
24.39167,58
24.40000,63
24.40833,69
24.41667,77
24.42500,84
24.43333,93
24.44167,103
24.45000,114
24.45833,126
24.46667,140
24.47500,155
24.48333,172
24.49167,190
24.50000,210
24.50833,232
24.51667,255
24.52500,281
24.53333,309
24.54167,339
24.55000,371
24.55833,405
24.56667,443
24.57500,483
24.58333,525
24.59167,570
24.60000,617
24.60833,667
24.61667,720
24.62500,775
24.63333,832
24.64167,893
24.65000,955
24.65833,1020
24.66667,1087
24.67500,1156
24.68333,1227
24.69167,1300
24.70000,1375
24.70833,1451
24.71667,1528
24.72500,1606
24.73333,1686
24.74167,1766
24.75000,1846
24.75833,1927
24.76667,2009
24.77500,2090
24.78333,2171
24.79167,2251
24.80000,2331
24.80833,2410
24.81667,2488
24.82500,2565
24.83333,2641
24.84167,2715
24.85000,2787
24.85833,2857
24.86667,2926
24.87500,2993
24.88333,3058
24.89167,3120
24.90000,3180
24.90833,3239
24.91667,3294
24.92500,3348
24.93333,3399
24.94167,3448
24.95000,3495
24.95833,3539
24.96667,3581
24.97500,3620
24.98333,3657
24.99167,3691
25.00000,3723
25.00833,3751
25.01667,3777
25.02500,3801
25.03333,3822
25.04167,3840
25.05000,3855
25.05833,3868
25.06667,3878
25.07500,3884
25.08333,3888
25.09167,3889
25.10000,3887
25.10833,3881
25.11667,3873
25.12500,3861
25.13333,3846
25.14167,3828
25.15000,3807
25.15833,3783
25.16667,3755
25.17500,3724
25.18333,3689
25.19167,3652
25.20000,3612
25.20833,3569
25.21667,3523
25.22500,3474
25.23333,3422
25.24167,3367
25.25000,3309
25.25833,3248
25.26667,3186
25.27500,3121
25.28333,3054
25.29167,2986
25.30000,2915
25.30833,2844
25.31667,2770
25.32500,2696
25.33333,2620
25.34167,2544
25.35000,2467
25.35833,2390
25.36667,2313
25.37500,2235
25.38333,2158
25.39167,2082
25.40000,2005
25.40833,1930
25.41667,1855
25.42500,1781
25.43333,1707
25.44167,1635
25.45000,1565
25.45833,1496
25.46667,1429
25.47500,1364
25.48333,1300
25.49167,1238
25.50000,1178
25.50833,1120
25.51667,1063
25.52500,1009
25.53333,956
25.54167,906
25.55000,857
25.55833,811
25.56667,766
25.57500,724
25.58333,683
25.59167,644
25.60000,607
25.60833,572
25.61667,538
25.62500,507
25.63333,477
25.64167,449
25.65000,422
25.65833,396
25.66667,372
25.67500,350
25.68333,330
25.69167,310
25.70000,292
25.70833,275
25.71667,259
25.72500,244
25.73333,230
25.74167,217
25.75000,204
25.75833,193
25.76667,182
25.77500,172
25.78333,163
25.79167,154
25.80000,146
25.80833,138
25.81667,131
25.82500,125
25.83333,119
25.84167,113
25.85000,108
25.85833,103
25.86667,99
25.87500,95
25.88333,91
25.89167,87
25.90000,84
25.90833,81
25.91667,79
25.92500,76
25.93333,74
25.94167,72
25.95000,70
25.95833,68
25.96667,66
25.97500,64
25.98333,63
25.99167,61
26.00000,59
26.00833,58
26.01667,57
26.02500,55
26.03333,54
26.04167,53
26.05000,52
26.05833,51
26.06667,50
26.07500,50
26.08333,49
26.09167,48
26.10000,47
26.10833,46
26.11667,46
26.12500,45
26.13333,45
26.14167,45
26.15000,45
26.15833,44
26.16667,43
26.17500,43
26.18333,42
26.19167,42
26.20000,41
26.20833,41
26.21667,41
26.22500,41
26.23333,40
26.24167,40
26.25000,40
26.25833,40
26.26667,40
26.27500,40
26.28333,39
26.29167,39
26.30000,39
26.30833,39
26.31667,39
26.32500,39
26.33333,39
26.34167,39
26.35000,38
26.35833,38
26.36667,38
26.37500,38
26.38333,38
26.39167,38
26.40000,37
26.40833,37
26.41667,37
26.42500,37
26.43333,36
26.44167,36
26.45000,35
26.45833,36
26.46667,36
26.47500,36
26.48333,36
26.49167,35
26.50000,34
26.50833,34
26.51667,34
26.52500,34
26.53333,34
26.54167,34
26.55000,34
26.55833,34
26.56667,34
26.57500,34
26.58333,34
26.59167,34
26.60000,34
26.60833,34
26.61667,34
26.62500,34
26.63333,33
26.64167,33
26.65000,33
26.65833,33
26.66667,33
26.67500,33
26.68333,33
26.69167,33
26.70000,32
26.70833,32
26.71667,32
26.72500,31
26.73333,31
26.74167,31
26.75000,31
26.75833,31
26.76667,31
26.77500,31
26.78333,31
26.79167,31
26.80000,31
26.80833,31
26.81667,31
26.82500,31
26.83333,31
26.84167,31
26.85000,31
26.85833,30
26.86667,30
26.87500,30
26.88333,30
26.89167,30
26.90000,30
26.90833,30
26.91667,30
26.92500,30
26.93333,30
26.94167,30
26.95000,30
26.95833,30
26.96667,30
26.97500,30
26.98333,30
26.99167,30
27.00000,30
27.00833,30
27.01667,29
27.02500,29
27.03333,29
27.04167,29
27.05000,29
27.05833,29
27.06667,28
27.07500,28
27.08333,27
27.09167,27
27.10000,27
27.10833,26
27.11667,26
27.12500,25
27.13333,25
27.14167,24
27.15000,24
27.15833,24
27.16667,24
27.17500,24
27.18333,23
27.19167,23
27.20000,22
27.20833,22
27.21667,21
27.22500,20
27.23333,19
27.24167,18
27.25000,17
27.25833,17
27.26667,16
27.27500,15
27.28333,14
27.29167,13
27.30000,13
27.30833,12
27.31667,11
27.32500,10
27.33333,8
27.34167,7
27.35000,5
27.35833,4
27.36667,2
27.37500,1
27.38333,-0
27.39167,-2
27.40000,-4
27.40833,-6
27.41667,-8
27.42500,-9
27.43333,-11
27.44167,-13
27.45000,-14
27.45833,-16
27.46667,-18
27.47500,-21
27.48333,-23
27.49167,-24
27.50000,-26
27.50833,-28
27.51667,-30
27.52500,-32
27.53333,-34
27.54167,-36
27.55000,-38
27.55833,-40
27.56667,-42
27.57500,-43
27.58333,-45
27.59167,-47
27.60000,-49
27.60833,-51
27.61667,-53
27.62500,-55
27.63333,-57
27.64167,-59
27.65000,-62
27.65833,-64
27.66667,-65
27.67500,-67
27.68333,-69
27.69167,-70
27.70000,-72
27.70833,-73
27.71667,-75
27.72500,-77
27.73333,-79
27.74167,-80
27.75000,-82
27.75833,-83
27.76667,-85
27.77500,-86
27.78333,-87
27.79167,-88
27.80000,-89
27.80833,-90
27.81667,-91
27.82500,-91
27.83333,-92
27.84167,-93
27.85000,-93
27.85833,-94
27.86667,-94
27.87500,-94
27.88333,-95
27.89167,-95
27.90000,-95
27.90833,-95
27.91667,-95
27.92500,-94
27.93333,-94
27.94167,-93
27.95000,-93
27.95833,-93
27.96667,-93
27.97500,-92
27.98333,-92
27.99167,-91
28.00000,-90
28.00833,-90
28.01667,-89
28.02500,-88
28.03333,-87
28.04167,-85
28.05000,-84
28.05833,-82
28.06667,-81
28.07500,-80
28.08333,-78
28.09167,-77
28.10000,-76
28.10833,-74
28.11667,-73
28.12500,-71
28.13333,-70
28.14167,-68
28.15000,-67
28.15833,-65
28.16667,-63
28.17500,-61
28.18333,-59
28.19167,-57
28.20000,-55
28.20833,-53
28.21667,-51
28.22500,-50
28.23333,-48
28.24167,-46
28.25000,-45
28.25833,-43
28.26667,-42
28.27500,-40
28.28333,-39
28.29167,-37
28.30000,-36
28.30833,-34
28.31667,-32
28.32500,-30
28.33333,-29
28.34167,-27
28.35000,-25
28.35833,-24
28.36667,-22
28.37500,-21
28.38333,-19
28.39167,-18
28.40000,-17
28.40833,-16
28.41667,-15
28.42500,-14
28.43333,-12
28.44167,-11
28.45000,-10
28.45833,-8
28.46667,-7
28.47500,-7
28.48333,-6
28.49167,-5
28.50000,-4
28.50833,-3
28.51667,-2
28.52500,-2
28.53333,-1
28.54167,-0
28.55000,1
28.55833,2
28.56667,3
28.57500,4
28.58333,4
28.59167,5
28.60000,6
28.60833,7
28.61667,8
28.62500,8
28.63333,9
28.64167,10
28.65000,11
28.65833,13
28.66667,14
28.67500,14
28.68333,15
28.69167,16
28.70000,17
28.70833,18
28.71667,18
28.72500,19
28.73333,19
28.74167,20
28.75000,20
28.75833,21
28.76667,23
28.77500,23
28.78333,24
28.79167,25
28.80000,27
28.80833,28
28.81667,29
28.82500,30
28.83333,31
28.84167,32
28.85000,34
28.85833,35
28.86667,36
28.87500,38
28.88333,39
28.89167,40
28.90000,41
28.90833,42
28.91667,43
28.92500,43
28.93333,44
28.94167,45
28.95000,46
28.95833,47
28.96667,48
28.97500,48
28.98333,50
28.99167,50
29.00000,51
29.00833,52
29.01667,53
29.02500,54
29.03333,54
29.04167,55
29.05000,55
29.05833,56
29.06667,56
29.07500,57
29.08333,57
29.09167,58
29.10000,58
29.10833,58
29.11667,59
29.12500,59
29.13333,59
29.14167,59
29.15000,59
29.15833,59
29.16667,59
29.17500,59
29.18333,59
29.19167,59
29.20000,59
29.20833,59
29.21667,59
29.22500,59
29.23333,59
29.24167,58
29.25000,58
29.25833,57
29.26667,57
29.27500,57
29.28333,56
29.29167,55
29.30000,55
29.30833,54
29.31667,54
29.32500,53
29.33333,52
29.34167,52
29.35000,51
29.35833,50
29.36667,49
29.37500,48
29.38333,48
29.39167,47
29.40000,46
29.40833,45
29.41667,44
29.42500,43
29.43333,42
29.44167,41
29.45000,40
29.45833,39
29.46667,38
29.47500,37
29.48333,35
29.49167,34
29.50000,33
29.50833,32
29.51667,31
29.52500,30
29.53333,29
29.54167,28
29.55000,27
29.55833,26
29.56667,25
29.57500,24
29.58333,23
29.59167,21
29.60000,20
29.60833,19
29.61667,18
29.62500,17
29.63333,16
29.64167,15
29.65000,14
29.65833,12
29.66667,11
29.67500,10
29.68333,10
29.69167,9
29.70000,8
29.70833,7
29.71667,6
29.72500,5
29.73333,4
29.74167,3
29.75000,2
29.75833,2
29.76667,1
29.77500,0
29.78333,-0
29.79167,-1
29.80000,-2
29.80833,-2
29.81667,-2
29.82500,-3
29.83333,-4
29.84167,-4
29.85000,-5
29.85833,-5
29.86667,-6
29.87500,-6
29.88333,-7
29.89167,-8
29.90000,-9
29.90833,-10
29.91667,-10
29.92500,-11
29.93333,-12
29.94167,-13
29.95000,-14
29.95833,-15
29.96667,-16
29.97500,-16
29.98333,-17
29.99167,-18
30.00000,-19
30.00833,-20
30.01667,-21
30.02500,-22
30.03333,-23
30.04167,-24
30.05000,-26
30.05833,-27
30.06667,-28
30.07500,-30
30.08333,-31
30.09167,-33
30.10000,-34
30.10833,-36
30.11667,-38
30.12500,-40
30.13333,-42
30.14167,-44
30.15000,-46
30.15833,-48
30.16667,-51
30.17500,-54
30.18333,-57
30.19167,-59
30.20000,-62
30.20833,-64
30.21667,-66
30.22500,-68
30.23333,-71
30.24167,-74
30.25000,-77
30.25833,-80
30.26667,-83
30.27500,-86
30.28333,-89
30.29167,-92
30.30000,-95
30.30833,-98
30.31667,-101
30.32500,-103
30.33333,-106
30.34167,-109
30.35000,-112
30.35833,-116
30.36667,-118
30.37500,-121
30.38333,-125
30.39167,-128
30.40000,-131
30.40833,-133
30.41667,-136
30.42500,-139
30.43333,-142
30.44167,-145
30.45000,-148
30.45833,-151
30.46667,-153
30.47500,-155
30.48333,-158
30.49167,-160
30.50000,-163
30.50833,-165
30.51667,-167
30.52500,-170
30.53333,-172
30.54167,-174
30.55000,-176
30.55833,-178
30.56667,-179
30.57500,-180
30.58333,-182
30.59167,-183
30.60000,-184
30.60833,-185
30.61667,-186
30.62500,-187
30.63333,-188
30.64167,-189
30.65000,-189
30.65833,-190
30.66667,-190
30.67500,-189
30.68333,-189
30.69167,-189
30.70000,-189
30.70833,-189
30.71667,-188
30.72500,-188
30.73333,-187
30.74167,-186
30.75000,-185
30.75833,-184
30.76667,-183
30.77500,-182
30.78333,-181
30.79167,-179
30.80000,-177
30.80833,-175
30.81667,-173
30.82500,-171
30.83333,-169
30.84167,-166
30.85000,-164
30.85833,-161
30.86667,-159
30.87500,-156
30.88333,-154
30.89167,-151
30.90000,-148
30.90833,-145
30.91667,-143
30.92500,-140
30.93333,-137
30.94167,-134
30.95000,-130
30.95833,-127
30.96667,-124
30.97500,-121
30.98333,-118
30.99167,-116
31.00000,-113
31.00833,-109
31.01667,-106
31.02500,-102
31.03333,-99
31.04167,-96
31.05000,-93
31.05833,-90
31.06667,-86
31.07500,-83
31.08333,-80
31.09167,-77
31.10000,-74
31.10833,-71
31.11667,-68
31.12500,-65
31.13333,-62
31.14167,-59
31.15000,-57
31.15833,-54
31.16667,-52
31.17500,-49
31.18333,-47
31.19167,-44
31.20000,-42
31.20833,-39
31.21667,-37
31.22500,-35
31.23333,-33
31.24167,-31
31.25000,-29
31.25833,-27
31.26667,-25
31.27500,-24
31.28333,-22
31.29167,-20
31.30000,-19
31.30833,-17
31.31667,-16
31.32500,-14
31.33333,-13
31.34167,-12
31.35000,-11
31.35833,-9
31.36667,-8
31.37500,-6
31.38333,-5
31.39167,-3
31.40000,-2
31.40833,-1
31.41667,-1
31.42500,0
31.43333,1
31.44167,3
31.45000,4
31.45833,5
31.46667,6
31.47500,7
31.48333,9
31.49167,10
31.50000,11
31.50833,12
31.51667,13
31.52500,14
31.53333,15
31.54167,16
31.55000,18
31.55833,19
31.56667,20
31.57500,22
31.58333,24
31.59167,26
31.60000,28
31.60833,29
31.61667,32
31.62500,34
31.63333,37
31.64167,41
31.65000,44
31.65833,47
31.66667,50
31.67500,53
31.68333,56
31.69167,59
31.70000,63
31.70833,67
31.71667,71
31.72500,75
31.73333,79
31.74167,84
31.75000,88
31.75833,93
31.76667,99
31.77500,105
31.78333,111
31.79167,116
31.80000,121
31.80833,127
31.81667,133
31.82500,140
31.83333,147
31.84167,153
31.85000,160
31.85833,166
31.86667,174
31.87500,181
31.88333,188
31.89167,195
31.90000,203
31.90833,210
31.91667,218
31.92500,226
31.93333,234
31.94167,241
31.95000,249
31.95833,257
31.96667,265
31.97500,272
31.98333,280
31.99167,287
32.00000,295
32.00833,302
32.01667,310
32.02500,317
32.03333,324
32.04167,331
32.05000,339
32.05833,346
32.06667,353
32.07500,360
32.08333,366
32.09167,373
32.10000,379
32.10833,385
32.11667,391
32.12500,397
32.13333,403
32.14167,408
32.15000,413
32.15833,418
32.16667,423
32.17500,428
32.18333,433
32.19167,437
32.20000,442
32.20833,446
32.21667,450
32.22500,454
32.23333,457
32.24167,461
32.25000,464
32.25833,467
32.26667,470
32.27500,472
32.28333,474
32.29167,476
32.30000,478
32.30833,480
32.31667,482
32.32500,483
32.33333,484
32.34167,485
32.35000,486
32.35833,486
32.36667,486
32.37500,486
32.38333,485
32.39167,484
32.40000,484
32.40833,482
32.41667,481
32.42500,480
32.43333,478
32.44167,476
32.45000,474
32.45833,471
32.46667,468
32.47500,464
32.48333,461
32.49167,457
32.50000,453
32.50833,449
32.51667,445
32.52500,441
32.53333,436
32.54167,431
32.55000,426
32.55833,421
32.56667,415
32.57500,408
32.58333,402
32.59167,396
32.60000,390
32.60833,383
32.61667,376
32.62500,370
32.63333,363
32.64167,356
32.65000,349
32.65833,341
32.66667,334
32.67500,327
32.68333,319
32.69167,311
32.70000,303
32.70833,295
32.71667,288
32.72500,280
32.73333,272
32.74167,264
32.75000,257
32.75833,248
32.76667,241
32.77500,234
32.78333,226
32.79167,219
32.80000,213
32.80833,205
32.81667,198
32.82500,191
32.83333,184
32.84167,178
32.85000,172
32.85833,166
32.86667,159
32.87500,154
32.88333,148
32.89167,142
32.90000,137
32.90833,131
32.91667,126
32.92500,121
32.93333,116
32.94167,111
32.95000,106
32.95833,101
32.96667,97
32.97500,93
32.98333,90
32.99167,86
33.00000,83
33.00833,79
33.01667,76
33.02500,72
33.03333,70
33.04167,67
33.05000,64
33.05833,61
33.06667,59
33.07500,56
33.08333,53
33.09167,51
33.10000,49
33.10833,47
33.11667,45
33.12500,44
33.13333,42
33.14167,40
33.15000,38
33.15833,37
33.16667,35
33.17500,34
33.18333,33
33.19167,32
33.20000,31
33.20833,30
33.21667,28
33.22500,27
33.23333,26
33.24167,25
33.25000,24
33.25833,24
33.26667,23
33.27500,22
33.28333,22
33.29167,21
33.30000,21
33.30833,20
33.31667,20
33.32500,19
33.33333,19
33.34167,18
33.35000,18
33.35833,18
33.36667,18
33.37500,17
33.38333,17
33.39167,16
33.40000,16
33.40833,15
33.41667,15
33.42500,14
33.43333,14
33.44167,14
33.45000,14
33.45833,13
33.46667,13
33.47500,12
33.48333,12
33.49167,12
33.50000,12
33.50833,11
33.51667,11
33.52500,11
33.53333,11
33.54167,10
33.55000,10
33.55833,10
33.56667,10
33.57500,10
33.58333,10
33.59167,10
33.60000,10
33.60833,9
33.61667,9
33.62500,9
33.63333,9
33.64167,9
33.65000,9
33.65833,9
33.66667,9
33.67500,9
33.68333,9
33.69167,9
33.70000,9
33.70833,9
33.71667,9
33.72500,9
33.73333,9
33.74167,9
33.75000,9
33.75833,9
33.76667,9
33.77500,9
33.78333,9
33.79167,9
33.80000,9
33.80833,9
33.81667,8
33.82500,9
33.83333,8
33.84167,8
33.85000,8
33.85833,8
33.86667,8
33.87500,9
33.88333,9
33.89167,9
33.90000,9
33.90833,9
33.91667,9
33.92500,9
33.93333,9
33.94167,9
33.95000,9
33.95833,9
33.96667,9
33.97500,10
33.98333,10
33.99167,10
34.00000,10
34.00833,9
34.01667,9
34.02500,10
34.03333,10
34.04167,10
34.05000,10
34.05833,10
34.06667,10
34.07500,10
34.08333,10
34.09167,10
34.10000,10
34.10833,10
34.11667,10
34.12500,10
34.13333,11
34.14167,12
34.15000,12
34.15833,12
34.16667,12
34.17500,13
34.18333,13
34.19167,13
34.20000,13
34.20833,13
34.21667,12
34.22500,12
34.23333,12
34.24167,12
34.25000,12
34.25833,12
34.26667,12
34.27500,12
34.28333,12
34.29167,12
34.30000,12
34.30833,12
34.31667,12
34.32500,12
34.33333,12
34.34167,13
34.35000,13
34.35833,13
34.36667,13
34.37500,13
34.38333,13
34.39167,14
34.40000,14
34.40833,14
34.41667,14
34.42500,14
34.43333,14
34.44167,14
34.45000,13
34.45833,13
34.46667,13
34.47500,13
34.48333,13
34.49167,13
34.50000,13
34.50833,13
34.51667,13
34.52500,13
34.53333,13
34.54167,13
34.55000,13
34.55833,13
34.56667,13
34.57500,12
34.58333,12
34.59167,12
34.60000,12
34.60833,12
34.61667,12
34.62500,12
34.63333,12
34.64167,12
34.65000,13
34.65833,13
34.66667,13
34.67500,13
34.68333,13
34.69167,13
34.70000,14
34.70833,14
34.71667,13
34.72500,13
34.73333,13
34.74167,13
34.75000,13
34.75833,13
34.76667,13
34.77500,12
34.78333,12
34.79167,12
34.80000,12
34.80833,12
34.81667,12
34.82500,11
34.83333,11
34.84167,11
34.85000,11
34.85833,11
34.86667,11
34.87500,11
34.88333,11
34.89167,11
34.90000,11
34.90833,11
34.91667,11
34.92500,11
34.93333,11
34.94167,11
34.95000,11
34.95833,12
34.96667,12
34.97500,11
34.98333,12
34.99167,12
35.00000,11
35.00833,11
35.01667,11
35.02500,11
35.03333,11
35.04167,11
35.05000,11
35.05833,11
35.06667,12
35.07500,12
35.08333,12
35.09167,12
35.10000,12
35.10833,12
35.11667,12
35.12500,12
35.13333,12
35.14167,12
35.15000,12
35.15833,12
35.16667,12
35.17500,13
35.18333,12
35.19167,12
35.20000,11
35.20833,11
35.21667,11
35.22500,11
35.23333,12
35.24167,12
35.25000,11
35.25833,11
35.26667,11
35.27500,11
35.28333,11
35.29167,10
35.30000,11
35.30833,11
35.31667,11
35.32500,11
35.33333,11
35.34167,11
35.35000,11
35.35833,11
35.36667,11
35.37500,11
35.38333,11
35.39167,11
35.40000,11
35.40833,11
35.41667,12
35.42500,12
35.43333,12
35.44167,12
35.45000,12
35.45833,12
35.46667,12
35.47500,12
35.48333,11
35.49167,11
35.50000,11
35.50833,11
35.51667,11
35.52500,11
35.53333,11
35.54167,11
35.55000,11
35.55833,12
35.56667,12
35.57500,12
35.58333,12
35.59167,11
35.60000,11
35.60833,11
35.61667,11
35.62500,11
35.63333,11
35.64167,11
35.65000,12
35.65833,12
35.66667,12
35.67500,12
35.68333,12
35.69167,11
35.70000,11
35.70833,12
35.71667,12
35.72500,11
35.73333,11
35.74167,11
35.75000,11
35.75833,12
35.76667,12
35.77500,11
35.78333,11
35.79167,11
35.80000,11
35.80833,11
35.81667,11
35.82500,12
35.83333,12
35.84167,12
35.85000,11
35.85833,11
35.86667,11
35.87500,10
35.88333,10
35.89167,10
35.90000,10
35.90833,10
35.91667,10
35.92500,10
35.93333,10
35.94167,10
35.95000,11
35.95833,11
35.96667,12
35.97500,12
35.98333,12
35.99167,12
36.00000,12
36.00833,12
36.01667,12
36.02500,11
36.03333,11
36.04167,11
36.05000,11
36.05833,10
36.06667,10
36.07500,10
36.08333,10
36.09167,10
36.10000,10
36.10833,10
36.11667,10
36.12500,11
36.13333,11
36.14167,11
36.15000,11
36.15833,10
36.16667,10
36.17500,11
36.18333,11
36.19167,11
36.20000,11
36.20833,11
36.21667,11
36.22500,11
36.23333,11
36.24167,11
36.25000,11
36.25833,11
36.26667,11
36.27500,11
36.28333,11
36.29167,11
36.30000,11
36.30833,11
36.31667,11
36.32500,11
36.33333,11
36.34167,11
36.35000,11
36.35833,11
36.36667,11
36.37500,11
36.38333,11
36.39167,11
36.40000,11
36.40833,11
36.41667,11
36.42500,11
36.43333,11
36.44167,11
36.45000,10
36.45833,10
36.46667,10
36.47500,10
36.48333,10
36.49167,11
36.50000,11
36.50833,11
36.51667,11
36.52500,10
36.53333,10
36.54167,10
36.55000,11
36.55833,10
36.56667,10
36.57500,10
36.58333,11
36.59167,11
36.60000,11
36.60833,11
36.61667,11
36.62500,10
36.63333,10
36.64167,11
36.65000,11
36.65833,11
36.66667,11
36.67500,10
36.68333,11
36.69167,10
36.70000,11
36.70833,11
36.71667,11
36.72500,11
36.73333,11
36.74167,11
36.75000,11
36.75833,11
36.76667,11
36.77500,11
36.78333,11
36.79167,12
36.80000,12
36.80833,12
36.81667,12
36.82500,11
36.83333,11
36.84167,11
36.85000,11
36.85833,11
36.86667,11
36.87500,12
36.88333,12
36.89167,12
36.90000,11
36.90833,11
36.91667,11
36.92500,11
36.93333,11
36.94167,12
36.95000,12
36.95833,12
36.96667,12
36.97500,12
36.98333,12
36.99167,12
37.00000,11
37.00833,11
37.01667,11
37.02500,11
37.03333,11
37.04167,12
37.05000,12
37.05833,12
37.06667,12
37.07500,12
37.08333,13
37.09167,13
37.10000,13
37.10833,13
37.11667,12
37.12500,12
37.13333,12
37.14167,12
37.15000,12
37.15833,12
37.16667,12
37.17500,12
37.18333,12
37.19167,13
37.20000,13
37.20833,13
37.21667,13
37.22500,13
37.23333,13
37.24167,13
37.25000,13
37.25833,13
37.26667,14
37.27500,14
37.28333,14
37.29167,14
37.30000,14
37.30833,14
37.31667,13
37.32500,13
37.33333,13
37.34167,13
37.35000,13
37.35833,12
37.36667,12
37.37500,12
37.38333,12
37.39167,12
37.40000,13
37.40833,13
37.41667,13
37.42500,13
37.43333,13
37.44167,13
37.45000,14
37.45833,14
37.46667,14
37.47500,13
37.48333,13
37.49167,13
37.50000,13
37.50833,13
37.51667,13
37.52500,14
37.53333,14
37.54167,13
37.55000,13
37.55833,13
37.56667,13
37.57500,13
37.58333,13
37.59167,14
37.60000,14
37.60833,14
37.61667,14
37.62500,14
37.63333,13
37.64167,13
37.65000,13
37.65833,13
37.66667,13
37.67500,13
37.68333,14
37.69167,14
37.70000,14
37.70833,13
37.71667,13
37.72500,13
37.73333,14
37.74167,14
37.75000,14
37.75833,14
37.76667,14
37.77500,14
37.78333,14
37.79167,14
37.80000,14
37.80833,14
37.81667,14
37.82500,14
37.83333,13
37.84167,14
37.85000,14
37.85833,14
37.86667,14
37.87500,14
37.88333,14
37.89167,14
37.90000,14
37.90833,14
37.91667,13
37.92500,13
37.93333,13
37.94167,13
37.95000,13
37.95833,13
37.96667,13
37.97500,13
37.98333,13
37.99167,13
38.00000,13
38.00833,13
38.01667,13
38.02500,12
38.03333,12
38.04167,12
38.05000,12
38.05833,13
38.06667,13
38.07500,13
38.08333,13
38.09167,13
38.10000,13
38.10833,13
38.11667,13
38.12500,12
38.13333,12
38.14167,12
38.15000,12
38.15833,12
38.16667,12
38.17500,12
38.18333,12
38.19167,12
38.20000,12
38.20833,12
38.21667,12
38.22500,12
38.23333,12
38.24167,12
38.25000,12
38.25833,12
38.26667,12
38.27500,11
38.28333,11
38.29167,10
38.30000,10
38.30833,10
38.31667,10
38.32500,11
38.33333,11
38.34167,11
38.35000,11
38.35833,11
38.36667,11
38.37500,11
38.38333,11
38.39167,11
38.40000,11
38.40833,11
38.41667,10
38.42500,10
38.43333,10
38.44167,10
38.45000,10
38.45833,10
38.46667,9
38.47500,9
38.48333,9
38.49167,9
38.50000,9
38.50833,9
38.51667,9
38.52500,9
38.53333,9
38.54167,9
38.55000,9
38.55833,9
38.56667,9
38.57500,9
38.58333,9
38.59167,9
38.60000,9
38.60833,9
38.61667,9
38.62500,9
38.63333,9
38.64167,8
38.65000,8
38.65833,8
38.66667,8
38.67500,8
38.68333,8
38.69167,8
38.70000,8
38.70833,8
38.71667,8
38.72500,8
38.73333,8
38.74167,8
38.75000,8
38.75833,8
38.76667,8
38.77500,8
38.78333,7
38.79167,7
38.80000,7
38.80833,7
38.81667,6
38.82500,6
38.83333,6
38.84167,6
38.85000,6
38.85833,6
38.86667,6
38.87500,6
38.88333,6
38.89167,6
38.90000,6
38.90833,6
38.91667,5
38.92500,5
38.93333,5
38.94167,5
38.95000,5
38.95833,6
38.96667,6
38.97500,6
38.98333,7
38.99167,7
39.00000,7
39.00833,7
39.01667,6
39.02500,6
39.03333,6
39.04167,5
39.05000,5
39.05833,6
39.06667,6
39.07500,6
39.08333,5
39.09167,5
39.10000,5
39.10833,5
39.11667,5
39.12500,5
39.13333,6
39.14167,6
39.15000,6
39.15833,5
39.16667,5
39.17500,5
39.18333,5
39.19167,5
39.20000,5
39.20833,5
39.21667,6
39.22500,6
39.23333,6
39.24167,6
39.25000,7
39.25833,7
39.26667,7
39.27500,7
39.28333,7
39.29167,6
39.30000,6
39.30833,6
39.31667,6
39.32500,6
39.33333,6
39.34167,6
39.35000,6
39.35833,6
39.36667,6
39.37500,6
39.38333,7
39.39167,7
39.40000,7
39.40833,7
39.41667,7
39.42500,6
39.43333,6
39.44167,6
39.45000,6
39.45833,6
39.46667,6
39.47500,6
39.48333,6
39.49167,5
39.50000,5
39.50833,5
39.51667,5
39.52500,5
39.53333,6
39.54167,6
39.55000,6
39.55833,6
39.56667,6
39.57500,6
39.58333,6
39.59167,6
39.60000,6
39.60833,7
39.61667,7
39.62500,7
39.63333,7
39.64167,7
39.65000,7
39.65833,7
39.66667,7
39.67500,7
39.68333,7
39.69167,7
39.70000,6
39.70833,6
39.71667,6
39.72500,6
39.73333,7
39.74167,7
39.75000,6
39.75833,6
39.76667,6
39.77500,6
39.78333,6
39.79167,6
39.80000,6
39.80833,6
39.81667,6
39.82500,6
39.83333,6
39.84167,7
39.85000,7
39.85833,7
39.86667,7
39.87500,7
39.88333,7
39.89167,7
39.90000,7
39.90833,7
39.91667,7
39.92500,7
39.93333,7
39.94167,7
39.95000,7
39.95833,7
39.96667,7
39.97500,6
39.98333,6
39.99167,6
40.00000,6
40.00833,6
40.01667,6
40.02500,6
40.03333,6
40.04167,6
40.05000,6
40.05833,5
40.06667,5
40.07500,5
40.08333,5
40.09167,5
40.10000,5
40.10833,6
40.11667,5
40.12500,5
40.13333,5
40.14167,5
40.15000,5
40.15833,5
40.16667,5
40.17500,5
40.18333,5
40.19167,5
40.20000,5
40.20833,5
40.21667,5
40.22500,5
40.23333,5
40.24167,5
40.25000,5
40.25833,5
40.26667,4
40.27500,4
40.28333,4
40.29167,4
40.30000,4
40.30833,4
40.31667,4
40.32500,4
40.33333,4
40.34167,4
40.35000,4
40.35833,4
40.36667,4
40.37500,4
40.38333,4
40.39167,4
40.40000,4
40.40833,4
40.41667,4
40.42500,3
40.43333,3
40.44167,3
40.45000,3
40.45833,3
40.46667,3
40.47500,3
40.48333,4
40.49167,3
40.50000,3
40.50833,3
40.51667,3
40.52500,2
40.53333,2
40.54167,2
40.55000,2
40.55833,2
40.56667,2
40.57500,3
40.58333,3
40.59167,2
40.60000,2
40.60833,2
40.61667,2
40.62500,3
40.63333,3
40.64167,3
40.65000,3
40.65833,3
40.66667,2
40.67500,2
40.68333,2
40.69167,2
40.70000,2
40.70833,2
40.71667,1
40.72500,1
40.73333,1
40.74167,1
40.75000,1
40.75833,1
40.76667,2
40.77500,2
40.78333,2
40.79167,2
40.80000,2
40.80833,2
40.81667,2
40.82500,2
40.83333,2
40.84167,2
40.85000,2
40.85833,2
40.86667,2
40.87500,2
40.88333,2
40.89167,2
40.90000,2
40.90833,2
40.91667,2
40.92500,2
40.93333,2
40.94167,2
40.95000,1
40.95833,1
40.96667,1
40.97500,1
40.98333,2
40.99167,2
41.00000,2
41.00833,2
41.01667,2
41.02500,2
41.03333,2
41.04167,1
41.05000,1
41.05833,1
41.06667,1
41.07500,1
41.08333,1
41.09167,1
41.10000,2
41.10833,2
41.11667,1
41.12500,1
41.13333,2
41.14167,2
41.15000,2
41.15833,2
41.16667,2
41.17500,2
41.18333,2
41.19167,1
41.20000,1
41.20833,1
41.21667,1
41.22500,1
41.23333,1
41.24167,2
41.25000,2
41.25833,2
41.26667,2
41.27500,2
41.28333,2
41.29167,2
41.30000,2
41.30833,1
41.31667,1
41.32500,1
41.33333,1
41.34167,1
41.35000,1
41.35833,1
41.36667,2
41.37500,2
41.38333,2
41.39167,2
41.40000,2
41.40833,1
41.41667,2
41.42500,2
41.43333,2
41.44167,2
41.45000,2
41.45833,2
41.46667,2
41.47500,1
41.48333,1
41.49167,1
41.50000,1
41.50833,1
41.51667,1
41.52500,1
41.53333,1
41.54167,1
41.55000,1
41.55833,1
41.56667,1
41.57500,1
41.58333,1
41.59167,1
41.60000,1
41.60833,1
41.61667,1
41.62500,0
41.63333,0
41.64167,0
41.65000,0
41.65833,0
41.66667,1
41.67500,1
41.68333,1
41.69167,1
41.70000,1
41.70833,1
41.71667,2
41.72500,2
41.73333,2
41.74167,2
41.75000,2
41.75833,2
41.76667,2
41.77500,2
41.78333,2
41.79167,2
41.80000,2
41.80833,2
41.81667,3
41.82500,2
41.83333,3
41.84167,3
41.85000,3
41.85833,2
41.86667,2
41.87500,2
41.88333,3
41.89167,2
41.90000,2
41.90833,2
41.91667,2
41.92500,2
41.93333,2
41.94167,2
41.95000,2
41.95833,2
41.96667,2
41.97500,2
41.98333,2
41.99167,2
42.00000,2
42.00833,2
42.01667,2
42.02500,2
42.03333,2
42.04167,2
42.05000,2
42.05833,2
42.06667,2
42.07500,3
42.08333,3
42.09167,3
42.10000,3
42.10833,3
42.11667,3
42.12500,3
42.13333,3
42.14167,3
42.15000,3
42.15833,3
42.16667,3
42.17500,3
42.18333,3
42.19167,3
42.20000,3
42.20833,3
42.21667,3
42.22500,3
42.23333,3
42.24167,3
42.25000,2
42.25833,2
42.26667,2
42.27500,2
42.28333,2
42.29167,3
42.30000,3
42.30833,3
42.31667,2
42.32500,2
42.33333,2
42.34167,2
42.35000,2
42.35833,2
42.36667,3
42.37500,3
42.38333,3
42.39167,3
42.40000,3
42.40833,2
42.41667,3
42.42500,3
42.43333,3
42.44167,3
42.45000,3
42.45833,3
42.46667,3
42.47500,3
42.48333,4
42.49167,4
42.50000,4
42.50833,3
42.51667,3
42.52500,3
42.53333,3
42.54167,3
42.55000,3
42.55833,4
42.56667,4
42.57500,4
42.58333,3
42.59167,3
42.60000,3
42.60833,3
42.61667,3
42.62500,3
42.63333,3
42.64167,4
42.65000,4
42.65833,4
42.66667,4
42.67500,4
42.68333,4
42.69167,3
42.70000,3
42.70833,3
42.71667,3
42.72500,3
42.73333,3
42.74167,3
42.75000,3
42.75833,3
42.76667,3
42.77500,3
42.78333,3
42.79167,3
42.80000,3
42.80833,3
42.81667,3
42.82500,3
42.83333,3
42.84167,3
42.85000,3
42.85833,2
42.86667,3
42.87500,3
42.88333,3
42.89167,3
42.90000,3
42.90833,3
42.91667,3
42.92500,3
42.93333,3
42.94167,3
42.95000,3
42.95833,3
42.96667,3
42.97500,3
42.98333,2
42.99167,2
43.00000,1
43.00833,2
43.01667,2
43.02500,3
43.03333,3
43.04167,3
43.05000,3
43.05833,3
43.06667,2
43.07500,2
43.08333,2
43.09167,2
43.10000,2
43.10833,2
43.11667,1
43.12500,1
43.13333,1
43.14167,1
43.15000,2
43.15833,2
43.16667,2
43.17500,2
43.18333,2
43.19167,2
43.20000,2
43.20833,2
43.21667,2
43.22500,2
43.23333,2
43.24167,3
43.25000,3
43.25833,3
43.26667,3
43.27500,3
43.28333,3
43.29167,3
43.30000,3
43.30833,3
43.31667,3
43.32500,2
43.33333,2
43.34167,2
43.35000,2
43.35833,2
43.36667,2
43.37500,3
43.38333,3
43.39167,2
43.40000,2
43.40833,2
43.41667,2
43.42500,2
43.43333,2
43.44167,2
43.45000,2
43.45833,2
43.46667,2
43.47500,2
43.48333,2
43.49167,2
43.50000,3
43.50833,3
43.51667,3
43.52500,3
43.53333,3
43.54167,2
43.55000,2
43.55833,2
43.56667,2
43.57500,2
43.58333,2
43.59167,2
43.60000,3
43.60833,3
43.61667,3
43.62500,3
43.63333,3
43.64167,3
43.65000,3
43.65833,3
43.66667,3
43.67500,3
43.68333,3
43.69167,3
43.70000,4
43.70833,3
43.71667,4
43.72500,3
43.73333,3
43.74167,3
43.75000,3
43.75833,3
43.76667,3
43.77500,3
43.78333,3
43.79167,3
43.80000,3
43.80833,3
43.81667,3
43.82500,2
43.83333,2
43.84167,2
43.85000,2
43.85833,2
43.86667,2
43.87500,2
43.88333,2
43.89167,2
43.90000,2
43.90833,3
43.91667,3
43.92500,3
43.93333,3
43.94167,3
43.95000,3
43.95833,2
43.96667,2
43.97500,2
43.98333,2
43.99167,3
44.00000,3
44.00833,3
44.01667,3
44.02500,3
44.03333,3
44.04167,2
44.05000,2
44.05833,3
44.06667,2
44.07500,2
44.08333,3
44.09167,3
44.10000,3
44.10833,2
44.11667,2
44.12500,2
44.13333,2
44.14167,2
44.15000,2
44.15833,2
44.16667,2
44.17500,2
44.18333,3
44.19167,3
44.20000,3
44.20833,3
44.21667,3
44.22500,3
44.23333,3
44.24167,2
44.25000,2
44.25833,2
44.26667,2
44.27500,2
44.28333,2
44.29167,2
44.30000,2
44.30833,2
44.31667,2
44.32500,2
44.33333,3
44.34167,3
44.35000,3
44.35833,3
44.36667,3
44.37500,2
44.38333,2
44.39167,2
44.40000,3
44.40833,3
44.41667,3
44.42500,3
44.43333,3
44.44167,3
44.45000,3
44.45833,2
44.46667,2
44.47500,3
44.48333,3
44.49167,3
44.50000,3
44.50833,3
44.51667,3
44.52500,3
44.53333,3
44.54167,3
44.55000,3
44.55833,2
44.56667,2
44.57500,1
44.58333,1
44.59167,1
44.60000,1
44.60833,1
44.61667,1
44.62500,2
44.63333,2
44.64167,1
44.65000,1
44.65833,1
44.66667,1
44.67500,1
44.68333,2
44.69167,2
44.70000,2
44.70833,2
44.71667,2
44.72500,2
44.73333,2
44.74167,2
44.75000,1
44.75833,1
44.76667,1
44.77500,1
44.78333,2
44.79167,2
44.80000,2
44.80833,2
44.81667,2
44.82500,2
44.83333,1
44.84167,1
44.85000,1
44.85833,1
44.86667,1
44.87500,1
44.88333,1
44.89167,0
44.90000,0
44.90833,0
44.91667,0
44.92500,1
44.93333,1
44.94167,1
44.95000,1
44.95833,1
44.96667,1
44.97500,1
44.98333,1
44.99167,1
45.00000,1
45.00833,1
45.01667,0
45.02500,0
45.03333,0
45.04167,0
45.05000,0
45.05833,0
45.06667,0
45.07500,0
45.08333,0
45.09167,-0
45.10000,-0
45.10833,-0
45.11667,-0
45.12500,-0
45.13333,0
45.14167,0
45.15000,0
45.15833,1
45.16667,1
45.17500,0
45.18333,0
45.19167,0
45.20000,0
45.20833,0
45.21667,0
45.22500,0
45.23333,0
45.24167,1
45.25000,1
45.25833,0
45.26667,0
45.27500,0
45.28333,0
45.29167,0
45.30000,0
45.30833,1
45.31667,1
45.32500,1
45.33333,1
45.34167,1
45.35000,1
45.35833,1
45.36667,1
45.37500,1
45.38333,1
45.39167,1
45.40000,1
45.40833,1
45.41667,1
45.42500,1
45.43333,1
45.44167,1
45.45000,1
45.45833,1
45.46667,1
45.47500,0
45.48333,1
45.49167,1
45.50000,1
45.50833,1
45.51667,1
45.52500,1
45.53333,2
45.54167,1
45.55000,1
45.55833,1
45.56667,1
45.57500,1
45.58333,1
45.59167,0
45.60000,0
45.60833,0
45.61667,0
45.62500,0
45.63333,1
45.64167,1
45.65000,1
45.65833,1
45.66667,1
45.67500,0
45.68333,0
45.69167,0
45.70000,-0
45.70833,-0
45.71667,-0
45.72500,0
45.73333,0
45.74167,1
45.75000,0
45.75833,0
45.76667,-0
45.77500,-0
45.78333,0
45.79167,1
45.80000,1
45.80833,1
45.81667,1
45.82500,1
45.83333,1
45.84167,0
45.85000,0
45.85833,0
45.86667,1
45.87500,1
45.88333,1
45.89167,1
45.90000,1
45.90833,1
45.91667,0
45.92500,0
45.93333,0
45.94167,0
45.95000,0
45.95833,1
45.96667,1
45.97500,1
45.98333,0
45.99167,-0
46.00000,-0
46.00833,0
46.01667,0
46.02500,0
46.03333,0
46.04167,0
46.05000,0
46.05833,0
46.06667,0
46.07500,-0
46.08333,-0
46.09167,-0
46.10000,-0
46.10833,0
46.11667,0
46.12500,0
46.13333,-0
46.14167,-0
46.15000,-0
46.15833,-0
46.16667,0
46.17500,0
46.18333,0
46.19167,1
46.20000,1
46.20833,1
46.21667,0
46.22500,0
46.23333,-0
46.24167,-0
46.25000,-0
46.25833,-0
46.26667,-0
46.27500,0
46.28333,0
46.29167,0
46.30000,0
46.30833,1
46.31667,1
46.32500,0
46.33333,0
46.34167,0
46.35000,0
46.35833,1
46.36667,0
46.37500,0
46.38333,-0
46.39167,-1
46.40000,-1
46.40833,-0
46.41667,-0
46.42500,-0
46.43333,0
46.44167,0
46.45000,0
46.45833,0
46.46667,0
46.47500,0
46.48333,0
46.49167,1
46.50000,1
46.50833,1
46.51667,1
46.52500,1
46.53333,1
46.54167,1
46.55000,1
46.55833,0
46.56667,0
46.57500,0
46.58333,1
46.59167,0
46.60000,0
46.60833,0
46.61667,-0
46.62500,-0
46.63333,-1
46.64167,-1
46.65000,-1
46.65833,-0
46.66667,0
46.67500,1
46.68333,1
46.69167,1
46.70000,1
46.70833,0
46.71667,0
46.72500,0
46.73333,0
46.74167,0
46.75000,-0
46.75833,-0
46.76667,0
46.77500,0
46.78333,-0
46.79167,-0
46.80000,-0
46.80833,0
46.81667,0
46.82500,0
46.83333,0
46.84167,0
46.85000,0
46.85833,-0
46.86667,-0
46.87500,-1
46.88333,-1
46.89167,-1
46.90000,-1
46.90833,-1
46.91667,-1
46.92500,-1
46.93333,-0
46.94167,-0
46.95000,0
46.95833,0
46.96667,1
46.97500,1
46.98333,1
46.99167,1
47.00000,1
47.00833,1
47.01667,1
47.02500,0
47.03333,0
47.04167,0
47.05000,0
47.05833,0
47.06667,0
47.07500,0
47.08333,-0
47.09167,-0
47.10000,-1
47.10833,-1
47.11667,-0
47.12500,0
47.13333,0
47.14167,0
47.15000,1
47.15833,0
47.16667,1
47.17500,1
47.18333,1
47.19167,1
47.20000,1
47.20833,1
47.21667,1
47.22500,1
47.23333,1
47.24167,1
47.25000,1
47.25833,1
47.26667,1
47.27500,1
47.28333,1
47.29167,1
47.30000,1
47.30833,0
47.31667,-0
47.32500,-1
47.33333,-1
47.34167,-0
47.35000,-0
47.35833,-0
47.36667,-0
47.37500,-0
47.38333,-0
47.39167,-0
47.40000,-0
47.40833,0
47.41667,0
47.42500,1
47.43333,1
47.44167,1
47.45000,1
47.45833,0
47.46667,0
47.47500,0
47.48333,0
47.49167,0
47.50000,0
47.50833,0
47.51667,0
47.52500,1
47.53333,0
47.54167,0
47.55000,0
47.55833,0
47.56667,0
47.57500,1
47.58333,0
47.59167,0
47.60000,0
47.60833,0
47.61667,0
47.62500,0
47.63333,0
47.64167,1
47.65000,1
47.65833,1
47.66667,1
47.67500,1
47.68333,1
47.69167,1
47.70000,1
47.70833,0
47.71667,0
47.72500,0
47.73333,0
47.74167,0
47.75000,1
47.75833,1
47.76667,1
47.77500,0
47.78333,0
47.79167,1
47.80000,1
47.80833,1
47.81667,1
47.82500,1
47.83333,1
47.84167,1
47.85000,0
47.85833,0
47.86667,0
47.87500,0
47.88333,-0
47.89167,-0
47.90000,-0
47.90833,0
47.91667,0
47.92500,0
47.93333,0
47.94167,0
47.95000,0
47.95833,1
47.96667,1
47.97500,0
47.98333,0
47.99167,0
48.00000,0
48.00833,1
48.01667,1
48.02500,1
48.03333,1
48.04167,0
48.05000,-0
48.05833,-0
48.06667,0
48.07500,0
48.08333,0
48.09167,0
48.10000,0
48.10833,1
48.11667,1
48.12500,1
48.13333,0
48.14167,0
48.15000,1
48.15833,1
48.16667,1
48.17500,1
48.18333,1
48.19167,0
48.20000,1
48.20833,1
48.21667,1
48.22500,1
48.23333,1
48.24167,1
48.25000,1
48.25833,1
48.26667,1
48.27500,1
48.28333,1
48.29167,1
48.30000,1
48.30833,1
48.31667,1
48.32500,0
48.33333,0
48.34167,0
48.35000,0
48.35833,0
48.36667,0
48.37500,1
48.38333,1
48.39167,1
48.40000,0
48.40833,0
48.41667,0
48.42500,0
48.43333,0
48.44167,1
48.45000,1
48.45833,1
48.46667,1
48.47500,1
48.48333,1
48.49167,0
48.50000,0
48.50833,0
48.51667,0
48.52500,0
48.53333,0
48.54167,0
48.55000,1
48.55833,1
48.56667,0
48.57500,0
48.58333,0
48.59167,0
48.60000,0
48.60833,0
48.61667,0
48.62500,0
48.63333,0
48.64167,1
48.65000,1
48.65833,1
48.66667,1
48.67500,1
48.68333,0
48.69167,0
48.70000,1
48.70833,1
48.71667,0
48.72500,-0
48.73333,-0
48.74167,-0
48.75000,0
48.75833,0
48.76667,-0
48.77500,-0
48.78333,-0
48.79167,-0
48.80000,-0
48.80833,-0
48.81667,-0
48.82500,-1
48.83333,-1
48.84167,-0
48.85000,-0
48.85833,-0
48.86667,-0
48.87500,-0
48.88333,-0
48.89167,-0
48.90000,-0
48.90833,-0
48.91667,0
48.92500,1
48.93333,1
48.94167,1
48.95000,1
48.95833,1
48.96667,0
48.97500,0
48.98333,0
48.99167,0
49.00000,-0
49.00833,-0
49.01667,0
49.02500,0
49.03333,1
49.04167,1
49.05000,1
49.05833,1
49.06667,1
49.07500,1
49.08333,1
49.09167,1
49.10000,0
49.10833,0
49.11667,0
49.12500,0
49.13333,0
49.14167,0
49.15000,0
49.15833,0
49.16667,-0
49.17500,-0
49.18333,-0
49.19167,-0
49.20000,-1
49.20833,-1
49.21667,-1
49.22500,-1
49.23333,-1
49.24167,-0
49.25000,-0
49.25833,-0
49.26667,-0
49.27500,-0
49.28333,-1
49.29167,-0
49.30000,-0
49.30833,0
49.31667,0
49.32500,0
49.33333,1
49.34167,1
49.35000,1
49.35833,1
49.36667,1
49.37500,1
49.38333,1
49.39167,1
49.40000,1
49.40833,1
49.41667,1
49.42500,2
49.43333,2
49.44167,2
49.45000,2
49.45833,2
49.46667,2
49.47500,2
49.48333,2
49.49167,2
49.50000,2
49.50833,2
49.51667,2
49.52500,2
49.53333,2
49.54167,2
49.55000,1
49.55833,2
49.56667,2
49.57500,2
49.58333,2
49.59167,2
49.60000,2
49.60833,2
49.61667,1
49.62500,2
49.63333,2
49.64167,2
49.65000,2
49.65833,2
49.66667,2
49.67500,2
49.68333,2
49.69167,2
49.70000,2
49.70833,2
49.71667,2
49.72500,2
49.73333,2
49.74167,2
49.75000,2
49.75833,2
49.76667,2
49.77500,2
49.78333,3
49.79167,3
49.80000,3
49.80833,3
49.81667,3
49.82500,3
49.83333,3
49.84167,3
49.85000,3
49.85833,3
49.86667,3
49.87500,3
49.88333,3
49.89167,3
49.90000,3
49.90833,3
49.91667,3
49.92500,3
49.93333,3
49.94167,3
49.95000,3
49.95833,4
49.96667,4
49.97500,4
49.98333,4
49.99167,4
50.00000,4

