[Header]
Application Name,LabSolutions
Version,5.97 SP1
Data File Name,C:\Users\cremerlab\Desktop\Richa\Oct_18th_2022_yield_expt\Oct 18th 2022 yield expt_10182022_001_014.lcd
Output Date,10/19/2022
Output Time,4:35:44 AM

[File Information]
Type,Data File
Generated,10/19/2022 3:45:25 AM
Generated by,System Administrator
Modified,10/19/2022 4:35:44 AM
Modified by,System Administrator

[Sample Information]
Operator Name,System Administrator
Acquired,10/19/2022 3:45:44 AM
Sample Type,0:Unknown
Level,0
Sample Name,101822_BT_1
Sample ID,001
ISTD Amount1,1
ISTD Amount2,1
ISTD Amount3,1
ISTD Amount4,1
ISTD Amount5,1
ISTD Amount6,1
ISTD Amount7,1
ISTD Amount8,1
ISTD Amount9,1
ISTD Amount10,1
ISTD Amount11,1
ISTD Amount12,1
ISTD Amount13,1
ISTD Amount14,1
ISTD Amount15,1
ISTD Amount16,1
ISTD Amount17,1
ISTD Amount18,1
ISTD Amount19,1
ISTD Amount20,1
ISTD Amount21,1
ISTD Amount22,1
ISTD Amount23,1
ISTD Amount24,1
ISTD Amount25,1
ISTD Amount26,1
ISTD Amount27,1
ISTD Amount28,1
ISTD Amount29,1
ISTD Amount30,1
ISTD Amount31,1
ISTD Amount32,1
Sample Amount,1
Dilution Factor,1
Vial#,13
Injection Volume,20

[Original Files]
Data File,C:\Users\cremerlab\Desktop\Richa\Oct_18th_2022_yield_expt\Oct 18th 2022 yield expt_10182022_001_014.lcd
Method File,C:\Users\cremerlab\Desktop\Richa\acetate_excretion.lcm
Batch File,C:\Users\cremerlab\Desktop\Richa\Oct_18th_2022_yield_expt\Oct 18th 2022 yield expt.lcb
Report Format File,c:\LabSolutions\System\DEFAULT.lsr

[File Description]


[Configuration]
Instrument Name,HPLC-PC-Instrument1
Instrument #,1
Line #,1
# of Detectors,2
Detector ID,Detector A,Detector B
Detector Name,Detector A,Detector B
# of Channels,1,1

[Peak Table(Detector A)]
# of Peaks,0

[Peak Table(Detector B)]
# of Peaks,6
Peak#,R.Time,I.Time,F.Time,Area,Height,A/H,Conc.,Mark,ID#,Name,k',Plate #,Plate Ht.,Tailing,Resolution,Sep.Factor,Area Ratio,Height Ratio,Conc. %,Norm Conc.
1,11.030,10.558,12.633,2174305,112513,19.325,0.000,   ,,,0.000,7760,19.331,0.925,0.000,0.000,0,0,0.000,0.000
2,14.349,12.633,15.192,3674650,77397,47.478,0.000, V ,,,0.301,2443,61.398,0.653,3.994,0.000,0,0,0.000,0.000
3,15.775,15.192,18.125,1587649,53147,29.873,0.000, V ,,,0.430,6763,22.179,1.146,1.479,1.430,0,0,0.000,0.000
4,21.923,21.292,22.683,56980,1632,34.914,0.000,   ,,,0.988,9030,16.611,1.056,7.275,2.295,0,0,0.000,0.000
5,25.087,24.292,26.125,138780,3474,39.943,0.000,   ,,,1.274,9141,16.409,1.046,3.208,1.290,0,0,0.000,0.000
6,32.375,30.725,33.283,32969,486,67.876,0.000,   ,,,1.935,6807,22.035,0.763,5.565,1.518,0,0,0.000,0.000

[LC Chromatogram(Detector B-Ch1)]
Interval(msec),500
# of Points,6001
Start Time(min),0.000
End Time(min),50.000
Intensity Units,mV
Intensity Multiplier,0.001
R.Time (min),Intensity
0.00000,1
0.00833,1
0.01667,0
0.02500,0
0.03333,1
0.04167,1
0.05000,2
0.05833,2
0.06667,2
0.07500,2
0.08333,1
0.09167,1
0.10000,1
0.10833,1
0.11667,2
0.12500,2
0.13333,2
0.14167,2
0.15000,2
0.15833,2
0.16667,2
0.17500,2
0.18333,2
0.19167,2
0.20000,2
0.20833,2
0.21667,2
0.22500,3
0.23333,3
0.24167,3
0.25000,3
0.25833,3
0.26667,3
0.27500,3
0.28333,3
0.29167,3
0.30000,3
0.30833,2
0.31667,2
0.32500,2
0.33333,2
0.34167,2
0.35000,2
0.35833,2
0.36667,2
0.37500,1
0.38333,1
0.39167,1
0.40000,1
0.40833,2
0.41667,2
0.42500,2
0.43333,3
0.44167,3
0.45000,3
0.45833,3
0.46667,3
0.47500,3
0.48333,2
0.49167,2
0.50000,2
0.50833,2
0.51667,2
0.52500,2
0.53333,2
0.54167,2
0.55000,2
0.55833,2
0.56667,2
0.57500,2
0.58333,2
0.59167,2
0.60000,2
0.60833,2
0.61667,2
0.62500,2
0.63333,2
0.64167,2
0.65000,2
0.65833,2
0.66667,2
0.67500,2
0.68333,2
0.69167,2
0.70000,2
0.70833,1
0.71667,1
0.72500,1
0.73333,1
0.74167,1
0.75000,1
0.75833,1
0.76667,1
0.77500,1
0.78333,1
0.79167,1
0.80000,1
0.80833,1
0.81667,0
0.82500,1
0.83333,0
0.84167,0
0.85000,0
0.85833,-0
0.86667,-0
0.87500,0
0.88333,1
0.89167,1
0.90000,0
0.90833,0
0.91667,-0
0.92500,-1
0.93333,-1
0.94167,-1
0.95000,-1
0.95833,-0
0.96667,-0
0.97500,-0
0.98333,-0
0.99167,-0
1.00000,-0
1.00833,-0
1.01667,-0
1.02500,-1
1.03333,-1
1.04167,-0
1.05000,-0
1.05833,0
1.06667,1
1.07500,1
1.08333,1
1.09167,1
1.10000,0
1.10833,0
1.11667,0
1.12500,-0
1.13333,-1
1.14167,-1
1.15000,-2
1.15833,-2
1.16667,-2
1.17500,-2
1.18333,-2
1.19167,-2
1.20000,-2
1.20833,-2
1.21667,-1
1.22500,-1
1.23333,-1
1.24167,-1
1.25000,-1
1.25833,-1
1.26667,-1
1.27500,-1
1.28333,-1
1.29167,-2
1.30000,-2
1.30833,-2
1.31667,-2
1.32500,-3
1.33333,-3
1.34167,-3
1.35000,-3
1.35833,-3
1.36667,-3
1.37500,-3
1.38333,-3
1.39167,-3
1.40000,-3
1.40833,-3
1.41667,-3
1.42500,-3
1.43333,-3
1.44167,-3
1.45000,-3
1.45833,-3
1.46667,-3
1.47500,-3
1.48333,-3
1.49167,-3
1.50000,-3
1.50833,-3
1.51667,-3
1.52500,-3
1.53333,-3
1.54167,-3
1.55000,-3
1.55833,-3
1.56667,-3
1.57500,-3
1.58333,-3
1.59167,-3
1.60000,-3
1.60833,-3
1.61667,-3
1.62500,-3
1.63333,-3
1.64167,-3
1.65000,-3
1.65833,-3
1.66667,-3
1.67500,-3
1.68333,-3
1.69167,-3
1.70000,-3
1.70833,-3
1.71667,-4
1.72500,-3
1.73333,-3
1.74167,-3
1.75000,-3
1.75833,-3
1.76667,-3
1.77500,-3
1.78333,-4
1.79167,-4
1.80000,-4
1.80833,-4
1.81667,-4
1.82500,-4
1.83333,-4
1.84167,-4
1.85000,-4
1.85833,-4
1.86667,-4
1.87500,-4
1.88333,-4
1.89167,-5
1.90000,-5
1.90833,-4
1.91667,-4
1.92500,-4
1.93333,-4
1.94167,-4
1.95000,-4
1.95833,-4
1.96667,-4
1.97500,-4
1.98333,-4
1.99167,-4
2.00000,-4
2.00833,-4
2.01667,-4
2.02500,-4
2.03333,-4
2.04167,-4
2.05000,-4
2.05833,-4
2.06667,-4
2.07500,-4
2.08333,-3
2.09167,-4
2.10000,-4
2.10833,-4
2.11667,-4
2.12500,-4
2.13333,-4
2.14167,-4
2.15000,-4
2.15833,-5
2.16667,-5
2.17500,-5
2.18333,-6
2.19167,-6
2.20000,-6
2.20833,-5
2.21667,-5
2.22500,-5
2.23333,-5
2.24167,-4
2.25000,-4
2.25833,-4
2.26667,-4
2.27500,-4
2.28333,-4
2.29167,-4
2.30000,-4
2.30833,-4
2.31667,-5
2.32500,-5
2.33333,-5
2.34167,-5
2.35000,-5
2.35833,-5
2.36667,-5
2.37500,-5
2.38333,-4
2.39167,-4
2.40000,-4
2.40833,-4
2.41667,-4
2.42500,-4
2.43333,-4
2.44167,-4
2.45000,-4
2.45833,-4
2.46667,-4
2.47500,-4
2.48333,-5
2.49167,-5
2.50000,-5
2.50833,-5
2.51667,-5
2.52500,-5
2.53333,-5
2.54167,-5
2.55000,-5
2.55833,-5
2.56667,-5
2.57500,-5
2.58333,-5
2.59167,-5
2.60000,-5
2.60833,-6
2.61667,-6
2.62500,-5
2.63333,-5
2.64167,-5
2.65000,-5
2.65833,-4
2.66667,-4
2.67500,-4
2.68333,-4
2.69167,-4
2.70000,-4
2.70833,-4
2.71667,-4
2.72500,-4
2.73333,-4
2.74167,-4
2.75000,-4
2.75833,-4
2.76667,-4
2.77500,-4
2.78333,-5
2.79167,-5
2.80000,-5
2.80833,-5
2.81667,-5
2.82500,-5
2.83333,-5
2.84167,-5
2.85000,-5
2.85833,-5
2.86667,-5
2.87500,-5
2.88333,-5
2.89167,-4
2.90000,-5
2.90833,-5
2.91667,-4
2.92500,-4
2.93333,-4
2.94167,-4
2.95000,-4
2.95833,-4
2.96667,-4
2.97500,-4
2.98333,-3
2.99167,-3
3.00000,-3
3.00833,-3
3.01667,-4
3.02500,-4
3.03333,-4
3.04167,-4
3.05000,-5
3.05833,-4
3.06667,-4
3.07500,-4
3.08333,-4
3.09167,-4
3.10000,-4
3.10833,-4
3.11667,-5
3.12500,-5
3.13333,-5
3.14167,-5
3.15000,-5
3.15833,-5
3.16667,-5
3.17500,-5
3.18333,-5
3.19167,-4
3.20000,-4
3.20833,-4
3.21667,-4
3.22500,-4
3.23333,-4
3.24167,-5
3.25000,-5
3.25833,-5
3.26667,-5
3.27500,-5
3.28333,-5
3.29167,-5
3.30000,-5
3.30833,-5
3.31667,-5
3.32500,-5
3.33333,-5
3.34167,-4
3.35000,-4
3.35833,-4
3.36667,-4
3.37500,-4
3.38333,-4
3.39167,-4
3.40000,-4
3.40833,-4
3.41667,-4
3.42500,-4
3.43333,-4
3.44167,-4
3.45000,-4
3.45833,-4
3.46667,-4
3.47500,-4
3.48333,-5
3.49167,-5
3.50000,-5
3.50833,-5
3.51667,-5
3.52500,-5
3.53333,-5
3.54167,-5
3.55000,-5
3.55833,-5
3.56667,-5
3.57500,-5
3.58333,-5
3.59167,-6
3.60000,-6
3.60833,-6
3.61667,-6
3.62500,-5
3.63333,-5
3.64167,-5
3.65000,-5
3.65833,-5
3.66667,-5
3.67500,-5
3.68333,-5
3.69167,-5
3.70000,-5
3.70833,-5
3.71667,-5
3.72500,-5
3.73333,-4
3.74167,-4
3.75000,-4
3.75833,-4
3.76667,-4
3.77500,-4
3.78333,-5
3.79167,-5
3.80000,-5
3.80833,-4
3.81667,-4
3.82500,-4
3.83333,-4
3.84167,-4
3.85000,-4
3.85833,-4
3.86667,-4
3.87500,-4
3.88333,-4
3.89167,-4
3.90000,-4
3.90833,-4
3.91667,-4
3.92500,-4
3.93333,-4
3.94167,-4
3.95000,-4
3.95833,-4
3.96667,-4
3.97500,-4
3.98333,-5
3.99167,-5
4.00000,-5
4.00833,-5
4.01667,-5
4.02500,-4
4.03333,-4
4.04167,-4
4.05000,-4
4.05833,-4
4.06667,-4
4.07500,-4
4.08333,-4
4.09167,-4
4.10000,-4
4.10833,-4
4.11667,-4
4.12500,-4
4.13333,-4
4.14167,-5
4.15000,-4
4.15833,-4
4.16667,-4
4.17500,-4
4.18333,-4
4.19167,-4
4.20000,-4
4.20833,-4
4.21667,-4
4.22500,-4
4.23333,-4
4.24167,-4
4.25000,-4
4.25833,-4
4.26667,-4
4.27500,-4
4.28333,-4
4.29167,-4
4.30000,-4
4.30833,-4
4.31667,-4
4.32500,-4
4.33333,-4
4.34167,-4
4.35000,-4
4.35833,-4
4.36667,-4
4.37500,-4
4.38333,-4
4.39167,-4
4.40000,-4
4.40833,-3
4.41667,-3
4.42500,-3
4.43333,-3
4.44167,-3
4.45000,-3
4.45833,-3
4.46667,-4
4.47500,-4
4.48333,-4
4.49167,-4
4.50000,-4
4.50833,-5
4.51667,-5
4.52500,-5
4.53333,-4
4.54167,-4
4.55000,-4
4.55833,-5
4.56667,-5
4.57500,-5
4.58333,-5
4.59167,-4
4.60000,-4
4.60833,-4
4.61667,-4
4.62500,-4
4.63333,-3
4.64167,-4
4.65000,-4
4.65833,-4
4.66667,-4
4.67500,-4
4.68333,-4
4.69167,-4
4.70000,-4
4.70833,-4
4.71667,-4
4.72500,-4
4.73333,-4
4.74167,-4
4.75000,-4
4.75833,-4
4.76667,-4
4.77500,-4
4.78333,-3
4.79167,-3
4.80000,-3
4.80833,-3
4.81667,-3
4.82500,-3
4.83333,-3
4.84167,-3
4.85000,-3
4.85833,-2
4.86667,-3
4.87500,-3
4.88333,-3
4.89167,-3
4.90000,-3
4.90833,-3
4.91667,-2
4.92500,-2
4.93333,-2
4.94167,-2
4.95000,-2
4.95833,-3
4.96667,-3
4.97500,-4
4.98333,-4
4.99167,-4
5.00000,-4
5.00833,-4
5.01667,-4
5.02500,-4
5.03333,-4
5.04167,-4
5.05000,-4
5.05833,-4
5.06667,-4
5.07500,-4
5.08333,-3
5.09167,-3
5.10000,-3
5.10833,-3
5.11667,-3
5.12500,-3
5.13333,-3
5.14167,-3
5.15000,-3
5.15833,-3
5.16667,-4
5.17500,-3
5.18333,-3
5.19167,-3
5.20000,-3
5.20833,-3
5.21667,-3
5.22500,-3
5.23333,-3
5.24167,-3
5.25000,-3
5.25833,-3
5.26667,-3
5.27500,-3
5.28333,-4
5.29167,-3
5.30000,-3
5.30833,-3
5.31667,-3
5.32500,-4
5.33333,-4
5.34167,-4
5.35000,-3
5.35833,-3
5.36667,-3
5.37500,-3
5.38333,-3
5.39167,-3
5.40000,-2
5.40833,-2
5.41667,-2
5.42500,-2
5.43333,-2
5.44167,-2
5.45000,-3
5.45833,-3
5.46667,-3
5.47500,-3
5.48333,-3
5.49167,-3
5.50000,-3
5.50833,-3
5.51667,-3
5.52500,-3
5.53333,-3
5.54167,-3
5.55000,-3
5.55833,-3
5.56667,-2
5.57500,-3
5.58333,-2
5.59167,-2
5.60000,-3
5.60833,-3
5.61667,-3
5.62500,-3
5.63333,-3
5.64167,-3
5.65000,-3
5.65833,-3
5.66667,-3
5.67500,-2
5.68333,-2
5.69167,-2
5.70000,-2
5.70833,-2
5.71667,-2
5.72500,-2
5.73333,-2
5.74167,-3
5.75000,-3
5.75833,-3
5.76667,-3
5.77500,-3
5.78333,-3
5.79167,-3
5.80000,-2
5.80833,-2
5.81667,-3
5.82500,-3
5.83333,-3
5.84167,-3
5.85000,-3
5.85833,-3
5.86667,-3
5.87500,-3
5.88333,-3
5.89167,-3
5.90000,-3
5.90833,-3
5.91667,-3
5.92500,-3
5.93333,-2
5.94167,-3
5.95000,-3
5.95833,-4
5.96667,-4
5.97500,-4
5.98333,-4
5.99167,-3
6.00000,-3
6.00833,-3
6.01667,-3
6.02500,-3
6.03333,-2
6.04167,-3
6.05000,-3
6.05833,-3
6.06667,-3
6.07500,-3
6.08333,-3
6.09167,-3
6.10000,-3
6.10833,-3
6.11667,-3
6.12500,-3
6.13333,-3
6.14167,-3
6.15000,-3
6.15833,-3
6.16667,-3
6.17500,-2
6.18333,-2
6.19167,-2
6.20000,-2
6.20833,-2
6.21667,-3
6.22500,-3
6.23333,-3
6.24167,-3
6.25000,-3
6.25833,-3
6.26667,-3
6.27500,-3
6.28333,-3
6.29167,-2
6.30000,-2
6.30833,-2
6.31667,-2
6.32500,-2
6.33333,-2
6.34167,-2
6.35000,-2
6.35833,-2
6.36667,-2
6.37500,-2
6.38333,-2
6.39167,-3
6.40000,-3
6.40833,-3
6.41667,-3
6.42500,-3
6.43333,-3
6.44167,-3
6.45000,-3
6.45833,-3
6.46667,-2
6.47500,-1
6.48333,-1
6.49167,-2
6.50000,-2
6.50833,-2
6.51667,-2
6.52500,-2
6.53333,-2
6.54167,-2
6.55000,-2
6.55833,-2
6.56667,-2
6.57500,-2
6.58333,-2
6.59167,-2
6.60000,-2
6.60833,-2
6.61667,-2
6.62500,-2
6.63333,-3
6.64167,-3
6.65000,-3
6.65833,-3
6.66667,-3
6.67500,-3
6.68333,-3
6.69167,-2
6.70000,-2
6.70833,-2
6.71667,-2
6.72500,-2
6.73333,-2
6.74167,-2
6.75000,-2
6.75833,-2
6.76667,-2
6.77500,-3
6.78333,-3
6.79167,-3
6.80000,-4
6.80833,-4
6.81667,-4
6.82500,-3
6.83333,-3
6.84167,-3
6.85000,-3
6.85833,-3
6.86667,-3
6.87500,-3
6.88333,-3
6.89167,-3
6.90000,-3
6.90833,-3
6.91667,-3
6.92500,-3
6.93333,-4
6.94167,-3
6.95000,-3
6.95833,-3
6.96667,-3
6.97500,-3
6.98333,-2
6.99167,-2
7.00000,-2
7.00833,-2
7.01667,-2
7.02500,-3
7.03333,-3
7.04167,-3
7.05000,-3
7.05833,-2
7.06667,-2
7.07500,-3
7.08333,-3
7.09167,-3
7.10000,-4
7.10833,-4
7.11667,-3
7.12500,-3
7.13333,-4
7.14167,-4
7.15000,-4
7.15833,-3
7.16667,-3
7.17500,-3
7.18333,-3
7.19167,-4
7.20000,-4
7.20833,-4
7.21667,-4
7.22500,-4
7.23333,-4
7.24167,-3
7.25000,-3
7.25833,-3
7.26667,-3
7.27500,-3
7.28333,-3
7.29167,-3
7.30000,-3
7.30833,-3
7.31667,-3
7.32500,-3
7.33333,-3
7.34167,-3
7.35000,-3
7.35833,-3
7.36667,-3
7.37500,-3
7.38333,-3
7.39167,-4
7.40000,-4
7.40833,-4
7.41667,-4
7.42500,-4
7.43333,-3
7.44167,-3
7.45000,-3
7.45833,-2
7.46667,-2
7.47500,-2
7.48333,-3
7.49167,-3
7.50000,-3
7.50833,-3
7.51667,-3
7.52500,-3
7.53333,-3
7.54167,-3
7.55000,-3
7.55833,-3
7.56667,-3
7.57500,-3
7.58333,-2
7.59167,-2
7.60000,-3
7.60833,-3
7.61667,-3
7.62500,-3
7.63333,-3
7.64167,-3
7.65000,-3
7.65833,-3
7.66667,-3
7.67500,-3
7.68333,-3
7.69167,-3
7.70000,-3
7.70833,-3
7.71667,-3
7.72500,-3
7.73333,-3
7.74167,-3
7.75000,-3
7.75833,-3
7.76667,-3
7.77500,-3
7.78333,-3
7.79167,-3
7.80000,-3
7.80833,-3
7.81667,-4
7.82500,-4
7.83333,-4
7.84167,-4
7.85000,-4
7.85833,-3
7.86667,-3
7.87500,-3
7.88333,-3
7.89167,-3
7.90000,-3
7.90833,-3
7.91667,-3
7.92500,-3
7.93333,-3
7.94167,-4
7.95000,-4
7.95833,-3
7.96667,-3
7.97500,-4
7.98333,-3
7.99167,-3
8.00000,-3
8.00833,-3
8.01667,-3
8.02500,-3
8.03333,-3
8.04167,-3
8.05000,-3
8.05833,-3
8.06667,-4
8.07500,-4
8.08333,-4
8.09167,-4
8.10000,-4
8.10833,-4
8.11667,-4
8.12500,-4
8.13333,-4
8.14167,-4
8.15000,-4
8.15833,-4
8.16667,-4
8.17500,-4
8.18333,-4
8.19167,-4
8.20000,-4
8.20833,-3
8.21667,-3
8.22500,-3
8.23333,-3
8.24167,-3
8.25000,-4
8.25833,-4
8.26667,-4
8.27500,-4
8.28333,-4
8.29167,-4
8.30000,-4
8.30833,-4
8.31667,-4
8.32500,-3
8.33333,-3
8.34167,-3
8.35000,-3
8.35833,-3
8.36667,-3
8.37500,-3
8.38333,-3
8.39167,-3
8.40000,-4
8.40833,-4
8.41667,-4
8.42500,-4
8.43333,-4
8.44167,-3
8.45000,-3
8.45833,-3
8.46667,-4
8.47500,-4
8.48333,-4
8.49167,-4
8.50000,-4
8.50833,-4
8.51667,-4
8.52500,-4
8.53333,-4
8.54167,-4
8.55000,-4
8.55833,-4
8.56667,-4
8.57500,-4
8.58333,-4
8.59167,-4
8.60000,-4
8.60833,-4
8.61667,-4
8.62500,-4
8.63333,-4
8.64167,-4
8.65000,-4
8.65833,-4
8.66667,-4
8.67500,-5
8.68333,-5
8.69167,-4
8.70000,-4
8.70833,-4
8.71667,-4
8.72500,-4
8.73333,-4
8.74167,-4
8.75000,-3
8.75833,-3
8.76667,-3
8.77500,-3
8.78333,-3
8.79167,-4
8.80000,-4
8.80833,-3
8.81667,-3
8.82500,-3
8.83333,-3
8.84167,-3
8.85000,-4
8.85833,-4
8.86667,-4
8.87500,-4
8.88333,-4
8.89167,-4
8.90000,-4
8.90833,-4
8.91667,-4
8.92500,-3
8.93333,-3
8.94167,-2
8.95000,-2
8.95833,-2
8.96667,-2
8.97500,-2
8.98333,-2
8.99167,-3
9.00000,-3
9.00833,-3
9.01667,-3
9.02500,-3
9.03333,-3
9.04167,-3
9.05000,-3
9.05833,-3
9.06667,-3
9.07500,-3
9.08333,-3
9.09167,-4
9.10000,-4
9.10833,-4
9.11667,-4
9.12500,-4
9.13333,-4
9.14167,-4
9.15000,-4
9.15833,-4
9.16667,-4
9.17500,-3
9.18333,-3
9.19167,-3
9.20000,-3
9.20833,-3
9.21667,-3
9.22500,-3
9.23333,-3
9.24167,-3
9.25000,-3
9.25833,-3
9.26667,-3
9.27500,-3
9.28333,-4
9.29167,-4
9.30000,-4
9.30833,-4
9.31667,-4
9.32500,-4
9.33333,-4
9.34167,-4
9.35000,-4
9.35833,-4
9.36667,-4
9.37500,-4
9.38333,-4
9.39167,-4
9.40000,-4
9.40833,-4
9.41667,-4
9.42500,-4
9.43333,-4
9.44167,-4
9.45000,-4
9.45833,-4
9.46667,-3
9.47500,-3
9.48333,-3
9.49167,-4
9.50000,-4
9.50833,-4
9.51667,-4
9.52500,-4
9.53333,-4
9.54167,-4
9.55000,-4
9.55833,-4
9.56667,-4
9.57500,-4
9.58333,-4
9.59167,-4
9.60000,-4
9.60833,-4
9.61667,-4
9.62500,-4
9.63333,-4
9.64167,-4
9.65000,-4
9.65833,-3
9.66667,-3
9.67500,-3
9.68333,-4
9.69167,-4
9.70000,-3
9.70833,-3
9.71667,-3
9.72500,-4
9.73333,-4
9.74167,-4
9.75000,-4
9.75833,-4
9.76667,-5
9.77500,-4
9.78333,-4
9.79167,-4
9.80000,-4
9.80833,-4
9.81667,-4
9.82500,-4
9.83333,-4
9.84167,-4
9.85000,-4
9.85833,-4
9.86667,-4
9.87500,-5
9.88333,-4
9.89167,-4
9.90000,-4
9.90833,-4
9.91667,-4
9.92500,-5
9.93333,-4
9.94167,-4
9.95000,-4
9.95833,-4
9.96667,-4
9.97500,-4
9.98333,-3
9.99167,-4
10.00000,-4
10.00833,-4
10.01667,-4
10.02500,-4
10.03333,-4
10.04167,-4
10.05000,-4
10.05833,-3
10.06667,-3
10.07500,-2
10.08333,-3
10.09167,-3
10.10000,-3
10.10833,-3
10.11667,-4
10.12500,-4
10.13333,-3
10.14167,-3
10.15000,-4
10.15833,-4
10.16667,-3
10.17500,-3
10.18333,-3
10.19167,-3
10.20000,-3
10.20833,-3
10.21667,-3
10.22500,-3
10.23333,-3
10.24167,-3
10.25000,-3
10.25833,-3
10.26667,-3
10.27500,-3
10.28333,-3
10.29167,-3
10.30000,-3
10.30833,-2
10.31667,-2
10.32500,-2
10.33333,-2
10.34167,-2
10.35000,-2
10.35833,-3
10.36667,-4
10.37500,-6
10.38333,-10
10.39167,-14
10.40000,-21
10.40833,-29
10.41667,-40
10.42500,-54
10.43333,-72
10.44167,-95
10.45000,-123
10.45833,-157
10.46667,-196
10.47500,-242
10.48333,-294
10.49167,-350
10.50000,-411
10.50833,-473
10.51667,-536
10.52500,-597
10.53333,-651
10.54167,-697
10.55000,-728
10.55833,-741
10.56667,-731
10.57500,-692
10.58333,-617
10.59167,-502
10.60000,-340
10.60833,-125
10.61667,149
10.62500,488
10.63333,898
10.64167,1385
10.65000,1954
10.65833,2611
10.66667,3360
10.67500,4206
10.68333,5154
10.69167,6206
10.70000,7367
10.70833,8639
10.71667,10026
10.72500,11530
10.73333,13152
10.74167,14893
10.75000,16756
10.75833,18741
10.76667,20847
10.77500,23075
10.78333,25425
10.79167,27895
10.80000,30484
10.80833,33189
10.81667,36009
10.82500,38940
10.83333,41980
10.84167,45124
10.85000,48367
10.85833,51703
10.86667,55125
10.87500,58626
10.88333,62197
10.89167,65826
10.90000,69502
10.90833,73208
10.91667,76927
10.92500,80639
10.93333,84318
10.94167,87938
10.95000,91466
10.95833,94866
10.96667,98097
10.97500,101113
10.98333,103866
10.99167,106302
11.00000,108366
11.00833,110002
11.01667,111158
11.02500,111781
11.03333,111826
11.04167,111258
11.05000,110053
11.05833,108202
11.06667,105711
11.07500,102604
11.08333,98923
11.09167,94727
11.10000,90089
11.10833,85094
11.11667,79833
11.12500,74402
11.13333,68894
11.14167,63400
11.15000,57999
11.15833,52763
11.16667,47749
11.17500,43005
11.18333,38563
11.19167,34444
11.20000,30660
11.20833,27213
11.21667,24095
11.22500,21294
11.23333,18794
11.24167,16574
11.25000,14613
11.25833,12887
11.26667,11374
11.27500,10051
11.28333,8898
11.29167,7895
11.30000,7022
11.30833,6264
11.31667,5606
11.32500,5035
11.33333,4539
11.34167,4106
11.35000,3730
11.35833,3401
11.36667,3114
11.37500,2861
11.38333,2638
11.39167,2442
11.40000,2267
11.40833,2111
11.41667,1972
11.42500,1847
11.43333,1734
11.44167,1633
11.45000,1540
11.45833,1455
11.46667,1377
11.47500,1306
11.48333,1240
11.49167,1180
11.50000,1123
11.50833,1071
11.51667,1022
11.52500,976
11.53333,933
11.54167,893
11.55000,855
11.55833,819
11.56667,785
11.57500,754
11.58333,724
11.59167,695
11.60000,668
11.60833,642
11.61667,618
11.62500,595
11.63333,573
11.64167,553
11.65000,533
11.65833,515
11.66667,497
11.67500,480
11.68333,464
11.69167,448
11.70000,434
11.70833,420
11.71667,408
11.72500,396
11.73333,383
11.74167,372
11.75000,361
11.75833,350
11.76667,340
11.77500,331
11.78333,323
11.79167,315
11.80000,308
11.80833,301
11.81667,294
11.82500,287
11.83333,281
11.84167,275
11.85000,270
11.85833,264
11.86667,260
11.87500,255
11.88333,251
11.89167,247
11.90000,243
11.90833,240
11.91667,236
11.92500,233
11.93333,230
11.94167,227
11.95000,225
11.95833,222
11.96667,220
11.97500,217
11.98333,215
11.99167,214
12.00000,212
12.00833,210
12.01667,208
12.02500,206
12.03333,205
12.04167,204
12.05000,203
12.05833,202
12.06667,201
12.07500,200
12.08333,199
12.09167,198
12.10000,196
12.10833,195
12.11667,194
12.12500,193
12.13333,192
12.14167,191
12.15000,189
12.15833,188
12.16667,187
12.17500,186
12.18333,185
12.19167,184
12.20000,183
12.20833,182
12.21667,181
12.22500,180
12.23333,179
12.24167,178
12.25000,177
12.25833,176
12.26667,175
12.27500,174
12.28333,173
12.29167,172
12.30000,170
12.30833,169
12.31667,168
12.32500,166
12.33333,165
12.34167,165
12.35000,164
12.35833,163
12.36667,162
12.37500,161
12.38333,160
12.39167,159
12.40000,158
12.40833,157
12.41667,156
12.42500,155
12.43333,154
12.44167,153
12.45000,152
12.45833,152
12.46667,151
12.47500,150
12.48333,149
12.49167,148
12.50000,147
12.50833,146
12.51667,145
12.52500,144
12.53333,143
12.54167,143
12.55000,142
12.55833,141
12.56667,140
12.57500,140
12.58333,139
12.59167,138
12.60000,137
12.60833,137
12.61667,136
12.62500,136
12.63333,135
12.64167,135
12.65000,136
12.65833,136
12.66667,137
12.67500,139
12.68333,142
12.69167,146
12.70000,151
12.70833,157
12.71667,163
12.72500,172
12.73333,182
12.74167,194
12.75000,209
12.75833,226
12.76667,245
12.77500,268
12.78333,293
12.79167,322
12.80000,354
12.80833,390
12.81667,430
12.82500,473
12.83333,521
12.84167,573
12.85000,630
12.85833,692
12.86667,759
12.87500,830
12.88333,907
12.89167,989
12.90000,1076
12.90833,1168
12.91667,1266
12.92500,1369
12.93333,1478
12.94167,1592
12.95000,1712
12.95833,1837
12.96667,1967
12.97500,2104
12.98333,2245
12.99167,2393
13.00000,2546
13.00833,2704
13.01667,2867
13.02500,3036
13.03333,3211
13.04167,3391
13.05000,3577
13.05833,3767
13.06667,3963
13.07500,4164
13.08333,4369
13.09167,4580
13.10000,4796
13.10833,5016
13.11667,5241
13.12500,5470
13.13333,5704
13.14167,5943
13.15000,6185
13.15833,6432
13.16667,6684
13.17500,6939
13.18333,7199
13.19167,7462
13.20000,7730
13.20833,8001
13.21667,8277
13.22500,8555
13.23333,8838
13.24167,9123
13.25000,9412
13.25833,9705
13.26667,10001
13.27500,10300
13.28333,10603
13.29167,10910
13.30000,11219
13.30833,11532
13.31667,11848
13.32500,12167
13.33333,12489
13.34167,12814
13.35000,13142
13.35833,13473
13.36667,13807
13.37500,14145
13.38333,14485
13.39167,14829
13.40000,15175
13.40833,15525
13.41667,15877
13.42500,16232
13.43333,16591
13.44167,16952
13.45000,17317
13.45833,17685
13.46667,18055
13.47500,18429
13.48333,18806
13.49167,19185
13.50000,19568
13.50833,19954
13.51667,20343
13.52500,20735
13.53333,21130
13.54167,21529
13.55000,21931
13.55833,22337
13.56667,22745
13.57500,23157
13.58333,23572
13.59167,23990
13.60000,24412
13.60833,24836
13.61667,25264
13.62500,25696
13.63333,26132
13.64167,26571
13.65000,27013
13.65833,27459
13.66667,27908
13.67500,28361
13.68333,28819
13.69167,29279
13.70000,29743
13.70833,30211
13.71667,30683
13.72500,31159
13.73333,31638
13.74167,32122
13.75000,32609
13.75833,33100
13.76667,33595
13.77500,34094
13.78333,34598
13.79167,35105
13.80000,35617
13.80833,36133
13.81667,36653
13.82500,37178
13.83333,37706
13.84167,38239
13.85000,38777
13.85833,39319
13.86667,39866
13.87500,40417
13.88333,40974
13.89167,41535
13.90000,42100
13.90833,42670
13.91667,43245
13.92500,43825
13.93333,44410
13.94167,45000
13.95000,45595
13.95833,46196
13.96667,46801
13.97500,47412
13.98333,48028
13.99167,48649
14.00000,49275
14.00833,49907
14.01667,50545
14.02500,51188
14.03333,51836
14.04167,52491
14.05000,53152
14.05833,53818
14.06667,54490
14.07500,55168
14.08333,55853
14.09167,56543
14.10000,57240
14.10833,57942
14.11667,58651
14.12500,59367
14.13333,60089
14.14167,60817
14.15000,61553
14.15833,62295
14.16667,63043
14.17500,63799
14.18333,64562
14.19167,65331
14.20000,66108
14.20833,66891
14.21667,67680
14.22500,68474
14.23333,69272
14.24167,70070
14.25000,70866
14.25833,71653
14.26667,72426
14.27500,73176
14.28333,73894
14.29167,74569
14.30000,75189
14.30833,75743
14.31667,76217
14.32500,76600
14.33333,76881
14.34167,77049
14.35000,77095
14.35833,77012
14.36667,76796
14.37500,76441
14.38333,75944
14.39167,75302
14.40000,74515
14.40833,73579
14.41667,72494
14.42500,71256
14.43333,69865
14.44167,68317
14.45000,66612
14.45833,64751
14.46667,62735
14.47500,60569
14.48333,58261
14.49167,55820
14.50000,53261
14.50833,50604
14.51667,47868
14.52500,45078
14.53333,42259
14.54167,39436
14.55000,36638
14.55833,33889
14.56667,31214
14.57500,28634
14.58333,26168
14.59167,23830
14.60000,21633
14.60833,19582
14.61667,17684
14.62500,15937
14.63333,14341
14.64167,12890
14.65000,11579
14.65833,10400
14.66667,9343
14.67500,8401
14.68333,7562
14.69167,6818
14.70000,6160
14.70833,5578
14.71667,5064
14.72500,4611
14.73333,4212
14.74167,3860
14.75000,3550
14.75833,3276
14.76667,3033
14.77500,2818
14.78333,2627
14.79167,2458
14.80000,2306
14.80833,2171
14.81667,2050
14.82500,1941
14.83333,1843
14.84167,1754
14.85000,1673
14.85833,1599
14.86667,1531
14.87500,1469
14.88333,1411
14.89167,1359
14.90000,1309
14.90833,1264
14.91667,1221
14.92500,1182
14.93333,1144
14.94167,1109
14.95000,1076
14.95833,1044
14.96667,1015
14.97500,987
14.98333,961
14.99167,936
15.00000,912
15.00833,890
15.01667,868
15.02500,848
15.03333,830
15.04167,812
15.05000,796
15.05833,780
15.06667,765
15.07500,750
15.08333,736
15.09167,723
15.10000,711
15.10833,700
15.11667,690
15.12500,680
15.13333,671
15.14167,663
15.15000,656
15.15833,649
15.16667,644
15.17500,640
15.18333,638
15.19167,637
15.20000,639
15.20833,644
15.21667,651
15.22500,663
15.23333,679
15.24167,700
15.25000,729
15.25833,765
15.26667,810
15.27500,867
15.28333,935
15.29167,1019
15.30000,1119
15.30833,1239
15.31667,1381
15.32500,1547
15.33333,1741
15.34167,1967
15.35000,2227
15.35833,2525
15.36667,2865
15.37500,3249
15.38333,3682
15.39167,4167
15.40000,4707
15.40833,5305
15.41667,5964
15.42500,6686
15.43333,7474
15.44167,8329
15.45000,9252
15.45833,10242
15.46667,11301
15.47500,12426
15.48333,13617
15.49167,14870
15.50000,16183
15.50833,17551
15.51667,18970
15.52500,20435
15.53333,21939
15.54167,23477
15.55000,25041
15.55833,26624
15.56667,28218
15.57500,29816
15.58333,31410
15.59167,32991
15.60000,34553
15.60833,36087
15.61667,37586
15.62500,39044
15.63333,40453
15.64167,41808
15.65000,43103
15.65833,44333
15.66667,45493
15.67500,46579
15.68333,47588
15.69167,48516
15.70000,49361
15.70833,50121
15.71667,50795
15.72500,51380
15.73333,51876
15.74167,52283
15.75000,52599
15.75833,52826
15.76667,52962
15.77500,53010
15.78333,52969
15.79167,52840
15.80000,52625
15.80833,52323
15.81667,51939
15.82500,51472
15.83333,50926
15.84167,50304
15.85000,49607
15.85833,48838
15.86667,48002
15.87500,47101
15.88333,46140
15.89167,45122
15.90000,44052
15.90833,42934
15.91667,41773
15.92500,40574
15.93333,39343
15.94167,38083
15.95000,36801
15.95833,35502
15.96667,34190
15.97500,32870
15.98333,31549
15.99167,30231
16.00000,28920
16.00833,27621
16.01667,26337
16.02500,25074
16.03333,23834
16.04167,22621
16.05000,21437
16.05833,20286
16.06667,19170
16.07500,18090
16.08333,17049
16.09167,16047
16.10000,15086
16.10833,14165
16.11667,13287
16.12500,12450
16.13333,11654
16.14167,10900
16.15000,10186
16.15833,9512
16.16667,8877
16.17500,8279
16.18333,7719
16.19167,7194
16.20000,6702
16.20833,6243
16.21667,5816
16.22500,5417
16.23333,5048
16.24167,4704
16.25000,4386
16.25833,4091
16.26667,3819
16.27500,3568
16.28333,3336
16.29167,3121
16.30000,2923
16.30833,2741
16.31667,2574
16.32500,2421
16.33333,2279
16.34167,2149
16.35000,2030
16.35833,1920
16.36667,1819
16.37500,1727
16.38333,1641
16.39167,1562
16.40000,1490
16.40833,1423
16.41667,1361
16.42500,1304
16.43333,1251
16.44167,1202
16.45000,1156
16.45833,1115
16.46667,1076
16.47500,1039
16.48333,1005
16.49167,973
16.50000,943
16.50833,915
16.51667,889
16.52500,864
16.53333,841
16.54167,818
16.55000,796
16.55833,776
16.56667,757
16.57500,738
16.58333,720
16.59167,703
16.60000,687
16.60833,672
16.61667,656
16.62500,642
16.63333,628
16.64167,614
16.65000,600
16.65833,587
16.66667,575
16.67500,563
16.68333,551
16.69167,540
16.70000,530
16.70833,520
16.71667,510
16.72500,501
16.73333,491
16.74167,482
16.75000,473
16.75833,465
16.76667,457
16.77500,450
16.78333,442
16.79167,436
16.80000,429
16.80833,422
16.81667,416
16.82500,410
16.83333,404
16.84167,398
16.85000,393
16.85833,388
16.86667,383
16.87500,379
16.88333,374
16.89167,370
16.90000,366
16.90833,362
16.91667,359
16.92500,355
16.93333,352
16.94167,348
16.95000,345
16.95833,342
16.96667,339
16.97500,336
16.98333,333
16.99167,330
17.00000,327
17.00833,324
17.01667,322
17.02500,320
17.03333,317
17.04167,315
17.05000,313
17.05833,310
17.06667,308
17.07500,306
17.08333,304
17.09167,302
17.10000,300
17.10833,298
17.11667,296
17.12500,295
17.13333,293
17.14167,291
17.15000,289
17.15833,287
17.16667,285
17.17500,284
17.18333,282
17.19167,279
17.20000,277
17.20833,275
17.21667,274
17.22500,272
17.23333,270
17.24167,268
17.25000,266
17.25833,264
17.26667,262
17.27500,260
17.28333,259
17.29167,257
17.30000,256
17.30833,254
17.31667,253
17.32500,251
17.33333,249
17.34167,247
17.35000,245
17.35833,243
17.36667,242
17.37500,240
17.38333,238
17.39167,236
17.40000,235
17.40833,233
17.41667,231
17.42500,230
17.43333,228
17.44167,227
17.45000,225
17.45833,223
17.46667,222
17.47500,220
17.48333,218
17.49167,217
17.50000,215
17.50833,214
17.51667,212
17.52500,210
17.53333,209
17.54167,207
17.55000,206
17.55833,204
17.56667,203
17.57500,201
17.58333,199
17.59167,198
17.60000,197
17.60833,196
17.61667,194
17.62500,192
17.63333,191
17.64167,190
17.65000,189
17.65833,187
17.66667,185
17.67500,184
17.68333,183
17.69167,182
17.70000,181
17.70833,180
17.71667,178
17.72500,177
17.73333,176
17.74167,175
17.75000,174
17.75833,173
17.76667,172
17.77500,171
17.78333,170
17.79167,169
17.80000,168
17.80833,167
17.81667,166
17.82500,165
17.83333,164
17.84167,163
17.85000,162
17.85833,161
17.86667,160
17.87500,159
17.88333,158
17.89167,157
17.90000,156
17.90833,155
17.91667,154
17.92500,153
17.93333,152
17.94167,151
17.95000,150
17.95833,149
17.96667,148
17.97500,147
17.98333,146
17.99167,146
18.00000,146
18.00833,145
18.01667,144
18.02500,143
18.03333,142
18.04167,141
18.05000,140
18.05833,140
18.06667,139
18.07500,138
18.08333,137
18.09167,136
18.10000,136
18.10833,136
18.11667,135
18.12500,135
18.13333,135
18.14167,134
18.15000,133
18.15833,132
18.16667,131
18.17500,130
18.18333,130
18.19167,129
18.20000,128
18.20833,128
18.21667,127
18.22500,127
18.23333,126
18.24167,125
18.25000,125
18.25833,124
18.26667,124
18.27500,123
18.28333,122
18.29167,122
18.30000,121
18.30833,120
18.31667,120
18.32500,119
18.33333,119
18.34167,118
18.35000,117
18.35833,117
18.36667,116
18.37500,116
18.38333,115
18.39167,115
18.40000,114
18.40833,114
18.41667,113
18.42500,113
18.43333,112
18.44167,112
18.45000,111
18.45833,111
18.46667,111
18.47500,110
18.48333,109
18.49167,109
18.50000,108
18.50833,108
18.51667,107
18.52500,107
18.53333,106
18.54167,106
18.55000,106
18.55833,106
18.56667,105
18.57500,105
18.58333,105
18.59167,104
18.60000,103
18.60833,102
18.61667,102
18.62500,101
18.63333,101
18.64167,100
18.65000,100
18.65833,100
18.66667,99
18.67500,99
18.68333,99
18.69167,99
18.70000,98
18.70833,98
18.71667,97
18.72500,97
18.73333,96
18.74167,96
18.75000,95
18.75833,95
18.76667,94
18.77500,94
18.78333,93
18.79167,93
18.80000,92
18.80833,92
18.81667,91
18.82500,91
18.83333,90
18.84167,90
18.85000,89
18.85833,89
18.86667,89
18.87500,89
18.88333,89
18.89167,88
18.90000,88
18.90833,88
18.91667,87
18.92500,87
18.93333,87
18.94167,86
18.95000,86
18.95833,85
18.96667,85
18.97500,85
18.98333,85
18.99167,85
19.00000,85
19.00833,85
19.01667,85
19.02500,85
19.03333,84
19.04167,84
19.05000,84
19.05833,83
19.06667,84
19.07500,84
19.08333,84
19.09167,84
19.10000,84
19.10833,84
19.11667,84
19.12500,84
19.13333,84
19.14167,84
19.15000,83
19.15833,83
19.16667,83
19.17500,83
19.18333,83
19.19167,82
19.20000,82
19.20833,82
19.21667,82
19.22500,82
19.23333,82
19.24167,81
19.25000,81
19.25833,80
19.26667,80
19.27500,80
19.28333,79
19.29167,79
19.30000,79
19.30833,79
19.31667,79
19.32500,79
19.33333,79
19.34167,79
19.35000,78
19.35833,77
19.36667,77
19.37500,76
19.38333,76
19.39167,76
19.40000,76
19.40833,75
19.41667,75
19.42500,75
19.43333,75
19.44167,75
19.45000,74
19.45833,73
19.46667,72
19.47500,72
19.48333,71
19.49167,70
19.50000,70
19.50833,69
19.51667,69
19.52500,69
19.53333,68
19.54167,68
19.55000,67
19.55833,66
19.56667,65
19.57500,65
19.58333,64
19.59167,63
19.60000,63
19.60833,62
19.61667,62
19.62500,62
19.63333,61
19.64167,61
19.65000,61
19.65833,61
19.66667,60
19.67500,60
19.68333,59
19.69167,59
19.70000,58
19.70833,57
19.71667,57
19.72500,56
19.73333,56
19.74167,56
19.75000,56
19.75833,55
19.76667,55
19.77500,54
19.78333,54
19.79167,54
19.80000,54
19.80833,53
19.81667,53
19.82500,52
19.83333,51
19.84167,51
19.85000,50
19.85833,50
19.86667,50
19.87500,50
19.88333,50
19.89167,50
19.90000,50
19.90833,50
19.91667,50
19.92500,50
19.93333,49
19.94167,49
19.95000,49
19.95833,49
19.96667,48
19.97500,48
19.98333,48
19.99167,48
20.00000,48
20.00833,47
20.01667,47
20.02500,47
20.03333,47
20.04167,47
20.05000,47
20.05833,47
20.06667,47
20.07500,47
20.08333,46
20.09167,46
20.10000,46
20.10833,46
20.11667,45
20.12500,45
20.13333,45
20.14167,45
20.15000,46
20.15833,46
20.16667,46
20.17500,46
20.18333,46
20.19167,46
20.20000,45
20.20833,45
20.21667,44
20.22500,44
20.23333,44
20.24167,43
20.25000,43
20.25833,43
20.26667,43
20.27500,43
20.28333,42
20.29167,42
20.30000,42
20.30833,42
20.31667,42
20.32500,42
20.33333,42
20.34167,42
20.35000,42
20.35833,43
20.36667,43
20.37500,43
20.38333,43
20.39167,43
20.40000,44
20.40833,44
20.41667,44
20.42500,45
20.43333,45
20.44167,45
20.45000,45
20.45833,46
20.46667,47
20.47500,48
20.48333,48
20.49167,49
20.50000,50
20.50833,51
20.51667,52
20.52500,53
20.53333,55
20.54167,57
20.55000,59
20.55833,61
20.56667,62
20.57500,64
20.58333,67
20.59167,69
20.60000,72
20.60833,74
20.61667,77
20.62500,80
20.63333,83
20.64167,86
20.65000,89
20.65833,92
20.66667,96
20.67500,99
20.68333,102
20.69167,105
20.70000,109
20.70833,112
20.71667,115
20.72500,118
20.73333,121
20.74167,124
20.75000,128
20.75833,131
20.76667,134
20.77500,137
20.78333,140
20.79167,143
20.80000,146
20.80833,148
20.81667,151
20.82500,153
20.83333,155
20.84167,157
20.85000,159
20.85833,160
20.86667,162
20.87500,163
20.88333,165
20.89167,166
20.90000,168
20.90833,169
20.91667,170
20.92500,171
20.93333,172
20.94167,172
20.95000,172
20.95833,173
20.96667,173
20.97500,173
20.98333,174
20.99167,174
21.00000,174
21.00833,174
21.01667,173
21.02500,173
21.03333,172
21.04167,171
21.05000,171
21.05833,170
21.06667,169
21.07500,168
21.08333,167
21.09167,166
21.10000,165
21.10833,164
21.11667,162
21.12500,161
21.13333,160
21.14167,158
21.15000,157
21.15833,155
21.16667,154
21.17500,153
21.18333,152
21.19167,150
21.20000,149
21.20833,147
21.21667,146
21.22500,145
21.23333,144
21.24167,143
21.25000,141
21.25833,140
21.26667,140
21.27500,139
21.28333,139
21.29167,139
21.30000,140
21.30833,140
21.31667,141
21.32500,143
21.33333,145
21.34167,147
21.35000,150
21.35833,153
21.36667,158
21.37500,163
21.38333,169
21.39167,176
21.40000,183
21.40833,192
21.41667,201
21.42500,212
21.43333,225
21.44167,238
21.45000,252
21.45833,268
21.46667,286
21.47500,305
21.48333,325
21.49167,347
21.50000,370
21.50833,394
21.51667,420
21.52500,448
21.53333,477
21.54167,508
21.55000,539
21.55833,573
21.56667,607
21.57500,642
21.58333,678
21.59167,716
21.60000,754
21.60833,793
21.61667,832
21.62500,872
21.63333,912
21.64167,952
21.65000,993
21.65833,1032
21.66667,1072
21.67500,1111
21.68333,1149
21.69167,1187
21.70000,1223
21.70833,1260
21.71667,1295
21.72500,1330
21.73333,1363
21.74167,1395
21.75000,1426
21.75833,1455
21.76667,1484
21.77500,1510
21.78333,1536
21.79167,1561
21.80000,1583
21.80833,1605
21.81667,1625
21.82500,1643
21.83333,1660
21.84167,1676
21.85000,1690
21.85833,1703
21.86667,1713
21.87500,1723
21.88333,1730
21.89167,1737
21.90000,1742
21.90833,1746
21.91667,1748
21.92500,1748
21.93333,1747
21.94167,1744
21.95000,1739
21.95833,1733
21.96667,1725
21.97500,1716
21.98333,1705
21.99167,1692
22.00000,1678
22.00833,1662
22.01667,1644
22.02500,1624
22.03333,1603
22.04167,1581
22.05000,1557
22.05833,1531
22.06667,1505
22.07500,1476
22.08333,1447
22.09167,1416
22.10000,1385
22.10833,1352
22.11667,1319
22.12500,1284
22.13333,1249
22.14167,1214
22.15000,1178
22.15833,1141
22.16667,1104
22.17500,1067
22.18333,1030
22.19167,993
22.20000,956
22.20833,919
22.21667,883
22.22500,847
22.23333,811
22.24167,776
22.25000,742
22.25833,709
22.26667,676
22.27500,644
22.28333,613
22.29167,583
22.30000,554
22.30833,526
22.31667,499
22.32500,473
22.33333,449
22.34167,425
22.35000,402
22.35833,380
22.36667,360
22.37500,340
22.38333,322
22.39167,304
22.40000,288
22.40833,272
22.41667,257
22.42500,243
22.43333,230
22.44167,218
22.45000,206
22.45833,196
22.46667,186
22.47500,177
22.48333,169
22.49167,161
22.50000,153
22.50833,147
22.51667,141
22.52500,135
22.53333,130
22.54167,125
22.55000,120
22.55833,116
22.56667,112
22.57500,109
22.58333,106
22.59167,104
22.60000,101
22.60833,99
22.61667,97
22.62500,95
22.63333,94
22.64167,92
22.65000,91
22.65833,90
22.66667,89
22.67500,89
22.68333,88
22.69167,88
22.70000,89
22.70833,89
22.71667,89
22.72500,89
22.73333,89
22.74167,90
22.75000,90
22.75833,90
22.76667,91
22.77500,91
22.78333,91
22.79167,92
22.80000,93
22.80833,94
22.81667,95
22.82500,95
22.83333,96
22.84167,97
22.85000,98
22.85833,99
22.86667,99
22.87500,100
22.88333,101
22.89167,102
22.90000,103
22.90833,104
22.91667,104
22.92500,105
22.93333,106
22.94167,106
22.95000,106
22.95833,107
22.96667,107
22.97500,107
22.98333,107
22.99167,107
23.00000,107
23.00833,107
23.01667,107
23.02500,107
23.03333,107
23.04167,107
23.05000,107
23.05833,106
23.06667,106
23.07500,106
23.08333,106
23.09167,106
23.10000,105
23.10833,105
23.11667,105
23.12500,104
23.13333,103
23.14167,102
23.15000,102
23.15833,101
23.16667,100
23.17500,100
23.18333,99
23.19167,98
23.20000,97
23.20833,96
23.21667,95
23.22500,94
23.23333,92
23.24167,91
23.25000,90
23.25833,88
23.26667,87
23.27500,86
23.28333,84
23.29167,83
23.30000,81
23.30833,79
23.31667,77
23.32500,75
23.33333,74
23.34167,72
23.35000,71
23.35833,69
23.36667,67
23.37500,65
23.38333,64
23.39167,62
23.40000,61
23.40833,60
23.41667,58
23.42500,56
23.43333,55
23.44167,53
23.45000,51
23.45833,49
23.46667,48
23.47500,46
23.48333,45
23.49167,43
23.50000,42
23.50833,41
23.51667,40
23.52500,39
23.53333,38
23.54167,37
23.55000,36
23.55833,35
23.56667,34
23.57500,33
23.58333,32
23.59167,31
23.60000,31
23.60833,30
23.61667,30
23.62500,29
23.63333,29
23.64167,28
23.65000,27
23.65833,27
23.66667,27
23.67500,27
23.68333,26
23.69167,26
23.70000,25
23.70833,25
23.71667,24
23.72500,24
23.73333,24
23.74167,24
23.75000,24
23.75833,24
23.76667,23
23.77500,23
23.78333,22
23.79167,22
23.80000,22
23.80833,21
23.81667,21
23.82500,21
23.83333,20
23.84167,20
23.85000,20
23.85833,21
23.86667,21
23.87500,21
23.88333,21
23.89167,21
23.90000,21
23.90833,21
23.91667,21
23.92500,20
23.93333,20
23.94167,20
23.95000,20
23.95833,19
23.96667,18
23.97500,18
23.98333,18
23.99167,18
24.00000,18
24.00833,18
24.01667,18
24.02500,19
24.03333,19
24.04167,19
24.05000,19
24.05833,18
24.06667,18
24.07500,18
24.08333,18
24.09167,18
24.10000,18
24.10833,18
24.11667,18
24.12500,19
24.13333,18
24.14167,18
24.15000,19
24.15833,18
24.16667,18
24.17500,19
24.18333,19
24.19167,19
24.20000,18
24.20833,18
24.21667,18
24.22500,18
24.23333,19
24.24167,20
24.25000,20
24.25833,21
24.26667,21
24.27500,22
24.28333,23
24.29167,23
24.30000,24
24.30833,25
24.31667,26
24.32500,28
24.33333,29
24.34167,31
24.35000,33
24.35833,36
24.36667,39
24.37500,43
24.38333,47
24.39167,51
24.40000,57
24.40833,63
24.41667,69
24.42500,77
24.43333,85
24.44167,95
24.45000,105
24.45833,116
24.46667,129
24.47500,143
24.48333,159
24.49167,176
24.50000,194
24.50833,215
24.51667,237
24.52500,261
24.53333,287
24.54167,315
24.55000,345
24.55833,377
24.56667,411
24.57500,447
24.58333,486
24.59167,527
24.60000,571
24.60833,617
24.61667,666
24.62500,716
24.63333,769
24.64167,824
24.65000,881
24.65833,940
24.66667,1001
24.67500,1064
24.68333,1129
24.69167,1195
24.70000,1263
24.70833,1332
24.71667,1402
24.72500,1473
24.73333,1546
24.74167,1618
24.75000,1691
24.75833,1764
24.76667,1837
24.77500,1910
24.78333,1983
24.79167,2055
24.80000,2127
24.80833,2198
24.81667,2268
24.82500,2337
24.83333,2404
24.84167,2470
24.85000,2535
24.85833,2598
24.86667,2660
24.87500,2719
24.88333,2777
24.89167,2833
24.90000,2887
24.90833,2938
24.91667,2988
24.92500,3036
24.93333,3081
24.94167,3124
24.95000,3165
24.95833,3204
24.96667,3240
24.97500,3275
24.98333,3307
24.99167,3337
25.00000,3365
25.00833,3390
25.01667,3413
25.02500,3434
25.03333,3452
25.04167,3468
25.05000,3480
25.05833,3490
25.06667,3498
25.07500,3503
25.08333,3505
25.09167,3505
25.10000,3502
25.10833,3496
25.11667,3488
25.12500,3476
25.13333,3462
25.14167,3445
25.15000,3425
25.15833,3402
25.16667,3376
25.17500,3347
25.18333,3315
25.19167,3280
25.20000,3242
25.20833,3202
25.21667,3159
25.22500,3114
25.23333,3066
25.24167,3015
25.25000,2962
25.25833,2907
25.26667,2850
25.27500,2791
25.28333,2730
25.29167,2668
25.30000,2603
25.30833,2538
25.31667,2472
25.32500,2404
25.33333,2336
25.34167,2267
25.35000,2197
25.35833,2127
25.36667,2058
25.37500,1988
25.38333,1919
25.39167,1849
25.40000,1780
25.40833,1712
25.41667,1645
25.42500,1578
25.43333,1513
25.44167,1449
25.45000,1386
25.45833,1324
25.46667,1264
25.47500,1205
25.48333,1147
25.49167,1092
25.50000,1038
25.50833,986
25.51667,936
25.52500,887
25.53333,841
25.54167,796
25.55000,753
25.55833,712
25.56667,673
25.57500,635
25.58333,599
25.59167,565
25.60000,533
25.60833,502
25.61667,473
25.62500,445
25.63333,419
25.64167,394
25.65000,370
25.65833,347
25.66667,326
25.67500,306
25.68333,288
25.69167,271
25.70000,255
25.70833,240
25.71667,226
25.72500,212
25.73333,199
25.74167,188
25.75000,177
25.75833,167
25.76667,158
25.77500,149
25.78333,141
25.79167,134
25.80000,127
25.80833,121
25.81667,115
25.82500,109
25.83333,103
25.84167,99
25.85000,94
25.85833,90
25.86667,86
25.87500,82
25.88333,78
25.89167,76
25.90000,74
25.90833,71
25.91667,69
25.92500,66
25.93333,64
25.94167,62
25.95000,60
25.95833,58
25.96667,56
25.97500,55
25.98333,53
25.99167,52
26.00000,51
26.00833,50
26.01667,49
26.02500,47
26.03333,46
26.04167,45
26.05000,45
26.05833,44
26.06667,44
26.07500,43
26.08333,43
26.09167,42
26.10000,42
26.10833,41
26.11667,41
26.12500,41
26.13333,40
26.14167,40
26.15000,40
26.15833,39
26.16667,38
26.17500,38
26.18333,37
26.19167,37
26.20000,36
26.20833,35
26.21667,35
26.22500,34
26.23333,34
26.24167,34
26.25000,34
26.25833,34
26.26667,34
26.27500,34
26.28333,33
26.29167,33
26.30000,33
26.30833,33
26.31667,32
26.32500,32
26.33333,32
26.34167,32
26.35000,31
26.35833,31
26.36667,31
26.37500,31
26.38333,31
26.39167,31
26.40000,31
26.40833,31
26.41667,31
26.42500,31
26.43333,31
26.44167,30
26.45000,30
26.45833,30
26.46667,30
26.47500,30
26.48333,30
26.49167,30
26.50000,30
26.50833,30
26.51667,29
26.52500,29
26.53333,29
26.54167,29
26.55000,29
26.55833,28
26.56667,28
26.57500,28
26.58333,28
26.59167,28
26.60000,28
26.60833,28
26.61667,27
26.62500,27
26.63333,27
26.64167,27
26.65000,27
26.65833,27
26.66667,27
26.67500,27
26.68333,26
26.69167,26
26.70000,27
26.70833,27
26.71667,27
26.72500,27
26.73333,27
26.74167,27
26.75000,26
26.75833,27
26.76667,26
26.77500,26
26.78333,26
26.79167,26
26.80000,26
26.80833,26
26.81667,26
26.82500,26
26.83333,26
26.84167,25
26.85000,25
26.85833,25
26.86667,25
26.87500,25
26.88333,25
26.89167,25
26.90000,25
26.90833,25
26.91667,25
26.92500,25
26.93333,24
26.94167,24
26.95000,24
26.95833,24
26.96667,24
26.97500,24
26.98333,24
26.99167,24
27.00000,24
27.00833,24
27.01667,24
27.02500,24
27.03333,24
27.04167,23
27.05000,23
27.05833,22
27.06667,22
27.07500,22
27.08333,22
27.09167,22
27.10000,22
27.10833,21
27.11667,21
27.12500,20
27.13333,20
27.14167,19
27.15000,19
27.15833,18
27.16667,18
27.17500,17
27.18333,17
27.19167,17
27.20000,16
27.20833,15
27.21667,14
27.22500,14
27.23333,13
27.24167,13
27.25000,12
27.25833,11
27.26667,10
27.27500,9
27.28333,9
27.29167,7
27.30000,6
27.30833,5
27.31667,4
27.32500,3
27.33333,2
27.34167,0
27.35000,-1
27.35833,-3
27.36667,-4
27.37500,-6
27.38333,-7
27.39167,-8
27.40000,-10
27.40833,-11
27.41667,-13
27.42500,-15
27.43333,-17
27.44167,-18
27.45000,-20
27.45833,-22
27.46667,-24
27.47500,-26
27.48333,-27
27.49167,-29
27.50000,-32
27.50833,-34
27.51667,-36
27.52500,-38
27.53333,-39
27.54167,-41
27.55000,-42
27.55833,-44
27.56667,-46
27.57500,-48
27.58333,-50
27.59167,-52
27.60000,-54
27.60833,-56
27.61667,-58
27.62500,-60
27.63333,-62
27.64167,-64
27.65000,-66
27.65833,-68
27.66667,-70
27.67500,-72
27.68333,-74
27.69167,-75
27.70000,-77
27.70833,-78
27.71667,-80
27.72500,-81
27.73333,-83
27.74167,-84
27.75000,-86
27.75833,-87
27.76667,-88
27.77500,-89
27.78333,-90
27.79167,-91
27.80000,-93
27.80833,-94
27.81667,-95
27.82500,-96
27.83333,-96
27.84167,-97
27.85000,-98
27.85833,-98
27.86667,-98
27.87500,-99
27.88333,-99
27.89167,-99
27.90000,-99
27.90833,-99
27.91667,-98
27.92500,-98
27.93333,-98
27.94167,-98
27.95000,-98
27.95833,-97
27.96667,-97
27.97500,-96
27.98333,-95
27.99167,-94
28.00000,-93
28.00833,-92
28.01667,-91
28.02500,-90
28.03333,-89
28.04167,-88
28.05000,-86
28.05833,-85
28.06667,-83
28.07500,-81
28.08333,-80
28.09167,-78
28.10000,-77
28.10833,-76
28.11667,-74
28.12500,-72
28.13333,-71
28.14167,-69
28.15000,-68
28.15833,-66
28.16667,-64
28.17500,-63
28.18333,-61
28.19167,-59
28.20000,-57
28.20833,-56
28.21667,-54
28.22500,-52
28.23333,-50
28.24167,-48
28.25000,-46
28.25833,-45
28.26667,-43
28.27500,-41
28.28333,-39
28.29167,-38
28.30000,-36
28.30833,-35
28.31667,-33
28.32500,-32
28.33333,-31
28.34167,-30
28.35000,-28
28.35833,-27
28.36667,-25
28.37500,-23
28.38333,-21
28.39167,-20
28.40000,-18
28.40833,-17
28.41667,-16
28.42500,-15
28.43333,-14
28.44167,-13
28.45000,-12
28.45833,-12
28.46667,-11
28.47500,-10
28.48333,-9
28.49167,-8
28.50000,-7
28.50833,-6
28.51667,-5
28.52500,-4
28.53333,-3
28.54167,-3
28.55000,-2
28.55833,-1
28.56667,-0
28.57500,0
28.58333,1
28.59167,1
28.60000,2
28.60833,2
28.61667,3
28.62500,3
28.63333,4
28.64167,5
28.65000,5
28.65833,6
28.66667,6
28.67500,7
28.68333,7
28.69167,8
28.70000,9
28.70833,9
28.71667,10
28.72500,10
28.73333,10
28.74167,11
28.75000,11
28.75833,12
28.76667,12
28.77500,13
28.78333,13
28.79167,13
28.80000,14
28.80833,14
28.81667,15
28.82500,16
28.83333,16
28.84167,17
28.85000,17
28.85833,18
28.86667,18
28.87500,19
28.88333,19
28.89167,20
28.90000,21
28.90833,21
28.91667,21
28.92500,22
28.93333,22
28.94167,22
28.95000,22
28.95833,22
28.96667,22
28.97500,22
28.98333,22
28.99167,23
29.00000,23
29.00833,23
29.01667,23
29.02500,23
29.03333,23
29.04167,23
29.05000,23
29.05833,23
29.06667,23
29.07500,23
29.08333,23
29.09167,23
29.10000,22
29.10833,22
29.11667,22
29.12500,22
29.13333,22
29.14167,22
29.15000,22
29.15833,21
29.16667,21
29.17500,20
29.18333,20
29.19167,20
29.20000,20
29.20833,19
29.21667,19
29.22500,18
29.23333,18
29.24167,18
29.25000,17
29.25833,16
29.26667,16
29.27500,15
29.28333,14
29.29167,14
29.30000,13
29.30833,13
29.31667,12
29.32500,12
29.33333,11
29.34167,10
29.35000,10
29.35833,9
29.36667,8
29.37500,8
29.38333,7
29.39167,6
29.40000,5
29.40833,4
29.41667,4
29.42500,3
29.43333,2
29.44167,2
29.45000,1
29.45833,1
29.46667,0
29.47500,-0
29.48333,-1
29.49167,-2
29.50000,-2
29.50833,-3
29.51667,-3
29.52500,-4
29.53333,-5
29.54167,-5
29.55000,-6
29.55833,-6
29.56667,-7
29.57500,-7
29.58333,-8
29.59167,-9
29.60000,-9
29.60833,-10
29.61667,-10
29.62500,-11
29.63333,-12
29.64167,-12
29.65000,-13
29.65833,-13
29.66667,-13
29.67500,-13
29.68333,-14
29.69167,-14
29.70000,-14
29.70833,-14
29.71667,-14
29.72500,-15
29.73333,-15
29.74167,-15
29.75000,-15
29.75833,-15
29.76667,-15
29.77500,-15
29.78333,-15
29.79167,-15
29.80000,-16
29.80833,-16
29.81667,-16
29.82500,-17
29.83333,-17
29.84167,-17
29.85000,-17
29.85833,-18
29.86667,-19
29.87500,-19
29.88333,-19
29.89167,-20
29.90000,-20
29.90833,-21
29.91667,-21
29.92500,-21
29.93333,-22
29.94167,-23
29.95000,-24
29.95833,-25
29.96667,-26
29.97500,-26
29.98333,-27
29.99167,-28
30.00000,-30
30.00833,-31
30.01667,-32
30.02500,-33
30.03333,-35
30.04167,-36
30.05000,-38
30.05833,-39
30.06667,-41
30.07500,-43
30.08333,-45
30.09167,-47
30.10000,-49
30.10833,-51
30.11667,-53
30.12500,-56
30.13333,-58
30.14167,-61
30.15000,-63
30.15833,-66
30.16667,-69
30.17500,-72
30.18333,-75
30.19167,-77
30.20000,-80
30.20833,-83
30.21667,-86
30.22500,-90
30.23333,-93
30.24167,-96
30.25000,-100
30.25833,-104
30.26667,-107
30.27500,-111
30.28333,-115
30.29167,-118
30.30000,-122
30.30833,-126
30.31667,-130
30.32500,-133
30.33333,-137
30.34167,-140
30.35000,-144
30.35833,-148
30.36667,-151
30.37500,-155
30.38333,-159
30.39167,-162
30.40000,-166
30.40833,-169
30.41667,-173
30.42500,-176
30.43333,-180
30.44167,-183
30.45000,-187
30.45833,-190
30.46667,-193
30.47500,-196
30.48333,-198
30.49167,-201
30.50000,-204
30.50833,-207
30.51667,-210
30.52500,-212
30.53333,-215
30.54167,-218
30.55000,-220
30.55833,-222
30.56667,-224
30.57500,-225
30.58333,-227
30.59167,-228
30.60000,-230
30.60833,-231
30.61667,-232
30.62500,-233
30.63333,-234
30.64167,-234
30.65000,-235
30.65833,-235
30.66667,-235
30.67500,-236
30.68333,-236
30.69167,-235
30.70000,-235
30.70833,-234
30.71667,-233
30.72500,-232
30.73333,-231
30.74167,-230
30.75000,-229
30.75833,-228
30.76667,-226
30.77500,-224
30.78333,-222
30.79167,-220
30.80000,-218
30.80833,-216
30.81667,-214
30.82500,-212
30.83333,-209
30.84167,-207
30.85000,-204
30.85833,-201
30.86667,-198
30.87500,-195
30.88333,-192
30.89167,-189
30.90000,-185
30.90833,-182
30.91667,-178
30.92500,-175
30.93333,-171
30.94167,-167
30.95000,-163
30.95833,-160
30.96667,-156
30.97500,-152
30.98333,-148
30.99167,-144
31.00000,-140
31.00833,-137
31.01667,-133
31.02500,-129
31.03333,-125
31.04167,-121
31.05000,-117
31.05833,-113
31.06667,-110
31.07500,-106
31.08333,-103
31.09167,-99
31.10000,-96
31.10833,-92
31.11667,-89
31.12500,-85
31.13333,-82
31.14167,-78
31.15000,-75
31.15833,-72
31.16667,-68
31.17500,-65
31.18333,-63
31.19167,-60
31.20000,-58
31.20833,-55
31.21667,-52
31.22500,-50
31.23333,-47
31.24167,-45
31.25000,-42
31.25833,-40
31.26667,-38
31.27500,-36
31.28333,-34
31.29167,-32
31.30000,-30
31.30833,-28
31.31667,-26
31.32500,-25
31.33333,-23
31.34167,-22
31.35000,-20
31.35833,-19
31.36667,-17
31.37500,-16
31.38333,-14
31.39167,-13
31.40000,-12
31.40833,-11
31.41667,-9
31.42500,-8
31.43333,-7
31.44167,-6
31.45000,-4
31.45833,-3
31.46667,-2
31.47500,-1
31.48333,0
31.49167,1
31.50000,3
31.50833,4
31.51667,5
31.52500,6
31.53333,7
31.54167,9
31.55000,11
31.55833,12
31.56667,14
31.57500,15
31.58333,17
31.59167,18
31.60000,20
31.60833,22
31.61667,25
31.62500,27
31.63333,30
31.64167,32
31.65000,35
31.65833,37
31.66667,40
31.67500,42
31.68333,45
31.69167,48
31.70000,51
31.70833,54
31.71667,58
31.72500,61
31.73333,65
31.74167,69
31.75000,73
31.75833,77
31.76667,82
31.77500,86
31.78333,91
31.79167,96
31.80000,101
31.80833,107
31.81667,112
31.82500,118
31.83333,124
31.84167,130
31.85000,135
31.85833,141
31.86667,147
31.87500,154
31.88333,160
31.89167,166
31.90000,173
31.90833,180
31.91667,186
31.92500,193
31.93333,199
31.94167,206
31.95000,212
31.95833,219
31.96667,226
31.97500,233
31.98333,239
31.99167,246
32.00000,252
32.00833,258
32.01667,265
32.02500,271
32.03333,277
32.04167,283
32.05000,289
32.05833,295
32.06667,301
32.07500,306
32.08333,312
32.09167,318
32.10000,323
32.10833,328
32.11667,334
32.12500,339
32.13333,344
32.14167,349
32.15000,353
32.15833,358
32.16667,362
32.17500,366
32.18333,370
32.19167,374
32.20000,377
32.20833,381
32.21667,384
32.22500,388
32.23333,390
32.24167,393
32.25000,396
32.25833,398
32.26667,400
32.27500,403
32.28333,405
32.29167,406
32.30000,408
32.30833,410
32.31667,411
32.32500,412
32.33333,413
32.34167,413
32.35000,413
32.35833,414
32.36667,414
32.37500,414
32.38333,414
32.39167,414
32.40000,413
32.40833,412
32.41667,410
32.42500,409
32.43333,407
32.44167,405
32.45000,403
32.45833,400
32.46667,398
32.47500,395
32.48333,392
32.49167,389
32.50000,386
32.50833,383
32.51667,379
32.52500,375
32.53333,370
32.54167,365
32.55000,361
32.55833,356
32.56667,352
32.57500,347
32.58333,342
32.59167,336
32.60000,331
32.60833,325
32.61667,319
32.62500,313
32.63333,307
32.64167,301
32.65000,295
32.65833,288
32.66667,282
32.67500,275
32.68333,269
32.69167,263
32.70000,256
32.70833,250
32.71667,244
32.72500,238
32.73333,231
32.74167,225
32.75000,218
32.75833,212
32.76667,205
32.77500,199
32.78333,193
32.79167,187
32.80000,180
32.80833,174
32.81667,168
32.82500,162
32.83333,157
32.84167,151
32.85000,146
32.85833,140
32.86667,135
32.87500,130
32.88333,125
32.89167,120
32.90000,116
32.90833,111
32.91667,107
32.92500,103
32.93333,98
32.94167,94
32.95000,90
32.95833,86
32.96667,83
32.97500,79
32.98333,76
32.99167,73
33.00000,69
33.00833,66
33.01667,63
33.02500,60
33.03333,58
33.04167,55
33.05000,53
33.05833,51
33.06667,49
33.07500,47
33.08333,44
33.09167,42
33.10000,40
33.10833,38
33.11667,37
33.12500,35
33.13333,33
33.14167,32
33.15000,31
33.15833,30
33.16667,29
33.17500,27
33.18333,26
33.19167,25
33.20000,24
33.20833,23
33.21667,22
33.22500,21
33.23333,20
33.24167,19
33.25000,19
33.25833,18
33.26667,18
33.27500,18
33.28333,17
33.29167,17
33.30000,16
33.30833,15
33.31667,15
33.32500,14
33.33333,14
33.34167,13
33.35000,13
33.35833,12
33.36667,11
33.37500,10
33.38333,10
33.39167,9
33.40000,9
33.40833,9
33.41667,10
33.42500,9
33.43333,9
33.44167,9
33.45000,9
33.45833,8
33.46667,8
33.47500,8
33.48333,8
33.49167,8
33.50000,8
33.50833,8
33.51667,7
33.52500,7
33.53333,7
33.54167,6
33.55000,6
33.55833,6
33.56667,6
33.57500,6
33.58333,6
33.59167,6
33.60000,6
33.60833,5
33.61667,6
33.62500,6
33.63333,5
33.64167,5
33.65000,5
33.65833,5
33.66667,5
33.67500,5
33.68333,4
33.69167,4
33.70000,4
33.70833,4
33.71667,5
33.72500,5
33.73333,4
33.74167,4
33.75000,5
33.75833,5
33.76667,5
33.77500,5
33.78333,5
33.79167,5
33.80000,5
33.80833,5
33.81667,5
33.82500,5
33.83333,5
33.84167,5
33.85000,5
33.85833,5
33.86667,5
33.87500,5
33.88333,5
33.89167,4
33.90000,5
33.90833,5
33.91667,5
33.92500,5
33.93333,5
33.94167,5
33.95000,5
33.95833,5
33.96667,5
33.97500,5
33.98333,5
33.99167,5
34.00000,5
34.00833,6
34.01667,6
34.02500,6
34.03333,6
34.04167,6
34.05000,6
34.05833,6
34.06667,6
34.07500,7
34.08333,7
34.09167,7
34.10000,6
34.10833,7
34.11667,7
34.12500,7
34.13333,7
34.14167,7
34.15000,7
34.15833,7
34.16667,7
34.17500,8
34.18333,8
34.19167,8
34.20000,8
34.20833,8
34.21667,8
34.22500,8
34.23333,8
34.24167,8
34.25000,9
34.25833,9
34.26667,9
34.27500,8
34.28333,8
34.29167,8
34.30000,9
34.30833,9
34.31667,10
34.32500,10
34.33333,10
34.34167,10
34.35000,10
34.35833,10
34.36667,11
34.37500,11
34.38333,11
34.39167,10
34.40000,10
34.40833,10
34.41667,10
34.42500,10
34.43333,10
34.44167,10
34.45000,10
34.45833,10
34.46667,10
34.47500,10
34.48333,10
34.49167,10
34.50000,9
34.50833,9
34.51667,10
34.52500,10
34.53333,10
34.54167,10
34.55000,10
34.55833,10
34.56667,10
34.57500,10
34.58333,10
34.59167,10
34.60000,10
34.60833,10
34.61667,10
34.62500,10
34.63333,10
34.64167,10
34.65000,10
34.65833,10
34.66667,10
34.67500,9
34.68333,9
34.69167,9
34.70000,9
34.70833,9
34.71667,9
34.72500,9
34.73333,9
34.74167,9
34.75000,9
34.75833,9
34.76667,10
34.77500,10
34.78333,10
34.79167,10
34.80000,9
34.80833,9
34.81667,9
34.82500,9
34.83333,10
34.84167,9
34.85000,9
34.85833,9
34.86667,9
34.87500,9
34.88333,10
34.89167,10
34.90000,10
34.90833,10
34.91667,10
34.92500,10
34.93333,9
34.94167,9
34.95000,8
34.95833,9
34.96667,9
34.97500,9
34.98333,9
34.99167,9
35.00000,9
35.00833,8
35.01667,9
35.02500,9
35.03333,9
35.04167,9
35.05000,9
35.05833,9
35.06667,10
35.07500,10
35.08333,9
35.09167,9
35.10000,8
35.10833,8
35.11667,8
35.12500,8
35.13333,8
35.14167,8
35.15000,8
35.15833,8
35.16667,8
35.17500,8
35.18333,8
35.19167,8
35.20000,8
35.20833,8
35.21667,9
35.22500,9
35.23333,9
35.24167,9
35.25000,8
35.25833,8
35.26667,8
35.27500,9
35.28333,9
35.29167,9
35.30000,9
35.30833,9
35.31667,9
35.32500,9
35.33333,8
35.34167,8
35.35000,8
35.35833,8
35.36667,8
35.37500,9
35.38333,9
35.39167,9
35.40000,9
35.40833,9
35.41667,9
35.42500,9
35.43333,9
35.44167,9
35.45000,9
35.45833,9
35.46667,9
35.47500,9
35.48333,9
35.49167,9
35.50000,9
35.50833,8
35.51667,8
35.52500,8
35.53333,8
35.54167,9
35.55000,9
35.55833,9
35.56667,9
35.57500,9
35.58333,9
35.59167,9
35.60000,9
35.60833,9
35.61667,9
35.62500,9
35.63333,9
35.64167,9
35.65000,9
35.65833,9
35.66667,9
35.67500,8
35.68333,8
35.69167,8
35.70000,8
35.70833,8
35.71667,9
35.72500,9
35.73333,9
35.74167,9
35.75000,9
35.75833,8
35.76667,8
35.77500,8
35.78333,8
35.79167,8
35.80000,9
35.80833,9
35.81667,9
35.82500,9
35.83333,9
35.84167,9
35.85000,8
35.85833,8
35.86667,8
35.87500,9
35.88333,9
35.89167,9
35.90000,9
35.90833,9
35.91667,9
35.92500,9
35.93333,9
35.94167,9
35.95000,9
35.95833,9
35.96667,9
35.97500,9
35.98333,9
35.99167,9
36.00000,8
36.00833,8
36.01667,7
36.02500,7
36.03333,7
36.04167,7
36.05000,7
36.05833,7
36.06667,7
36.07500,7
36.08333,7
36.09167,7
36.10000,7
36.10833,7
36.11667,7
36.12500,8
36.13333,7
36.14167,7
36.15000,7
36.15833,7
36.16667,7
36.17500,7
36.18333,7
36.19167,7
36.20000,7
36.20833,7
36.21667,7
36.22500,7
36.23333,8
36.24167,8
36.25000,8
36.25833,8
36.26667,8
36.27500,8
36.28333,8
36.29167,8
36.30000,8
36.30833,8
36.31667,8
36.32500,8
36.33333,8
36.34167,8
36.35000,9
36.35833,9
36.36667,9
36.37500,9
36.38333,9
36.39167,9
36.40000,9
36.40833,8
36.41667,8
36.42500,8
36.43333,8
36.44167,8
36.45000,8
36.45833,8
36.46667,9
36.47500,9
36.48333,9
36.49167,9
36.50000,9
36.50833,8
36.51667,9
36.52500,9
36.53333,9
36.54167,9
36.55000,9
36.55833,9
36.56667,9
36.57500,10
36.58333,10
36.59167,10
36.60000,9
36.60833,9
36.61667,9
36.62500,10
36.63333,10
36.64167,9
36.65000,9
36.65833,9
36.66667,9
36.67500,10
36.68333,10
36.69167,10
36.70000,9
36.70833,9
36.71667,9
36.72500,9
36.73333,9
36.74167,8
36.75000,8
36.75833,9
36.76667,9
36.77500,9
36.78333,9
36.79167,9
36.80000,9
36.80833,9
36.81667,10
36.82500,10
36.83333,10
36.84167,10
36.85000,10
36.85833,11
36.86667,11
36.87500,10
36.88333,10
36.89167,10
36.90000,10
36.90833,10
36.91667,10
36.92500,10
36.93333,10
36.94167,10
36.95000,10
36.95833,10
36.96667,10
36.97500,10
36.98333,10
36.99167,11
37.00000,11
37.00833,11
37.01667,11
37.02500,11
37.03333,11
37.04167,11
37.05000,11
37.05833,11
37.06667,11
37.07500,12
37.08333,12
37.09167,12
37.10000,12
37.10833,12
37.11667,12
37.12500,12
37.13333,12
37.14167,12
37.15000,13
37.15833,13
37.16667,13
37.17500,13
37.18333,12
37.19167,12
37.20000,12
37.20833,12
37.21667,12
37.22500,11
37.23333,11
37.24167,12
37.25000,12
37.25833,12
37.26667,12
37.27500,12
37.28333,12
37.29167,12
37.30000,12
37.30833,12
37.31667,12
37.32500,11
37.33333,11
37.34167,11
37.35000,11
37.35833,11
37.36667,11
37.37500,12
37.38333,12
37.39167,12
37.40000,12
37.40833,12
37.41667,12
37.42500,12
37.43333,12
37.44167,12
37.45000,12
37.45833,12
37.46667,12
37.47500,12
37.48333,12
37.49167,12
37.50000,12
37.50833,12
37.51667,12
37.52500,12
37.53333,12
37.54167,12
37.55000,12
37.55833,12
37.56667,12
37.57500,12
37.58333,12
37.59167,12
37.60000,12
37.60833,12
37.61667,13
37.62500,13
37.63333,13
37.64167,13
37.65000,13
37.65833,13
37.66667,13
37.67500,13
37.68333,13
37.69167,13
37.70000,13
37.70833,14
37.71667,14
37.72500,13
37.73333,13
37.74167,13
37.75000,13
37.75833,13
37.76667,13
37.77500,13
37.78333,13
37.79167,13
37.80000,13
37.80833,13
37.81667,13
37.82500,13
37.83333,13
37.84167,13
37.85000,13
37.85833,13
37.86667,13
37.87500,13
37.88333,14
37.89167,14
37.90000,14
37.90833,14
37.91667,14
37.92500,14
37.93333,14
37.94167,14
37.95000,14
37.95833,13
37.96667,13
37.97500,12
37.98333,12
37.99167,12
38.00000,12
38.00833,12
38.01667,12
38.02500,12
38.03333,12
38.04167,13
38.05000,13
38.05833,13
38.06667,13
38.07500,13
38.08333,12
38.09167,12
38.10000,12
38.10833,12
38.11667,12
38.12500,11
38.13333,12
38.14167,12
38.15000,12
38.15833,12
38.16667,13
38.17500,12
38.18333,12
38.19167,12
38.20000,11
38.20833,11
38.21667,11
38.22500,11
38.23333,11
38.24167,11
38.25000,11
38.25833,11
38.26667,11
38.27500,11
38.28333,11
38.29167,11
38.30000,11
38.30833,11
38.31667,11
38.32500,11
38.33333,11
38.34167,11
38.35000,11
38.35833,11
38.36667,10
38.37500,10
38.38333,10
38.39167,10
38.40000,10
38.40833,10
38.41667,10
38.42500,10
38.43333,10
38.44167,10
38.45000,9
38.45833,9
38.46667,9
38.47500,10
38.48333,10
38.49167,10
38.50000,10
38.50833,9
38.51667,9
38.52500,9
38.53333,9
38.54167,9
38.55000,10
38.55833,10
38.56667,10
38.57500,10
38.58333,9
38.59167,9
38.60000,9
38.60833,9
38.61667,8
38.62500,8
38.63333,8
38.64167,8
38.65000,8
38.65833,7
38.66667,7
38.67500,7
38.68333,7
38.69167,7
38.70000,7
38.70833,7
38.71667,7
38.72500,7
38.73333,7
38.74167,7
38.75000,7
38.75833,7
38.76667,7
38.77500,8
38.78333,8
38.79167,8
38.80000,8
38.80833,8
38.81667,8
38.82500,8
38.83333,8
38.84167,8
38.85000,8
38.85833,8
38.86667,8
38.87500,7
38.88333,7
38.89167,7
38.90000,8
38.90833,8
38.91667,9
38.92500,9
38.93333,8
38.94167,8
38.95000,8
38.95833,7
38.96667,7
38.97500,7
38.98333,7
38.99167,7
39.00000,7
39.00833,7
39.01667,7
39.02500,7
39.03333,7
39.04167,7
39.05000,7
39.05833,7
39.06667,7
39.07500,7
39.08333,7
39.09167,7
39.10000,7
39.10833,7
39.11667,6
39.12500,6
39.13333,6
39.14167,6
39.15000,6
39.15833,6
39.16667,6
39.17500,6
39.18333,6
39.19167,6
39.20000,6
39.20833,6
39.21667,6
39.22500,6
39.23333,5
39.24167,5
39.25000,5
39.25833,6
39.26667,6
39.27500,6
39.28333,6
39.29167,6
39.30000,6
39.30833,6
39.31667,6
39.32500,6
39.33333,5
39.34167,5
39.35000,5
39.35833,5
39.36667,5
39.37500,5
39.38333,5
39.39167,5
39.40000,5
39.40833,5
39.41667,5
39.42500,5
39.43333,5
39.44167,5
39.45000,5
39.45833,5
39.46667,5
39.47500,5
39.48333,5
39.49167,5
39.50000,5
39.50833,5
39.51667,5
39.52500,5
39.53333,5
39.54167,5
39.55000,6
39.55833,6
39.56667,6
39.57500,6
39.58333,6
39.59167,6
39.60000,6
39.60833,6
39.61667,7
39.62500,6
39.63333,6
39.64167,6
39.65000,6
39.65833,6
39.66667,6
39.67500,6
39.68333,6
39.69167,6
39.70000,6
39.70833,6
39.71667,6
39.72500,6
39.73333,6
39.74167,6
39.75000,6
39.75833,5
39.76667,5
39.77500,5
39.78333,6
39.79167,6
39.80000,6
39.80833,6
39.81667,6
39.82500,6
39.83333,6
39.84167,6
39.85000,6
39.85833,5
39.86667,5
39.87500,5
39.88333,4
39.89167,4
39.90000,5
39.90833,5
39.91667,5
39.92500,5
39.93333,5
39.94167,5
39.95000,5
39.95833,5
39.96667,6
39.97500,6
39.98333,6
39.99167,5
40.00000,5
40.00833,5
40.01667,5
40.02500,5
40.03333,5
40.04167,5
40.05000,5
40.05833,5
40.06667,5
40.07500,5
40.08333,5
40.09167,5
40.10000,5
40.10833,5
40.11667,5
40.12500,5
40.13333,5
40.14167,5
40.15000,5
40.15833,5
40.16667,5
40.17500,5
40.18333,5
40.19167,5
40.20000,5
40.20833,4
40.21667,4
40.22500,4
40.23333,4
40.24167,4
40.25000,4
40.25833,4
40.26667,4
40.27500,4
40.28333,4
40.29167,4
40.30000,4
40.30833,4
40.31667,4
40.32500,4
40.33333,5
40.34167,4
40.35000,4
40.35833,4
40.36667,4
40.37500,4
40.38333,4
40.39167,4
40.40000,3
40.40833,3
40.41667,3
40.42500,3
40.43333,3
40.44167,4
40.45000,3
40.45833,3
40.46667,3
40.47500,3
40.48333,3
40.49167,2
40.50000,2
40.50833,2
40.51667,2
40.52500,2
40.53333,3
40.54167,3
40.55000,3
40.55833,3
40.56667,3
40.57500,3
40.58333,3
40.59167,3
40.60000,2
40.60833,2
40.61667,3
40.62500,2
40.63333,2
40.64167,2
40.65000,2
40.65833,2
40.66667,1
40.67500,1
40.68333,1
40.69167,1
40.70000,1
40.70833,2
40.71667,2
40.72500,1
40.73333,1
40.74167,2
40.75000,2
40.75833,2
40.76667,2
40.77500,2
40.78333,2
40.79167,2
40.80000,2
40.80833,1
40.81667,1
40.82500,1
40.83333,2
40.84167,2
40.85000,1
40.85833,1
40.86667,1
40.87500,1
40.88333,1
40.89167,1
40.90000,1
40.90833,1
40.91667,1
40.92500,2
40.93333,2
40.94167,2
40.95000,2
40.95833,2
40.96667,1
40.97500,1
40.98333,1
40.99167,1
41.00000,1
41.00833,1
41.01667,1
41.02500,1
41.03333,1
41.04167,1
41.05000,1
41.05833,1
41.06667,1
41.07500,2
41.08333,2
41.09167,2
41.10000,2
41.10833,2
41.11667,2
41.12500,2
41.13333,2
41.14167,1
41.15000,1
41.15833,1
41.16667,1
41.17500,1
41.18333,1
41.19167,1
41.20000,1
41.20833,0
41.21667,0
41.22500,0
41.23333,0
41.24167,0
41.25000,0
41.25833,0
41.26667,0
41.27500,0
41.28333,0
41.29167,1
41.30000,1
41.30833,1
41.31667,1
41.32500,1
41.33333,1
41.34167,1
41.35000,1
41.35833,1
41.36667,1
41.37500,1
41.38333,1
41.39167,1
41.40000,2
41.40833,2
41.41667,1
41.42500,1
41.43333,2
41.44167,2
41.45000,2
41.45833,2
41.46667,1
41.47500,1
41.48333,1
41.49167,1
41.50000,1
41.50833,1
41.51667,0
41.52500,0
41.53333,1
41.54167,1
41.55000,1
41.55833,2
41.56667,2
41.57500,2
41.58333,2
41.59167,2
41.60000,2
41.60833,1
41.61667,1
41.62500,1
41.63333,1
41.64167,2
41.65000,2
41.65833,2
41.66667,2
41.67500,2
41.68333,2
41.69167,2
41.70000,2
41.70833,2
41.71667,2
41.72500,2
41.73333,2
41.74167,2
41.75000,2
41.75833,2
41.76667,2
41.77500,1
41.78333,2
41.79167,2
41.80000,2
41.80833,2
41.81667,2
41.82500,2
41.83333,2
41.84167,2
41.85000,2
41.85833,3
41.86667,3
41.87500,3
41.88333,3
41.89167,3
41.90000,3
41.90833,3
41.91667,3
41.92500,3
41.93333,3
41.94167,3
41.95000,3
41.95833,3
41.96667,3
41.97500,3
41.98333,3
41.99167,3
42.00000,3
42.00833,3
42.01667,4
42.02500,3
42.03333,4
42.04167,4
42.05000,4
42.05833,4
42.06667,4
42.07500,4
42.08333,4
42.09167,4
42.10000,4
42.10833,4
42.11667,4
42.12500,3
42.13333,3
42.14167,4
42.15000,4
42.15833,3
42.16667,3
42.17500,3
42.18333,3
42.19167,3
42.20000,3
42.20833,4
42.21667,4
42.22500,4
42.23333,4
42.24167,3
42.25000,3
42.25833,4
42.26667,3
42.27500,4
42.28333,4
42.29167,3
42.30000,3
42.30833,3
42.31667,3
42.32500,4
42.33333,4
42.34167,4
42.35000,4
42.35833,4
42.36667,4
42.37500,4
42.38333,4
42.39167,4
42.40000,4
42.40833,4
42.41667,4
42.42500,4
42.43333,4
42.44167,4
42.45000,4
42.45833,4
42.46667,4
42.47500,4
42.48333,4
42.49167,3
42.50000,3
42.50833,3
42.51667,3
42.52500,3
42.53333,4
42.54167,4
42.55000,4
42.55833,4
42.56667,4
42.57500,4
42.58333,4
42.59167,4
42.60000,4
42.60833,4
42.61667,5
42.62500,5
42.63333,5
42.64167,5
42.65000,4
42.65833,4
42.66667,4
42.67500,4
42.68333,4
42.69167,4
42.70000,4
42.70833,4
42.71667,3
42.72500,4
42.73333,4
42.74167,4
42.75000,4
42.75833,4
42.76667,4
42.77500,4
42.78333,4
42.79167,4
42.80000,4
42.80833,4
42.81667,4
42.82500,4
42.83333,4
42.84167,4
42.85000,4
42.85833,4
42.86667,5
42.87500,5
42.88333,5
42.89167,5
42.90000,4
42.90833,4
42.91667,4
42.92500,4
42.93333,4
42.94167,3
42.95000,4
42.95833,4
42.96667,4
42.97500,4
42.98333,4
42.99167,4
43.00000,4
43.00833,4
43.01667,4
43.02500,4
43.03333,4
43.04167,4
43.05000,4
43.05833,4
43.06667,4
43.07500,3
43.08333,3
43.09167,3
43.10000,3
43.10833,3
43.11667,3
43.12500,4
43.13333,4
43.14167,4
43.15000,4
43.15833,4
43.16667,4
43.17500,4
43.18333,4
43.19167,4
43.20000,4
43.20833,4
43.21667,4
43.22500,4
43.23333,4
43.24167,4
43.25000,4
43.25833,5
43.26667,4
43.27500,4
43.28333,4
43.29167,4
43.30000,4
43.30833,3
43.31667,3
43.32500,3
43.33333,3
43.34167,4
43.35000,4
43.35833,4
43.36667,4
43.37500,4
43.38333,5
43.39167,5
43.40000,5
43.40833,5
43.41667,5
43.42500,5
43.43333,5
43.44167,5
43.45000,4
43.45833,4
43.46667,4
43.47500,4
43.48333,4
43.49167,4
43.50000,4
43.50833,4
43.51667,4
43.52500,4
43.53333,4
43.54167,4
43.55000,5
43.55833,5
43.56667,4
43.57500,4
43.58333,5
43.59167,5
43.60000,5
43.60833,5
43.61667,5
43.62500,5
43.63333,5
43.64167,6
43.65000,6
43.65833,6
43.66667,5
43.67500,6
43.68333,6
43.69167,6
43.70000,6
43.70833,6
43.71667,6
43.72500,6
43.73333,5
43.74167,5
43.75000,6
43.75833,5
43.76667,5
43.77500,5
43.78333,5
43.79167,5
43.80000,5
43.80833,5
43.81667,5
43.82500,5
43.83333,5
43.84167,5
43.85000,5
43.85833,5
43.86667,5
43.87500,5
43.88333,5
43.89167,5
43.90000,5
43.90833,5
43.91667,5
43.92500,5
43.93333,5
43.94167,5
43.95000,5
43.95833,5
43.96667,5
43.97500,5
43.98333,5
43.99167,5
44.00000,5
44.00833,5
44.01667,6
44.02500,6
44.03333,5
44.04167,5
44.05000,5
44.05833,5
44.06667,5
44.07500,5
44.08333,5
44.09167,5
44.10000,5
44.10833,5
44.11667,4
44.12500,4
44.13333,5
44.14167,5
44.15000,5
44.15833,4
44.16667,4
44.17500,5
44.18333,5
44.19167,5
44.20000,5
44.20833,5
44.21667,5
44.22500,5
44.23333,5
44.24167,5
44.25000,6
44.25833,6
44.26667,6
44.27500,6
44.28333,6
44.29167,5
44.30000,5
44.30833,5
44.31667,5
44.32500,5
44.33333,4
44.34167,4
44.35000,4
44.35833,5
44.36667,5
44.37500,5
44.38333,5
44.39167,5
44.40000,5
44.40833,6
44.41667,6
44.42500,6
44.43333,6
44.44167,6
44.45000,6
44.45833,5
44.46667,5
44.47500,5
44.48333,5
44.49167,5
44.50000,5
44.50833,5
44.51667,5
44.52500,5
44.53333,5
44.54167,5
44.55000,6
44.55833,6
44.56667,6
44.57500,6
44.58333,6
44.59167,6
44.60000,6
44.60833,5
44.61667,5
44.62500,5
44.63333,5
44.64167,4
44.65000,4
44.65833,5
44.66667,5
44.67500,5
44.68333,5
44.69167,5
44.70000,5
44.70833,6
44.71667,6
44.72500,6
44.73333,6
44.74167,6
44.75000,5
44.75833,5
44.76667,5
44.77500,5
44.78333,5
44.79167,5
44.80000,5
44.80833,5
44.81667,5
44.82500,5
44.83333,5
44.84167,5
44.85000,5
44.85833,5
44.86667,5
44.87500,5
44.88333,5
44.89167,4
44.90000,4
44.90833,4
44.91667,4
44.92500,4
44.93333,4
44.94167,4
44.95000,4
44.95833,4
44.96667,5
44.97500,5
44.98333,4
44.99167,4
45.00000,4
45.00833,4
45.01667,4
45.02500,4
45.03333,4
45.04167,4
45.05000,5
45.05833,5
45.06667,6
45.07500,6
45.08333,6
45.09167,6
45.10000,6
45.10833,5
45.11667,5
45.12500,5
45.13333,5
45.14167,5
45.15000,4
45.15833,4
45.16667,4
45.17500,5
45.18333,5
45.19167,5
45.20000,5
45.20833,5
45.21667,5
45.22500,5
45.23333,4
45.24167,4
45.25000,4
45.25833,3
45.26667,4
45.27500,4
45.28333,4
45.29167,4
45.30000,4
45.30833,4
45.31667,4
45.32500,4
45.33333,4
45.34167,3
45.35000,3
45.35833,3
45.36667,4
45.37500,4
45.38333,4
45.39167,4
45.40000,4
45.40833,4
45.41667,4
45.42500,4
45.43333,4
45.44167,4
45.45000,4
45.45833,4
45.46667,4
45.47500,4
45.48333,4
45.49167,4
45.50000,5
45.50833,5
45.51667,5
45.52500,5
45.53333,5
45.54167,5
45.55000,4
45.55833,5
45.56667,5
45.57500,5
45.58333,5
45.59167,5
45.60000,5
45.60833,5
45.61667,5
45.62500,5
45.63333,5
45.64167,5
45.65000,5
45.65833,5
45.66667,5
45.67500,5
45.68333,5
45.69167,4
45.70000,4
45.70833,4
45.71667,4
45.72500,4
45.73333,4
45.74167,4
45.75000,4
45.75833,4
45.76667,4
45.77500,4
45.78333,4
45.79167,5
45.80000,5
45.80833,4
45.81667,4
45.82500,4
45.83333,4
45.84167,4
45.85000,4
45.85833,4
45.86667,4
45.87500,4
45.88333,4
45.89167,4
45.90000,4
45.90833,4
45.91667,4
45.92500,4
45.93333,4
45.94167,4
45.95000,5
45.95833,5
45.96667,5
45.97500,5
45.98333,5
45.99167,5
46.00000,5
46.00833,5
46.01667,5
46.02500,5
46.03333,5
46.04167,5
46.05000,4
46.05833,4
46.06667,4
46.07500,4
46.08333,4
46.09167,4
46.10000,4
46.10833,4
46.11667,4
46.12500,4
46.13333,4
46.14167,4
46.15000,4
46.15833,4
46.16667,4
46.17500,4
46.18333,4
46.19167,4
46.20000,4
46.20833,4
46.21667,5
46.22500,5
46.23333,5
46.24167,5
46.25000,5
46.25833,5
46.26667,5
46.27500,5
46.28333,5
46.29167,5
46.30000,5
46.30833,5
46.31667,5
46.32500,5
46.33333,4
46.34167,4
46.35000,4
46.35833,4
46.36667,4
46.37500,4
46.38333,4
46.39167,4
46.40000,4
46.40833,4
46.41667,4
46.42500,4
46.43333,4
46.44167,4
46.45000,4
46.45833,4
46.46667,4
46.47500,4
46.48333,4
46.49167,4
46.50000,4
46.50833,3
46.51667,3
46.52500,4
46.53333,4
46.54167,4
46.55000,4
46.55833,4
46.56667,4
46.57500,4
46.58333,5
46.59167,5
46.60000,5
46.60833,4
46.61667,4
46.62500,4
46.63333,4
46.64167,5
46.65000,5
46.65833,5
46.66667,4
46.67500,4
46.68333,4
46.69167,4
46.70000,4
46.70833,4
46.71667,4
46.72500,4
46.73333,4
46.74167,4
46.75000,4
46.75833,4
46.76667,4
46.77500,4
46.78333,3
46.79167,3
46.80000,4
46.80833,4
46.81667,4
46.82500,4
46.83333,5
46.84167,5
46.85000,4
46.85833,5
46.86667,5
46.87500,5
46.88333,5
46.89167,5
46.90000,5
46.90833,5
46.91667,5
46.92500,5
46.93333,5
46.94167,5
46.95000,5
46.95833,5
46.96667,5
46.97500,5
46.98333,4
46.99167,4
47.00000,4
47.00833,5
47.01667,5
47.02500,5
47.03333,5
47.04167,5
47.05000,4
47.05833,4
47.06667,4
47.07500,4
47.08333,5
47.09167,5
47.10000,5
47.10833,5
47.11667,5
47.12500,4
47.13333,4
47.14167,5
47.15000,5
47.15833,5
47.16667,5
47.17500,5
47.18333,5
47.19167,5
47.20000,5
47.20833,5
47.21667,5
47.22500,5
47.23333,5
47.24167,5
47.25000,5
47.25833,5
47.26667,5
47.27500,5
47.28333,4
47.29167,4
47.30000,4
47.30833,4
47.31667,4
47.32500,5
47.33333,5
47.34167,5
47.35000,4
47.35833,4
47.36667,4
47.37500,4
47.38333,4
47.39167,4
47.40000,5
47.40833,5
47.41667,5
47.42500,5
47.43333,5
47.44167,4
47.45000,4
47.45833,4
47.46667,4
47.47500,4
47.48333,4
47.49167,4
47.50000,4
47.50833,4
47.51667,4
47.52500,4
47.53333,4
47.54167,5
47.55000,5
47.55833,5
47.56667,5
47.57500,5
47.58333,5
47.59167,5
47.60000,5
47.60833,4
47.61667,4
47.62500,5
47.63333,4
47.64167,4
47.65000,4
47.65833,4
47.66667,4
47.67500,4
47.68333,4
47.69167,3
47.70000,3
47.70833,4
47.71667,4
47.72500,4
47.73333,4
47.74167,4
47.75000,4
47.75833,5
47.76667,5
47.77500,5
47.78333,5
47.79167,5
47.80000,5
47.80833,4
47.81667,4
47.82500,4
47.83333,4
47.84167,4
47.85000,4
47.85833,4
47.86667,4
47.87500,4
47.88333,4
47.89167,4
47.90000,4
47.90833,4
47.91667,4
47.92500,4
47.93333,4
47.94167,4
47.95000,3
47.95833,4
47.96667,4
47.97500,4
47.98333,4
47.99167,4
48.00000,4
48.00833,4
48.01667,4
48.02500,4
48.03333,4
48.04167,5
48.05000,5
48.05833,4
48.06667,4
48.07500,4
48.08333,4
48.09167,4
48.10000,3
48.10833,3
48.11667,3
48.12500,3
48.13333,3
48.14167,3
48.15000,3
48.15833,3
48.16667,3
48.17500,3
48.18333,3
48.19167,4
48.20000,4
48.20833,4
48.21667,3
48.22500,3
48.23333,3
48.24167,4
48.25000,4
48.25833,4
48.26667,4
48.27500,4
48.28333,4
48.29167,4
48.30000,4
48.30833,4
48.31667,4
48.32500,4
48.33333,4
48.34167,4
48.35000,4
48.35833,4
48.36667,4
48.37500,4
48.38333,3
48.39167,3
48.40000,3
48.40833,3
48.41667,3
48.42500,4
48.43333,4
48.44167,4
48.45000,4
48.45833,4
48.46667,4
48.47500,4
48.48333,5
48.49167,5
48.50000,4
48.50833,4
48.51667,4
48.52500,4
48.53333,3
48.54167,3
48.55000,3
48.55833,3
48.56667,3
48.57500,3
48.58333,3
48.59167,2
48.60000,2
48.60833,3
48.61667,2
48.62500,2
48.63333,2
48.64167,2
48.65000,2
48.65833,2
48.66667,2
48.67500,3
48.68333,3
48.69167,3
48.70000,3
48.70833,3
48.71667,3
48.72500,3
48.73333,3
48.74167,4
48.75000,3
48.75833,3
48.76667,3
48.77500,4
48.78333,4
48.79167,4
48.80000,4
48.80833,4
48.81667,3
48.82500,3
48.83333,3
48.84167,3
48.85000,4
48.85833,4
48.86667,4
48.87500,4
48.88333,4
48.89167,4
48.90000,4
48.90833,4
48.91667,4
48.92500,3
48.93333,3
48.94167,3
48.95000,2
48.95833,2
48.96667,2
48.97500,2
48.98333,3
48.99167,3
49.00000,3
49.00833,3
49.01667,3
49.02500,3
49.03333,3
49.04167,4
49.05000,4
49.05833,3
49.06667,3
49.07500,4
49.08333,4
49.09167,4
49.10000,4
49.10833,4
49.11667,4
49.12500,4
49.13333,4
49.14167,4
49.15000,4
49.15833,4
49.16667,4
49.17500,4
49.18333,4
49.19167,4
49.20000,4
49.20833,4
49.21667,4
49.22500,4
49.23333,4
49.24167,4
49.25000,4
49.25833,3
49.26667,3
49.27500,3
49.28333,3
49.29167,3
49.30000,3
49.30833,4
49.31667,4
49.32500,4
49.33333,4
49.34167,4
49.35000,4
49.35833,4
49.36667,4
49.37500,4
49.38333,4
49.39167,4
49.40000,4
49.40833,4
49.41667,4
49.42500,4
49.43333,4
49.44167,4
49.45000,5
49.45833,5
49.46667,5
49.47500,5
49.48333,5
49.49167,5
49.50000,5
49.50833,5
49.51667,5
49.52500,5
49.53333,5
49.54167,5
49.55000,5
49.55833,5
49.56667,5
49.57500,5
49.58333,4
49.59167,4
49.60000,5
49.60833,5
49.61667,5
49.62500,5
49.63333,5
49.64167,5
49.65000,5
49.65833,5
49.66667,5
49.67500,5
49.68333,5
49.69167,5
49.70000,5
49.70833,5
49.71667,5
49.72500,5
49.73333,5
49.74167,6
49.75000,6
49.75833,6
49.76667,7
49.77500,7
49.78333,7
49.79167,6
49.80000,6
49.80833,6
49.81667,6
49.82500,6
49.83333,6
49.84167,6
49.85000,6
49.85833,6
49.86667,6
49.87500,6
49.88333,6
49.89167,7
49.90000,7
49.90833,7
49.91667,8
49.92500,7
49.93333,7
49.94167,7
49.95000,7
49.95833,7
49.96667,7
49.97500,7
49.98333,7
49.99167,7
50.00000,7

