[Header]
Application Name,LabSolutions
Version,5.97 SP1
Data File Name,C:\Users\cremerlab\Desktop\Richa\Oct_17th_2022_yield_expt\Oct 17th 2022 yield expt_10172022_001_005.lcd
Output Date,10/17/2022
Output Time,10:06:51 PM

[File Information]
Type,Data File
Generated,10/17/2022 9:16:32 PM
Generated by,System Administrator
Modified,10/17/2022 10:06:51 PM
Modified by,System Administrator

[Sample Information]
Operator Name,System Administrator
Acquired,10/17/2022 9:16:50 PM
Sample Type,0:Unknown
Level,0
Sample Name,101822_NCM_Trp_4
Sample ID,001
ISTD Amount1,1
ISTD Amount2,1
ISTD Amount3,1
ISTD Amount4,1
ISTD Amount5,1
ISTD Amount6,1
ISTD Amount7,1
ISTD Amount8,1
ISTD Amount9,1
ISTD Amount10,1
ISTD Amount11,1
ISTD Amount12,1
ISTD Amount13,1
ISTD Amount14,1
ISTD Amount15,1
ISTD Amount16,1
ISTD Amount17,1
ISTD Amount18,1
ISTD Amount19,1
ISTD Amount20,1
ISTD Amount21,1
ISTD Amount22,1
ISTD Amount23,1
ISTD Amount24,1
ISTD Amount25,1
ISTD Amount26,1
ISTD Amount27,1
ISTD Amount28,1
ISTD Amount29,1
ISTD Amount30,1
ISTD Amount31,1
ISTD Amount32,1
Sample Amount,1
Dilution Factor,1
Vial#,4
Injection Volume,20

[Original Files]
Data File,C:\Users\cremerlab\Desktop\Richa\Oct_17th_2022_yield_expt\Oct 17th 2022 yield expt_10172022_001_005.lcd
Method File,C:\Users\cremerlab\Desktop\Richa\acetate_excretion.lcm
Batch File,C:\Users\cremerlab\Desktop\Richa\Oct_17th_2022_yield_expt\Oct 17th 2022 yield expt.lcb
Report Format File,c:\LabSolutions\System\DEFAULT.lsr

[File Description]


[Configuration]
Instrument Name,HPLC-PC-Instrument1
Instrument #,1
Line #,1
# of Detectors,2
Detector ID,Detector A,Detector B
Detector Name,Detector A,Detector B
# of Channels,1,1

[Peak Table(Detector A)]
# of Peaks,0

[Peak Table(Detector B)]
# of Peaks,13
Peak#,R.Time,I.Time,F.Time,Area,Height,A/H,Conc.,Mark,ID#,Name,k',Plate #,Plate Ht.,Tailing,Resolution,Sep.Factor,Area Ratio,Height Ratio,Conc. %,Norm Conc.
1,10.483,10.275,10.517,1275,174,7.308,0.000,   ,,,0.000,7246,20.701,0.000,0.000,0.000,0,0,0.000,0.000
2,11.033,10.517,12.325,2276028,115603,19.688,0.000, V ,,,0.052,7456,20.118,0.968,1.095,0.000,0,0,0.000,0.000
3,14.349,12.642,15.200,3580815,76055,47.082,0.000,   ,,,0.369,2463,60.901,0.652,3.977,7.034,0,0,0.000,0.000
4,15.775,15.200,17.167,1394973,47847,29.155,0.000, V ,,,0.505,6906,21.720,1.144,1.489,1.369,0,0,0.000,0.000
5,17.856,17.400,18.442,8136,266,30.595,0.000,   ,,,0.703,7266,20.643,1.074,2.605,1.393,0,0,0.000,0.000
6,19.060,18.475,19.733,10917,278,39.305,0.000,   ,,,0.818,4913,30.532,1.050,1.251,1.163,0,0,0.000,0.000
7,20.287,19.742,20.567,19011,617,30.834,0.000,   ,,,0.935,4141,36.223,0.000,1.045,1.143,0,0,0.000,0.000
8,20.951,20.567,21.458,31299,801,39.076,0.000, V ,,,0.998,4384,34.217,0.000,0.525,1.068,0,0,0.000,0.000
9,21.871,21.458,22.508,22521,612,36.806,0.000, V ,,,1.086,7041,21.304,0.000,0.797,1.088,0,0,0.000,0.000
10,23.136,22.508,24.250,36087,965,37.394,0.000,   ,,,1.207,9159,16.378,1.232,1.259,1.111,0,0,0.000,0.000
11,25.086,24.308,26.408,177043,4316,41.018,0.000,   ,,,1.393,8969,16.725,1.127,1.925,1.154,0,0,0.000,0.000
12,29.171,28.300,30.583,141547,2860,49.488,0.000,   ,,,1.783,8649,17.343,1.252,3.531,1.280,0,0,0.000,0.000
13,32.411,31.592,34.350,43998,669,65.800,0.000,   ,,,2.092,7769,19.308,1.606,2.377,1.173,0,0,0.000,0.000

[LC Chromatogram(Detector B-Ch1)]
Interval(msec),500
# of Points,6001
Start Time(min),0.000
End Time(min),50.000
Intensity Units,mV
Intensity Multiplier,0.001
R.Time (min),Intensity
0.00000,-24
0.00833,-24
0.01667,-8
0.02500,-0
0.03333,-1
0.04167,-1
0.05000,-1
0.05833,-2
0.06667,-3
0.07500,-3
0.08333,-4
0.09167,-5
0.10000,-5
0.10833,-6
0.11667,-7
0.12500,-7
0.13333,-8
0.14167,-8
0.15000,-9
0.15833,-9
0.16667,-10
0.17500,-11
0.18333,-11
0.19167,-12
0.20000,-12
0.20833,-12
0.21667,-13
0.22500,-13
0.23333,-13
0.24167,-14
0.25000,-14
0.25833,-14
0.26667,-14
0.27500,-15
0.28333,-15
0.29167,-15
0.30000,-15
0.30833,-16
0.31667,-16
0.32500,-16
0.33333,-17
0.34167,-17
0.35000,-18
0.35833,-18
0.36667,-18
0.37500,-18
0.38333,-19
0.39167,-19
0.40000,-19
0.40833,-20
0.41667,-21
0.42500,-21
0.43333,-21
0.44167,-21
0.45000,-21
0.45833,-21
0.46667,-21
0.47500,-21
0.48333,-21
0.49167,-21
0.50000,-21
0.50833,-22
0.51667,-22
0.52500,-22
0.53333,-23
0.54167,-23
0.55000,-23
0.55833,-23
0.56667,-23
0.57500,-23
0.58333,-23
0.59167,-23
0.60000,-23
0.60833,-23
0.61667,-23
0.62500,-24
0.63333,-24
0.64167,-24
0.65000,-24
0.65833,-24
0.66667,-24
0.67500,-24
0.68333,-24
0.69167,-25
0.70000,-25
0.70833,-25
0.71667,-25
0.72500,-25
0.73333,-24
0.74167,-24
0.75000,-24
0.75833,-24
0.76667,-24
0.77500,-24
0.78333,-24
0.79167,-24
0.80000,-24
0.80833,-24
0.81667,-24
0.82500,-24
0.83333,-24
0.84167,-24
0.85000,-24
0.85833,-24
0.86667,-24
0.87500,-24
0.88333,-24
0.89167,-24
0.90000,-24
0.90833,-24
0.91667,-24
0.92500,-24
0.93333,-23
0.94167,-23
0.95000,-23
0.95833,-23
0.96667,-23
0.97500,-23
0.98333,-23
0.99167,-23
1.00000,-23
1.00833,-23
1.01667,-23
1.02500,-23
1.03333,-23
1.04167,-22
1.05000,-22
1.05833,-22
1.06667,-21
1.07500,-21
1.08333,-21
1.09167,-21
1.10000,-21
1.10833,-21
1.11667,-21
1.12500,-21
1.13333,-21
1.14167,-21
1.15000,-20
1.15833,-20
1.16667,-20
1.17500,-21
1.18333,-21
1.19167,-21
1.20000,-22
1.20833,-22
1.21667,-21
1.22500,-21
1.23333,-21
1.24167,-21
1.25000,-21
1.25833,-21
1.26667,-21
1.27500,-21
1.28333,-21
1.29167,-21
1.30000,-22
1.30833,-22
1.31667,-22
1.32500,-22
1.33333,-21
1.34167,-21
1.35000,-21
1.35833,-21
1.36667,-21
1.37500,-21
1.38333,-21
1.39167,-21
1.40000,-21
1.40833,-21
1.41667,-21
1.42500,-21
1.43333,-21
1.44167,-21
1.45000,-21
1.45833,-21
1.46667,-21
1.47500,-21
1.48333,-21
1.49167,-20
1.50000,-20
1.50833,-20
1.51667,-21
1.52500,-21
1.53333,-21
1.54167,-21
1.55000,-21
1.55833,-21
1.56667,-21
1.57500,-21
1.58333,-21
1.59167,-21
1.60000,-21
1.60833,-21
1.61667,-21
1.62500,-21
1.63333,-21
1.64167,-22
1.65000,-22
1.65833,-23
1.66667,-23
1.67500,-23
1.68333,-23
1.69167,-24
1.70000,-24
1.70833,-24
1.71667,-24
1.72500,-25
1.73333,-25
1.74167,-25
1.75000,-25
1.75833,-25
1.76667,-25
1.77500,-25
1.78333,-25
1.79167,-25
1.80000,-25
1.80833,-26
1.81667,-26
1.82500,-26
1.83333,-26
1.84167,-26
1.85000,-26
1.85833,-26
1.86667,-26
1.87500,-27
1.88333,-27
1.89167,-27
1.90000,-27
1.90833,-27
1.91667,-28
1.92500,-28
1.93333,-28
1.94167,-29
1.95000,-29
1.95833,-29
1.96667,-29
1.97500,-30
1.98333,-30
1.99167,-30
2.00000,-30
2.00833,-31
2.01667,-31
2.02500,-31
2.03333,-31
2.04167,-32
2.05000,-32
2.05833,-31
2.06667,-31
2.07500,-31
2.08333,-32
2.09167,-32
2.10000,-32
2.10833,-32
2.11667,-32
2.12500,-33
2.13333,-33
2.14167,-34
2.15000,-34
2.15833,-34
2.16667,-34
2.17500,-35
2.18333,-35
2.19167,-36
2.20000,-36
2.20833,-36
2.21667,-36
2.22500,-37
2.23333,-37
2.24167,-37
2.25000,-37
2.25833,-37
2.26667,-37
2.27500,-37
2.28333,-37
2.29167,-38
2.30000,-38
2.30833,-38
2.31667,-39
2.32500,-39
2.33333,-40
2.34167,-40
2.35000,-40
2.35833,-41
2.36667,-41
2.37500,-42
2.38333,-42
2.39167,-42
2.40000,-42
2.40833,-42
2.41667,-42
2.42500,-43
2.43333,-43
2.44167,-43
2.45000,-44
2.45833,-44
2.46667,-44
2.47500,-44
2.48333,-45
2.49167,-45
2.50000,-46
2.50833,-46
2.51667,-46
2.52500,-46
2.53333,-46
2.54167,-46
2.55000,-47
2.55833,-47
2.56667,-47
2.57500,-47
2.58333,-48
2.59167,-48
2.60000,-48
2.60833,-48
2.61667,-48
2.62500,-48
2.63333,-48
2.64167,-48
2.65000,-49
2.65833,-49
2.66667,-50
2.67500,-51
2.68333,-51
2.69167,-51
2.70000,-51
2.70833,-52
2.71667,-52
2.72500,-53
2.73333,-53
2.74167,-53
2.75000,-53
2.75833,-53
2.76667,-53
2.77500,-53
2.78333,-53
2.79167,-53
2.80000,-54
2.80833,-54
2.81667,-54
2.82500,-54
2.83333,-54
2.84167,-54
2.85000,-54
2.85833,-54
2.86667,-54
2.87500,-54
2.88333,-55
2.89167,-55
2.90000,-55
2.90833,-55
2.91667,-55
2.92500,-56
2.93333,-56
2.94167,-56
2.95000,-56
2.95833,-56
2.96667,-56
2.97500,-57
2.98333,-56
2.99167,-56
3.00000,-56
3.00833,-56
3.01667,-57
3.02500,-57
3.03333,-58
3.04167,-58
3.05000,-58
3.05833,-58
3.06667,-58
3.07500,-58
3.08333,-58
3.09167,-59
3.10000,-58
3.10833,-58
3.11667,-58
3.12500,-58
3.13333,-59
3.14167,-59
3.15000,-59
3.15833,-59
3.16667,-59
3.17500,-59
3.18333,-59
3.19167,-59
3.20000,-59
3.20833,-59
3.21667,-59
3.22500,-59
3.23333,-59
3.24167,-59
3.25000,-59
3.25833,-58
3.26667,-58
3.27500,-58
3.28333,-58
3.29167,-58
3.30000,-58
3.30833,-58
3.31667,-58
3.32500,-58
3.33333,-58
3.34167,-58
3.35000,-58
3.35833,-58
3.36667,-58
3.37500,-58
3.38333,-58
3.39167,-57
3.40000,-57
3.40833,-57
3.41667,-57
3.42500,-57
3.43333,-57
3.44167,-58
3.45000,-58
3.45833,-58
3.46667,-57
3.47500,-57
3.48333,-58
3.49167,-58
3.50000,-58
3.50833,-57
3.51667,-57
3.52500,-57
3.53333,-57
3.54167,-57
3.55000,-57
3.55833,-57
3.56667,-57
3.57500,-56
3.58333,-56
3.59167,-56
3.60000,-56
3.60833,-56
3.61667,-56
3.62500,-55
3.63333,-55
3.64167,-55
3.65000,-55
3.65833,-56
3.66667,-56
3.67500,-55
3.68333,-55
3.69167,-54
3.70000,-54
3.70833,-54
3.71667,-54
3.72500,-54
3.73333,-53
3.74167,-53
3.75000,-53
3.75833,-53
3.76667,-53
3.77500,-53
3.78333,-52
3.79167,-52
3.80000,-52
3.80833,-52
3.81667,-51
3.82500,-51
3.83333,-51
3.84167,-51
3.85000,-50
3.85833,-50
3.86667,-50
3.87500,-49
3.88333,-48
3.89167,-48
3.90000,-48
3.90833,-48
3.91667,-48
3.92500,-47
3.93333,-47
3.94167,-47
3.95000,-47
3.95833,-46
3.96667,-45
3.97500,-45
3.98333,-44
3.99167,-44
4.00000,-43
4.00833,-43
4.01667,-43
4.02500,-42
4.03333,-42
4.04167,-42
4.05000,-42
4.05833,-41
4.06667,-41
4.07500,-40
4.08333,-40
4.09167,-39
4.10000,-39
4.10833,-39
4.11667,-38
4.12500,-38
4.13333,-38
4.14167,-37
4.15000,-37
4.15833,-36
4.16667,-36
4.17500,-35
4.18333,-34
4.19167,-33
4.20000,-33
4.20833,-32
4.21667,-32
4.22500,-31
4.23333,-30
4.24167,-30
4.25000,-29
4.25833,-29
4.26667,-28
4.27500,-28
4.28333,-28
4.29167,-27
4.30000,-27
4.30833,-26
4.31667,-26
4.32500,-25
4.33333,-25
4.34167,-25
4.35000,-24
4.35833,-23
4.36667,-23
4.37500,-22
4.38333,-21
4.39167,-21
4.40000,-20
4.40833,-20
4.41667,-20
4.42500,-19
4.43333,-19
4.44167,-19
4.45000,-19
4.45833,-19
4.46667,-18
4.47500,-18
4.48333,-17
4.49167,-17
4.50000,-16
4.50833,-16
4.51667,-16
4.52500,-16
4.53333,-15
4.54167,-15
4.55000,-14
4.55833,-14
4.56667,-13
4.57500,-13
4.58333,-12
4.59167,-12
4.60000,-12
4.60833,-12
4.61667,-12
4.62500,-12
4.63333,-11
4.64167,-10
4.65000,-10
4.65833,-10
4.66667,-10
4.67500,-10
4.68333,-11
4.69167,-11
4.70000,-11
4.70833,-11
4.71667,-11
4.72500,-11
4.73333,-10
4.74167,-10
4.75000,-10
4.75833,-10
4.76667,-10
4.77500,-10
4.78333,-10
4.79167,-10
4.80000,-10
4.80833,-10
4.81667,-10
4.82500,-11
4.83333,-11
4.84167,-11
4.85000,-11
4.85833,-10
4.86667,-10
4.87500,-11
4.88333,-11
4.89167,-11
4.90000,-11
4.90833,-12
4.91667,-12
4.92500,-13
4.93333,-13
4.94167,-14
4.95000,-14
4.95833,-14
4.96667,-14
4.97500,-14
4.98333,-14
4.99167,-15
5.00000,-15
5.00833,-15
5.01667,-16
5.02500,-16
5.03333,-17
5.04167,-17
5.05000,-18
5.05833,-18
5.06667,-19
5.07500,-19
5.08333,-20
5.09167,-20
5.10000,-21
5.10833,-21
5.11667,-21
5.12500,-22
5.13333,-22
5.14167,-23
5.15000,-24
5.15833,-24
5.16667,-24
5.17500,-25
5.18333,-25
5.19167,-25
5.20000,-26
5.20833,-26
5.21667,-27
5.22500,-27
5.23333,-28
5.24167,-29
5.25000,-29
5.25833,-30
5.26667,-30
5.27500,-31
5.28333,-32
5.29167,-33
5.30000,-33
5.30833,-34
5.31667,-35
5.32500,-35
5.33333,-36
5.34167,-37
5.35000,-38
5.35833,-39
5.36667,-40
5.37500,-41
5.38333,-42
5.39167,-42
5.40000,-43
5.40833,-44
5.41667,-44
5.42500,-45
5.43333,-46
5.44167,-46
5.45000,-47
5.45833,-47
5.46667,-48
5.47500,-49
5.48333,-49
5.49167,-50
5.50000,-51
5.50833,-52
5.51667,-54
5.52500,-55
5.53333,-55
5.54167,-56
5.55000,-57
5.55833,-57
5.56667,-58
5.57500,-59
5.58333,-60
5.59167,-61
5.60000,-62
5.60833,-64
5.61667,-64
5.62500,-65
5.63333,-66
5.64167,-67
5.65000,-67
5.65833,-68
5.66667,-69
5.67500,-70
5.68333,-71
5.69167,-72
5.70000,-72
5.70833,-74
5.71667,-75
5.72500,-76
5.73333,-77
5.74167,-78
5.75000,-79
5.75833,-79
5.76667,-80
5.77500,-81
5.78333,-82
5.79167,-82
5.80000,-83
5.80833,-85
5.81667,-86
5.82500,-87
5.83333,-88
5.84167,-89
5.85000,-90
5.85833,-91
5.86667,-91
5.87500,-92
5.88333,-93
5.89167,-94
5.90000,-94
5.90833,-96
5.91667,-97
5.92500,-98
5.93333,-98
5.94167,-99
5.95000,-100
5.95833,-100
5.96667,-101
5.97500,-101
5.98333,-102
5.99167,-103
6.00000,-103
6.00833,-104
6.01667,-105
6.02500,-106
6.03333,-107
6.04167,-107
6.05000,-108
6.05833,-109
6.06667,-110
6.07500,-111
6.08333,-111
6.09167,-112
6.10000,-113
6.10833,-114
6.11667,-115
6.12500,-115
6.13333,-115
6.14167,-116
6.15000,-116
6.15833,-117
6.16667,-118
6.17500,-119
6.18333,-119
6.19167,-120
6.20000,-120
6.20833,-121
6.21667,-122
6.22500,-123
6.23333,-123
6.24167,-124
6.25000,-124
6.25833,-125
6.26667,-125
6.27500,-126
6.28333,-126
6.29167,-127
6.30000,-127
6.30833,-127
6.31667,-128
6.32500,-129
6.33333,-129
6.34167,-130
6.35000,-130
6.35833,-130
6.36667,-130
6.37500,-130
6.38333,-131
6.39167,-132
6.40000,-132
6.40833,-132
6.41667,-133
6.42500,-133
6.43333,-133
6.44167,-133
6.45000,-133
6.45833,-133
6.46667,-134
6.47500,-134
6.48333,-134
6.49167,-135
6.50000,-135
6.50833,-136
6.51667,-136
6.52500,-136
6.53333,-137
6.54167,-137
6.55000,-137
6.55833,-137
6.56667,-138
6.57500,-138
6.58333,-138
6.59167,-138
6.60000,-138
6.60833,-139
6.61667,-139
6.62500,-140
6.63333,-140
6.64167,-140
6.65000,-141
6.65833,-141
6.66667,-141
6.67500,-141
6.68333,-141
6.69167,-141
6.70000,-141
6.70833,-141
6.71667,-141
6.72500,-141
6.73333,-141
6.74167,-142
6.75000,-142
6.75833,-142
6.76667,-143
6.77500,-143
6.78333,-143
6.79167,-143
6.80000,-143
6.80833,-143
6.81667,-143
6.82500,-143
6.83333,-144
6.84167,-144
6.85000,-144
6.85833,-144
6.86667,-144
6.87500,-145
6.88333,-145
6.89167,-146
6.90000,-146
6.90833,-146
6.91667,-146
6.92500,-146
6.93333,-146
6.94167,-146
6.95000,-147
6.95833,-147
6.96667,-147
6.97500,-147
6.98333,-147
6.99167,-147
7.00000,-147
7.00833,-147
7.01667,-147
7.02500,-148
7.03333,-148
7.04167,-148
7.05000,-148
7.05833,-148
7.06667,-148
7.07500,-149
7.08333,-148
7.09167,-148
7.10000,-148
7.10833,-148
7.11667,-148
7.12500,-149
7.13333,-149
7.14167,-149
7.15000,-150
7.15833,-150
7.16667,-151
7.17500,-151
7.18333,-151
7.19167,-151
7.20000,-151
7.20833,-151
7.21667,-151
7.22500,-151
7.23333,-151
7.24167,-151
7.25000,-151
7.25833,-151
7.26667,-151
7.27500,-152
7.28333,-152
7.29167,-152
7.30000,-152
7.30833,-153
7.31667,-153
7.32500,-153
7.33333,-154
7.34167,-154
7.35000,-153
7.35833,-153
7.36667,-153
7.37500,-153
7.38333,-153
7.39167,-154
7.40000,-154
7.40833,-154
7.41667,-154
7.42500,-155
7.43333,-155
7.44167,-155
7.45000,-155
7.45833,-155
7.46667,-156
7.47500,-156
7.48333,-156
7.49167,-155
7.50000,-156
7.50833,-156
7.51667,-156
7.52500,-156
7.53333,-156
7.54167,-156
7.55000,-157
7.55833,-157
7.56667,-157
7.57500,-157
7.58333,-157
7.59167,-157
7.60000,-157
7.60833,-157
7.61667,-157
7.62500,-158
7.63333,-158
7.64167,-159
7.65000,-159
7.65833,-159
7.66667,-160
7.67500,-160
7.68333,-160
7.69167,-160
7.70000,-160
7.70833,-159
7.71667,-160
7.72500,-160
7.73333,-160
7.74167,-160
7.75000,-160
7.75833,-160
7.76667,-161
7.77500,-161
7.78333,-160
7.79167,-160
7.80000,-161
7.80833,-161
7.81667,-162
7.82500,-162
7.83333,-161
7.84167,-162
7.85000,-162
7.85833,-162
7.86667,-162
7.87500,-162
7.88333,-163
7.89167,-163
7.90000,-164
7.90833,-164
7.91667,-163
7.92500,-163
7.93333,-164
7.94167,-164
7.95000,-165
7.95833,-165
7.96667,-165
7.97500,-165
7.98333,-165
7.99167,-165
8.00000,-165
8.00833,-165
8.01667,-165
8.02500,-165
8.03333,-165
8.04167,-165
8.05000,-166
8.05833,-166
8.06667,-166
8.07500,-166
8.08333,-167
8.09167,-166
8.10000,-166
8.10833,-166
8.11667,-167
8.12500,-167
8.13333,-167
8.14167,-167
8.15000,-167
8.15833,-168
8.16667,-168
8.17500,-168
8.18333,-169
8.19167,-169
8.20000,-169
8.20833,-169
8.21667,-169
8.22500,-169
8.23333,-169
8.24167,-169
8.25000,-169
8.25833,-169
8.26667,-169
8.27500,-170
8.28333,-170
8.29167,-170
8.30000,-170
8.30833,-170
8.31667,-170
8.32500,-171
8.33333,-171
8.34167,-171
8.35000,-171
8.35833,-171
8.36667,-170
8.37500,-170
8.38333,-171
8.39167,-171
8.40000,-171
8.40833,-171
8.41667,-171
8.42500,-171
8.43333,-171
8.44167,-171
8.45000,-171
8.45833,-172
8.46667,-172
8.47500,-172
8.48333,-172
8.49167,-172
8.50000,-172
8.50833,-172
8.51667,-172
8.52500,-173
8.53333,-172
8.54167,-172
8.55000,-173
8.55833,-173
8.56667,-173
8.57500,-174
8.58333,-174
8.59167,-174
8.60000,-174
8.60833,-174
8.61667,-174
8.62500,-175
8.63333,-175
8.64167,-175
8.65000,-175
8.65833,-175
8.66667,-176
8.67500,-176
8.68333,-176
8.69167,-177
8.70000,-177
8.70833,-176
8.71667,-176
8.72500,-176
8.73333,-176
8.74167,-176
8.75000,-177
8.75833,-177
8.76667,-177
8.77500,-177
8.78333,-177
8.79167,-177
8.80000,-177
8.80833,-178
8.81667,-178
8.82500,-178
8.83333,-179
8.84167,-179
8.85000,-179
8.85833,-179
8.86667,-179
8.87500,-179
8.88333,-179
8.89167,-179
8.90000,-178
8.90833,-178
8.91667,-178
8.92500,-178
8.93333,-178
8.94167,-178
8.95000,-178
8.95833,-179
8.96667,-179
8.97500,-179
8.98333,-179
8.99167,-180
9.00000,-180
9.00833,-180
9.01667,-180
9.02500,-180
9.03333,-180
9.04167,-180
9.05000,-180
9.05833,-180
9.06667,-181
9.07500,-181
9.08333,-181
9.09167,-181
9.10000,-181
9.10833,-181
9.11667,-181
9.12500,-181
9.13333,-182
9.14167,-182
9.15000,-182
9.15833,-182
9.16667,-182
9.17500,-182
9.18333,-182
9.19167,-183
9.20000,-183
9.20833,-183
9.21667,-183
9.22500,-183
9.23333,-183
9.24167,-183
9.25000,-183
9.25833,-183
9.26667,-183
9.27500,-183
9.28333,-183
9.29167,-184
9.30000,-184
9.30833,-184
9.31667,-184
9.32500,-184
9.33333,-184
9.34167,-184
9.35000,-184
9.35833,-184
9.36667,-184
9.37500,-184
9.38333,-184
9.39167,-185
9.40000,-185
9.40833,-184
9.41667,-184
9.42500,-184
9.43333,-185
9.44167,-185
9.45000,-185
9.45833,-185
9.46667,-185
9.47500,-185
9.48333,-186
9.49167,-186
9.50000,-186
9.50833,-186
9.51667,-186
9.52500,-187
9.53333,-187
9.54167,-187
9.55000,-188
9.55833,-188
9.56667,-187
9.57500,-187
9.58333,-187
9.59167,-187
9.60000,-187
9.60833,-187
9.61667,-188
9.62500,-188
9.63333,-187
9.64167,-187
9.65000,-187
9.65833,-188
9.66667,-188
9.67500,-188
9.68333,-188
9.69167,-188
9.70000,-188
9.70833,-188
9.71667,-188
9.72500,-188
9.73333,-188
9.74167,-188
9.75000,-188
9.75833,-188
9.76667,-189
9.77500,-189
9.78333,-189
9.79167,-189
9.80000,-189
9.80833,-189
9.81667,-189
9.82500,-189
9.83333,-189
9.84167,-189
9.85000,-189
9.85833,-189
9.86667,-188
9.87500,-188
9.88333,-189
9.89167,-189
9.90000,-189
9.90833,-189
9.91667,-189
9.92500,-190
9.93333,-190
9.94167,-190
9.95000,-190
9.95833,-190
9.96667,-190
9.97500,-190
9.98333,-190
9.99167,-190
10.00000,-190
10.00833,-190
10.01667,-190
10.02500,-190
10.03333,-190
10.04167,-190
10.05000,-190
10.05833,-190
10.06667,-190
10.07500,-189
10.08333,-189
10.09167,-189
10.10000,-189
10.10833,-189
10.11667,-188
10.12500,-188
10.13333,-187
10.14167,-187
10.15000,-187
10.15833,-186
10.16667,-186
10.17500,-185
10.18333,-184
10.19167,-184
10.20000,-183
10.20833,-181
10.21667,-180
10.22500,-179
10.23333,-178
10.24167,-176
10.25000,-175
10.25833,-173
10.26667,-171
10.27500,-169
10.28333,-166
10.29167,-163
10.30000,-160
10.30833,-157
10.31667,-152
10.32500,-147
10.33333,-141
10.34167,-134
10.35000,-126
10.35833,-116
10.36667,-106
10.37500,-93
10.38333,-80
10.39167,-65
10.40000,-49
10.40833,-33
10.41667,-16
10.42500,1
10.43333,17
10.44167,31
10.45000,44
10.45833,53
10.46667,61
10.47500,65
10.48333,67
10.49167,67
10.50000,65
10.50833,63
10.51667,62
10.52500,65
10.53333,75
10.54167,96
10.55000,130
10.55833,182
10.56667,258
10.57500,362
10.58333,501
10.59167,679
10.60000,902
10.60833,1176
10.61667,1507
10.62500,1902
10.63333,2365
10.64167,2903
10.65000,3521
10.65833,4223
10.66667,5015
10.67500,5901
10.68333,6885
10.69167,7973
10.70000,9166
10.70833,10469
10.71667,11883
10.72500,13411
10.73333,15055
10.74167,16817
10.75000,18697
10.75833,20697
10.76667,22817
10.77500,25056
10.78333,27415
10.79167,29892
10.80000,32487
10.80833,35197
10.81667,38021
10.82500,40955
10.83333,43997
10.84167,47143
10.85000,50388
10.85833,53727
10.86667,57153
10.87500,60658
10.88333,64235
10.89167,67874
10.90000,71563
10.90833,75287
10.91667,79031
10.92500,82774
10.93333,86496
10.94167,90168
10.95000,93761
10.95833,97239
10.96667,100564
10.97500,103690
10.98333,106570
10.99167,109152
11.00000,111380
11.00833,113199
11.01667,114553
11.02500,115388
11.03333,115659
11.04167,115324
11.05000,114357
11.05833,112741
11.06667,110479
11.07500,107589
11.08333,104107
11.09167,100088
11.10000,95600
11.10833,90726
11.11667,85555
11.12500,80183
11.13333,74703
11.14167,69208
11.15000,63781
11.15833,58495
11.16667,53412
11.17500,48581
11.18333,44040
11.19167,39811
11.20000,35910
11.20833,32337
11.21667,29091
11.22500,26160
11.23333,23527
11.24167,21176
11.25000,19083
11.25833,17228
11.26667,15588
11.27500,14141
11.28333,12866
11.29167,11744
11.30000,10757
11.30833,9888
11.31667,9123
11.32500,8446
11.33333,7848
11.34167,7318
11.35000,6847
11.35833,6427
11.36667,6050
11.37500,5712
11.38333,5406
11.39167,5129
11.40000,4876
11.40833,4645
11.41667,4433
11.42500,4237
11.43333,4055
11.44167,3886
11.45000,3728
11.45833,3580
11.46667,3441
11.47500,3310
11.48333,3186
11.49167,3068
11.50000,2957
11.50833,2850
11.51667,2749
11.52500,2652
11.53333,2558
11.54167,2469
11.55000,2384
11.55833,2302
11.56667,2224
11.57500,2149
11.58333,2078
11.59167,2009
11.60000,1942
11.60833,1878
11.61667,1817
11.62500,1758
11.63333,1702
11.64167,1648
11.65000,1596
11.65833,1546
11.66667,1498
11.67500,1452
11.68333,1407
11.69167,1365
11.70000,1325
11.70833,1286
11.71667,1248
11.72500,1212
11.73333,1177
11.74167,1144
11.75000,1112
11.75833,1082
11.76667,1052
11.77500,1024
11.78333,997
11.79167,971
11.80000,946
11.80833,922
11.81667,899
11.82500,877
11.83333,856
11.84167,837
11.85000,818
11.85833,800
11.86667,783
11.87500,766
11.88333,750
11.89167,734
11.90000,719
11.90833,705
11.91667,692
11.92500,679
11.93333,667
11.94167,655
11.95000,643
11.95833,632
11.96667,622
11.97500,611
11.98333,601
11.99167,592
12.00000,583
12.00833,574
12.01667,567
12.02500,559
12.03333,552
12.04167,544
12.05000,537
12.05833,531
12.06667,524
12.07500,518
12.08333,513
12.09167,507
12.10000,502
12.10833,497
12.11667,492
12.12500,487
12.13333,483
12.14167,479
12.15000,475
12.15833,472
12.16667,468
12.17500,465
12.18333,463
12.19167,460
12.20000,458
12.20833,456
12.21667,454
12.22500,452
12.23333,450
12.24167,448
12.25000,446
12.25833,445
12.26667,443
12.27500,442
12.28333,441
12.29167,441
12.30000,440
12.30833,440
12.31667,439
12.32500,439
12.33333,439
12.34167,438
12.35000,438
12.35833,438
12.36667,438
12.37500,438
12.38333,438
12.39167,438
12.40000,438
12.40833,438
12.41667,438
12.42500,437
12.43333,437
12.44167,436
12.45000,436
12.45833,436
12.46667,435
12.47500,435
12.48333,434
12.49167,433
12.50000,432
12.50833,431
12.51667,430
12.52500,429
12.53333,427
12.54167,426
12.55000,424
12.55833,423
12.56667,421
12.57500,420
12.58333,418
12.59167,417
12.60000,415
12.60833,414
12.61667,413
12.62500,412
12.63333,411
12.64167,410
12.65000,410
12.65833,411
12.66667,412
12.67500,414
12.68333,417
12.69167,420
12.70000,426
12.70833,432
12.71667,440
12.72500,450
12.73333,462
12.74167,476
12.75000,493
12.75833,513
12.76667,535
12.77500,561
12.78333,590
12.79167,622
12.80000,658
12.80833,699
12.81667,743
12.82500,792
12.83333,845
12.84167,903
12.85000,965
12.85833,1033
12.86667,1105
12.87500,1183
12.88333,1266
12.89167,1354
12.90000,1448
12.90833,1547
12.91667,1652
12.92500,1762
12.93333,1877
12.94167,1998
12.95000,2124
12.95833,2256
12.96667,2394
12.97500,2537
12.98333,2685
12.99167,2840
13.00000,2999
13.00833,3164
13.01667,3334
13.02500,3509
13.03333,3690
13.04167,3876
13.05000,4067
13.05833,4263
13.06667,4464
13.07500,4669
13.08333,4880
13.09167,5095
13.10000,5315
13.10833,5540
13.11667,5770
13.12500,6004
13.13333,6242
13.14167,6485
13.15000,6731
13.15833,6982
13.16667,7236
13.17500,7495
13.18333,7757
13.19167,8023
13.20000,8292
13.20833,8565
13.21667,8841
13.22500,9121
13.23333,9405
13.24167,9691
13.25000,9981
13.25833,10275
13.26667,10571
13.27500,10870
13.28333,11172
13.29167,11477
13.30000,11785
13.30833,12097
13.31667,12411
13.32500,12728
13.33333,13048
13.34167,13371
13.35000,13697
13.35833,14025
13.36667,14357
13.37500,14690
13.38333,15027
13.39167,15367
13.40000,15709
13.40833,16054
13.41667,16402
13.42500,16752
13.43333,17105
13.44167,17461
13.45000,17820
13.45833,18183
13.46667,18548
13.47500,18916
13.48333,19287
13.49167,19660
13.50000,20036
13.50833,20416
13.51667,20798
13.52500,21184
13.53333,21572
13.54167,21964
13.55000,22358
13.55833,22756
13.56667,23156
13.57500,23560
13.58333,23967
13.59167,24376
13.60000,24789
13.60833,25206
13.61667,25626
13.62500,26049
13.63333,26476
13.64167,26906
13.65000,27340
13.65833,27776
13.66667,28216
13.67500,28660
13.68333,29106
13.69167,29557
13.70000,30011
13.70833,30470
13.71667,30931
13.72500,31397
13.73333,31866
13.74167,32339
13.75000,32816
13.75833,33296
13.76667,33781
13.77500,34269
13.78333,34762
13.79167,35258
13.80000,35759
13.80833,36263
13.81667,36773
13.82500,37286
13.83333,37803
13.84167,38325
13.85000,38851
13.85833,39382
13.86667,39917
13.87500,40456
13.88333,41000
13.89167,41549
13.90000,42102
13.90833,42660
13.91667,43223
13.92500,43791
13.93333,44363
13.94167,44941
13.95000,45523
13.95833,46110
13.96667,46703
13.97500,47300
13.98333,47904
13.99167,48512
14.00000,49125
14.00833,49744
14.01667,50368
14.02500,50998
14.03333,51634
14.04167,52274
14.05000,52921
14.05833,53574
14.06667,54233
14.07500,54898
14.08333,55568
14.09167,56244
14.10000,56926
14.10833,57615
14.11667,58310
14.12500,59010
14.13333,59718
14.14167,60432
14.15000,61153
14.15833,61880
14.16667,62615
14.17500,63356
14.18333,64104
14.19167,64859
14.20000,65621
14.20833,66390
14.21667,67165
14.22500,67945
14.23333,68729
14.24167,69515
14.25000,70298
14.25833,71074
14.26667,71836
14.27500,72576
14.28333,73285
14.29167,73953
14.30000,74566
14.30833,75113
14.31667,75582
14.32500,75961
14.33333,76237
14.34167,76401
14.35000,76445
14.35833,76360
14.36667,76141
14.37500,75784
14.38333,75285
14.39167,74643
14.40000,73855
14.40833,72919
14.41667,71833
14.42500,70596
14.43333,69205
14.44167,67658
14.45000,65955
14.45833,64096
14.46667,62082
14.47500,59919
14.48333,57615
14.49167,55179
14.50000,52628
14.50833,49980
14.51667,47256
14.52500,44482
14.53333,41681
14.54167,38883
14.55000,36113
14.55833,33397
14.56667,30760
14.57500,28223
14.58333,25804
14.59167,23516
14.60000,21371
14.60833,19374
14.61667,17529
14.62500,15837
14.63333,14293
14.64167,12893
14.65000,11630
14.65833,10496
14.66667,9482
14.67500,8578
14.68333,7774
14.69167,7062
14.70000,6431
14.70833,5873
14.71667,5381
14.72500,4946
14.73333,4561
14.74167,4222
14.75000,3921
14.75833,3656
14.76667,3420
14.77500,3210
14.78333,3023
14.79167,2855
14.80000,2704
14.80833,2568
14.81667,2446
14.82500,2335
14.83333,2234
14.84167,2141
14.85000,2056
14.85833,1978
14.86667,1906
14.87500,1839
14.88333,1778
14.89167,1720
14.90000,1666
14.90833,1616
14.91667,1569
14.92500,1524
14.93333,1482
14.94167,1442
14.95000,1404
14.95833,1368
14.96667,1334
14.97500,1301
14.98333,1270
14.99167,1241
15.00000,1213
15.00833,1187
15.01667,1162
15.02500,1138
15.03333,1115
15.04167,1094
15.05000,1073
15.05833,1053
15.06667,1035
15.07500,1018
15.08333,1001
15.09167,984
15.10000,969
15.10833,955
15.11667,942
15.12500,930
15.13333,919
15.14167,908
15.15000,898
15.15833,889
15.16667,882
15.17500,875
15.18333,871
15.19167,868
15.20000,867
15.20833,869
15.21667,873
15.22500,881
15.23333,894
15.24167,911
15.25000,934
15.25833,964
15.26667,1002
15.27500,1050
15.28333,1109
15.29167,1182
15.30000,1269
15.30833,1374
15.31667,1499
15.32500,1646
15.33333,1818
15.34167,2018
15.35000,2249
15.35833,2515
15.36667,2817
15.37500,3160
15.38333,3547
15.39167,3980
15.40000,4464
15.40833,4999
15.41667,5590
15.42500,6239
15.43333,6946
15.44167,7714
15.45000,8544
15.45833,9436
15.46667,10389
15.47500,11403
15.48333,12477
15.49167,13607
15.50000,14791
15.50833,16026
15.51667,17308
15.52500,18631
15.53333,19991
15.54167,21381
15.55000,22795
15.55833,24227
15.56667,25670
15.57500,27117
15.58333,28560
15.59167,29993
15.60000,31410
15.60833,32802
15.61667,34164
15.62500,35488
15.63333,36769
15.64167,38001
15.65000,39179
15.65833,40298
15.66667,41355
15.67500,42344
15.68333,43263
15.69167,44110
15.70000,44882
15.70833,45576
15.71667,46191
15.72500,46725
15.73333,47179
15.74167,47551
15.75000,47841
15.75833,48049
15.76667,48175
15.77500,48219
15.78333,48181
15.79167,48064
15.80000,47867
15.80833,47592
15.81667,47240
15.82500,46813
15.83333,46312
15.84167,45741
15.85000,45101
15.85833,44395
15.86667,43627
15.87500,42800
15.88333,41917
15.89167,40982
15.90000,39999
15.90833,38973
15.91667,37906
15.92500,36805
15.93333,35674
15.94167,34518
15.95000,33341
15.95833,32148
15.96667,30945
15.97500,29736
15.98333,28526
15.99167,27319
16.00000,26121
16.00833,24934
16.01667,23762
16.02500,22610
16.03333,21480
16.04167,20376
16.05000,19299
16.05833,18254
16.06667,17241
16.07500,16263
16.08333,15321
16.09167,14416
16.10000,13549
16.10833,12721
16.11667,11931
16.12500,11181
16.13333,10470
16.14167,9796
16.15000,9161
16.15833,8562
16.16667,7998
16.17500,7470
16.18333,6975
16.19167,6513
16.20000,6082
16.20833,5680
16.21667,5307
16.22500,4961
16.23333,4640
16.24167,4344
16.25000,4069
16.25833,3816
16.26667,3583
16.27500,3368
16.28333,3171
16.29167,2989
16.30000,2822
16.30833,2669
16.31667,2529
16.32500,2400
16.33333,2282
16.34167,2173
16.35000,2074
16.35833,1982
16.36667,1898
16.37500,1820
16.38333,1749
16.39167,1683
16.40000,1623
16.40833,1568
16.41667,1516
16.42500,1468
16.43333,1423
16.44167,1382
16.45000,1343
16.45833,1306
16.46667,1271
16.47500,1239
16.48333,1208
16.49167,1179
16.50000,1150
16.50833,1123
16.51667,1097
16.52500,1072
16.53333,1048
16.54167,1024
16.55000,1001
16.55833,979
16.56667,958
16.57500,937
16.58333,916
16.59167,896
16.60000,876
16.60833,857
16.61667,838
16.62500,819
16.63333,800
16.64167,781
16.65000,763
16.65833,745
16.66667,727
16.67500,710
16.68333,694
16.69167,677
16.70000,661
16.70833,646
16.71667,631
16.72500,616
16.73333,602
16.74167,588
16.75000,575
16.75833,563
16.76667,551
16.77500,539
16.78333,528
16.79167,517
16.80000,507
16.80833,497
16.81667,488
16.82500,479
16.83333,470
16.84167,462
16.85000,454
16.85833,447
16.86667,440
16.87500,434
16.88333,428
16.89167,422
16.90000,417
16.90833,413
16.91667,408
16.92500,404
16.93333,400
16.94167,396
16.95000,393
16.95833,390
16.96667,386
16.97500,383
16.98333,381
16.99167,378
17.00000,376
17.00833,373
17.01667,371
17.02500,370
17.03333,368
17.04167,367
17.05000,365
17.05833,364
17.06667,363
17.07500,362
17.08333,361
17.09167,360
17.10000,359
17.10833,358
17.11667,357
17.12500,356
17.13333,356
17.14167,355
17.15000,354
17.15833,354
17.16667,354
17.17500,354
17.18333,354
17.19167,353
17.20000,353
17.20833,352
17.21667,351
17.22500,351
17.23333,350
17.24167,350
17.25000,349
17.25833,349
17.26667,349
17.27500,348
17.28333,348
17.29167,348
17.30000,348
17.30833,348
17.31667,348
17.32500,348
17.33333,348
17.34167,347
17.35000,347
17.35833,347
17.36667,347
17.37500,348
17.38333,348
17.39167,349
17.40000,350
17.40833,351
17.41667,352
17.42500,354
17.43333,355
17.44167,357
17.45000,359
17.45833,361
17.46667,364
17.47500,366
17.48333,369
17.49167,373
17.50000,376
17.50833,380
17.51667,384
17.52500,388
17.53333,393
17.54167,398
17.55000,402
17.55833,407
17.56667,413
17.57500,418
17.58333,424
17.59167,430
17.60000,436
17.60833,441
17.61667,447
17.62500,453
17.63333,459
17.64167,465
17.65000,471
17.65833,477
17.66667,482
17.67500,488
17.68333,494
17.69167,499
17.70000,504
17.70833,509
17.71667,514
17.72500,519
17.73333,523
17.74167,527
17.75000,531
17.75833,535
17.76667,539
17.77500,542
17.78333,546
17.79167,548
17.80000,551
17.80833,554
17.81667,556
17.82500,558
17.83333,559
17.84167,560
17.85000,561
17.85833,561
17.86667,561
17.87500,560
17.88333,560
17.89167,559
17.90000,558
17.90833,556
17.91667,554
17.92500,552
17.93333,549
17.94167,546
17.95000,542
17.95833,539
17.96667,534
17.97500,529
17.98333,524
17.99167,518
18.00000,513
18.00833,507
18.01667,500
18.02500,494
18.03333,487
18.04167,480
18.05000,473
18.05833,465
18.06667,458
18.07500,450
18.08333,442
18.09167,435
18.10000,427
18.10833,420
18.11667,412
18.12500,405
18.13333,397
18.14167,389
18.15000,381
18.15833,374
18.16667,366
18.17500,359
18.18333,351
18.19167,344
18.20000,337
18.20833,330
18.21667,323
18.22500,316
18.23333,310
18.24167,304
18.25000,298
18.25833,292
18.26667,286
18.27500,280
18.28333,275
18.29167,270
18.30000,265
18.30833,261
18.31667,256
18.32500,252
18.33333,248
18.34167,245
18.35000,242
18.35833,239
18.36667,236
18.37500,234
18.38333,231
18.39167,230
18.40000,228
18.40833,227
18.41667,226
18.42500,225
18.43333,224
18.44167,224
18.45000,224
18.45833,225
18.46667,225
18.47500,226
18.48333,227
18.49167,229
18.50000,230
18.50833,232
18.51667,234
18.52500,236
18.53333,239
18.54167,241
18.55000,244
18.55833,246
18.56667,249
18.57500,252
18.58333,255
18.59167,259
18.60000,262
18.60833,266
18.61667,270
18.62500,274
18.63333,278
18.64167,282
18.65000,287
18.65833,292
18.66667,296
18.67500,301
18.68333,305
18.69167,309
18.70000,314
18.70833,319
18.71667,324
18.72500,329
18.73333,335
18.74167,340
18.75000,344
18.75833,349
18.76667,354
18.77500,359
18.78333,364
18.79167,369
18.80000,373
18.80833,378
18.81667,383
18.82500,388
18.83333,393
18.84167,397
18.85000,402
18.85833,406
18.86667,410
18.87500,415
18.88333,419
18.89167,423
18.90000,426
18.90833,430
18.91667,433
18.92500,437
18.93333,440
18.94167,443
18.95000,445
18.95833,448
18.96667,451
18.97500,453
18.98333,455
18.99167,457
19.00000,458
19.00833,460
19.01667,460
19.02500,461
19.03333,462
19.04167,463
19.05000,463
19.05833,463
19.06667,463
19.07500,463
19.08333,462
19.09167,461
19.10000,460
19.10833,459
19.11667,458
19.12500,456
19.13333,454
19.14167,452
19.15000,449
19.15833,447
19.16667,443
19.17500,440
19.18333,437
19.19167,433
19.20000,429
19.20833,425
19.21667,422
19.22500,417
19.23333,413
19.24167,409
19.25000,405
19.25833,400
19.26667,395
19.27500,390
19.28333,385
19.29167,380
19.30000,375
19.30833,370
19.31667,365
19.32500,360
19.33333,354
19.34167,348
19.35000,343
19.35833,336
19.36667,330
19.37500,324
19.38333,319
19.39167,313
19.40000,307
19.40833,301
19.41667,296
19.42500,290
19.43333,283
19.44167,278
19.45000,272
19.45833,266
19.46667,260
19.47500,255
19.48333,249
19.49167,244
19.50000,238
19.50833,233
19.51667,228
19.52500,223
19.53333,218
19.54167,212
19.55000,207
19.55833,202
19.56667,197
19.57500,192
19.58333,187
19.59167,183
19.60000,179
19.60833,175
19.61667,171
19.62500,168
19.63333,164
19.64167,161
19.65000,157
19.65833,154
19.66667,151
19.67500,149
19.68333,146
19.69167,144
19.70000,143
19.70833,141
19.71667,140
19.72500,139
19.73333,139
19.74167,139
19.75000,140
19.75833,141
19.76667,142
19.77500,144
19.78333,145
19.79167,148
19.80000,150
19.80833,154
19.81667,157
19.82500,162
19.83333,167
19.84167,173
19.85000,179
19.85833,186
19.86667,194
19.87500,201
19.88333,209
19.89167,218
19.90000,227
19.90833,238
19.91667,248
19.92500,260
19.93333,272
19.94167,284
19.95000,297
19.95833,310
19.96667,324
19.97500,338
19.98333,352
19.99167,367
20.00000,382
20.00833,397
20.01667,412
20.02500,427
20.03333,442
20.04167,457
20.05000,472
20.05833,487
20.06667,502
20.07500,517
20.08333,532
20.09167,546
20.10000,560
20.10833,574
20.11667,587
20.12500,600
20.13333,613
20.14167,625
20.15000,636
20.15833,647
20.16667,657
20.17500,666
20.18333,674
20.19167,682
20.20000,690
20.20833,697
20.21667,703
20.22500,709
20.23333,714
20.24167,719
20.25000,722
20.25833,725
20.26667,727
20.27500,729
20.28333,729
20.29167,729
20.30000,729
20.30833,728
20.31667,727
20.32500,724
20.33333,722
20.34167,719
20.35000,715
20.35833,711
20.36667,706
20.37500,701
20.38333,696
20.39167,690
20.40000,683
20.40833,677
20.41667,670
20.42500,663
20.43333,656
20.44167,649
20.45000,642
20.45833,634
20.46667,628
20.47500,621
20.48333,615
20.49167,609
20.50000,603
20.50833,598
20.51667,593
20.52500,589
20.53333,585
20.54167,582
20.55000,580
20.55833,579
20.56667,578
20.57500,578
20.58333,579
20.59167,581
20.60000,583
20.60833,586
20.61667,590
20.62500,595
20.63333,601
20.64167,607
20.65000,614
20.65833,621
20.66667,629
20.67500,638
20.68333,647
20.69167,656
20.70000,666
20.70833,676
20.71667,687
20.72500,698
20.73333,708
20.74167,719
20.75000,729
20.75833,739
20.76667,749
20.77500,760
20.78333,770
20.79167,780
20.80000,789
20.80833,799
20.81667,808
20.82500,817
20.83333,825
20.84167,832
20.85000,839
20.85833,846
20.86667,852
20.87500,858
20.88333,863
20.89167,867
20.90000,871
20.90833,875
20.91667,878
20.92500,880
20.93333,881
20.94167,882
20.95000,882
20.95833,882
20.96667,881
20.97500,880
20.98333,878
20.99167,875
21.00000,872
21.00833,868
21.01667,864
21.02500,858
21.03333,852
21.04167,845
21.05000,838
21.05833,831
21.06667,822
21.07500,813
21.08333,804
21.09167,793
21.10000,783
21.10833,772
21.11667,760
21.12500,748
21.13333,735
21.14167,722
21.15000,709
21.15833,695
21.16667,681
21.17500,667
21.18333,652
21.19167,638
21.20000,623
21.20833,608
21.21667,594
21.22500,579
21.23333,565
21.24167,551
21.25000,537
21.25833,523
21.26667,509
21.27500,496
21.28333,483
21.29167,470
21.30000,458
21.30833,445
21.31667,434
21.32500,423
21.33333,412
21.34167,402
21.35000,392
21.35833,383
21.36667,375
21.37500,367
21.38333,360
21.39167,353
21.40000,347
21.40833,342
21.41667,337
21.42500,334
21.43333,331
21.44167,328
21.45000,326
21.45833,326
21.46667,326
21.47500,327
21.48333,328
21.49167,331
21.50000,334
21.50833,338
21.51667,343
21.52500,348
21.53333,354
21.54167,360
21.55000,367
21.55833,375
21.56667,383
21.57500,392
21.58333,401
21.59167,411
21.60000,421
21.60833,431
21.61667,442
21.62500,452
21.63333,462
21.64167,473
21.65000,484
21.65833,495
21.66667,505
21.67500,516
21.68333,526
21.69167,536
21.70000,546
21.70833,556
21.71667,565
21.72500,574
21.73333,582
21.74167,590
21.75000,597
21.75833,604
21.76667,611
21.77500,616
21.78333,621
21.79167,626
21.80000,631
21.80833,635
21.81667,639
21.82500,642
21.83333,645
21.84167,647
21.85000,648
21.85833,649
21.86667,649
21.87500,649
21.88333,648
21.89167,647
21.90000,646
21.90833,644
21.91667,643
21.92500,640
21.93333,637
21.94167,633
21.95000,629
21.95833,625
21.96667,619
21.97500,613
21.98333,607
21.99167,601
22.00000,593
22.00833,586
22.01667,577
22.02500,568
22.03333,559
22.04167,549
22.05000,538
22.05833,527
22.06667,516
22.07500,504
22.08333,491
22.09167,479
22.10000,466
22.10833,453
22.11667,440
22.12500,426
22.13333,412
22.14167,398
22.15000,383
22.15833,369
22.16667,354
22.17500,340
22.18333,325
22.19167,311
22.20000,297
22.20833,282
22.21667,268
22.22500,254
22.23333,241
22.24167,227
22.25000,214
22.25833,201
22.26667,188
22.27500,176
22.28333,164
22.29167,153
22.30000,143
22.30833,132
22.31667,122
22.32500,113
22.33333,104
22.34167,95
22.35000,86
22.35833,78
22.36667,70
22.37500,63
22.38333,56
22.39167,50
22.40000,44
22.40833,39
22.41667,34
22.42500,30
22.43333,26
22.44167,22
22.45000,19
22.45833,16
22.46667,13
22.47500,11
22.48333,9
22.49167,8
22.50000,7
22.50833,7
22.51667,7
22.52500,8
22.53333,9
22.54167,10
22.55000,12
22.55833,15
22.56667,18
22.57500,22
22.58333,26
22.59167,31
22.60000,36
22.60833,42
22.61667,49
22.62500,57
22.63333,65
22.64167,74
22.65000,84
22.65833,95
22.66667,106
22.67500,118
22.68333,131
22.69167,144
22.70000,158
22.70833,173
22.71667,189
22.72500,205
22.73333,221
22.74167,238
22.75000,256
22.75833,275
22.76667,294
22.77500,314
22.78333,334
22.79167,355
22.80000,376
22.80833,397
22.81667,418
22.82500,440
22.83333,461
22.84167,483
22.85000,505
22.85833,527
22.86667,548
22.87500,570
22.88333,591
22.89167,611
22.90000,632
22.90833,653
22.91667,673
22.92500,693
22.93333,713
22.94167,731
22.95000,749
22.95833,767
22.96667,784
22.97500,800
22.98333,816
22.99167,831
23.00000,845
23.00833,859
23.01667,872
23.02500,884
23.03333,896
23.04167,906
23.05000,916
23.05833,925
23.06667,933
23.07500,941
23.08333,947
23.09167,953
23.10000,957
23.10833,961
23.11667,964
23.12500,965
23.13333,966
23.14167,966
23.15000,965
23.15833,962
23.16667,959
23.17500,955
23.18333,950
23.19167,944
23.20000,937
23.20833,929
23.21667,920
23.22500,910
23.23333,899
23.24167,887
23.25000,874
23.25833,860
23.26667,845
23.27500,829
23.28333,813
23.29167,796
23.30000,779
23.30833,760
23.31667,741
23.32500,722
23.33333,703
23.34167,683
23.35000,664
23.35833,644
23.36667,623
23.37500,603
23.38333,583
23.39167,562
23.40000,542
23.40833,522
23.41667,502
23.42500,482
23.43333,463
23.44167,444
23.45000,425
23.45833,407
23.46667,390
23.47500,372
23.48333,355
23.49167,339
23.50000,324
23.50833,309
23.51667,294
23.52500,280
23.53333,266
23.54167,253
23.55000,241
23.55833,229
23.56667,217
23.57500,207
23.58333,197
23.59167,187
23.60000,178
23.60833,169
23.61667,161
23.62500,154
23.63333,147
23.64167,140
23.65000,133
23.65833,128
23.66667,122
23.67500,117
23.68333,112
23.69167,107
23.70000,102
23.70833,98
23.71667,94
23.72500,90
23.73333,87
23.74167,83
23.75000,80
23.75833,77
23.76667,74
23.77500,71
23.78333,69
23.79167,66
23.80000,64
23.80833,61
23.81667,59
23.82500,57
23.83333,55
23.84167,54
23.85000,52
23.85833,49
23.86667,47
23.87500,45
23.88333,43
23.89167,42
23.90000,40
23.90833,39
23.91667,37
23.92500,36
23.93333,34
23.94167,32
23.95000,31
23.95833,29
23.96667,28
23.97500,26
23.98333,25
23.99167,23
24.00000,21
24.00833,20
24.01667,19
24.02500,18
24.03333,16
24.04167,15
24.05000,14
24.05833,12
24.06667,11
24.07500,10
24.08333,8
24.09167,7
24.10000,6
24.10833,5
24.11667,4
24.12500,2
24.13333,1
24.14167,-0
24.15000,-1
24.15833,-2
24.16667,-3
24.17500,-4
24.18333,-5
24.19167,-5
24.20000,-6
24.20833,-7
24.21667,-7
24.22500,-8
24.23333,-8
24.24167,-9
24.25000,-9
24.25833,-9
24.26667,-9
24.27500,-10
24.28333,-10
24.29167,-10
24.30000,-10
24.30833,-10
24.31667,-9
24.32500,-7
24.33333,-6
24.34167,-4
24.35000,-2
24.35833,0
24.36667,3
24.37500,7
24.38333,11
24.39167,16
24.40000,22
24.40833,28
24.41667,36
24.42500,44
24.43333,53
24.44167,64
24.45000,76
24.45833,90
24.46667,105
24.47500,121
24.48333,140
24.49167,160
24.50000,182
24.50833,206
24.51667,232
24.52500,261
24.53333,292
24.54167,325
24.55000,361
24.55833,399
24.56667,440
24.57500,484
24.58333,531
24.59167,581
24.60000,634
24.60833,689
24.61667,748
24.62500,810
24.63333,874
24.64167,941
24.65000,1010
24.65833,1083
24.66667,1157
24.67500,1234
24.68333,1314
24.69167,1395
24.70000,1478
24.70833,1563
24.71667,1649
24.72500,1736
24.73333,1824
24.74167,1913
24.75000,2003
24.75833,2092
24.76667,2182
24.77500,2272
24.78333,2361
24.79167,2450
24.80000,2538
24.80833,2625
24.81667,2711
24.82500,2796
24.83333,2879
24.84167,2960
24.85000,3039
24.85833,3116
24.86667,3192
24.87500,3265
24.88333,3335
24.89167,3404
24.90000,3470
24.90833,3533
24.91667,3594
24.92500,3652
24.93333,3708
24.94167,3761
24.95000,3812
24.95833,3859
24.96667,3904
24.97500,3945
24.98333,3984
24.99167,4021
25.00000,4054
25.00833,4084
25.01667,4112
25.02500,4137
25.03333,4159
25.04167,4178
25.05000,4193
25.05833,4206
25.06667,4216
25.07500,4222
25.08333,4224
25.09167,4224
25.10000,4219
25.10833,4212
25.11667,4201
25.12500,4186
25.13333,4168
25.14167,4147
25.15000,4122
25.15833,4093
25.16667,4061
25.17500,4026
25.18333,3986
25.19167,3944
25.20000,3898
25.20833,3848
25.21667,3795
25.22500,3739
25.23333,3680
25.24167,3618
25.25000,3553
25.25833,3485
25.26667,3415
25.27500,3342
25.28333,3267
25.29167,3190
25.30000,3111
25.30833,3031
25.31667,2949
25.32500,2866
25.33333,2782
25.34167,2697
25.35000,2612
25.35833,2526
25.36667,2440
25.37500,2355
25.38333,2269
25.39167,2184
25.40000,2100
25.40833,2017
25.41667,1934
25.42500,1853
25.43333,1774
25.44167,1695
25.45000,1618
25.45833,1542
25.46667,1469
25.47500,1397
25.48333,1327
25.49167,1260
25.50000,1194
25.50833,1131
25.51667,1070
25.52500,1011
25.53333,954
25.54167,900
25.55000,848
25.55833,798
25.56667,750
25.57500,704
25.58333,661
25.59167,619
25.60000,579
25.60833,541
25.61667,505
25.62500,472
25.63333,439
25.64167,409
25.65000,381
25.65833,353
25.66667,328
25.67500,303
25.68333,281
25.69167,260
25.70000,239
25.70833,220
25.71667,202
25.72500,185
25.73333,169
25.74167,154
25.75000,139
25.75833,126
25.76667,113
25.77500,101
25.78333,89
25.79167,78
25.80000,68
25.80833,58
25.81667,49
25.82500,40
25.83333,32
25.84167,24
25.85000,16
25.85833,8
25.86667,1
25.87500,-6
25.88333,-12
25.89167,-19
25.90000,-25
25.90833,-31
25.91667,-37
25.92500,-43
25.93333,-49
25.94167,-55
25.95000,-61
25.95833,-66
25.96667,-72
25.97500,-77
25.98333,-81
25.99167,-86
26.00000,-91
26.00833,-96
26.01667,-100
26.02500,-105
26.03333,-109
26.04167,-114
26.05000,-119
26.05833,-124
26.06667,-129
26.07500,-133
26.08333,-137
26.09167,-142
26.10000,-146
26.10833,-150
26.11667,-154
26.12500,-157
26.13333,-161
26.14167,-165
26.15000,-169
26.15833,-172
26.16667,-176
26.17500,-178
26.18333,-181
26.19167,-184
26.20000,-188
26.20833,-191
26.21667,-193
26.22500,-196
26.23333,-199
26.24167,-201
26.25000,-203
26.25833,-205
26.26667,-207
26.27500,-209
26.28333,-211
26.29167,-213
26.30000,-216
26.30833,-217
26.31667,-219
26.32500,-220
26.33333,-222
26.34167,-223
26.35000,-224
26.35833,-226
26.36667,-227
26.37500,-228
26.38333,-229
26.39167,-230
26.40000,-231
26.40833,-232
26.41667,-232
26.42500,-233
26.43333,-234
26.44167,-235
26.45000,-235
26.45833,-236
26.46667,-236
26.47500,-237
26.48333,-237
26.49167,-238
26.50000,-238
26.50833,-238
26.51667,-238
26.52500,-238
26.53333,-238
26.54167,-238
26.55000,-239
26.55833,-239
26.56667,-239
26.57500,-239
26.58333,-239
26.59167,-239
26.60000,-239
26.60833,-239
26.61667,-239
26.62500,-239
26.63333,-239
26.64167,-239
26.65000,-239
26.65833,-239
26.66667,-239
26.67500,-239
26.68333,-239
26.69167,-239
26.70000,-239
26.70833,-239
26.71667,-239
26.72500,-239
26.73333,-239
26.74167,-239
26.75000,-239
26.75833,-239
26.76667,-239
26.77500,-239
26.78333,-238
26.79167,-238
26.80000,-238
26.80833,-238
26.81667,-237
26.82500,-237
26.83333,-238
26.84167,-238
26.85000,-239
26.85833,-239
26.86667,-239
26.87500,-239
26.88333,-239
26.89167,-239
26.90000,-239
26.90833,-239
26.91667,-239
26.92500,-239
26.93333,-239
26.94167,-239
26.95000,-239
26.95833,-239
26.96667,-239
26.97500,-239
26.98333,-239
26.99167,-239
27.00000,-239
27.00833,-239
27.01667,-239
27.02500,-239
27.03333,-239
27.04167,-239
27.05000,-238
27.05833,-238
27.06667,-239
27.07500,-239
27.08333,-239
27.09167,-239
27.10000,-239
27.10833,-239
27.11667,-239
27.12500,-239
27.13333,-239
27.14167,-239
27.15000,-239
27.15833,-239
27.16667,-239
27.17500,-239
27.18333,-239
27.19167,-239
27.20000,-240
27.20833,-240
27.21667,-240
27.22500,-240
27.23333,-240
27.24167,-240
27.25000,-240
27.25833,-240
27.26667,-240
27.27500,-240
27.28333,-240
27.29167,-241
27.30000,-241
27.30833,-241
27.31667,-241
27.32500,-242
27.33333,-242
27.34167,-243
27.35000,-243
27.35833,-244
27.36667,-244
27.37500,-244
27.38333,-245
27.39167,-245
27.40000,-245
27.40833,-246
27.41667,-247
27.42500,-248
27.43333,-248
27.44167,-249
27.45000,-249
27.45833,-250
27.46667,-250
27.47500,-251
27.48333,-252
27.49167,-252
27.50000,-253
27.50833,-254
27.51667,-254
27.52500,-255
27.53333,-256
27.54167,-256
27.55000,-258
27.55833,-259
27.56667,-259
27.57500,-261
27.58333,-261
27.59167,-262
27.60000,-263
27.60833,-264
27.61667,-265
27.62500,-266
27.63333,-267
27.64167,-268
27.65000,-269
27.65833,-271
27.66667,-272
27.67500,-273
27.68333,-274
27.69167,-275
27.70000,-276
27.70833,-277
27.71667,-278
27.72500,-279
27.73333,-281
27.74167,-282
27.75000,-283
27.75833,-284
27.76667,-285
27.77500,-286
27.78333,-287
27.79167,-288
27.80000,-289
27.80833,-290
27.81667,-290
27.82500,-291
27.83333,-292
27.84167,-292
27.85000,-293
27.85833,-294
27.86667,-295
27.87500,-296
27.88333,-296
27.89167,-297
27.90000,-298
27.90833,-298
27.91667,-299
27.92500,-299
27.93333,-299
27.94167,-300
27.95000,-301
27.95833,-301
27.96667,-301
27.97500,-302
27.98333,-302
27.99167,-302
28.00000,-303
28.00833,-303
28.01667,-304
28.02500,-304
28.03333,-304
28.04167,-304
28.05000,-304
28.05833,-304
28.06667,-304
28.07500,-304
28.08333,-304
28.09167,-304
28.10000,-303
28.10833,-303
28.11667,-303
28.12500,-303
28.13333,-303
28.14167,-303
28.15000,-302
28.15833,-302
28.16667,-302
28.17500,-302
28.18333,-302
28.19167,-301
28.20000,-301
28.20833,-300
28.21667,-300
28.22500,-299
28.23333,-299
28.24167,-298
28.25000,-297
28.25833,-297
28.26667,-296
28.27500,-295
28.28333,-294
28.29167,-293
28.30000,-292
28.30833,-291
28.31667,-290
28.32500,-289
28.33333,-287
28.34167,-286
28.35000,-284
28.35833,-281
28.36667,-278
28.37500,-275
28.38333,-273
28.39167,-270
28.40000,-266
28.40833,-262
28.41667,-257
28.42500,-251
28.43333,-246
28.44167,-240
28.45000,-233
28.45833,-226
28.46667,-218
28.47500,-209
28.48333,-200
28.49167,-190
28.50000,-179
28.50833,-167
28.51667,-154
28.52500,-139
28.53333,-124
28.54167,-108
28.55000,-91
28.55833,-72
28.56667,-52
28.57500,-31
28.58333,-9
28.59167,15
28.60000,40
28.60833,67
28.61667,95
28.62500,124
28.63333,155
28.64167,187
28.65000,221
28.65833,256
28.66667,293
28.67500,331
28.68333,370
28.69167,411
28.70000,452
28.70833,495
28.71667,539
28.72500,585
28.73333,631
28.74167,679
28.75000,727
28.75833,776
28.76667,827
28.77500,878
28.78333,929
28.79167,981
28.80000,1034
28.80833,1087
28.81667,1140
28.82500,1192
28.83333,1245
28.84167,1297
28.85000,1350
28.85833,1402
28.86667,1453
28.87500,1504
28.88333,1555
28.89167,1605
28.90000,1654
28.90833,1701
28.91667,1748
28.92500,1793
28.93333,1837
28.94167,1880
28.95000,1921
28.95833,1962
28.96667,2000
28.97500,2038
28.98333,2074
28.99167,2108
29.00000,2140
29.00833,2171
29.01667,2201
29.02500,2228
29.03333,2254
29.04167,2279
29.05000,2302
29.05833,2323
29.06667,2343
29.07500,2361
29.08333,2378
29.09167,2393
29.10000,2406
29.10833,2418
29.11667,2428
29.12500,2437
29.13333,2444
29.14167,2450
29.15000,2454
29.15833,2457
29.16667,2459
29.17500,2459
29.18333,2458
29.19167,2455
29.20000,2451
29.20833,2446
29.21667,2440
29.22500,2432
29.23333,2422
29.24167,2411
29.25000,2399
29.25833,2385
29.26667,2370
29.27500,2354
29.28333,2335
29.29167,2316
29.30000,2295
29.30833,2273
29.31667,2249
29.32500,2224
29.33333,2198
29.34167,2170
29.35000,2141
29.35833,2110
29.36667,2078
29.37500,2045
29.38333,2011
29.39167,1975
29.40000,1939
29.40833,1901
29.41667,1862
29.42500,1822
29.43333,1781
29.44167,1739
29.45000,1697
29.45833,1653
29.46667,1609
29.47500,1564
29.48333,1518
29.49167,1472
29.50000,1426
29.50833,1379
29.51667,1332
29.52500,1285
29.53333,1238
29.54167,1191
29.55000,1144
29.55833,1097
29.56667,1050
29.57500,1004
29.58333,957
29.59167,912
29.60000,867
29.60833,823
29.61667,779
29.62500,735
29.63333,693
29.64167,651
29.65000,611
29.65833,571
29.66667,532
29.67500,494
29.68333,457
29.69167,420
29.70000,385
29.70833,351
29.71667,318
29.72500,287
29.73333,256
29.74167,227
29.75000,198
29.75833,171
29.76667,145
29.77500,120
29.78333,95
29.79167,72
29.80000,49
29.80833,28
29.81667,7
29.82500,-12
29.83333,-31
29.84167,-48
29.85000,-65
29.85833,-81
29.86667,-97
29.87500,-112
29.88333,-127
29.89167,-140
29.90000,-152
29.90833,-164
29.91667,-176
29.92500,-186
29.93333,-197
29.94167,-207
29.95000,-216
29.95833,-226
29.96667,-234
29.97500,-242
29.98333,-250
29.99167,-258
30.00000,-265
30.00833,-272
30.01667,-278
30.02500,-285
30.03333,-291
30.04167,-298
30.05000,-304
30.05833,-310
30.06667,-315
30.07500,-321
30.08333,-326
30.09167,-331
30.10000,-337
30.10833,-342
30.11667,-348
30.12500,-353
30.13333,-358
30.14167,-364
30.15000,-369
30.15833,-374
30.16667,-379
30.17500,-383
30.18333,-388
30.19167,-393
30.20000,-399
30.20833,-404
30.21667,-409
30.22500,-414
30.23333,-419
30.24167,-424
30.25000,-429
30.25833,-434
30.26667,-439
30.27500,-445
30.28333,-450
30.29167,-455
30.30000,-460
30.30833,-465
30.31667,-470
30.32500,-475
30.33333,-480
30.34167,-485
30.35000,-489
30.35833,-494
30.36667,-498
30.37500,-503
30.38333,-507
30.39167,-512
30.40000,-516
30.40833,-520
30.41667,-524
30.42500,-528
30.43333,-532
30.44167,-536
30.45000,-540
30.45833,-543
30.46667,-547
30.47500,-550
30.48333,-553
30.49167,-556
30.50000,-559
30.50833,-562
30.51667,-564
30.52500,-567
30.53333,-569
30.54167,-571
30.55000,-573
30.55833,-574
30.56667,-576
30.57500,-577
30.58333,-578
30.59167,-579
30.60000,-580
30.60833,-581
30.61667,-581
30.62500,-582
30.63333,-581
30.64167,-581
30.65000,-581
30.65833,-580
30.66667,-579
30.67500,-577
30.68333,-576
30.69167,-575
30.70000,-573
30.70833,-571
30.71667,-570
30.72500,-568
30.73333,-565
30.74167,-563
30.75000,-560
30.75833,-557
30.76667,-554
30.77500,-551
30.78333,-547
30.79167,-543
30.80000,-539
30.80833,-535
30.81667,-530
30.82500,-526
30.83333,-522
30.84167,-517
30.85000,-513
30.85833,-509
30.86667,-504
30.87500,-499
30.88333,-494
30.89167,-489
30.90000,-484
30.90833,-479
30.91667,-474
30.92500,-468
30.93333,-463
30.94167,-457
30.95000,-452
30.95833,-447
30.96667,-442
30.97500,-437
30.98333,-432
30.99167,-427
31.00000,-421
31.00833,-416
31.01667,-411
31.02500,-405
31.03333,-400
31.04167,-396
31.05000,-391
31.05833,-386
31.06667,-382
31.07500,-377
31.08333,-372
31.09167,-368
31.10000,-364
31.10833,-360
31.11667,-355
31.12500,-351
31.13333,-347
31.14167,-343
31.15000,-340
31.15833,-336
31.16667,-333
31.17500,-329
31.18333,-326
31.19167,-324
31.20000,-321
31.20833,-318
31.21667,-316
31.22500,-314
31.23333,-312
31.24167,-310
31.25000,-308
31.25833,-306
31.26667,-304
31.27500,-303
31.28333,-301
31.29167,-300
31.30000,-299
31.30833,-298
31.31667,-297
31.32500,-297
31.33333,-297
31.34167,-296
31.35000,-296
31.35833,-296
31.36667,-295
31.37500,-294
31.38333,-294
31.39167,-293
31.40000,-293
31.40833,-294
31.41667,-294
31.42500,-294
31.43333,-294
31.44167,-295
31.45000,-295
31.45833,-295
31.46667,-296
31.47500,-296
31.48333,-296
31.49167,-296
31.50000,-296
31.50833,-296
31.51667,-296
31.52500,-297
31.53333,-297
31.54167,-297
31.55000,-297
31.55833,-297
31.56667,-297
31.57500,-296
31.58333,-295
31.59167,-295
31.60000,-294
31.60833,-293
31.61667,-292
31.62500,-290
31.63333,-289
31.64167,-287
31.65000,-285
31.65833,-283
31.66667,-281
31.67500,-278
31.68333,-275
31.69167,-273
31.70000,-269
31.70833,-266
31.71667,-262
31.72500,-258
31.73333,-254
31.74167,-249
31.75000,-244
31.75833,-239
31.76667,-233
31.77500,-228
31.78333,-222
31.79167,-215
31.80000,-208
31.80833,-201
31.81667,-194
31.82500,-186
31.83333,-178
31.84167,-169
31.85000,-161
31.85833,-152
31.86667,-143
31.87500,-134
31.88333,-124
31.89167,-114
31.90000,-104
31.90833,-95
31.91667,-84
31.92500,-74
31.93333,-64
31.94167,-54
31.95000,-44
31.95833,-33
31.96667,-23
31.97500,-12
31.98333,-1
31.99167,9
32.00000,20
32.00833,31
32.01667,42
32.02500,53
32.03333,63
32.04167,73
32.05000,83
32.05833,93
32.06667,103
32.07500,112
32.08333,122
32.09167,132
32.10000,141
32.10833,151
32.11667,160
32.12500,169
32.13333,177
32.14167,185
32.15000,193
32.15833,201
32.16667,209
32.17500,217
32.18333,224
32.19167,231
32.20000,238
32.20833,245
32.21667,251
32.22500,258
32.23333,264
32.24167,270
32.25000,276
32.25833,281
32.26667,286
32.27500,291
32.28333,296
32.29167,300
32.30000,304
32.30833,308
32.31667,311
32.32500,314
32.33333,317
32.34167,320
32.35000,322
32.35833,324
32.36667,325
32.37500,327
32.38333,328
32.39167,329
32.40000,329
32.40833,330
32.41667,330
32.42500,329
32.43333,328
32.44167,327
32.45000,326
32.45833,324
32.46667,322
32.47500,320
32.48333,317
32.49167,314
32.50000,311
32.50833,307
32.51667,303
32.52500,299
32.53333,295
32.54167,290
32.55000,285
32.55833,279
32.56667,273
32.57500,267
32.58333,260
32.59167,253
32.60000,246
32.60833,239
32.61667,231
32.62500,223
32.63333,216
32.64167,208
32.65000,200
32.65833,192
32.66667,184
32.67500,176
32.68333,168
32.69167,159
32.70000,151
32.70833,142
32.71667,134
32.72500,125
32.73333,116
32.74167,108
32.75000,99
32.75833,91
32.76667,82
32.77500,74
32.78333,66
32.79167,58
32.80000,50
32.80833,43
32.81667,35
32.82500,28
32.83333,20
32.84167,13
32.85000,6
32.85833,-1
32.86667,-8
32.87500,-15
32.88333,-21
32.89167,-27
32.90000,-32
32.90833,-38
32.91667,-43
32.92500,-49
32.93333,-54
32.94167,-59
32.95000,-64
32.95833,-68
32.96667,-72
32.97500,-76
32.98333,-80
32.99167,-84
33.00000,-88
33.00833,-91
33.01667,-94
33.02500,-98
33.03333,-101
33.04167,-104
33.05000,-107
33.05833,-109
33.06667,-112
33.07500,-114
33.08333,-117
33.09167,-119
33.10000,-121
33.10833,-122
33.11667,-124
33.12500,-126
33.13333,-128
33.14167,-130
33.15000,-132
33.15833,-134
33.16667,-135
33.17500,-137
33.18333,-138
33.19167,-139
33.20000,-140
33.20833,-142
33.21667,-143
33.22500,-145
33.23333,-147
33.24167,-148
33.25000,-150
33.25833,-152
33.26667,-153
33.27500,-155
33.28333,-157
33.29167,-159
33.30000,-161
33.30833,-162
33.31667,-164
33.32500,-167
33.33333,-169
33.34167,-171
33.35000,-173
33.35833,-175
33.36667,-177
33.37500,-179
33.38333,-182
33.39167,-184
33.40000,-186
33.40833,-189
33.41667,-191
33.42500,-193
33.43333,-196
33.44167,-198
33.45000,-201
33.45833,-203
33.46667,-206
33.47500,-209
33.48333,-212
33.49167,-215
33.50000,-218
33.50833,-220
33.51667,-223
33.52500,-226
33.53333,-229
33.54167,-232
33.55000,-235
33.55833,-238
33.56667,-241
33.57500,-244
33.58333,-248
33.59167,-251
33.60000,-254
33.60833,-257
33.61667,-260
33.62500,-264
33.63333,-267
33.64167,-270
33.65000,-274
33.65833,-277
33.66667,-280
33.67500,-284
33.68333,-288
33.69167,-291
33.70000,-295
33.70833,-298
33.71667,-301
33.72500,-305
33.73333,-308
33.74167,-312
33.75000,-315
33.75833,-318
33.76667,-322
33.77500,-325
33.78333,-328
33.79167,-332
33.80000,-335
33.80833,-338
33.81667,-341
33.82500,-344
33.83333,-347
33.84167,-350
33.85000,-352
33.85833,-355
33.86667,-357
33.87500,-360
33.88333,-363
33.89167,-365
33.90000,-368
33.90833,-371
33.91667,-374
33.92500,-376
33.93333,-379
33.94167,-382
33.95000,-384
33.95833,-386
33.96667,-389
33.97500,-391
33.98333,-393
33.99167,-395
34.00000,-397
34.00833,-399
34.01667,-401
34.02500,-402
34.03333,-404
34.04167,-406
34.05000,-408
34.05833,-409
34.06667,-411
34.07500,-413
34.08333,-414
34.09167,-416
34.10000,-417
34.10833,-419
34.11667,-420
34.12500,-421
34.13333,-423
34.14167,-424
34.15000,-425
34.15833,-426
34.16667,-428
34.17500,-429
34.18333,-430
34.19167,-431
34.20000,-432
34.20833,-433
34.21667,-434
34.22500,-434
34.23333,-435
34.24167,-436
34.25000,-436
34.25833,-437
34.26667,-438
34.27500,-438
34.28333,-439
34.29167,-440
34.30000,-441
34.30833,-441
34.31667,-442
34.32500,-443
34.33333,-443
34.34167,-444
34.35000,-444
34.35833,-444
34.36667,-444
34.37500,-445
34.38333,-445
34.39167,-446
34.40000,-446
34.40833,-447
34.41667,-447
34.42500,-448
34.43333,-449
34.44167,-449
34.45000,-450
34.45833,-450
34.46667,-450
34.47500,-450
34.48333,-451
34.49167,-451
34.50000,-452
34.50833,-452
34.51667,-453
34.52500,-453
34.53333,-453
34.54167,-454
34.55000,-454
34.55833,-454
34.56667,-454
34.57500,-455
34.58333,-455
34.59167,-456
34.60000,-456
34.60833,-457
34.61667,-457
34.62500,-457
34.63333,-457
34.64167,-458
34.65000,-458
34.65833,-459
34.66667,-459
34.67500,-460
34.68333,-460
34.69167,-460
34.70000,-461
34.70833,-461
34.71667,-462
34.72500,-462
34.73333,-462
34.74167,-463
34.75000,-463
34.75833,-463
34.76667,-463
34.77500,-463
34.78333,-463
34.79167,-463
34.80000,-464
34.80833,-464
34.81667,-465
34.82500,-465
34.83333,-465
34.84167,-466
34.85000,-466
34.85833,-467
34.86667,-467
34.87500,-467
34.88333,-467
34.89167,-467
34.90000,-467
34.90833,-467
34.91667,-468
34.92500,-468
34.93333,-468
34.94167,-468
34.95000,-469
34.95833,-469
34.96667,-469
34.97500,-469
34.98333,-470
34.99167,-470
35.00000,-470
35.00833,-470
35.01667,-470
35.02500,-470
35.03333,-470
35.04167,-470
35.05000,-470
35.05833,-470
35.06667,-471
35.07500,-471
35.08333,-472
35.09167,-472
35.10000,-472
35.10833,-472
35.11667,-472
35.12500,-472
35.13333,-472
35.14167,-473
35.15000,-473
35.15833,-473
35.16667,-472
35.17500,-472
35.18333,-473
35.19167,-473
35.20000,-473
35.20833,-473
35.21667,-473
35.22500,-472
35.23333,-472
35.24167,-472
35.25000,-472
35.25833,-471
35.26667,-471
35.27500,-471
35.28333,-471
35.29167,-472
35.30000,-472
35.30833,-472
35.31667,-472
35.32500,-472
35.33333,-472
35.34167,-472
35.35000,-471
35.35833,-471
35.36667,-471
35.37500,-471
35.38333,-472
35.39167,-472
35.40000,-472
35.40833,-472
35.41667,-471
35.42500,-471
35.43333,-471
35.44167,-471
35.45000,-471
35.45833,-471
35.46667,-471
35.47500,-471
35.48333,-471
35.49167,-471
35.50000,-471
35.50833,-471
35.51667,-471
35.52500,-472
35.53333,-471
35.54167,-471
35.55000,-471
35.55833,-471
35.56667,-471
35.57500,-471
35.58333,-471
35.59167,-471
35.60000,-470
35.60833,-470
35.61667,-470
35.62500,-470
35.63333,-471
35.64167,-471
35.65000,-471
35.65833,-471
35.66667,-471
35.67500,-471
35.68333,-471
35.69167,-471
35.70000,-471
35.70833,-471
35.71667,-471
35.72500,-471
35.73333,-471
35.74167,-471
35.75000,-471
35.75833,-472
35.76667,-472
35.77500,-472
35.78333,-472
35.79167,-472
35.80000,-472
35.80833,-472
35.81667,-471
35.82500,-471
35.83333,-471
35.84167,-471
35.85000,-471
35.85833,-471
35.86667,-471
35.87500,-470
35.88333,-470
35.89167,-470
35.90000,-469
35.90833,-469
35.91667,-469
35.92500,-469
35.93333,-469
35.94167,-469
35.95000,-469
35.95833,-469
35.96667,-469
35.97500,-469
35.98333,-469
35.99167,-468
36.00000,-469
36.00833,-469
36.01667,-469
36.02500,-468
36.03333,-468
36.04167,-468
36.05000,-468
36.05833,-467
36.06667,-467
36.07500,-467
36.08333,-467
36.09167,-467
36.10000,-467
36.10833,-467
36.11667,-466
36.12500,-466
36.13333,-466
36.14167,-466
36.15000,-466
36.15833,-465
36.16667,-465
36.17500,-465
36.18333,-465
36.19167,-465
36.20000,-465
36.20833,-465
36.21667,-465
36.22500,-465
36.23333,-465
36.24167,-464
36.25000,-464
36.25833,-464
36.26667,-463
36.27500,-463
36.28333,-463
36.29167,-463
36.30000,-463
36.30833,-463
36.31667,-463
36.32500,-462
36.33333,-462
36.34167,-461
36.35000,-461
36.35833,-461
36.36667,-462
36.37500,-461
36.38333,-461
36.39167,-461
36.40000,-461
36.40833,-461
36.41667,-460
36.42500,-460
36.43333,-459
36.44167,-459
36.45000,-458
36.45833,-458
36.46667,-458
36.47500,-458
36.48333,-458
36.49167,-458
36.50000,-457
36.50833,-457
36.51667,-457
36.52500,-457
36.53333,-456
36.54167,-456
36.55000,-456
36.55833,-456
36.56667,-455
36.57500,-455
36.58333,-455
36.59167,-455
36.60000,-454
36.60833,-454
36.61667,-454
36.62500,-454
36.63333,-454
36.64167,-453
36.65000,-453
36.65833,-452
36.66667,-452
36.67500,-451
36.68333,-450
36.69167,-450
36.70000,-450
36.70833,-449
36.71667,-449
36.72500,-449
36.73333,-448
36.74167,-448
36.75000,-448
36.75833,-448
36.76667,-448
36.77500,-447
36.78333,-447
36.79167,-446
36.80000,-446
36.80833,-446
36.81667,-446
36.82500,-445
36.83333,-445
36.84167,-444
36.85000,-444
36.85833,-444
36.86667,-443
36.87500,-443
36.88333,-442
36.89167,-442
36.90000,-441
36.90833,-440
36.91667,-439
36.92500,-439
36.93333,-439
36.94167,-438
36.95000,-438
36.95833,-437
36.96667,-437
36.97500,-436
36.98333,-436
36.99167,-435
37.00000,-435
37.00833,-434
37.01667,-433
37.02500,-433
37.03333,-432
37.04167,-432
37.05000,-431
37.05833,-430
37.06667,-430
37.07500,-429
37.08333,-428
37.09167,-428
37.10000,-427
37.10833,-426
37.11667,-425
37.12500,-425
37.13333,-424
37.14167,-423
37.15000,-422
37.15833,-422
37.16667,-421
37.17500,-421
37.18333,-420
37.19167,-420
37.20000,-420
37.20833,-419
37.21667,-418
37.22500,-417
37.23333,-416
37.24167,-415
37.25000,-415
37.25833,-414
37.26667,-414
37.27500,-413
37.28333,-412
37.29167,-412
37.30000,-411
37.30833,-411
37.31667,-411
37.32500,-410
37.33333,-410
37.34167,-409
37.35000,-408
37.35833,-407
37.36667,-406
37.37500,-405
37.38333,-405
37.39167,-404
37.40000,-403
37.40833,-403
37.41667,-402
37.42500,-401
37.43333,-401
37.44167,-400
37.45000,-399
37.45833,-399
37.46667,-398
37.47500,-398
37.48333,-397
37.49167,-396
37.50000,-395
37.50833,-395
37.51667,-395
37.52500,-394
37.53333,-394
37.54167,-394
37.55000,-393
37.55833,-393
37.56667,-393
37.57500,-393
37.58333,-392
37.59167,-392
37.60000,-391
37.60833,-391
37.61667,-391
37.62500,-391
37.63333,-390
37.64167,-390
37.65000,-390
37.65833,-390
37.66667,-390
37.67500,-390
37.68333,-390
37.69167,-390
37.70000,-390
37.70833,-390
37.71667,-389
37.72500,-390
37.73333,-390
37.74167,-390
37.75000,-390
37.75833,-391
37.76667,-391
37.77500,-391
37.78333,-391
37.79167,-392
37.80000,-392
37.80833,-393
37.81667,-393
37.82500,-393
37.83333,-393
37.84167,-394
37.85000,-395
37.85833,-396
37.86667,-397
37.87500,-397
37.88333,-398
37.89167,-398
37.90000,-399
37.90833,-399
37.91667,-400
37.92500,-401
37.93333,-402
37.94167,-403
37.95000,-404
37.95833,-405
37.96667,-406
37.97500,-407
37.98333,-407
37.99167,-408
38.00000,-409
38.00833,-410
38.01667,-411
38.02500,-412
38.03333,-414
38.04167,-415
38.05000,-416
38.05833,-416
38.06667,-417
38.07500,-418
38.08333,-420
38.09167,-421
38.10000,-422
38.10833,-424
38.11667,-425
38.12500,-426
38.13333,-427
38.14167,-429
38.15000,-430
38.15833,-431
38.16667,-432
38.17500,-434
38.18333,-435
38.19167,-437
38.20000,-438
38.20833,-439
38.21667,-440
38.22500,-441
38.23333,-443
38.24167,-444
38.25000,-445
38.25833,-446
38.26667,-447
38.27500,-449
38.28333,-450
38.29167,-452
38.30000,-453
38.30833,-455
38.31667,-456
38.32500,-457
38.33333,-459
38.34167,-460
38.35000,-461
38.35833,-463
38.36667,-464
38.37500,-465
38.38333,-466
38.39167,-468
38.40000,-469
38.40833,-471
38.41667,-472
38.42500,-473
38.43333,-474
38.44167,-475
38.45000,-476
38.45833,-477
38.46667,-479
38.47500,-480
38.48333,-482
38.49167,-483
38.50000,-484
38.50833,-486
38.51667,-487
38.52500,-488
38.53333,-489
38.54167,-490
38.55000,-492
38.55833,-493
38.56667,-495
38.57500,-496
38.58333,-497
38.59167,-498
38.60000,-499
38.60833,-500
38.61667,-501
38.62500,-502
38.63333,-503
38.64167,-504
38.65000,-505
38.65833,-506
38.66667,-507
38.67500,-507
38.68333,-508
38.69167,-509
38.70000,-510
38.70833,-511
38.71667,-512
38.72500,-513
38.73333,-513
38.74167,-514
38.75000,-515
38.75833,-516
38.76667,-517
38.77500,-518
38.78333,-518
38.79167,-519
38.80000,-520
38.80833,-520
38.81667,-521
38.82500,-522
38.83333,-522
38.84167,-523
38.85000,-523
38.85833,-523
38.86667,-524
38.87500,-524
38.88333,-524
38.89167,-525
38.90000,-525
38.90833,-526
38.91667,-526
38.92500,-526
38.93333,-527
38.94167,-527
38.95000,-528
38.95833,-528
38.96667,-529
38.97500,-529
38.98333,-530
38.99167,-530
39.00000,-530
39.00833,-530
39.01667,-530
39.02500,-530
39.03333,-531
39.04167,-531
39.05000,-531
39.05833,-531
39.06667,-531
39.07500,-531
39.08333,-531
39.09167,-531
39.10000,-532
39.10833,-532
39.11667,-532
39.12500,-532
39.13333,-532
39.14167,-532
39.15000,-533
39.15833,-533
39.16667,-534
39.17500,-534
39.18333,-534
39.19167,-534
39.20000,-534
39.20833,-534
39.21667,-534
39.22500,-534
39.23333,-534
39.24167,-534
39.25000,-534
39.25833,-534
39.26667,-533
39.27500,-534
39.28333,-534
39.29167,-534
39.30000,-535
39.30833,-535
39.31667,-534
39.32500,-534
39.33333,-534
39.34167,-535
39.35000,-535
39.35833,-535
39.36667,-535
39.37500,-535
39.38333,-535
39.39167,-535
39.40000,-534
39.40833,-534
39.41667,-534
39.42500,-534
39.43333,-535
39.44167,-535
39.45000,-535
39.45833,-535
39.46667,-535
39.47500,-535
39.48333,-535
39.49167,-534
39.50000,-535
39.50833,-535
39.51667,-535
39.52500,-535
39.53333,-535
39.54167,-535
39.55000,-535
39.55833,-535
39.56667,-536
39.57500,-536
39.58333,-536
39.59167,-535
39.60000,-535
39.60833,-535
39.61667,-535
39.62500,-535
39.63333,-535
39.64167,-535
39.65000,-535
39.65833,-535
39.66667,-535
39.67500,-535
39.68333,-535
39.69167,-535
39.70000,-535
39.70833,-535
39.71667,-536
39.72500,-536
39.73333,-536
39.74167,-536
39.75000,-536
39.75833,-536
39.76667,-536
39.77500,-536
39.78333,-536
39.79167,-537
39.80000,-537
39.80833,-537
39.81667,-537
39.82500,-537
39.83333,-537
39.84167,-537
39.85000,-537
39.85833,-537
39.86667,-537
39.87500,-537
39.88333,-537
39.89167,-537
39.90000,-537
39.90833,-537
39.91667,-537
39.92500,-537
39.93333,-538
39.94167,-538
39.95000,-537
39.95833,-537
39.96667,-538
39.97500,-538
39.98333,-538
39.99167,-538
40.00000,-538
40.00833,-537
40.01667,-537
40.02500,-537
40.03333,-538
40.04167,-538
40.05000,-539
40.05833,-539
40.06667,-539
40.07500,-538
40.08333,-539
40.09167,-539
40.10000,-539
40.10833,-539
40.11667,-539
40.12500,-539
40.13333,-539
40.14167,-539
40.15000,-539
40.15833,-538
40.16667,-538
40.17500,-538
40.18333,-538
40.19167,-538
40.20000,-538
40.20833,-538
40.21667,-538
40.22500,-538
40.23333,-538
40.24167,-538
40.25000,-538
40.25833,-539
40.26667,-539
40.27500,-539
40.28333,-539
40.29167,-540
40.30000,-540
40.30833,-540
40.31667,-540
40.32500,-540
40.33333,-539
40.34167,-539
40.35000,-539
40.35833,-538
40.36667,-538
40.37500,-538
40.38333,-538
40.39167,-538
40.40000,-538
40.40833,-538
40.41667,-538
40.42500,-538
40.43333,-538
40.44167,-538
40.45000,-538
40.45833,-538
40.46667,-537
40.47500,-538
40.48333,-538
40.49167,-537
40.50000,-537
40.50833,-537
40.51667,-537
40.52500,-537
40.53333,-537
40.54167,-537
40.55000,-537
40.55833,-536
40.56667,-536
40.57500,-536
40.58333,-536
40.59167,-535
40.60000,-535
40.60833,-535
40.61667,-535
40.62500,-535
40.63333,-534
40.64167,-534
40.65000,-534
40.65833,-534
40.66667,-533
40.67500,-533
40.68333,-532
40.69167,-532
40.70000,-532
40.70833,-532
40.71667,-532
40.72500,-531
40.73333,-531
40.74167,-530
40.75000,-530
40.75833,-530
40.76667,-530
40.77500,-529
40.78333,-529
40.79167,-529
40.80000,-528
40.80833,-528
40.81667,-528
40.82500,-527
40.83333,-527
40.84167,-526
40.85000,-526
40.85833,-525
40.86667,-525
40.87500,-524
40.88333,-523
40.89167,-523
40.90000,-522
40.90833,-521
40.91667,-521
40.92500,-520
40.93333,-519
40.94167,-519
40.95000,-518
40.95833,-518
40.96667,-517
40.97500,-516
40.98333,-516
40.99167,-515
41.00000,-514
41.00833,-514
41.01667,-513
41.02500,-512
41.03333,-511
41.04167,-510
41.05000,-509
41.05833,-509
41.06667,-508
41.07500,-507
41.08333,-506
41.09167,-505
41.10000,-505
41.10833,-504
41.11667,-503
41.12500,-502
41.13333,-501
41.14167,-500
41.15000,-499
41.15833,-498
41.16667,-497
41.17500,-497
41.18333,-496
41.19167,-495
41.20000,-494
41.20833,-493
41.21667,-491
41.22500,-490
41.23333,-489
41.24167,-487
41.25000,-486
41.25833,-485
41.26667,-484
41.27500,-483
41.28333,-482
41.29167,-481
41.30000,-479
41.30833,-478
41.31667,-477
41.32500,-476
41.33333,-475
41.34167,-473
41.35000,-472
41.35833,-470
41.36667,-469
41.37500,-468
41.38333,-467
41.39167,-465
41.40000,-464
41.40833,-463
41.41667,-461
41.42500,-460
41.43333,-459
41.44167,-457
41.45000,-457
41.45833,-455
41.46667,-454
41.47500,-453
41.48333,-452
41.49167,-450
41.50000,-449
41.50833,-447
41.51667,-446
41.52500,-445
41.53333,-444
41.54167,-443
41.55000,-442
41.55833,-440
41.56667,-439
41.57500,-437
41.58333,-435
41.59167,-434
41.60000,-433
41.60833,-432
41.61667,-430
41.62500,-429
41.63333,-428
41.64167,-427
41.65000,-426
41.65833,-425
41.66667,-423
41.67500,-422
41.68333,-421
41.69167,-420
41.70000,-419
41.70833,-418
41.71667,-416
41.72500,-415
41.73333,-414
41.74167,-413
41.75000,-412
41.75833,-411
41.76667,-410
41.77500,-409
41.78333,-408
41.79167,-407
41.80000,-406
41.80833,-404
41.81667,-403
41.82500,-402
41.83333,-401
41.84167,-401
41.85000,-400
41.85833,-399
41.86667,-398
41.87500,-397
41.88333,-396
41.89167,-396
41.90000,-395
41.90833,-395
41.91667,-394
41.92500,-393
41.93333,-392
41.94167,-391
41.95000,-390
41.95833,-390
41.96667,-389
41.97500,-389
41.98333,-388
41.99167,-387
42.00000,-387
42.00833,-386
42.01667,-386
42.02500,-385
42.03333,-385
42.04167,-384
42.05000,-384
42.05833,-383
42.06667,-383
42.07500,-382
42.08333,-382
42.09167,-382
42.10000,-382
42.10833,-382
42.11667,-382
42.12500,-382
42.13333,-382
42.14167,-381
42.15000,-381
42.15833,-381
42.16667,-381
42.17500,-381
42.18333,-381
42.19167,-382
42.20000,-382
42.20833,-382
42.21667,-382
42.22500,-382
42.23333,-382
42.24167,-382
42.25000,-382
42.25833,-382
42.26667,-382
42.27500,-382
42.28333,-382
42.29167,-382
42.30000,-383
42.30833,-383
42.31667,-383
42.32500,-383
42.33333,-383
42.34167,-383
42.35000,-384
42.35833,-384
42.36667,-385
42.37500,-385
42.38333,-386
42.39167,-386
42.40000,-387
42.40833,-388
42.41667,-388
42.42500,-388
42.43333,-389
42.44167,-389
42.45000,-390
42.45833,-390
42.46667,-391
42.47500,-392
42.48333,-392
42.49167,-393
42.50000,-394
42.50833,-394
42.51667,-395
42.52500,-395
42.53333,-396
42.54167,-397
42.55000,-398
42.55833,-399
42.56667,-400
42.57500,-401
42.58333,-402
42.59167,-402
42.60000,-403
42.60833,-404
42.61667,-404
42.62500,-405
42.63333,-406
42.64167,-407
42.65000,-408
42.65833,-409
42.66667,-410
42.67500,-410
42.68333,-411
42.69167,-412
42.70000,-413
42.70833,-414
42.71667,-415
42.72500,-416
42.73333,-416
42.74167,-418
42.75000,-419
42.75833,-420
42.76667,-421
42.77500,-422
42.78333,-422
42.79167,-423
42.80000,-424
42.80833,-425
42.81667,-427
42.82500,-428
42.83333,-429
42.84167,-430
42.85000,-431
42.85833,-432
42.86667,-433
42.87500,-434
42.88333,-435
42.89167,-436
42.90000,-437
42.90833,-438
42.91667,-439
42.92500,-440
42.93333,-441
42.94167,-442
42.95000,-443
42.95833,-444
42.96667,-445
42.97500,-446
42.98333,-447
42.99167,-448
43.00000,-449
43.00833,-450
43.01667,-451
43.02500,-452
43.03333,-453
43.04167,-454
43.05000,-455
43.05833,-456
43.06667,-457
43.07500,-458
43.08333,-459
43.09167,-460
43.10000,-462
43.10833,-462
43.11667,-463
43.12500,-464
43.13333,-465
43.14167,-466
43.15000,-467
43.15833,-468
43.16667,-469
43.17500,-470
43.18333,-471
43.19167,-472
43.20000,-473
43.20833,-474
43.21667,-475
43.22500,-476
43.23333,-477
43.24167,-478
43.25000,-479
43.25833,-480
43.26667,-480
43.27500,-481
43.28333,-482
43.29167,-483
43.30000,-485
43.30833,-486
43.31667,-487
43.32500,-488
43.33333,-489
43.34167,-489
43.35000,-490
43.35833,-491
43.36667,-492
43.37500,-494
43.38333,-495
43.39167,-496
43.40000,-497
43.40833,-498
43.41667,-499
43.42500,-499
43.43333,-500
43.44167,-500
43.45000,-501
43.45833,-502
43.46667,-503
43.47500,-504
43.48333,-505
43.49167,-506
43.50000,-507
43.50833,-508
43.51667,-509
43.52500,-509
43.53333,-510
43.54167,-511
43.55000,-512
43.55833,-512
43.56667,-512
43.57500,-513
43.58333,-515
43.59167,-516
43.60000,-517
43.60833,-518
43.61667,-518
43.62500,-519
43.63333,-520
43.64167,-521
43.65000,-522
43.65833,-523
43.66667,-524
43.67500,-525
43.68333,-525
43.69167,-526
43.70000,-527
43.70833,-528
43.71667,-529
43.72500,-529
43.73333,-530
43.74167,-531
43.75000,-532
43.75833,-533
43.76667,-534
43.77500,-535
43.78333,-536
43.79167,-536
43.80000,-537
43.80833,-538
43.81667,-538
43.82500,-539
43.83333,-540
43.84167,-540
43.85000,-541
43.85833,-542
43.86667,-543
43.87500,-544
43.88333,-545
43.89167,-546
43.90000,-546
43.90833,-547
43.91667,-547
43.92500,-548
43.93333,-549
43.94167,-550
43.95000,-551
43.95833,-552
43.96667,-553
43.97500,-554
43.98333,-554
43.99167,-555
44.00000,-556
44.00833,-557
44.01667,-557
44.02500,-558
44.03333,-558
44.04167,-559
44.05000,-560
44.05833,-560
44.06667,-561
44.07500,-561
44.08333,-562
44.09167,-563
44.10000,-563
44.10833,-564
44.11667,-565
44.12500,-566
44.13333,-566
44.14167,-567
44.15000,-568
44.15833,-568
44.16667,-569
44.17500,-569
44.18333,-570
44.19167,-570
44.20000,-570
44.20833,-571
44.21667,-571
44.22500,-572
44.23333,-573
44.24167,-573
44.25000,-574
44.25833,-575
44.26667,-575
44.27500,-576
44.28333,-577
44.29167,-577
44.30000,-577
44.30833,-578
44.31667,-578
44.32500,-579
44.33333,-579
44.34167,-580
44.35000,-580
44.35833,-581
44.36667,-581
44.37500,-581
44.38333,-581
44.39167,-582
44.40000,-583
44.40833,-583
44.41667,-584
44.42500,-584
44.43333,-585
44.44167,-585
44.45000,-585
44.45833,-586
44.46667,-586
44.47500,-587
44.48333,-587
44.49167,-587
44.50000,-587
44.50833,-588
44.51667,-589
44.52500,-589
44.53333,-589
44.54167,-590
44.55000,-590
44.55833,-591
44.56667,-591
44.57500,-591
44.58333,-592
44.59167,-592
44.60000,-593
44.60833,-593
44.61667,-593
44.62500,-593
44.63333,-593
44.64167,-594
44.65000,-594
44.65833,-595
44.66667,-595
44.67500,-595
44.68333,-595
44.69167,-596
44.70000,-596
44.70833,-597
44.71667,-598
44.72500,-598
44.73333,-598
44.74167,-598
44.75000,-599
44.75833,-599
44.76667,-599
44.77500,-600
44.78333,-600
44.79167,-600
44.80000,-601
44.80833,-601
44.81667,-601
44.82500,-601
44.83333,-601
44.84167,-601
44.85000,-601
44.85833,-602
44.86667,-602
44.87500,-603
44.88333,-603
44.89167,-603
44.90000,-604
44.90833,-604
44.91667,-604
44.92500,-604
44.93333,-604
44.94167,-604
44.95000,-604
44.95833,-604
44.96667,-604
44.97500,-604
44.98333,-604
44.99167,-604
45.00000,-605
45.00833,-606
45.01667,-606
45.02500,-606
45.03333,-606
45.04167,-606
45.05000,-606
45.05833,-606
45.06667,-606
45.07500,-606
45.08333,-606
45.09167,-606
45.10000,-606
45.10833,-607
45.11667,-607
45.12500,-607
45.13333,-607
45.14167,-607
45.15000,-607
45.15833,-607
45.16667,-607
45.17500,-607
45.18333,-607
45.19167,-608
45.20000,-608
45.20833,-608
45.21667,-608
45.22500,-608
45.23333,-608
45.24167,-608
45.25000,-608
45.25833,-607
45.26667,-607
45.27500,-608
45.28333,-608
45.29167,-608
45.30000,-608
45.30833,-608
45.31667,-608
45.32500,-608
45.33333,-608
45.34167,-608
45.35000,-608
45.35833,-608
45.36667,-608
45.37500,-608
45.38333,-608
45.39167,-608
45.40000,-608
45.40833,-608
45.41667,-609
45.42500,-609
45.43333,-609
45.44167,-609
45.45000,-609
45.45833,-609
45.46667,-609
45.47500,-609
45.48333,-609
45.49167,-609
45.50000,-609
45.50833,-609
45.51667,-609
45.52500,-609
45.53333,-609
45.54167,-609
45.55000,-609
45.55833,-609
45.56667,-609
45.57500,-609
45.58333,-609
45.59167,-609
45.60000,-609
45.60833,-610
45.61667,-610
45.62500,-610
45.63333,-610
45.64167,-610
45.65000,-610
45.65833,-611
45.66667,-611
45.67500,-611
45.68333,-611
45.69167,-611
45.70000,-611
45.70833,-611
45.71667,-611
45.72500,-612
45.73333,-612
45.74167,-612
45.75000,-613
45.75833,-612
45.76667,-612
45.77500,-612
45.78333,-613
45.79167,-613
45.80000,-613
45.80833,-613
45.81667,-613
45.82500,-613
45.83333,-613
45.84167,-614
45.85000,-614
45.85833,-614
45.86667,-614
45.87500,-614
45.88333,-615
45.89167,-615
45.90000,-615
45.90833,-616
45.91667,-616
45.92500,-616
45.93333,-616
45.94167,-616
45.95000,-616
45.95833,-616
45.96667,-616
45.97500,-617
45.98333,-617
45.99167,-618
46.00000,-618
46.00833,-618
46.01667,-618
46.02500,-619
46.03333,-619
46.04167,-618
46.05000,-618
46.05833,-618
46.06667,-619
46.07500,-619
46.08333,-620
46.09167,-620
46.10000,-620
46.10833,-620
46.11667,-621
46.12500,-621
46.13333,-621
46.14167,-622
46.15000,-622
46.15833,-623
46.16667,-623
46.17500,-624
46.18333,-624
46.19167,-624
46.20000,-625
46.20833,-625
46.21667,-626
46.22500,-626
46.23333,-626
46.24167,-626
46.25000,-626
46.25833,-626
46.26667,-626
46.27500,-627
46.28333,-627
46.29167,-627
46.30000,-627
46.30833,-628
46.31667,-628
46.32500,-629
46.33333,-629
46.34167,-630
46.35000,-630
46.35833,-630
46.36667,-630
46.37500,-631
46.38333,-631
46.39167,-632
46.40000,-632
46.40833,-632
46.41667,-633
46.42500,-633
46.43333,-634
46.44167,-634
46.45000,-634
46.45833,-635
46.46667,-635
46.47500,-635
46.48333,-636
46.49167,-636
46.50000,-636
46.50833,-636
46.51667,-637
46.52500,-637
46.53333,-637
46.54167,-638
46.55000,-638
46.55833,-639
46.56667,-639
46.57500,-640
46.58333,-640
46.59167,-640
46.60000,-640
46.60833,-640
46.61667,-641
46.62500,-641
46.63333,-641
46.64167,-642
46.65000,-642
46.65833,-642
46.66667,-643
46.67500,-643
46.68333,-643
46.69167,-643
46.70000,-643
46.70833,-644
46.71667,-644
46.72500,-644
46.73333,-644
46.74167,-645
46.75000,-645
46.75833,-645
46.76667,-645
46.77500,-645
46.78333,-645
46.79167,-646
46.80000,-646
46.80833,-646
46.81667,-647
46.82500,-647
46.83333,-647
46.84167,-647
46.85000,-647
46.85833,-648
46.86667,-648
46.87500,-647
46.88333,-647
46.89167,-648
46.90000,-647
46.90833,-647
46.91667,-647
46.92500,-647
46.93333,-648
46.94167,-648
46.95000,-648
46.95833,-648
46.96667,-648
46.97500,-648
46.98333,-648
46.99167,-648
47.00000,-648
47.00833,-648
47.01667,-648
47.02500,-648
47.03333,-649
47.04167,-649
47.05000,-649
47.05833,-648
47.06667,-648
47.07500,-648
47.08333,-648
47.09167,-648
47.10000,-648
47.10833,-648
47.11667,-648
47.12500,-648
47.13333,-647
47.14167,-647
47.15000,-647
47.15833,-646
47.16667,-646
47.17500,-645
47.18333,-645
47.19167,-645
47.20000,-644
47.20833,-644
47.21667,-643
47.22500,-643
47.23333,-643
47.24167,-643
47.25000,-642
47.25833,-642
47.26667,-642
47.27500,-641
47.28333,-640
47.29167,-640
47.30000,-639
47.30833,-639
47.31667,-638
47.32500,-638
47.33333,-637
47.34167,-637
47.35000,-636
47.35833,-635
47.36667,-635
47.37500,-634
47.38333,-633
47.39167,-633
47.40000,-633
47.40833,-633
47.41667,-632
47.42500,-632
47.43333,-631
47.44167,-630
47.45000,-628
47.45833,-627
47.46667,-627
47.47500,-626
47.48333,-626
47.49167,-625
47.50000,-624
47.50833,-624
47.51667,-623
47.52500,-623
47.53333,-622
47.54167,-622
47.55000,-621
47.55833,-620
47.56667,-619
47.57500,-618
47.58333,-617
47.59167,-616
47.60000,-616
47.60833,-615
47.61667,-614
47.62500,-613
47.63333,-613
47.64167,-612
47.65000,-611
47.65833,-611
47.66667,-610
47.67500,-609
47.68333,-609
47.69167,-608
47.70000,-607
47.70833,-607
47.71667,-606
47.72500,-605
47.73333,-605
47.74167,-604
47.75000,-603
47.75833,-603
47.76667,-603
47.77500,-602
47.78333,-602
47.79167,-601
47.80000,-600
47.80833,-600
47.81667,-599
47.82500,-598
47.83333,-597
47.84167,-597
47.85000,-597
47.85833,-597
47.86667,-597
47.87500,-596
47.88333,-596
47.89167,-596
47.90000,-595
47.90833,-595
47.91667,-594
47.92500,-594
47.93333,-593
47.94167,-593
47.95000,-593
47.95833,-593
47.96667,-592
47.97500,-592
47.98333,-591
47.99167,-591
48.00000,-591
48.00833,-591
48.01667,-591
48.02500,-590
48.03333,-590
48.04167,-590
48.05000,-590
48.05833,-590
48.06667,-589
48.07500,-589
48.08333,-589
48.09167,-589
48.10000,-589
48.10833,-589
48.11667,-588
48.12500,-588
48.13333,-588
48.14167,-588
48.15000,-587
48.15833,-587
48.16667,-587
48.17500,-587
48.18333,-587
48.19167,-587
48.20000,-587
48.20833,-587
48.21667,-587
48.22500,-587
48.23333,-587
48.24167,-587
48.25000,-587
48.25833,-587
48.26667,-587
48.27500,-587
48.28333,-587
48.29167,-587
48.30000,-587
48.30833,-587
48.31667,-587
48.32500,-587
48.33333,-587
48.34167,-587
48.35000,-586
48.35833,-587
48.36667,-587
48.37500,-587
48.38333,-587
48.39167,-587
48.40000,-587
48.40833,-587
48.41667,-587
48.42500,-586
48.43333,-586
48.44167,-587
48.45000,-587
48.45833,-588
48.46667,-588
48.47500,-589
48.48333,-589
48.49167,-589
48.50000,-590
48.50833,-590
48.51667,-590
48.52500,-590
48.53333,-589
48.54167,-589
48.55000,-589
48.55833,-589
48.56667,-590
48.57500,-590
48.58333,-590
48.59167,-590
48.60000,-590
48.60833,-589
48.61667,-589
48.62500,-589
48.63333,-590
48.64167,-590
48.65000,-590
48.65833,-590
48.66667,-590
48.67500,-590
48.68333,-590
48.69167,-591
48.70000,-591
48.70833,-591
48.71667,-591
48.72500,-591
48.73333,-591
48.74167,-591
48.75000,-591
48.75833,-592
48.76667,-592
48.77500,-592
48.78333,-592
48.79167,-592
48.80000,-592
48.80833,-592
48.81667,-591
48.82500,-591
48.83333,-591
48.84167,-592
48.85000,-591
48.85833,-591
48.86667,-591
48.87500,-592
48.88333,-592
48.89167,-592
48.90000,-592
48.90833,-592
48.91667,-591
48.92500,-591
48.93333,-591
48.94167,-591
48.95000,-591
48.95833,-591
48.96667,-591
48.97500,-591
48.98333,-591
48.99167,-591
49.00000,-591
49.00833,-591
49.01667,-591
49.02500,-591
49.03333,-592
49.04167,-592
49.05000,-592
49.05833,-592
49.06667,-592
49.07500,-592
49.08333,-592
49.09167,-593
49.10000,-593
49.10833,-593
49.11667,-593
49.12500,-594
49.13333,-594
49.14167,-594
49.15000,-594
49.15833,-594
49.16667,-595
49.17500,-595
49.18333,-595
49.19167,-595
49.20000,-595
49.20833,-595
49.21667,-595
49.22500,-596
49.23333,-596
49.24167,-596
49.25000,-596
49.25833,-597
49.26667,-597
49.27500,-597
49.28333,-597
49.29167,-598
49.30000,-598
49.30833,-598
49.31667,-598
49.32500,-599
49.33333,-600
49.34167,-600
49.35000,-601
49.35833,-601
49.36667,-602
49.37500,-602
49.38333,-602
49.39167,-602
49.40000,-602
49.40833,-603
49.41667,-603
49.42500,-603
49.43333,-603
49.44167,-604
49.45000,-604
49.45833,-604
49.46667,-605
49.47500,-605
49.48333,-605
49.49167,-606
49.50000,-606
49.50833,-607
49.51667,-607
49.52500,-607
49.53333,-608
49.54167,-608
49.55000,-608
49.55833,-609
49.56667,-610
49.57500,-610
49.58333,-611
49.59167,-612
49.60000,-612
49.60833,-613
49.61667,-614
49.62500,-615
49.63333,-616
49.64167,-616
49.65000,-617
49.65833,-617
49.66667,-618
49.67500,-618
49.68333,-619
49.69167,-619
49.70000,-620
49.70833,-620
49.71667,-621
49.72500,-621
49.73333,-622
49.74167,-623
49.75000,-624
49.75833,-625
49.76667,-626
49.77500,-627
49.78333,-628
49.79167,-629
49.80000,-629
49.80833,-630
49.81667,-631
49.82500,-631
49.83333,-632
49.84167,-633
49.85000,-634
49.85833,-635
49.86667,-636
49.87500,-637
49.88333,-637
49.89167,-638
49.90000,-639
49.90833,-640
49.91667,-641
49.92500,-642
49.93333,-643
49.94167,-644
49.95000,-645
49.95833,-646
49.96667,-647
49.97500,-647
49.98333,-648
49.99167,-649
50.00000,-650

