[Header]
Application Name,LabSolutions
Version,5.97 SP1
Data File Name,C:\Users\cremerlab\Desktop\Richa\May_12th_2022_yield_expt\May 12th_5122022_001_007.lcd
Output Date,5/12/2022
Output Time,8:56:07 PM

[File Information]
Type,Data File
Generated,5/12/2022 8:15:46 PM
Generated by,System Administrator
Modified,5/12/2022 8:56:07 PM
Modified by,System Administrator

[Sample Information]
Operator Name,System Administrator
Acquired,5/12/2022 8:16:07 PM
Sample Type,0:Unknown
Level,0
Sample Name,220512_BF_3
Sample ID,001
ISTD Amount1,1
ISTD Amount2,1
ISTD Amount3,1
ISTD Amount4,1
ISTD Amount5,1
ISTD Amount6,1
ISTD Amount7,1
ISTD Amount8,1
ISTD Amount9,1
ISTD Amount10,1
ISTD Amount11,1
ISTD Amount12,1
ISTD Amount13,1
ISTD Amount14,1
ISTD Amount15,1
ISTD Amount16,1
ISTD Amount17,1
ISTD Amount18,1
ISTD Amount19,1
ISTD Amount20,1
ISTD Amount21,1
ISTD Amount22,1
ISTD Amount23,1
ISTD Amount24,1
ISTD Amount25,1
ISTD Amount26,1
ISTD Amount27,1
ISTD Amount28,1
ISTD Amount29,1
ISTD Amount30,1
ISTD Amount31,1
ISTD Amount32,1
Sample Amount,1
Dilution Factor,1
Vial#,6
Injection Volume,20

[Original Files]
Data File,C:\Users\cremerlab\Desktop\Richa\May_12th_2022_yield_expt\May 12th_5122022_001_007.lcd
Method File,C:\Users\cremerlab\Desktop\Richa\acetate_excretion.lcm
Batch File,C:\Users\cremerlab\Desktop\Richa\May_12th_2022_yield_expt\May 12th.lcb
Report Format File,c:\LabSolutions\System\DEFAULT.lsr

[File Description]


[Configuration]
Instrument Name,HPLC-PC-Instrument1
Instrument #,1
Line #,1
# of Detectors,2
Detector ID,Detector A,Detector B
Detector Name,Detector A,Detector B
# of Channels,1,1

[Peak Table(Detector A)]
# of Peaks,0

[Peak Table(Detector B)]
# of Peaks,9
Peak#,R.Time,I.Time,F.Time,Area,Height,A/H,Conc.,Mark,ID#,Name,k',Plate #,Plate Ht.,Tailing,Resolution,Sep.Factor,Area Ratio,Height Ratio,Conc. %,Norm Conc.
1,11.079,10.650,12.458,2182026,131381,16.608,0.000,   ,,,0.000,10211,14.690,0.899,0.000,0.000,0,0,0.000,0.000
2,14.487,12.733,15.383,3796398,78750,48.208,0.000,   ,,,0.308,2658,56.435,0.000,4.362,0.000,0,0,0.000,0.000
3,15.863,15.383,20.200,1875913,67228,27.904,0.000, V ,,,0.432,10149,14.780,0.000,1.570,1.404,0,0,0.000,0.000
4,21.187,20.775,21.467,4972,200,24.918,0.000,   ,,,0.912,11776,12.738,0.000,7.547,2.113,0,0,0.000,0.000
5,21.685,21.467,22.250,3952,159,24.885,0.000, V ,,,0.957,8516,17.614,0.000,0.579,1.049,0,0,0.000,0.000
6,23.278,22.817,23.908,7776,293,26.546,0.000,   ,,,1.101,17075,8.785,1.096,1.927,1.150,0,0,0.000,0.000
7,25.205,24.683,25.908,14398,505,28.539,0.000,   ,,,1.275,17409,8.616,1.085,2.610,1.158,0,0,0.000,0.000
8,29.446,28.933,30.625,24856,432,57.498,0.000,   ,,,1.658,279,537.304,1.671,1.086,1.300,0,0,0.000,0.000
9,32.261,30.700,33.117,44934,703,63.879,0.000,   ,,,1.912,10881,13.785,0.747,0.680,1.153,0,0,0.000,0.000

[LC Chromatogram(Detector B-Ch1)]
Interval(msec),500
# of Points,4801
Start Time(min),0.000
End Time(min),40.000
Intensity Units,mV
Intensity Multiplier,0.001
R.Time (min),Intensity
0.00000,-1
0.00833,-1
0.01667,0
0.02500,0
0.03333,0
0.04167,0
0.05000,0
0.05833,0
0.06667,0
0.07500,0
0.08333,0
0.09167,0
0.10000,1
0.10833,1
0.11667,1
0.12500,1
0.13333,0
0.14167,0
0.15000,0
0.15833,-0
0.16667,-0
0.17500,-0
0.18333,-0
0.19167,-0
0.20000,-0
0.20833,-0
0.21667,-0
0.22500,-0
0.23333,-0
0.24167,0
0.25000,1
0.25833,0
0.26667,0
0.27500,0
0.28333,-0
0.29167,-0
0.30000,-0
0.30833,-1
0.31667,-1
0.32500,-0
0.33333,-0
0.34167,0
0.35000,0
0.35833,0
0.36667,0
0.37500,0
0.38333,-0
0.39167,-0
0.40000,-1
0.40833,-1
0.41667,-2
0.42500,-2
0.43333,-2
0.44167,-2
0.45000,-1
0.45833,-1
0.46667,-1
0.47500,-1
0.48333,-1
0.49167,-1
0.50000,-1
0.50833,-1
0.51667,-1
0.52500,-2
0.53333,-2
0.54167,-2
0.55000,-2
0.55833,-2
0.56667,-2
0.57500,-2
0.58333,-2
0.59167,-1
0.60000,-1
0.60833,-1
0.61667,-1
0.62500,-1
0.63333,-2
0.64167,-2
0.65000,-2
0.65833,-2
0.66667,-2
0.67500,-2
0.68333,-2
0.69167,-2
0.70000,-2
0.70833,-2
0.71667,-2
0.72500,-2
0.73333,-1
0.74167,-1
0.75000,-1
0.75833,-1
0.76667,-1
0.77500,-1
0.78333,-1
0.79167,-1
0.80000,-1
0.80833,-1
0.81667,-1
0.82500,-1
0.83333,-1
0.84167,-1
0.85000,-1
0.85833,-1
0.86667,-1
0.87500,-1
0.88333,-1
0.89167,-1
0.90000,-1
0.90833,-1
0.91667,-1
0.92500,-1
0.93333,-1
0.94167,-1
0.95000,-1
0.95833,-1
0.96667,-1
0.97500,-1
0.98333,-1
0.99167,-1
1.00000,-1
1.00833,-1
1.01667,-1
1.02500,-1
1.03333,-1
1.04167,-1
1.05000,-1
1.05833,-1
1.06667,-1
1.07500,-1
1.08333,-1
1.09167,-1
1.10000,-1
1.10833,-1
1.11667,-1
1.12500,-1
1.13333,-1
1.14167,-1
1.15000,-1
1.15833,-0
1.16667,-0
1.17500,-1
1.18333,-1
1.19167,-1
1.20000,-1
1.20833,-1
1.21667,-1
1.22500,-1
1.23333,-1
1.24167,-1
1.25000,-1
1.25833,-1
1.26667,-1
1.27500,-1
1.28333,-1
1.29167,-0
1.30000,0
1.30833,0
1.31667,1
1.32500,0
1.33333,-0
1.34167,-0
1.35000,-1
1.35833,-1
1.36667,-1
1.37500,-1
1.38333,-1
1.39167,-0
1.40000,-0
1.40833,-1
1.41667,-0
1.42500,-1
1.43333,-1
1.44167,-1
1.45000,-0
1.45833,-0
1.46667,-0
1.47500,-1
1.48333,-1
1.49167,-1
1.50000,-1
1.50833,-1
1.51667,-1
1.52500,-1
1.53333,-1
1.54167,-1
1.55000,-1
1.55833,-0
1.56667,-0
1.57500,-0
1.58333,-0
1.59167,-0
1.60000,-0
1.60833,-1
1.61667,-1
1.62500,-0
1.63333,-1
1.64167,-1
1.65000,-1
1.65833,-1
1.66667,-1
1.67500,-0
1.68333,-0
1.69167,-0
1.70000,-1
1.70833,-1
1.71667,-1
1.72500,-1
1.73333,-1
1.74167,-1
1.75000,-0
1.75833,-0
1.76667,0
1.77500,0
1.78333,1
1.79167,1
1.80000,0
1.80833,0
1.81667,0
1.82500,0
1.83333,0
1.84167,0
1.85000,0
1.85833,0
1.86667,0
1.87500,0
1.88333,0
1.89167,0
1.90000,0
1.90833,1
1.91667,0
1.92500,0
1.93333,1
1.94167,1
1.95000,1
1.95833,1
1.96667,1
1.97500,0
1.98333,0
1.99167,0
2.00000,0
2.00833,-0
2.01667,-0
2.02500,-1
2.03333,-1
2.04167,-1
2.05000,-1
2.05833,-0
2.06667,-0
2.07500,-1
2.08333,-1
2.09167,-1
2.10000,-0
2.10833,-0
2.11667,0
2.12500,0
2.13333,1
2.14167,1
2.15000,1
2.15833,1
2.16667,1
2.17500,1
2.18333,1
2.19167,1
2.20000,1
2.20833,1
2.21667,1
2.22500,1
2.23333,1
2.24167,1
2.25000,1
2.25833,1
2.26667,1
2.27500,1
2.28333,1
2.29167,1
2.30000,1
2.30833,1
2.31667,1
2.32500,1
2.33333,0
2.34167,0
2.35000,0
2.35833,0
2.36667,0
2.37500,0
2.38333,1
2.39167,1
2.40000,1
2.40833,1
2.41667,1
2.42500,1
2.43333,1
2.44167,1
2.45000,1
2.45833,1
2.46667,1
2.47500,0
2.48333,0
2.49167,0
2.50000,0
2.50833,-0
2.51667,-0
2.52500,-0
2.53333,0
2.54167,0
2.55000,1
2.55833,1
2.56667,1
2.57500,1
2.58333,1
2.59167,1
2.60000,1
2.60833,1
2.61667,0
2.62500,0
2.63333,0
2.64167,0
2.65000,0
2.65833,0
2.66667,-0
2.67500,-1
2.68333,-1
2.69167,-1
2.70000,-1
2.70833,-0
2.71667,-0
2.72500,-0
2.73333,-0
2.74167,0
2.75000,0
2.75833,0
2.76667,0
2.77500,0
2.78333,0
2.79167,0
2.80000,-0
2.80833,-0
2.81667,-0
2.82500,-0
2.83333,-0
2.84167,-0
2.85000,-0
2.85833,0
2.86667,0
2.87500,0
2.88333,0
2.89167,0
2.90000,-0
2.90833,-0
2.91667,-0
2.92500,-0
2.93333,-0
2.94167,-0
2.95000,-0
2.95833,-0
2.96667,-0
2.97500,-0
2.98333,-0
2.99167,-0
3.00000,-0
3.00833,0
3.01667,0
3.02500,1
3.03333,1
3.04167,1
3.05000,1
3.05833,1
3.06667,1
3.07500,0
3.08333,0
3.09167,-0
3.10000,-0
3.10833,-0
3.11667,-0
3.12500,-0
3.13333,0
3.14167,0
3.15000,0
3.15833,0
3.16667,0
3.17500,0
3.18333,1
3.19167,1
3.20000,1
3.20833,0
3.21667,1
3.22500,1
3.23333,1
3.24167,1
3.25000,1
3.25833,1
3.26667,1
3.27500,1
3.28333,1
3.29167,1
3.30000,1
3.30833,1
3.31667,1
3.32500,1
3.33333,1
3.34167,1
3.35000,1
3.35833,1
3.36667,1
3.37500,2
3.38333,1
3.39167,1
3.40000,1
3.40833,1
3.41667,1
3.42500,1
3.43333,1
3.44167,1
3.45000,0
3.45833,0
3.46667,0
3.47500,1
3.48333,1
3.49167,1
3.50000,1
3.50833,1
3.51667,1
3.52500,1
3.53333,1
3.54167,1
3.55000,1
3.55833,1
3.56667,1
3.57500,1
3.58333,2
3.59167,2
3.60000,2
3.60833,2
3.61667,2
3.62500,2
3.63333,2
3.64167,2
3.65000,2
3.65833,2
3.66667,2
3.67500,2
3.68333,1
3.69167,2
3.70000,2
3.70833,2
3.71667,2
3.72500,2
3.73333,3
3.74167,3
3.75000,3
3.75833,3
3.76667,3
3.77500,3
3.78333,3
3.79167,2
3.80000,2
3.80833,2
3.81667,3
3.82500,3
3.83333,3
3.84167,3
3.85000,3
3.85833,3
3.86667,3
3.87500,3
3.88333,3
3.89167,3
3.90000,3
3.90833,3
3.91667,3
3.92500,3
3.93333,3
3.94167,3
3.95000,3
3.95833,3
3.96667,3
3.97500,3
3.98333,3
3.99167,3
4.00000,3
4.00833,3
4.01667,3
4.02500,3
4.03333,2
4.04167,2
4.05000,2
4.05833,2
4.06667,2
4.07500,2
4.08333,2
4.09167,2
4.10000,2
4.10833,2
4.11667,2
4.12500,2
4.13333,2
4.14167,1
4.15000,1
4.15833,1
4.16667,1
4.17500,1
4.18333,1
4.19167,2
4.20000,2
4.20833,2
4.21667,2
4.22500,2
4.23333,2
4.24167,1
4.25000,1
4.25833,1
4.26667,1
4.27500,1
4.28333,1
4.29167,1
4.30000,1
4.30833,1
4.31667,1
4.32500,1
4.33333,1
4.34167,1
4.35000,1
4.35833,1
4.36667,1
4.37500,1
4.38333,1
4.39167,0
4.40000,0
4.40833,-0
4.41667,-1
4.42500,-1
4.43333,-1
4.44167,-1
4.45000,-1
4.45833,-1
4.46667,-1
4.47500,-1
4.48333,-1
4.49167,-0
4.50000,-0
4.50833,0
4.51667,1
4.52500,1
4.53333,1
4.54167,1
4.55000,1
4.55833,1
4.56667,1
4.57500,0
4.58333,0
4.59167,1
4.60000,1
4.60833,0
4.61667,0
4.62500,0
4.63333,0
4.64167,0
4.65000,0
4.65833,0
4.66667,0
4.67500,1
4.68333,1
4.69167,1
4.70000,0
4.70833,0
4.71667,0
4.72500,-0
4.73333,-0
4.74167,-0
4.75000,-0
4.75833,0
4.76667,0
4.77500,1
4.78333,1
4.79167,1
4.80000,1
4.80833,1
4.81667,0
4.82500,0
4.83333,0
4.84167,-0
4.85000,-0
4.85833,-0
4.86667,-0
4.87500,-0
4.88333,-0
4.89167,0
4.90000,0
4.90833,1
4.91667,1
4.92500,1
4.93333,0
4.94167,0
4.95000,0
4.95833,-0
4.96667,-0
4.97500,-0
4.98333,-0
4.99167,-0
5.00000,-0
5.00833,-0
5.01667,0
5.02500,0
5.03333,0
5.04167,0
5.05000,-0
5.05833,-0
5.06667,-1
5.07500,-1
5.08333,-1
5.09167,-0
5.10000,-0
5.10833,-0
5.11667,-0
5.12500,0
5.13333,0
5.14167,0
5.15000,0
5.15833,1
5.16667,0
5.17500,0
5.18333,1
5.19167,0
5.20000,0
5.20833,0
5.21667,1
5.22500,1
5.23333,1
5.24167,1
5.25000,0
5.25833,0
5.26667,0
5.27500,0
5.28333,0
5.29167,-0
5.30000,-0
5.30833,0
5.31667,0
5.32500,0
5.33333,-0
5.34167,-0
5.35000,-0
5.35833,-0
5.36667,-0
5.37500,-1
5.38333,-0
5.39167,-0
5.40000,-0
5.40833,-0
5.41667,0
5.42500,0
5.43333,0
5.44167,0
5.45000,0
5.45833,0
5.46667,-0
5.47500,-0
5.48333,0
5.49167,0
5.50000,0
5.50833,1
5.51667,1
5.52500,1
5.53333,1
5.54167,1
5.55000,1
5.55833,1
5.56667,1
5.57500,1
5.58333,1
5.59167,0
5.60000,-0
5.60833,-0
5.61667,0
5.62500,0
5.63333,0
5.64167,0
5.65000,0
5.65833,1
5.66667,1
5.67500,1
5.68333,1
5.69167,1
5.70000,1
5.70833,1
5.71667,2
5.72500,2
5.73333,2
5.74167,2
5.75000,2
5.75833,2
5.76667,2
5.77500,1
5.78333,1
5.79167,1
5.80000,1
5.80833,1
5.81667,1
5.82500,1
5.83333,1
5.84167,1
5.85000,1
5.85833,1
5.86667,1
5.87500,0
5.88333,0
5.89167,0
5.90000,1
5.90833,1
5.91667,1
5.92500,1
5.93333,1
5.94167,1
5.95000,1
5.95833,1
5.96667,1
5.97500,1
5.98333,1
5.99167,1
6.00000,1
6.00833,1
6.01667,1
6.02500,1
6.03333,1
6.04167,1
6.05000,1
6.05833,1
6.06667,1
6.07500,1
6.08333,1
6.09167,1
6.10000,0
6.10833,0
6.11667,0
6.12500,0
6.13333,1
6.14167,0
6.15000,0
6.15833,0
6.16667,0
6.17500,0
6.18333,0
6.19167,0
6.20000,0
6.20833,1
6.21667,1
6.22500,1
6.23333,1
6.24167,1
6.25000,1
6.25833,0
6.26667,0
6.27500,0
6.28333,1
6.29167,1
6.30000,1
6.30833,1
6.31667,1
6.32500,2
6.33333,2
6.34167,2
6.35000,1
6.35833,1
6.36667,1
6.37500,1
6.38333,0
6.39167,0
6.40000,0
6.40833,0
6.41667,0
6.42500,0
6.43333,0
6.44167,-0
6.45000,-0
6.45833,-0
6.46667,-0
6.47500,-0
6.48333,0
6.49167,0
6.50000,0
6.50833,1
6.51667,1
6.52500,1
6.53333,1
6.54167,1
6.55000,1
6.55833,0
6.56667,0
6.57500,-0
6.58333,-0
6.59167,0
6.60000,0
6.60833,0
6.61667,0
6.62500,0
6.63333,0
6.64167,0
6.65000,0
6.65833,0
6.66667,0
6.67500,0
6.68333,0
6.69167,1
6.70000,1
6.70833,1
6.71667,1
6.72500,1
6.73333,1
6.74167,1
6.75000,1
6.75833,0
6.76667,0
6.77500,0
6.78333,-0
6.79167,-0
6.80000,-0
6.80833,0
6.81667,0
6.82500,0
6.83333,-0
6.84167,-0
6.85000,-0
6.85833,-0
6.86667,-1
6.87500,-1
6.88333,-1
6.89167,-1
6.90000,-0
6.90833,-0
6.91667,-0
6.92500,0
6.93333,0
6.94167,0
6.95000,0
6.95833,0
6.96667,0
6.97500,0
6.98333,-0
6.99167,-0
7.00000,-1
7.00833,-0
7.01667,-0
7.02500,-0
7.03333,-0
7.04167,-0
7.05000,0
7.05833,0
7.06667,0
7.07500,-0
7.08333,-0
7.09167,-0
7.10000,-0
7.10833,-0
7.11667,-0
7.12500,-0
7.13333,-0
7.14167,-1
7.15000,-0
7.15833,0
7.16667,0
7.17500,0
7.18333,0
7.19167,0
7.20000,-0
7.20833,-0
7.21667,-0
7.22500,0
7.23333,0
7.24167,0
7.25000,1
7.25833,1
7.26667,0
7.27500,0
7.28333,0
7.29167,-0
7.30000,-0
7.30833,-0
7.31667,-0
7.32500,-0
7.33333,-0
7.34167,-0
7.35000,-0
7.35833,0
7.36667,0
7.37500,0
7.38333,0
7.39167,0
7.40000,0
7.40833,0
7.41667,1
7.42500,1
7.43333,1
7.44167,1
7.45000,1
7.45833,0
7.46667,0
7.47500,-0
7.48333,-0
7.49167,-0
7.50000,-0
7.50833,-0
7.51667,-0
7.52500,0
7.53333,1
7.54167,1
7.55000,1
7.55833,1
7.56667,1
7.57500,0
7.58333,0
7.59167,0
7.60000,0
7.60833,0
7.61667,0
7.62500,0
7.63333,1
7.64167,0
7.65000,0
7.65833,0
7.66667,0
7.67500,0
7.68333,0
7.69167,1
7.70000,1
7.70833,0
7.71667,0
7.72500,0
7.73333,0
7.74167,0
7.75000,0
7.75833,0
7.76667,0
7.77500,0
7.78333,0
7.79167,1
7.80000,1
7.80833,1
7.81667,1
7.82500,1
7.83333,1
7.84167,1
7.85000,1
7.85833,1
7.86667,1
7.87500,0
7.88333,0
7.89167,0
7.90000,0
7.90833,0
7.91667,0
7.92500,0
7.93333,-0
7.94167,-0
7.95000,-0
7.95833,-0
7.96667,-0
7.97500,0
7.98333,0
7.99167,0
8.00000,1
8.00833,0
8.01667,0
8.02500,0
8.03333,1
8.04167,1
8.05000,1
8.05833,0
8.06667,0
8.07500,0
8.08333,0
8.09167,0
8.10000,0
8.10833,0
8.11667,-0
8.12500,-0
8.13333,-0
8.14167,0
8.15000,0
8.15833,0
8.16667,0
8.17500,0
8.18333,1
8.19167,1
8.20000,1
8.20833,0
8.21667,0
8.22500,-0
8.23333,-0
8.24167,-0
8.25000,-0
8.25833,-1
8.26667,-1
8.27500,-1
8.28333,-1
8.29167,-1
8.30000,-1
8.30833,-1
8.31667,-1
8.32500,-1
8.33333,-0
8.34167,-0
8.35000,-0
8.35833,-0
8.36667,-0
8.37500,-1
8.38333,-0
8.39167,-0
8.40000,-0
8.40833,-0
8.41667,-0
8.42500,-0
8.43333,-0
8.44167,0
8.45000,-0
8.45833,-0
8.46667,-1
8.47500,-1
8.48333,-1
8.49167,-1
8.50000,-1
8.50833,-1
8.51667,-1
8.52500,-0
8.53333,-0
8.54167,-0
8.55000,-0
8.55833,0
8.56667,0
8.57500,0
8.58333,0
8.59167,0
8.60000,0
8.60833,0
8.61667,-0
8.62500,-0
8.63333,-0
8.64167,-1
8.65000,-0
8.65833,-0
8.66667,-0
8.67500,-0
8.68333,-0
8.69167,-0
8.70000,-0
8.70833,-0
8.71667,-0
8.72500,-0
8.73333,-0
8.74167,-1
8.75000,-0
8.75833,-0
8.76667,-0
8.77500,-0
8.78333,-0
8.79167,-0
8.80000,-1
8.80833,-1
8.81667,-2
8.82500,-2
8.83333,-2
8.84167,-2
8.85000,-1
8.85833,-1
8.86667,-1
8.87500,-1
8.88333,-0
8.89167,0
8.90000,0
8.90833,0
8.91667,0
8.92500,-0
8.93333,-0
8.94167,-0
8.95000,-1
8.95833,-0
8.96667,-0
8.97500,0
8.98333,0
8.99167,0
9.00000,0
9.00833,0
9.01667,0
9.02500,0
9.03333,0
9.04167,0
9.05000,0
9.05833,-0
9.06667,-1
9.07500,-1
9.08333,-1
9.09167,-1
9.10000,-1
9.10833,-1
9.11667,-1
9.12500,-1
9.13333,-1
9.14167,-1
9.15000,-1
9.15833,-1
9.16667,-1
9.17500,-1
9.18333,-1
9.19167,-0
9.20000,-0
9.20833,-1
9.21667,-1
9.22500,-1
9.23333,-1
9.24167,-2
9.25000,-2
9.25833,-2
9.26667,-1
9.27500,-1
9.28333,-1
9.29167,-1
9.30000,-1
9.30833,-1
9.31667,-1
9.32500,-1
9.33333,-1
9.34167,-1
9.35000,-1
9.35833,-1
9.36667,-1
9.37500,-1
9.38333,-1
9.39167,-1
9.40000,-2
9.40833,-2
9.41667,-2
9.42500,-2
9.43333,-2
9.44167,-2
9.45000,-2
9.45833,-1
9.46667,-1
9.47500,-2
9.48333,-2
9.49167,-2
9.50000,-2
9.50833,-2
9.51667,-2
9.52500,-1
9.53333,-1
9.54167,-1
9.55000,-1
9.55833,-1
9.56667,-1
9.57500,-1
9.58333,-1
9.59167,-1
9.60000,-0
9.60833,-0
9.61667,-1
9.62500,-1
9.63333,-1
9.64167,-1
9.65000,-1
9.65833,-0
9.66667,-0
9.67500,-0
9.68333,-0
9.69167,-0
9.70000,-0
9.70833,-1
9.71667,-1
9.72500,-1
9.73333,-1
9.74167,-1
9.75000,-1
9.75833,-1
9.76667,-1
9.77500,-2
9.78333,-1
9.79167,-1
9.80000,-1
9.80833,-1
9.81667,-1
9.82500,-1
9.83333,-2
9.84167,-1
9.85000,-1
9.85833,-1
9.86667,-1
9.87500,-1
9.88333,-1
9.89167,-1
9.90000,-1
9.90833,-1
9.91667,-1
9.92500,-1
9.93333,-1
9.94167,-1
9.95000,-1
9.95833,-1
9.96667,-1
9.97500,-1
9.98333,-1
9.99167,-0
10.00000,-0
10.00833,-0
10.01667,-0
10.02500,-1
10.03333,-1
10.04167,-1
10.05000,-1
10.05833,-1
10.06667,-1
10.07500,-1
10.08333,-1
10.09167,-1
10.10000,-1
10.10833,-1
10.11667,-1
10.12500,-0
10.13333,-1
10.14167,-1
10.15000,-1
10.15833,-1
10.16667,-1
10.17500,-1
10.18333,-0
10.19167,-0
10.20000,-1
10.20833,-1
10.21667,-1
10.22500,-1
10.23333,-1
10.24167,-1
10.25000,-1
10.25833,-1
10.26667,-0
10.27500,0
10.28333,0
10.29167,0
10.30000,0
10.30833,0
10.31667,0
10.32500,0
10.33333,0
10.34167,1
10.35000,1
10.35833,1
10.36667,1
10.37500,1
10.38333,1
10.39167,2
10.40000,2
10.40833,2
10.41667,2
10.42500,2
10.43333,2
10.44167,1
10.45000,0
10.45833,-1
10.46667,-4
10.47500,-8
10.48333,-13
10.49167,-21
10.50000,-31
10.50833,-45
10.51667,-64
10.52500,-89
10.53333,-119
10.54167,-157
10.55000,-203
10.55833,-258
10.56667,-322
10.57500,-395
10.58333,-476
10.59167,-563
10.60000,-654
10.60833,-745
10.61667,-832
10.62500,-911
10.63333,-975
10.64167,-1017
10.65000,-1030
10.65833,-1004
10.66667,-932
10.67500,-804
10.68333,-612
10.69167,-345
10.70000,5
10.70833,446
10.71667,987
10.72500,1636
10.73333,2399
10.74167,3283
10.75000,4295
10.75833,5438
10.76667,6718
10.77500,8139
10.78333,9703
10.79167,11412
10.80000,13269
10.80833,15274
10.81667,17430
10.82500,19735
10.83333,22190
10.84167,24794
10.85000,27548
10.85833,30449
10.86667,33497
10.87500,36691
10.88333,40029
10.89167,43509
10.90000,47129
10.90833,50885
10.91667,54775
10.92500,58796
10.93333,62943
10.94167,67213
10.95000,71599
10.95833,76093
10.96667,80686
10.97500,85364
10.98333,90110
10.99167,94898
11.00000,99694
11.00833,104452
11.01667,109114
11.02500,113603
11.03333,117823
11.04167,121663
11.05000,124996
11.05833,127686
11.06667,129597
11.07500,130603
11.08333,130598
11.09167,129513
11.10000,127315
11.10833,124023
11.11667,119699
11.12500,114449
11.13333,108415
11.14167,101764
11.15000,94677
11.15833,87335
11.16667,79912
11.17500,72565
11.18333,65428
11.19167,58610
11.20000,52192
11.20833,46231
11.21667,40759
11.22500,35789
11.23333,31316
11.24167,27325
11.25000,23791
11.25833,20680
11.26667,17959
11.27500,15589
11.28333,13534
11.29167,11759
11.30000,10230
11.30833,8916
11.31667,7789
11.32500,6823
11.33333,5996
11.34167,5287
11.35000,4680
11.35833,4160
11.36667,3713
11.37500,3328
11.38333,2995
11.39167,2708
11.40000,2459
11.40833,2242
11.41667,2052
11.42500,1886
11.43333,1740
11.44167,1610
11.45000,1495
11.45833,1391
11.46667,1299
11.47500,1215
11.48333,1140
11.49167,1072
11.50000,1010
11.50833,952
11.51667,899
11.52500,851
11.53333,806
11.54167,765
11.55000,726
11.55833,690
11.56667,657
11.57500,625
11.58333,595
11.59167,567
11.60000,540
11.60833,515
11.61667,492
11.62500,470
11.63333,449
11.64167,429
11.65000,410
11.65833,392
11.66667,374
11.67500,358
11.68333,342
11.69167,328
11.70000,314
11.70833,300
11.71667,287
11.72500,275
11.73333,263
11.74167,253
11.75000,242
11.75833,232
11.76667,223
11.77500,214
11.78333,206
11.79167,197
11.80000,190
11.80833,182
11.81667,175
11.82500,168
11.83333,161
11.84167,155
11.85000,149
11.85833,144
11.86667,139
11.87500,134
11.88333,130
11.89167,125
11.90000,121
11.90833,117
11.91667,113
11.92500,110
11.93333,106
11.94167,103
11.95000,100
11.95833,97
11.96667,95
11.97500,93
11.98333,91
11.99167,88
12.00000,86
12.00833,83
12.01667,81
12.02500,79
12.03333,77
12.04167,75
12.05000,74
12.05833,72
12.06667,71
12.07500,69
12.08333,68
12.09167,66
12.10000,65
12.10833,63
12.11667,62
12.12500,61
12.13333,60
12.14167,58
12.15000,57
12.15833,56
12.16667,55
12.17500,53
12.18333,52
12.19167,51
12.20000,50
12.20833,49
12.21667,48
12.22500,47
12.23333,46
12.24167,45
12.25000,44
12.25833,43
12.26667,42
12.27500,42
12.28333,41
12.29167,41
12.30000,40
12.30833,39
12.31667,38
12.32500,38
12.33333,37
12.34167,36
12.35000,36
12.35833,35
12.36667,35
12.37500,35
12.38333,34
12.39167,33
12.40000,33
12.40833,32
12.41667,31
12.42500,31
12.43333,31
12.44167,30
12.45000,30
12.45833,29
12.46667,29
12.47500,28
12.48333,28
12.49167,28
12.50000,27
12.50833,27
12.51667,27
12.52500,26
12.53333,26
12.54167,26
12.55000,26
12.55833,26
12.56667,25
12.57500,25
12.58333,25
12.59167,25
12.60000,25
12.60833,25
12.61667,24
12.62500,24
12.63333,24
12.64167,24
12.65000,24
12.65833,24
12.66667,24
12.67500,24
12.68333,25
12.69167,25
12.70000,25
12.70833,25
12.71667,25
12.72500,26
12.73333,27
12.74167,28
12.75000,29
12.75833,31
12.76667,32
12.77500,35
12.78333,37
12.79167,41
12.80000,45
12.80833,50
12.81667,56
12.82500,64
12.83333,73
12.84167,84
12.85000,98
12.85833,114
12.86667,133
12.87500,155
12.88333,181
12.89167,211
12.90000,245
12.90833,283
12.91667,327
12.92500,376
12.93333,431
12.94167,491
12.95000,557
12.95833,630
12.96667,710
12.97500,796
12.98333,888
12.99167,988
13.00000,1095
13.00833,1208
13.01667,1329
13.02500,1456
13.03333,1590
13.04167,1730
13.05000,1878
13.05833,2031
13.06667,2191
13.07500,2357
13.08333,2529
13.09167,2707
13.10000,2891
13.10833,3080
13.11667,3274
13.12500,3473
13.13333,3677
13.14167,3886
13.15000,4099
13.15833,4317
13.16667,4540
13.17500,4766
13.18333,4997
13.19167,5231
13.20000,5470
13.20833,5712
13.21667,5957
13.22500,6206
13.23333,6458
13.24167,6713
13.25000,6972
13.25833,7234
13.26667,7499
13.27500,7766
13.28333,8037
13.29167,8311
13.30000,8588
13.30833,8867
13.31667,9150
13.32500,9435
13.33333,9722
13.34167,10013
13.35000,10306
13.35833,10602
13.36667,10899
13.37500,11200
13.38333,11502
13.39167,11808
13.40000,12115
13.40833,12425
13.41667,12738
13.42500,13052
13.43333,13370
13.44167,13690
13.45000,14012
13.45833,14336
13.46667,14662
13.47500,14991
13.48333,15322
13.49167,15656
13.50000,15992
13.50833,16330
13.51667,16671
13.52500,17014
13.53333,17359
13.54167,17708
13.55000,18058
13.55833,18412
13.56667,18767
13.57500,19126
13.58333,19487
13.59167,19851
13.60000,20217
13.60833,20586
13.61667,20958
13.62500,21333
13.63333,21710
13.64167,22090
13.65000,22473
13.65833,22859
13.66667,23248
13.67500,23640
13.68333,24035
13.69167,24433
13.70000,24835
13.70833,25239
13.71667,25646
13.72500,26057
13.73333,26470
13.74167,26886
13.75000,27306
13.75833,27729
13.76667,28156
13.77500,28586
13.78333,29019
13.79167,29456
13.80000,29896
13.80833,30339
13.81667,30785
13.82500,31235
13.83333,31689
13.84167,32145
13.85000,32606
13.85833,33070
13.86667,33538
13.87500,34009
13.88333,34484
13.89167,34963
13.90000,35445
13.90833,35932
13.91667,36422
13.92500,36915
13.93333,37413
13.94167,37915
13.95000,38420
13.95833,38930
13.96667,39443
13.97500,39961
13.98333,40483
13.99167,41008
14.00000,41538
14.00833,42073
14.01667,42611
14.02500,43154
14.03333,43701
14.04167,44252
14.05000,44809
14.05833,45369
14.06667,45935
14.07500,46505
14.08333,47079
14.09167,47658
14.10000,48241
14.10833,48830
14.11667,49423
14.12500,50021
14.13333,50624
14.14167,51232
14.15000,51845
14.15833,52464
14.16667,53087
14.17500,53715
14.18333,54349
14.19167,54988
14.20000,55633
14.20833,56283
14.21667,56938
14.22500,57599
14.23333,58265
14.24167,58938
14.25000,59615
14.25833,60299
14.26667,60989
14.27500,61685
14.28333,62386
14.29167,63094
14.30000,63808
14.30833,64528
14.31667,65255
14.32500,65987
14.33333,66726
14.34167,67472
14.35000,68224
14.35833,68983
14.36667,69747
14.37500,70518
14.38333,71294
14.39167,72074
14.40000,72856
14.40833,73637
14.41667,74410
14.42500,75170
14.43333,75904
14.44167,76601
14.45000,77243
14.45833,77809
14.46667,78273
14.47500,78609
14.48333,78786
14.49167,78773
14.50000,78538
14.50833,78054
14.51667,77293
14.52500,76238
14.53333,74877
14.54167,73206
14.55000,71231
14.55833,68967
14.56667,66438
14.57500,63677
14.58333,60722
14.59167,57616
14.60000,54405
14.60833,51137
14.61667,47859
14.62500,44612
14.63333,41437
14.64167,38369
14.65000,35436
14.65833,32659
14.66667,30056
14.67500,27637
14.68333,25405
14.69167,23363
14.70000,21505
14.70833,19826
14.71667,18315
14.72500,16963
14.73333,15757
14.74167,14686
14.75000,13737
14.75833,12897
14.76667,12156
14.77500,11502
14.78333,10925
14.79167,10417
14.80000,9968
14.80833,9571
14.81667,9219
14.82500,8908
14.83333,8630
14.84167,8383
14.85000,8161
14.85833,7962
14.86667,7781
14.87500,7618
14.88333,7468
14.89167,7331
14.90000,7206
14.90833,7090
14.91667,6982
14.92500,6881
14.93333,6787
14.94167,6698
14.95000,6614
14.95833,6534
14.96667,6458
14.97500,6385
14.98333,6315
14.99167,6248
15.00000,6183
15.00833,6121
15.01667,6060
15.02500,6001
15.03333,5944
15.04167,5888
15.05000,5834
15.05833,5781
15.06667,5730
15.07500,5679
15.08333,5629
15.09167,5581
15.10000,5533
15.10833,5487
15.11667,5440
15.12500,5395
15.13333,5351
15.14167,5308
15.15000,5265
15.15833,5224
15.16667,5183
15.17500,5144
15.18333,5105
15.19167,5067
15.20000,5030
15.20833,4994
15.21667,4959
15.22500,4925
15.23333,4893
15.24167,4861
15.25000,4829
15.25833,4799
15.26667,4769
15.27500,4741
15.28333,4713
15.29167,4687
15.30000,4662
15.30833,4639
15.31667,4617
15.32500,4596
15.33333,4577
15.34167,4559
15.35000,4543
15.35833,4529
15.36667,4519
15.37500,4511
15.38333,4507
15.39167,4509
15.40000,4516
15.40833,4531
15.41667,4554
15.42500,4587
15.43333,4633
15.44167,4693
15.45000,4770
15.45833,4867
15.46667,4987
15.47500,5135
15.48333,5313
15.49167,5527
15.50000,5781
15.50833,6080
15.51667,6430
15.52500,6837
15.53333,7306
15.54167,7844
15.55000,8457
15.55833,9151
15.56667,9933
15.57500,10806
15.58333,11778
15.59167,12852
15.60000,14032
15.60833,15321
15.61667,16721
15.62500,18232
15.63333,19855
15.64167,21586
15.65000,23423
15.65833,25358
15.66667,27387
15.67500,29499
15.68333,31686
15.69167,33935
15.70000,36233
15.70833,38565
15.71667,40914
15.72500,43264
15.73333,45598
15.74167,47897
15.75000,50143
15.75833,52317
15.76667,54400
15.77500,56376
15.78333,58228
15.79167,59940
15.80000,61497
15.80833,62888
15.81667,64101
15.82500,65127
15.83333,65959
15.84167,66591
15.85000,67021
15.85833,67247
15.86667,67271
15.87500,67095
15.88333,66725
15.89167,66166
15.90000,65427
15.90833,64517
15.91667,63448
15.92500,62230
15.93333,60876
15.94167,59399
15.95000,57812
15.95833,56131
15.96667,54369
15.97500,52539
15.98333,50656
15.99167,48732
16.00000,46780
16.00833,44814
16.01667,42843
16.02500,40879
16.03333,38932
16.04167,37010
16.05000,35122
16.05833,33276
16.06667,31477
16.07500,29732
16.08333,28044
16.09167,26417
16.10000,24855
16.10833,23359
16.11667,21932
16.12500,20574
16.13333,19284
16.14167,18064
16.15000,16912
16.15833,15828
16.16667,14809
16.17500,13853
16.18333,12960
16.19167,12126
16.20000,11350
16.20833,10628
16.21667,9958
16.22500,9337
16.23333,8763
16.24167,8232
16.25000,7743
16.25833,7292
16.26667,6878
16.27500,6496
16.28333,6146
16.29167,5824
16.30000,5530
16.30833,5260
16.31667,5012
16.32500,4786
16.33333,4579
16.34167,4389
16.35000,4216
16.35833,4057
16.36667,3911
16.37500,3778
16.38333,3655
16.39167,3543
16.40000,3440
16.40833,3345
16.41667,3258
16.42500,3178
16.43333,3104
16.44167,3036
16.45000,2973
16.45833,2914
16.46667,2860
16.47500,2810
16.48333,2763
16.49167,2719
16.50000,2678
16.50833,2639
16.51667,2603
16.52500,2570
16.53333,2538
16.54167,2508
16.55000,2480
16.55833,2454
16.56667,2428
16.57500,2404
16.58333,2381
16.59167,2359
16.60000,2338
16.60833,2318
16.61667,2299
16.62500,2281
16.63333,2264
16.64167,2247
16.65000,2232
16.65833,2216
16.66667,2202
16.67500,2187
16.68333,2174
16.69167,2160
16.70000,2147
16.70833,2135
16.71667,2123
16.72500,2111
16.73333,2100
16.74167,2088
16.75000,2077
16.75833,2067
16.76667,2057
16.77500,2046
16.78333,2036
16.79167,2027
16.80000,2018
16.80833,2009
16.81667,2000
16.82500,1992
16.83333,1983
16.84167,1975
16.85000,1967
16.85833,1959
16.86667,1951
16.87500,1943
16.88333,1936
16.89167,1928
16.90000,1921
16.90833,1913
16.91667,1906
16.92500,1899
16.93333,1892
16.94167,1886
16.95000,1879
16.95833,1873
16.96667,1867
16.97500,1860
16.98333,1854
16.99167,1848
17.00000,1842
17.00833,1837
17.01667,1831
17.02500,1826
17.03333,1820
17.04167,1815
17.05000,1809
17.05833,1804
17.06667,1798
17.07500,1793
17.08333,1788
17.09167,1782
17.10000,1777
17.10833,1771
17.11667,1766
17.12500,1760
17.13333,1755
17.14167,1749
17.15000,1744
17.15833,1738
17.16667,1732
17.17500,1726
17.18333,1721
17.19167,1715
17.20000,1709
17.20833,1703
17.21667,1697
17.22500,1691
17.23333,1684
17.24167,1678
17.25000,1672
17.25833,1665
17.26667,1659
17.27500,1652
17.28333,1645
17.29167,1639
17.30000,1632
17.30833,1626
17.31667,1620
17.32500,1613
17.33333,1606
17.34167,1599
17.35000,1592
17.35833,1585
17.36667,1578
17.37500,1571
17.38333,1564
17.39167,1557
17.40000,1550
17.40833,1543
17.41667,1536
17.42500,1530
17.43333,1523
17.44167,1517
17.45000,1510
17.45833,1504
17.46667,1497
17.47500,1491
17.48333,1484
17.49167,1478
17.50000,1471
17.50833,1464
17.51667,1458
17.52500,1452
17.53333,1445
17.54167,1439
17.55000,1433
17.55833,1426
17.56667,1420
17.57500,1414
17.58333,1408
17.59167,1402
17.60000,1396
17.60833,1390
17.61667,1384
17.62500,1378
17.63333,1372
17.64167,1366
17.65000,1361
17.65833,1355
17.66667,1349
17.67500,1344
17.68333,1338
17.69167,1332
17.70000,1327
17.70833,1322
17.71667,1316
17.72500,1310
17.73333,1304
17.74167,1299
17.75000,1294
17.75833,1288
17.76667,1283
17.77500,1277
17.78333,1272
17.79167,1266
17.80000,1261
17.80833,1256
17.81667,1250
17.82500,1245
17.83333,1240
17.84167,1234
17.85000,1229
17.85833,1224
17.86667,1218
17.87500,1213
17.88333,1208
17.89167,1202
17.90000,1197
17.90833,1192
17.91667,1187
17.92500,1182
17.93333,1177
17.94167,1172
17.95000,1166
17.95833,1161
17.96667,1156
17.97500,1151
17.98333,1146
17.99167,1141
18.00000,1136
18.00833,1131
18.01667,1126
18.02500,1121
18.03333,1116
18.04167,1111
18.05000,1106
18.05833,1100
18.06667,1095
18.07500,1090
18.08333,1085
18.09167,1080
18.10000,1076
18.10833,1071
18.11667,1066
18.12500,1061
18.13333,1056
18.14167,1051
18.15000,1045
18.15833,1040
18.16667,1035
18.17500,1030
18.18333,1025
18.19167,1021
18.20000,1016
18.20833,1011
18.21667,1006
18.22500,1001
18.23333,996
18.24167,990
18.25000,985
18.25833,980
18.26667,975
18.27500,970
18.28333,965
18.29167,959
18.30000,954
18.30833,949
18.31667,944
18.32500,939
18.33333,934
18.34167,929
18.35000,923
18.35833,918
18.36667,913
18.37500,907
18.38333,902
18.39167,897
18.40000,892
18.40833,887
18.41667,881
18.42500,876
18.43333,870
18.44167,865
18.45000,859
18.45833,853
18.46667,848
18.47500,842
18.48333,837
18.49167,832
18.50000,826
18.50833,821
18.51667,815
18.52500,809
18.53333,804
18.54167,798
18.55000,793
18.55833,787
18.56667,781
18.57500,775
18.58333,769
18.59167,763
18.60000,757
18.60833,751
18.61667,745
18.62500,739
18.63333,733
18.64167,728
18.65000,722
18.65833,716
18.66667,710
18.67500,705
18.68333,699
18.69167,693
18.70000,687
18.70833,681
18.71667,675
18.72500,669
18.73333,663
18.74167,657
18.75000,651
18.75833,645
18.76667,638
18.77500,632
18.78333,626
18.79167,620
18.80000,614
18.80833,608
18.81667,602
18.82500,596
18.83333,591
18.84167,585
18.85000,579
18.85833,573
18.86667,567
18.87500,561
18.88333,555
18.89167,548
18.90000,542
18.90833,536
18.91667,530
18.92500,524
18.93333,518
18.94167,513
18.95000,507
18.95833,501
18.96667,495
18.97500,490
18.98333,484
18.99167,478
19.00000,472
19.00833,466
19.01667,460
19.02500,454
19.03333,449
19.04167,443
19.05000,437
19.05833,431
19.06667,426
19.07500,420
19.08333,415
19.09167,409
19.10000,404
19.10833,398
19.11667,393
19.12500,387
19.13333,382
19.14167,377
19.15000,372
19.15833,367
19.16667,362
19.17500,357
19.18333,353
19.19167,348
19.20000,343
19.20833,339
19.21667,334
19.22500,330
19.23333,326
19.24167,322
19.25000,317
19.25833,313
19.26667,310
19.27500,306
19.28333,302
19.29167,299
19.30000,295
19.30833,291
19.31667,288
19.32500,285
19.33333,281
19.34167,278
19.35000,275
19.35833,272
19.36667,270
19.37500,267
19.38333,264
19.39167,261
19.40000,258
19.40833,255
19.41667,252
19.42500,249
19.43333,246
19.44167,243
19.45000,240
19.45833,237
19.46667,233
19.47500,230
19.48333,226
19.49167,223
19.50000,220
19.50833,217
19.51667,214
19.52500,210
19.53333,207
19.54167,204
19.55000,201
19.55833,198
19.56667,195
19.57500,192
19.58333,188
19.59167,185
19.60000,181
19.60833,177
19.61667,174
19.62500,170
19.63333,167
19.64167,164
19.65000,162
19.65833,159
19.66667,157
19.67500,154
19.68333,152
19.69167,149
19.70000,146
19.70833,143
19.71667,140
19.72500,138
19.73333,135
19.74167,132
19.75000,130
19.75833,128
19.76667,126
19.77500,124
19.78333,122
19.79167,120
19.80000,119
19.80833,117
19.81667,115
19.82500,112
19.83333,111
19.84167,109
19.85000,107
19.85833,105
19.86667,103
19.87500,102
19.88333,100
19.89167,99
19.90000,98
19.90833,96
19.91667,95
19.92500,94
19.93333,93
19.94167,92
19.95000,91
19.95833,90
19.96667,89
19.97500,87
19.98333,86
19.99167,85
20.00000,84
20.00833,83
20.01667,82
20.02500,81
20.03333,80
20.04167,79
20.05000,79
20.05833,78
20.06667,78
20.07500,77
20.08333,76
20.09167,75
20.10000,74
20.10833,73
20.11667,72
20.12500,72
20.13333,71
20.14167,71
20.15000,70
20.15833,69
20.16667,68
20.17500,68
20.18333,67
20.19167,67
20.20000,67
20.20833,66
20.21667,66
20.22500,66
20.23333,65
20.24167,65
20.25000,65
20.25833,64
20.26667,64
20.27500,63
20.28333,62
20.29167,62
20.30000,62
20.30833,61
20.31667,61
20.32500,60
20.33333,60
20.34167,59
20.35000,59
20.35833,58
20.36667,58
20.37500,57
20.38333,56
20.39167,56
20.40000,56
20.40833,56
20.41667,56
20.42500,55
20.43333,55
20.44167,55
20.45000,54
20.45833,54
20.46667,53
20.47500,53
20.48333,53
20.49167,53
20.50000,52
20.50833,52
20.51667,52
20.52500,52
20.53333,51
20.54167,51
20.55000,51
20.55833,51
20.56667,50
20.57500,50
20.58333,50
20.59167,50
20.60000,50
20.60833,51
20.61667,51
20.62500,51
20.63333,50
20.64167,50
20.65000,50
20.65833,50
20.66667,50
20.67500,50
20.68333,49
20.69167,49
20.70000,49
20.70833,49
20.71667,50
20.72500,50
20.73333,50
20.74167,51
20.75000,51
20.75833,52
20.76667,52
20.77500,53
20.78333,54
20.79167,55
20.80000,56
20.80833,57
20.81667,59
20.82500,61
20.83333,63
20.84167,65
20.85000,67
20.85833,70
20.86667,72
20.87500,76
20.88333,79
20.89167,83
20.90000,86
20.90833,90
20.91667,95
20.92500,100
20.93333,105
20.94167,110
20.95000,115
20.95833,121
20.96667,127
20.97500,133
20.98333,139
20.99167,144
21.00000,150
21.00833,157
21.01667,163
21.02500,170
21.03333,177
21.04167,183
21.05000,189
21.05833,195
21.06667,201
21.07500,207
21.08333,212
21.09167,217
21.10000,222
21.10833,226
21.11667,230
21.12500,233
21.13333,236
21.14167,239
21.15000,242
21.15833,243
21.16667,245
21.17500,246
21.18333,246
21.19167,246
21.20000,245
21.20833,245
21.21667,243
21.22500,241
21.23333,239
21.24167,237
21.25000,234
21.25833,231
21.26667,228
21.27500,224
21.28333,220
21.29167,216
21.30000,212
21.30833,208
21.31667,204
21.32500,200
21.33333,196
21.34167,192
21.35000,188
21.35833,184
21.36667,180
21.37500,177
21.38333,174
21.39167,171
21.40000,169
21.40833,166
21.41667,164
21.42500,162
21.43333,161
21.44167,159
21.45000,158
21.45833,158
21.46667,158
21.47500,158
21.48333,160
21.49167,161
21.50000,162
21.50833,164
21.51667,165
21.52500,167
21.53333,169
21.54167,171
21.55000,173
21.55833,176
21.56667,178
21.57500,181
21.58333,183
21.59167,185
21.60000,187
21.60833,189
21.61667,191
21.62500,193
21.63333,194
21.64167,195
21.65000,196
21.65833,197
21.66667,197
21.67500,197
21.68333,197
21.69167,197
21.70000,197
21.70833,196
21.71667,194
21.72500,192
21.73333,190
21.74167,188
21.75000,185
21.75833,182
21.76667,179
21.77500,176
21.78333,173
21.79167,169
21.80000,165
21.80833,161
21.81667,157
21.82500,153
21.83333,148
21.84167,143
21.85000,139
21.85833,134
21.86667,130
21.87500,126
21.88333,122
21.89167,117
21.90000,113
21.90833,109
21.91667,105
21.92500,101
21.93333,97
21.94167,93
21.95000,89
21.95833,86
21.96667,83
21.97500,79
21.98333,76
21.99167,72
22.00000,69
22.00833,66
22.01667,63
22.02500,61
22.03333,59
22.04167,57
22.05000,55
22.05833,53
22.06667,52
22.07500,50
22.08333,48
22.09167,47
22.10000,45
22.10833,44
22.11667,42
22.12500,41
22.13333,40
22.14167,39
22.15000,38
22.15833,37
22.16667,36
22.17500,35
22.18333,35
22.19167,34
22.20000,33
22.20833,32
22.21667,31
22.22500,30
22.23333,30
22.24167,30
22.25000,29
22.25833,29
22.26667,29
22.27500,28
22.28333,28
22.29167,28
22.30000,27
22.30833,27
22.31667,27
22.32500,27
22.33333,27
22.34167,27
22.35000,27
22.35833,27
22.36667,27
22.37500,26
22.38333,26
22.39167,26
22.40000,26
22.40833,26
22.41667,26
22.42500,26
22.43333,25
22.44167,25
22.45000,24
22.45833,24
22.46667,24
22.47500,24
22.48333,23
22.49167,23
22.50000,23
22.50833,23
22.51667,23
22.52500,23
22.53333,22
22.54167,22
22.55000,23
22.55833,23
22.56667,22
22.57500,22
22.58333,22
22.59167,22
22.60000,21
22.60833,21
22.61667,21
22.62500,21
22.63333,21
22.64167,21
22.65000,22
22.65833,22
22.66667,22
22.67500,22
22.68333,22
22.69167,22
22.70000,22
22.70833,23
22.71667,23
22.72500,23
22.73333,23
22.74167,23
22.75000,24
22.75833,24
22.76667,24
22.77500,25
22.78333,26
22.79167,27
22.80000,28
22.80833,29
22.81667,29
22.82500,30
22.83333,31
22.84167,33
22.85000,34
22.85833,36
22.86667,38
22.87500,40
22.88333,42
22.89167,45
22.90000,47
22.90833,50
22.91667,53
22.92500,57
22.93333,60
22.94167,65
22.95000,69
22.95833,74
22.96667,79
22.97500,84
22.98333,90
22.99167,96
23.00000,103
23.00833,109
23.01667,116
23.02500,124
23.03333,131
23.04167,138
23.05000,146
23.05833,154
23.06667,162
23.07500,170
23.08333,179
23.09167,188
23.10000,196
23.10833,205
23.11667,214
23.12500,223
23.13333,231
23.14167,239
23.15000,247
23.15833,255
23.16667,263
23.17500,270
23.18333,277
23.19167,283
23.20000,289
23.20833,295
23.21667,300
23.22500,304
23.23333,308
23.24167,311
23.25000,314
23.25833,316
23.26667,317
23.27500,318
23.28333,318
23.29167,317
23.30000,316
23.30833,314
23.31667,312
23.32500,309
23.33333,305
23.34167,301
23.35000,296
23.35833,291
23.36667,286
23.37500,280
23.38333,274
23.39167,268
23.40000,261
23.40833,254
23.41667,246
23.42500,238
23.43333,230
23.44167,222
23.45000,214
23.45833,206
23.46667,198
23.47500,190
23.48333,182
23.49167,174
23.50000,166
23.50833,159
23.51667,151
23.52500,144
23.53333,137
23.54167,130
23.55000,123
23.55833,117
23.56667,110
23.57500,105
23.58333,99
23.59167,94
23.60000,89
23.60833,85
23.61667,80
23.62500,75
23.63333,71
23.64167,67
23.65000,64
23.65833,60
23.66667,57
23.67500,54
23.68333,51
23.69167,48
23.70000,46
23.70833,44
23.71667,42
23.72500,39
23.73333,37
23.74167,36
23.75000,34
23.75833,32
23.76667,31
23.77500,30
23.78333,29
23.79167,28
23.80000,27
23.80833,26
23.81667,25
23.82500,25
23.83333,24
23.84167,23
23.85000,23
23.85833,22
23.86667,22
23.87500,21
23.88333,20
23.89167,20
23.90000,19
23.90833,19
23.91667,19
23.92500,19
23.93333,19
23.94167,19
23.95000,19
23.95833,19
23.96667,19
23.97500,19
23.98333,18
23.99167,18
24.00000,17
24.00833,17
24.01667,17
24.02500,17
24.03333,17
24.04167,17
24.05000,17
24.05833,17
24.06667,17
24.07500,17
24.08333,17
24.09167,17
24.10000,17
24.10833,17
24.11667,18
24.12500,17
24.13333,17
24.14167,17
24.15000,17
24.15833,17
24.16667,17
24.17500,16
24.18333,17
24.19167,17
24.20000,17
24.20833,17
24.21667,17
24.22500,17
24.23333,17
24.24167,17
24.25000,17
24.25833,17
24.26667,17
24.27500,17
24.28333,17
24.29167,17
24.30000,17
24.30833,17
24.31667,18
24.32500,18
24.33333,17
24.34167,17
24.35000,17
24.35833,17
24.36667,17
24.37500,17
24.38333,17
24.39167,17
24.40000,17
24.40833,17
24.41667,17
24.42500,17
24.43333,17
24.44167,17
24.45000,16
24.45833,16
24.46667,16
24.47500,16
24.48333,16
24.49167,16
24.50000,16
24.50833,16
24.51667,16
24.52500,16
24.53333,16
24.54167,16
24.55000,16
24.55833,17
24.56667,17
24.57500,17
24.58333,18
24.59167,18
24.60000,18
24.60833,19
24.61667,19
24.62500,20
24.63333,20
24.64167,21
24.65000,21
24.65833,22
24.66667,23
24.67500,24
24.68333,25
24.69167,26
24.70000,27
24.70833,29
24.71667,30
24.72500,32
24.73333,34
24.74167,37
24.75000,39
24.75833,42
24.76667,45
24.77500,48
24.78333,52
24.79167,56
24.80000,61
24.80833,66
24.81667,71
24.82500,77
24.83333,83
24.84167,89
24.85000,96
24.85833,103
24.86667,111
24.87500,119
24.88333,128
24.89167,137
24.90000,147
24.90833,157
24.91667,168
24.92500,179
24.93333,191
24.94167,203
24.95000,215
24.95833,228
24.96667,241
24.97500,255
24.98333,268
24.99167,282
25.00000,296
25.00833,310
25.01667,324
25.02500,339
25.03333,352
25.04167,366
25.05000,380
25.05833,393
25.06667,406
25.07500,419
25.08333,431
25.09167,443
25.10000,454
25.10833,464
25.11667,474
25.12500,483
25.13333,492
25.14167,500
25.15000,506
25.15833,512
25.16667,517
25.17500,521
25.18333,524
25.19167,526
25.20000,526
25.20833,526
25.21667,526
25.22500,524
25.23333,521
25.24167,517
25.25000,512
25.25833,507
25.26667,500
25.27500,493
25.28333,485
25.29167,476
25.30000,467
25.30833,458
25.31667,448
25.32500,437
25.33333,426
25.34167,414
25.35000,403
25.35833,391
25.36667,378
25.37500,366
25.38333,353
25.39167,340
25.40000,327
25.40833,315
25.41667,302
25.42500,289
25.43333,277
25.44167,265
25.45000,253
25.45833,242
25.46667,230
25.47500,219
25.48333,208
25.49167,198
25.50000,188
25.50833,177
25.51667,168
25.52500,159
25.53333,150
25.54167,141
25.55000,134
25.55833,126
25.56667,119
25.57500,112
25.58333,106
25.59167,100
25.60000,94
25.60833,89
25.61667,83
25.62500,78
25.63333,73
25.64167,69
25.65000,65
25.65833,62
25.66667,59
25.67500,56
25.68333,52
25.69167,49
25.70000,46
25.70833,44
25.71667,41
25.72500,39
25.73333,37
25.74167,35
25.75000,34
25.75833,32
25.76667,31
25.77500,29
25.78333,28
25.79167,27
25.80000,26
25.80833,25
25.81667,24
25.82500,24
25.83333,23
25.84167,22
25.85000,22
25.85833,21
25.86667,21
25.87500,20
25.88333,19
25.89167,18
25.90000,18
25.90833,18
25.91667,18
25.92500,18
25.93333,18
25.94167,17
25.95000,17
25.95833,17
25.96667,17
25.97500,17
25.98333,17
25.99167,16
26.00000,16
26.00833,16
26.01667,15
26.02500,15
26.03333,15
26.04167,14
26.05000,14
26.05833,14
26.06667,14
26.07500,15
26.08333,15
26.09167,15
26.10000,15
26.10833,15
26.11667,15
26.12500,14
26.13333,14
26.14167,14
26.15000,14
26.15833,14
26.16667,14
26.17500,14
26.18333,14
26.19167,14
26.20000,14
26.20833,13
26.21667,13
26.22500,13
26.23333,13
26.24167,13
26.25000,13
26.25833,13
26.26667,13
26.27500,13
26.28333,13
26.29167,13
26.30000,13
26.30833,13
26.31667,13
26.32500,13
26.33333,13
26.34167,13
26.35000,13
26.35833,13
26.36667,14
26.37500,14
26.38333,13
26.39167,13
26.40000,13
26.40833,13
26.41667,13
26.42500,13
26.43333,13
26.44167,13
26.45000,13
26.45833,13
26.46667,13
26.47500,13
26.48333,13
26.49167,14
26.50000,13
26.50833,13
26.51667,12
26.52500,12
26.53333,12
26.54167,12
26.55000,12
26.55833,13
26.56667,13
26.57500,13
26.58333,12
26.59167,12
26.60000,12
26.60833,12
26.61667,12
26.62500,13
26.63333,13
26.64167,13
26.65000,12
26.65833,12
26.66667,12
26.67500,12
26.68333,12
26.69167,12
26.70000,12
26.70833,13
26.71667,13
26.72500,13
26.73333,13
26.74167,13
26.75000,13
26.75833,12
26.76667,12
26.77500,12
26.78333,12
26.79167,13
26.80000,13
26.80833,13
26.81667,13
26.82500,13
26.83333,13
26.84167,13
26.85000,13
26.85833,13
26.86667,13
26.87500,13
26.88333,13
26.89167,13
26.90000,13
26.90833,13
26.91667,13
26.92500,13
26.93333,13
26.94167,13
26.95000,13
26.95833,13
26.96667,13
26.97500,13
26.98333,13
26.99167,13
27.00000,13
27.00833,13
27.01667,13
27.02500,13
27.03333,13
27.04167,13
27.05000,13
27.05833,13
27.06667,13
27.07500,12
27.08333,12
27.09167,12
27.10000,12
27.10833,12
27.11667,12
27.12500,12
27.13333,12
27.14167,11
27.15000,11
27.15833,11
27.16667,11
27.17500,11
27.18333,10
27.19167,10
27.20000,10
27.20833,10
27.21667,9
27.22500,9
27.23333,8
27.24167,8
27.25000,7
27.25833,7
27.26667,6
27.27500,6
27.28333,5
27.29167,4
27.30000,3
27.30833,2
27.31667,1
27.32500,0
27.33333,-1
27.34167,-2
27.35000,-3
27.35833,-5
27.36667,-6
27.37500,-8
27.38333,-9
27.39167,-11
27.40000,-12
27.40833,-14
27.41667,-17
27.42500,-19
27.43333,-21
27.44167,-23
27.45000,-25
27.45833,-27
27.46667,-29
27.47500,-32
27.48333,-35
27.49167,-37
27.50000,-40
27.50833,-42
27.51667,-45
27.52500,-48
27.53333,-51
27.54167,-54
27.55000,-57
27.55833,-60
27.56667,-63
27.57500,-67
27.58333,-70
27.59167,-74
27.60000,-77
27.60833,-80
27.61667,-82
27.62500,-85
27.63333,-88
27.64167,-90
27.65000,-93
27.65833,-96
27.66667,-99
27.67500,-102
27.68333,-104
27.69167,-107
27.70000,-109
27.70833,-112
27.71667,-114
27.72500,-116
27.73333,-118
27.74167,-120
27.75000,-122
27.75833,-124
27.76667,-125
27.77500,-126
27.78333,-127
27.79167,-129
27.80000,-129
27.80833,-130
27.81667,-130
27.82500,-130
27.83333,-130
27.84167,-130
27.85000,-130
27.85833,-130
27.86667,-130
27.87500,-129
27.88333,-128
27.89167,-127
27.90000,-126
27.90833,-124
27.91667,-123
27.92500,-121
27.93333,-120
27.94167,-119
27.95000,-117
27.95833,-115
27.96667,-113
27.97500,-111
27.98333,-109
27.99167,-107
28.00000,-104
28.00833,-101
28.01667,-99
28.02500,-97
28.03333,-94
28.04167,-92
28.05000,-90
28.05833,-88
28.06667,-86
28.07500,-83
28.08333,-80
28.09167,-78
28.10000,-75
28.10833,-73
28.11667,-70
28.12500,-68
28.13333,-65
28.14167,-63
28.15000,-61
28.15833,-59
28.16667,-57
28.17500,-54
28.18333,-52
28.19167,-50
28.20000,-48
28.20833,-45
28.21667,-43
28.22500,-41
28.23333,-39
28.24167,-37
28.25000,-36
28.25833,-34
28.26667,-32
28.27500,-30
28.28333,-28
28.29167,-26
28.30000,-25
28.30833,-24
28.31667,-22
28.32500,-21
28.33333,-20
28.34167,-19
28.35000,-18
28.35833,-18
28.36667,-17
28.37500,-16
28.38333,-14
28.39167,-13
28.40000,-12
28.40833,-12
28.41667,-11
28.42500,-10
28.43333,-9
28.44167,-8
28.45000,-8
28.45833,-7
28.46667,-6
28.47500,-5
28.48333,-5
28.49167,-4
28.50000,-4
28.50833,-4
28.51667,-3
28.52500,-3
28.53333,-2
28.54167,-2
28.55000,-1
28.55833,-1
28.56667,-0
28.57500,0
28.58333,1
28.59167,1
28.60000,1
28.60833,2
28.61667,2
28.62500,2
28.63333,2
28.64167,3
28.65000,3
28.65833,4
28.66667,4
28.67500,4
28.68333,4
28.69167,4
28.70000,4
28.70833,5
28.71667,5
28.72500,5
28.73333,6
28.74167,6
28.75000,6
28.75833,6
28.76667,7
28.77500,7
28.78333,8
28.79167,9
28.80000,9
28.80833,9
28.81667,10
28.82500,10
28.83333,10
28.84167,11
28.85000,11
28.85833,12
28.86667,13
28.87500,14
28.88333,15
28.89167,16
28.90000,18
28.90833,19
28.91667,20
28.92500,22
28.93333,23
28.94167,25
28.95000,27
28.95833,28
28.96667,29
28.97500,31
28.98333,34
28.99167,36
29.00000,39
29.00833,41
29.01667,45
29.02500,48
29.03333,51
29.04167,54
29.05000,58
29.05833,62
29.06667,66
29.07500,70
29.08333,74
29.09167,79
29.10000,85
29.10833,90
29.11667,96
29.12500,102
29.13333,107
29.14167,113
29.15000,119
29.15833,126
29.16667,132
29.17500,139
29.18333,146
29.19167,152
29.20000,159
29.20833,166
29.21667,173
29.22500,180
29.23333,187
29.24167,194
29.25000,201
29.25833,208
29.26667,215
29.27500,222
29.28333,229
29.29167,236
29.30000,242
29.30833,249
29.31667,255
29.32500,260
29.33333,266
29.34167,272
29.35000,277
29.35833,281
29.36667,285
29.37500,289
29.38333,293
29.39167,297
29.40000,300
29.40833,302
29.41667,304
29.42500,306
29.43333,307
29.44167,308
29.45000,308
29.45833,307
29.46667,306
29.47500,305
29.48333,303
29.49167,301
29.50000,298
29.50833,295
29.51667,292
29.52500,289
29.53333,285
29.54167,281
29.55000,277
29.55833,272
29.56667,267
29.57500,262
29.58333,256
29.59167,250
29.60000,244
29.60833,238
29.61667,232
29.62500,225
29.63333,219
29.64167,212
29.65000,205
29.65833,199
29.66667,192
29.67500,185
29.68333,178
29.69167,172
29.70000,165
29.70833,159
29.71667,152
29.72500,146
29.73333,140
29.74167,133
29.75000,127
29.75833,121
29.76667,116
29.77500,110
29.78333,104
29.79167,99
29.80000,93
29.80833,89
29.81667,84
29.82500,79
29.83333,75
29.84167,71
29.85000,66
29.85833,62
29.86667,58
29.87500,55
29.88333,51
29.89167,48
29.90000,45
29.90833,42
29.91667,38
29.92500,35
29.93333,32
29.94167,29
29.95000,26
29.95833,23
29.96667,20
29.97500,18
29.98333,15
29.99167,12
30.00000,9
30.00833,7
30.01667,4
30.02500,1
30.03333,-2
30.04167,-5
30.05000,-7
30.05833,-11
30.06667,-14
30.07500,-17
30.08333,-20
30.09167,-23
30.10000,-26
30.10833,-29
30.11667,-33
30.12500,-36
30.13333,-40
30.14167,-44
30.15000,-49
30.15833,-53
30.16667,-58
30.17500,-63
30.18333,-68
30.19167,-74
30.20000,-80
30.20833,-85
30.21667,-91
30.22500,-97
30.23333,-103
30.24167,-110
30.25000,-116
30.25833,-124
30.26667,-131
30.27500,-139
30.28333,-146
30.29167,-154
30.30000,-163
30.30833,-171
30.31667,-180
30.32500,-189
30.33333,-198
30.34167,-206
30.35000,-216
30.35833,-225
30.36667,-234
30.37500,-244
30.38333,-253
30.39167,-263
30.40000,-273
30.40833,-282
30.41667,-292
30.42500,-301
30.43333,-311
30.44167,-321
30.45000,-330
30.45833,-340
30.46667,-349
30.47500,-357
30.48333,-366
30.49167,-375
30.50000,-383
30.50833,-391
30.51667,-399
30.52500,-406
30.53333,-413
30.54167,-420
30.55000,-427
30.55833,-433
30.56667,-438
30.57500,-444
30.58333,-448
30.59167,-453
30.60000,-457
30.60833,-460
30.61667,-463
30.62500,-466
30.63333,-468
30.64167,-470
30.65000,-472
30.65833,-472
30.66667,-473
30.67500,-472
30.68333,-472
30.69167,-470
30.70000,-469
30.70833,-467
30.71667,-464
30.72500,-460
30.73333,-456
30.74167,-452
30.75000,-448
30.75833,-443
30.76667,-438
30.77500,-432
30.78333,-426
30.79167,-420
30.80000,-413
30.80833,-407
30.81667,-399
30.82500,-392
30.83333,-384
30.84167,-376
30.85000,-368
30.85833,-360
30.86667,-352
30.87500,-343
30.88333,-334
30.89167,-326
30.90000,-317
30.90833,-309
30.91667,-300
30.92500,-291
30.93333,-282
30.94167,-273
30.95000,-265
30.95833,-256
30.96667,-248
30.97500,-240
30.98333,-231
30.99167,-223
31.00000,-215
31.00833,-207
31.01667,-199
31.02500,-191
31.03333,-183
31.04167,-176
31.05000,-169
31.05833,-162
31.06667,-155
31.07500,-148
31.08333,-142
31.09167,-136
31.10000,-129
31.10833,-123
31.11667,-117
31.12500,-112
31.13333,-107
31.14167,-102
31.15000,-97
31.15833,-92
31.16667,-87
31.17500,-83
31.18333,-78
31.19167,-74
31.20000,-70
31.20833,-67
31.21667,-63
31.22500,-60
31.23333,-56
31.24167,-53
31.25000,-50
31.25833,-47
31.26667,-45
31.27500,-42
31.28333,-40
31.29167,-38
31.30000,-36
31.30833,-34
31.31667,-32
31.32500,-30
31.33333,-28
31.34167,-27
31.35000,-25
31.35833,-24
31.36667,-22
31.37500,-21
31.38333,-19
31.39167,-18
31.40000,-17
31.40833,-16
31.41667,-15
31.42500,-14
31.43333,-12
31.44167,-11
31.45000,-10
31.45833,-9
31.46667,-8
31.47500,-7
31.48333,-6
31.49167,-6
31.50000,-5
31.50833,-3
31.51667,-2
31.52500,-1
31.53333,0
31.54167,1
31.55000,2
31.55833,3
31.56667,4
31.57500,5
31.58333,6
31.59167,7
31.60000,8
31.60833,10
31.61667,11
31.62500,13
31.63333,14
31.64167,16
31.65000,18
31.65833,21
31.66667,23
31.67500,26
31.68333,28
31.69167,30
31.70000,32
31.70833,36
31.71667,39
31.72500,43
31.73333,46
31.74167,50
31.75000,54
31.75833,58
31.76667,63
31.77500,68
31.78333,73
31.79167,78
31.80000,84
31.80833,90
31.81667,96
31.82500,102
31.83333,109
31.84167,116
31.85000,124
31.85833,131
31.86667,139
31.87500,147
31.88333,156
31.89167,165
31.90000,175
31.90833,185
31.91667,195
31.92500,205
31.93333,215
31.94167,225
31.95000,235
31.95833,246
31.96667,258
31.97500,269
31.98333,280
31.99167,292
32.00000,303
32.00833,315
32.01667,326
32.02500,338
32.03333,349
32.04167,361
32.05000,373
32.05833,384
32.06667,396
32.07500,407
32.08333,418
32.09167,428
32.10000,439
32.10833,449
32.11667,459
32.12500,468
32.13333,477
32.14167,485
32.15000,493
32.15833,501
32.16667,508
32.17500,514
32.18333,520
32.19167,525
32.20000,530
32.20833,534
32.21667,537
32.22500,540
32.23333,542
32.24167,543
32.25000,545
32.25833,545
32.26667,545
32.27500,545
32.28333,544
32.29167,542
32.30000,539
32.30833,535
32.31667,531
32.32500,527
32.33333,521
32.34167,516
32.35000,510
32.35833,503
32.36667,496
32.37500,488
32.38333,480
32.39167,472
32.40000,463
32.40833,454
32.41667,445
32.42500,435
32.43333,425
32.44167,415
32.45000,405
32.45833,394
32.46667,384
32.47500,373
32.48333,362
32.49167,352
32.50000,341
32.50833,331
32.51667,321
32.52500,310
32.53333,300
32.54167,289
32.55000,279
32.55833,269
32.56667,258
32.57500,248
32.58333,238
32.59167,228
32.60000,219
32.60833,210
32.61667,201
32.62500,192
32.63333,183
32.64167,175
32.65000,167
32.65833,159
32.66667,152
32.67500,144
32.68333,137
32.69167,130
32.70000,123
32.70833,117
32.71667,112
32.72500,106
32.73333,100
32.74167,95
32.75000,90
32.75833,86
32.76667,81
32.77500,77
32.78333,73
32.79167,69
32.80000,65
32.80833,62
32.81667,59
32.82500,55
32.83333,52
32.84167,50
32.85000,47
32.85833,45
32.86667,42
32.87500,40
32.88333,39
32.89167,37
32.90000,35
32.90833,33
32.91667,31
32.92500,29
32.93333,28
32.94167,26
32.95000,25
32.95833,24
32.96667,23
32.97500,22
32.98333,21
32.99167,20
33.00000,19
33.00833,19
33.01667,18
33.02500,17
33.03333,17
33.04167,16
33.05000,16
33.05833,16
33.06667,15
33.07500,15
33.08333,14
33.09167,14
33.10000,13
33.10833,13
33.11667,12
33.12500,12
33.13333,12
33.14167,12
33.15000,12
33.15833,11
33.16667,11
33.17500,10
33.18333,10
33.19167,10
33.20000,9
33.20833,9
33.21667,9
33.22500,8
33.23333,8
33.24167,8
33.25000,8
33.25833,7
33.26667,7
33.27500,6
33.28333,6
33.29167,6
33.30000,6
33.30833,6
33.31667,5
33.32500,5
33.33333,4
33.34167,4
33.35000,4
33.35833,3
33.36667,3
33.37500,2
33.38333,2
33.39167,1
33.40000,0
33.40833,-1
33.41667,-1
33.42500,-2
33.43333,-2
33.44167,-3
33.45000,-3
33.45833,-3
33.46667,-4
33.47500,-4
33.48333,-5
33.49167,-5
33.50000,-6
33.50833,-7
33.51667,-8
33.52500,-9
33.53333,-10
33.54167,-10
33.55000,-11
33.55833,-11
33.56667,-12
33.57500,-12
33.58333,-12
33.59167,-13
33.60000,-13
33.60833,-14
33.61667,-15
33.62500,-15
33.63333,-15
33.64167,-16
33.65000,-17
33.65833,-17
33.66667,-17
33.67500,-18
33.68333,-18
33.69167,-18
33.70000,-19
33.70833,-18
33.71667,-18
33.72500,-18
33.73333,-18
33.74167,-18
33.75000,-18
33.75833,-18
33.76667,-19
33.77500,-19
33.78333,-19
33.79167,-19
33.80000,-19
33.80833,-19
33.81667,-19
33.82500,-19
33.83333,-18
33.84167,-18
33.85000,-17
33.85833,-17
33.86667,-16
33.87500,-16
33.88333,-16
33.89167,-16
33.90000,-15
33.90833,-15
33.91667,-14
33.92500,-14
33.93333,-14
33.94167,-14
33.95000,-13
33.95833,-13
33.96667,-12
33.97500,-12
33.98333,-11
33.99167,-11
34.00000,-10
34.00833,-10
34.01667,-10
34.02500,-9
34.03333,-9
34.04167,-9
34.05000,-8
34.05833,-8
34.06667,-7
34.07500,-7
34.08333,-6
34.09167,-6
34.10000,-5
34.10833,-4
34.11667,-4
34.12500,-3
34.13333,-3
34.14167,-2
34.15000,-2
34.15833,-1
34.16667,-0
34.17500,0
34.18333,0
34.19167,1
34.20000,1
34.20833,1
34.21667,2
34.22500,2
34.23333,3
34.24167,3
34.25000,3
34.25833,3
34.26667,3
34.27500,4
34.28333,4
34.29167,4
34.30000,4
34.30833,4
34.31667,4
34.32500,5
34.33333,4
34.34167,5
34.35000,5
34.35833,5
34.36667,5
34.37500,6
34.38333,6
34.39167,6
34.40000,6
34.40833,6
34.41667,6
34.42500,6
34.43333,6
34.44167,6
34.45000,6
34.45833,6
34.46667,6
34.47500,6
34.48333,6
34.49167,6
34.50000,6
34.50833,6
34.51667,6
34.52500,7
34.53333,7
34.54167,7
34.55000,7
34.55833,7
34.56667,7
34.57500,7
34.58333,7
34.59167,7
34.60000,7
34.60833,7
34.61667,7
34.62500,7
34.63333,7
34.64167,8
34.65000,8
34.65833,8
34.66667,8
34.67500,8
34.68333,8
34.69167,8
34.70000,7
34.70833,7
34.71667,7
34.72500,7
34.73333,7
34.74167,7
34.75000,6
34.75833,6
34.76667,6
34.77500,6
34.78333,7
34.79167,7
34.80000,7
34.80833,8
34.81667,8
34.82500,8
34.83333,8
34.84167,8
34.85000,7
34.85833,7
34.86667,7
34.87500,7
34.88333,7
34.89167,7
34.90000,7
34.90833,7
34.91667,7
34.92500,7
34.93333,7
34.94167,7
34.95000,8
34.95833,8
34.96667,8
34.97500,8
34.98333,7
34.99167,7
35.00000,7
35.00833,7
35.01667,7
35.02500,8
35.03333,8
35.04167,7
35.05000,7
35.05833,7
35.06667,8
35.07500,8
35.08333,8
35.09167,8
35.10000,8
35.10833,8
35.11667,8
35.12500,8
35.13333,8
35.14167,8
35.15000,8
35.15833,8
35.16667,8
35.17500,8
35.18333,8
35.19167,8
35.20000,8
35.20833,8
35.21667,8
35.22500,8
35.23333,8
35.24167,8
35.25000,8
35.25833,8
35.26667,8
35.27500,8
35.28333,8
35.29167,8
35.30000,7
35.30833,7
35.31667,7
35.32500,7
35.33333,7
35.34167,7
35.35000,7
35.35833,7
35.36667,8
35.37500,8
35.38333,8
35.39167,8
35.40000,8
35.40833,8
35.41667,7
35.42500,7
35.43333,7
35.44167,7
35.45000,7
35.45833,7
35.46667,7
35.47500,8
35.48333,8
35.49167,8
35.50000,8
35.50833,8
35.51667,8
35.52500,8
35.53333,8
35.54167,8
35.55000,8
35.55833,9
35.56667,9
35.57500,9
35.58333,9
35.59167,9
35.60000,9
35.60833,9
35.61667,9
35.62500,9
35.63333,8
35.64167,8
35.65000,9
35.65833,9
35.66667,9
35.67500,9
35.68333,9
35.69167,9
35.70000,9
35.70833,9
35.71667,10
35.72500,10
35.73333,9
35.74167,9
35.75000,9
35.75833,9
35.76667,9
35.77500,9
35.78333,9
35.79167,9
35.80000,9
35.80833,9
35.81667,9
35.82500,9
35.83333,9
35.84167,9
35.85000,9
35.85833,9
35.86667,8
35.87500,9
35.88333,9
35.89167,9
35.90000,9
35.90833,8
35.91667,9
35.92500,9
35.93333,9
35.94167,10
35.95000,10
35.95833,9
35.96667,9
35.97500,10
35.98333,10
35.99167,10
36.00000,10
36.00833,10
36.01667,10
36.02500,10
36.03333,10
36.04167,10
36.05000,10
36.05833,9
36.06667,9
36.07500,9
36.08333,9
36.09167,9
36.10000,9
36.10833,9
36.11667,9
36.12500,10
36.13333,9
36.14167,9
36.15000,9
36.15833,9
36.16667,9
36.17500,9
36.18333,9
36.19167,9
36.20000,10
36.20833,10
36.21667,10
36.22500,10
36.23333,10
36.24167,10
36.25000,10
36.25833,10
36.26667,10
36.27500,10
36.28333,10
36.29167,10
36.30000,10
36.30833,10
36.31667,9
36.32500,9
36.33333,10
36.34167,10
36.35000,10
36.35833,10
36.36667,10
36.37500,10
36.38333,10
36.39167,10
36.40000,10
36.40833,10
36.41667,10
36.42500,10
36.43333,10
36.44167,10
36.45000,10
36.45833,10
36.46667,10
36.47500,10
36.48333,10
36.49167,10
36.50000,10
36.50833,10
36.51667,10
36.52500,10
36.53333,10
36.54167,10
36.55000,11
36.55833,11
36.56667,11
36.57500,11
36.58333,11
36.59167,11
36.60000,11
36.60833,11
36.61667,11
36.62500,12
36.63333,12
36.64167,12
36.65000,12
36.65833,11
36.66667,11
36.67500,11
36.68333,11
36.69167,12
36.70000,12
36.70833,12
36.71667,13
36.72500,13
36.73333,13
36.74167,13
36.75000,13
36.75833,13
36.76667,13
36.77500,12
36.78333,13
36.79167,13
36.80000,13
36.80833,14
36.81667,14
36.82500,14
36.83333,14
36.84167,14
36.85000,13
36.85833,13
36.86667,13
36.87500,12
36.88333,13
36.89167,13
36.90000,13
36.90833,13
36.91667,13
36.92500,13
36.93333,14
36.94167,14
36.95000,14
36.95833,15
36.96667,15
36.97500,14
36.98333,14
36.99167,15
37.00000,15
37.00833,15
37.01667,15
37.02500,16
37.03333,16
37.04167,16
37.05000,16
37.05833,16
37.06667,16
37.07500,16
37.08333,17
37.09167,17
37.10000,17
37.10833,17
37.11667,17
37.12500,17
37.13333,17
37.14167,17
37.15000,18
37.15833,18
37.16667,18
37.17500,19
37.18333,19
37.19167,19
37.20000,19
37.20833,19
37.21667,19
37.22500,19
37.23333,20
37.24167,20
37.25000,20
37.25833,20
37.26667,20
37.27500,20
37.28333,20
37.29167,20
37.30000,20
37.30833,20
37.31667,21
37.32500,21
37.33333,21
37.34167,22
37.35000,22
37.35833,22
37.36667,22
37.37500,22
37.38333,23
37.39167,23
37.40000,23
37.40833,23
37.41667,23
37.42500,23
37.43333,23
37.44167,23
37.45000,23
37.45833,24
37.46667,24
37.47500,24
37.48333,24
37.49167,25
37.50000,25
37.50833,25
37.51667,25
37.52500,25
37.53333,25
37.54167,25
37.55000,25
37.55833,25
37.56667,25
37.57500,25
37.58333,25
37.59167,26
37.60000,26
37.60833,26
37.61667,27
37.62500,27
37.63333,27
37.64167,27
37.65000,27
37.65833,27
37.66667,27
37.67500,27
37.68333,28
37.69167,27
37.70000,28
37.70833,28
37.71667,28
37.72500,28
37.73333,28
37.74167,27
37.75000,27
37.75833,28
37.76667,28
37.77500,28
37.78333,28
37.79167,28
37.80000,28
37.80833,28
37.81667,28
37.82500,28
37.83333,28
37.84167,28
37.85000,28
37.85833,28
37.86667,28
37.87500,28
37.88333,28
37.89167,29
37.90000,29
37.90833,28
37.91667,28
37.92500,28
37.93333,28
37.94167,28
37.95000,28
37.95833,28
37.96667,28
37.97500,28
37.98333,28
37.99167,28
38.00000,27
38.00833,27
38.01667,27
38.02500,27
38.03333,27
38.04167,27
38.05000,28
38.05833,28
38.06667,28
38.07500,27
38.08333,27
38.09167,27
38.10000,27
38.10833,27
38.11667,27
38.12500,26
38.13333,26
38.14167,25
38.15000,25
38.15833,25
38.16667,25
38.17500,25
38.18333,25
38.19167,25
38.20000,25
38.20833,25
38.21667,25
38.22500,25
38.23333,25
38.24167,25
38.25000,25
38.25833,25
38.26667,25
38.27500,25
38.28333,24
38.29167,24
38.30000,24
38.30833,24
38.31667,24
38.32500,24
38.33333,24
38.34167,24
38.35000,24
38.35833,24
38.36667,24
38.37500,24
38.38333,24
38.39167,23
38.40000,23
38.40833,22
38.41667,22
38.42500,22
38.43333,22
38.44167,21
38.45000,21
38.45833,21
38.46667,21
38.47500,21
38.48333,21
38.49167,21
38.50000,20
38.50833,20
38.51667,20
38.52500,19
38.53333,19
38.54167,19
38.55000,19
38.55833,19
38.56667,19
38.57500,19
38.58333,19
38.59167,19
38.60000,18
38.60833,18
38.61667,18
38.62500,18
38.63333,17
38.64167,17
38.65000,17
38.65833,17
38.66667,17
38.67500,17
38.68333,16
38.69167,16
38.70000,16
38.70833,16
38.71667,16
38.72500,16
38.73333,15
38.74167,15
38.75000,15
38.75833,15
38.76667,15
38.77500,15
38.78333,15
38.79167,15
38.80000,15
38.80833,15
38.81667,15
38.82500,15
38.83333,14
38.84167,14
38.85000,14
38.85833,14
38.86667,14
38.87500,14
38.88333,14
38.89167,13
38.90000,13
38.90833,13
38.91667,12
38.92500,12
38.93333,12
38.94167,12
38.95000,12
38.95833,11
38.96667,11
38.97500,11
38.98333,10
38.99167,10
39.00000,10
39.00833,10
39.01667,10
39.02500,9
39.03333,9
39.04167,9
39.05000,9
39.05833,9
39.06667,9
39.07500,9
39.08333,9
39.09167,9
39.10000,8
39.10833,9
39.11667,9
39.12500,9
39.13333,9
39.14167,9
39.15000,9
39.15833,8
39.16667,8
39.17500,8
39.18333,8
39.19167,8
39.20000,8
39.20833,7
39.21667,8
39.22500,7
39.23333,7
39.24167,7
39.25000,7
39.25833,7
39.26667,7
39.27500,7
39.28333,7
39.29167,7
39.30000,6
39.30833,6
39.31667,6
39.32500,6
39.33333,6
39.34167,6
39.35000,6
39.35833,6
39.36667,5
39.37500,5
39.38333,5
39.39167,5
39.40000,5
39.40833,5
39.41667,5
39.42500,5
39.43333,5
39.44167,4
39.45000,4
39.45833,4
39.46667,5
39.47500,5
39.48333,5
39.49167,5
39.50000,6
39.50833,6
39.51667,5
39.52500,5
39.53333,5
39.54167,4
39.55000,4
39.55833,4
39.56667,4
39.57500,4
39.58333,4
39.59167,4
39.60000,4
39.60833,4
39.61667,4
39.62500,4
39.63333,4
39.64167,4
39.65000,4
39.65833,3
39.66667,3
39.67500,3
39.68333,3
39.69167,3
39.70000,3
39.70833,3
39.71667,4
39.72500,4
39.73333,4
39.74167,3
39.75000,3
39.75833,3
39.76667,2
39.77500,2
39.78333,2
39.79167,2
39.80000,3
39.80833,3
39.81667,3
39.82500,3
39.83333,3
39.84167,3
39.85000,3
39.85833,2
39.86667,2
39.87500,2
39.88333,2
39.89167,2
39.90000,2
39.90833,2
39.91667,2
39.92500,2
39.93333,2
39.94167,2
39.95000,2
39.95833,2
39.96667,1
39.97500,1
39.98333,1
39.99167,1
40.00000,1

