[Header]
Application Name,LabSolutions
Version,5.97 SP1
Data File Name,C:\Users\cremerlab\Desktop\Richa\May_12th_2022_yield_expt\May 12th_5122022_001_002.lcd
Output Date,5/12/2022
Output Time,5:34:17 PM

[File Information]
Type,Data File
Generated,5/12/2022 4:53:57 PM
Generated by,System Administrator
Modified,5/12/2022 5:34:17 PM
Modified by,System Administrator

[Sample Information]
Operator Name,System Administrator
Acquired,5/12/2022 4:54:17 PM
Sample Type,0:Unknown
Level,0
Sample Name,220512_NCM3722_1
Sample ID,001
ISTD Amount1,1
ISTD Amount2,1
ISTD Amount3,1
ISTD Amount4,1
ISTD Amount5,1
ISTD Amount6,1
ISTD Amount7,1
ISTD Amount8,1
ISTD Amount9,1
ISTD Amount10,1
ISTD Amount11,1
ISTD Amount12,1
ISTD Amount13,1
ISTD Amount14,1
ISTD Amount15,1
ISTD Amount16,1
ISTD Amount17,1
ISTD Amount18,1
ISTD Amount19,1
ISTD Amount20,1
ISTD Amount21,1
ISTD Amount22,1
ISTD Amount23,1
ISTD Amount24,1
ISTD Amount25,1
ISTD Amount26,1
ISTD Amount27,1
ISTD Amount28,1
ISTD Amount29,1
ISTD Amount30,1
ISTD Amount31,1
ISTD Amount32,1
Sample Amount,1
Dilution Factor,1
Vial#,1
Injection Volume,20

[Original Files]
Data File,C:\Users\cremerlab\Desktop\Richa\May_12th_2022_yield_expt\May 12th_5122022_001_002.lcd
Method File,C:\Users\cremerlab\Desktop\Richa\acetate_excretion.lcm
Batch File,C:\Users\cremerlab\Desktop\Richa\May_12th_2022_yield_expt\May 12th.lcb
Report Format File,c:\LabSolutions\System\DEFAULT.lsr

[File Description]


[Configuration]
Instrument Name,HPLC-PC-Instrument1
Instrument #,1
Line #,1
# of Detectors,2
Detector ID,Detector A,Detector B
Detector Name,Detector A,Detector B
# of Channels,1,1

[Peak Table(Detector A)]
# of Peaks,0

[Peak Table(Detector B)]
# of Peaks,8
Peak#,R.Time,I.Time,F.Time,Area,Height,A/H,Conc.,Mark,ID#,Name,k',Plate #,Plate Ht.,Tailing,Resolution,Sep.Factor,Area Ratio,Height Ratio,Conc. %,Norm Conc.
1,11.041,10.667,12.242,1464966,91536,16.004,0.000,   ,,,0.000,10952,13.697,0.962,0.000,0.000,0,0,0.000,0.000
2,14.444,12.692,15.417,3568108,74781,47.714,0.000,   ,,,0.308,2654,56.518,0.826,4.409,0.000,0,0,0.000,0.000
3,15.861,15.417,19.975,878990,28399,30.951,0.000,SV ,,,0.437,9411,15.938,0.000,1.597,1.417,0,0,0.000,0.000
4,19.438,19.217,19.867,1219,63,19.457,0.000,T  ,,,0.760,23011,6.519,1.373,6.132,1.742,0,0,0.000,0.000
5,21.188,20.725,22.208,11226,397,28.291,0.000,   ,,,0.919,14748,10.171,1.494,2.891,1.208,0,0,0.000,0.000
6,23.281,22.750,23.983,25759,953,27.018,0.000,   ,,,1.109,16594,9.039,1.073,2.947,1.206,0,0,0.000,0.000
7,25.206,24.658,25.942,20423,710,28.762,0.000,   ,,,1.283,17206,8.718,1.083,2.581,1.157,0,0,0.000,0.000
8,32.270,30.700,33.058,43001,559,76.893,0.000,   ,,,1.923,3961,37.873,0.736,5.010,1.499,0,0,0.000,0.000

[LC Chromatogram(Detector B-Ch1)]
Interval(msec),500
# of Points,4801
Start Time(min),0.000
End Time(min),40.000
Intensity Units,mV
Intensity Multiplier,0.001
R.Time (min),Intensity
0.00000,-4
0.00833,-4
0.01667,-1
0.02500,-0
0.03333,-0
0.04167,-1
0.05000,-1
0.05833,-0
0.06667,-0
0.07500,-0
0.08333,-0
0.09167,-0
0.10000,-0
0.10833,-0
0.11667,-1
0.12500,-1
0.13333,-1
0.14167,-1
0.15000,-1
0.15833,-1
0.16667,-1
0.17500,-1
0.18333,-1
0.19167,-0
0.20000,-0
0.20833,-0
0.21667,-1
0.22500,-1
0.23333,-1
0.24167,-1
0.25000,-1
0.25833,-1
0.26667,-1
0.27500,-1
0.28333,-1
0.29167,-1
0.30000,-1
0.30833,-1
0.31667,-1
0.32500,-1
0.33333,-1
0.34167,-1
0.35000,-1
0.35833,-1
0.36667,-0
0.37500,-0
0.38333,-0
0.39167,-1
0.40000,-1
0.40833,-1
0.41667,-1
0.42500,-1
0.43333,-1
0.44167,-1
0.45000,-2
0.45833,-1
0.46667,-1
0.47500,-1
0.48333,-0
0.49167,-1
0.50000,-1
0.50833,-1
0.51667,-1
0.52500,-1
0.53333,-1
0.54167,-1
0.55000,-1
0.55833,-1
0.56667,-1
0.57500,-1
0.58333,-1
0.59167,-1
0.60000,-1
0.60833,-1
0.61667,-1
0.62500,-2
0.63333,-2
0.64167,-2
0.65000,-2
0.65833,-2
0.66667,-2
0.67500,-1
0.68333,-1
0.69167,-1
0.70000,-1
0.70833,-1
0.71667,-1
0.72500,-1
0.73333,-1
0.74167,-0
0.75000,-0
0.75833,-0
0.76667,-0
0.77500,-0
0.78333,-1
0.79167,-1
0.80000,-1
0.80833,-1
0.81667,-2
0.82500,-2
0.83333,-1
0.84167,-1
0.85000,-1
0.85833,-1
0.86667,-1
0.87500,-1
0.88333,-1
0.89167,-1
0.90000,-1
0.90833,-1
0.91667,-1
0.92500,-1
0.93333,-1
0.94167,-1
0.95000,-1
0.95833,-1
0.96667,-1
0.97500,-1
0.98333,-1
0.99167,-1
1.00000,-1
1.00833,-0
1.01667,0
1.02500,0
1.03333,0
1.04167,0
1.05000,0
1.05833,0
1.06667,0
1.07500,0
1.08333,0
1.09167,0
1.10000,-0
1.10833,-0
1.11667,-1
1.12500,-0
1.13333,-0
1.14167,-0
1.15000,-0
1.15833,-0
1.16667,-0
1.17500,-0
1.18333,-0
1.19167,-0
1.20000,-0
1.20833,-1
1.21667,-1
1.22500,-0
1.23333,-0
1.24167,-0
1.25000,-1
1.25833,-1
1.26667,-1
1.27500,-1
1.28333,-1
1.29167,-1
1.30000,-1
1.30833,-1
1.31667,-1
1.32500,-0
1.33333,-1
1.34167,-1
1.35000,-1
1.35833,-1
1.36667,-1
1.37500,-1
1.38333,-1
1.39167,-1
1.40000,-1
1.40833,-1
1.41667,-1
1.42500,-1
1.43333,-1
1.44167,-1
1.45000,-0
1.45833,-0
1.46667,-0
1.47500,-0
1.48333,-0
1.49167,-0
1.50000,-0
1.50833,0
1.51667,0
1.52500,0
1.53333,0
1.54167,0
1.55000,0
1.55833,1
1.56667,1
1.57500,1
1.58333,1
1.59167,1
1.60000,0
1.60833,0
1.61667,0
1.62500,0
1.63333,0
1.64167,0
1.65000,0
1.65833,0
1.66667,0
1.67500,0
1.68333,0
1.69167,0
1.70000,0
1.70833,0
1.71667,-0
1.72500,-0
1.73333,-1
1.74167,-1
1.75000,-1
1.75833,-1
1.76667,-1
1.77500,-0
1.78333,0
1.79167,1
1.80000,1
1.80833,1
1.81667,0
1.82500,0
1.83333,0
1.84167,0
1.85000,0
1.85833,0
1.86667,0
1.87500,0
1.88333,1
1.89167,1
1.90000,1
1.90833,1
1.91667,1
1.92500,1
1.93333,1
1.94167,1
1.95000,1
1.95833,1
1.96667,1
1.97500,1
1.98333,1
1.99167,1
2.00000,1
2.00833,1
2.01667,1
2.02500,1
2.03333,1
2.04167,1
2.05000,1
2.05833,1
2.06667,1
2.07500,1
2.08333,1
2.09167,1
2.10000,1
2.10833,1
2.11667,1
2.12500,1
2.13333,1
2.14167,2
2.15000,2
2.15833,2
2.16667,2
2.17500,2
2.18333,3
2.19167,3
2.20000,2
2.20833,2
2.21667,2
2.22500,1
2.23333,1
2.24167,1
2.25000,1
2.25833,1
2.26667,1
2.27500,2
2.28333,2
2.29167,1
2.30000,1
2.30833,1
2.31667,1
2.32500,1
2.33333,1
2.34167,2
2.35000,2
2.35833,2
2.36667,3
2.37500,3
2.38333,3
2.39167,3
2.40000,2
2.40833,2
2.41667,2
2.42500,2
2.43333,2
2.44167,1
2.45000,1
2.45833,2
2.46667,2
2.47500,2
2.48333,2
2.49167,2
2.50000,1
2.50833,1
2.51667,1
2.52500,2
2.53333,2
2.54167,2
2.55000,2
2.55833,2
2.56667,2
2.57500,2
2.58333,2
2.59167,3
2.60000,3
2.60833,3
2.61667,3
2.62500,3
2.63333,3
2.64167,2
2.65000,2
2.65833,2
2.66667,2
2.67500,2
2.68333,2
2.69167,2
2.70000,2
2.70833,2
2.71667,2
2.72500,2
2.73333,2
2.74167,2
2.75000,2
2.75833,2
2.76667,2
2.77500,3
2.78333,3
2.79167,3
2.80000,3
2.80833,3
2.81667,3
2.82500,3
2.83333,3
2.84167,3
2.85000,3
2.85833,3
2.86667,3
2.87500,2
2.88333,2
2.89167,2
2.90000,2
2.90833,2
2.91667,2
2.92500,3
2.93333,3
2.94167,3
2.95000,3
2.95833,3
2.96667,3
2.97500,3
2.98333,3
2.99167,3
3.00000,4
3.00833,4
3.01667,4
3.02500,4
3.03333,4
3.04167,4
3.05000,4
3.05833,5
3.06667,5
3.07500,5
3.08333,4
3.09167,4
3.10000,4
3.10833,4
3.11667,4
3.12500,4
3.13333,4
3.14167,4
3.15000,4
3.15833,4
3.16667,4
3.17500,4
3.18333,4
3.19167,4
3.20000,4
3.20833,4
3.21667,4
3.22500,4
3.23333,4
3.24167,5
3.25000,5
3.25833,5
3.26667,5
3.27500,5
3.28333,5
3.29167,5
3.30000,5
3.30833,5
3.31667,5
3.32500,4
3.33333,4
3.34167,4
3.35000,4
3.35833,4
3.36667,4
3.37500,4
3.38333,4
3.39167,4
3.40000,4
3.40833,4
3.41667,4
3.42500,4
3.43333,3
3.44167,4
3.45000,4
3.45833,4
3.46667,4
3.47500,4
3.48333,4
3.49167,5
3.50000,5
3.50833,5
3.51667,5
3.52500,5
3.53333,5
3.54167,5
3.55000,5
3.55833,5
3.56667,5
3.57500,5
3.58333,5
3.59167,5
3.60000,5
3.60833,6
3.61667,6
3.62500,6
3.63333,6
3.64167,5
3.65000,5
3.65833,6
3.66667,6
3.67500,6
3.68333,5
3.69167,5
3.70000,6
3.70833,6
3.71667,6
3.72500,6
3.73333,6
3.74167,6
3.75000,6
3.75833,6
3.76667,6
3.77500,6
3.78333,6
3.79167,5
3.80000,5
3.80833,5
3.81667,6
3.82500,6
3.83333,6
3.84167,6
3.85000,5
3.85833,5
3.86667,5
3.87500,5
3.88333,5
3.89167,5
3.90000,6
3.90833,6
3.91667,6
3.92500,6
3.93333,6
3.94167,6
3.95000,6
3.95833,5
3.96667,5
3.97500,6
3.98333,6
3.99167,6
4.00000,7
4.00833,7
4.01667,7
4.02500,7
4.03333,7
4.04167,6
4.05000,6
4.05833,6
4.06667,6
4.07500,5
4.08333,5
4.09167,5
4.10000,4
4.10833,4
4.11667,5
4.12500,5
4.13333,5
4.14167,5
4.15000,5
4.15833,5
4.16667,5
4.17500,5
4.18333,5
4.19167,5
4.20000,6
4.20833,6
4.21667,6
4.22500,6
4.23333,7
4.24167,6
4.25000,6
4.25833,6
4.26667,6
4.27500,5
4.28333,6
4.29167,6
4.30000,6
4.30833,6
4.31667,6
4.32500,6
4.33333,6
4.34167,5
4.35000,5
4.35833,6
4.36667,6
4.37500,6
4.38333,6
4.39167,6
4.40000,6
4.40833,6
4.41667,6
4.42500,6
4.43333,6
4.44167,6
4.45000,6
4.45833,6
4.46667,6
4.47500,6
4.48333,6
4.49167,6
4.50000,6
4.50833,6
4.51667,6
4.52500,6
4.53333,6
4.54167,6
4.55000,6
4.55833,6
4.56667,6
4.57500,6
4.58333,5
4.59167,5
4.60000,5
4.60833,5
4.61667,6
4.62500,6
4.63333,6
4.64167,6
4.65000,6
4.65833,6
4.66667,6
4.67500,6
4.68333,6
4.69167,6
4.70000,6
4.70833,6
4.71667,6
4.72500,6
4.73333,6
4.74167,6
4.75000,6
4.75833,6
4.76667,6
4.77500,6
4.78333,6
4.79167,6
4.80000,6
4.80833,7
4.81667,7
4.82500,7
4.83333,6
4.84167,6
4.85000,6
4.85833,6
4.86667,6
4.87500,6
4.88333,6
4.89167,7
4.90000,7
4.90833,7
4.91667,7
4.92500,6
4.93333,7
4.94167,7
4.95000,7
4.95833,7
4.96667,6
4.97500,6
4.98333,6
4.99167,6
5.00000,6
5.00833,6
5.01667,6
5.02500,6
5.03333,6
5.04167,6
5.05000,6
5.05833,6
5.06667,6
5.07500,5
5.08333,5
5.09167,5
5.10000,5
5.10833,6
5.11667,6
5.12500,6
5.13333,6
5.14167,6
5.15000,7
5.15833,7
5.16667,7
5.17500,7
5.18333,7
5.19167,7
5.20000,7
5.20833,6
5.21667,6
5.22500,6
5.23333,5
5.24167,5
5.25000,5
5.25833,5
5.26667,5
5.27500,5
5.28333,5
5.29167,5
5.30000,5
5.30833,6
5.31667,6
5.32500,6
5.33333,7
5.34167,7
5.35000,7
5.35833,7
5.36667,7
5.37500,7
5.38333,7
5.39167,7
5.40000,7
5.40833,7
5.41667,7
5.42500,7
5.43333,7
5.44167,6
5.45000,6
5.45833,6
5.46667,6
5.47500,5
5.48333,6
5.49167,6
5.50000,6
5.50833,6
5.51667,6
5.52500,6
5.53333,6
5.54167,5
5.55000,5
5.55833,5
5.56667,5
5.57500,5
5.58333,5
5.59167,5
5.60000,5
5.60833,5
5.61667,6
5.62500,6
5.63333,6
5.64167,6
5.65000,6
5.65833,6
5.66667,6
5.67500,7
5.68333,7
5.69167,7
5.70000,7
5.70833,7
5.71667,7
5.72500,6
5.73333,6
5.74167,6
5.75000,6
5.75833,6
5.76667,6
5.77500,6
5.78333,7
5.79167,7
5.80000,7
5.80833,7
5.81667,7
5.82500,7
5.83333,8
5.84167,8
5.85000,7
5.85833,7
5.86667,7
5.87500,7
5.88333,7
5.89167,7
5.90000,7
5.90833,7
5.91667,7
5.92500,7
5.93333,7
5.94167,7
5.95000,7
5.95833,7
5.96667,8
5.97500,7
5.98333,7
5.99167,7
6.00000,7
6.00833,7
6.01667,7
6.02500,7
6.03333,7
6.04167,7
6.05000,7
6.05833,7
6.06667,7
6.07500,7
6.08333,7
6.09167,7
6.10000,7
6.10833,7
6.11667,7
6.12500,7
6.13333,7
6.14167,7
6.15000,7
6.15833,7
6.16667,7
6.17500,7
6.18333,7
6.19167,7
6.20000,7
6.20833,7
6.21667,7
6.22500,7
6.23333,7
6.24167,6
6.25000,7
6.25833,7
6.26667,7
6.27500,7
6.28333,8
6.29167,8
6.30000,7
6.30833,7
6.31667,7
6.32500,7
6.33333,7
6.34167,7
6.35000,7
6.35833,7
6.36667,7
6.37500,7
6.38333,7
6.39167,7
6.40000,7
6.40833,7
6.41667,7
6.42500,7
6.43333,7
6.44167,7
6.45000,7
6.45833,7
6.46667,7
6.47500,7
6.48333,7
6.49167,7
6.50000,7
6.50833,7
6.51667,7
6.52500,8
6.53333,8
6.54167,9
6.55000,9
6.55833,9
6.56667,9
6.57500,8
6.58333,9
6.59167,8
6.60000,8
6.60833,8
6.61667,8
6.62500,8
6.63333,8
6.64167,8
6.65000,7
6.65833,7
6.66667,8
6.67500,8
6.68333,8
6.69167,8
6.70000,8
6.70833,8
6.71667,8
6.72500,8
6.73333,8
6.74167,8
6.75000,8
6.75833,8
6.76667,8
6.77500,8
6.78333,8
6.79167,8
6.80000,7
6.80833,7
6.81667,8
6.82500,8
6.83333,7
6.84167,7
6.85000,7
6.85833,7
6.86667,7
6.87500,8
6.88333,8
6.89167,7
6.90000,8
6.90833,8
6.91667,8
6.92500,7
6.93333,7
6.94167,8
6.95000,8
6.95833,8
6.96667,8
6.97500,8
6.98333,8
6.99167,8
7.00000,8
7.00833,8
7.01667,8
7.02500,8
7.03333,8
7.04167,8
7.05000,8
7.05833,9
7.06667,9
7.07500,10
7.08333,10
7.09167,9
7.10000,9
7.10833,9
7.11667,9
7.12500,9
7.13333,9
7.14167,9
7.15000,9
7.15833,9
7.16667,9
7.17500,9
7.18333,9
7.19167,9
7.20000,9
7.20833,9
7.21667,9
7.22500,10
7.23333,10
7.24167,9
7.25000,9
7.25833,9
7.26667,9
7.27500,9
7.28333,9
7.29167,8
7.30000,8
7.30833,8
7.31667,8
7.32500,9
7.33333,8
7.34167,8
7.35000,8
7.35833,8
7.36667,8
7.37500,8
7.38333,8
7.39167,8
7.40000,8
7.40833,8
7.41667,8
7.42500,8
7.43333,8
7.44167,8
7.45000,9
7.45833,9
7.46667,9
7.47500,9
7.48333,9
7.49167,9
7.50000,9
7.50833,9
7.51667,9
7.52500,9
7.53333,8
7.54167,8
7.55000,9
7.55833,9
7.56667,9
7.57500,9
7.58333,9
7.59167,9
7.60000,9
7.60833,9
7.61667,9
7.62500,9
7.63333,9
7.64167,9
7.65000,9
7.65833,9
7.66667,9
7.67500,9
7.68333,9
7.69167,9
7.70000,9
7.70833,9
7.71667,9
7.72500,9
7.73333,10
7.74167,10
7.75000,10
7.75833,10
7.76667,10
7.77500,10
7.78333,10
7.79167,10
7.80000,11
7.80833,11
7.81667,11
7.82500,11
7.83333,11
7.84167,10
7.85000,10
7.85833,10
7.86667,9
7.87500,9
7.88333,9
7.89167,9
7.90000,9
7.90833,10
7.91667,10
7.92500,10
7.93333,10
7.94167,10
7.95000,10
7.95833,10
7.96667,10
7.97500,10
7.98333,10
7.99167,10
8.00000,10
8.00833,10
8.01667,10
8.02500,10
8.03333,10
8.04167,10
8.05000,10
8.05833,9
8.06667,9
8.07500,9
8.08333,9
8.09167,9
8.10000,10
8.10833,10
8.11667,10
8.12500,10
8.13333,10
8.14167,10
8.15000,9
8.15833,9
8.16667,9
8.17500,9
8.18333,9
8.19167,9
8.20000,9
8.20833,10
8.21667,10
8.22500,9
8.23333,9
8.24167,9
8.25000,10
8.25833,10
8.26667,10
8.27500,10
8.28333,10
8.29167,9
8.30000,9
8.30833,9
8.31667,9
8.32500,9
8.33333,9
8.34167,9
8.35000,9
8.35833,9
8.36667,9
8.37500,10
8.38333,10
8.39167,10
8.40000,10
8.40833,10
8.41667,10
8.42500,10
8.43333,10
8.44167,10
8.45000,9
8.45833,9
8.46667,10
8.47500,10
8.48333,10
8.49167,10
8.50000,10
8.50833,10
8.51667,10
8.52500,9
8.53333,9
8.54167,9
8.55000,9
8.55833,9
8.56667,10
8.57500,10
8.58333,10
8.59167,10
8.60000,10
8.60833,10
8.61667,10
8.62500,10
8.63333,10
8.64167,10
8.65000,10
8.65833,10
8.66667,11
8.67500,11
8.68333,11
8.69167,10
8.70000,10
8.70833,11
8.71667,10
8.72500,10
8.73333,10
8.74167,10
8.75000,10
8.75833,10
8.76667,10
8.77500,10
8.78333,10
8.79167,10
8.80000,10
8.80833,10
8.81667,10
8.82500,10
8.83333,10
8.84167,10
8.85000,10
8.85833,10
8.86667,10
8.87500,11
8.88333,11
8.89167,10
8.90000,10
8.90833,10
8.91667,10
8.92500,10
8.93333,10
8.94167,10
8.95000,10
8.95833,10
8.96667,10
8.97500,10
8.98333,11
8.99167,11
9.00000,11
9.00833,11
9.01667,11
9.02500,11
9.03333,11
9.04167,11
9.05000,11
9.05833,11
9.06667,12
9.07500,12
9.08333,13
9.09167,13
9.10000,13
9.10833,13
9.11667,12
9.12500,12
9.13333,11
9.14167,11
9.15000,11
9.15833,11
9.16667,11
9.17500,11
9.18333,11
9.19167,11
9.20000,11
9.20833,11
9.21667,11
9.22500,11
9.23333,11
9.24167,11
9.25000,11
9.25833,11
9.26667,11
9.27500,11
9.28333,11
9.29167,11
9.30000,11
9.30833,11
9.31667,11
9.32500,12
9.33333,12
9.34167,12
9.35000,12
9.35833,11
9.36667,11
9.37500,11
9.38333,11
9.39167,11
9.40000,11
9.40833,11
9.41667,12
9.42500,12
9.43333,12
9.44167,12
9.45000,11
9.45833,11
9.46667,11
9.47500,12
9.48333,12
9.49167,12
9.50000,11
9.50833,11
9.51667,11
9.52500,11
9.53333,11
9.54167,11
9.55000,11
9.55833,12
9.56667,12
9.57500,12
9.58333,12
9.59167,12
9.60000,11
9.60833,11
9.61667,11
9.62500,11
9.63333,11
9.64167,11
9.65000,11
9.65833,12
9.66667,12
9.67500,12
9.68333,12
9.69167,12
9.70000,12
9.70833,12
9.71667,12
9.72500,12
9.73333,12
9.74167,12
9.75000,12
9.75833,12
9.76667,12
9.77500,12
9.78333,12
9.79167,12
9.80000,12
9.80833,12
9.81667,13
9.82500,13
9.83333,13
9.84167,13
9.85000,13
9.85833,12
9.86667,12
9.87500,12
9.88333,12
9.89167,12
9.90000,12
9.90833,11
9.91667,11
9.92500,11
9.93333,11
9.94167,11
9.95000,11
9.95833,11
9.96667,12
9.97500,11
9.98333,11
9.99167,12
10.00000,12
10.00833,12
10.01667,12
10.02500,12
10.03333,12
10.04167,12
10.05000,12
10.05833,12
10.06667,12
10.07500,12
10.08333,13
10.09167,12
10.10000,12
10.10833,12
10.11667,12
10.12500,12
10.13333,12
10.14167,12
10.15000,12
10.15833,12
10.16667,12
10.17500,12
10.18333,12
10.19167,12
10.20000,12
10.20833,13
10.21667,13
10.22500,13
10.23333,12
10.24167,13
10.25000,13
10.25833,13
10.26667,13
10.27500,13
10.28333,13
10.29167,13
10.30000,13
10.30833,13
10.31667,14
10.32500,14
10.33333,14
10.34167,14
10.35000,14
10.35833,14
10.36667,15
10.37500,15
10.38333,15
10.39167,15
10.40000,15
10.40833,15
10.41667,15
10.42500,15
10.43333,15
10.44167,14
10.45000,13
10.45833,12
10.46667,11
10.47500,8
10.48333,3
10.49167,-3
10.50000,-12
10.50833,-24
10.51667,-41
10.52500,-62
10.53333,-90
10.54167,-125
10.55000,-168
10.55833,-220
10.56667,-283
10.57500,-355
10.58333,-438
10.59167,-529
10.60000,-628
10.60833,-732
10.61667,-838
10.62500,-942
10.63333,-1039
10.64167,-1122
10.65000,-1184
10.65833,-1218
10.66667,-1217
10.67500,-1170
10.68333,-1070
10.69167,-907
10.70000,-673
10.70833,-358
10.71667,45
10.72500,544
10.73333,1148
10.74167,1862
10.75000,2693
10.75833,3647
10.76667,4727
10.77500,5938
10.78333,7283
10.79167,8765
10.80000,10385
10.80833,12146
10.81667,14048
10.82500,16091
10.83333,18276
10.84167,20601
10.85000,23066
10.85833,25669
10.86667,28406
10.87500,31276
10.88333,34274
10.89167,37397
10.90000,40638
10.90833,43991
10.91667,47447
10.92500,50995
10.93333,54620
10.94167,58304
10.95000,62023
10.95833,65747
10.96667,69439
10.97500,73052
10.98333,76527
10.99167,79800
11.00000,82792
11.00833,85421
11.01667,87599
11.02500,89239
11.03333,90264
11.04167,90607
11.05000,90222
11.05833,89088
11.06667,87211
11.07500,84625
11.08333,81390
11.09167,77590
11.10000,73325
11.10833,68707
11.11667,63851
11.12500,58871
11.13333,53873
11.14167,48951
11.15000,44186
11.15833,39642
11.16667,35367
11.17500,31393
11.18333,27741
11.19167,24416
11.20000,21416
11.20833,18731
11.21667,16344
11.22500,14236
11.23333,12385
11.24167,10767
11.25000,9359
11.25833,8137
11.26667,7081
11.27500,6170
11.28333,5386
11.29167,4712
11.30000,4133
11.30833,3635
11.31667,3208
11.32500,2840
11.33333,2524
11.34167,2252
11.35000,2017
11.35833,1814
11.36667,1638
11.37500,1485
11.38333,1351
11.39167,1234
11.40000,1132
11.40833,1041
11.41667,961
11.42500,889
11.43333,825
11.44167,768
11.45000,716
11.45833,669
11.46667,627
11.47500,588
11.48333,553
11.49167,520
11.50000,490
11.50833,463
11.51667,437
11.52500,414
11.53333,392
11.54167,371
11.55000,351
11.55833,333
11.56667,316
11.57500,300
11.58333,285
11.59167,270
11.60000,256
11.60833,243
11.61667,231
11.62500,219
11.63333,208
11.64167,198
11.65000,187
11.65833,177
11.66667,168
11.67500,159
11.68333,151
11.69167,143
11.70000,136
11.70833,128
11.71667,121
11.72500,115
11.73333,108
11.74167,102
11.75000,97
11.75833,91
11.76667,86
11.77500,81
11.78333,76
11.79167,71
11.80000,67
11.80833,62
11.81667,58
11.82500,55
11.83333,51
11.84167,48
11.85000,45
11.85833,43
11.86667,40
11.87500,37
11.88333,35
11.89167,33
11.90000,31
11.90833,29
11.91667,27
11.92500,25
11.93333,23
11.94167,21
11.95000,20
11.95833,18
11.96667,17
11.97500,16
11.98333,15
11.99167,13
12.00000,12
12.00833,11
12.01667,11
12.02500,10
12.03333,9
12.04167,8
12.05000,7
12.05833,6
12.06667,5
12.07500,4
12.08333,3
12.09167,2
12.10000,1
12.10833,0
12.11667,-0
12.12500,-1
12.13333,-2
12.14167,-2
12.15000,-3
12.15833,-3
12.16667,-4
12.17500,-5
12.18333,-6
12.19167,-7
12.20000,-8
12.20833,-8
12.21667,-9
12.22500,-9
12.23333,-10
12.24167,-10
12.25000,-10
12.25833,-10
12.26667,-10
12.27500,-10
12.28333,-11
12.29167,-11
12.30000,-11
12.30833,-11
12.31667,-11
12.32500,-11
12.33333,-11
12.34167,-11
12.35000,-11
12.35833,-11
12.36667,-11
12.37500,-11
12.38333,-11
12.39167,-11
12.40000,-11
12.40833,-11
12.41667,-11
12.42500,-11
12.43333,-11
12.44167,-11
12.45000,-11
12.45833,-11
12.46667,-11
12.47500,-11
12.48333,-11
12.49167,-11
12.50000,-11
12.50833,-11
12.51667,-10
12.52500,-10
12.53333,-10
12.54167,-9
12.55000,-9
12.55833,-9
12.56667,-9
12.57500,-8
12.58333,-7
12.59167,-7
12.60000,-7
12.60833,-6
12.61667,-6
12.62500,-5
12.63333,-5
12.64167,-5
12.65000,-4
12.65833,-4
12.66667,-3
12.67500,-2
12.68333,-2
12.69167,-2
12.70000,-1
12.70833,-0
12.71667,0
12.72500,2
12.73333,3
12.74167,5
12.75000,7
12.75833,9
12.76667,12
12.77500,16
12.78333,20
12.79167,25
12.80000,31
12.80833,39
12.81667,48
12.82500,59
12.83333,73
12.84167,89
12.85000,107
12.85833,129
12.86667,154
12.87500,183
12.88333,216
12.89167,254
12.90000,296
12.90833,344
12.91667,397
12.92500,456
12.93333,521
12.94167,592
12.95000,669
12.95833,753
12.96667,844
12.97500,941
12.98333,1045
12.99167,1156
13.00000,1274
13.00833,1398
13.01667,1529
13.02500,1667
13.03333,1811
13.04167,1961
13.05000,2117
13.05833,2279
13.06667,2448
13.07500,2622
13.08333,2802
13.09167,2987
13.10000,3178
13.10833,3373
13.11667,3574
13.12500,3779
13.13333,3989
13.14167,4203
13.15000,4421
13.15833,4644
13.16667,4870
13.17500,5100
13.18333,5334
13.19167,5571
13.20000,5812
13.20833,6056
13.21667,6304
13.22500,6555
13.23333,6809
13.24167,7067
13.25000,7327
13.25833,7590
13.26667,7856
13.27500,8125
13.28333,8397
13.29167,8671
13.30000,8948
13.30833,9227
13.31667,9510
13.32500,9795
13.33333,10083
13.34167,10373
13.35000,10666
13.35833,10961
13.36667,11259
13.37500,11559
13.38333,11862
13.39167,12167
13.40000,12475
13.40833,12785
13.41667,13098
13.42500,13413
13.43333,13730
13.44167,14050
13.45000,14373
13.45833,14698
13.46667,15026
13.47500,15356
13.48333,15688
13.49167,16022
13.50000,16359
13.50833,16699
13.51667,17041
13.52500,17386
13.53333,17733
13.54167,18083
13.55000,18435
13.55833,18790
13.56667,19148
13.57500,19508
13.58333,19871
13.59167,20237
13.60000,20605
13.60833,20976
13.61667,21350
13.62500,21727
13.63333,22106
13.64167,22488
13.65000,22873
13.65833,23261
13.66667,23652
13.67500,24045
13.68333,24442
13.69167,24841
13.70000,25244
13.70833,25649
13.71667,26058
13.72500,26469
13.73333,26883
13.74167,27301
13.75000,27721
13.75833,28146
13.76667,28573
13.77500,29003
13.78333,29437
13.79167,29873
13.80000,30313
13.80833,30757
13.81667,31204
13.82500,31654
13.83333,32107
13.84167,32564
13.85000,33024
13.85833,33487
13.86667,33955
13.87500,34426
13.88333,34901
13.89167,35379
13.90000,35860
13.90833,36346
13.91667,36835
13.92500,37329
13.93333,37826
13.94167,38327
13.95000,38832
13.95833,39340
13.96667,39853
13.97500,40370
13.98333,40890
13.99167,41415
14.00000,41944
14.00833,42478
14.01667,43015
14.02500,43557
14.03333,44103
14.04167,44653
14.05000,45208
14.05833,45767
14.06667,46330
14.07500,46899
14.08333,47472
14.09167,48049
14.10000,48630
14.10833,49217
14.11667,49808
14.12500,50404
14.13333,51005
14.14167,51611
14.15000,52222
14.15833,52838
14.16667,53459
14.17500,54085
14.18333,54717
14.19167,55353
14.20000,55995
14.20833,56643
14.21667,57296
14.22500,57954
14.23333,58618
14.24167,59287
14.25000,59962
14.25833,60642
14.26667,61329
14.27500,62021
14.28333,62719
14.29167,63423
14.30000,64133
14.30833,64849
14.31667,65571
14.32500,66299
14.33333,67033
14.34167,67771
14.35000,68512
14.35833,69255
14.36667,69996
14.37500,70730
14.38333,71450
14.39167,72144
14.40000,72800
14.40833,73402
14.41667,73929
14.42500,74356
14.43333,74655
14.44167,74798
14.45000,74755
14.45833,74494
14.46667,73989
14.47500,73216
14.48333,72157
14.49167,70803
14.50000,69151
14.50833,67208
14.51667,64990
14.52500,62521
14.53333,59833
14.54167,56966
14.55000,53961
14.55833,50864
14.56667,47720
14.57500,44573
14.58333,41467
14.59167,38437
14.60000,35515
14.60833,32729
14.61667,30097
14.62500,27635
14.63333,25351
14.64167,23249
14.65000,21328
14.65833,19584
14.66667,18010
14.67500,16597
14.68333,15334
14.69167,14209
14.70000,13211
14.70833,12328
14.71667,11548
14.72500,10859
14.73333,10253
14.74167,9719
14.75000,9248
14.75833,8833
14.76667,8467
14.77500,8143
14.78333,7856
14.79167,7600
14.80000,7373
14.80833,7169
14.81667,6986
14.82500,6820
14.83333,6670
14.84167,6534
14.85000,6409
14.85833,6294
14.86667,6188
14.87500,6089
14.88333,5997
14.89167,5910
14.90000,5828
14.90833,5751
14.91667,5677
14.92500,5607
14.93333,5540
14.94167,5476
14.95000,5415
14.95833,5355
14.96667,5298
14.97500,5243
14.98333,5189
14.99167,5136
15.00000,5085
15.00833,5035
15.01667,4986
15.02500,4938
15.03333,4891
15.04167,4846
15.05000,4801
15.05833,4757
15.06667,4713
15.07500,4671
15.08333,4629
15.09167,4588
15.10000,4548
15.10833,4509
15.11667,4470
15.12500,4432
15.13333,4394
15.14167,4357
15.15000,4321
15.15833,4286
15.16667,4251
15.17500,4217
15.18333,4183
15.19167,4150
15.20000,4118
15.20833,4086
15.21667,4056
15.22500,4025
15.23333,3996
15.24167,3967
15.25000,3939
15.25833,3912
15.26667,3885
15.27500,3858
15.28333,3832
15.29167,3807
15.30000,3783
15.30833,3759
15.31667,3736
15.32500,3714
15.33333,3693
15.34167,3672
15.35000,3652
15.35833,3634
15.36667,3617
15.37500,3601
15.38333,3588
15.39167,3577
15.40000,3568
15.40833,3562
15.41667,3560
15.42500,3563
15.43333,3570
15.44167,3584
15.45000,3605
15.45833,3634
15.46667,3674
15.47500,3724
15.48333,3788
15.49167,3866
15.50000,3961
15.50833,4076
15.51667,4212
15.52500,4371
15.53333,4556
15.54167,4770
15.55000,5015
15.55833,5293
15.56667,5608
15.57500,5961
15.58333,6354
15.59167,6789
15.60000,7267
15.60833,7790
15.61667,8358
15.62500,8971
15.63333,9629
15.64167,10330
15.65000,11073
15.65833,11856
15.66667,12676
15.67500,13529
15.68333,14409
15.69167,15314
15.70000,16237
15.70833,17172
15.71667,18113
15.72500,19052
15.73333,19983
15.74167,20898
15.75000,21790
15.75833,22651
15.76667,23475
15.77500,24255
15.78333,24983
15.79167,25654
15.80000,26262
15.80833,26803
15.81667,27271
15.82500,27663
15.83333,27978
15.84167,28211
15.85000,28362
15.85833,28432
15.86667,28421
15.87500,28329
15.88333,28159
15.89167,27914
15.90000,27597
15.90833,27212
15.91667,26762
15.92500,26253
15.93333,25690
15.94167,25078
15.95000,24423
15.95833,23731
15.96667,23006
15.97500,22256
15.98333,21484
15.99167,20696
16.00000,19899
16.00833,19095
16.01667,18291
16.02500,17490
16.03333,16697
16.04167,15915
16.05000,15148
16.05833,14398
16.06667,13668
16.07500,12959
16.08333,12273
16.09167,11613
16.10000,10980
16.10833,10373
16.11667,9795
16.12500,9244
16.13333,8721
16.14167,8226
16.15000,7759
16.15833,7319
16.16667,6905
16.17500,6518
16.18333,6155
16.19167,5817
16.20000,5501
16.20833,5207
16.21667,4935
16.22500,4682
16.23333,4447
16.24167,4230
16.25000,4030
16.25833,3844
16.26667,3674
16.27500,3516
16.28333,3372
16.29167,3239
16.30000,3116
16.30833,3004
16.31667,2901
16.32500,2806
16.33333,2719
16.34167,2638
16.35000,2564
16.35833,2496
16.36667,2434
16.37500,2376
16.38333,2323
16.39167,2274
16.40000,2229
16.40833,2187
16.41667,2148
16.42500,2111
16.43333,2077
16.44167,2045
16.45000,2016
16.45833,1989
16.46667,1963
16.47500,1939
16.48333,1917
16.49167,1895
16.50000,1875
16.50833,1856
16.51667,1838
16.52500,1820
16.53333,1803
16.54167,1788
16.55000,1772
16.55833,1758
16.56667,1744
16.57500,1730
16.58333,1717
16.59167,1705
16.60000,1693
16.60833,1681
16.61667,1670
16.62500,1659
16.63333,1648
16.64167,1638
16.65000,1628
16.65833,1618
16.66667,1608
16.67500,1599
16.68333,1590
16.69167,1581
16.70000,1572
16.70833,1563
16.71667,1555
16.72500,1547
16.73333,1539
16.74167,1531
16.75000,1523
16.75833,1516
16.76667,1508
16.77500,1500
16.78333,1493
16.79167,1485
16.80000,1477
16.80833,1470
16.81667,1463
16.82500,1456
16.83333,1449
16.84167,1443
16.85000,1437
16.85833,1430
16.86667,1423
16.87500,1416
16.88333,1410
16.89167,1404
16.90000,1397
16.90833,1391
16.91667,1385
16.92500,1379
16.93333,1372
16.94167,1366
16.95000,1360
16.95833,1353
16.96667,1347
16.97500,1341
16.98333,1335
16.99167,1329
17.00000,1324
17.00833,1318
17.01667,1311
17.02500,1305
17.03333,1299
17.04167,1293
17.05000,1287
17.05833,1281
17.06667,1275
17.07500,1269
17.08333,1264
17.09167,1258
17.10000,1252
17.10833,1246
17.11667,1240
17.12500,1235
17.13333,1229
17.14167,1224
17.15000,1218
17.15833,1212
17.16667,1206
17.17500,1200
17.18333,1194
17.19167,1189
17.20000,1183
17.20833,1177
17.21667,1171
17.22500,1165
17.23333,1159
17.24167,1154
17.25000,1148
17.25833,1143
17.26667,1137
17.27500,1132
17.28333,1126
17.29167,1121
17.30000,1115
17.30833,1109
17.31667,1103
17.32500,1098
17.33333,1092
17.34167,1086
17.35000,1080
17.35833,1075
17.36667,1070
17.37500,1065
17.38333,1059
17.39167,1054
17.40000,1049
17.40833,1043
17.41667,1037
17.42500,1032
17.43333,1026
17.44167,1021
17.45000,1015
17.45833,1010
17.46667,1004
17.47500,999
17.48333,993
17.49167,989
17.50000,984
17.50833,978
17.51667,973
17.52500,967
17.53333,962
17.54167,957
17.55000,952
17.55833,947
17.56667,943
17.57500,938
17.58333,933
17.59167,928
17.60000,923
17.60833,918
17.61667,913
17.62500,908
17.63333,904
17.64167,899
17.65000,894
17.65833,889
17.66667,884
17.67500,879
17.68333,874
17.69167,869
17.70000,865
17.70833,861
17.71667,856
17.72500,851
17.73333,847
17.74167,842
17.75000,838
17.75833,834
17.76667,830
17.77500,825
17.78333,821
17.79167,816
17.80000,812
17.80833,807
17.81667,803
17.82500,798
17.83333,794
17.84167,790
17.85000,785
17.85833,781
17.86667,776
17.87500,771
17.88333,767
17.89167,762
17.90000,758
17.90833,753
17.91667,749
17.92500,745
17.93333,741
17.94167,737
17.95000,733
17.95833,729
17.96667,725
17.97500,721
17.98333,716
17.99167,712
18.00000,708
18.00833,704
18.01667,700
18.02500,695
18.03333,691
18.04167,688
18.05000,684
18.05833,680
18.06667,676
18.07500,672
18.08333,667
18.09167,663
18.10000,659
18.10833,655
18.11667,652
18.12500,647
18.13333,643
18.14167,639
18.15000,635
18.15833,631
18.16667,627
18.17500,624
18.18333,620
18.19167,616
18.20000,612
18.20833,608
18.21667,604
18.22500,600
18.23333,596
18.24167,592
18.25000,588
18.25833,584
18.26667,581
18.27500,577
18.28333,573
18.29167,569
18.30000,565
18.30833,561
18.31667,557
18.32500,554
18.33333,550
18.34167,546
18.35000,542
18.35833,539
18.36667,535
18.37500,531
18.38333,527
18.39167,523
18.40000,519
18.40833,515
18.41667,511
18.42500,507
18.43333,503
18.44167,498
18.45000,494
18.45833,490
18.46667,487
18.47500,483
18.48333,479
18.49167,475
18.50000,471
18.50833,467
18.51667,463
18.52500,459
18.53333,455
18.54167,451
18.55000,447
18.55833,442
18.56667,439
18.57500,435
18.58333,431
18.59167,426
18.60000,422
18.60833,418
18.61667,414
18.62500,411
18.63333,407
18.64167,402
18.65000,399
18.65833,395
18.66667,391
18.67500,387
18.68333,383
18.69167,378
18.70000,374
18.70833,370
18.71667,367
18.72500,363
18.73333,359
18.74167,355
18.75000,352
18.75833,348
18.76667,345
18.77500,341
18.78333,338
18.79167,335
18.80000,331
18.80833,327
18.81667,324
18.82500,320
18.83333,317
18.84167,313
18.85000,310
18.85833,307
18.86667,303
18.87500,299
18.88333,296
18.89167,292
18.90000,289
18.90833,285
18.91667,282
18.92500,278
18.93333,275
18.94167,272
18.95000,268
18.95833,264
18.96667,261
18.97500,257
18.98333,254
18.99167,251
19.00000,248
19.00833,245
19.01667,242
19.02500,239
19.03333,236
19.04167,232
19.05000,229
19.05833,226
19.06667,223
19.07500,220
19.08333,217
19.09167,214
19.10000,212
19.10833,210
19.11667,208
19.12500,206
19.13333,204
19.14167,202
19.15000,201
19.15833,199
19.16667,198
19.17500,197
19.18333,196
19.19167,195
19.20000,194
19.20833,193
19.21667,193
19.22500,193
19.23333,193
19.24167,194
19.25000,194
19.25833,195
19.26667,196
19.27500,197
19.28333,198
19.29167,200
19.30000,201
19.30833,203
19.31667,204
19.32500,206
19.33333,208
19.34167,210
19.35000,212
19.35833,213
19.36667,215
19.37500,216
19.38333,217
19.39167,217
19.40000,218
19.40833,219
19.41667,220
19.42500,220
19.43333,220
19.44167,220
19.45000,220
19.45833,219
19.46667,218
19.47500,217
19.48333,217
19.49167,215
19.50000,213
19.50833,211
19.51667,209
19.52500,206
19.53333,203
19.54167,200
19.55000,197
19.55833,193
19.56667,190
19.57500,187
19.58333,184
19.59167,180
19.60000,177
19.60833,173
19.61667,169
19.62500,165
19.63333,161
19.64167,158
19.65000,154
19.65833,150
19.66667,146
19.67500,143
19.68333,139
19.69167,136
19.70000,133
19.70833,131
19.71667,128
19.72500,125
19.73333,122
19.74167,119
19.75000,116
19.75833,114
19.76667,111
19.77500,108
19.78333,106
19.79167,104
19.80000,102
19.80833,100
19.81667,99
19.82500,97
19.83333,96
19.84167,94
19.85000,92
19.85833,90
19.86667,89
19.87500,87
19.88333,86
19.89167,85
19.90000,84
19.90833,83
19.91667,82
19.92500,81
19.93333,81
19.94167,80
19.95000,79
19.95833,79
19.96667,78
19.97500,78
19.98333,78
19.99167,78
20.00000,77
20.00833,76
20.01667,76
20.02500,75
20.03333,74
20.04167,74
20.05000,73
20.05833,73
20.06667,73
20.07500,73
20.08333,72
20.09167,72
20.10000,71
20.10833,71
20.11667,71
20.12500,71
20.13333,70
20.14167,70
20.15000,70
20.15833,69
20.16667,69
20.17500,69
20.18333,69
20.19167,69
20.20000,69
20.20833,69
20.21667,69
20.22500,69
20.23333,69
20.24167,68
20.25000,69
20.25833,69
20.26667,69
20.27500,68
20.28333,68
20.29167,68
20.30000,69
20.30833,69
20.31667,69
20.32500,69
20.33333,68
20.34167,68
20.35000,68
20.35833,68
20.36667,68
20.37500,68
20.38333,68
20.39167,67
20.40000,67
20.40833,67
20.41667,67
20.42500,67
20.43333,67
20.44167,67
20.45000,67
20.45833,68
20.46667,67
20.47500,67
20.48333,67
20.49167,67
20.50000,67
20.50833,66
20.51667,66
20.52500,66
20.53333,66
20.54167,65
20.55000,65
20.55833,65
20.56667,65
20.57500,65
20.58333,65
20.59167,65
20.60000,65
20.60833,65
20.61667,65
20.62500,65
20.63333,65
20.64167,65
20.65000,65
20.65833,65
20.66667,65
20.67500,65
20.68333,65
20.69167,66
20.70000,66
20.70833,67
20.71667,67
20.72500,68
20.73333,69
20.74167,70
20.75000,72
20.75833,73
20.76667,75
20.77500,77
20.78333,79
20.79167,81
20.80000,84
20.80833,86
20.81667,90
20.82500,93
20.83333,97
20.84167,101
20.85000,107
20.85833,112
20.86667,118
20.87500,125
20.88333,132
20.89167,139
20.90000,147
20.90833,156
20.91667,165
20.92500,174
20.93333,183
20.94167,193
20.95000,204
20.95833,215
20.96667,226
20.97500,238
20.98333,250
20.99167,262
21.00000,275
21.00833,288
21.01667,300
21.02500,313
21.03333,325
21.04167,338
21.05000,349
21.05833,361
21.06667,372
21.07500,383
21.08333,394
21.09167,403
21.10000,413
21.10833,421
21.11667,429
21.12500,436
21.13333,442
21.14167,447
21.15000,452
21.15833,455
21.16667,458
21.17500,459
21.18333,460
21.19167,460
21.20000,459
21.20833,457
21.21667,454
21.22500,450
21.23333,446
21.24167,440
21.25000,434
21.25833,427
21.26667,420
21.27500,412
21.28333,403
21.29167,394
21.30000,384
21.30833,375
21.31667,365
21.32500,355
21.33333,344
21.34167,333
21.35000,323
21.35833,312
21.36667,302
21.37500,292
21.38333,281
21.39167,271
21.40000,261
21.40833,251
21.41667,242
21.42500,233
21.43333,225
21.44167,216
21.45000,208
21.45833,201
21.46667,194
21.47500,187
21.48333,181
21.49167,175
21.50000,169
21.50833,163
21.51667,158
21.52500,153
21.53333,149
21.54167,145
21.55000,141
21.55833,138
21.56667,135
21.57500,132
21.58333,130
21.59167,128
21.60000,125
21.60833,123
21.61667,121
21.62500,119
21.63333,118
21.64167,116
21.65000,114
21.65833,112
21.66667,111
21.67500,109
21.68333,108
21.69167,107
21.70000,105
21.70833,104
21.71667,103
21.72500,102
21.73333,101
21.74167,99
21.75000,98
21.75833,97
21.76667,96
21.77500,95
21.78333,94
21.79167,93
21.80000,92
21.80833,91
21.81667,90
21.82500,89
21.83333,88
21.84167,87
21.85000,85
21.85833,84
21.86667,83
21.87500,82
21.88333,81
21.89167,80
21.90000,79
21.90833,78
21.91667,78
21.92500,77
21.93333,76
21.94167,75
21.95000,74
21.95833,73
21.96667,71
21.97500,70
21.98333,69
21.99167,68
22.00000,67
22.00833,66
22.01667,66
22.02500,65
22.03333,64
22.04167,63
22.05000,63
22.05833,62
22.06667,61
22.07500,60
22.08333,60
22.09167,59
22.10000,58
22.10833,58
22.11667,58
22.12500,57
22.13333,57
22.14167,56
22.15000,56
22.15833,55
22.16667,55
22.17500,54
22.18333,54
22.19167,53
22.20000,52
22.20833,52
22.21667,53
22.22500,52
22.23333,52
22.24167,52
22.25000,52
22.25833,52
22.26667,51
22.27500,51
22.28333,51
22.29167,50
22.30000,50
22.30833,50
22.31667,49
22.32500,50
22.33333,49
22.34167,49
22.35000,49
22.35833,49
22.36667,49
22.37500,49
22.38333,48
22.39167,48
22.40000,48
22.40833,48
22.41667,47
22.42500,47
22.43333,47
22.44167,47
22.45000,47
22.45833,47
22.46667,46
22.47500,46
22.48333,46
22.49167,46
22.50000,46
22.50833,46
22.51667,46
22.52500,46
22.53333,46
22.54167,46
22.55000,46
22.55833,46
22.56667,46
22.57500,46
22.58333,46
22.59167,46
22.60000,46
22.60833,46
22.61667,47
22.62500,47
22.63333,47
22.64167,47
22.65000,48
22.65833,48
22.66667,48
22.67500,48
22.68333,48
22.69167,49
22.70000,49
22.70833,50
22.71667,51
22.72500,51
22.73333,52
22.74167,53
22.75000,55
22.75833,56
22.76667,58
22.77500,59
22.78333,61
22.79167,63
22.80000,65
22.80833,68
22.81667,71
22.82500,75
22.83333,79
22.84167,84
22.85000,89
22.85833,94
22.86667,100
22.87500,107
22.88333,114
22.89167,123
22.90000,132
22.90833,142
22.91667,153
22.92500,164
22.93333,177
22.94167,190
22.95000,205
22.95833,220
22.96667,236
22.97500,253
22.98333,271
22.99167,290
23.00000,311
23.00833,332
23.01667,354
23.02500,377
23.03333,401
23.04167,426
23.05000,452
23.05833,478
23.06667,505
23.07500,532
23.08333,559
23.09167,587
23.10000,614
23.10833,642
23.11667,670
23.12500,698
23.13333,725
23.14167,752
23.15000,778
23.15833,804
23.16667,828
23.17500,851
23.18333,873
23.19167,894
23.20000,913
23.20833,931
23.21667,947
23.22500,961
23.23333,974
23.24167,985
23.25000,993
23.25833,1000
23.26667,1004
23.27500,1007
23.28333,1008
23.29167,1006
23.30000,1002
23.30833,997
23.31667,989
23.32500,980
23.33333,969
23.34167,955
23.35000,941
23.35833,924
23.36667,906
23.37500,887
23.38333,867
23.39167,845
23.40000,823
23.40833,799
23.41667,776
23.42500,752
23.43333,727
23.44167,701
23.45000,676
23.45833,650
23.46667,625
23.47500,600
23.48333,574
23.49167,549
23.50000,524
23.50833,500
23.51667,476
23.52500,453
23.53333,430
23.54167,408
23.55000,387
23.55833,367
23.56667,347
23.57500,329
23.58333,311
23.59167,293
23.60000,277
23.60833,261
23.61667,246
23.62500,232
23.63333,220
23.64167,207
23.65000,196
23.65833,185
23.66667,175
23.67500,166
23.68333,157
23.69167,148
23.70000,140
23.70833,133
23.71667,126
23.72500,119
23.73333,114
23.74167,108
23.75000,103
23.75833,99
23.76667,95
23.77500,91
23.78333,87
23.79167,84
23.80000,81
23.80833,78
23.81667,76
23.82500,74
23.83333,71
23.84167,70
23.85000,68
23.85833,66
23.86667,64
23.87500,62
23.88333,61
23.89167,61
23.90000,60
23.90833,59
23.91667,58
23.92500,57
23.93333,57
23.94167,56
23.95000,55
23.95833,55
23.96667,54
23.97500,54
23.98333,54
23.99167,53
24.00000,53
24.00833,53
24.01667,52
24.02500,52
24.03333,51
24.04167,51
24.05000,51
24.05833,51
24.06667,51
24.07500,51
24.08333,51
24.09167,50
24.10000,50
24.10833,50
24.11667,49
24.12500,49
24.13333,49
24.14167,49
24.15000,49
24.15833,49
24.16667,49
24.17500,49
24.18333,49
24.19167,49
24.20000,49
24.20833,49
24.21667,48
24.22500,48
24.23333,48
24.24167,48
24.25000,48
24.25833,48
24.26667,48
24.27500,48
24.28333,48
24.29167,48
24.30000,48
24.30833,48
24.31667,48
24.32500,48
24.33333,48
24.34167,47
24.35000,47
24.35833,47
24.36667,47
24.37500,47
24.38333,46
24.39167,46
24.40000,46
24.40833,46
24.41667,46
24.42500,46
24.43333,47
24.44167,47
24.45000,47
24.45833,48
24.46667,48
24.47500,48
24.48333,49
24.49167,49
24.50000,48
24.50833,48
24.51667,48
24.52500,48
24.53333,48
24.54167,48
24.55000,48
24.55833,48
24.56667,49
24.57500,49
24.58333,49
24.59167,50
24.60000,50
24.60833,51
24.61667,51
24.62500,52
24.63333,53
24.64167,54
24.65000,54
24.65833,55
24.66667,57
24.67500,58
24.68333,59
24.69167,61
24.70000,62
24.70833,64
24.71667,66
24.72500,68
24.73333,71
24.74167,75
24.75000,78
24.75833,82
24.76667,87
24.77500,92
24.78333,98
24.79167,104
24.80000,110
24.80833,117
24.81667,124
24.82500,132
24.83333,141
24.84167,150
24.85000,159
24.85833,169
24.86667,180
24.87500,191
24.88333,204
24.89167,217
24.90000,231
24.90833,245
24.91667,260
24.92500,276
24.93333,292
24.94167,309
24.95000,326
24.95833,344
24.96667,362
24.97500,381
24.98333,400
24.99167,420
25.00000,440
25.00833,460
25.01667,480
25.02500,499
25.03333,519
25.04167,538
25.05000,558
25.05833,577
25.06667,595
25.07500,613
25.08333,630
25.09167,647
25.10000,663
25.10833,677
25.11667,691
25.12500,704
25.13333,716
25.14167,726
25.15000,735
25.15833,743
25.16667,750
25.17500,755
25.18333,760
25.19167,763
25.20000,764
25.20833,765
25.21667,764
25.22500,761
25.23333,758
25.24167,753
25.25000,746
25.25833,739
25.26667,730
25.27500,720
25.28333,709
25.29167,697
25.30000,685
25.30833,671
25.31667,657
25.32500,642
25.33333,627
25.34167,611
25.35000,594
25.35833,577
25.36667,560
25.37500,543
25.38333,525
25.39167,507
25.40000,489
25.40833,472
25.41667,454
25.42500,437
25.43333,420
25.44167,403
25.45000,386
25.45833,370
25.46667,354
25.47500,338
25.48333,323
25.49167,308
25.50000,294
25.50833,280
25.51667,266
25.52500,253
25.53333,241
25.54167,229
25.55000,218
25.55833,207
25.56667,197
25.57500,187
25.58333,178
25.59167,169
25.60000,161
25.60833,153
25.61667,146
25.62500,139
25.63333,133
25.64167,127
25.65000,121
25.65833,116
25.66667,111
25.67500,106
25.68333,102
25.69167,98
25.70000,94
25.70833,91
25.71667,87
25.72500,84
25.73333,81
25.74167,79
25.75000,77
25.75833,74
25.76667,72
25.77500,71
25.78333,69
25.79167,67
25.80000,66
25.80833,65
25.81667,64
25.82500,63
25.83333,62
25.84167,61
25.85000,60
25.85833,59
25.86667,58
25.87500,58
25.88333,57
25.89167,57
25.90000,56
25.90833,56
25.91667,55
25.92500,55
25.93333,54
25.94167,54
25.95000,54
25.95833,54
25.96667,53
25.97500,53
25.98333,53
25.99167,52
26.00000,52
26.00833,52
26.01667,51
26.02500,51
26.03333,50
26.04167,50
26.05000,50
26.05833,50
26.06667,50
26.07500,50
26.08333,50
26.09167,51
26.10000,51
26.10833,51
26.11667,51
26.12500,50
26.13333,50
26.14167,50
26.15000,50
26.15833,49
26.16667,49
26.17500,49
26.18333,49
26.19167,49
26.20000,49
26.20833,49
26.21667,49
26.22500,49
26.23333,49
26.24167,49
26.25000,49
26.25833,49
26.26667,49
26.27500,49
26.28333,49
26.29167,50
26.30000,50
26.30833,50
26.31667,50
26.32500,50
26.33333,49
26.34167,49
26.35000,49
26.35833,48
26.36667,49
26.37500,49
26.38333,49
26.39167,49
26.40000,49
26.40833,49
26.41667,49
26.42500,49
26.43333,49
26.44167,49
26.45000,49
26.45833,49
26.46667,49
26.47500,49
26.48333,49
26.49167,49
26.50000,49
26.50833,49
26.51667,49
26.52500,49
26.53333,49
26.54167,49
26.55000,49
26.55833,49
26.56667,49
26.57500,49
26.58333,50
26.59167,50
26.60000,51
26.60833,51
26.61667,51
26.62500,51
26.63333,50
26.64167,50
26.65000,50
26.65833,49
26.66667,49
26.67500,49
26.68333,49
26.69167,49
26.70000,49
26.70833,49
26.71667,49
26.72500,49
26.73333,49
26.74167,49
26.75000,49
26.75833,50
26.76667,50
26.77500,50
26.78333,50
26.79167,50
26.80000,50
26.80833,50
26.81667,50
26.82500,50
26.83333,50
26.84167,50
26.85000,50
26.85833,49
26.86667,49
26.87500,49
26.88333,49
26.89167,49
26.90000,49
26.90833,50
26.91667,50
26.92500,50
26.93333,50
26.94167,50
26.95000,50
26.95833,50
26.96667,49
26.97500,49
26.98333,48
26.99167,48
27.00000,48
27.00833,48
27.01667,48
27.02500,49
27.03333,49
27.04167,49
27.05000,49
27.05833,48
27.06667,47
27.07500,47
27.08333,47
27.09167,47
27.10000,47
27.10833,47
27.11667,47
27.12500,47
27.13333,47
27.14167,47
27.15000,47
27.15833,47
27.16667,47
27.17500,47
27.18333,48
27.19167,48
27.20000,48
27.20833,47
27.21667,47
27.22500,46
27.23333,46
27.24167,45
27.25000,44
27.25833,43
27.26667,43
27.27500,42
27.28333,42
27.29167,41
27.30000,40
27.30833,39
27.31667,38
27.32500,37
27.33333,35
27.34167,34
27.35000,33
27.35833,32
27.36667,30
27.37500,29
27.38333,27
27.39167,26
27.40000,24
27.40833,22
27.41667,20
27.42500,17
27.43333,16
27.44167,14
27.45000,12
27.45833,10
27.46667,7
27.47500,5
27.48333,2
27.49167,-0
27.50000,-3
27.50833,-6
27.51667,-9
27.52500,-12
27.53333,-15
27.54167,-18
27.55000,-21
27.55833,-24
27.56667,-28
27.57500,-31
27.58333,-35
27.59167,-38
27.60000,-41
27.60833,-44
27.61667,-47
27.62500,-51
27.63333,-54
27.64167,-57
27.65000,-59
27.65833,-62
27.66667,-66
27.67500,-68
27.68333,-71
27.69167,-74
27.70000,-76
27.70833,-79
27.71667,-81
27.72500,-84
27.73333,-86
27.74167,-87
27.75000,-89
27.75833,-91
27.76667,-93
27.77500,-95
27.78333,-96
27.79167,-98
27.80000,-99
27.80833,-100
27.81667,-100
27.82500,-101
27.83333,-100
27.84167,-101
27.85000,-101
27.85833,-100
27.86667,-99
27.87500,-99
27.88333,-98
27.89167,-97
27.90000,-95
27.90833,-94
27.91667,-93
27.92500,-91
27.93333,-90
27.94167,-88
27.95000,-86
27.95833,-85
27.96667,-83
27.97500,-80
27.98333,-78
27.99167,-75
28.00000,-73
28.00833,-70
28.01667,-67
28.02500,-65
28.03333,-62
28.04167,-59
28.05000,-56
28.05833,-54
28.06667,-51
28.07500,-49
28.08333,-46
28.09167,-44
28.10000,-41
28.10833,-38
28.11667,-35
28.12500,-32
28.13333,-29
28.14167,-26
28.15000,-23
28.15833,-21
28.16667,-18
28.17500,-15
28.18333,-13
28.19167,-11
28.20000,-8
28.20833,-6
28.21667,-4
28.22500,-1
28.23333,0
28.24167,3
28.25000,5
28.25833,7
28.26667,9
28.27500,10
28.28333,12
28.29167,14
28.30000,15
28.30833,17
28.31667,19
28.32500,20
28.33333,21
28.34167,23
28.35000,24
28.35833,26
28.36667,27
28.37500,28
28.38333,29
28.39167,30
28.40000,31
28.40833,32
28.41667,33
28.42500,34
28.43333,35
28.44167,36
28.45000,36
28.45833,37
28.46667,37
28.47500,38
28.48333,38
28.49167,39
28.50000,39
28.50833,40
28.51667,40
28.52500,40
28.53333,41
28.54167,41
28.55000,42
28.55833,41
28.56667,41
28.57500,41
28.58333,41
28.59167,41
28.60000,41
28.60833,42
28.61667,42
28.62500,42
28.63333,43
28.64167,43
28.65000,43
28.65833,43
28.66667,43
28.67500,43
28.68333,43
28.69167,44
28.70000,43
28.70833,43
28.71667,43
28.72500,43
28.73333,43
28.74167,43
28.75000,43
28.75833,43
28.76667,43
28.77500,43
28.78333,44
28.79167,44
28.80000,44
28.80833,44
28.81667,44
28.82500,44
28.83333,44
28.84167,44
28.85000,44
28.85833,44
28.86667,44
28.87500,44
28.88333,44
28.89167,44
28.90000,44
28.90833,44
28.91667,44
28.92500,44
28.93333,44
28.94167,44
28.95000,43
28.95833,43
28.96667,43
28.97500,43
28.98333,43
28.99167,43
29.00000,44
29.00833,44
29.01667,44
29.02500,44
29.03333,44
29.04167,44
29.05000,44
29.05833,43
29.06667,42
29.07500,42
29.08333,42
29.09167,42
29.10000,41
29.10833,41
29.11667,41
29.12500,40
29.13333,40
29.14167,40
29.15000,39
29.15833,39
29.16667,38
29.17500,38
29.18333,37
29.19167,36
29.20000,36
29.20833,36
29.21667,35
29.22500,35
29.23333,34
29.24167,33
29.25000,32
29.25833,31
29.26667,30
29.27500,30
29.28333,29
29.29167,29
29.30000,28
29.30833,28
29.31667,28
29.32500,27
29.33333,26
29.34167,26
29.35000,25
29.35833,25
29.36667,24
29.37500,24
29.38333,24
29.39167,23
29.40000,22
29.40833,21
29.41667,21
29.42500,20
29.43333,20
29.44167,19
29.45000,19
29.45833,19
29.46667,18
29.47500,18
29.48333,18
29.49167,18
29.50000,18
29.50833,17
29.51667,17
29.52500,16
29.53333,16
29.54167,16
29.55000,16
29.55833,16
29.56667,17
29.57500,17
29.58333,17
29.59167,17
29.60000,16
29.60833,16
29.61667,16
29.62500,16
29.63333,16
29.64167,16
29.65000,17
29.65833,17
29.66667,18
29.67500,18
29.68333,19
29.69167,19
29.70000,20
29.70833,19
29.71667,20
29.72500,20
29.73333,21
29.74167,21
29.75000,21
29.75833,22
29.76667,22
29.77500,23
29.78333,23
29.79167,23
29.80000,24
29.80833,24
29.81667,24
29.82500,24
29.83333,25
29.84167,25
29.85000,25
29.85833,25
29.86667,25
29.87500,25
29.88333,25
29.89167,25
29.90000,26
29.90833,26
29.91667,26
29.92500,26
29.93333,25
29.94167,25
29.95000,24
29.95833,24
29.96667,23
29.97500,22
29.98333,21
29.99167,20
30.00000,20
30.00833,19
30.01667,17
30.02500,16
30.03333,14
30.04167,12
30.05000,10
30.05833,8
30.06667,5
30.07500,3
30.08333,0
30.09167,-2
30.10000,-5
30.10833,-8
30.11667,-12
30.12500,-16
30.13333,-20
30.14167,-25
30.15000,-29
30.15833,-34
30.16667,-39
30.17500,-44
30.18333,-49
30.19167,-55
30.20000,-61
30.20833,-68
30.21667,-75
30.22500,-82
30.23333,-89
30.24167,-97
30.25000,-106
30.25833,-114
30.26667,-123
30.27500,-131
30.28333,-140
30.29167,-150
30.30000,-160
30.30833,-169
30.31667,-179
30.32500,-189
30.33333,-199
30.34167,-210
30.35000,-221
30.35833,-232
30.36667,-244
30.37500,-255
30.38333,-266
30.39167,-278
30.40000,-290
30.40833,-302
30.41667,-313
30.42500,-325
30.43333,-337
30.44167,-348
30.45000,-360
30.45833,-372
30.46667,-383
30.47500,-394
30.48333,-406
30.49167,-417
30.50000,-427
30.50833,-437
30.51667,-446
30.52500,-455
30.53333,-464
30.54167,-473
30.55000,-481
30.55833,-489
30.56667,-496
30.57500,-503
30.58333,-509
30.59167,-514
30.60000,-519
30.60833,-524
30.61667,-528
30.62500,-531
30.63333,-535
30.64167,-537
30.65000,-539
30.65833,-541
30.66667,-541
30.67500,-542
30.68333,-541
30.69167,-539
30.70000,-538
30.70833,-535
30.71667,-532
30.72500,-529
30.73333,-525
30.74167,-520
30.75000,-516
30.75833,-510
30.76667,-505
30.77500,-498
30.78333,-491
30.79167,-484
30.80000,-476
30.80833,-468
30.81667,-459
30.82500,-450
30.83333,-441
30.84167,-432
30.85000,-423
30.85833,-413
30.86667,-403
30.87500,-393
30.88333,-382
30.89167,-372
30.90000,-361
30.90833,-351
30.91667,-340
30.92500,-329
30.93333,-319
30.94167,-308
30.95000,-297
30.95833,-286
30.96667,-276
30.97500,-265
30.98333,-255
30.99167,-245
31.00000,-235
31.00833,-225
31.01667,-215
31.02500,-206
31.03333,-196
31.04167,-187
31.05000,-178
31.05833,-169
31.06667,-160
31.07500,-152
31.08333,-144
31.09167,-136
31.10000,-129
31.10833,-122
31.11667,-114
31.12500,-107
31.13333,-101
31.14167,-94
31.15000,-88
31.15833,-82
31.16667,-77
31.17500,-72
31.18333,-66
31.19167,-61
31.20000,-57
31.20833,-52
31.21667,-47
31.22500,-42
31.23333,-38
31.24167,-34
31.25000,-30
31.25833,-27
31.26667,-24
31.27500,-21
31.28333,-17
31.29167,-15
31.30000,-12
31.30833,-9
31.31667,-7
31.32500,-4
31.33333,-1
31.34167,1
31.35000,3
31.35833,5
31.36667,6
31.37500,8
31.38333,10
31.39167,11
31.40000,13
31.40833,14
31.41667,15
31.42500,17
31.43333,18
31.44167,19
31.45000,20
31.45833,21
31.46667,22
31.47500,23
31.48333,24
31.49167,25
31.50000,25
31.50833,26
31.51667,27
31.52500,28
31.53333,29
31.54167,30
31.55000,31
31.55833,32
31.56667,32
31.57500,33
31.58333,34
31.59167,35
31.60000,36
31.60833,38
31.61667,39
31.62500,40
31.63333,41
31.64167,42
31.65000,44
31.65833,45
31.66667,47
31.67500,48
31.68333,50
31.69167,52
31.70000,53
31.70833,55
31.71667,57
31.72500,59
31.73333,62
31.74167,64
31.75000,67
31.75833,70
31.76667,73
31.77500,76
31.78333,80
31.79167,83
31.80000,87
31.80833,91
31.81667,95
31.82500,99
31.83333,103
31.84167,108
31.85000,113
31.85833,118
31.86667,123
31.87500,129
31.88333,134
31.89167,140
31.90000,146
31.90833,152
31.91667,159
31.92500,166
31.93333,173
31.94167,180
31.95000,187
31.95833,194
31.96667,202
31.97500,209
31.98333,217
31.99167,225
32.00000,233
32.00833,240
32.01667,248
32.02500,256
32.03333,265
32.04167,273
32.05000,281
32.05833,289
32.06667,297
32.07500,305
32.08333,312
32.09167,320
32.10000,327
32.10833,334
32.11667,341
32.12500,348
32.13333,354
32.14167,360
32.15000,366
32.15833,372
32.16667,377
32.17500,383
32.18333,387
32.19167,392
32.20000,396
32.20833,399
32.21667,402
32.22500,405
32.23333,407
32.24167,408
32.25000,410
32.25833,410
32.26667,411
32.27500,411
32.28333,410
32.29167,410
32.30000,409
32.30833,407
32.31667,405
32.32500,403
32.33333,400
32.34167,396
32.35000,393
32.35833,389
32.36667,384
32.37500,379
32.38333,375
32.39167,369
32.40000,364
32.40833,358
32.41667,352
32.42500,346
32.43333,339
32.44167,332
32.45000,325
32.45833,318
32.46667,311
32.47500,303
32.48333,296
32.49167,288
32.50000,281
32.50833,274
32.51667,266
32.52500,259
32.53333,252
32.54167,244
32.55000,237
32.55833,230
32.56667,223
32.57500,216
32.58333,209
32.59167,203
32.60000,195
32.60833,189
32.61667,182
32.62500,175
32.63333,169
32.64167,164
32.65000,158
32.65833,152
32.66667,147
32.67500,142
32.68333,137
32.69167,132
32.70000,127
32.70833,123
32.71667,119
32.72500,114
32.73333,110
32.74167,107
32.75000,103
32.75833,100
32.76667,97
32.77500,94
32.78333,91
32.79167,88
32.80000,86
32.80833,83
32.81667,81
32.82500,78
32.83333,76
32.84167,74
32.85000,72
32.85833,69
32.86667,68
32.87500,66
32.88333,64
32.89167,63
32.90000,62
32.90833,60
32.91667,59
32.92500,58
32.93333,57
32.94167,57
32.95000,56
32.95833,55
32.96667,54
32.97500,53
32.98333,52
32.99167,51
33.00000,51
33.00833,50
33.01667,49
33.02500,48
33.03333,48
33.04167,47
33.05000,47
33.05833,47
33.06667,47
33.07500,47
33.08333,46
33.09167,46
33.10000,46
33.10833,45
33.11667,45
33.12500,44
33.13333,44
33.14167,44
33.15000,44
33.15833,43
33.16667,43
33.17500,42
33.18333,41
33.19167,41
33.20000,41
33.20833,40
33.21667,40
33.22500,40
33.23333,40
33.24167,40
33.25000,40
33.25833,40
33.26667,40
33.27500,39
33.28333,38
33.29167,38
33.30000,37
33.30833,37
33.31667,36
33.32500,36
33.33333,36
33.34167,36
33.35000,35
33.35833,34
33.36667,34
33.37500,33
33.38333,32
33.39167,32
33.40000,31
33.40833,30
33.41667,30
33.42500,30
33.43333,29
33.44167,28
33.45000,28
33.45833,27
33.46667,26
33.47500,25
33.48333,24
33.49167,23
33.50000,23
33.50833,22
33.51667,22
33.52500,22
33.53333,21
33.54167,20
33.55000,20
33.55833,19
33.56667,18
33.57500,17
33.58333,17
33.59167,16
33.60000,15
33.60833,14
33.61667,14
33.62500,13
33.63333,12
33.64167,12
33.65000,12
33.65833,12
33.66667,11
33.67500,11
33.68333,10
33.69167,10
33.70000,10
33.70833,9
33.71667,9
33.72500,9
33.73333,9
33.74167,9
33.75000,9
33.75833,9
33.76667,9
33.77500,9
33.78333,9
33.79167,9
33.80000,9
33.80833,9
33.81667,8
33.82500,9
33.83333,9
33.84167,9
33.85000,10
33.85833,10
33.86667,10
33.87500,10
33.88333,11
33.89167,11
33.90000,12
33.90833,12
33.91667,12
33.92500,13
33.93333,13
33.94167,14
33.95000,15
33.95833,15
33.96667,16
33.97500,17
33.98333,17
33.99167,17
34.00000,17
34.00833,18
34.01667,19
34.02500,20
34.03333,21
34.04167,21
34.05000,22
34.05833,23
34.06667,23
34.07500,24
34.08333,24
34.09167,25
34.10000,25
34.10833,26
34.11667,26
34.12500,27
34.13333,28
34.14167,28
34.15000,29
34.15833,29
34.16667,30
34.17500,30
34.18333,31
34.19167,31
34.20000,32
34.20833,32
34.21667,33
34.22500,33
34.23333,34
34.24167,34
34.25000,35
34.25833,35
34.26667,36
34.27500,36
34.28333,36
34.29167,36
34.30000,36
34.30833,36
34.31667,36
34.32500,36
34.33333,36
34.34167,37
34.35000,37
34.35833,38
34.36667,38
34.37500,38
34.38333,39
34.39167,39
34.40000,39
34.40833,39
34.41667,39
34.42500,39
34.43333,39
34.44167,39
34.45000,39
34.45833,39
34.46667,40
34.47500,40
34.48333,40
34.49167,40
34.50000,39
34.50833,39
34.51667,39
34.52500,39
34.53333,39
34.54167,40
34.55000,40
34.55833,40
34.56667,40
34.57500,39
34.58333,39
34.59167,40
34.60000,40
34.60833,40
34.61667,40
34.62500,40
34.63333,40
34.64167,40
34.65000,40
34.65833,40
34.66667,40
34.67500,40
34.68333,40
34.69167,40
34.70000,40
34.70833,40
34.71667,40
34.72500,40
34.73333,40
34.74167,40
34.75000,40
34.75833,40
34.76667,41
34.77500,41
34.78333,41
34.79167,41
34.80000,40
34.80833,40
34.81667,40
34.82500,39
34.83333,39
34.84167,39
34.85000,39
34.85833,39
34.86667,39
34.87500,39
34.88333,39
34.89167,39
34.90000,39
34.90833,39
34.91667,39
34.92500,39
34.93333,39
34.94167,39
34.95000,39
34.95833,38
34.96667,38
34.97500,38
34.98333,38
34.99167,39
35.00000,39
35.00833,39
35.01667,39
35.02500,39
35.03333,39
35.04167,39
35.05000,39
35.05833,39
35.06667,39
35.07500,39
35.08333,39
35.09167,39
35.10000,39
35.10833,39
35.11667,39
35.12500,39
35.13333,40
35.14167,40
35.15000,40
35.15833,40
35.16667,40
35.17500,40
35.18333,40
35.19167,40
35.20000,39
35.20833,39
35.21667,39
35.22500,39
35.23333,39
35.24167,39
35.25000,39
35.25833,39
35.26667,39
35.27500,39
35.28333,40
35.29167,40
35.30000,40
35.30833,40
35.31667,40
35.32500,40
35.33333,40
35.34167,40
35.35000,39
35.35833,39
35.36667,39
35.37500,40
35.38333,40
35.39167,40
35.40000,39
35.40833,39
35.41667,39
35.42500,39
35.43333,39
35.44167,39
35.45000,39
35.45833,39
35.46667,39
35.47500,39
35.48333,39
35.49167,39
35.50000,39
35.50833,39
35.51667,39
35.52500,39
35.53333,38
35.54167,38
35.55000,38
35.55833,38
35.56667,39
35.57500,39
35.58333,39
35.59167,39
35.60000,39
35.60833,39
35.61667,39
35.62500,39
35.63333,40
35.64167,40
35.65000,40
35.65833,40
35.66667,39
35.67500,39
35.68333,39
35.69167,39
35.70000,39
35.70833,39
35.71667,39
35.72500,39
35.73333,39
35.74167,39
35.75000,39
35.75833,39
35.76667,39
35.77500,39
35.78333,39
35.79167,38
35.80000,39
35.80833,39
35.81667,39
35.82500,39
35.83333,38
35.84167,38
35.85000,39
35.85833,39
35.86667,39
35.87500,39
35.88333,39
35.89167,39
35.90000,39
35.90833,39
35.91667,38
35.92500,38
35.93333,38
35.94167,38
35.95000,38
35.95833,38
35.96667,38
35.97500,38
35.98333,38
35.99167,38
36.00000,38
36.00833,38
36.01667,39
36.02500,39
36.03333,39
36.04167,39
36.05000,39
36.05833,39
36.06667,39
36.07500,39
36.08333,39
36.09167,39
36.10000,39
36.10833,39
36.11667,39
36.12500,39
36.13333,38
36.14167,39
36.15000,39
36.15833,39
36.16667,39
36.17500,39
36.18333,39
36.19167,39
36.20000,39
36.20833,39
36.21667,39
36.22500,39
36.23333,40
36.24167,40
36.25000,40
36.25833,40
36.26667,40
36.27500,40
36.28333,40
36.29167,39
36.30000,39
36.30833,39
36.31667,39
36.32500,39
36.33333,40
36.34167,40
36.35000,40
36.35833,40
36.36667,40
36.37500,40
36.38333,40
36.39167,40
36.40000,40
36.40833,40
36.41667,41
36.42500,41
36.43333,41
36.44167,41
36.45000,41
36.45833,41
36.46667,41
36.47500,41
36.48333,41
36.49167,42
36.50000,42
36.50833,42
36.51667,42
36.52500,42
36.53333,42
36.54167,42
36.55000,42
36.55833,42
36.56667,42
36.57500,43
36.58333,43
36.59167,43
36.60000,43
36.60833,43
36.61667,44
36.62500,43
36.63333,44
36.64167,44
36.65000,44
36.65833,43
36.66667,43
36.67500,43
36.68333,43
36.69167,43
36.70000,43
36.70833,44
36.71667,44
36.72500,44
36.73333,44
36.74167,45
36.75000,45
36.75833,45
36.76667,45
36.77500,45
36.78333,45
36.79167,45
36.80000,46
36.80833,46
36.81667,46
36.82500,46
36.83333,46
36.84167,46
36.85000,46
36.85833,46
36.86667,46
36.87500,47
36.88333,47
36.89167,47
36.90000,47
36.90833,47
36.91667,47
36.92500,48
36.93333,48
36.94167,48
36.95000,48
36.95833,48
36.96667,48
36.97500,48
36.98333,49
36.99167,49
37.00000,50
37.00833,50
37.01667,49
37.02500,49
37.03333,49
37.04167,49
37.05000,50
37.05833,50
37.06667,50
37.07500,50
37.08333,50
37.09167,50
37.10000,50
37.10833,50
37.11667,51
37.12500,51
37.13333,51
37.14167,51
37.15000,51
37.15833,52
37.16667,52
37.17500,53
37.18333,53
37.19167,54
37.20000,54
37.20833,54
37.21667,54
37.22500,54
37.23333,54
37.24167,54
37.25000,54
37.25833,54
37.26667,54
37.27500,55
37.28333,55
37.29167,55
37.30000,55
37.30833,55
37.31667,55
37.32500,55
37.33333,55
37.34167,55
37.35000,56
37.35833,56
37.36667,57
37.37500,57
37.38333,57
37.39167,57
37.40000,58
37.40833,58
37.41667,58
37.42500,58
37.43333,58
37.44167,58
37.45000,59
37.45833,59
37.46667,59
37.47500,59
37.48333,59
37.49167,59
37.50000,59
37.50833,59
37.51667,59
37.52500,60
37.53333,60
37.54167,60
37.55000,61
37.55833,61
37.56667,62
37.57500,62
37.58333,62
37.59167,62
37.60000,62
37.60833,62
37.61667,62
37.62500,62
37.63333,62
37.64167,63
37.65000,63
37.65833,62
37.66667,62
37.67500,62
37.68333,62
37.69167,62
37.70000,62
37.70833,63
37.71667,63
37.72500,63
37.73333,63
37.74167,63
37.75000,63
37.75833,63
37.76667,63
37.77500,63
37.78333,63
37.79167,63
37.80000,63
37.80833,63
37.81667,63
37.82500,64
37.83333,64
37.84167,64
37.85000,64
37.85833,64
37.86667,64
37.87500,65
37.88333,65
37.89167,65
37.90000,66
37.90833,66
37.91667,65
37.92500,65
37.93333,65
37.94167,65
37.95000,64
37.95833,64
37.96667,63
37.97500,63
37.98333,63
37.99167,63
38.00000,63
38.00833,64
38.01667,64
38.02500,64
38.03333,64
38.04167,64
38.05000,64
38.05833,64
38.06667,64
38.07500,63
38.08333,63
38.09167,63
38.10000,63
38.10833,63
38.11667,63
38.12500,63
38.13333,63
38.14167,63
38.15000,63
38.15833,63
38.16667,62
38.17500,62
38.18333,62
38.19167,61
38.20000,61
38.20833,61
38.21667,61
38.22500,61
38.23333,61
38.24167,61
38.25000,61
38.25833,60
38.26667,60
38.27500,60
38.28333,61
38.29167,61
38.30000,60
38.30833,60
38.31667,60
38.32500,59
38.33333,59
38.34167,59
38.35000,59
38.35833,59
38.36667,58
38.37500,58
38.38333,58
38.39167,57
38.40000,57
38.40833,57
38.41667,57
38.42500,56
38.43333,56
38.44167,56
38.45000,56
38.45833,56
38.46667,55
38.47500,55
38.48333,55
38.49167,55
38.50000,55
38.50833,55
38.51667,55
38.52500,54
38.53333,54
38.54167,54
38.55000,54
38.55833,54
38.56667,54
38.57500,53
38.58333,53
38.59167,53
38.60000,52
38.60833,52
38.61667,52
38.62500,52
38.63333,52
38.64167,51
38.65000,51
38.65833,50
38.66667,50
38.67500,50
38.68333,49
38.69167,49
38.70000,49
38.70833,49
38.71667,48
38.72500,48
38.73333,48
38.74167,48
38.75000,47
38.75833,47
38.76667,47
38.77500,47
38.78333,47
38.79167,47
38.80000,46
38.80833,46
38.81667,46
38.82500,46
38.83333,46
38.84167,45
38.85000,45
38.85833,45
38.86667,44
38.87500,44
38.88333,44
38.89167,44
38.90000,44
38.90833,43
38.91667,43
38.92500,43
38.93333,43
38.94167,43
38.95000,43
38.95833,43
38.96667,42
38.97500,42
38.98333,42
38.99167,42
39.00000,41
39.00833,41
39.01667,41
39.02500,41
39.03333,41
39.04167,41
39.05000,41
39.05833,40
39.06667,40
39.07500,40
39.08333,40
39.09167,40
39.10000,40
39.10833,39
39.11667,39
39.12500,39
39.13333,39
39.14167,39
39.15000,38
39.15833,38
39.16667,38
39.17500,38
39.18333,38
39.19167,38
39.20000,37
39.20833,37
39.21667,37
39.22500,37
39.23333,36
39.24167,36
39.25000,36
39.25833,36
39.26667,35
39.27500,35
39.28333,35
39.29167,35
39.30000,35
39.30833,35
39.31667,34
39.32500,34
39.33333,34
39.34167,34
39.35000,34
39.35833,34
39.36667,34
39.37500,34
39.38333,34
39.39167,34
39.40000,34
39.40833,34
39.41667,34
39.42500,33
39.43333,34
39.44167,33
39.45000,33
39.45833,33
39.46667,33
39.47500,33
39.48333,33
39.49167,33
39.50000,32
39.50833,32
39.51667,32
39.52500,32
39.53333,32
39.54167,32
39.55000,32
39.55833,32
39.56667,32
39.57500,32
39.58333,32
39.59167,32
39.60000,32
39.60833,32
39.61667,31
39.62500,31
39.63333,32
39.64167,32
39.65000,32
39.65833,32
39.66667,32
39.67500,32
39.68333,32
39.69167,32
39.70000,32
39.70833,32
39.71667,32
39.72500,31
39.73333,31
39.74167,31
39.75000,31
39.75833,31
39.76667,31
39.77500,31
39.78333,31
39.79167,31
39.80000,31
39.80833,31
39.81667,30
39.82500,30
39.83333,30
39.84167,30
39.85000,29
39.85833,29
39.86667,29
39.87500,30
39.88333,30
39.89167,30
39.90000,30
39.90833,30
39.91667,30
39.92500,30
39.93333,30
39.94167,29
39.95000,29
39.95833,29
39.96667,29
39.97500,29
39.98333,29
39.99167,30
40.00000,30

