[Header]
Application Name,LabSolutions
Version,5.97 SP1
Data File Name,C:\Users\cremerlab\Desktop\Richa\May_12th_2022_yield_expt\May 12th_5122022_001_005.lcd
Output Date,5/12/2022
Output Time,7:35:22 PM

[File Information]
Type,Data File
Generated,5/12/2022 6:55:02 PM
Generated by,System Administrator
Modified,5/12/2022 7:35:22 PM
Modified by,System Administrator

[Sample Information]
Operator Name,System Administrator
Acquired,5/12/2022 6:55:22 PM
Sample Type,0:Unknown
Level,0
Sample Name,220512_BF_1
Sample ID,001
ISTD Amount1,1
ISTD Amount2,1
ISTD Amount3,1
ISTD Amount4,1
ISTD Amount5,1
ISTD Amount6,1
ISTD Amount7,1
ISTD Amount8,1
ISTD Amount9,1
ISTD Amount10,1
ISTD Amount11,1
ISTD Amount12,1
ISTD Amount13,1
ISTD Amount14,1
ISTD Amount15,1
ISTD Amount16,1
ISTD Amount17,1
ISTD Amount18,1
ISTD Amount19,1
ISTD Amount20,1
ISTD Amount21,1
ISTD Amount22,1
ISTD Amount23,1
ISTD Amount24,1
ISTD Amount25,1
ISTD Amount26,1
ISTD Amount27,1
ISTD Amount28,1
ISTD Amount29,1
ISTD Amount30,1
ISTD Amount31,1
ISTD Amount32,1
Sample Amount,1
Dilution Factor,1
Vial#,4
Injection Volume,20

[Original Files]
Data File,C:\Users\cremerlab\Desktop\Richa\May_12th_2022_yield_expt\May 12th_5122022_001_005.lcd
Method File,C:\Users\cremerlab\Desktop\Richa\acetate_excretion.lcm
Batch File,C:\Users\cremerlab\Desktop\Richa\May_12th_2022_yield_expt\May 12th.lcb
Report Format File,c:\LabSolutions\System\DEFAULT.lsr

[File Description]


[Configuration]
Instrument Name,HPLC-PC-Instrument1
Instrument #,1
Line #,1
# of Detectors,2
Detector ID,Detector A,Detector B
Detector Name,Detector A,Detector B
# of Channels,1,1

[Peak Table(Detector A)]
# of Peaks,0

[Peak Table(Detector B)]
# of Peaks,6
Peak#,R.Time,I.Time,F.Time,Area,Height,A/H,Conc.,Mark,ID#,Name,k',Plate #,Plate Ht.,Tailing,Resolution,Sep.Factor,Area Ratio,Height Ratio,Conc. %,Norm Conc.
1,11.078,10.650,12.425,2176674,131092,16.604,0.000,   ,,,0.000,10195,14.713,0.899,0.000,0.000,0,0,0.000,0.000
2,14.487,12.725,15.375,3785694,78749,48.073,0.000,   ,,,0.308,2659,56.415,0.000,4.363,0.000,0,0,0.000,0.000
3,15.863,15.375,20.308,2009009,72767,27.609,0.000, V ,,,0.432,10182,14.733,0.000,1.571,1.404,0,0,0.000,0.000
4,23.281,22.992,23.733,1263,57,22.075,0.000,   ,,,1.102,23164,6.476,1.211,11.957,2.550,0,0,0.000,0.000
5,25.192,24.833,25.758,2388,91,26.371,0.000,   ,,,1.274,19866,7.551,1.211,2.881,1.157,0,0,0.000,0.000
6,32.265,30.692,33.083,55290,757,73.018,0.000,   ,,,1.913,8706,17.230,0.743,6.742,1.501,0,0,0.000,0.000

[LC Chromatogram(Detector B-Ch1)]
Interval(msec),500
# of Points,4801
Start Time(min),0.000
End Time(min),40.000
Intensity Units,mV
Intensity Multiplier,0.001
R.Time (min),Intensity
0.00000,-4
0.00833,-4
0.01667,0
0.02500,0
0.03333,1
0.04167,1
0.05000,1
0.05833,1
0.06667,0
0.07500,1
0.08333,1
0.09167,1
0.10000,1
0.10833,1
0.11667,0
0.12500,0
0.13333,0
0.14167,-0
0.15000,-1
0.15833,-1
0.16667,-1
0.17500,-2
0.18333,-2
0.19167,-1
0.20000,-1
0.20833,-1
0.21667,-1
0.22500,-1
0.23333,-2
0.24167,-2
0.25000,-2
0.25833,-2
0.26667,-2
0.27500,-2
0.28333,-2
0.29167,-2
0.30000,-2
0.30833,-2
0.31667,-2
0.32500,-2
0.33333,-2
0.34167,-2
0.35000,-2
0.35833,-2
0.36667,-3
0.37500,-3
0.38333,-3
0.39167,-3
0.40000,-3
0.40833,-3
0.41667,-3
0.42500,-3
0.43333,-3
0.44167,-3
0.45000,-3
0.45833,-2
0.46667,-2
0.47500,-2
0.48333,-2
0.49167,-2
0.50000,-2
0.50833,-2
0.51667,-2
0.52500,-2
0.53333,-2
0.54167,-2
0.55000,-2
0.55833,-3
0.56667,-3
0.57500,-3
0.58333,-2
0.59167,-2
0.60000,-2
0.60833,-2
0.61667,-2
0.62500,-2
0.63333,-2
0.64167,-2
0.65000,-2
0.65833,-2
0.66667,-3
0.67500,-3
0.68333,-3
0.69167,-4
0.70000,-4
0.70833,-4
0.71667,-4
0.72500,-4
0.73333,-4
0.74167,-4
0.75000,-5
0.75833,-5
0.76667,-5
0.77500,-4
0.78333,-4
0.79167,-4
0.80000,-3
0.80833,-3
0.81667,-3
0.82500,-3
0.83333,-3
0.84167,-3
0.85000,-3
0.85833,-2
0.86667,-2
0.87500,-2
0.88333,-2
0.89167,-2
0.90000,-2
0.90833,-2
0.91667,-2
0.92500,-3
0.93333,-3
0.94167,-3
0.95000,-4
0.95833,-4
0.96667,-4
0.97500,-3
0.98333,-3
0.99167,-3
1.00000,-3
1.00833,-3
1.01667,-3
1.02500,-3
1.03333,-3
1.04167,-3
1.05000,-3
1.05833,-4
1.06667,-4
1.07500,-3
1.08333,-3
1.09167,-3
1.10000,-2
1.10833,-2
1.11667,-2
1.12500,-2
1.13333,-3
1.14167,-3
1.15000,-3
1.15833,-3
1.16667,-2
1.17500,-2
1.18333,-2
1.19167,-2
1.20000,-2
1.20833,-2
1.21667,-2
1.22500,-3
1.23333,-3
1.24167,-2
1.25000,-2
1.25833,-2
1.26667,-2
1.27500,-3
1.28333,-3
1.29167,-3
1.30000,-3
1.30833,-3
1.31667,-2
1.32500,-2
1.33333,-3
1.34167,-3
1.35000,-3
1.35833,-3
1.36667,-3
1.37500,-3
1.38333,-3
1.39167,-3
1.40000,-3
1.40833,-3
1.41667,-3
1.42500,-2
1.43333,-2
1.44167,-2
1.45000,-2
1.45833,-2
1.46667,-2
1.47500,-1
1.48333,-1
1.49167,-1
1.50000,-1
1.50833,-2
1.51667,-2
1.52500,-2
1.53333,-2
1.54167,-2
1.55000,-2
1.55833,-2
1.56667,-2
1.57500,-2
1.58333,-2
1.59167,-2
1.60000,-2
1.60833,-2
1.61667,-2
1.62500,-2
1.63333,-2
1.64167,-2
1.65000,-2
1.65833,-2
1.66667,-2
1.67500,-2
1.68333,-2
1.69167,-1
1.70000,-1
1.70833,-1
1.71667,-2
1.72500,-1
1.73333,-1
1.74167,-1
1.75000,-1
1.75833,-1
1.76667,-1
1.77500,-1
1.78333,-1
1.79167,-1
1.80000,-1
1.80833,-1
1.81667,-1
1.82500,-1
1.83333,-1
1.84167,-1
1.85000,-1
1.85833,-1
1.86667,-1
1.87500,-1
1.88333,-1
1.89167,-1
1.90000,-1
1.90833,-2
1.91667,-2
1.92500,-2
1.93333,-1
1.94167,-1
1.95000,-1
1.95833,-1
1.96667,-1
1.97500,-1
1.98333,-1
1.99167,-1
2.00000,-1
2.00833,-1
2.01667,-1
2.02500,-1
2.03333,-1
2.04167,-1
2.05000,-1
2.05833,-1
2.06667,-1
2.07500,-1
2.08333,-1
2.09167,-1
2.10000,-1
2.10833,-1
2.11667,-1
2.12500,-1
2.13333,-1
2.14167,-1
2.15000,-1
2.15833,-1
2.16667,-1
2.17500,-0
2.18333,-0
2.19167,-0
2.20000,-1
2.20833,-1
2.21667,-1
2.22500,-1
2.23333,-1
2.24167,-1
2.25000,-0
2.25833,-0
2.26667,-0
2.27500,-0
2.28333,-0
2.29167,0
2.30000,0
2.30833,0
2.31667,0
2.32500,1
2.33333,0
2.34167,0
2.35000,0
2.35833,0
2.36667,0
2.37500,0
2.38333,0
2.39167,0
2.40000,0
2.40833,0
2.41667,0
2.42500,0
2.43333,0
2.44167,-0
2.45000,-0
2.45833,-1
2.46667,-1
2.47500,-1
2.48333,-1
2.49167,-1
2.50000,-1
2.50833,-0
2.51667,-0
2.52500,0
2.53333,0
2.54167,0
2.55000,0
2.55833,0
2.56667,-0
2.57500,-1
2.58333,-1
2.59167,-1
2.60000,-0
2.60833,-0
2.61667,0
2.62500,0
2.63333,-0
2.64167,-0
2.65000,0
2.65833,0
2.66667,0
2.67500,0
2.68333,0
2.69167,0
2.70000,0
2.70833,0
2.71667,0
2.72500,0
2.73333,0
2.74167,0
2.75000,0
2.75833,0
2.76667,1
2.77500,1
2.78333,1
2.79167,1
2.80000,1
2.80833,1
2.81667,1
2.82500,0
2.83333,0
2.84167,0
2.85000,0
2.85833,1
2.86667,1
2.87500,1
2.88333,1
2.89167,1
2.90000,1
2.90833,1
2.91667,0
2.92500,0
2.93333,0
2.94167,0
2.95000,0
2.95833,0
2.96667,0
2.97500,0
2.98333,0
2.99167,0
3.00000,0
3.00833,0
3.01667,1
3.02500,1
3.03333,1
3.04167,1
3.05000,1
3.05833,1
3.06667,1
3.07500,1
3.08333,1
3.09167,1
3.10000,1
3.10833,1
3.11667,1
3.12500,1
3.13333,1
3.14167,1
3.15000,1
3.15833,1
3.16667,1
3.17500,1
3.18333,1
3.19167,1
3.20000,1
3.20833,1
3.21667,1
3.22500,1
3.23333,1
3.24167,1
3.25000,2
3.25833,2
3.26667,1
3.27500,1
3.28333,1
3.29167,1
3.30000,1
3.30833,1
3.31667,1
3.32500,1
3.33333,2
3.34167,2
3.35000,2
3.35833,1
3.36667,1
3.37500,2
3.38333,2
3.39167,2
3.40000,2
3.40833,2
3.41667,3
3.42500,3
3.43333,3
3.44167,3
3.45000,3
3.45833,3
3.46667,3
3.47500,3
3.48333,3
3.49167,3
3.50000,2
3.50833,2
3.51667,2
3.52500,3
3.53333,3
3.54167,3
3.55000,3
3.55833,3
3.56667,3
3.57500,3
3.58333,3
3.59167,3
3.60000,3
3.60833,2
3.61667,3
3.62500,3
3.63333,3
3.64167,4
3.65000,4
3.65833,4
3.66667,4
3.67500,4
3.68333,4
3.69167,4
3.70000,3
3.70833,3
3.71667,3
3.72500,4
3.73333,4
3.74167,3
3.75000,3
3.75833,3
3.76667,3
3.77500,3
3.78333,3
3.79167,4
3.80000,4
3.80833,4
3.81667,4
3.82500,5
3.83333,5
3.84167,5
3.85000,5
3.85833,5
3.86667,4
3.87500,4
3.88333,4
3.89167,3
3.90000,3
3.90833,3
3.91667,3
3.92500,3
3.93333,4
3.94167,4
3.95000,4
3.95833,3
3.96667,3
3.97500,3
3.98333,4
3.99167,3
4.00000,3
4.00833,3
4.01667,3
4.02500,4
4.03333,4
4.04167,4
4.05000,4
4.05833,4
4.06667,4
4.07500,4
4.08333,4
4.09167,4
4.10000,3
4.10833,3
4.11667,3
4.12500,3
4.13333,3
4.14167,3
4.15000,3
4.15833,3
4.16667,3
4.17500,3
4.18333,3
4.19167,3
4.20000,2
4.20833,2
4.21667,3
4.22500,3
4.23333,3
4.24167,3
4.25000,3
4.25833,3
4.26667,2
4.27500,2
4.28333,2
4.29167,2
4.30000,2
4.30833,2
4.31667,3
4.32500,3
4.33333,3
4.34167,3
4.35000,2
4.35833,2
4.36667,2
4.37500,2
4.38333,2
4.39167,2
4.40000,2
4.40833,2
4.41667,2
4.42500,2
4.43333,2
4.44167,2
4.45000,2
4.45833,2
4.46667,2
4.47500,2
4.48333,2
4.49167,2
4.50000,2
4.50833,2
4.51667,2
4.52500,2
4.53333,2
4.54167,2
4.55000,2
4.55833,2
4.56667,2
4.57500,1
4.58333,1
4.59167,1
4.60000,1
4.60833,1
4.61667,1
4.62500,1
4.63333,2
4.64167,2
4.65000,2
4.65833,2
4.66667,2
4.67500,2
4.68333,2
4.69167,3
4.70000,3
4.70833,3
4.71667,2
4.72500,2
4.73333,2
4.74167,2
4.75000,3
4.75833,3
4.76667,3
4.77500,3
4.78333,3
4.79167,3
4.80000,2
4.80833,2
4.81667,2
4.82500,2
4.83333,2
4.84167,2
4.85000,2
4.85833,3
4.86667,3
4.87500,3
4.88333,3
4.89167,3
4.90000,3
4.90833,3
4.91667,3
4.92500,2
4.93333,2
4.94167,2
4.95000,2
4.95833,2
4.96667,2
4.97500,2
4.98333,2
4.99167,2
5.00000,2
5.00833,2
5.01667,2
5.02500,2
5.03333,1
5.04167,1
5.05000,1
5.05833,1
5.06667,1
5.07500,1
5.08333,2
5.09167,2
5.10000,2
5.10833,2
5.11667,2
5.12500,2
5.13333,2
5.14167,2
5.15000,2
5.15833,2
5.16667,2
5.17500,2
5.18333,2
5.19167,2
5.20000,2
5.20833,2
5.21667,2
5.22500,3
5.23333,2
5.24167,2
5.25000,3
5.25833,3
5.26667,3
5.27500,2
5.28333,2
5.29167,2
5.30000,2
5.30833,3
5.31667,3
5.32500,3
5.33333,3
5.34167,3
5.35000,3
5.35833,3
5.36667,3
5.37500,3
5.38333,3
5.39167,3
5.40000,3
5.40833,3
5.41667,3
5.42500,3
5.43333,3
5.44167,3
5.45000,3
5.45833,3
5.46667,3
5.47500,3
5.48333,3
5.49167,3
5.50000,3
5.50833,3
5.51667,3
5.52500,3
5.53333,3
5.54167,3
5.55000,3
5.55833,3
5.56667,3
5.57500,3
5.58333,3
5.59167,3
5.60000,3
5.60833,2
5.61667,2
5.62500,2
5.63333,2
5.64167,2
5.65000,2
5.65833,2
5.66667,3
5.67500,3
5.68333,2
5.69167,2
5.70000,2
5.70833,2
5.71667,2
5.72500,2
5.73333,2
5.74167,2
5.75000,2
5.75833,2
5.76667,2
5.77500,3
5.78333,3
5.79167,3
5.80000,3
5.80833,3
5.81667,3
5.82500,3
5.83333,3
5.84167,3
5.85000,2
5.85833,2
5.86667,2
5.87500,2
5.88333,2
5.89167,3
5.90000,3
5.90833,2
5.91667,2
5.92500,3
5.93333,3
5.94167,3
5.95000,3
5.95833,3
5.96667,2
5.97500,2
5.98333,3
5.99167,3
6.00000,3
6.00833,3
6.01667,3
6.02500,3
6.03333,3
6.04167,3
6.05000,3
6.05833,2
6.06667,2
6.07500,2
6.08333,2
6.09167,2
6.10000,2
6.10833,2
6.11667,2
6.12500,2
6.13333,2
6.14167,2
6.15000,3
6.15833,2
6.16667,2
6.17500,3
6.18333,2
6.19167,2
6.20000,3
6.20833,3
6.21667,3
6.22500,3
6.23333,3
6.24167,3
6.25000,3
6.25833,2
6.26667,2
6.27500,2
6.28333,1
6.29167,1
6.30000,2
6.30833,2
6.31667,2
6.32500,3
6.33333,3
6.34167,3
6.35000,3
6.35833,3
6.36667,3
6.37500,3
6.38333,3
6.39167,2
6.40000,2
6.40833,2
6.41667,2
6.42500,2
6.43333,2
6.44167,2
6.45000,2
6.45833,2
6.46667,2
6.47500,2
6.48333,2
6.49167,2
6.50000,3
6.50833,3
6.51667,3
6.52500,3
6.53333,3
6.54167,3
6.55000,3
6.55833,3
6.56667,3
6.57500,3
6.58333,2
6.59167,2
6.60000,2
6.60833,2
6.61667,1
6.62500,1
6.63333,1
6.64167,1
6.65000,1
6.65833,1
6.66667,1
6.67500,1
6.68333,1
6.69167,1
6.70000,1
6.70833,1
6.71667,1
6.72500,2
6.73333,2
6.74167,3
6.75000,3
6.75833,3
6.76667,3
6.77500,3
6.78333,3
6.79167,3
6.80000,2
6.80833,2
6.81667,2
6.82500,2
6.83333,2
6.84167,2
6.85000,2
6.85833,2
6.86667,2
6.87500,2
6.88333,3
6.89167,3
6.90000,3
6.90833,3
6.91667,2
6.92500,2
6.93333,2
6.94167,2
6.95000,2
6.95833,2
6.96667,3
6.97500,3
6.98333,3
6.99167,4
7.00000,4
7.00833,4
7.01667,4
7.02500,4
7.03333,4
7.04167,3
7.05000,3
7.05833,3
7.06667,3
7.07500,3
7.08333,3
7.09167,3
7.10000,4
7.10833,4
7.11667,3
7.12500,3
7.13333,3
7.14167,2
7.15000,2
7.15833,2
7.16667,2
7.17500,2
7.18333,2
7.19167,2
7.20000,2
7.20833,3
7.21667,3
7.22500,3
7.23333,3
7.24167,2
7.25000,2
7.25833,2
7.26667,2
7.27500,3
7.28333,3
7.29167,3
7.30000,3
7.30833,3
7.31667,3
7.32500,3
7.33333,3
7.34167,3
7.35000,2
7.35833,2
7.36667,2
7.37500,2
7.38333,2
7.39167,2
7.40000,2
7.40833,2
7.41667,2
7.42500,2
7.43333,2
7.44167,2
7.45000,2
7.45833,2
7.46667,2
7.47500,2
7.48333,2
7.49167,3
7.50000,3
7.50833,3
7.51667,3
7.52500,3
7.53333,3
7.54167,3
7.55000,3
7.55833,3
7.56667,3
7.57500,2
7.58333,2
7.59167,2
7.60000,2
7.60833,2
7.61667,2
7.62500,2
7.63333,2
7.64167,3
7.65000,3
7.65833,3
7.66667,3
7.67500,3
7.68333,3
7.69167,3
7.70000,3
7.70833,3
7.71667,3
7.72500,3
7.73333,3
7.74167,3
7.75000,3
7.75833,3
7.76667,3
7.77500,3
7.78333,3
7.79167,3
7.80000,3
7.80833,3
7.81667,2
7.82500,2
7.83333,3
7.84167,3
7.85000,2
7.85833,2
7.86667,2
7.87500,3
7.88333,3
7.89167,3
7.90000,3
7.90833,4
7.91667,3
7.92500,3
7.93333,2
7.94167,2
7.95000,2
7.95833,2
7.96667,2
7.97500,2
7.98333,2
7.99167,2
8.00000,2
8.00833,2
8.01667,2
8.02500,2
8.03333,2
8.04167,2
8.05000,2
8.05833,2
8.06667,2
8.07500,1
8.08333,1
8.09167,1
8.10000,1
8.10833,1
8.11667,1
8.12500,2
8.13333,2
8.14167,2
8.15000,3
8.15833,3
8.16667,3
8.17500,3
8.18333,3
8.19167,3
8.20000,3
8.20833,3
8.21667,3
8.22500,3
8.23333,2
8.24167,2
8.25000,2
8.25833,2
8.26667,3
8.27500,2
8.28333,2
8.29167,2
8.30000,2
8.30833,2
8.31667,2
8.32500,1
8.33333,1
8.34167,1
8.35000,1
8.35833,1
8.36667,1
8.37500,1
8.38333,1
8.39167,2
8.40000,2
8.40833,2
8.41667,1
8.42500,1
8.43333,1
8.44167,1
8.45000,1
8.45833,1
8.46667,2
8.47500,2
8.48333,2
8.49167,2
8.50000,2
8.50833,2
8.51667,2
8.52500,2
8.53333,2
8.54167,2
8.55000,2
8.55833,2
8.56667,2
8.57500,2
8.58333,3
8.59167,3
8.60000,3
8.60833,3
8.61667,3
8.62500,2
8.63333,2
8.64167,1
8.65000,1
8.65833,1
8.66667,2
8.67500,2
8.68333,2
8.69167,2
8.70000,2
8.70833,2
8.71667,1
8.72500,1
8.73333,1
8.74167,1
8.75000,2
8.75833,2
8.76667,2
8.77500,2
8.78333,2
8.79167,2
8.80000,2
8.80833,2
8.81667,2
8.82500,1
8.83333,1
8.84167,1
8.85000,2
8.85833,2
8.86667,2
8.87500,2
8.88333,2
8.89167,2
8.90000,1
8.90833,1
8.91667,1
8.92500,1
8.93333,1
8.94167,1
8.95000,1
8.95833,1
8.96667,1
8.97500,1
8.98333,1
8.99167,1
9.00000,1
9.00833,1
9.01667,1
9.02500,1
9.03333,1
9.04167,1
9.05000,2
9.05833,2
9.06667,2
9.07500,2
9.08333,2
9.09167,2
9.10000,2
9.10833,2
9.11667,2
9.12500,2
9.13333,2
9.14167,2
9.15000,2
9.15833,2
9.16667,2
9.17500,2
9.18333,2
9.19167,2
9.20000,2
9.20833,2
9.21667,1
9.22500,1
9.23333,1
9.24167,2
9.25000,2
9.25833,2
9.26667,2
9.27500,2
9.28333,2
9.29167,2
9.30000,2
9.30833,1
9.31667,1
9.32500,1
9.33333,1
9.34167,1
9.35000,1
9.35833,1
9.36667,1
9.37500,1
9.38333,1
9.39167,2
9.40000,2
9.40833,1
9.41667,2
9.42500,1
9.43333,1
9.44167,1
9.45000,1
9.45833,1
9.46667,1
9.47500,1
9.48333,1
9.49167,1
9.50000,1
9.50833,1
9.51667,1
9.52500,1
9.53333,1
9.54167,1
9.55000,1
9.55833,1
9.56667,1
9.57500,1
9.58333,1
9.59167,1
9.60000,1
9.60833,1
9.61667,1
9.62500,1
9.63333,1
9.64167,1
9.65000,1
9.65833,1
9.66667,1
9.67500,1
9.68333,1
9.69167,1
9.70000,1
9.70833,1
9.71667,1
9.72500,1
9.73333,1
9.74167,1
9.75000,1
9.75833,1
9.76667,1
9.77500,1
9.78333,1
9.79167,1
9.80000,1
9.80833,1
9.81667,1
9.82500,1
9.83333,1
9.84167,1
9.85000,1
9.85833,1
9.86667,1
9.87500,0
9.88333,0
9.89167,0
9.90000,0
9.90833,1
9.91667,1
9.92500,1
9.93333,0
9.94167,0
9.95000,0
9.95833,1
9.96667,1
9.97500,1
9.98333,1
9.99167,1
10.00000,2
10.00833,2
10.01667,2
10.02500,1
10.03333,1
10.04167,1
10.05000,0
10.05833,0
10.06667,0
10.07500,0
10.08333,0
10.09167,1
10.10000,1
10.10833,1
10.11667,1
10.12500,1
10.13333,1
10.14167,1
10.15000,0
10.15833,0
10.16667,0
10.17500,0
10.18333,0
10.19167,0
10.20000,0
10.20833,0
10.21667,0
10.22500,0
10.23333,1
10.24167,1
10.25000,1
10.25833,1
10.26667,1
10.27500,2
10.28333,2
10.29167,2
10.30000,1
10.30833,1
10.31667,2
10.32500,2
10.33333,2
10.34167,2
10.35000,2
10.35833,2
10.36667,2
10.37500,3
10.38333,3
10.39167,3
10.40000,4
10.40833,4
10.41667,4
10.42500,4
10.43333,4
10.44167,3
10.45000,2
10.45833,-0
10.46667,-3
10.47500,-7
10.48333,-13
10.49167,-21
10.50000,-32
10.50833,-47
10.51667,-66
10.52500,-92
10.53333,-123
10.54167,-162
10.55000,-210
10.55833,-266
10.56667,-331
10.57500,-405
10.58333,-486
10.59167,-574
10.60000,-665
10.60833,-756
10.61667,-843
10.62500,-920
10.63333,-982
10.64167,-1020
10.65000,-1028
10.65833,-996
10.66667,-917
10.67500,-781
10.68333,-579
10.69167,-302
10.70000,59
10.70833,512
10.71667,1066
10.72500,1728
10.73333,2507
10.74167,3407
10.75000,4434
10.75833,5594
10.76667,6892
10.77500,8329
10.78333,9910
10.79167,11636
10.80000,13510
10.80833,15532
10.81667,17703
10.82500,20024
10.83333,22495
10.84167,25115
10.85000,27884
10.85833,30801
10.86667,33864
10.87500,37072
10.88333,40423
10.89167,43915
10.90000,47546
10.90833,51314
10.91667,55216
10.92500,59247
10.93333,63404
10.94167,67682
10.95000,72075
10.95833,76574
10.96667,81170
10.97500,85848
10.98333,90589
10.99167,95367
11.00000,100146
11.00833,104880
11.01667,109507
11.02500,113948
11.03333,118106
11.04167,121866
11.05000,125102
11.05833,127678
11.06667,129458
11.07500,130320
11.08333,130165
11.09167,128928
11.10000,126585
11.10833,123159
11.11667,118718
11.12500,113374
11.13333,107272
11.14167,100580
11.15000,93478
11.15833,86146
11.16667,78756
11.17500,71459
11.18333,64387
11.19167,57642
11.20000,51303
11.20833,45423
11.21667,40032
11.22500,35140
11.23333,30741
11.24167,26819
11.25000,23348
11.25833,20295
11.26667,17625
11.27500,15301
11.28333,13286
11.29167,11546
11.30000,10047
11.30833,8760
11.31667,7654
11.32500,6707
11.33333,5896
11.34167,5202
11.35000,4606
11.35833,4096
11.36667,3657
11.37500,3280
11.38333,2954
11.39167,2672
11.40000,2427
11.40833,2213
11.41667,2027
11.42500,1863
11.43333,1718
11.44167,1591
11.45000,1478
11.45833,1376
11.46667,1285
11.47500,1203
11.48333,1129
11.49167,1062
11.50000,1000
11.50833,944
11.51667,892
11.52500,844
11.53333,800
11.54167,760
11.55000,721
11.55833,686
11.56667,652
11.57500,621
11.58333,592
11.59167,564
11.60000,538
11.60833,513
11.61667,490
11.62500,468
11.63333,447
11.64167,427
11.65000,409
11.65833,391
11.66667,374
11.67500,358
11.68333,342
11.69167,328
11.70000,314
11.70833,301
11.71667,288
11.72500,276
11.73333,265
11.74167,254
11.75000,244
11.75833,234
11.76667,224
11.77500,215
11.78333,206
11.79167,198
11.80000,191
11.80833,184
11.81667,177
11.82500,170
11.83333,164
11.84167,158
11.85000,152
11.85833,146
11.86667,141
11.87500,136
11.88333,131
11.89167,127
11.90000,122
11.90833,118
11.91667,114
11.92500,111
11.93333,108
11.94167,104
11.95000,101
11.95833,98
11.96667,96
11.97500,94
11.98333,92
11.99167,90
12.00000,88
12.00833,86
12.01667,84
12.02500,83
12.03333,81
12.04167,79
12.05000,78
12.05833,76
12.06667,74
12.07500,73
12.08333,72
12.09167,70
12.10000,69
12.10833,67
12.11667,66
12.12500,64
12.13333,63
12.14167,62
12.15000,61
12.15833,59
12.16667,58
12.17500,57
12.18333,56
12.19167,55
12.20000,53
12.20833,52
12.21667,51
12.22500,51
12.23333,50
12.24167,49
12.25000,48
12.25833,48
12.26667,46
12.27500,45
12.28333,45
12.29167,44
12.30000,43
12.30833,42
12.31667,41
12.32500,40
12.33333,39
12.34167,39
12.35000,38
12.35833,38
12.36667,37
12.37500,36
12.38333,36
12.39167,35
12.40000,34
12.40833,34
12.41667,33
12.42500,33
12.43333,33
12.44167,33
12.45000,33
12.45833,32
12.46667,31
12.47500,30
12.48333,30
12.49167,29
12.50000,29
12.50833,29
12.51667,29
12.52500,29
12.53333,29
12.54167,28
12.55000,28
12.55833,28
12.56667,27
12.57500,27
12.58333,27
12.59167,27
12.60000,27
12.60833,27
12.61667,26
12.62500,26
12.63333,26
12.64167,26
12.65000,26
12.65833,26
12.66667,25
12.67500,26
12.68333,26
12.69167,26
12.70000,26
12.70833,27
12.71667,27
12.72500,28
12.73333,28
12.74167,29
12.75000,30
12.75833,32
12.76667,34
12.77500,36
12.78333,39
12.79167,42
12.80000,46
12.80833,51
12.81667,58
12.82500,65
12.83333,75
12.84167,86
12.85000,100
12.85833,116
12.86667,135
12.87500,157
12.88333,183
12.89167,213
12.90000,247
12.90833,285
12.91667,329
12.92500,378
12.93333,432
12.94167,493
12.95000,559
12.95833,632
12.96667,712
12.97500,798
12.98333,891
12.99167,990
13.00000,1096
13.00833,1209
13.01667,1330
13.02500,1456
13.03333,1590
13.04167,1730
13.05000,1877
13.05833,2030
13.06667,2190
13.07500,2356
13.08333,2527
13.09167,2704
13.10000,2887
13.10833,3076
13.11667,3270
13.12500,3468
13.13333,3672
13.14167,3881
13.15000,4094
13.15833,4312
13.16667,4534
13.17500,4759
13.18333,4989
13.19167,5223
13.20000,5461
13.20833,5702
13.21667,5947
13.22500,6195
13.23333,6446
13.24167,6701
13.25000,6959
13.25833,7220
13.26667,7484
13.27500,7751
13.28333,8021
13.29167,8294
13.30000,8570
13.30833,8849
13.31667,9131
13.32500,9415
13.33333,9702
13.34167,9991
13.35000,10283
13.35833,10578
13.36667,10875
13.37500,11175
13.38333,11478
13.39167,11783
13.40000,12090
13.40833,12400
13.41667,12711
13.42500,13026
13.43333,13342
13.44167,13661
13.45000,13983
13.45833,14307
13.46667,14634
13.47500,14963
13.48333,15295
13.49167,15628
13.50000,15965
13.50833,16304
13.51667,16645
13.52500,16989
13.53333,17336
13.54167,17685
13.55000,18037
13.55833,18391
13.56667,18747
13.57500,19106
13.58333,19468
13.59167,19832
13.60000,20200
13.60833,20570
13.61667,20943
13.62500,21319
13.63333,21698
13.64167,22079
13.65000,22464
13.65833,22851
13.66667,23240
13.67500,23633
13.68333,24029
13.69167,24428
13.70000,24830
13.70833,25235
13.71667,25644
13.72500,26055
13.73333,26470
13.74167,26888
13.75000,27309
13.75833,27732
13.76667,28160
13.77500,28590
13.78333,29024
13.79167,29461
13.80000,29900
13.80833,30344
13.81667,30791
13.82500,31241
13.83333,31695
13.84167,32152
13.85000,32613
13.85833,33077
13.86667,33545
13.87500,34017
13.88333,34492
13.89167,34971
13.90000,35454
13.90833,35940
13.91667,36430
13.92500,36924
13.93333,37422
13.94167,37924
13.95000,38429
13.95833,38939
13.96667,39453
13.97500,39971
13.98333,40493
13.99167,41019
14.00000,41549
14.00833,42083
14.01667,42621
14.02500,43164
14.03333,43711
14.04167,44263
14.05000,44819
14.05833,45380
14.06667,45945
14.07500,46515
14.08333,47089
14.09167,47668
14.10000,48252
14.10833,48840
14.11667,49433
14.12500,50031
14.13333,50634
14.14167,51242
14.15000,51855
14.15833,52473
14.16667,53097
14.17500,53725
14.18333,54359
14.19167,54998
14.20000,55643
14.20833,56293
14.21667,56948
14.22500,57609
14.23333,58276
14.24167,58948
14.25000,59626
14.25833,60310
14.26667,61000
14.27500,61696
14.28333,62398
14.29167,63106
14.30000,63820
14.30833,64539
14.31667,65266
14.32500,65998
14.33333,66738
14.34167,67483
14.35000,68236
14.35833,68995
14.36667,69760
14.37500,70531
14.38333,71307
14.39167,72088
14.40000,72870
14.40833,73650
14.41667,74423
14.42500,75182
14.43333,75916
14.44167,76612
14.45000,77252
14.45833,77816
14.46667,78278
14.47500,78611
14.48333,78784
14.49167,78767
14.50000,78528
14.50833,78039
14.51667,77274
14.52500,76216
14.53333,74851
14.54167,73177
14.55000,71200
14.55833,68935
14.56667,66405
14.57500,63641
14.58333,60684
14.59167,57576
14.60000,54363
14.60833,51091
14.61667,47808
14.62500,44557
14.63333,41376
14.64167,38301
14.65000,35360
14.65833,32575
14.66667,29962
14.67500,27533
14.68333,25291
14.69167,23238
14.70000,21369
14.70833,19679
14.71667,18158
14.72500,16797
14.73333,15582
14.74167,14503
14.75000,13546
14.75833,12699
14.76667,11952
14.77500,11293
14.78333,10712
14.79167,10199
14.80000,9747
14.80833,9347
14.81667,8993
14.82500,8679
14.83333,8399
14.84167,8150
14.85000,7928
14.85833,7727
14.86667,7546
14.87500,7382
14.88333,7233
14.89167,7097
14.90000,6972
14.90833,6856
14.91667,6749
14.92500,6649
14.93333,6555
14.94167,6467
14.95000,6384
14.95833,6305
14.96667,6231
14.97500,6159
14.98333,6091
14.99167,6025
15.00000,5962
15.00833,5901
15.01667,5842
15.02500,5785
15.03333,5730
15.04167,5676
15.05000,5624
15.05833,5573
15.06667,5523
15.07500,5475
15.08333,5427
15.09167,5381
15.10000,5335
15.10833,5291
15.11667,5248
15.12500,5205
15.13333,5164
15.14167,5124
15.15000,5084
15.15833,5045
15.16667,5007
15.17500,4970
15.18333,4934
15.19167,4899
15.20000,4864
15.20833,4831
15.21667,4798
15.22500,4767
15.23333,4737
15.24167,4708
15.25000,4680
15.25833,4652
15.26667,4626
15.27500,4601
15.28333,4576
15.29167,4553
15.30000,4531
15.30833,4510
15.31667,4491
15.32500,4473
15.33333,4456
15.34167,4441
15.35000,4429
15.35833,4420
15.36667,4413
15.37500,4410
15.38333,4411
15.39167,4418
15.40000,4431
15.40833,4452
15.41667,4482
15.42500,4524
15.43333,4579
15.44167,4650
15.45000,4740
15.45833,4852
15.46667,4990
15.47500,5156
15.48333,5357
15.49167,5596
15.50000,5880
15.50833,6213
15.51667,6602
15.52500,7053
15.53333,7572
15.54167,8166
15.55000,8842
15.55833,9607
15.56667,10465
15.57500,11425
15.58333,12491
15.59167,13668
15.60000,14961
15.60833,16371
15.61667,17902
15.62500,19553
15.63333,21325
15.64167,23214
15.65000,25217
15.65833,27327
15.66667,29538
15.67500,31840
15.68333,34221
15.69167,36669
15.70000,39168
15.70833,41703
15.71667,44257
15.72500,46811
15.73333,49345
15.74167,51841
15.75000,54279
15.75833,56637
15.76667,58897
15.77500,61039
15.78333,63045
15.79167,64899
15.80000,66585
15.80833,68090
15.81667,69401
15.82500,70509
15.83333,71406
15.84167,72086
15.85000,72547
15.85833,72787
15.86667,72808
15.87500,72612
15.88333,72205
15.89167,71594
15.90000,70788
15.90833,69797
15.91667,68633
15.92500,67308
15.93333,65837
15.94167,64233
15.95000,62511
15.95833,60686
15.96667,58774
15.97500,56789
15.98333,54746
15.99167,52660
16.00000,50544
16.00833,48411
16.01667,46274
16.02500,44145
16.03333,42034
16.04167,39951
16.05000,37905
16.05833,35903
16.06667,33954
16.07500,32061
16.08333,30231
16.09167,28468
16.10000,26774
16.10833,25152
16.11667,23604
16.12500,22130
16.13333,20731
16.14167,19408
16.15000,18158
16.15833,16982
16.16667,15876
16.17500,14840
16.18333,13871
16.19167,12967
16.20000,12124
16.20833,11341
16.21667,10614
16.22500,9940
16.23333,9317
16.24167,8741
16.25000,8210
16.25833,7721
16.26667,7271
16.27500,6857
16.28333,6477
16.29167,6128
16.30000,5808
16.30833,5515
16.31667,5246
16.32500,5001
16.33333,4776
16.34167,4570
16.35000,4382
16.35833,4209
16.36667,4051
16.37500,3907
16.38333,3775
16.39167,3653
16.40000,3542
16.40833,3439
16.41667,3345
16.42500,3258
16.43333,3178
16.44167,3104
16.45000,3036
16.45833,2973
16.46667,2914
16.47500,2860
16.48333,2809
16.49167,2762
16.50000,2718
16.50833,2677
16.51667,2638
16.52500,2602
16.53333,2568
16.54167,2536
16.55000,2505
16.55833,2477
16.56667,2449
16.57500,2424
16.58333,2400
16.59167,2377
16.60000,2355
16.60833,2333
16.61667,2313
16.62500,2294
16.63333,2275
16.64167,2257
16.65000,2240
16.65833,2223
16.66667,2207
16.67500,2191
16.68333,2177
16.69167,2163
16.70000,2149
16.70833,2135
16.71667,2122
16.72500,2110
16.73333,2097
16.74167,2086
16.75000,2074
16.75833,2063
16.76667,2052
16.77500,2041
16.78333,2030
16.79167,2020
16.80000,2011
16.80833,2001
16.81667,1992
16.82500,1982
16.83333,1973
16.84167,1964
16.85000,1956
16.85833,1948
16.86667,1940
16.87500,1932
16.88333,1925
16.89167,1917
16.90000,1909
16.90833,1902
16.91667,1895
16.92500,1888
16.93333,1881
16.94167,1875
16.95000,1868
16.95833,1862
16.96667,1856
16.97500,1849
16.98333,1843
16.99167,1837
17.00000,1831
17.00833,1825
17.01667,1820
17.02500,1814
17.03333,1809
17.04167,1803
17.05000,1798
17.05833,1793
17.06667,1788
17.07500,1782
17.08333,1777
17.09167,1772
17.10000,1767
17.10833,1762
17.11667,1756
17.12500,1751
17.13333,1745
17.14167,1740
17.15000,1734
17.15833,1729
17.16667,1723
17.17500,1718
17.18333,1712
17.19167,1706
17.20000,1701
17.20833,1695
17.21667,1688
17.22500,1681
17.23333,1675
17.24167,1668
17.25000,1661
17.25833,1654
17.26667,1648
17.27500,1641
17.28333,1635
17.29167,1628
17.30000,1622
17.30833,1615
17.31667,1608
17.32500,1601
17.33333,1594
17.34167,1587
17.35000,1580
17.35833,1573
17.36667,1566
17.37500,1559
17.38333,1553
17.39167,1546
17.40000,1539
17.40833,1532
17.41667,1525
17.42500,1518
17.43333,1511
17.44167,1504
17.45000,1498
17.45833,1491
17.46667,1485
17.47500,1478
17.48333,1472
17.49167,1467
17.50000,1461
17.50833,1455
17.51667,1448
17.52500,1442
17.53333,1436
17.54167,1429
17.55000,1423
17.55833,1417
17.56667,1411
17.57500,1405
17.58333,1399
17.59167,1393
17.60000,1387
17.60833,1382
17.61667,1376
17.62500,1370
17.63333,1365
17.64167,1360
17.65000,1354
17.65833,1349
17.66667,1344
17.67500,1338
17.68333,1333
17.69167,1328
17.70000,1323
17.70833,1317
17.71667,1312
17.72500,1306
17.73333,1301
17.74167,1296
17.75000,1291
17.75833,1286
17.76667,1281
17.77500,1276
17.78333,1271
17.79167,1266
17.80000,1261
17.80833,1256
17.81667,1251
17.82500,1246
17.83333,1241
17.84167,1236
17.85000,1231
17.85833,1226
17.86667,1221
17.87500,1216
17.88333,1211
17.89167,1206
17.90000,1201
17.90833,1197
17.91667,1192
17.92500,1187
17.93333,1182
17.94167,1177
17.95000,1173
17.95833,1168
17.96667,1163
17.97500,1158
17.98333,1154
17.99167,1149
18.00000,1145
18.00833,1140
18.01667,1135
18.02500,1131
18.03333,1127
18.04167,1122
18.05000,1117
18.05833,1112
18.06667,1107
18.07500,1102
18.08333,1098
18.09167,1093
18.10000,1088
18.10833,1083
18.11667,1078
18.12500,1074
18.13333,1069
18.14167,1064
18.15000,1059
18.15833,1054
18.16667,1049
18.17500,1045
18.18333,1040
18.19167,1036
18.20000,1032
18.20833,1027
18.21667,1022
18.22500,1017
18.23333,1013
18.24167,1008
18.25000,1004
18.25833,999
18.26667,994
18.27500,990
18.28333,985
18.29167,980
18.30000,975
18.30833,970
18.31667,965
18.32500,960
18.33333,955
18.34167,951
18.35000,946
18.35833,941
18.36667,936
18.37500,931
18.38333,926
18.39167,921
18.40000,916
18.40833,911
18.41667,906
18.42500,901
18.43333,895
18.44167,890
18.45000,885
18.45833,880
18.46667,875
18.47500,870
18.48333,865
18.49167,859
18.50000,854
18.50833,849
18.51667,843
18.52500,838
18.53333,832
18.54167,827
18.55000,821
18.55833,816
18.56667,810
18.57500,805
18.58333,799
18.59167,794
18.60000,788
18.60833,783
18.61667,777
18.62500,771
18.63333,765
18.64167,760
18.65000,754
18.65833,748
18.66667,743
18.67500,737
18.68333,732
18.69167,726
18.70000,721
18.70833,715
18.71667,709
18.72500,703
18.73333,697
18.74167,691
18.75000,686
18.75833,680
18.76667,673
18.77500,667
18.78333,661
18.79167,655
18.80000,649
18.80833,643
18.81667,637
18.82500,631
18.83333,625
18.84167,619
18.85000,613
18.85833,607
18.86667,601
18.87500,595
18.88333,589
18.89167,583
18.90000,576
18.90833,570
18.91667,564
18.92500,558
18.93333,552
18.94167,546
18.95000,540
18.95833,534
18.96667,528
18.97500,522
18.98333,516
18.99167,510
19.00000,504
19.00833,498
19.01667,492
19.02500,486
19.03333,480
19.04167,474
19.05000,468
19.05833,462
19.06667,456
19.07500,451
19.08333,445
19.09167,439
19.10000,434
19.10833,428
19.11667,423
19.12500,417
19.13333,412
19.14167,406
19.15000,401
19.15833,395
19.16667,390
19.17500,385
19.18333,380
19.19167,375
19.20000,370
19.20833,366
19.21667,361
19.22500,357
19.23333,353
19.24167,348
19.25000,344
19.25833,340
19.26667,336
19.27500,332
19.28333,328
19.29167,323
19.30000,320
19.30833,316
19.31667,312
19.32500,308
19.33333,305
19.34167,301
19.35000,298
19.35833,294
19.36667,291
19.37500,287
19.38333,284
19.39167,280
19.40000,276
19.40833,273
19.41667,269
19.42500,266
19.43333,263
19.44167,259
19.45000,256
19.45833,253
19.46667,249
19.47500,246
19.48333,242
19.49167,238
19.50000,234
19.50833,231
19.51667,227
19.52500,223
19.53333,220
19.54167,216
19.55000,212
19.55833,208
19.56667,205
19.57500,202
19.58333,198
19.59167,195
19.60000,191
19.60833,187
19.61667,183
19.62500,180
19.63333,176
19.64167,173
19.65000,169
19.65833,166
19.66667,163
19.67500,160
19.68333,157
19.69167,154
19.70000,152
19.70833,149
19.71667,146
19.72500,143
19.73333,140
19.74167,138
19.75000,135
19.75833,133
19.76667,130
19.77500,128
19.78333,125
19.79167,123
19.80000,121
19.80833,119
19.81667,117
19.82500,115
19.83333,113
19.84167,111
19.85000,109
19.85833,107
19.86667,105
19.87500,104
19.88333,102
19.89167,101
19.90000,99
19.90833,98
19.91667,96
19.92500,95
19.93333,94
19.94167,93
19.95000,92
19.95833,90
19.96667,89
19.97500,88
19.98333,87
19.99167,86
20.00000,85
20.00833,84
20.01667,83
20.02500,82
20.03333,81
20.04167,81
20.05000,80
20.05833,79
20.06667,78
20.07500,77
20.08333,76
20.09167,75
20.10000,74
20.10833,73
20.11667,72
20.12500,71
20.13333,71
20.14167,70
20.15000,70
20.15833,69
20.16667,69
20.17500,68
20.18333,68
20.19167,67
20.20000,67
20.20833,66
20.21667,66
20.22500,65
20.23333,64
20.24167,64
20.25000,63
20.25833,62
20.26667,61
20.27500,61
20.28333,60
20.29167,60
20.30000,60
20.30833,59
20.31667,59
20.32500,59
20.33333,58
20.34167,58
20.35000,58
20.35833,57
20.36667,57
20.37500,57
20.38333,56
20.39167,56
20.40000,55
20.40833,55
20.41667,55
20.42500,54
20.43333,54
20.44167,54
20.45000,54
20.45833,53
20.46667,53
20.47500,52
20.48333,52
20.49167,52
20.50000,52
20.50833,52
20.51667,52
20.52500,52
20.53333,51
20.54167,51
20.55000,51
20.55833,50
20.56667,50
20.57500,50
20.58333,49
20.59167,49
20.60000,48
20.60833,48
20.61667,48
20.62500,48
20.63333,48
20.64167,47
20.65000,47
20.65833,47
20.66667,46
20.67500,46
20.68333,46
20.69167,46
20.70000,46
20.70833,46
20.71667,46
20.72500,46
20.73333,46
20.74167,46
20.75000,46
20.75833,46
20.76667,45
20.77500,45
20.78333,45
20.79167,45
20.80000,45
20.80833,45
20.81667,45
20.82500,45
20.83333,45
20.84167,45
20.85000,45
20.85833,46
20.86667,46
20.87500,47
20.88333,47
20.89167,48
20.90000,48
20.90833,48
20.91667,49
20.92500,49
20.93333,50
20.94167,51
20.95000,52
20.95833,53
20.96667,54
20.97500,55
20.98333,56
20.99167,56
21.00000,57
21.00833,58
21.01667,58
21.02500,59
21.03333,60
21.04167,61
21.05000,62
21.05833,63
21.06667,64
21.07500,65
21.08333,66
21.09167,67
21.10000,68
21.10833,68
21.11667,69
21.12500,69
21.13333,69
21.14167,69
21.15000,69
21.15833,70
21.16667,69
21.17500,69
21.18333,69
21.19167,69
21.20000,69
21.20833,69
21.21667,69
21.22500,69
21.23333,69
21.24167,69
21.25000,69
21.25833,68
21.26667,68
21.27500,67
21.28333,66
21.29167,66
21.30000,65
21.30833,65
21.31667,64
21.32500,63
21.33333,63
21.34167,63
21.35000,63
21.35833,63
21.36667,63
21.37500,63
21.38333,64
21.39167,64
21.40000,64
21.40833,65
21.41667,65
21.42500,66
21.43333,67
21.44167,68
21.45000,69
21.45833,70
21.46667,71
21.47500,73
21.48333,75
21.49167,76
21.50000,78
21.50833,80
21.51667,81
21.52500,83
21.53333,85
21.54167,87
21.55000,89
21.55833,91
21.56667,93
21.57500,95
21.58333,97
21.59167,99
21.60000,100
21.60833,101
21.61667,102
21.62500,103
21.63333,104
21.64167,105
21.65000,106
21.65833,106
21.66667,107
21.67500,107
21.68333,107
21.69167,107
21.70000,107
21.70833,106
21.71667,106
21.72500,105
21.73333,104
21.74167,103
21.75000,102
21.75833,100
21.76667,99
21.77500,97
21.78333,96
21.79167,94
21.80000,92
21.80833,90
21.81667,88
21.82500,86
21.83333,83
21.84167,81
21.85000,79
21.85833,77
21.86667,75
21.87500,73
21.88333,71
21.89167,69
21.90000,67
21.90833,64
21.91667,62
21.92500,60
21.93333,58
21.94167,56
21.95000,54
21.95833,53
21.96667,51
21.97500,50
21.98333,48
21.99167,47
22.00000,45
22.00833,43
22.01667,42
22.02500,40
22.03333,39
22.04167,38
22.05000,36
22.05833,35
22.06667,34
22.07500,34
22.08333,33
22.09167,32
22.10000,32
22.10833,31
22.11667,31
22.12500,30
22.13333,30
22.14167,29
22.15000,29
22.15833,29
22.16667,28
22.17500,28
22.18333,28
22.19167,27
22.20000,26
22.20833,26
22.21667,26
22.22500,25
22.23333,25
22.24167,25
22.25000,25
22.25833,25
22.26667,25
22.27500,25
22.28333,24
22.29167,24
22.30000,24
22.30833,23
22.31667,23
22.32500,23
22.33333,23
22.34167,23
22.35000,23
22.35833,22
22.36667,22
22.37500,22
22.38333,22
22.39167,22
22.40000,22
22.40833,22
22.41667,21
22.42500,21
22.43333,21
22.44167,21
22.45000,21
22.45833,21
22.46667,21
22.47500,21
22.48333,21
22.49167,21
22.50000,21
22.50833,20
22.51667,20
22.52500,20
22.53333,20
22.54167,20
22.55000,20
22.55833,20
22.56667,20
22.57500,20
22.58333,20
22.59167,20
22.60000,20
22.60833,20
22.61667,20
22.62500,19
22.63333,19
22.64167,19
22.65000,19
22.65833,19
22.66667,19
22.67500,19
22.68333,18
22.69167,19
22.70000,19
22.70833,18
22.71667,18
22.72500,19
22.73333,19
22.74167,19
22.75000,19
22.75833,19
22.76667,19
22.77500,19
22.78333,19
22.79167,20
22.80000,20
22.80833,19
22.81667,19
22.82500,20
22.83333,20
22.84167,20
22.85000,21
22.85833,21
22.86667,21
22.87500,22
22.88333,22
22.89167,23
22.90000,23
22.90833,24
22.91667,24
22.92500,25
22.93333,26
22.94167,27
22.95000,28
22.95833,29
22.96667,30
22.97500,31
22.98333,32
22.99167,34
23.00000,35
23.00833,37
23.01667,38
23.02500,40
23.03333,41
23.04167,43
23.05000,45
23.05833,47
23.06667,49
23.07500,51
23.08333,53
23.09167,55
23.10000,57
23.10833,58
23.11667,60
23.12500,63
23.13333,65
23.14167,67
23.15000,69
23.15833,70
23.16667,72
23.17500,74
23.18333,75
23.19167,77
23.20000,78
23.20833,79
23.21667,80
23.22500,81
23.23333,82
23.24167,83
23.25000,84
23.25833,84
23.26667,85
23.27500,85
23.28333,85
23.29167,85
23.30000,84
23.30833,84
23.31667,83
23.32500,81
23.33333,80
23.34167,79
23.35000,78
23.35833,77
23.36667,76
23.37500,74
23.38333,73
23.39167,71
23.40000,69
23.40833,67
23.41667,65
23.42500,63
23.43333,62
23.44167,60
23.45000,58
23.45833,57
23.46667,56
23.47500,54
23.48333,52
23.49167,50
23.50000,49
23.50833,46
23.51667,45
23.52500,43
23.53333,42
23.54167,40
23.55000,38
23.55833,36
23.56667,35
23.57500,33
23.58333,32
23.59167,31
23.60000,30
23.60833,29
23.61667,28
23.62500,27
23.63333,26
23.64167,25
23.65000,24
23.65833,24
23.66667,23
23.67500,22
23.68333,22
23.69167,21
23.70000,20
23.70833,20
23.71667,19
23.72500,19
23.73333,19
23.74167,18
23.75000,18
23.75833,17
23.76667,16
23.77500,16
23.78333,15
23.79167,15
23.80000,15
23.80833,15
23.81667,15
23.82500,14
23.83333,14
23.84167,14
23.85000,14
23.85833,14
23.86667,14
23.87500,14
23.88333,14
23.89167,14
23.90000,14
23.90833,14
23.91667,14
23.92500,13
23.93333,13
23.94167,13
23.95000,12
23.95833,12
23.96667,12
23.97500,13
23.98333,13
23.99167,13
24.00000,13
24.00833,13
24.01667,13
24.02500,13
24.03333,13
24.04167,13
24.05000,13
24.05833,12
24.06667,13
24.07500,13
24.08333,13
24.09167,13
24.10000,14
24.10833,14
24.11667,13
24.12500,13
24.13333,13
24.14167,13
24.15000,13
24.15833,13
24.16667,13
24.17500,13
24.18333,12
24.19167,12
24.20000,12
24.20833,12
24.21667,12
24.22500,12
24.23333,12
24.24167,12
24.25000,12
24.25833,12
24.26667,12
24.27500,12
24.28333,12
24.29167,12
24.30000,12
24.30833,12
24.31667,12
24.32500,11
24.33333,11
24.34167,11
24.35000,11
24.35833,12
24.36667,12
24.37500,12
24.38333,12
24.39167,12
24.40000,12
24.40833,12
24.41667,12
24.42500,11
24.43333,11
24.44167,11
24.45000,11
24.45833,11
24.46667,11
24.47500,11
24.48333,11
24.49167,11
24.50000,11
24.50833,11
24.51667,11
24.52500,11
24.53333,11
24.54167,11
24.55000,11
24.55833,11
24.56667,11
24.57500,11
24.58333,11
24.59167,11
24.60000,11
24.60833,11
24.61667,11
24.62500,10
24.63333,11
24.64167,11
24.65000,12
24.65833,12
24.66667,12
24.67500,12
24.68333,12
24.69167,12
24.70000,12
24.70833,13
24.71667,13
24.72500,14
24.73333,14
24.74167,15
24.75000,15
24.75833,16
24.76667,16
24.77500,17
24.78333,18
24.79167,19
24.80000,19
24.80833,20
24.81667,21
24.82500,22
24.83333,23
24.84167,25
24.85000,26
24.85833,28
24.86667,29
24.87500,31
24.88333,32
24.89167,34
24.90000,36
24.90833,38
24.91667,40
24.92500,42
24.93333,45
24.94167,47
24.95000,50
24.95833,52
24.96667,55
24.97500,57
24.98333,60
24.99167,62
25.00000,65
25.00833,68
25.01667,70
25.02500,73
25.03333,76
25.04167,79
25.05000,81
25.05833,84
25.06667,87
25.07500,89
25.08333,92
25.09167,94
25.10000,96
25.10833,98
25.11667,100
25.12500,101
25.13333,103
25.14167,104
25.15000,105
25.15833,106
25.16667,107
25.17500,108
25.18333,109
25.19167,109
25.20000,109
25.20833,109
25.21667,109
25.22500,109
25.23333,108
25.24167,107
25.25000,106
25.25833,105
25.26667,104
25.27500,102
25.28333,100
25.29167,99
25.30000,97
25.30833,95
25.31667,93
25.32500,91
25.33333,89
25.34167,87
25.35000,85
25.35833,82
25.36667,79
25.37500,77
25.38333,74
25.39167,72
25.40000,70
25.40833,67
25.41667,65
25.42500,62
25.43333,60
25.44167,57
25.45000,55
25.45833,53
25.46667,51
25.47500,49
25.48333,47
25.49167,45
25.50000,43
25.50833,41
25.51667,39
25.52500,37
25.53333,35
25.54167,34
25.55000,32
25.55833,30
25.56667,29
25.57500,28
25.58333,27
25.59167,25
25.60000,24
25.60833,23
25.61667,22
25.62500,21
25.63333,20
25.64167,19
25.65000,18
25.65833,17
25.66667,17
25.67500,16
25.68333,15
25.69167,15
25.70000,14
25.70833,14
25.71667,13
25.72500,13
25.73333,12
25.74167,12
25.75000,11
25.75833,11
25.76667,11
25.77500,11
25.78333,10
25.79167,10
25.80000,10
25.80833,9
25.81667,9
25.82500,9
25.83333,9
25.84167,9
25.85000,9
25.85833,9
25.86667,8
25.87500,8
25.88333,8
25.89167,8
25.90000,8
25.90833,9
25.91667,9
25.92500,9
25.93333,9
25.94167,9
25.95000,9
25.95833,8
25.96667,8
25.97500,8
25.98333,9
25.99167,9
26.00000,9
26.00833,9
26.01667,8
26.02500,8
26.03333,8
26.04167,8
26.05000,8
26.05833,8
26.06667,8
26.07500,8
26.08333,8
26.09167,8
26.10000,8
26.10833,8
26.11667,8
26.12500,7
26.13333,7
26.14167,7
26.15000,7
26.15833,7
26.16667,8
26.17500,8
26.18333,7
26.19167,7
26.20000,7
26.20833,7
26.21667,7
26.22500,8
26.23333,8
26.24167,8
26.25000,8
26.25833,8
26.26667,8
26.27500,8
26.28333,8
26.29167,9
26.30000,9
26.30833,8
26.31667,8
26.32500,8
26.33333,8
26.34167,8
26.35000,8
26.35833,8
26.36667,8
26.37500,8
26.38333,8
26.39167,8
26.40000,8
26.40833,8
26.41667,8
26.42500,8
26.43333,8
26.44167,8
26.45000,8
26.45833,8
26.46667,8
26.47500,8
26.48333,8
26.49167,8
26.50000,8
26.50833,8
26.51667,7
26.52500,7
26.53333,7
26.54167,7
26.55000,8
26.55833,8
26.56667,8
26.57500,8
26.58333,9
26.59167,9
26.60000,9
26.60833,9
26.61667,9
26.62500,9
26.63333,9
26.64167,9
26.65000,9
26.65833,9
26.66667,9
26.67500,9
26.68333,8
26.69167,8
26.70000,8
26.70833,8
26.71667,8
26.72500,8
26.73333,8
26.74167,9
26.75000,9
26.75833,9
26.76667,9
26.77500,9
26.78333,9
26.79167,9
26.80000,9
26.80833,10
26.81667,9
26.82500,9
26.83333,9
26.84167,9
26.85000,9
26.85833,9
26.86667,9
26.87500,9
26.88333,10
26.89167,10
26.90000,10
26.90833,9
26.91667,9
26.92500,9
26.93333,9
26.94167,9
26.95000,9
26.95833,8
26.96667,8
26.97500,8
26.98333,8
26.99167,8
27.00000,8
27.00833,8
27.01667,9
27.02500,9
27.03333,9
27.04167,9
27.05000,9
27.05833,9
27.06667,9
27.07500,9
27.08333,9
27.09167,8
27.10000,8
27.10833,9
27.11667,9
27.12500,9
27.13333,8
27.14167,8
27.15000,8
27.15833,8
27.16667,7
27.17500,7
27.18333,6
27.19167,6
27.20000,6
27.20833,5
27.21667,5
27.22500,5
27.23333,4
27.24167,3
27.25000,3
27.25833,2
27.26667,1
27.27500,0
27.28333,-0
27.29167,-1
27.30000,-2
27.30833,-2
27.31667,-3
27.32500,-5
27.33333,-6
27.34167,-7
27.35000,-8
27.35833,-10
27.36667,-12
27.37500,-13
27.38333,-14
27.39167,-16
27.40000,-18
27.40833,-20
27.41667,-22
27.42500,-24
27.43333,-26
27.44167,-28
27.45000,-30
27.45833,-32
27.46667,-35
27.47500,-37
27.48333,-40
27.49167,-42
27.50000,-45
27.50833,-47
27.51667,-51
27.52500,-54
27.53333,-57
27.54167,-60
27.55000,-63
27.55833,-66
27.56667,-70
27.57500,-73
27.58333,-76
27.59167,-79
27.60000,-82
27.60833,-86
27.61667,-89
27.62500,-92
27.63333,-95
27.64167,-98
27.65000,-101
27.65833,-104
27.66667,-107
27.67500,-109
27.68333,-112
27.69167,-114
27.70000,-117
27.70833,-120
27.71667,-122
27.72500,-125
27.73333,-127
27.74167,-129
27.75000,-130
27.75833,-132
27.76667,-133
27.77500,-134
27.78333,-135
27.79167,-136
27.80000,-136
27.80833,-137
27.81667,-137
27.82500,-137
27.83333,-138
27.84167,-138
27.85000,-138
27.85833,-137
27.86667,-136
27.87500,-135
27.88333,-134
27.89167,-133
27.90000,-132
27.90833,-131
27.91667,-130
27.92500,-128
27.93333,-127
27.94167,-125
27.95000,-123
27.95833,-121
27.96667,-119
27.97500,-117
27.98333,-115
27.99167,-113
28.00000,-110
28.00833,-107
28.01667,-104
28.02500,-102
28.03333,-99
28.04167,-97
28.05000,-95
28.05833,-92
28.06667,-90
28.07500,-87
28.08333,-84
28.09167,-82
28.10000,-79
28.10833,-77
28.11667,-74
28.12500,-71
28.13333,-69
28.14167,-67
28.15000,-64
28.15833,-62
28.16667,-59
28.17500,-57
28.18333,-55
28.19167,-53
28.20000,-51
28.20833,-49
28.21667,-47
28.22500,-45
28.23333,-42
28.24167,-41
28.25000,-39
28.25833,-38
28.26667,-36
28.27500,-34
28.28333,-32
28.29167,-31
28.30000,-29
28.30833,-28
28.31667,-26
28.32500,-25
28.33333,-23
28.34167,-22
28.35000,-21
28.35833,-20
28.36667,-19
28.37500,-18
28.38333,-17
28.39167,-17
28.40000,-16
28.40833,-14
28.41667,-13
28.42500,-12
28.43333,-12
28.44167,-11
28.45000,-10
28.45833,-10
28.46667,-9
28.47500,-9
28.48333,-8
28.49167,-8
28.50000,-7
28.50833,-7
28.51667,-6
28.52500,-6
28.53333,-5
28.54167,-5
28.55000,-4
28.55833,-4
28.56667,-4
28.57500,-3
28.58333,-3
28.59167,-2
28.60000,-2
28.60833,-2
28.61667,-2
28.62500,-2
28.63333,-2
28.64167,-2
28.65000,-2
28.65833,-1
28.66667,-1
28.67500,-1
28.68333,-0
28.69167,-0
28.70000,0
28.70833,0
28.71667,0
28.72500,0
28.73333,1
28.74167,1
28.75000,1
28.75833,1
28.76667,1
28.77500,1
28.78333,1
28.79167,1
28.80000,1
28.80833,2
28.81667,2
28.82500,3
28.83333,3
28.84167,3
28.85000,4
28.85833,4
28.86667,4
28.87500,5
28.88333,5
28.89167,6
28.90000,6
28.90833,6
28.91667,6
28.92500,6
28.93333,6
28.94167,6
28.95000,7
28.95833,7
28.96667,7
28.97500,7
28.98333,8
28.99167,8
29.00000,8
29.00833,9
29.01667,9
29.02500,10
29.03333,11
29.04167,11
29.05000,12
29.05833,13
29.06667,13
29.07500,14
29.08333,15
29.09167,15
29.10000,16
29.10833,17
29.11667,18
29.12500,19
29.13333,20
29.14167,21
29.15000,22
29.15833,23
29.16667,24
29.17500,25
29.18333,26
29.19167,27
29.20000,29
29.20833,30
29.21667,32
29.22500,33
29.23333,34
29.24167,35
29.25000,36
29.25833,37
29.26667,38
29.27500,40
29.28333,41
29.29167,42
29.30000,44
29.30833,45
29.31667,45
29.32500,45
29.33333,46
29.34167,47
29.35000,48
29.35833,49
29.36667,49
29.37500,50
29.38333,51
29.39167,51
29.40000,52
29.40833,52
29.41667,52
29.42500,52
29.43333,52
29.44167,51
29.45000,51
29.45833,50
29.46667,50
29.47500,50
29.48333,49
29.49167,49
29.50000,48
29.50833,47
29.51667,46
29.52500,45
29.53333,45
29.54167,44
29.55000,43
29.55833,42
29.56667,41
29.57500,39
29.58333,38
29.59167,37
29.60000,36
29.60833,34
29.61667,33
29.62500,32
29.63333,30
29.64167,29
29.65000,28
29.65833,27
29.66667,26
29.67500,24
29.68333,23
29.69167,22
29.70000,20
29.70833,19
29.71667,18
29.72500,16
29.73333,15
29.74167,14
29.75000,13
29.75833,12
29.76667,11
29.77500,10
29.78333,9
29.79167,8
29.80000,7
29.80833,6
29.81667,6
29.82500,5
29.83333,4
29.84167,3
29.85000,2
29.85833,1
29.86667,0
29.87500,-0
29.88333,-1
29.89167,-2
29.90000,-3
29.90833,-4
29.91667,-5
29.92500,-6
29.93333,-7
29.94167,-8
29.95000,-10
29.95833,-11
29.96667,-13
29.97500,-14
29.98333,-15
29.99167,-17
30.00000,-18
30.00833,-20
30.01667,-23
30.02500,-26
30.03333,-28
30.04167,-31
30.05000,-33
30.05833,-36
30.06667,-39
30.07500,-42
30.08333,-46
30.09167,-50
30.10000,-54
30.10833,-59
30.11667,-63
30.12500,-68
30.13333,-74
30.14167,-80
30.15000,-86
30.15833,-92
30.16667,-98
30.17500,-105
30.18333,-112
30.19167,-119
30.20000,-126
30.20833,-135
30.21667,-143
30.22500,-152
30.23333,-161
30.24167,-171
30.25000,-181
30.25833,-191
30.26667,-202
30.27500,-212
30.28333,-224
30.29167,-235
30.30000,-246
30.30833,-258
30.31667,-271
30.32500,-284
30.33333,-296
30.34167,-310
30.35000,-323
30.35833,-337
30.36667,-351
30.37500,-365
30.38333,-378
30.39167,-392
30.40000,-406
30.40833,-421
30.41667,-435
30.42500,-449
30.43333,-463
30.44167,-477
30.45000,-490
30.45833,-503
30.46667,-517
30.47500,-530
30.48333,-543
30.49167,-555
30.50000,-567
30.50833,-579
30.51667,-591
30.52500,-602
30.53333,-612
30.54167,-622
30.55000,-632
30.55833,-641
30.56667,-650
30.57500,-658
30.58333,-665
30.59167,-672
30.60000,-678
30.60833,-683
30.61667,-687
30.62500,-691
30.63333,-695
30.64167,-697
30.65000,-699
30.65833,-700
30.66667,-700
30.67500,-700
30.68333,-699
30.69167,-697
30.70000,-694
30.70833,-691
30.71667,-687
30.72500,-683
30.73333,-677
30.74167,-672
30.75000,-665
30.75833,-658
30.76667,-651
30.77500,-643
30.78333,-635
30.79167,-625
30.80000,-616
30.80833,-605
30.81667,-595
30.82500,-583
30.83333,-572
30.84167,-560
30.85000,-549
30.85833,-537
30.86667,-525
30.87500,-512
30.88333,-500
30.89167,-488
30.90000,-475
30.90833,-462
30.91667,-449
30.92500,-436
30.93333,-423
30.94167,-411
30.95000,-398
30.95833,-386
30.96667,-373
30.97500,-360
30.98333,-348
30.99167,-335
31.00000,-323
31.00833,-312
31.01667,-300
31.02500,-289
31.03333,-277
31.04167,-266
31.05000,-256
31.05833,-246
31.06667,-236
31.07500,-226
31.08333,-216
31.09167,-207
31.10000,-198
31.10833,-190
31.11667,-181
31.12500,-174
31.13333,-166
31.14167,-158
31.15000,-151
31.15833,-144
31.16667,-137
31.17500,-130
31.18333,-124
31.19167,-118
31.20000,-112
31.20833,-107
31.21667,-102
31.22500,-97
31.23333,-92
31.24167,-87
31.25000,-83
31.25833,-79
31.26667,-75
31.27500,-71
31.28333,-68
31.29167,-64
31.30000,-61
31.30833,-58
31.31667,-54
31.32500,-52
31.33333,-49
31.34167,-47
31.35000,-44
31.35833,-42
31.36667,-40
31.37500,-38
31.38333,-36
31.39167,-34
31.40000,-33
31.40833,-31
31.41667,-29
31.42500,-28
31.43333,-26
31.44167,-25
31.45000,-24
31.45833,-23
31.46667,-22
31.47500,-20
31.48333,-19
31.49167,-18
31.50000,-17
31.50833,-16
31.51667,-15
31.52500,-14
31.53333,-13
31.54167,-12
31.55000,-10
31.55833,-9
31.56667,-8
31.57500,-7
31.58333,-5
31.59167,-4
31.60000,-3
31.60833,-1
31.61667,0
31.62500,2
31.63333,4
31.64167,5
31.65000,7
31.65833,9
31.66667,11
31.67500,13
31.68333,16
31.69167,18
31.70000,21
31.70833,24
31.71667,27
31.72500,30
31.73333,34
31.74167,38
31.75000,42
31.75833,46
31.76667,50
31.77500,55
31.78333,60
31.79167,65
31.80000,71
31.80833,77
31.81667,83
31.82500,89
31.83333,96
31.84167,103
31.85000,110
31.85833,117
31.86667,125
31.87500,133
31.88333,141
31.89167,150
31.90000,159
31.90833,168
31.91667,178
31.92500,187
31.93333,197
31.94167,207
31.95000,217
31.95833,228
31.96667,239
31.97500,250
31.98333,261
31.99167,272
32.00000,284
32.00833,295
32.01667,306
32.02500,317
32.03333,329
32.04167,340
32.05000,351
32.05833,363
32.06667,374
32.07500,385
32.08333,395
32.09167,406
32.10000,416
32.10833,426
32.11667,435
32.12500,444
32.13333,453
32.14167,462
32.15000,470
32.15833,477
32.16667,484
32.17500,491
32.18333,497
32.19167,502
32.20000,507
32.20833,511
32.21667,515
32.22500,518
32.23333,521
32.24167,522
32.25000,523
32.25833,524
32.26667,524
32.27500,524
32.28333,522
32.29167,520
32.30000,518
32.30833,515
32.31667,511
32.32500,507
32.33333,502
32.34167,497
32.35000,491
32.35833,485
32.36667,478
32.37500,471
32.38333,464
32.39167,456
32.40000,448
32.40833,439
32.41667,431
32.42500,421
32.43333,412
32.44167,402
32.45000,392
32.45833,381
32.46667,371
32.47500,361
32.48333,351
32.49167,340
32.50000,330
32.50833,320
32.51667,310
32.52500,299
32.53333,289
32.54167,279
32.55000,268
32.55833,258
32.56667,249
32.57500,239
32.58333,229
32.59167,220
32.60000,211
32.60833,201
32.61667,192
32.62500,184
32.63333,175
32.64167,167
32.65000,160
32.65833,153
32.66667,146
32.67500,138
32.68333,131
32.69167,125
32.70000,118
32.70833,112
32.71667,106
32.72500,101
32.73333,95
32.74167,90
32.75000,85
32.75833,80
32.76667,76
32.77500,71
32.78333,67
32.79167,63
32.80000,60
32.80833,57
32.81667,53
32.82500,50
32.83333,47
32.84167,44
32.85000,41
32.85833,38
32.86667,36
32.87500,34
32.88333,32
32.89167,30
32.90000,28
32.90833,26
32.91667,25
32.92500,24
32.93333,23
32.94167,22
32.95000,21
32.95833,20
32.96667,19
32.97500,17
32.98333,16
32.99167,15
33.00000,14
33.00833,13
33.01667,12
33.02500,11
33.03333,11
33.04167,10
33.05000,9
33.05833,9
33.06667,8
33.07500,8
33.08333,8
33.09167,7
33.10000,7
33.10833,6
33.11667,6
33.12500,5
33.13333,5
33.14167,5
33.15000,5
33.15833,5
33.16667,4
33.17500,4
33.18333,3
33.19167,3
33.20000,2
33.20833,2
33.21667,2
33.22500,1
33.23333,1
33.24167,1
33.25000,1
33.25833,0
33.26667,-1
33.27500,-1
33.28333,-2
33.29167,-2
33.30000,-3
33.30833,-3
33.31667,-3
33.32500,-3
33.33333,-4
33.34167,-4
33.35000,-5
33.35833,-6
33.36667,-6
33.37500,-7
33.38333,-7
33.39167,-8
33.40000,-8
33.40833,-9
33.41667,-9
33.42500,-10
33.43333,-10
33.44167,-11
33.45000,-11
33.45833,-12
33.46667,-12
33.47500,-13
33.48333,-13
33.49167,-14
33.50000,-15
33.50833,-15
33.51667,-16
33.52500,-16
33.53333,-17
33.54167,-18
33.55000,-18
33.55833,-19
33.56667,-19
33.57500,-20
33.58333,-20
33.59167,-21
33.60000,-22
33.60833,-22
33.61667,-23
33.62500,-23
33.63333,-24
33.64167,-24
33.65000,-25
33.65833,-25
33.66667,-25
33.67500,-25
33.68333,-26
33.69167,-26
33.70000,-25
33.70833,-25
33.71667,-25
33.72500,-26
33.73333,-27
33.74167,-27
33.75000,-27
33.75833,-27
33.76667,-27
33.77500,-27
33.78333,-27
33.79167,-27
33.80000,-27
33.80833,-27
33.81667,-27
33.82500,-27
33.83333,-27
33.84167,-27
33.85000,-27
33.85833,-26
33.86667,-26
33.87500,-25
33.88333,-24
33.89167,-24
33.90000,-23
33.90833,-23
33.91667,-23
33.92500,-22
33.93333,-22
33.94167,-21
33.95000,-21
33.95833,-20
33.96667,-19
33.97500,-19
33.98333,-18
33.99167,-18
34.00000,-18
34.00833,-17
34.01667,-17
34.02500,-17
34.03333,-16
34.04167,-15
34.05000,-14
34.05833,-14
34.06667,-13
34.07500,-13
34.08333,-12
34.09167,-12
34.10000,-11
34.10833,-11
34.11667,-11
34.12500,-10
34.13333,-10
34.14167,-9
34.15000,-9
34.15833,-8
34.16667,-7
34.17500,-7
34.18333,-6
34.19167,-6
34.20000,-6
34.20833,-6
34.21667,-5
34.22500,-5
34.23333,-4
34.24167,-4
34.25000,-4
34.25833,-4
34.26667,-4
34.27500,-3
34.28333,-3
34.29167,-3
34.30000,-3
34.30833,-2
34.31667,-2
34.32500,-2
34.33333,-1
34.34167,-1
34.35000,-1
34.35833,-1
34.36667,-1
34.37500,-2
34.38333,-2
34.39167,-1
34.40000,-1
34.40833,-1
34.41667,-1
34.42500,-0
34.43333,-0
34.44167,-0
34.45000,0
34.45833,-0
34.46667,-0
34.47500,0
34.48333,0
34.49167,0
34.50000,0
34.50833,0
34.51667,0
34.52500,1
34.53333,1
34.54167,1
34.55000,1
34.55833,1
34.56667,1
34.57500,1
34.58333,1
34.59167,1
34.60000,1
34.60833,1
34.61667,1
34.62500,1
34.63333,1
34.64167,1
34.65000,1
34.65833,1
34.66667,1
34.67500,1
34.68333,1
34.69167,1
34.70000,1
34.70833,1
34.71667,1
34.72500,1
34.73333,1
34.74167,1
34.75000,1
34.75833,1
34.76667,1
34.77500,0
34.78333,0
34.79167,1
34.80000,1
34.80833,1
34.81667,1
34.82500,1
34.83333,0
34.84167,0
34.85000,0
34.85833,1
34.86667,1
34.87500,1
34.88333,1
34.89167,1
34.90000,1
34.90833,1
34.91667,1
34.92500,1
34.93333,0
34.94167,0
34.95000,-0
34.95833,-0
34.96667,-0
34.97500,0
34.98333,1
34.99167,1
35.00000,1
35.00833,1
35.01667,0
35.02500,0
35.03333,0
35.04167,0
35.05000,1
35.05833,1
35.06667,1
35.07500,1
35.08333,1
35.09167,1
35.10000,1
35.10833,0
35.11667,0
35.12500,0
35.13333,0
35.14167,0
35.15000,0
35.15833,0
35.16667,0
35.17500,0
35.18333,0
35.19167,0
35.20000,0
35.20833,0
35.21667,0
35.22500,0
35.23333,0
35.24167,0
35.25000,0
35.25833,0
35.26667,0
35.27500,1
35.28333,1
35.29167,1
35.30000,1
35.30833,0
35.31667,0
35.32500,0
35.33333,-0
35.34167,-0
35.35000,-0
35.35833,-0
35.36667,-0
35.37500,-0
35.38333,-0
35.39167,-0
35.40000,-0
35.40833,0
35.41667,0
35.42500,0
35.43333,-0
35.44167,-0
35.45000,-0
35.45833,0
35.46667,-0
35.47500,-0
35.48333,-1
35.49167,-1
35.50000,-1
35.50833,-1
35.51667,-1
35.52500,-0
35.53333,-0
35.54167,-0
35.55000,0
35.55833,0
35.56667,1
35.57500,1
35.58333,1
35.59167,1
35.60000,1
35.60833,1
35.61667,1
35.62500,1
35.63333,1
35.64167,0
35.65000,0
35.65833,0
35.66667,0
35.67500,1
35.68333,0
35.69167,0
35.70000,0
35.70833,0
35.71667,0
35.72500,0
35.73333,0
35.74167,0
35.75000,0
35.75833,-0
35.76667,-0
35.77500,-1
35.78333,-1
35.79167,-1
35.80000,-1
35.80833,-1
35.81667,-1
35.82500,-1
35.83333,-1
35.84167,-1
35.85000,-1
35.85833,-1
35.86667,-1
35.87500,-1
35.88333,-1
35.89167,-0
35.90000,-0
35.90833,-0
35.91667,-0
35.92500,-0
35.93333,-1
35.94167,-1
35.95000,-0
35.95833,0
35.96667,0
35.97500,0
35.98333,0
35.99167,0
36.00000,-0
36.00833,-0
36.01667,-1
36.02500,-1
36.03333,-1
36.04167,-1
36.05000,-1
36.05833,-1
36.06667,-1
36.07500,-1
36.08333,-1
36.09167,-1
36.10000,-1
36.10833,-1
36.11667,-1
36.12500,-1
36.13333,-1
36.14167,-1
36.15000,-1
36.15833,-1
36.16667,-1
36.17500,-1
36.18333,-1
36.19167,-0
36.20000,-0
36.20833,-0
36.21667,-0
36.22500,-0
36.23333,0
36.24167,0
36.25000,0
36.25833,0
36.26667,0
36.27500,-0
36.28333,-0
36.29167,-0
36.30000,-0
36.30833,0
36.31667,0
36.32500,0
36.33333,0
36.34167,0
36.35000,-0
36.35833,0
36.36667,0
36.37500,0
36.38333,0
36.39167,0
36.40000,0
36.40833,0
36.41667,0
36.42500,0
36.43333,1
36.44167,1
36.45000,1
36.45833,1
36.46667,1
36.47500,1
36.48333,1
36.49167,1
36.50000,2
36.50833,1
36.51667,1
36.52500,1
36.53333,1
36.54167,1
36.55000,1
36.55833,1
36.56667,1
36.57500,1
36.58333,1
36.59167,1
36.60000,2
36.60833,2
36.61667,2
36.62500,2
36.63333,2
36.64167,2
36.65000,2
36.65833,2
36.66667,2
36.67500,2
36.68333,2
36.69167,2
36.70000,2
36.70833,2
36.71667,2
36.72500,3
36.73333,3
36.74167,3
36.75000,3
36.75833,3
36.76667,3
36.77500,3
36.78333,3
36.79167,3
36.80000,3
36.80833,4
36.81667,4
36.82500,4
36.83333,4
36.84167,4
36.85000,4
36.85833,4
36.86667,4
36.87500,5
36.88333,5
36.89167,5
36.90000,5
36.90833,5
36.91667,5
36.92500,5
36.93333,5
36.94167,5
36.95000,5
36.95833,5
36.96667,6
36.97500,6
36.98333,7
36.99167,7
37.00000,7
37.00833,7
37.01667,7
37.02500,7
37.03333,7
37.04167,7
37.05000,7
37.05833,8
37.06667,8
37.07500,8
37.08333,7
37.09167,7
37.10000,7
37.10833,7
37.11667,8
37.12500,8
37.13333,8
37.14167,9
37.15000,9
37.15833,9
37.16667,9
37.17500,9
37.18333,9
37.19167,9
37.20000,8
37.20833,8
37.21667,9
37.22500,9
37.23333,9
37.24167,9
37.25000,9
37.25833,9
37.26667,9
37.27500,9
37.28333,9
37.29167,10
37.30000,10
37.30833,11
37.31667,12
37.32500,13
37.33333,13
37.34167,13
37.35000,13
37.35833,13
37.36667,13
37.37500,13
37.38333,13
37.39167,13
37.40000,13
37.40833,13
37.41667,13
37.42500,13
37.43333,13
37.44167,14
37.45000,14
37.45833,14
37.46667,14
37.47500,14
37.48333,15
37.49167,15
37.50000,14
37.50833,14
37.51667,14
37.52500,14
37.53333,14
37.54167,14
37.55000,14
37.55833,14
37.56667,14
37.57500,14
37.58333,14
37.59167,14
37.60000,14
37.60833,15
37.61667,15
37.62500,15
37.63333,15
37.64167,15
37.65000,16
37.65833,16
37.66667,16
37.67500,16
37.68333,16
37.69167,17
37.70000,16
37.70833,16
37.71667,16
37.72500,16
37.73333,16
37.74167,16
37.75000,16
37.75833,16
37.76667,16
37.77500,16
37.78333,16
37.79167,16
37.80000,16
37.80833,16
37.81667,16
37.82500,16
37.83333,16
37.84167,17
37.85000,17
37.85833,17
37.86667,17
37.87500,16
37.88333,16
37.89167,16
37.90000,16
37.90833,16
37.91667,16
37.92500,16
37.93333,16
37.94167,16
37.95000,16
37.95833,16
37.96667,16
37.97500,16
37.98333,16
37.99167,16
38.00000,16
38.00833,15
38.01667,15
38.02500,15
38.03333,15
38.04167,15
38.05000,16
38.05833,15
38.06667,15
38.07500,15
38.08333,15
38.09167,15
38.10000,15
38.10833,15
38.11667,15
38.12500,15
38.13333,15
38.14167,15
38.15000,15
38.15833,14
38.16667,14
38.17500,14
38.18333,14
38.19167,14
38.20000,13
38.20833,13
38.21667,13
38.22500,13
38.23333,13
38.24167,13
38.25000,13
38.25833,13
38.26667,12
38.27500,12
38.28333,12
38.29167,12
38.30000,12
38.30833,13
38.31667,13
38.32500,12
38.33333,11
38.34167,11
38.35000,11
38.35833,11
38.36667,11
38.37500,10
38.38333,10
38.39167,10
38.40000,10
38.40833,10
38.41667,10
38.42500,10
38.43333,10
38.44167,9
38.45000,9
38.45833,9
38.46667,9
38.47500,9
38.48333,9
38.49167,9
38.50000,8
38.50833,8
38.51667,8
38.52500,8
38.53333,7
38.54167,7
38.55000,7
38.55833,7
38.56667,6
38.57500,6
38.58333,6
38.59167,6
38.60000,5
38.60833,5
38.61667,5
38.62500,5
38.63333,6
38.64167,5
38.65000,5
38.65833,5
38.66667,5
38.67500,5
38.68333,5
38.69167,5
38.70000,4
38.70833,4
38.71667,4
38.72500,4
38.73333,3
38.74167,3
38.75000,3
38.75833,3
38.76667,2
38.77500,2
38.78333,2
38.79167,2
38.80000,2
38.80833,1
38.81667,1
38.82500,1
38.83333,1
38.84167,1
38.85000,1
38.85833,1
38.86667,1
38.87500,1
38.88333,1
38.89167,1
38.90000,0
38.90833,0
38.91667,0
38.92500,0
38.93333,0
38.94167,-0
38.95000,-0
38.95833,-0
38.96667,-1
38.97500,-1
38.98333,-1
38.99167,-1
39.00000,-1
39.00833,-1
39.01667,-1
39.02500,-2
39.03333,-2
39.04167,-2
39.05000,-3
39.05833,-3
39.06667,-3
39.07500,-3
39.08333,-3
39.09167,-4
39.10000,-4
39.10833,-4
39.11667,-4
39.12500,-4
39.13333,-4
39.14167,-4
39.15000,-4
39.15833,-3
39.16667,-3
39.17500,-3
39.18333,-3
39.19167,-4
39.20000,-4
39.20833,-5
39.21667,-5
39.22500,-5
39.23333,-5
39.24167,-5
39.25000,-5
39.25833,-5
39.26667,-5
39.27500,-5
39.28333,-5
39.29167,-5
39.30000,-5
39.30833,-5
39.31667,-5
39.32500,-5
39.33333,-5
39.34167,-5
39.35000,-5
39.35833,-5
39.36667,-6
39.37500,-6
39.38333,-6
39.39167,-7
39.40000,-7
39.40833,-7
39.41667,-7
39.42500,-7
39.43333,-7
39.44167,-7
39.45000,-8
39.45833,-8
39.46667,-7
39.47500,-7
39.48333,-7
39.49167,-6
39.50000,-7
39.50833,-6
39.51667,-6
39.52500,-6
39.53333,-6
39.54167,-7
39.55000,-7
39.55833,-8
39.56667,-8
39.57500,-8
39.58333,-8
39.59167,-8
39.60000,-8
39.60833,-8
39.61667,-8
39.62500,-8
39.63333,-7
39.64167,-7
39.65000,-7
39.65833,-7
39.66667,-7
39.67500,-7
39.68333,-7
39.69167,-7
39.70000,-7
39.70833,-7
39.71667,-6
39.72500,-6
39.73333,-6
39.74167,-6
39.75000,-7
39.75833,-6
39.76667,-6
39.77500,-7
39.78333,-7
39.79167,-7
39.80000,-7
39.80833,-7
39.81667,-7
39.82500,-7
39.83333,-8
39.84167,-8
39.85000,-8
39.85833,-9
39.86667,-9
39.87500,-9
39.88333,-9
39.89167,-9
39.90000,-9
39.90833,-9
39.91667,-9
39.92500,-9
39.93333,-9
39.94167,-9
39.95000,-9
39.95833,-10
39.96667,-10
39.97500,-10
39.98333,-10
39.99167,-10
40.00000,-10

