File Path	chrom://990-75db15j/XVault/Ultimate_3000/1256/20230531_CMO_stabTest _FP08_FP09.seq/717.smp/RI_1.channel/RI_1.chm
Channel	RI_1

Injection Information:
Data Vault	XVault
Injection	FP08_7_s3
Injection Number	39
Position	BE5
Comment	
Processing Method	
Instrument Method	run_25B_method
Type	Unknown
Status	Finished
Injection Date	02.06.2023
Injection Time	14:53:07
Injection Volume (µl)	20.000
Dilution Factor	1.0000
Weight	1.0000

Chromatogram Data Information:
Time Min. (min)	0.000000
Time Max. (min)	40.000000
Data Points	2401
Detector	RI
Generating Data System	Chromeleon 7.2.5.9507
Exporting Data System	Chromeleon 7.2.5.0
Operator	Instrument Controller
Signal Quantity	Refractive 
Signal Unit	µRIU
Signal Min.	-0.585875
Signal Max.	54.881875
Channel	RI_1
Driver Name	RID520Driver.dll
Channel Type	Evaluation
Min. Step (s)	1
Max. Step (s)	1
Average Step (s)	1

Signal Parameter Information:
Signal Info	

Chromatogram Data:
Time (min)	Step (s)	Value (µRIU)
0.000000	n.a.	-0.033750
0.016667	1	-0.033875
0.033333	1	-0.033500
0.050000	1	-0.033375
0.066667	1	-0.032625
0.083333	1	-0.032250
0.100000	1	-0.031500
0.116667	1	-0.030875
0.133333	1	-0.030750
0.150000	1	-0.030375
0.166667	1	-0.029625
0.183333	1	-0.029000
0.200000	1	-0.028250
0.216667	1	-0.026875
0.233333	1	-0.025500
0.250000	1	-0.024875
0.266667	1	-0.023625
0.283333	1	-0.024125
0.300000	1	-0.026125
0.316667	1	-0.028625
0.333333	1	-0.029750
0.350000	1	-0.027625
0.366667	1	-0.022750
0.383333	1	-0.017375
0.400000	1	-0.011500
0.416667	1	-0.006500
0.433333	1	-0.002000
0.450000	1	0.001250
0.466667	1	0.004000
0.483333	1	0.007125
0.500000	1	0.007500
0.516667	1	0.007375
0.533333	1	0.006625
0.550000	1	0.006750
0.566667	1	0.007375
0.583333	1	0.007625
0.600000	1	0.009375
0.616667	1	0.010750
0.633333	1	0.011875
0.650000	1	0.012375
0.666667	1	0.013500
0.683333	1	0.015000
0.700000	1	0.016625
0.716667	1	0.017500
0.733333	1	0.018750
0.750000	1	0.019625
0.766667	1	0.020250
0.783333	1	0.021375
0.800000	1	0.022500
0.816667	1	0.023500
0.833333	1	0.024500
0.850000	1	0.026375
0.866667	1	0.027250
0.883333	1	0.027750
0.900000	1	0.028250
0.916667	1	0.028375
0.933333	1	0.028750
0.950000	1	0.028125
0.966667	1	0.027625
0.983333	1	0.026750
1.000000	1	0.026000
1.016667	1	0.025250
1.033333	1	0.024625
1.050000	1	0.023500
1.066667	1	0.021875
1.083333	1	0.020000
1.100000	1	0.018000
1.116667	1	0.015375
1.133333	1	0.013375
1.150000	1	0.010625
1.166667	1	0.008375
1.183333	1	0.005250
1.200000	1	0.002750
1.216667	1	0.000250
1.233333	1	-0.001625
1.250000	1	-0.005000
1.266667	1	-0.008125
1.283333	1	-0.011375
1.300000	1	-0.014375
1.316667	1	-0.017125
1.333333	1	-0.020500
1.350000	1	-0.022750
1.366667	1	-0.025875
1.383333	1	-0.029000
1.400000	1	-0.032250
1.416667	1	-0.035000
1.433333	1	-0.036875
1.450000	1	-0.039125
1.466667	1	-0.041000
1.483333	1	-0.044250
1.500000	1	-0.046375
1.516667	1	-0.048750
1.533333	1	-0.050500
1.550000	1	-0.052625
1.566667	1	-0.055000
1.583333	1	-0.056750
1.600000	1	-0.058625
1.616667	1	-0.060750
1.633333	1	-0.062500
1.650000	1	-0.063750
1.666667	1	-0.064875
1.683333	1	-0.066625
1.700000	1	-0.068000
1.716667	1	-0.069375
1.733333	1	-0.070500
1.750000	1	-0.071125
1.766667	1	-0.072250
1.783333	1	-0.073625
1.800000	1	-0.074625
1.816667	1	-0.075375
1.833333	1	-0.076000
1.850000	1	-0.076250
1.866667	1	-0.076625
1.883333	1	-0.077250
1.900000	1	-0.077375
1.916667	1	-0.077750
1.933333	1	-0.078125
1.950000	1	-0.078250
1.966667	1	-0.078250
1.983333	1	-0.078000
2.000000	1	-0.078250
2.016667	1	-0.078625
2.033333	1	-0.079125
2.050000	1	-0.079250
2.066667	1	-0.079375
2.083333	1	-0.079250
2.100000	1	-0.079625
2.116667	1	-0.080250
2.133333	1	-0.081250
2.150000	1	-0.082000
2.166667	1	-0.082125
2.183333	1	-0.083875
2.200000	1	-0.083875
2.216667	1	-0.084250
2.233333	1	-0.085125
2.250000	1	-0.085750
2.266667	1	-0.086375
2.283333	1	-0.087000
2.300000	1	-0.087875
2.316667	1	-0.089125
2.333333	1	-0.089500
2.350000	1	-0.090125
2.366667	1	-0.090750
2.383333	1	-0.091125
2.400000	1	-0.092125
2.416667	1	-0.092750
2.433333	1	-0.092750
2.450000	1	-0.093125
2.466667	1	-0.094000
2.483333	1	-0.094500
2.500000	1	-0.094250
2.516667	1	-0.094250
2.533333	1	-0.094875
2.550000	1	-0.095125
2.566667	1	-0.095250
2.583333	1	-0.094875
2.600000	1	-0.094750
2.616667	1	-0.094750
2.633333	1	-0.093750
2.650000	1	-0.093750
2.666667	1	-0.093750
2.683333	1	-0.093750
2.700000	1	-0.093375
2.716667	1	-0.093625
2.733333	1	-0.094125
2.750000	1	-0.094250
2.766667	1	-0.094125
2.783333	1	-0.094375
2.800000	1	-0.093875
2.816667	1	-0.094000
2.833333	1	-0.093375
2.850000	1	-0.093250
2.866667	1	-0.093250
2.883333	1	-0.093000
2.900000	1	-0.093500
2.916667	1	-0.094000
2.933333	1	-0.093875
2.950000	1	-0.094000
2.966667	1	-0.094125
2.983333	1	-0.094500
3.000000	1	-0.094625
3.016667	1	-0.094750
3.033333	1	-0.095250
3.050000	1	-0.095750
3.066667	1	-0.095875
3.083333	1	-0.096750
3.100000	1	-0.097375
3.116667	1	-0.097625
3.133333	1	-0.098875
3.150000	1	-0.099500
3.166667	1	-0.100625
3.183333	1	-0.101625
3.200000	1	-0.102500
3.216667	1	-0.103250
3.233333	1	-0.103625
3.250000	1	-0.104500
3.266667	1	-0.106125
3.283333	1	-0.106750
3.300000	1	-0.107250
3.316667	1	-0.107875
3.333333	1	-0.108750
3.350000	1	-0.109625
3.366667	1	-0.109750
3.383333	1	-0.109625
3.400000	1	-0.110250
3.416667	1	-0.110375
3.433333	1	-0.110250
3.450000	1	-0.110250
3.466667	1	-0.110000
3.483333	1	-0.109875
3.500000	1	-0.109875
3.516667	1	-0.109125
3.533333	1	-0.108625
3.550000	1	-0.108625
3.566667	1	-0.108125
3.583333	1	-0.107625
3.600000	1	-0.107250
3.616667	1	-0.106000
3.633333	1	-0.105125
3.650000	1	-0.103625
3.666667	1	-0.103625
3.683333	1	-0.103000
3.700000	1	-0.102250
3.716667	1	-0.101250
3.733333	1	-0.100125
3.750000	1	-0.099875
3.766667	1	-0.099125
3.783333	1	-0.097875
3.800000	1	-0.097375
3.816667	1	-0.096250
3.833333	1	-0.095625
3.850000	1	-0.094625
3.866667	1	-0.093750
3.883333	1	-0.092375
3.900000	1	-0.092125
3.916667	1	-0.091125
3.933333	1	-0.091125
3.950000	1	-0.090625
3.966667	1	-0.090625
3.983333	1	-0.090625
4.000000	1	-0.090625
4.016667	1	-0.090375
4.033333	1	-0.090250
4.050000	1	-0.089625
4.066667	1	-0.089250
4.083333	1	-0.089000
4.100000	1	-0.088750
4.116667	1	-0.088875
4.133333	1	-0.089375
4.150000	1	-0.090000
4.166667	1	-0.089875
4.183333	1	-0.090375
4.200000	1	-0.090625
4.216667	1	-0.090500
4.233333	1	-0.089875
4.250000	1	-0.090625
4.266667	1	-0.090500
4.283333	1	-0.091125
4.300000	1	-0.091375
4.316667	1	-0.091375
4.333333	1	-0.092125
4.350000	1	-0.092375
4.366667	1	-0.092625
4.383333	1	-0.093625
4.400000	1	-0.093750
4.416667	1	-0.094125
4.433333	1	-0.095000
4.450000	1	-0.095375
4.466667	1	-0.096875
4.483333	1	-0.098250
4.500000	1	-0.098875
4.516667	1	-0.100000
4.533333	1	-0.100625
4.550000	1	-0.101500
4.566667	1	-0.102500
4.583333	1	-0.104000
4.600000	1	-0.104125
4.616667	1	-0.105000
4.633333	1	-0.105125
4.650000	1	-0.106375
4.666667	1	-0.107125
4.683333	1	-0.107625
4.700000	1	-0.108500
4.716667	1	-0.108500
4.733333	1	-0.109125
4.750000	1	-0.109125
4.766667	1	-0.109250
4.783333	1	-0.109000
4.800000	1	-0.109625
4.816667	1	-0.109750
4.833333	1	-0.110250
4.850000	1	-0.109875
4.866667	1	-0.110500
4.883333	1	-0.111000
4.900000	1	-0.111125
4.916667	1	-0.111500
4.933333	1	-0.111375
4.950000	1	-0.111250
4.966667	1	-0.111125
4.983333	1	-0.111625
5.000000	1	-0.112375
5.016667	1	-0.113125
5.033333	1	-0.113500
5.050000	1	-0.113500
5.066667	1	-0.113750
5.083333	1	-0.114875
5.100000	1	-0.115625
5.116667	1	-0.116750
5.133333	1	-0.116750
5.150000	1	-0.118125
5.166667	1	-0.118250
5.183333	1	-0.118750
5.200000	1	-0.118625
5.216667	1	-0.118875
5.233333	1	-0.120125
5.250000	1	-0.120500
5.266667	1	-0.121125
5.283333	1	-0.122250
5.300000	1	-0.122750
5.316667	1	-0.123250
5.333333	1	-0.123625
5.350000	1	-0.123375
5.366667	1	-0.123250
5.383333	1	-0.124375
5.400000	1	-0.124000
5.416667	1	-0.124250
5.433333	1	-0.124500
5.450000	1	-0.125500
5.466667	1	-0.125625
5.483333	1	-0.126125
5.500000	1	-0.125875
5.516667	1	-0.125750
5.533333	1	-0.126250
5.550000	1	-0.126375
5.566667	1	-0.126000
5.583333	1	-0.126250
5.600000	1	-0.126625
5.616667	1	-0.126000
5.633333	1	-0.125750
5.650000	1	-0.125250
5.666667	1	-0.124750
5.683333	1	-0.124125
5.700000	1	-0.124250
5.716667	1	-0.123875
5.733333	1	-0.123000
5.750000	1	-0.122375
5.766667	1	-0.121125
5.783333	1	-0.120000
5.800000	1	-0.119000
5.816667	1	-0.118000
5.833333	1	-0.117625
5.850000	1	-0.116750
5.866667	1	-0.116625
5.883333	1	-0.115750
5.900000	1	-0.115500
5.916667	1	-0.115375
5.933333	1	-0.114500
5.950000	1	-0.113875
5.966667	1	-0.113125
5.983333	1	-0.113000
6.000000	1	-0.112625
6.016667	1	-0.112250
6.033333	1	-0.112375
6.050000	1	-0.113000
6.066667	1	-0.113000
6.083333	1	-0.112250
6.100000	1	-0.112000
6.116667	1	-0.112250
6.133333	1	-0.111750
6.150000	1	-0.111750
6.166667	1	-0.111750
6.183333	1	-0.110750
6.200000	1	-0.109875
6.216667	1	-0.110500
6.233333	1	-0.110250
6.250000	1	-0.110500
6.266667	1	-0.110375
6.283333	1	-0.109875
6.300000	1	-0.109750
6.316667	1	-0.109125
6.333333	1	-0.108750
6.350000	1	-0.108125
6.366667	1	-0.107625
6.383333	1	-0.107375
6.400000	1	-0.106750
6.416667	1	-0.105875
6.433333	1	-0.105625
6.450000	1	-0.105625
6.466667	1	-0.105375
6.483333	1	-0.104875
6.500000	1	-0.104500
6.516667	1	-0.104250
6.533333	1	-0.104375
6.550000	1	-0.104125
6.566667	1	-0.103625
6.583333	1	-0.103750
6.600000	1	-0.104000
6.616667	1	-0.104375
6.633333	1	-0.104250
6.650000	1	-0.104750
6.666667	1	-0.105375
6.683333	1	-0.105875
6.700000	1	-0.106500
6.716667	1	-0.107375
6.733333	1	-0.108500
6.750000	1	-0.108875
6.766667	1	-0.109375
6.783333	1	-0.109750
6.800000	1	-0.110500
6.816667	1	-0.111125
6.833333	1	-0.112250
6.850000	1	-0.114000
6.866667	1	-0.114625
6.883333	1	-0.116125
6.900000	1	-0.117125
6.916667	1	-0.118625
6.933333	1	-0.119875
6.950000	1	-0.121375
6.966667	1	-0.121625
6.983333	1	-0.123500
7.000000	1	-0.124500
7.016667	1	-0.126125
7.033333	1	-0.127375
7.050000	1	-0.128625
7.066667	1	-0.130125
7.083333	1	-0.130875
7.100000	1	-0.133000
7.116667	1	-0.134000
7.133333	1	-0.135375
7.150000	1	-0.136375
7.166667	1	-0.137250
7.183333	1	-0.137375
7.200000	1	-0.138375
7.216667	1	-0.139250
7.233333	1	-0.139750
7.250000	1	-0.140500
7.266667	1	-0.140625
7.283333	1	-0.141750
7.300000	1	-0.143125
7.316667	1	-0.143625
7.333333	1	-0.143750
7.350000	1	-0.144000
7.366667	1	-0.144500
7.383333	1	-0.144125
7.400000	1	-0.144750
7.416667	1	-0.145125
7.433333	1	-0.146125
7.450000	1	-0.146875
7.466667	1	-0.147125
7.483333	1	-0.147250
7.500000	1	-0.147625
7.516667	1	-0.148250
7.533333	1	-0.148625
7.550000	1	-0.149500
7.566667	1	-0.150750
7.583333	1	-0.151125
7.600000	1	-0.151000
7.616667	1	-0.151750
7.633333	1	-0.151625
7.650000	1	-0.152375
7.666667	1	-0.153250
7.683333	1	-0.153875
7.700000	1	-0.154000
7.716667	1	-0.155000
7.733333	1	-0.155875
7.750000	1	-0.156625
7.766667	1	-0.157750
7.783333	1	-0.158750
7.800000	1	-0.159375
7.816667	1	-0.160125
7.833333	1	-0.161375
7.850000	1	-0.161875
7.866667	1	-0.162375
7.883333	1	-0.163125
7.900000	1	-0.164125
7.916667	1	-0.164875
7.933333	1	-0.164750
7.950000	1	-0.164875
7.966667	1	-0.165250
7.983333	1	-0.165125
8.000000	1	-0.165750
8.016667	1	-0.166250
8.033333	1	-0.166500
8.050000	1	-0.166250
8.066667	1	-0.166375
8.083333	1	-0.166000
8.100000	1	-0.165125
8.116667	1	-0.164875
8.133333	1	-0.164625
8.150000	1	-0.163750
8.166667	1	-0.162750
8.183333	1	-0.162500
8.200000	1	-0.161250
8.216667	1	-0.160375
8.233333	1	-0.159500
8.250000	1	-0.158125
8.266667	1	-0.156875
8.283333	1	-0.155875
8.300000	1	-0.154375
8.316667	1	-0.153500
8.333333	1	-0.151875
8.350000	1	-0.150125
8.366667	1	-0.148625
8.383333	1	-0.147625
8.400000	1	-0.146000
8.416667	1	-0.144750
8.433333	1	-0.142375
8.450000	1	-0.140875
8.466667	1	-0.138750
8.483333	1	-0.135875
8.500000	1	-0.133500
8.516667	1	-0.131125
8.533333	1	-0.128375
8.550000	1	-0.126000
8.566667	1	-0.123625
8.583333	1	-0.121750
8.600000	1	-0.120250
8.616667	1	-0.118875
8.633333	1	-0.118125
8.650000	1	-0.116875
8.666667	1	-0.116250
8.683333	1	-0.114875
8.700000	1	-0.114000
8.716667	1	-0.113250
8.733333	1	-0.112500
8.750000	1	-0.112375
8.766667	1	-0.111750
8.783333	1	-0.111250
8.800000	1	-0.110500
8.816667	1	-0.110125
8.833333	1	-0.109875
8.850000	1	-0.109125
8.866667	1	-0.108875
8.883333	1	-0.107875
8.900000	1	-0.106375
8.916667	1	-0.105500
8.933333	1	-0.104500
8.950000	1	-0.103750
8.966667	1	-0.103000
8.983333	1	-0.102000
9.000000	1	-0.101000
9.016667	1	-0.099750
9.033333	1	-0.098750
9.050000	1	-0.096625
9.066667	1	-0.095500
9.083333	1	-0.093875
9.100000	1	-0.093000
9.116667	1	-0.091125
9.133333	1	-0.089125
9.150000	1	-0.087750
9.166667	1	-0.085625
9.183333	1	-0.083875
9.200000	1	-0.082125
9.216667	1	-0.081250
9.233333	1	-0.080125
9.250000	1	-0.078250
9.266667	1	-0.076500
9.283333	1	-0.075125
9.300000	1	-0.073375
9.316667	1	-0.072500
9.333333	1	-0.071375
9.350000	1	-0.069500
9.366667	1	-0.068625
9.383333	1	-0.067750
9.400000	1	-0.066500
9.416667	1	-0.065000
9.433333	1	-0.063625
9.450000	1	-0.062000
9.466667	1	-0.060250
9.483333	1	-0.058375
9.500000	1	-0.055500
9.516667	1	-0.052125
9.533333	1	-0.047750
9.550000	1	-0.041500
9.566667	1	-0.036125
9.583333	1	-0.029375
9.600000	1	-0.021125
9.616667	1	-0.011875
9.633333	1	-0.001000
9.650000	1	0.011875
9.666667	1	0.026250
9.683333	1	0.042375
9.700000	1	0.060750
9.716667	1	0.080125
9.733333	1	0.099750
9.750000	1	0.119375
9.766667	1	0.136500
9.783333	1	0.150500
9.800000	1	0.160250
9.816667	1	0.165750
9.833333	1	0.164625
9.850000	1	0.156750
9.866667	1	0.141000
9.883333	1	0.114875
9.900000	1	0.082750
9.916667	1	0.055250
9.933333	1	0.057125
9.950000	1	0.129750
9.966667	1	0.326250
9.983333	1	0.708750
10.000000	1	1.338125
10.016667	1	2.268500
10.033333	1	3.541625
10.050000	1	5.185250
10.066667	1	7.213250
10.083333	1	9.628375
10.100000	1	12.416875
10.116667	1	15.552875
10.133333	1	18.993375
10.150000	1	22.672375
10.166667	1	26.500875
10.183333	1	30.362625
10.200000	1	34.108875
10.216667	1	37.559000
10.233333	1	40.509375
10.250000	1	42.749750
10.266667	1	44.103125
10.283333	1	44.451375
10.300000	1	43.766375
10.316667	1	42.123000
10.333333	1	39.688125
10.350000	1	36.685625
10.366667	1	33.354250
10.383333	1	29.920625
10.400000	1	26.567125
10.416667	1	23.421875
10.433333	1	20.560375
10.450000	1	18.015375
10.466667	1	15.785250
10.483333	1	13.849000
10.500000	1	12.175125
10.516667	1	10.731500
10.533333	1	9.483750
10.550000	1	8.403750
10.566667	1	7.466750
10.583333	1	6.654500
10.600000	1	5.949250
10.616667	1	5.339375
10.633333	1	4.812625
10.650000	1	4.358250
10.666667	1	3.967500
10.683333	1	3.630250
10.700000	1	3.338625
10.716667	1	3.086250
10.733333	1	2.865750
10.750000	1	2.672250
10.766667	1	2.501625
10.783333	1	2.350125
10.800000	1	2.214625
10.816667	1	2.093375
10.833333	1	1.984125
10.850000	1	1.884750
10.866667	1	1.794500
10.883333	1	1.713125
10.900000	1	1.638875
10.916667	1	1.569875
10.933333	1	1.506500
10.950000	1	1.447875
10.966667	1	1.394125
10.983333	1	1.344625
11.000000	1	1.299125
11.016667	1	1.256375
11.033333	1	1.216875
11.050000	1	1.180000
11.066667	1	1.145750
11.083333	1	1.114125
11.100000	1	1.084875
11.116667	1	1.057375
11.133333	1	1.032375
11.150000	1	1.008500
11.166667	1	0.986875
11.183333	1	0.966375
11.200000	1	0.946750
11.216667	1	0.928250
11.233333	1	0.911000
11.250000	1	0.894250
11.266667	1	0.878875
11.283333	1	0.864625
11.300000	1	0.851375
11.316667	1	0.838000
11.333333	1	0.826000
11.350000	1	0.815125
11.366667	1	0.804250
11.383333	1	0.794750
11.400000	1	0.786000
11.416667	1	0.778250
11.433333	1	0.771000
11.450000	1	0.764750
11.466667	1	0.759375
11.483333	1	0.755375
11.500000	1	0.751375
11.516667	1	0.748500
11.533333	1	0.745000
11.550000	1	0.742875
11.566667	1	0.740875
11.583333	1	0.739375
11.600000	1	0.738625
11.616667	1	0.737875
11.633333	1	0.737375
11.650000	1	0.737500
11.666667	1	0.736875
11.683333	1	0.736750
11.700000	1	0.736375
11.716667	1	0.735750
11.733333	1	0.734750
11.750000	1	0.733625
11.766667	1	0.732750
11.783333	1	0.731375
11.800000	1	0.731125
11.816667	1	0.730875
11.833333	1	0.732500
11.850000	1	0.734375
11.866667	1	0.737125
11.883333	1	0.741250
11.900000	1	0.747250
11.916667	1	0.754500
11.933333	1	0.764250
11.950000	1	0.775750
11.966667	1	0.789500
11.983333	1	0.805125
12.000000	1	0.824750
12.016667	1	0.846625
12.033333	1	0.872000
12.050000	1	0.901625
12.066667	1	0.936625
12.083333	1	0.977875
12.100000	1	1.025625
12.116667	1	1.083875
12.133333	1	1.153625
12.150000	1	1.237875
12.166667	1	1.337625
12.183333	1	1.457250
12.200000	1	1.598000
12.216667	1	1.761000
12.233333	1	1.947625
12.250000	1	2.160500
12.266667	1	2.398875
12.283333	1	2.664875
12.300000	1	2.960875
12.316667	1	3.288250
12.333333	1	3.648375
12.350000	1	4.044375
12.366667	1	4.480000
12.383333	1	4.956000
12.400000	1	5.475500
12.416667	1	6.036000
12.433333	1	6.633000
12.450000	1	7.261000
12.466667	1	7.907750
12.483333	1	8.560000
12.500000	1	9.195875
12.516667	1	9.793500
12.533333	1	10.327500
12.550000	1	10.776625
12.566667	1	11.124375
12.583333	1	11.364500
12.600000	1	11.498000
12.616667	1	11.534125
12.633333	1	11.486375
12.650000	1	11.369250
12.666667	1	11.196750
12.683333	1	10.981875
12.700000	1	10.734125
12.716667	1	10.463875
12.733333	1	10.178125
12.750000	1	9.883000
12.766667	1	9.585000
12.783333	1	9.287625
12.800000	1	8.993750
12.816667	1	8.705750
12.833333	1	8.426625
12.850000	1	8.155125
12.866667	1	7.891250
12.883333	1	7.634250
12.900000	1	7.383000
12.916667	1	7.135625
12.933333	1	6.890875
12.950000	1	6.647375
12.966667	1	6.402875
12.983333	1	6.155625
13.000000	1	5.903375
13.016667	1	5.644375
13.033333	1	5.375125
13.050000	1	5.092875
13.066667	1	4.793750
13.083333	1	4.473625
13.100000	1	4.131500
13.116667	1	3.767125
13.133333	1	3.385875
13.150000	1	3.000250
13.166667	1	2.628625
13.183333	1	2.291500
13.200000	1	2.003250
13.216667	1	1.767250
13.233333	1	1.579500
13.250000	1	1.431125
13.266667	1	1.313250
13.283333	1	1.217375
13.300000	1	1.139000
13.316667	1	1.073000
13.333333	1	1.016500
13.350000	1	0.968625
13.366667	1	0.926375
13.383333	1	0.889375
13.400000	1	0.856125
13.416667	1	0.827125
13.433333	1	0.800375
13.450000	1	0.777625
13.466667	1	0.756375
13.483333	1	0.737500
13.500000	1	0.721375
13.516667	1	0.707625
13.533333	1	0.696750
13.550000	1	0.688125
13.566667	1	0.680625
13.583333	1	0.676000
13.600000	1	0.673250
13.616667	1	0.671875
13.633333	1	0.671125
13.650000	1	0.671625
13.666667	1	0.671125
13.683333	1	0.670500
13.700000	1	0.669375
13.716667	1	0.667125
13.733333	1	0.663750
13.750000	1	0.659500
13.766667	1	0.652625
13.783333	1	0.645375
13.800000	1	0.636625
13.816667	1	0.627625
13.833333	1	0.617250
13.850000	1	0.605875
13.866667	1	0.595000
13.883333	1	0.583125
13.900000	1	0.571625
13.916667	1	0.560250
13.933333	1	0.549125
13.950000	1	0.538875
13.966667	1	0.529000
13.983333	1	0.519500
14.000000	1	0.510875
14.016667	1	0.503750
14.033333	1	0.496625
14.050000	1	0.490375
14.066667	1	0.485375
14.083333	1	0.482000
14.100000	1	0.479000
14.116667	1	0.477125
14.133333	1	0.477125
14.150000	1	0.478125
14.166667	1	0.481125
14.183333	1	0.486500
14.200000	1	0.493375
14.216667	1	0.503375
14.233333	1	0.515750
14.250000	1	0.532625
14.266667	1	0.554000
14.283333	1	0.579875
14.300000	1	0.611625
14.316667	1	0.651125
14.333333	1	0.698250
14.350000	1	0.755000
14.366667	1	0.823125
14.383333	1	0.902875
14.400000	1	0.996375
14.416667	1	1.105250
14.433333	1	1.230875
14.450000	1	1.375750
14.466667	1	1.541250
14.483333	1	1.730625
14.500000	1	1.947000
14.516667	1	2.193375
14.533333	1	2.474375
14.550000	1	2.795125
14.566667	1	3.162375
14.583333	1	3.584875
14.600000	1	4.076000
14.616667	1	4.651000
14.633333	1	5.333000
14.650000	1	6.147875
14.666667	1	7.127125
14.683333	1	8.308500
14.700000	1	9.730250
14.716667	1	11.431250
14.733333	1	13.445625
14.750000	1	15.800625
14.766667	1	18.504500
14.783333	1	21.546375
14.800000	1	24.896250
14.816667	1	28.498750
14.833333	1	32.275875
14.850000	1	36.123875
14.866667	1	39.920875
14.883333	1	43.532250
14.900000	1	46.823250
14.916667	1	49.669000
14.933333	1	51.962000
14.950000	1	53.622625
14.966667	1	54.600625
14.983333	1	54.881875
15.000000	1	54.484000
15.016667	1	53.452875
15.033333	1	51.854375
15.050000	1	49.774250
15.066667	1	47.305750
15.083333	1	44.548375
15.100000	1	41.600125
15.116667	1	38.551000
15.133333	1	35.478375
15.150000	1	32.447000
15.166667	1	29.509875
15.183333	1	26.708750
15.200000	1	24.070000
15.216667	1	21.610875
15.233333	1	19.339750
15.250000	1	17.260000
15.266667	1	15.367875
15.283333	1	13.659250
15.300000	1	12.125625
15.316667	1	10.755875
15.333333	1	9.540250
15.350000	1	8.465625
15.366667	1	7.519000
15.383333	1	6.690375
15.400000	1	5.965125
15.416667	1	5.333000
15.433333	1	4.783000
15.450000	1	4.307250
15.466667	1	3.896375
15.483333	1	3.543625
15.500000	1	3.241250
15.516667	1	2.984000
15.533333	1	2.766375
15.550000	1	2.582000
15.566667	1	2.426750
15.583333	1	2.295125
15.600000	1	2.183875
15.616667	1	2.088125
15.633333	1	2.004875
15.650000	1	1.931125
15.666667	1	1.865125
15.683333	1	1.802875
15.700000	1	1.743875
15.716667	1	1.687000
15.733333	1	1.631000
15.750000	1	1.576250
15.766667	1	1.522625
15.783333	1	1.470375
15.800000	1	1.419500
15.816667	1	1.370000
15.833333	1	1.322250
15.850000	1	1.276875
15.866667	1	1.233375
15.883333	1	1.191375
15.900000	1	1.152625
15.916667	1	1.116750
15.933333	1	1.083000
15.950000	1	1.052625
15.966667	1	1.024750
15.983333	1	1.000250
16.000000	1	0.979250
16.016667	1	0.960000
16.033333	1	0.945000
16.050000	1	0.932625
16.066667	1	0.923500
16.083333	1	0.916500
16.100000	1	0.912750
16.116667	1	0.911125
16.133333	1	0.911500
16.150000	1	0.914000
16.166667	1	0.916750
16.183333	1	0.921125
16.200000	1	0.924125
16.216667	1	0.927750
16.233333	1	0.929750
16.250000	1	0.930375
16.266667	1	0.929625
16.283333	1	0.927500
16.300000	1	0.923125
16.316667	1	0.916750
16.333333	1	0.908750
16.350000	1	0.900250
16.366667	1	0.890375
16.383333	1	0.879875
16.400000	1	0.869750
16.416667	1	0.859000
16.433333	1	0.848750
16.450000	1	0.839250
16.466667	1	0.829000
16.483333	1	0.820000
16.500000	1	0.812000
16.516667	1	0.805000
16.533333	1	0.799375
16.550000	1	0.794250
16.566667	1	0.790875
16.583333	1	0.787500
16.600000	1	0.785250
16.616667	1	0.783625
16.633333	1	0.783500
16.650000	1	0.783750
16.666667	1	0.784125
16.683333	1	0.785500
16.700000	1	0.787125
16.716667	1	0.789375
16.733333	1	0.791625
16.750000	1	0.794000
16.766667	1	0.796000
16.783333	1	0.797500
16.800000	1	0.798500
16.816667	1	0.799125
16.833333	1	0.799625
16.850000	1	0.798750
16.866667	1	0.797000
16.883333	1	0.794625
16.900000	1	0.792875
16.916667	1	0.790375
16.933333	1	0.787875
16.950000	1	0.785625
16.966667	1	0.784000
16.983333	1	0.783625
17.000000	1	0.783625
17.016667	1	0.784375
17.033333	1	0.785875
17.050000	1	0.787500
17.066667	1	0.789750
17.083333	1	0.792000
17.100000	1	0.794000
17.116667	1	0.796000
17.133333	1	0.797250
17.150000	1	0.798000
17.166667	1	0.798375
17.183333	1	0.796625
17.200000	1	0.794375
17.216667	1	0.790875
17.233333	1	0.786250
17.250000	1	0.780625
17.266667	1	0.774875
17.283333	1	0.767875
17.300000	1	0.760625
17.316667	1	0.752875
17.333333	1	0.745250
17.350000	1	0.738125
17.366667	1	0.731625
17.383333	1	0.724250
17.400000	1	0.717750
17.416667	1	0.711750
17.433333	1	0.706875
17.450000	1	0.702375
17.466667	1	0.699750
17.483333	1	0.698500
17.500000	1	0.697500
17.516667	1	0.698625
17.533333	1	0.700500
17.550000	1	0.704125
17.566667	1	0.709250
17.583333	1	0.716875
17.600000	1	0.724750
17.616667	1	0.733875
17.633333	1	0.744375
17.650000	1	0.756375
17.666667	1	0.770000
17.683333	1	0.784375
17.700000	1	0.799500
17.716667	1	0.815000
17.733333	1	0.831125
17.750000	1	0.847625
17.766667	1	0.863875
17.783333	1	0.880125
17.800000	1	0.896500
17.816667	1	0.911500
17.833333	1	0.925500
17.850000	1	0.938875
17.866667	1	0.950875
17.883333	1	0.960500
17.900000	1	0.969500
17.916667	1	0.976625
17.933333	1	0.981500
17.950000	1	0.984125
17.966667	1	0.984500
17.983333	1	0.983375
18.000000	1	0.980750
18.016667	1	0.976125
18.033333	1	0.969750
18.050000	1	0.962375
18.066667	1	0.953250
18.083333	1	0.943250
18.100000	1	0.933125
18.116667	1	0.922250
18.133333	1	0.911125
18.150000	1	0.899500
18.166667	1	0.888000
18.183333	1	0.876250
18.200000	1	0.864500
18.216667	1	0.853625
18.233333	1	0.842500
18.250000	1	0.832125
18.266667	1	0.822625
18.283333	1	0.813500
18.300000	1	0.805375
18.316667	1	0.798500
18.333333	1	0.792375
18.350000	1	0.786750
18.366667	1	0.782000
18.383333	1	0.778000
18.400000	1	0.774625
18.416667	1	0.772625
18.433333	1	0.770875
18.450000	1	0.769500
18.466667	1	0.767750
18.483333	1	0.766500
18.500000	1	0.766000
18.516667	1	0.766125
18.533333	1	0.766750
18.550000	1	0.766875
18.566667	1	0.767500
18.583333	1	0.768500
18.600000	1	0.769750
18.616667	1	0.771375
18.633333	1	0.772875
18.650000	1	0.774750
18.666667	1	0.777750
18.683333	1	0.780000
18.700000	1	0.783500
18.716667	1	0.787250
18.733333	1	0.792000
18.750000	1	0.796125
18.766667	1	0.801750
18.783333	1	0.807250
18.800000	1	0.812875
18.816667	1	0.819500
18.833333	1	0.826500
18.850000	1	0.833500
18.866667	1	0.841500
18.883333	1	0.850500
18.900000	1	0.860875
18.916667	1	0.872125
18.933333	1	0.885500
18.950000	1	0.900875
18.966667	1	0.918250
18.983333	1	0.937875
19.000000	1	0.959625
19.016667	1	0.984750
19.033333	1	1.012000
19.050000	1	1.041750
19.066667	1	1.073750
19.083333	1	1.107625
19.100000	1	1.143250
19.116667	1	1.179625
19.133333	1	1.216125
19.150000	1	1.252375
19.166667	1	1.287250
19.183333	1	1.319750
19.200000	1	1.349375
19.216667	1	1.374500
19.233333	1	1.394750
19.250000	1	1.409750
19.266667	1	1.419375
19.283333	1	1.423500
19.300000	1	1.421250
19.316667	1	1.412375
19.333333	1	1.398125
19.350000	1	1.378125
19.366667	1	1.352375
19.383333	1	1.322625
19.400000	1	1.289125
19.416667	1	1.251625
19.433333	1	1.211000
19.450000	1	1.168125
19.466667	1	1.124750
19.483333	1	1.080875
19.500000	1	1.036000
19.516667	1	0.992250
19.533333	1	0.949625
19.550000	1	0.909500
19.566667	1	0.870500
19.583333	1	0.833500
19.600000	1	0.799250
19.616667	1	0.768125
19.633333	1	0.739125
19.650000	1	0.713750
19.666667	1	0.691250
19.683333	1	0.672625
19.700000	1	0.657375
19.716667	1	0.646625
19.733333	1	0.638375
19.750000	1	0.634125
19.766667	1	0.634125
19.783333	1	0.637250
19.800000	1	0.644750
19.816667	1	0.654750
19.833333	1	0.668250
19.850000	1	0.684125
19.866667	1	0.702375
19.883333	1	0.722625
19.900000	1	0.743875
19.916667	1	0.766375
19.933333	1	0.789375
19.950000	1	0.812250
19.966667	1	0.835500
19.983333	1	0.858250
20.000000	1	0.880250
20.016667	1	0.901500
20.033333	1	0.922250
20.050000	1	0.941000
20.066667	1	0.959750
20.083333	1	0.978500
20.100000	1	0.996625
20.116667	1	1.015625
20.133333	1	1.036250
20.150000	1	1.058875
20.166667	1	1.084375
20.183333	1	1.114375
20.200000	1	1.149125
20.216667	1	1.189000
20.233333	1	1.236375
20.250000	1	1.290000
20.266667	1	1.352625
20.283333	1	1.423250
20.300000	1	1.503250
20.316667	1	1.590500
20.333333	1	1.685375
20.350000	1	1.785625
20.366667	1	1.891000
20.383333	1	1.998875
20.400000	1	2.106750
20.416667	1	2.210750
20.433333	1	2.310500
20.450000	1	2.401625
20.466667	1	2.482625
20.483333	1	2.550875
20.500000	1	2.603625
20.516667	1	2.640750
20.533333	1	2.660500
20.550000	1	2.663500
20.566667	1	2.649125
20.583333	1	2.619500
20.600000	1	2.575000
20.616667	1	2.517625
20.633333	1	2.451000
20.650000	1	2.376500
20.666667	1	2.297000
20.683333	1	2.214500
20.700000	1	2.132750
20.716667	1	2.053375
20.733333	1	1.978000
20.750000	1	1.909375
20.766667	1	1.847500
20.783333	1	1.793625
20.800000	1	1.748500
20.816667	1	1.712000
20.833333	1	1.683375
20.850000	1	1.661125
20.866667	1	1.646125
20.883333	1	1.636000
20.900000	1	1.628000
20.916667	1	1.622125
20.933333	1	1.615375
20.950000	1	1.606750
20.966667	1	1.593875
20.983333	1	1.576750
21.000000	1	1.554625
21.016667	1	1.526875
21.033333	1	1.493250
21.050000	1	1.452750
21.066667	1	1.407250
21.083333	1	1.357625
21.100000	1	1.304000
21.116667	1	1.246750
21.133333	1	1.187875
21.150000	1	1.127500
21.166667	1	1.066625
21.183333	1	1.005625
21.200000	1	0.946625
21.216667	1	0.888625
21.233333	1	0.834125
21.250000	1	0.782750
21.266667	1	0.733500
21.283333	1	0.688000
21.300000	1	0.646125
21.316667	1	0.606125
21.333333	1	0.571000
21.350000	1	0.538375
21.366667	1	0.509625
21.383333	1	0.483125
21.400000	1	0.459750
21.416667	1	0.438500
21.433333	1	0.419375
21.450000	1	0.402750
21.466667	1	0.388375
21.483333	1	0.375125
21.500000	1	0.364000
21.516667	1	0.355125
21.533333	1	0.346750
21.550000	1	0.340000
21.566667	1	0.333625
21.583333	1	0.328500
21.600000	1	0.323500
21.616667	1	0.319500
21.633333	1	0.316125
21.650000	1	0.313125
21.666667	1	0.311000
21.683333	1	0.309250
21.700000	1	0.308250
21.716667	1	0.308500
21.733333	1	0.308500
21.750000	1	0.309125
21.766667	1	0.310500
21.783333	1	0.312625
21.800000	1	0.315250
21.816667	1	0.318875
21.833333	1	0.322125
21.850000	1	0.326125
21.866667	1	0.331375
21.883333	1	0.336750
21.900000	1	0.342375
21.916667	1	0.348500
21.933333	1	0.356000
21.950000	1	0.362500
21.966667	1	0.368125
21.983333	1	0.373750
22.000000	1	0.379375
22.016667	1	0.383250
22.033333	1	0.386750
22.050000	1	0.389875
22.066667	1	0.391750
22.083333	1	0.392875
22.100000	1	0.392750
22.116667	1	0.392375
22.133333	1	0.390375
22.150000	1	0.388000
22.166667	1	0.385625
22.183333	1	0.382625
22.200000	1	0.379625
22.216667	1	0.376250
22.233333	1	0.373125
22.250000	1	0.370125
22.266667	1	0.367125
22.283333	1	0.364375
22.300000	1	0.362625
22.316667	1	0.360875
22.333333	1	0.360500
22.350000	1	0.361125
22.366667	1	0.361500
22.383333	1	0.362375
22.400000	1	0.364375
22.416667	1	0.366750
22.433333	1	0.369125
22.450000	1	0.373000
22.466667	1	0.376500
22.483333	1	0.380500
22.500000	1	0.384625
22.516667	1	0.389750
22.533333	1	0.394375
22.550000	1	0.399000
22.566667	1	0.403875
22.583333	1	0.408125
22.600000	1	0.412250
22.616667	1	0.416125
22.633333	1	0.419000
22.650000	1	0.421750
22.666667	1	0.424875
22.683333	1	0.427250
22.700000	1	0.428875
22.716667	1	0.429875
22.733333	1	0.430625
22.750000	1	0.430000
22.766667	1	0.428500
22.783333	1	0.426250
22.800000	1	0.423875
22.816667	1	0.420625
22.833333	1	0.416875
22.850000	1	0.411500
22.866667	1	0.407000
22.883333	1	0.402000
22.900000	1	0.396750
22.916667	1	0.391375
22.933333	1	0.385750
22.950000	1	0.380000
22.966667	1	0.374750
22.983333	1	0.369500
23.000000	1	0.364875
23.016667	1	0.359625
23.033333	1	0.356375
23.050000	1	0.353125
23.066667	1	0.350750
23.083333	1	0.349750
23.100000	1	0.348875
23.116667	1	0.348625
23.133333	1	0.350125
23.150000	1	0.353500
23.166667	1	0.357375
23.183333	1	0.363375
23.200000	1	0.370750
23.216667	1	0.379500
23.233333	1	0.389125
23.250000	1	0.401125
23.266667	1	0.415125
23.283333	1	0.431875
23.300000	1	0.450625
23.316667	1	0.472250
23.333333	1	0.496000
23.350000	1	0.521250
23.366667	1	0.549875
23.383333	1	0.581250
23.400000	1	0.615875
23.416667	1	0.654125
23.433333	1	0.697250
23.450000	1	0.745125
23.466667	1	0.798250
23.483333	1	0.857125
23.500000	1	0.923000
23.516667	1	0.997375
23.533333	1	1.081000
23.550000	1	1.174250
23.566667	1	1.279250
23.583333	1	1.396000
23.600000	1	1.527000
23.616667	1	1.672250
23.633333	1	1.833625
23.650000	1	2.010875
23.666667	1	2.203375
23.683333	1	2.412625
23.700000	1	2.636750
23.716667	1	2.875750
23.733333	1	3.126000
23.750000	1	3.386125
23.766667	1	3.651625
23.783333	1	3.919625
23.800000	1	4.185000
23.816667	1	4.443750
23.833333	1	4.690750
23.850000	1	4.920875
23.866667	1	5.130500
23.883333	1	5.314750
23.900000	1	5.469375
23.916667	1	5.591625
23.933333	1	5.678500
23.950000	1	5.729625
23.966667	1	5.743875
23.983333	1	5.721125
24.000000	1	5.664375
24.016667	1	5.573000
24.033333	1	5.451125
24.050000	1	5.302250
24.066667	1	5.128375
24.083333	1	4.934000
24.100000	1	4.723500
24.116667	1	4.500625
24.133333	1	4.269875
24.150000	1	4.034125
24.166667	1	3.796625
24.183333	1	3.561250
24.200000	1	3.331125
24.216667	1	3.108000
24.233333	1	2.892750
24.250000	1	2.689000
24.266667	1	2.496625
24.283333	1	2.315625
24.300000	1	2.147125
24.316667	1	1.991625
24.333333	1	1.848375
24.350000	1	1.717125
24.366667	1	1.597125
24.383333	1	1.489125
24.400000	1	1.390750
24.416667	1	1.302625
24.433333	1	1.222750
24.450000	1	1.151250
24.466667	1	1.086750
24.483333	1	1.029500
24.500000	1	0.977375
24.516667	1	0.930125
24.533333	1	0.886250
24.550000	1	0.846375
24.566667	1	0.809125
24.583333	1	0.775125
24.600000	1	0.742625
24.616667	1	0.712625
24.633333	1	0.684250
24.650000	1	0.656875
24.666667	1	0.631625
24.683333	1	0.606750
24.700000	1	0.582500
24.716667	1	0.559125
24.733333	1	0.536375
24.750000	1	0.514500
24.766667	1	0.493500
24.783333	1	0.472250
24.800000	1	0.452750
24.816667	1	0.433000
24.833333	1	0.414875
24.850000	1	0.397375
24.866667	1	0.380375
24.883333	1	0.364500
24.900000	1	0.349125
24.916667	1	0.335125
24.933333	1	0.321125
24.950000	1	0.308500
24.966667	1	0.296000
24.983333	1	0.284750
25.000000	1	0.274625
25.016667	1	0.265250
25.033333	1	0.256625
25.050000	1	0.248625
25.066667	1	0.242000
25.083333	1	0.235625
25.100000	1	0.229625
25.116667	1	0.224125
25.133333	1	0.220000
25.150000	1	0.216500
25.166667	1	0.213125
25.183333	1	0.210125
25.200000	1	0.208125
25.216667	1	0.206125
25.233333	1	0.204875
25.250000	1	0.204125
25.266667	1	0.203750
25.283333	1	0.203875
25.300000	1	0.204500
25.316667	1	0.205125
25.333333	1	0.205750
25.350000	1	0.206000
25.366667	1	0.206500
25.383333	1	0.207750
25.400000	1	0.208875
25.416667	1	0.209750
25.433333	1	0.211000
25.450000	1	0.212000
25.466667	1	0.213500
25.483333	1	0.214875
25.500000	1	0.216000
25.516667	1	0.216500
25.533333	1	0.217625
25.550000	1	0.217750
25.566667	1	0.218500
25.583333	1	0.218750
25.600000	1	0.219250
25.616667	1	0.218875
25.633333	1	0.218625
25.650000	1	0.218625
25.666667	1	0.218000
25.683333	1	0.217375
25.700000	1	0.217125
25.716667	1	0.216625
25.733333	1	0.215625
25.750000	1	0.214375
25.766667	1	0.213125
25.783333	1	0.211875
25.800000	1	0.210625
25.816667	1	0.208750
25.833333	1	0.206500
25.850000	1	0.204125
25.866667	1	0.201500
25.883333	1	0.198750
25.900000	1	0.195500
25.916667	1	0.192250
25.933333	1	0.188375
25.950000	1	0.183875
25.966667	1	0.179625
25.983333	1	0.174625
26.000000	1	0.169000
26.016667	1	0.164250
26.033333	1	0.158875
26.050000	1	0.153000
26.066667	1	0.147125
26.083333	1	0.142375
26.100000	1	0.136000
26.116667	1	0.131375
26.133333	1	0.126500
26.150000	1	0.121375
26.166667	1	0.117000
26.183333	1	0.112375
26.200000	1	0.108875
26.216667	1	0.105125
26.233333	1	0.102500
26.250000	1	0.100375
26.266667	1	0.099000
26.283333	1	0.098500
26.300000	1	0.098000
26.316667	1	0.097500
26.333333	1	0.097750
26.350000	1	0.098625
26.366667	1	0.099750
26.383333	1	0.101125
26.400000	1	0.103375
26.416667	1	0.105125
26.433333	1	0.107625
26.450000	1	0.109875
26.466667	1	0.112375
26.483333	1	0.114500
26.500000	1	0.116250
26.516667	1	0.118250
26.533333	1	0.119250
26.550000	1	0.121250
26.566667	1	0.122375
26.583333	1	0.123625
26.600000	1	0.124750
26.616667	1	0.125375
26.633333	1	0.125375
26.650000	1	0.125875
26.666667	1	0.125500
26.683333	1	0.125750
26.700000	1	0.125500
26.716667	1	0.124875
26.733333	1	0.124000
26.750000	1	0.122875
26.766667	1	0.122750
26.783333	1	0.122250
26.800000	1	0.122125
26.816667	1	0.122375
26.833333	1	0.123125
26.850000	1	0.123125
26.866667	1	0.123500
26.883333	1	0.123750
26.900000	1	0.124625
26.916667	1	0.126250
26.933333	1	0.127875
26.950000	1	0.130125
26.966667	1	0.132750
26.983333	1	0.135000
27.000000	1	0.138000
27.016667	1	0.141625
27.033333	1	0.145625
27.050000	1	0.150500
27.066667	1	0.156000
27.083333	1	0.161250
27.100000	1	0.167125
27.116667	1	0.173125
27.133333	1	0.180250
27.150000	1	0.188500
27.166667	1	0.195875
27.183333	1	0.204875
27.200000	1	0.214750
27.216667	1	0.225000
27.233333	1	0.235125
27.250000	1	0.246750
27.266667	1	0.258750
27.283333	1	0.271500
27.300000	1	0.284625
27.316667	1	0.298750
27.333333	1	0.313875
27.350000	1	0.330625
27.366667	1	0.348125
27.383333	1	0.366500
27.400000	1	0.386250
27.416667	1	0.407625
27.433333	1	0.431000
27.450000	1	0.455750
27.466667	1	0.483000
27.483333	1	0.511625
27.500000	1	0.543625
27.516667	1	0.578875
27.533333	1	0.617750
27.550000	1	0.659875
27.566667	1	0.707000
27.583333	1	0.759125
27.600000	1	0.816250
27.616667	1	0.879000
27.633333	1	0.947875
27.650000	1	1.023750
27.666667	1	1.105250
27.683333	1	1.193625
27.700000	1	1.288250
27.716667	1	1.390000
27.733333	1	1.497750
27.750000	1	1.610875
27.766667	1	1.728750
27.783333	1	1.850875
27.800000	1	1.976000
27.816667	1	2.101500
27.833333	1	2.229000
27.850000	1	2.355875
27.866667	1	2.479250
27.883333	1	2.598500
27.900000	1	2.710750
27.916667	1	2.816000
27.933333	1	2.911000
27.950000	1	2.995250
27.966667	1	3.066500
27.983333	1	3.123875
28.000000	1	3.166250
28.016667	1	3.192375
28.033333	1	3.202250
28.050000	1	3.195500
28.066667	1	3.172250
28.083333	1	3.132125
28.100000	1	3.076375
28.116667	1	3.006625
28.133333	1	2.923000
28.150000	1	2.827875
28.166667	1	2.721875
28.183333	1	2.606625
28.200000	1	2.484125
28.216667	1	2.356375
28.233333	1	2.223625
28.250000	1	2.089125
28.266667	1	1.952375
28.283333	1	1.817000
28.300000	1	1.683125
28.316667	1	1.552250
28.333333	1	1.425375
28.350000	1	1.302875
28.366667	1	1.186625
28.383333	1	1.075000
28.400000	1	0.968875
28.416667	1	0.868875
28.433333	1	0.775000
28.450000	1	0.687000
28.466667	1	0.603875
28.483333	1	0.526000
28.500000	1	0.453250
28.516667	1	0.384500
28.533333	1	0.320000
28.550000	1	0.258750
28.566667	1	0.201625
28.583333	1	0.147125
28.600000	1	0.096125
28.616667	1	0.047000
28.633333	1	-0.000375
28.650000	1	-0.046375
28.666667	1	-0.091000
28.683333	1	-0.133500
28.700000	1	-0.175000
28.716667	1	-0.214875
28.733333	1	-0.252750
28.750000	1	-0.289750
28.766667	1	-0.324625
28.783333	1	-0.357875
28.800000	1	-0.390375
28.816667	1	-0.421000
28.833333	1	-0.448750
28.850000	1	-0.474750
28.866667	1	-0.498250
28.883333	1	-0.519500
28.900000	1	-0.538250
28.916667	1	-0.553375
28.933333	1	-0.566125
28.950000	1	-0.575500
28.966667	1	-0.581875
28.983333	1	-0.585875
29.000000	1	-0.585250
29.016667	1	-0.583125
29.033333	1	-0.577250
29.050000	1	-0.568625
29.066667	1	-0.556875
29.083333	1	-0.543625
29.100000	1	-0.527500
29.116667	1	-0.508500
29.133333	1	-0.488000
29.150000	1	-0.465250
29.166667	1	-0.441000
29.183333	1	-0.415250
29.200000	1	-0.387750
29.216667	1	-0.359375
29.233333	1	-0.330375
29.250000	1	-0.300875
29.266667	1	-0.271375
29.283333	1	-0.241125
29.300000	1	-0.211500
29.316667	1	-0.181125
29.333333	1	-0.151125
29.350000	1	-0.121000
29.366667	1	-0.093125
29.383333	1	-0.065125
29.400000	1	-0.037875
29.416667	1	-0.011125
29.433333	1	0.013750
29.450000	1	0.037375
29.466667	1	0.059375
29.483333	1	0.081375
29.500000	1	0.101750
29.516667	1	0.120375
29.533333	1	0.138500
29.550000	1	0.155750
29.566667	1	0.171625
29.583333	1	0.185750
29.600000	1	0.198750
29.616667	1	0.209875
29.633333	1	0.220000
29.650000	1	0.228875
29.666667	1	0.236750
29.683333	1	0.243500
29.700000	1	0.249250
29.716667	1	0.253250
29.733333	1	0.255875
29.750000	1	0.258250
29.766667	1	0.259500
29.783333	1	0.260125
29.800000	1	0.259750
29.816667	1	0.258000
29.833333	1	0.256875
29.850000	1	0.255000
29.866667	1	0.251875
29.883333	1	0.249125
29.900000	1	0.245875
29.916667	1	0.243000
29.933333	1	0.239625
29.950000	1	0.235250
29.966667	1	0.230625
29.983333	1	0.226750
30.000000	1	0.223000
30.016667	1	0.219000
30.033333	1	0.215375
30.050000	1	0.212000
30.066667	1	0.208375
30.083333	1	0.205625
30.100000	1	0.202500
30.116667	1	0.199500
30.133333	1	0.197125
30.150000	1	0.195250
30.166667	1	0.193500
30.183333	1	0.191875
30.200000	1	0.190625
30.216667	1	0.190125
30.233333	1	0.188250
30.250000	1	0.187125
30.266667	1	0.186500
30.283333	1	0.186625
30.300000	1	0.187625
30.316667	1	0.188375
30.333333	1	0.189375
30.350000	1	0.190625
30.366667	1	0.193375
30.383333	1	0.195250
30.400000	1	0.198000
30.416667	1	0.201125
30.433333	1	0.204875
30.450000	1	0.208750
30.466667	1	0.214125
30.483333	1	0.219875
30.500000	1	0.225625
30.516667	1	0.232125
30.533333	1	0.239625
30.550000	1	0.247250
30.566667	1	0.256000
30.583333	1	0.265375
30.600000	1	0.274625
30.616667	1	0.284250
30.633333	1	0.293875
30.650000	1	0.304000
30.666667	1	0.314375
30.683333	1	0.325625
30.700000	1	0.335625
30.716667	1	0.346000
30.733333	1	0.355375
30.750000	1	0.364750
30.766667	1	0.373500
30.783333	1	0.380875
30.800000	1	0.388125
30.816667	1	0.394625
30.833333	1	0.399250
30.850000	1	0.403375
30.866667	1	0.405750
30.883333	1	0.407500
30.900000	1	0.407750
30.916667	1	0.406875
30.933333	1	0.404375
30.950000	1	0.401500
30.966667	1	0.397375
30.983333	1	0.391375
31.000000	1	0.385000
31.016667	1	0.377000
31.033333	1	0.368625
31.050000	1	0.359500
31.066667	1	0.349500
31.083333	1	0.339625
31.100000	1	0.329375
31.116667	1	0.318750
31.133333	1	0.307875
31.150000	1	0.297500
31.166667	1	0.286750
31.183333	1	0.276625
31.200000	1	0.267000
31.216667	1	0.257250
31.233333	1	0.247500
31.250000	1	0.237750
31.266667	1	0.229500
31.283333	1	0.221625
31.300000	1	0.214000
31.316667	1	0.207125
31.333333	1	0.200750
31.350000	1	0.195375
31.366667	1	0.190375
31.383333	1	0.185125
31.400000	1	0.180625
31.416667	1	0.176625
31.433333	1	0.173125
31.450000	1	0.170250
31.466667	1	0.167250
31.483333	1	0.164750
31.500000	1	0.163125
31.516667	1	0.161250
31.533333	1	0.160500
31.550000	1	0.160125
31.566667	1	0.159875
31.583333	1	0.159750
31.600000	1	0.160375
31.616667	1	0.161250
31.633333	1	0.161875
31.650000	1	0.163750
31.666667	1	0.164750
31.683333	1	0.167000
31.700000	1	0.169625
31.716667	1	0.172250
31.733333	1	0.175000
31.750000	1	0.177750
31.766667	1	0.181000
31.783333	1	0.184875
31.800000	1	0.188875
31.816667	1	0.192375
31.833333	1	0.196500
31.850000	1	0.200375
31.866667	1	0.204875
31.883333	1	0.208500
31.900000	1	0.212250
31.916667	1	0.216625
31.933333	1	0.220250
31.950000	1	0.224625
31.966667	1	0.228375
31.983333	1	0.231000
32.000000	1	0.233750
32.016667	1	0.236125
32.033333	1	0.238625
32.050000	1	0.239750
32.066667	1	0.239750
32.083333	1	0.239500
32.100000	1	0.239125
32.116667	1	0.237875
32.133333	1	0.236125
32.150000	1	0.233125
32.166667	1	0.229375
32.183333	1	0.225875
32.200000	1	0.221000
32.216667	1	0.216500
32.233333	1	0.211000
32.250000	1	0.204500
32.266667	1	0.197625
32.283333	1	0.190750
32.300000	1	0.184000
32.316667	1	0.177500
32.333333	1	0.170750
32.350000	1	0.162500
32.366667	1	0.155000
32.383333	1	0.147250
32.400000	1	0.139125
32.416667	1	0.131125
32.433333	1	0.123500
32.450000	1	0.116000
32.466667	1	0.108000
32.483333	1	0.100750
32.500000	1	0.094250
32.516667	1	0.087375
32.533333	1	0.081000
32.550000	1	0.075000
32.566667	1	0.068875
32.583333	1	0.063625
32.600000	1	0.058500
32.616667	1	0.052375
32.633333	1	0.047375
32.650000	1	0.043375
32.666667	1	0.038750
32.683333	1	0.034125
32.700000	1	0.028750
32.716667	1	0.024750
32.733333	1	0.020875
32.750000	1	0.016750
32.766667	1	0.012625
32.783333	1	0.008125
32.800000	1	0.004250
32.816667	1	0.001000
32.833333	1	-0.002500
32.850000	1	-0.005750
32.866667	1	-0.009625
32.883333	1	-0.012500
32.900000	1	-0.016000
32.916667	1	-0.019250
32.933333	1	-0.022625
32.950000	1	-0.025625
32.966667	1	-0.028125
32.983333	1	-0.030500
33.000000	1	-0.033250
33.016667	1	-0.036375
33.033333	1	-0.039000
33.050000	1	-0.041125
33.066667	1	-0.043250
33.083333	1	-0.045250
33.100000	1	-0.047000
33.116667	1	-0.049625
33.133333	1	-0.051250
33.150000	1	-0.053125
33.166667	1	-0.053875
33.183333	1	-0.055125
33.200000	1	-0.055875
33.216667	1	-0.056375
33.233333	1	-0.056875
33.250000	1	-0.058000
33.266667	1	-0.059375
33.283333	1	-0.059625
33.300000	1	-0.060375
33.316667	1	-0.060875
33.333333	1	-0.060875
33.350000	1	-0.061000
33.366667	1	-0.060875
33.383333	1	-0.060875
33.400000	1	-0.061625
33.416667	1	-0.061875
33.433333	1	-0.062875
33.450000	1	-0.063250
33.466667	1	-0.063500
33.483333	1	-0.063250
33.500000	1	-0.063375
33.516667	1	-0.063625
33.533333	1	-0.064500
33.550000	1	-0.064750
33.566667	1	-0.064875
33.583333	1	-0.065125
33.600000	1	-0.065000
33.616667	1	-0.065000
33.633333	1	-0.065375
33.650000	1	-0.065750
33.666667	1	-0.064750
33.683333	1	-0.064000
33.700000	1	-0.063500
33.716667	1	-0.062750
33.733333	1	-0.062000
33.750000	1	-0.060875
33.766667	1	-0.060500
33.783333	1	-0.059000
33.800000	1	-0.058000
33.816667	1	-0.057875
33.833333	1	-0.056750
33.850000	1	-0.055875
33.866667	1	-0.054250
33.883333	1	-0.053125
33.900000	1	-0.051125
33.916667	1	-0.048875
33.933333	1	-0.046750
33.950000	1	-0.045000
33.966667	1	-0.043500
33.983333	1	-0.041125
34.000000	1	-0.038875
34.016667	1	-0.036875
34.033333	1	-0.034875
34.050000	1	-0.032250
34.066667	1	-0.030375
34.083333	1	-0.027750
34.100000	1	-0.025500
34.116667	1	-0.022875
34.133333	1	-0.020375
34.150000	1	-0.017125
34.166667	1	-0.014375
34.183333	1	-0.011375
34.200000	1	-0.008375
34.216667	1	-0.005875
34.233333	1	-0.003375
34.250000	1	-0.000250
34.266667	1	0.001875
34.283333	1	0.004375
34.300000	1	0.006750
34.316667	1	0.009375
34.333333	1	0.011750
34.350000	1	0.013500
34.366667	1	0.015500
34.383333	1	0.017250
34.400000	1	0.018500
34.416667	1	0.019875
34.433333	1	0.021375
34.450000	1	0.022750
34.466667	1	0.023750
34.483333	1	0.024250
34.500000	1	0.025125
34.516667	1	0.025875
34.533333	1	0.025875
34.550000	1	0.026250
34.566667	1	0.026875
34.583333	1	0.027125
34.600000	1	0.027375
34.616667	1	0.027375
34.633333	1	0.027375
34.650000	1	0.026875
34.666667	1	0.027250
34.683333	1	0.027500
34.700000	1	0.027375
34.716667	1	0.026750
34.733333	1	0.026750
34.750000	1	0.027000
34.766667	1	0.027125
34.783333	1	0.027375
34.800000	1	0.026500
34.816667	1	0.025750
34.833333	1	0.025625
34.850000	1	0.026250
34.866667	1	0.026750
34.883333	1	0.026750
34.900000	1	0.027125
34.916667	1	0.028000
34.933333	1	0.028625
34.950000	1	0.029125
34.966667	1	0.029375
34.983333	1	0.029500
35.000000	1	0.030375
35.016667	1	0.031250
35.033333	1	0.031875
35.050000	1	0.032875
35.066667	1	0.033875
35.083333	1	0.035000
35.100000	1	0.036625
35.116667	1	0.037750
35.133333	1	0.039125
35.150000	1	0.040250
35.166667	1	0.041750
35.183333	1	0.042500
35.200000	1	0.043375
35.216667	1	0.044500
35.233333	1	0.045750
35.250000	1	0.047125
35.266667	1	0.048375
35.283333	1	0.049750
35.300000	1	0.051000
35.316667	1	0.051375
35.333333	1	0.052125
35.350000	1	0.053125
35.366667	1	0.053625
35.383333	1	0.053875
35.400000	1	0.054875
35.416667	1	0.054750
35.433333	1	0.054875
35.450000	1	0.054750
35.466667	1	0.055000
35.483333	1	0.054750
35.500000	1	0.054750
35.516667	1	0.054250
35.533333	1	0.053500
35.550000	1	0.053125
35.566667	1	0.052750
35.583333	1	0.052250
35.600000	1	0.051625
35.616667	1	0.051250
35.633333	1	0.050500
35.650000	1	0.049625
35.666667	1	0.048125
35.683333	1	0.047250
35.700000	1	0.046625
35.716667	1	0.046500
35.733333	1	0.046375
35.750000	1	0.046375
35.766667	1	0.044875
35.783333	1	0.044625
35.800000	1	0.044125
35.816667	1	0.043125
35.833333	1	0.043000
35.850000	1	0.042750
35.866667	1	0.042500
35.883333	1	0.042375
35.900000	1	0.042125
35.916667	1	0.043000
35.933333	1	0.043250
35.950000	1	0.043500
35.966667	1	0.044250
35.983333	1	0.044875
36.000000	1	0.044875
36.016667	1	0.044750
36.033333	1	0.045000
36.050000	1	0.045500
36.066667	1	0.046750
36.083333	1	0.047250
36.100000	1	0.047750
36.116667	1	0.047875
36.133333	1	0.048500
36.150000	1	0.048875
36.166667	1	0.049000
36.183333	1	0.049875
36.200000	1	0.050125
36.216667	1	0.050375
36.233333	1	0.050875
36.250000	1	0.050625
36.266667	1	0.049750
36.283333	1	0.049875
36.300000	1	0.050125
36.316667	1	0.049750
36.333333	1	0.049750
36.350000	1	0.049375
36.366667	1	0.048875
36.383333	1	0.048125
36.400000	1	0.048125
36.416667	1	0.047625
36.433333	1	0.047125
36.450000	1	0.046625
36.466667	1	0.045500
36.483333	1	0.044500
36.500000	1	0.043625
36.516667	1	0.043125
36.533333	1	0.042875
36.550000	1	0.042375
36.566667	1	0.040875
36.583333	1	0.040125
36.600000	1	0.038625
36.616667	1	0.037750
36.633333	1	0.036500
36.650000	1	0.034875
36.666667	1	0.033625
36.683333	1	0.032625
36.700000	1	0.031625
36.716667	1	0.029500
36.733333	1	0.028000
36.750000	1	0.026250
36.766667	1	0.024500
36.783333	1	0.022500
36.800000	1	0.020500
36.816667	1	0.019250
36.833333	1	0.017750
36.850000	1	0.016000
36.866667	1	0.013500
36.883333	1	0.011000
36.900000	1	0.009375
36.916667	1	0.007125
36.933333	1	0.004875
36.950000	1	0.002750
36.966667	1	0.001375
36.983333	1	-0.000625
37.000000	1	-0.002250
37.016667	1	-0.004750
37.033333	1	-0.007000
37.050000	1	-0.008375
37.066667	1	-0.010125
37.083333	1	-0.011625
37.100000	1	-0.013000
37.116667	1	-0.014375
37.133333	1	-0.016125
37.150000	1	-0.017250
37.166667	1	-0.018625
37.183333	1	-0.019625
37.200000	1	-0.020625
37.216667	1	-0.021000
37.233333	1	-0.022250
37.250000	1	-0.023000
37.266667	1	-0.023375
37.283333	1	-0.024125
37.300000	1	-0.024125
37.316667	1	-0.023375
37.333333	1	-0.023625
37.350000	1	-0.023250
37.366667	1	-0.023750
37.383333	1	-0.023750
37.400000	1	-0.023125
37.416667	1	-0.023125
37.433333	1	-0.022250
37.450000	1	-0.021375
37.466667	1	-0.020875
37.483333	1	-0.019750
37.500000	1	-0.018750
37.516667	1	-0.017500
37.533333	1	-0.016500
37.550000	1	-0.015625
37.566667	1	-0.013875
37.583333	1	-0.012625
37.600000	1	-0.011125
37.616667	1	-0.009625
37.633333	1	-0.007500
37.650000	1	-0.005875
37.666667	1	-0.003875
37.683333	1	-0.002250
37.700000	1	-0.000625
37.716667	1	0.001250
37.733333	1	0.003375
37.750000	1	0.005625
37.766667	1	0.007750
37.783333	1	0.009250
37.800000	1	0.010375
37.816667	1	0.012250
37.833333	1	0.015000
37.850000	1	0.017625
37.866667	1	0.019625
37.883333	1	0.022250
37.900000	1	0.024000
37.916667	1	0.025875
37.933333	1	0.028500
37.950000	1	0.030375
37.966667	1	0.032000
37.983333	1	0.033875
38.000000	1	0.036250
38.016667	1	0.038625
38.033333	1	0.040375
38.050000	1	0.042625
38.066667	1	0.044250
38.083333	1	0.046000
38.100000	1	0.047875
38.116667	1	0.049875
38.133333	1	0.052125
38.150000	1	0.053875
38.166667	1	0.055625
38.183333	1	0.057625
38.200000	1	0.060125
38.216667	1	0.061875
38.233333	1	0.063500
38.250000	1	0.064750
38.266667	1	0.066500
38.283333	1	0.067375
38.300000	1	0.068375
38.316667	1	0.069500
38.333333	1	0.070875
38.350000	1	0.071875
38.366667	1	0.072875
38.383333	1	0.073625
38.400000	1	0.074500
38.416667	1	0.075625
38.433333	1	0.076500
38.450000	1	0.077375
38.466667	1	0.078000
38.483333	1	0.078375
38.500000	1	0.078750
38.516667	1	0.079750
38.533333	1	0.079875
38.550000	1	0.079875
38.566667	1	0.078500
38.583333	1	0.078375
38.600000	1	0.077750
38.616667	1	0.077125
38.633333	1	0.076500
38.650000	1	0.076500
38.666667	1	0.075750
38.683333	1	0.074125
38.700000	1	0.074000
38.716667	1	0.073250
38.733333	1	0.072125
38.750000	1	0.071625
38.766667	1	0.071125
38.783333	1	0.069875
38.800000	1	0.068875
38.816667	1	0.068125
38.833333	1	0.067125
38.850000	1	0.066500
38.866667	1	0.066375
38.883333	1	0.065750
38.900000	1	0.065750
38.916667	1	0.065375
38.933333	1	0.064500
38.950000	1	0.064500
38.966667	1	0.064625
38.983333	1	0.064125
39.000000	1	0.063875
39.016667	1	0.063875
39.033333	1	0.063375
39.050000	1	0.063875
39.066667	1	0.064250
39.083333	1	0.064500
39.100000	1	0.064125
39.116667	1	0.064500
39.133333	1	0.064750
39.150000	1	0.064500
39.166667	1	0.064500
39.183333	1	0.064500
39.200000	1	0.064500
39.216667	1	0.064500
39.233333	1	0.064500
39.250000	1	0.064250
39.266667	1	0.064250
39.283333	1	0.063750
39.300000	1	0.062875
39.316667	1	0.062500
39.333333	1	0.061875
39.350000	1	0.061625
39.366667	1	0.061250
39.383333	1	0.061000
39.400000	1	0.060875
39.416667	1	0.060250
39.433333	1	0.059375
39.450000	1	0.058625
39.466667	1	0.058125
39.483333	1	0.057375
39.500000	1	0.057000
39.516667	1	0.056750
39.533333	1	0.056625
39.550000	1	0.056375
39.566667	1	0.056125
39.583333	1	0.055750
39.600000	1	0.055625
39.616667	1	0.055250
39.633333	1	0.054750
39.650000	1	0.055125
39.666667	1	0.054875
39.683333	1	0.055000
39.700000	1	0.054750
39.716667	1	0.054875
39.733333	1	0.054625
39.750000	1	0.054625
39.766667	1	0.053875
39.783333	1	0.053375
39.800000	1	0.053750
39.816667	1	0.053625
39.833333	1	0.053625
39.850000	1	0.053375
39.866667	1	0.052875
39.883333	1	0.052500
39.900000	1	0.052625
39.916667	1	0.052250
39.933333	1	0.051750
39.950000	1	0.050625
39.966667	1	0.049875
39.983333	1	0.049000
40.000000	1	0.048625
