File Path	chrom://marshall/Chromeleon7/HPLC_Ultimate_3000/Users/markusar/20230531_CMO_stabTest _FP08_FP09.seq/512.smp/RI_1.channel/RI_1.chm
Channel	RI_1

Injection Information:
Data Vault	Chromeleon7
Injection	FP09__7_s4
Injection Number	76
Position	BE3
Comment	
Processing Method	
Instrument Method	run_25B_method
Type	Unknown
Status	Finished
Injection Date	03.06.2023
Injection Time	17:53:23
Injection Volume (µl)	20.000
Dilution Factor	1.0000
Weight	1.0000

Chromatogram Data Information:
Time Min. (min)	0.000000
Time Max. (min)	40.000000
Data Points	2401
Detector	RI
Generating Data System	Chromeleon 7.2.5.9507
Exporting Data System	Chromeleon 7.2.5.0
Operator	Instrument Controller
Signal Quantity	Refractive 
Signal Unit	µRIU
Signal Min.	-0.617625
Signal Max.	44.574000
Channel	RI_1
Driver Name	RID520Driver.dll
Channel Type	Evaluation
Min. Step (s)	1
Max. Step (s)	1
Average Step (s)	1

Signal Parameter Information:
Signal Info	

Chromatogram Data:
Time (min)	Step (s)	Value (µRIU)
0.000000	n.a.	-0.057375
0.016667	1	-0.057750
0.033333	1	-0.058500
0.050000	1	-0.059000
0.066667	1	-0.059875
0.083333	1	-0.060250
0.100000	1	-0.060500
0.116667	1	-0.061000
0.133333	1	-0.061625
0.150000	1	-0.061750
0.166667	1	-0.062125
0.183333	1	-0.062875
0.200000	1	-0.062875
0.216667	1	-0.062750
0.233333	1	-0.062500
0.250000	1	-0.062125
0.266667	1	-0.061625
0.283333	1	-0.062750
0.300000	1	-0.064625
0.316667	1	-0.067500
0.333333	1	-0.069000
0.350000	1	-0.067875
0.366667	1	-0.064000
0.383333	1	-0.059625
0.400000	1	-0.055500
0.416667	1	-0.051750
0.433333	1	-0.048250
0.450000	1	-0.045375
0.466667	1	-0.043750
0.483333	1	-0.043625
0.500000	1	-0.044625
0.516667	1	-0.045625
0.533333	1	-0.047125
0.550000	1	-0.048250
0.566667	1	-0.048125
0.583333	1	-0.048625
0.600000	1	-0.049125
0.616667	1	-0.049000
0.633333	1	-0.048875
0.650000	1	-0.048375
0.666667	1	-0.047875
0.683333	1	-0.048125
0.700000	1	-0.048000
0.716667	1	-0.047500
0.733333	1	-0.047750
0.750000	1	-0.047375
0.766667	1	-0.047625
0.783333	1	-0.046875
0.800000	1	-0.046625
0.816667	1	-0.046625
0.833333	1	-0.046625
0.850000	1	-0.047125
0.866667	1	-0.047625
0.883333	1	-0.047625
0.900000	1	-0.048000
0.916667	1	-0.048375
0.933333	1	-0.048625
0.950000	1	-0.048750
0.966667	1	-0.048750
0.983333	1	-0.049625
1.000000	1	-0.050000
1.016667	1	-0.050875
1.033333	1	-0.051125
1.050000	1	-0.052000
1.066667	1	-0.052500
1.083333	1	-0.053250
1.100000	1	-0.052875
1.116667	1	-0.054000
1.133333	1	-0.055000
1.150000	1	-0.055750
1.166667	1	-0.056250
1.183333	1	-0.057625
1.200000	1	-0.057750
1.216667	1	-0.058750
1.233333	1	-0.060500
1.250000	1	-0.061125
1.266667	1	-0.061625
1.283333	1	-0.063125
1.300000	1	-0.064625
1.316667	1	-0.065500
1.333333	1	-0.066500
1.350000	1	-0.066500
1.366667	1	-0.067500
1.383333	1	-0.068375
1.400000	1	-0.069500
1.416667	1	-0.070125
1.433333	1	-0.071000
1.450000	1	-0.071125
1.466667	1	-0.071250
1.483333	1	-0.072000
1.500000	1	-0.072375
1.516667	1	-0.073375
1.533333	1	-0.074250
1.550000	1	-0.074875
1.566667	1	-0.075125
1.583333	1	-0.075250
1.600000	1	-0.075500
1.616667	1	-0.076375
1.633333	1	-0.077125
1.650000	1	-0.076750
1.666667	1	-0.077000
1.683333	1	-0.077625
1.700000	1	-0.078000
1.716667	1	-0.078375
1.733333	1	-0.078500
1.750000	1	-0.078875
1.766667	1	-0.078250
1.783333	1	-0.078500
1.800000	1	-0.078375
1.816667	1	-0.078375
1.833333	1	-0.078500
1.850000	1	-0.078125
1.866667	1	-0.078250
1.883333	1	-0.078750
1.900000	1	-0.079250
1.916667	1	-0.079625
1.933333	1	-0.079750
1.950000	1	-0.079625
1.966667	1	-0.080125
1.983333	1	-0.080250
2.000000	1	-0.080750
2.016667	1	-0.080750
2.033333	1	-0.080500
2.050000	1	-0.080625
2.066667	1	-0.081125
2.083333	1	-0.081125
2.100000	1	-0.081375
2.116667	1	-0.081250
2.133333	1	-0.081000
2.150000	1	-0.081125
2.166667	1	-0.081875
2.183333	1	-0.082125
2.200000	1	-0.082500
2.216667	1	-0.082625
2.233333	1	-0.083375
2.250000	1	-0.083125
2.266667	1	-0.083625
2.283333	1	-0.083500
2.300000	1	-0.084125
2.316667	1	-0.085250
2.333333	1	-0.085125
2.350000	1	-0.085875
2.366667	1	-0.086250
2.383333	1	-0.086250
2.400000	1	-0.086375
2.416667	1	-0.087125
2.433333	1	-0.087250
2.450000	1	-0.087500
2.466667	1	-0.087625
2.483333	1	-0.087625
2.500000	1	-0.087750
2.516667	1	-0.087875
2.533333	1	-0.087625
2.550000	1	-0.087250
2.566667	1	-0.087125
2.583333	1	-0.086875
2.600000	1	-0.086875
2.616667	1	-0.086625
2.633333	1	-0.085500
2.650000	1	-0.085125
2.666667	1	-0.085125
2.683333	1	-0.085125
2.700000	1	-0.084625
2.716667	1	-0.084125
2.733333	1	-0.084000
2.750000	1	-0.083625
2.766667	1	-0.083000
2.783333	1	-0.082875
2.800000	1	-0.082000
2.816667	1	-0.081375
2.833333	1	-0.081125
2.850000	1	-0.080750
2.866667	1	-0.080375
2.883333	1	-0.079875
2.900000	1	-0.079875
2.916667	1	-0.079875
2.933333	1	-0.079750
2.950000	1	-0.079875
2.966667	1	-0.079375
2.983333	1	-0.078625
3.000000	1	-0.078250
3.016667	1	-0.078625
3.033333	1	-0.078875
3.050000	1	-0.079125
3.066667	1	-0.078750
3.083333	1	-0.079375
3.100000	1	-0.080000
3.116667	1	-0.080125
3.133333	1	-0.080500
3.150000	1	-0.081375
3.166667	1	-0.081625
3.183333	1	-0.081750
3.200000	1	-0.081875
3.216667	1	-0.081375
3.233333	1	-0.082000
3.250000	1	-0.082625
3.266667	1	-0.082875
3.283333	1	-0.083125
3.300000	1	-0.083375
3.316667	1	-0.083375
3.333333	1	-0.083375
3.350000	1	-0.083625
3.366667	1	-0.083875
3.383333	1	-0.084125
3.400000	1	-0.084250
3.416667	1	-0.084625
3.433333	1	-0.084875
3.450000	1	-0.085125
3.466667	1	-0.086250
3.483333	1	-0.085750
3.500000	1	-0.086125
3.516667	1	-0.086125
3.533333	1	-0.086250
3.550000	1	-0.086500
3.566667	1	-0.087000
3.583333	1	-0.087625
3.600000	1	-0.087625
3.616667	1	-0.087875
3.633333	1	-0.088250
3.650000	1	-0.088750
3.666667	1	-0.088750
3.683333	1	-0.089375
3.700000	1	-0.089375
3.716667	1	-0.089875
3.733333	1	-0.090750
3.750000	1	-0.090625
3.766667	1	-0.090750
3.783333	1	-0.091750
3.800000	1	-0.092000
3.816667	1	-0.092500
3.833333	1	-0.092625
3.850000	1	-0.092625
3.866667	1	-0.093125
3.883333	1	-0.093875
3.900000	1	-0.093875
3.916667	1	-0.093625
3.933333	1	-0.094250
3.950000	1	-0.094125
3.966667	1	-0.093625
3.983333	1	-0.094250
4.000000	1	-0.094750
4.016667	1	-0.094875
4.033333	1	-0.095000
4.050000	1	-0.094500
4.066667	1	-0.094750
4.083333	1	-0.094750
4.100000	1	-0.094125
4.116667	1	-0.093625
4.133333	1	-0.094375
4.150000	1	-0.094000
4.166667	1	-0.093125
4.183333	1	-0.092875
4.200000	1	-0.093125
4.216667	1	-0.092500
4.233333	1	-0.092250
4.250000	1	-0.092375
4.266667	1	-0.092125
4.283333	1	-0.091750
4.300000	1	-0.091000
4.316667	1	-0.090750
4.333333	1	-0.090125
4.350000	1	-0.089125
4.366667	1	-0.088250
4.383333	1	-0.087375
4.400000	1	-0.086750
4.416667	1	-0.085250
4.433333	1	-0.084875
4.450000	1	-0.084250
4.466667	1	-0.083500
4.483333	1	-0.082750
4.500000	1	-0.081375
4.516667	1	-0.080625
4.533333	1	-0.079750
4.550000	1	-0.078625
4.566667	1	-0.077000
4.583333	1	-0.076000
4.600000	1	-0.074250
4.616667	1	-0.073000
4.633333	1	-0.071375
4.650000	1	-0.070125
4.666667	1	-0.068000
4.683333	1	-0.066625
4.700000	1	-0.064375
4.716667	1	-0.062750
4.733333	1	-0.060500
4.750000	1	-0.058875
4.766667	1	-0.056625
4.783333	1	-0.054000
4.800000	1	-0.051375
4.816667	1	-0.048750
4.833333	1	-0.046625
4.850000	1	-0.044375
4.866667	1	-0.042250
4.883333	1	-0.039500
4.900000	1	-0.037000
4.916667	1	-0.033875
4.933333	1	-0.031250
4.950000	1	-0.028250
4.966667	1	-0.025625
4.983333	1	-0.023000
5.000000	1	-0.020250
5.016667	1	-0.017500
5.033333	1	-0.015500
5.050000	1	-0.013625
5.066667	1	-0.011875
5.083333	1	-0.009625
5.100000	1	-0.007625
5.116667	1	-0.005875
5.133333	1	-0.004125
5.150000	1	-0.002500
5.166667	1	-0.000875
5.183333	1	-0.000125
5.200000	1	0.001000
5.216667	1	0.002250
5.233333	1	0.003625
5.250000	1	0.004500
5.266667	1	0.004875
5.283333	1	0.005125
5.300000	1	0.005375
5.316667	1	0.005500
5.333333	1	0.005875
5.350000	1	0.005500
5.366667	1	0.006250
5.383333	1	0.006125
5.400000	1	0.005500
5.416667	1	0.004875
5.433333	1	0.004375
5.450000	1	0.003625
5.466667	1	0.002500
5.483333	1	0.001625
5.500000	1	0.000500
5.516667	1	-0.000125
5.533333	1	-0.001125
5.550000	1	-0.002375
5.566667	1	-0.003625
5.583333	1	-0.004625
5.600000	1	-0.005750
5.616667	1	-0.006125
5.633333	1	-0.007250
5.650000	1	-0.007625
5.666667	1	-0.008500
5.683333	1	-0.009625
5.700000	1	-0.011000
5.716667	1	-0.011625
5.733333	1	-0.012125
5.750000	1	-0.013125
5.766667	1	-0.013875
5.783333	1	-0.014875
5.800000	1	-0.014875
5.816667	1	-0.015625
5.833333	1	-0.015750
5.850000	1	-0.016125
5.866667	1	-0.017000
5.883333	1	-0.017875
5.900000	1	-0.017500
5.916667	1	-0.017750
5.933333	1	-0.018250
5.950000	1	-0.018500
5.966667	1	-0.018500
5.983333	1	-0.018250
6.000000	1	-0.018000
6.016667	1	-0.017500
6.033333	1	-0.017000
6.050000	1	-0.016500
6.066667	1	-0.015750
6.083333	1	-0.015375
6.100000	1	-0.014750
6.116667	1	-0.014750
6.133333	1	-0.014000
6.150000	1	-0.013500
6.166667	1	-0.012000
6.183333	1	-0.011500
6.200000	1	-0.010375
6.216667	1	-0.009625
6.233333	1	-0.008250
6.250000	1	-0.006500
6.266667	1	-0.005125
6.283333	1	-0.003500
6.300000	1	-0.002375
6.316667	1	-0.000875
6.333333	1	0.001250
6.350000	1	0.002500
6.366667	1	0.003625
6.383333	1	0.005500
6.400000	1	0.007000
6.416667	1	0.008125
6.433333	1	0.009625
6.450000	1	0.010625
6.466667	1	0.012125
6.483333	1	0.013625
6.500000	1	0.014750
6.516667	1	0.016500
6.533333	1	0.017625
6.550000	1	0.018625
6.566667	1	0.018875
6.583333	1	0.019875
6.600000	1	0.020750
6.616667	1	0.020875
6.633333	1	0.021375
6.650000	1	0.021375
6.666667	1	0.020875
6.683333	1	0.020875
6.700000	1	0.020250
6.716667	1	0.019000
6.733333	1	0.018125
6.750000	1	0.016875
6.766667	1	0.015750
6.783333	1	0.014500
6.800000	1	0.013000
6.816667	1	0.010625
6.833333	1	0.008875
6.850000	1	0.006625
6.866667	1	0.004625
6.883333	1	0.003000
6.900000	1	0.000125
6.916667	1	-0.002875
6.933333	1	-0.005375
6.950000	1	-0.007875
6.966667	1	-0.010500
6.983333	1	-0.013375
7.000000	1	-0.016500
7.016667	1	-0.019250
7.033333	1	-0.021625
7.050000	1	-0.024250
7.066667	1	-0.026500
7.083333	1	-0.029125
7.100000	1	-0.031500
7.116667	1	-0.034000
7.133333	1	-0.036125
7.150000	1	-0.038125
7.166667	1	-0.040500
7.183333	1	-0.042750
7.200000	1	-0.045500
7.216667	1	-0.047500
7.233333	1	-0.049750
7.250000	1	-0.051625
7.266667	1	-0.053250
7.283333	1	-0.055125
7.300000	1	-0.056375
7.316667	1	-0.057625
7.333333	1	-0.058750
7.350000	1	-0.060250
7.366667	1	-0.060875
7.383333	1	-0.061250
7.400000	1	-0.062125
7.416667	1	-0.063000
7.433333	1	-0.064000
7.450000	1	-0.064750
7.466667	1	-0.064500
7.483333	1	-0.064750
7.500000	1	-0.065375
7.516667	1	-0.065250
7.533333	1	-0.065000
7.550000	1	-0.065125
7.566667	1	-0.064875
7.583333	1	-0.064625
7.600000	1	-0.064750
7.616667	1	-0.063750
7.633333	1	-0.063125
7.650000	1	-0.061875
7.666667	1	-0.060625
7.683333	1	-0.060625
7.700000	1	-0.059875
7.716667	1	-0.058125
7.733333	1	-0.057375
7.750000	1	-0.056375
7.766667	1	-0.054125
7.783333	1	-0.052875
7.800000	1	-0.050875
7.816667	1	-0.049500
7.833333	1	-0.048000
7.850000	1	-0.046625
7.866667	1	-0.045250
7.883333	1	-0.043000
7.900000	1	-0.041250
7.916667	1	-0.039625
7.933333	1	-0.037500
7.950000	1	-0.035500
7.966667	1	-0.033625
7.983333	1	-0.031250
8.000000	1	-0.029250
8.016667	1	-0.028000
8.033333	1	-0.026000
8.050000	1	-0.023750
8.066667	1	-0.022000
8.083333	1	-0.019750
8.100000	1	-0.018125
8.116667	1	-0.015875
8.133333	1	-0.014000
8.150000	1	-0.011875
8.166667	1	-0.009625
8.183333	1	-0.007750
8.200000	1	-0.006125
8.216667	1	-0.004625
8.233333	1	-0.003000
8.250000	1	-0.001500
8.266667	1	-0.000625
8.283333	1	0.000500
8.300000	1	0.001500
8.316667	1	0.002500
8.333333	1	0.003625
8.350000	1	0.005125
8.366667	1	0.006375
8.383333	1	0.007250
8.400000	1	0.007500
8.416667	1	0.008375
8.433333	1	0.009875
8.450000	1	0.011000
8.466667	1	0.012750
8.483333	1	0.013875
8.500000	1	0.015500
8.516667	1	0.016625
8.533333	1	0.018250
8.550000	1	0.020000
8.566667	1	0.021375
8.583333	1	0.022125
8.600000	1	0.022875
8.616667	1	0.023125
8.633333	1	0.023250
8.650000	1	0.022875
8.666667	1	0.023125
8.683333	1	0.022375
8.700000	1	0.022125
8.716667	1	0.022000
8.733333	1	0.022375
8.750000	1	0.022000
8.766667	1	0.021500
8.783333	1	0.020875
8.800000	1	0.020375
8.816667	1	0.019750
8.833333	1	0.019375
8.850000	1	0.019500
8.866667	1	0.019250
8.883333	1	0.019125
8.900000	1	0.018625
8.916667	1	0.018125
8.933333	1	0.018125
8.950000	1	0.018250
8.966667	1	0.017750
8.983333	1	0.017500
9.000000	1	0.017750
9.016667	1	0.017375
9.033333	1	0.017125
9.050000	1	0.016875
9.066667	1	0.016750
9.083333	1	0.016750
9.100000	1	0.017125
9.116667	1	0.017625
9.133333	1	0.017500
9.150000	1	0.017625
9.166667	1	0.018250
9.183333	1	0.018250
9.200000	1	0.018625
9.216667	1	0.018625
9.233333	1	0.019250
9.250000	1	0.019750
9.266667	1	0.019375
9.283333	1	0.019250
9.300000	1	0.019125
9.316667	1	0.019625
9.333333	1	0.020250
9.350000	1	0.020250
9.366667	1	0.020625
9.383333	1	0.021375
9.400000	1	0.021875
9.416667	1	0.022625
9.433333	1	0.023125
9.450000	1	0.024250
9.466667	1	0.025000
9.483333	1	0.026750
9.500000	1	0.029000
9.516667	1	0.032250
9.533333	1	0.035625
9.550000	1	0.039750
9.566667	1	0.044625
9.583333	1	0.050625
9.600000	1	0.058125
9.616667	1	0.066750
9.633333	1	0.077000
9.650000	1	0.089375
9.666667	1	0.103375
9.683333	1	0.119375
9.700000	1	0.137250
9.716667	1	0.156500
9.733333	1	0.177375
9.750000	1	0.198625
9.766667	1	0.218625
9.783333	1	0.237625
9.800000	1	0.252750
9.816667	1	0.263625
9.833333	1	0.268875
9.850000	1	0.266250
9.866667	1	0.252875
9.883333	1	0.226250
9.900000	1	0.185500
9.916667	1	0.140625
9.933333	1	0.112500
9.950000	1	0.142625
9.966667	1	0.283875
9.983333	1	0.600875
10.000000	1	1.156250
10.016667	1	2.005875
10.033333	1	3.193625
10.050000	1	4.745250
10.066667	1	6.675625
10.083333	1	8.982875
10.100000	1	11.651500
10.116667	1	14.653125
10.133333	1	17.937500
10.150000	1	21.435875
10.166667	1	25.051875
10.183333	1	28.665625
10.200000	1	32.133500
10.216667	1	35.282750
10.233333	1	37.928625
10.250000	1	39.896250
10.266667	1	41.048125
10.283333	1	41.308750
10.300000	1	40.681250
10.316667	1	39.250000
10.333333	1	37.163375
10.350000	1	34.606875
10.366667	1	31.776500
10.383333	1	28.848375
10.400000	1	25.962125
10.416667	1	23.219625
10.433333	1	20.685250
10.450000	1	18.391250
10.466667	1	16.343375
10.483333	1	14.533125
10.500000	1	12.941875
10.516667	1	11.547375
10.533333	1	10.326375
10.550000	1	9.256000
10.566667	1	8.315625
10.583333	1	7.488125
10.600000	1	6.759000
10.616667	1	6.117250
10.633333	1	5.551250
10.650000	1	5.053625
10.666667	1	4.615750
10.683333	1	4.230500
10.700000	1	3.892125
10.716667	1	3.593375
10.733333	1	3.329750
10.750000	1	3.096625
10.766667	1	2.889625
10.783333	1	2.704500
10.800000	1	2.539250
10.816667	1	2.390500
10.833333	1	2.256625
10.850000	1	2.136000
10.866667	1	2.026250
10.883333	1	1.926875
10.900000	1	1.835750
10.916667	1	1.752125
10.933333	1	1.676250
10.950000	1	1.607000
10.966667	1	1.542875
10.983333	1	1.484000
11.000000	1	1.430250
11.016667	1	1.381125
11.033333	1	1.335750
11.050000	1	1.293375
11.066667	1	1.254875
11.083333	1	1.219625
11.100000	1	1.186250
11.116667	1	1.156375
11.133333	1	1.128875
11.150000	1	1.103125
11.166667	1	1.079125
11.183333	1	1.056875
11.200000	1	1.036875
11.216667	1	1.018125
11.233333	1	1.000125
11.250000	1	0.983875
11.266667	1	0.968750
11.283333	1	0.954875
11.300000	1	0.941625
11.316667	1	0.929500
11.333333	1	0.918375
11.350000	1	0.907625
11.366667	1	0.898500
11.383333	1	0.889750
11.400000	1	0.882250
11.416667	1	0.875750
11.433333	1	0.870250
11.450000	1	0.865625
11.466667	1	0.861500
11.483333	1	0.858250
11.500000	1	0.856000
11.516667	1	0.853500
11.533333	1	0.852500
11.550000	1	0.851375
11.566667	1	0.850625
11.583333	1	0.850375
11.600000	1	0.850750
11.616667	1	0.850625
11.633333	1	0.851125
11.650000	1	0.851625
11.666667	1	0.852375
11.683333	1	0.852875
11.700000	1	0.853250
11.716667	1	0.853500
11.733333	1	0.853625
11.750000	1	0.853875
11.766667	1	0.852875
11.783333	1	0.852500
11.800000	1	0.852250
11.816667	1	0.852875
11.833333	1	0.853125
11.850000	1	0.855000
11.866667	1	0.857375
11.883333	1	0.861250
11.900000	1	0.866375
11.916667	1	0.873000
11.933333	1	0.881375
11.950000	1	0.891875
11.966667	1	0.904375
11.983333	1	0.919625
12.000000	1	0.937250
12.016667	1	0.957500
12.033333	1	0.980875
12.050000	1	1.007750
12.066667	1	1.039125
12.083333	1	1.075875
12.100000	1	1.119750
12.116667	1	1.172625
12.133333	1	1.236375
12.150000	1	1.314500
12.166667	1	1.409000
12.183333	1	1.521750
12.200000	1	1.654875
12.216667	1	1.810500
12.233333	1	1.989250
12.250000	1	2.193500
12.266667	1	2.424375
12.283333	1	2.682625
12.300000	1	2.969875
12.316667	1	3.289000
12.333333	1	3.641625
12.350000	1	4.030125
12.366667	1	4.455750
12.383333	1	4.922125
12.400000	1	5.428375
12.416667	1	5.974625
12.433333	1	6.555000
12.450000	1	7.161125
12.466667	1	7.783250
12.483333	1	8.403875
12.500000	1	9.001250
12.516667	1	9.554125
12.533333	1	10.038375
12.550000	1	10.436500
12.566667	1	10.738250
12.583333	1	10.939375
12.600000	1	11.044500
12.616667	1	11.064500
12.633333	1	11.010750
12.650000	1	10.894875
12.666667	1	10.730125
12.683333	1	10.528500
12.700000	1	10.299125
12.716667	1	10.050500
12.733333	1	9.789375
12.750000	1	9.521750
12.766667	1	9.253000
12.783333	1	8.986000
12.800000	1	8.724875
12.816667	1	8.470875
12.833333	1	8.225375
12.850000	1	7.988125
12.866667	1	7.758750
12.883333	1	7.536250
12.900000	1	7.320125
12.916667	1	7.108750
12.933333	1	6.900625
12.950000	1	6.695250
12.966667	1	6.490375
12.983333	1	6.285000
13.000000	1	6.077000
13.016667	1	5.864250
13.033333	1	5.645750
13.050000	1	5.417625
13.066667	1	5.178000
13.083333	1	4.923750
13.100000	1	4.653750
13.116667	1	4.364250
13.133333	1	4.053500
13.150000	1	3.720375
13.166667	1	3.368500
13.183333	1	3.007125
13.200000	1	2.651375
13.216667	1	2.321750
13.233333	1	2.033000
13.250000	1	1.792750
13.266667	1	1.598875
13.283333	1	1.444750
13.300000	1	1.322250
13.316667	1	1.224000
13.333333	1	1.143250
13.350000	1	1.075750
13.366667	1	1.019000
13.383333	1	0.971000
13.400000	1	0.928875
13.416667	1	0.891500
13.433333	1	0.859250
13.450000	1	0.830125
13.466667	1	0.804750
13.483333	1	0.782625
13.500000	1	0.763000
13.516667	1	0.745250
13.533333	1	0.730750
13.550000	1	0.718375
13.566667	1	0.708000
13.583333	1	0.700000
13.600000	1	0.694250
13.616667	1	0.690375
13.633333	1	0.687000
13.650000	1	0.684500
13.666667	1	0.682500
13.683333	1	0.681125
13.700000	1	0.679125
13.716667	1	0.675750
13.733333	1	0.671000
13.750000	1	0.666125
13.766667	1	0.659000
13.783333	1	0.650750
13.800000	1	0.642250
13.816667	1	0.633000
13.833333	1	0.622250
13.850000	1	0.610250
13.866667	1	0.597750
13.883333	1	0.585125
13.900000	1	0.571625
13.916667	1	0.558500
13.933333	1	0.545875
13.950000	1	0.533875
13.966667	1	0.522000
13.983333	1	0.510625
14.000000	1	0.500250
14.016667	1	0.490750
14.033333	1	0.481375
14.050000	1	0.473375
14.066667	1	0.466625
14.083333	1	0.460875
14.100000	1	0.456000
14.116667	1	0.452875
14.133333	1	0.451375
14.150000	1	0.449500
14.166667	1	0.449875
14.183333	1	0.451375
14.200000	1	0.455125
14.216667	1	0.460375
14.233333	1	0.468125
14.250000	1	0.478375
14.266667	1	0.492000
14.283333	1	0.509875
14.300000	1	0.532125
14.316667	1	0.558625
14.333333	1	0.592000
14.350000	1	0.632625
14.366667	1	0.681875
14.383333	1	0.739750
14.400000	1	0.808250
14.416667	1	0.889250
14.433333	1	0.982875
14.450000	1	1.091750
14.466667	1	1.217750
14.483333	1	1.363250
14.500000	1	1.529875
14.516667	1	1.720625
14.533333	1	1.940500
14.550000	1	2.193500
14.566667	1	2.484875
14.583333	1	2.822750
14.600000	1	3.217750
14.616667	1	3.682375
14.633333	1	4.236125
14.650000	1	4.901375
14.666667	1	5.703125
14.683333	1	6.672250
14.700000	1	7.837500
14.716667	1	9.229875
14.733333	1	10.877000
14.750000	1	12.799000
14.766667	1	15.003375
14.783333	1	17.480500
14.800000	1	20.206375
14.816667	1	23.136250
14.833333	1	26.206500
14.850000	1	29.331000
14.866667	1	32.410125
14.883333	1	35.337250
14.900000	1	38.004125
14.916667	1	40.309500
14.933333	1	42.170000
14.950000	1	43.521750
14.966667	1	44.326375
14.983333	1	44.574000
15.000000	1	44.281375
15.016667	1	43.484375
15.033333	1	42.239000
15.050000	1	40.613125
15.066667	1	38.682625
15.083333	1	36.523875
15.100000	1	34.215125
15.116667	1	31.824375
15.133333	1	29.410250
15.150000	1	27.023625
15.166667	1	24.707500
15.183333	1	22.491375
15.200000	1	20.396375
15.216667	1	18.436125
15.233333	1	16.617250
15.250000	1	14.943500
15.266667	1	13.412750
15.283333	1	12.020250
15.300000	1	10.760500
15.316667	1	9.626000
15.333333	1	8.608875
15.350000	1	7.700000
15.366667	1	6.891875
15.383333	1	6.174750
15.400000	1	5.539875
15.416667	1	4.980500
15.433333	1	4.488750
15.450000	1	4.057750
15.466667	1	3.680750
15.483333	1	3.352750
15.500000	1	3.069125
15.516667	1	2.825000
15.533333	1	2.615750
15.550000	1	2.437500
15.566667	1	2.285375
15.583333	1	2.156000
15.600000	1	2.046500
15.616667	1	1.952125
15.633333	1	1.870625
15.650000	1	1.797125
15.666667	1	1.732000
15.683333	1	1.671375
15.700000	1	1.613750
15.716667	1	1.559375
15.733333	1	1.506250
15.750000	1	1.455250
15.766667	1	1.405625
15.783333	1	1.356875
15.800000	1	1.308875
15.816667	1	1.263500
15.833333	1	1.218625
15.850000	1	1.176375
15.866667	1	1.135500
15.883333	1	1.096875
15.900000	1	1.060250
15.916667	1	1.026500
15.933333	1	0.995250
15.950000	1	0.965750
15.966667	1	0.938875
15.983333	1	0.914250
16.000000	1	0.892000
16.016667	1	0.872875
16.033333	1	0.855375
16.050000	1	0.840125
16.066667	1	0.826625
16.083333	1	0.815625
16.100000	1	0.807625
16.116667	1	0.801250
16.133333	1	0.796500
16.150000	1	0.793125
16.166667	1	0.791250
16.183333	1	0.790125
16.200000	1	0.790250
16.216667	1	0.789250
16.233333	1	0.787875
16.250000	1	0.786875
16.266667	1	0.784750
16.283333	1	0.782250
16.300000	1	0.778250
16.316667	1	0.773250
16.333333	1	0.768000
16.350000	1	0.762000
16.366667	1	0.755000
16.383333	1	0.748125
16.400000	1	0.740500
16.416667	1	0.733750
16.433333	1	0.726500
16.450000	1	0.719500
16.466667	1	0.713500
16.483333	1	0.708000
16.500000	1	0.702750
16.516667	1	0.698375
16.533333	1	0.695500
16.550000	1	0.693500
16.566667	1	0.692375
16.583333	1	0.691875
16.600000	1	0.692250
16.616667	1	0.693125
16.633333	1	0.694875
16.650000	1	0.697625
16.666667	1	0.700875
16.683333	1	0.703875
16.700000	1	0.707875
16.716667	1	0.712125
16.733333	1	0.716875
16.750000	1	0.720875
16.766667	1	0.724250
16.783333	1	0.728250
16.800000	1	0.731500
16.816667	1	0.734000
16.833333	1	0.735875
16.850000	1	0.736375
16.866667	1	0.736125
16.883333	1	0.734875
16.900000	1	0.734000
16.916667	1	0.731875
16.933333	1	0.730250
16.950000	1	0.728875
16.966667	1	0.727625
16.983333	1	0.727000
17.000000	1	0.727000
17.016667	1	0.727375
17.033333	1	0.728625
17.050000	1	0.729500
17.066667	1	0.730000
17.083333	1	0.731250
17.100000	1	0.732375
17.116667	1	0.733000
17.133333	1	0.733000
17.150000	1	0.732500
17.166667	1	0.730250
17.183333	1	0.727125
17.200000	1	0.723375
17.216667	1	0.718750
17.233333	1	0.713125
17.250000	1	0.706625
17.266667	1	0.700250
17.283333	1	0.694000
17.300000	1	0.686625
17.316667	1	0.678500
17.333333	1	0.670500
17.350000	1	0.663000
17.366667	1	0.656750
17.383333	1	0.651625
17.400000	1	0.646375
17.416667	1	0.641875
17.433333	1	0.638750
17.450000	1	0.636000
17.466667	1	0.634375
17.483333	1	0.633875
17.500000	1	0.635000
17.516667	1	0.636875
17.533333	1	0.640125
17.550000	1	0.645000
17.566667	1	0.651500
17.583333	1	0.658875
17.600000	1	0.667875
17.616667	1	0.678250
17.633333	1	0.689750
17.650000	1	0.702125
17.666667	1	0.715250
17.683333	1	0.729125
17.700000	1	0.743625
17.716667	1	0.759125
17.733333	1	0.774750
17.750000	1	0.789625
17.766667	1	0.804375
17.783333	1	0.819125
17.800000	1	0.833875
17.816667	1	0.847625
17.833333	1	0.860000
17.850000	1	0.871375
17.866667	1	0.881500
17.883333	1	0.889875
17.900000	1	0.896750
17.916667	1	0.901625
17.933333	1	0.905125
17.950000	1	0.906375
17.966667	1	0.905250
17.983333	1	0.902000
18.000000	1	0.897125
18.016667	1	0.890375
18.033333	1	0.881625
18.050000	1	0.871125
18.066667	1	0.860000
18.083333	1	0.848625
18.100000	1	0.836000
18.116667	1	0.821375
18.133333	1	0.806875
18.150000	1	0.793125
18.166667	1	0.779125
18.183333	1	0.765375
18.200000	1	0.751500
18.216667	1	0.737625
18.233333	1	0.725125
18.250000	1	0.712875
18.266667	1	0.702125
18.283333	1	0.691250
18.300000	1	0.682500
18.316667	1	0.674375
18.333333	1	0.666500
18.350000	1	0.660000
18.366667	1	0.654500
18.383333	1	0.650250
18.400000	1	0.647000
18.416667	1	0.643750
18.433333	1	0.641250
18.450000	1	0.638375
18.466667	1	0.636875
18.483333	1	0.635625
18.500000	1	0.634875
18.516667	1	0.634000
18.533333	1	0.634000
18.550000	1	0.634250
18.566667	1	0.634375
18.583333	1	0.634875
18.600000	1	0.635625
18.616667	1	0.637000
18.633333	1	0.637750
18.650000	1	0.639875
18.666667	1	0.642000
18.683333	1	0.645375
18.700000	1	0.648250
18.716667	1	0.652500
18.733333	1	0.656750
18.750000	1	0.661500
18.766667	1	0.666750
18.783333	1	0.673000
18.800000	1	0.680000
18.816667	1	0.686875
18.833333	1	0.694250
18.850000	1	0.703000
18.866667	1	0.712750
18.883333	1	0.722875
18.900000	1	0.734375
18.916667	1	0.747250
18.933333	1	0.762875
18.950000	1	0.780500
18.966667	1	0.800625
18.983333	1	0.823000
19.000000	1	0.848125
19.016667	1	0.875500
19.033333	1	0.904875
19.050000	1	0.936750
19.066667	1	0.970250
19.083333	1	1.005500
19.100000	1	1.043000
19.116667	1	1.080250
19.133333	1	1.116875
19.150000	1	1.152750
19.166667	1	1.186875
19.183333	1	1.218875
19.200000	1	1.247625
19.216667	1	1.270750
19.233333	1	1.289500
19.250000	1	1.304000
19.266667	1	1.312875
19.283333	1	1.315750
19.300000	1	1.313000
19.316667	1	1.305125
19.333333	1	1.291375
19.350000	1	1.272125
19.366667	1	1.248375
19.383333	1	1.221000
19.400000	1	1.189750
19.416667	1	1.156125
19.433333	1	1.120000
19.450000	1	1.082125
19.466667	1	1.043500
19.483333	1	1.004750
19.500000	1	0.966125
19.516667	1	0.927500
19.533333	1	0.889750
19.550000	1	0.854250
19.566667	1	0.820375
19.583333	1	0.788250
19.600000	1	0.759500
19.616667	1	0.732625
19.633333	1	0.708875
19.650000	1	0.687500
19.666667	1	0.669875
19.683333	1	0.654625
19.700000	1	0.643625
19.716667	1	0.635500
19.733333	1	0.632000
19.750000	1	0.632375
19.766667	1	0.636625
19.783333	1	0.643625
19.800000	1	0.654500
19.816667	1	0.668500
19.833333	1	0.686000
19.850000	1	0.707625
19.866667	1	0.730875
19.883333	1	0.756750
19.900000	1	0.785500
19.916667	1	0.814625
19.933333	1	0.846125
19.950000	1	0.877875
19.966667	1	0.909625
19.983333	1	0.942625
20.000000	1	0.974875
20.016667	1	1.007375
20.033333	1	1.039375
20.050000	1	1.071000
20.066667	1	1.102625
20.083333	1	1.135125
20.100000	1	1.169500
20.116667	1	1.206125
20.133333	1	1.245750
20.150000	1	1.290000
20.166667	1	1.338625
20.183333	1	1.395500
20.200000	1	1.460750
20.216667	1	1.536125
20.233333	1	1.623750
20.250000	1	1.723500
20.266667	1	1.838000
20.283333	1	1.966750
20.300000	1	2.111875
20.316667	1	2.270875
20.333333	1	2.444625
20.350000	1	2.630875
20.366667	1	2.827000
20.383333	1	3.029000
20.400000	1	3.234000
20.416667	1	3.436625
20.433333	1	3.633000
20.450000	1	3.817125
20.466667	1	3.985625
20.483333	1	4.132125
20.500000	1	4.254375
20.516667	1	4.347750
20.533333	1	4.412750
20.550000	1	4.446750
20.566667	1	4.450375
20.583333	1	4.424500
20.600000	1	4.369625
20.616667	1	4.290250
20.633333	1	4.188750
20.650000	1	4.070000
20.666667	1	3.937000
20.683333	1	3.795250
20.700000	1	3.649125
20.716667	1	3.502250
20.733333	1	3.357375
20.750000	1	3.217375
20.766667	1	3.084875
20.783333	1	2.961875
20.800000	1	2.848250
20.816667	1	2.745625
20.833333	1	2.652000
20.850000	1	2.567875
20.866667	1	2.491500
20.883333	1	2.422375
20.900000	1	2.358125
20.916667	1	2.297000
20.933333	1	2.237625
20.950000	1	2.178500
20.966667	1	2.118125
20.983333	1	2.055125
21.000000	1	1.989125
21.016667	1	1.919625
21.033333	1	1.847875
21.050000	1	1.772625
21.066667	1	1.695875
21.083333	1	1.617625
21.100000	1	1.537500
21.116667	1	1.457625
21.133333	1	1.378500
21.150000	1	1.301000
21.166667	1	1.225625
21.183333	1	1.152875
21.200000	1	1.083250
21.216667	1	1.018000
21.233333	1	0.956000
21.250000	1	0.898875
21.266667	1	0.845875
21.283333	1	0.797250
21.300000	1	0.752125
21.316667	1	0.711000
21.333333	1	0.673375
21.350000	1	0.639375
21.366667	1	0.608625
21.383333	1	0.581000
21.400000	1	0.556000
21.416667	1	0.533750
21.433333	1	0.513875
21.450000	1	0.497000
21.466667	1	0.481250
21.483333	1	0.468375
21.500000	1	0.456875
21.516667	1	0.446750
21.533333	1	0.437375
21.550000	1	0.429750
21.566667	1	0.422250
21.583333	1	0.415000
21.600000	1	0.410625
21.616667	1	0.406250
21.633333	1	0.402375
21.650000	1	0.399750
21.666667	1	0.397125
21.683333	1	0.395125
21.700000	1	0.394250
21.716667	1	0.394375
21.733333	1	0.394875
21.750000	1	0.396500
21.766667	1	0.398750
21.783333	1	0.402250
21.800000	1	0.405875
21.816667	1	0.411875
21.833333	1	0.417625
21.850000	1	0.425000
21.866667	1	0.433000
21.883333	1	0.440750
21.900000	1	0.450500
21.916667	1	0.459375
21.933333	1	0.468750
21.950000	1	0.478000
21.966667	1	0.486500
21.983333	1	0.495125
22.000000	1	0.501625
22.016667	1	0.508625
22.033333	1	0.513625
22.050000	1	0.518375
22.066667	1	0.521125
22.083333	1	0.522750
22.100000	1	0.522500
22.116667	1	0.521125
22.133333	1	0.518875
22.150000	1	0.515625
22.166667	1	0.511125
22.183333	1	0.506125
22.200000	1	0.500000
22.216667	1	0.493500
22.233333	1	0.486500
22.250000	1	0.480125
22.266667	1	0.474125
22.283333	1	0.468500
22.300000	1	0.463500
22.316667	1	0.458375
22.333333	1	0.454250
22.350000	1	0.451000
22.366667	1	0.448375
22.383333	1	0.446125
22.400000	1	0.445500
22.416667	1	0.444500
22.433333	1	0.444750
22.450000	1	0.445875
22.466667	1	0.448000
22.483333	1	0.449750
22.500000	1	0.452500
22.516667	1	0.455375
22.533333	1	0.459250
22.550000	1	0.461750
22.566667	1	0.465000
22.583333	1	0.468000
22.600000	1	0.471250
22.616667	1	0.474875
22.633333	1	0.478375
22.650000	1	0.481875
22.666667	1	0.484750
22.683333	1	0.487250
22.700000	1	0.490250
22.716667	1	0.491500
22.733333	1	0.491750
22.750000	1	0.492000
22.766667	1	0.491375
22.783333	1	0.490750
22.800000	1	0.489000
22.816667	1	0.486875
22.833333	1	0.484500
22.850000	1	0.481250
22.866667	1	0.477250
22.883333	1	0.473375
22.900000	1	0.468875
22.916667	1	0.464250
22.933333	1	0.459000
22.950000	1	0.454750
22.966667	1	0.450125
22.983333	1	0.445500
23.000000	1	0.441375
23.016667	1	0.437375
23.033333	1	0.433625
23.050000	1	0.430375
23.066667	1	0.429125
23.083333	1	0.427500
23.100000	1	0.427000
23.116667	1	0.428125
23.133333	1	0.430125
23.150000	1	0.432750
23.166667	1	0.437625
23.183333	1	0.443375
23.200000	1	0.451375
23.216667	1	0.460625
23.233333	1	0.471625
23.250000	1	0.484625
23.266667	1	0.500250
23.283333	1	0.516750
23.300000	1	0.536375
23.316667	1	0.559125
23.333333	1	0.584625
23.350000	1	0.612250
23.366667	1	0.643750
23.383333	1	0.679000
23.400000	1	0.718625
23.416667	1	0.762375
23.433333	1	0.811875
23.450000	1	0.867000
23.466667	1	0.928750
23.483333	1	0.998000
23.500000	1	1.076500
23.516667	1	1.165375
23.533333	1	1.265625
23.550000	1	1.378250
23.566667	1	1.504750
23.583333	1	1.646500
23.600000	1	1.805375
23.616667	1	1.982500
23.633333	1	2.177500
23.650000	1	2.392250
23.666667	1	2.625500
23.683333	1	2.877375
23.700000	1	3.147000
23.716667	1	3.431375
23.733333	1	3.727875
23.750000	1	4.034625
23.766667	1	4.346250
23.783333	1	4.657750
23.800000	1	4.964750
23.816667	1	5.261125
23.833333	1	5.541875
23.850000	1	5.801625
23.866667	1	6.034500
23.883333	1	6.236125
23.900000	1	6.402375
23.916667	1	6.530875
23.933333	1	6.618875
23.950000	1	6.664750
23.966667	1	6.668000
23.983333	1	6.630250
24.000000	1	6.552000
24.016667	1	6.437250
24.033333	1	6.288375
24.050000	1	6.110125
24.066667	1	5.906500
24.083333	1	5.680750
24.100000	1	5.438125
24.116667	1	5.182125
24.133333	1	4.918375
24.150000	1	4.650000
24.166667	1	4.380750
24.183333	1	4.114375
24.200000	1	3.854125
24.216667	1	3.602500
24.233333	1	3.360250
24.250000	1	3.129875
24.266667	1	2.912250
24.283333	1	2.708000
24.300000	1	2.517000
24.316667	1	2.338875
24.333333	1	2.174250
24.350000	1	2.022625
24.366667	1	1.883750
24.383333	1	1.757125
24.400000	1	1.641375
24.416667	1	1.536000
24.433333	1	1.439750
24.450000	1	1.353375
24.466667	1	1.274625
24.483333	1	1.202500
24.500000	1	1.136375
24.516667	1	1.075875
24.533333	1	1.020625
24.550000	1	0.969000
24.566667	1	0.921875
24.583333	1	0.877625
24.600000	1	0.836625
24.616667	1	0.797500
24.633333	1	0.761125
24.650000	1	0.726625
24.666667	1	0.693500
24.683333	1	0.662625
24.700000	1	0.633000
24.716667	1	0.604375
24.733333	1	0.577875
24.750000	1	0.552125
24.766667	1	0.527500
24.783333	1	0.504500
24.800000	1	0.482875
24.816667	1	0.461625
24.833333	1	0.441375
24.850000	1	0.422875
24.866667	1	0.405625
24.883333	1	0.389250
24.900000	1	0.374125
24.916667	1	0.360500
24.933333	1	0.347000
24.950000	1	0.334625
24.966667	1	0.323125
24.983333	1	0.312625
25.000000	1	0.302750
25.016667	1	0.294125
25.033333	1	0.286750
25.050000	1	0.280000
25.066667	1	0.274375
25.083333	1	0.269500
25.100000	1	0.265500
25.116667	1	0.262125
25.133333	1	0.258750
25.150000	1	0.256125
25.166667	1	0.254625
25.183333	1	0.253875
25.200000	1	0.253000
25.216667	1	0.252750
25.233333	1	0.253000
25.250000	1	0.253000
25.266667	1	0.253500
25.283333	1	0.255000
25.300000	1	0.256875
25.316667	1	0.258375
25.333333	1	0.259875
25.350000	1	0.261625
25.366667	1	0.263000
25.383333	1	0.264875
25.400000	1	0.267000
25.416667	1	0.269375
25.433333	1	0.271125
25.450000	1	0.272625
25.466667	1	0.274125
25.483333	1	0.275500
25.500000	1	0.276875
25.516667	1	0.278500
25.533333	1	0.279375
25.550000	1	0.280375
25.566667	1	0.280750
25.583333	1	0.281500
25.600000	1	0.281250
25.616667	1	0.281375
25.633333	1	0.281250
25.650000	1	0.280875
25.666667	1	0.280875
25.683333	1	0.280625
25.700000	1	0.280000
25.716667	1	0.279125
25.733333	1	0.278250
25.750000	1	0.276500
25.766667	1	0.274625
25.783333	1	0.272375
25.800000	1	0.270000
25.816667	1	0.267375
25.833333	1	0.265375
25.850000	1	0.262125
25.866667	1	0.258750
25.883333	1	0.254875
25.900000	1	0.251375
25.916667	1	0.247125
25.933333	1	0.242500
25.950000	1	0.237500
25.966667	1	0.232625
25.983333	1	0.227875
26.000000	1	0.222000
26.016667	1	0.217250
26.033333	1	0.213125
26.050000	1	0.208000
26.066667	1	0.203250
26.083333	1	0.198375
26.100000	1	0.193625
26.116667	1	0.189125
26.133333	1	0.185000
26.150000	1	0.181500
26.166667	1	0.178375
26.183333	1	0.176250
26.200000	1	0.173625
26.216667	1	0.172375
26.233333	1	0.171500
26.250000	1	0.171750
26.266667	1	0.171750
26.283333	1	0.171750
26.300000	1	0.172375
26.316667	1	0.173750
26.333333	1	0.175125
26.350000	1	0.176250
26.366667	1	0.179000
26.383333	1	0.181750
26.400000	1	0.184250
26.416667	1	0.187125
26.433333	1	0.190250
26.450000	1	0.193000
26.466667	1	0.194875
26.483333	1	0.197375
26.500000	1	0.199375
26.516667	1	0.201375
26.533333	1	0.203500
26.550000	1	0.204625
26.566667	1	0.205500
26.583333	1	0.206500
26.600000	1	0.207125
26.616667	1	0.207750
26.633333	1	0.207875
26.650000	1	0.208750
26.666667	1	0.209625
26.683333	1	0.210000
26.700000	1	0.210125
26.716667	1	0.210500
26.733333	1	0.210500
26.750000	1	0.211375
26.766667	1	0.212375
26.783333	1	0.213125
26.800000	1	0.213875
26.816667	1	0.215125
26.833333	1	0.216875
26.850000	1	0.218750
26.866667	1	0.220250
26.883333	1	0.222000
26.900000	1	0.224500
26.916667	1	0.226750
26.933333	1	0.229625
26.950000	1	0.233125
26.966667	1	0.236875
26.983333	1	0.240625
27.000000	1	0.244750
27.016667	1	0.249125
27.033333	1	0.254500
27.050000	1	0.260125
27.066667	1	0.266000
27.083333	1	0.272500
27.100000	1	0.279375
27.116667	1	0.287250
27.133333	1	0.295000
27.150000	1	0.302750
27.166667	1	0.311625
27.183333	1	0.320875
27.200000	1	0.331125
27.216667	1	0.342000
27.233333	1	0.353750
27.250000	1	0.366250
27.266667	1	0.379750
27.283333	1	0.393000
27.300000	1	0.407750
27.316667	1	0.423750
27.333333	1	0.440500
27.350000	1	0.458500
27.366667	1	0.478500
27.383333	1	0.499250
27.400000	1	0.521625
27.416667	1	0.546250
27.433333	1	0.572750
27.450000	1	0.601750
27.466667	1	0.633500
27.483333	1	0.668750
27.500000	1	0.707375
27.516667	1	0.749875
27.533333	1	0.797125
27.550000	1	0.849625
27.566667	1	0.907750
27.583333	1	0.971000
27.600000	1	1.040250
27.616667	1	1.115625
27.633333	1	1.197875
27.650000	1	1.287125
27.666667	1	1.383875
27.683333	1	1.487375
27.700000	1	1.596875
27.716667	1	1.712750
27.733333	1	1.834375
27.750000	1	1.960250
27.766667	1	2.089500
27.783333	1	2.221625
27.800000	1	2.354250
27.816667	1	2.487250
27.833333	1	2.618000
27.850000	1	2.744625
27.866667	1	2.866500
27.883333	1	2.981000
27.900000	1	3.086125
27.916667	1	3.180875
27.933333	1	3.263000
27.950000	1	3.331500
27.966667	1	3.384750
27.983333	1	3.422250
28.000000	1	3.444000
28.016667	1	3.448000
28.033333	1	3.435375
28.050000	1	3.404875
28.066667	1	3.358750
28.083333	1	3.296750
28.100000	1	3.219375
28.116667	1	3.129000
28.133333	1	3.026500
28.150000	1	2.913750
28.166667	1	2.792250
28.183333	1	2.664000
28.200000	1	2.530000
28.216667	1	2.392625
28.233333	1	2.252500
28.250000	1	2.112375
28.266667	1	1.972750
28.283333	1	1.835125
28.300000	1	1.700000
28.316667	1	1.568875
28.333333	1	1.442250
28.350000	1	1.321000
28.366667	1	1.203875
28.383333	1	1.093375
28.400000	1	0.988375
28.416667	1	0.888250
28.433333	1	0.794000
28.450000	1	0.705250
28.466667	1	0.621125
28.483333	1	0.541125
28.500000	1	0.465375
28.516667	1	0.393500
28.533333	1	0.324625
28.550000	1	0.259000
28.566667	1	0.196875
28.583333	1	0.137000
28.600000	1	0.079250
28.616667	1	0.023375
28.633333	1	-0.030375
28.650000	1	-0.083125
28.666667	1	-0.133125
28.683333	1	-0.182000
28.700000	1	-0.229250
28.716667	1	-0.274375
28.733333	1	-0.317500
28.750000	1	-0.358375
28.766667	1	-0.397250
28.783333	1	-0.433000
28.800000	1	-0.466500
28.816667	1	-0.497375
28.833333	1	-0.524375
28.850000	1	-0.548375
28.866667	1	-0.569125
28.883333	1	-0.586000
28.900000	1	-0.599875
28.916667	1	-0.609750
28.933333	1	-0.615750
28.950000	1	-0.617625
28.966667	1	-0.616500
28.983333	1	-0.611500
29.000000	1	-0.602500
29.016667	1	-0.589875
29.033333	1	-0.574375
29.050000	1	-0.555625
29.066667	1	-0.533750
29.083333	1	-0.509875
29.100000	1	-0.483375
29.116667	1	-0.454625
29.133333	1	-0.423875
29.150000	1	-0.391125
29.166667	1	-0.357375
29.183333	1	-0.323000
29.200000	1	-0.287500
29.216667	1	-0.252000
29.233333	1	-0.216250
29.250000	1	-0.180000
29.266667	1	-0.144500
29.283333	1	-0.109625
29.300000	1	-0.074500
29.316667	1	-0.040500
29.333333	1	-0.007875
29.350000	1	0.023875
29.366667	1	0.055375
29.383333	1	0.085625
29.400000	1	0.113750
29.416667	1	0.141000
29.433333	1	0.166375
29.450000	1	0.190250
29.466667	1	0.212875
29.483333	1	0.234125
29.500000	1	0.253250
29.516667	1	0.271000
29.533333	1	0.287000
29.550000	1	0.302250
29.566667	1	0.314750
29.583333	1	0.326750
29.600000	1	0.337000
29.616667	1	0.346500
29.633333	1	0.354500
29.650000	1	0.361125
29.666667	1	0.365750
29.683333	1	0.370625
29.700000	1	0.373625
29.716667	1	0.376125
29.733333	1	0.377750
29.750000	1	0.379000
29.766667	1	0.378625
29.783333	1	0.378000
29.800000	1	0.377000
29.816667	1	0.375125
29.833333	1	0.372500
29.850000	1	0.370625
29.866667	1	0.368500
29.883333	1	0.365750
29.900000	1	0.363375
29.916667	1	0.360625
29.933333	1	0.358750
29.950000	1	0.356000
29.966667	1	0.353500
29.983333	1	0.351125
30.000000	1	0.350000
30.016667	1	0.348500
30.033333	1	0.347500
30.050000	1	0.347250
30.066667	1	0.347000
30.083333	1	0.347625
30.100000	1	0.348125
30.116667	1	0.349500
30.133333	1	0.351000
30.150000	1	0.353625
30.166667	1	0.356250
30.183333	1	0.360250
30.200000	1	0.363750
30.216667	1	0.368750
30.233333	1	0.374000
30.250000	1	0.380000
30.266667	1	0.386500
30.283333	1	0.393750
30.300000	1	0.401750
30.316667	1	0.411500
30.333333	1	0.421875
30.350000	1	0.434000
30.366667	1	0.447375
30.383333	1	0.462750
30.400000	1	0.478125
30.416667	1	0.495125
30.433333	1	0.513875
30.450000	1	0.533625
30.466667	1	0.555000
30.483333	1	0.578250
30.500000	1	0.601875
30.516667	1	0.627000
30.533333	1	0.652750
30.550000	1	0.679375
30.566667	1	0.706750
30.583333	1	0.734375
30.600000	1	0.761625
30.616667	1	0.789875
30.633333	1	0.817125
30.650000	1	0.843000
30.666667	1	0.867625
30.683333	1	0.890625
30.700000	1	0.912000
30.716667	1	0.931125
30.733333	1	0.947750
30.750000	1	0.962000
30.766667	1	0.972750
30.783333	1	0.980750
30.800000	1	0.985250
30.816667	1	0.986750
30.833333	1	0.984875
30.850000	1	0.979250
30.866667	1	0.970000
30.883333	1	0.957500
30.900000	1	0.942625
30.916667	1	0.925125
30.933333	1	0.904625
30.950000	1	0.882250
30.966667	1	0.857375
30.983333	1	0.831000
31.000000	1	0.803000
31.016667	1	0.775250
31.033333	1	0.746000
31.050000	1	0.716000
31.066667	1	0.686250
31.083333	1	0.656625
31.100000	1	0.627375
31.116667	1	0.598625
31.133333	1	0.569625
31.150000	1	0.541875
31.166667	1	0.515875
31.183333	1	0.490375
31.200000	1	0.466375
31.216667	1	0.443625
31.233333	1	0.422125
31.250000	1	0.401500
31.266667	1	0.383375
31.283333	1	0.366375
31.300000	1	0.349875
31.316667	1	0.335000
31.333333	1	0.321000
31.350000	1	0.308750
31.366667	1	0.297750
31.383333	1	0.286875
31.400000	1	0.277000
31.416667	1	0.268250
31.433333	1	0.260875
31.450000	1	0.254500
31.466667	1	0.248500
31.483333	1	0.243375
31.500000	1	0.239000
31.516667	1	0.234750
31.533333	1	0.231750
31.550000	1	0.228875
31.566667	1	0.226250
31.583333	1	0.224500
31.600000	1	0.223500
31.616667	1	0.223125
31.633333	1	0.222125
31.650000	1	0.222125
31.666667	1	0.222250
31.683333	1	0.223000
31.700000	1	0.223750
31.716667	1	0.225125
31.733333	1	0.226125
31.750000	1	0.229000
31.766667	1	0.230500
31.783333	1	0.233250
31.800000	1	0.234875
31.816667	1	0.237000
31.833333	1	0.240000
31.850000	1	0.241750
31.866667	1	0.244375
31.883333	1	0.246125
31.900000	1	0.247750
31.916667	1	0.249125
31.933333	1	0.250875
31.950000	1	0.252250
31.966667	1	0.253250
31.983333	1	0.253125
32.000000	1	0.253000
32.016667	1	0.252125
32.033333	1	0.251250
32.050000	1	0.249250
32.066667	1	0.246500
32.083333	1	0.243625
32.100000	1	0.239875
32.116667	1	0.235125
32.133333	1	0.230500
32.150000	1	0.225125
32.166667	1	0.219750
32.183333	1	0.213500
32.200000	1	0.207000
32.216667	1	0.199875
32.233333	1	0.192250
32.250000	1	0.184500
32.266667	1	0.176750
32.283333	1	0.168750
32.300000	1	0.161250
32.316667	1	0.153500
32.333333	1	0.145500
32.350000	1	0.137375
32.366667	1	0.129500
32.383333	1	0.121750
32.400000	1	0.113750
32.416667	1	0.107125
32.433333	1	0.099875
32.450000	1	0.093375
32.466667	1	0.086875
32.483333	1	0.080875
32.500000	1	0.074875
32.516667	1	0.069000
32.533333	1	0.063500
32.550000	1	0.059250
32.566667	1	0.055375
32.583333	1	0.050750
32.600000	1	0.046750
32.616667	1	0.043250
32.633333	1	0.040125
32.650000	1	0.037625
32.666667	1	0.034750
32.683333	1	0.032500
32.700000	1	0.030125
32.716667	1	0.028000
32.733333	1	0.026375
32.750000	1	0.024750
32.766667	1	0.023625
32.783333	1	0.022375
32.800000	1	0.021625
32.816667	1	0.020875
32.833333	1	0.020000
32.850000	1	0.019375
32.866667	1	0.018875
32.883333	1	0.018375
32.900000	1	0.018125
32.916667	1	0.018250
32.933333	1	0.017750
32.950000	1	0.017125
32.966667	1	0.017625
32.983333	1	0.017875
33.000000	1	0.017625
33.016667	1	0.017000
33.033333	1	0.016875
33.050000	1	0.017125
33.066667	1	0.016875
33.083333	1	0.016625
33.100000	1	0.015500
33.116667	1	0.015875
33.133333	1	0.016000
33.150000	1	0.015750
33.166667	1	0.015375
33.183333	1	0.015500
33.200000	1	0.014750
33.216667	1	0.014250
33.233333	1	0.013375
33.250000	1	0.013000
33.266667	1	0.012250
33.283333	1	0.012125
33.300000	1	0.011875
33.316667	1	0.011375
33.333333	1	0.010625
33.350000	1	0.009875
33.366667	1	0.009000
33.383333	1	0.007625
33.400000	1	0.007250
33.416667	1	0.006125
33.433333	1	0.005875
33.450000	1	0.004625
33.466667	1	0.002875
33.483333	1	0.002000
33.500000	1	0.001000
33.516667	1	0.000000
33.533333	1	-0.000125
33.550000	1	-0.001000
33.566667	1	-0.001875
33.583333	1	-0.002875
33.600000	1	-0.003125
33.616667	1	-0.004500
33.633333	1	-0.006000
33.650000	1	-0.007250
33.666667	1	-0.007500
33.683333	1	-0.008500
33.700000	1	-0.008625
33.716667	1	-0.009250
33.733333	1	-0.010000
33.750000	1	-0.010125
33.766667	1	-0.010000
33.783333	1	-0.010125
33.800000	1	-0.010375
33.816667	1	-0.010125
33.833333	1	-0.011250
33.850000	1	-0.010625
33.866667	1	-0.011250
33.883333	1	-0.011750
33.900000	1	-0.011875
33.916667	1	-0.010875
33.933333	1	-0.010875
33.950000	1	-0.010250
33.966667	1	-0.009250
33.983333	1	-0.009125
34.000000	1	-0.008875
34.016667	1	-0.008500
34.033333	1	-0.007750
34.050000	1	-0.006750
34.066667	1	-0.005375
34.083333	1	-0.004375
34.100000	1	-0.003250
34.116667	1	-0.001875
34.133333	1	-0.000750
34.150000	1	0.000000
34.166667	1	0.001375
34.183333	1	0.002500
34.200000	1	0.003500
34.216667	1	0.004875
34.233333	1	0.007000
34.250000	1	0.008000
34.266667	1	0.009875
34.283333	1	0.011000
34.300000	1	0.013125
34.316667	1	0.014625
34.333333	1	0.016375
34.350000	1	0.017625
34.366667	1	0.019125
34.383333	1	0.020875
34.400000	1	0.022375
34.416667	1	0.023125
34.433333	1	0.024125
34.450000	1	0.025375
34.466667	1	0.026750
34.483333	1	0.028125
34.500000	1	0.029625
34.516667	1	0.031000
34.533333	1	0.031875
34.550000	1	0.032375
34.566667	1	0.033750
34.583333	1	0.035000
34.600000	1	0.036625
34.616667	1	0.038000
34.633333	1	0.039375
34.650000	1	0.040875
34.666667	1	0.041875
34.683333	1	0.042875
34.700000	1	0.044500
34.716667	1	0.045875
34.733333	1	0.047875
34.750000	1	0.049250
34.766667	1	0.051000
34.783333	1	0.052250
34.800000	1	0.054500
34.816667	1	0.055750
34.833333	1	0.057125
34.850000	1	0.059375
34.866667	1	0.061875
34.883333	1	0.063750
34.900000	1	0.066500
34.916667	1	0.069000
34.933333	1	0.072000
34.950000	1	0.074500
34.966667	1	0.077250
34.983333	1	0.079375
35.000000	1	0.082500
35.016667	1	0.085125
35.033333	1	0.087375
35.050000	1	0.090125
35.066667	1	0.092875
35.083333	1	0.095750
35.100000	1	0.098625
35.116667	1	0.101625
35.133333	1	0.104375
35.150000	1	0.106875
35.166667	1	0.109375
35.183333	1	0.111875
35.200000	1	0.114625
35.216667	1	0.116500
35.233333	1	0.119750
35.250000	1	0.122250
35.266667	1	0.124250
35.283333	1	0.126125
35.300000	1	0.127875
35.316667	1	0.129625
35.333333	1	0.131250
35.350000	1	0.132250
35.366667	1	0.133375
35.383333	1	0.133750
35.400000	1	0.135125
35.416667	1	0.135375
35.433333	1	0.135625
35.450000	1	0.136000
35.466667	1	0.136875
35.483333	1	0.136875
35.500000	1	0.136500
35.516667	1	0.135375
35.533333	1	0.134750
35.550000	1	0.134500
35.566667	1	0.133500
35.583333	1	0.132375
35.600000	1	0.130875
35.616667	1	0.129250
35.633333	1	0.128125
35.650000	1	0.126250
35.666667	1	0.124500
35.683333	1	0.123125
35.700000	1	0.122000
35.716667	1	0.120375
35.733333	1	0.118750
35.750000	1	0.116250
35.766667	1	0.114125
35.783333	1	0.113000
35.800000	1	0.111750
35.816667	1	0.109750
35.833333	1	0.108125
35.850000	1	0.106500
35.866667	1	0.105000
35.883333	1	0.102375
35.900000	1	0.100125
35.916667	1	0.098875
35.933333	1	0.098375
35.950000	1	0.097250
35.966667	1	0.095250
35.983333	1	0.094000
36.000000	1	0.092625
36.016667	1	0.091000
36.033333	1	0.089375
36.050000	1	0.088625
36.066667	1	0.087375
36.083333	1	0.086125
36.100000	1	0.085375
36.116667	1	0.084750
36.133333	1	0.083750
36.150000	1	0.083000
36.166667	1	0.082000
36.183333	1	0.080875
36.200000	1	0.079625
36.216667	1	0.079125
36.233333	1	0.078250
36.250000	1	0.077500
36.266667	1	0.077250
36.283333	1	0.076125
36.300000	1	0.075875
36.316667	1	0.075375
36.333333	1	0.075500
36.350000	1	0.075250
36.366667	1	0.074625
36.383333	1	0.073875
36.400000	1	0.073625
36.416667	1	0.073500
36.433333	1	0.074125
36.450000	1	0.074250
36.466667	1	0.073750
36.483333	1	0.072875
36.500000	1	0.072125
36.516667	1	0.071750
36.533333	1	0.071375
36.550000	1	0.070625
36.566667	1	0.069250
36.583333	1	0.067875
36.600000	1	0.066750
36.616667	1	0.065625
36.633333	1	0.064250
36.650000	1	0.062625
36.666667	1	0.061500
36.683333	1	0.060375
36.700000	1	0.058500
36.716667	1	0.056375
36.733333	1	0.053875
36.750000	1	0.051375
36.766667	1	0.049500
36.783333	1	0.047125
36.800000	1	0.044625
36.816667	1	0.042125
36.833333	1	0.039125
36.850000	1	0.036250
36.866667	1	0.034000
36.883333	1	0.031375
36.900000	1	0.028875
36.916667	1	0.026000
36.933333	1	0.024500
36.950000	1	0.022000
36.966667	1	0.019125
36.983333	1	0.016250
37.000000	1	0.013750
37.016667	1	0.011000
37.033333	1	0.008125
37.050000	1	0.005750
37.066667	1	0.003125
37.083333	1	0.001000
37.100000	1	-0.000625
37.116667	1	-0.001750
37.133333	1	-0.003250
37.150000	1	-0.005125
37.166667	1	-0.007375
37.183333	1	-0.009625
37.200000	1	-0.011500
37.216667	1	-0.013000
37.233333	1	-0.013625
37.250000	1	-0.014625
37.266667	1	-0.015375
37.283333	1	-0.017000
37.300000	1	-0.017875
37.316667	1	-0.018375
37.333333	1	-0.019000
37.350000	1	-0.020000
37.366667	1	-0.020500
37.383333	1	-0.021125
37.400000	1	-0.022250
37.416667	1	-0.022750
37.433333	1	-0.023250
37.450000	1	-0.023875
37.466667	1	-0.024875
37.483333	1	-0.024875
37.500000	1	-0.025125
37.516667	1	-0.025375
37.533333	1	-0.025750
37.550000	1	-0.026500
37.566667	1	-0.027125
37.583333	1	-0.027000
37.600000	1	-0.027250
37.616667	1	-0.027125
37.633333	1	-0.027250
37.650000	1	-0.027875
37.666667	1	-0.027625
37.683333	1	-0.027500
37.700000	1	-0.027625
37.716667	1	-0.027875
37.733333	1	-0.028000
37.750000	1	-0.028000
37.766667	1	-0.027750
37.783333	1	-0.028125
37.800000	1	-0.028250
37.816667	1	-0.028125
37.833333	1	-0.027750
37.850000	1	-0.027500
37.866667	1	-0.028000
37.883333	1	-0.027750
37.900000	1	-0.027500
37.916667	1	-0.026500
37.933333	1	-0.026250
37.950000	1	-0.025500
37.966667	1	-0.025375
37.983333	1	-0.025125
38.000000	1	-0.025000
38.016667	1	-0.024250
38.033333	1	-0.024375
38.050000	1	-0.023875
38.066667	1	-0.024000
38.083333	1	-0.023250
38.100000	1	-0.023375
38.116667	1	-0.022625
38.133333	1	-0.023125
38.150000	1	-0.023375
38.166667	1	-0.023375
38.183333	1	-0.022375
38.200000	1	-0.022375
38.216667	1	-0.022500
38.233333	1	-0.022125
38.250000	1	-0.022625
38.266667	1	-0.022875
38.283333	1	-0.022375
38.300000	1	-0.022875
38.316667	1	-0.023375
38.333333	1	-0.023500
38.350000	1	-0.023625
38.366667	1	-0.023500
38.383333	1	-0.023125
38.400000	1	-0.022375
38.416667	1	-0.022750
38.433333	1	-0.022750
38.450000	1	-0.022500
38.466667	1	-0.022500
38.483333	1	-0.022750
38.500000	1	-0.022500
38.516667	1	-0.022875
38.533333	1	-0.023000
38.550000	1	-0.023125
38.566667	1	-0.023750
38.583333	1	-0.024375
38.600000	1	-0.024375
38.616667	1	-0.023875
38.633333	1	-0.024000
38.650000	1	-0.023625
38.666667	1	-0.023750
38.683333	1	-0.023750
38.700000	1	-0.023875
38.716667	1	-0.023625
38.733333	1	-0.023250
38.750000	1	-0.023000
38.766667	1	-0.023125
38.783333	1	-0.023375
38.800000	1	-0.022750
38.816667	1	-0.022750
38.833333	1	-0.022500
38.850000	1	-0.022000
38.866667	1	-0.021875
38.883333	1	-0.021750
38.900000	1	-0.021375
38.916667	1	-0.021250
38.933333	1	-0.021000
38.950000	1	-0.021000
38.966667	1	-0.020500
38.983333	1	-0.020250
39.000000	1	-0.020250
39.016667	1	-0.020000
39.033333	1	-0.020000
39.050000	1	-0.019375
39.066667	1	-0.019375
39.083333	1	-0.019250
39.100000	1	-0.019000
39.116667	1	-0.018875
39.133333	1	-0.018250
39.150000	1	-0.018125
39.166667	1	-0.018375
39.183333	1	-0.017125
39.200000	1	-0.017000
39.216667	1	-0.016875
39.233333	1	-0.016250
39.250000	1	-0.016250
39.266667	1	-0.015250
39.283333	1	-0.014250
39.300000	1	-0.013375
39.316667	1	-0.013000
39.333333	1	-0.012750
39.350000	1	-0.012125
39.366667	1	-0.011625
39.383333	1	-0.011125
39.400000	1	-0.010625
39.416667	1	-0.009750
39.433333	1	-0.008375
39.450000	1	-0.007875
39.466667	1	-0.007375
39.483333	1	-0.006500
39.500000	1	-0.005250
39.516667	1	-0.004375
39.533333	1	-0.003375
39.550000	1	-0.002125
39.566667	1	-0.000875
39.583333	1	0.000375
39.600000	1	0.001375
39.616667	1	0.002625
39.633333	1	0.003375
39.650000	1	0.003875
39.666667	1	0.005750
39.683333	1	0.007250
39.700000	1	0.008750
39.716667	1	0.010250
39.733333	1	0.011625
39.750000	1	0.012500
39.766667	1	0.013750
39.783333	1	0.014375
39.800000	1	0.016250
39.816667	1	0.017250
39.833333	1	0.019375
39.850000	1	0.021000
39.866667	1	0.022500
39.883333	1	0.023625
39.900000	1	0.025250
39.916667	1	0.026625
39.933333	1	0.027375
39.950000	1	0.028125
39.966667	1	0.029125
39.983333	1	0.030250
40.000000	1	0.031375
