File Path	chrom://marshall/Chromeleon7/HPLC_Ultimate_3000/Users/markusar/20230531_CMO_stabTest _FP08_FP09.seq/469.smp/RI_1.channel/RI_1.chm
Channel	RI_1

Injection Information:
Data Vault	Chromeleon7
Injection	FP09__7_s3
Injection Number	75
Position	BE2
Comment	
Processing Method	
Instrument Method	run_25B_method
Type	Unknown
Status	Finished
Injection Date	03.06.2023
Injection Time	17:12:24
Injection Volume (µl)	20.000
Dilution Factor	1.0000
Weight	1.0000

Chromatogram Data Information:
Time Min. (min)	0.000000
Time Max. (min)	40.000000
Data Points	2401
Detector	RI
Generating Data System	Chromeleon 7.2.5.9507
Exporting Data System	Chromeleon 7.2.5.0
Operator	Instrument Controller
Signal Quantity	Refractive 
Signal Unit	µRIU
Signal Min.	-0.815000
Signal Max.	48.345125
Channel	RI_1
Driver Name	RID520Driver.dll
Channel Type	Evaluation
Min. Step (s)	1
Max. Step (s)	1
Average Step (s)	1

Signal Parameter Information:
Signal Info	

Chromatogram Data:
Time (min)	Step (s)	Value (µRIU)
0.000000	n.a.	-0.062500
0.016667	1	-0.063750
0.033333	1	-0.064375
0.050000	1	-0.065000
0.066667	1	-0.065625
0.083333	1	-0.066250
0.100000	1	-0.066625
0.116667	1	-0.067875
0.133333	1	-0.069125
0.150000	1	-0.070250
0.166667	1	-0.070500
0.183333	1	-0.071250
0.200000	1	-0.071875
0.216667	1	-0.072000
0.233333	1	-0.073000
0.250000	1	-0.073250
0.266667	1	-0.073625
0.283333	1	-0.075625
0.300000	1	-0.078500
0.316667	1	-0.082625
0.333333	1	-0.085750
0.350000	1	-0.085500
0.366667	1	-0.083125
0.383333	1	-0.079250
0.400000	1	-0.076250
0.416667	1	-0.074125
0.433333	1	-0.071500
0.450000	1	-0.069375
0.466667	1	-0.068625
0.483333	1	-0.068500
0.500000	1	-0.070375
0.516667	1	-0.072750
0.533333	1	-0.075500
0.550000	1	-0.076875
0.566667	1	-0.078500
0.583333	1	-0.079625
0.600000	1	-0.081250
0.616667	1	-0.081875
0.633333	1	-0.082000
0.650000	1	-0.082375
0.666667	1	-0.082750
0.683333	1	-0.082875
0.700000	1	-0.083250
0.716667	1	-0.084250
0.733333	1	-0.083875
0.750000	1	-0.084000
0.766667	1	-0.083125
0.783333	1	-0.083125
0.800000	1	-0.083125
0.816667	1	-0.083125
0.833333	1	-0.082875
0.850000	1	-0.082500
0.866667	1	-0.082375
0.883333	1	-0.082250
0.900000	1	-0.082250
0.916667	1	-0.082000
0.933333	1	-0.081750
0.950000	1	-0.081750
0.966667	1	-0.081500
0.983333	1	-0.081500
1.000000	1	-0.081375
1.016667	1	-0.080875
1.033333	1	-0.081000
1.050000	1	-0.080875
1.066667	1	-0.080875
1.083333	1	-0.081375
1.100000	1	-0.081750
1.116667	1	-0.081500
1.133333	1	-0.081875
1.150000	1	-0.082125
1.166667	1	-0.082250
1.183333	1	-0.082375
1.200000	1	-0.082750
1.216667	1	-0.083500
1.233333	1	-0.083625
1.250000	1	-0.083875
1.266667	1	-0.084625
1.283333	1	-0.084875
1.300000	1	-0.085000
1.316667	1	-0.086125
1.333333	1	-0.086375
1.350000	1	-0.086500
1.366667	1	-0.086500
1.383333	1	-0.086875
1.400000	1	-0.088000
1.416667	1	-0.087875
1.433333	1	-0.087000
1.450000	1	-0.087375
1.466667	1	-0.087500
1.483333	1	-0.088500
1.500000	1	-0.088750
1.516667	1	-0.089625
1.533333	1	-0.089250
1.550000	1	-0.090000
1.566667	1	-0.089750
1.583333	1	-0.090000
1.600000	1	-0.090750
1.616667	1	-0.090875
1.633333	1	-0.090500
1.650000	1	-0.090625
1.666667	1	-0.090125
1.683333	1	-0.090250
1.700000	1	-0.091125
1.716667	1	-0.091125
1.733333	1	-0.091500
1.750000	1	-0.091625
1.766667	1	-0.091625
1.783333	1	-0.091625
1.800000	1	-0.091875
1.816667	1	-0.091000
1.833333	1	-0.091125
1.850000	1	-0.090750
1.866667	1	-0.090750
1.883333	1	-0.091125
1.900000	1	-0.091250
1.916667	1	-0.091625
1.933333	1	-0.091875
1.950000	1	-0.091625
1.966667	1	-0.092000
1.983333	1	-0.092250
2.000000	1	-0.092125
2.016667	1	-0.092000
2.033333	1	-0.091125
2.050000	1	-0.090625
2.066667	1	-0.091000
2.083333	1	-0.091250
2.100000	1	-0.090625
2.116667	1	-0.090625
2.133333	1	-0.090000
2.150000	1	-0.090250
2.166667	1	-0.089875
2.183333	1	-0.089375
2.200000	1	-0.088625
2.216667	1	-0.087875
2.233333	1	-0.087125
2.250000	1	-0.086500
2.266667	1	-0.085750
2.283333	1	-0.084875
2.300000	1	-0.083750
2.316667	1	-0.083125
2.333333	1	-0.082250
2.350000	1	-0.081250
2.366667	1	-0.079875
2.383333	1	-0.078750
2.400000	1	-0.077625
2.416667	1	-0.077000
2.433333	1	-0.076000
2.450000	1	-0.075500
2.466667	1	-0.074500
2.483333	1	-0.072750
2.500000	1	-0.071750
2.516667	1	-0.070500
2.533333	1	-0.069875
2.550000	1	-0.068875
2.566667	1	-0.067375
2.583333	1	-0.066750
2.600000	1	-0.065375
2.616667	1	-0.064375
2.633333	1	-0.063500
2.650000	1	-0.062750
2.666667	1	-0.061750
2.683333	1	-0.061250
2.700000	1	-0.060875
2.716667	1	-0.059750
2.733333	1	-0.059000
2.750000	1	-0.059000
2.766667	1	-0.058625
2.783333	1	-0.057875
2.800000	1	-0.057875
2.816667	1	-0.058000
2.833333	1	-0.058000
2.850000	1	-0.058375
2.866667	1	-0.058375
2.883333	1	-0.059750
2.900000	1	-0.059500
2.916667	1	-0.059875
2.933333	1	-0.060250
2.950000	1	-0.061250
2.966667	1	-0.061125
2.983333	1	-0.061000
3.000000	1	-0.061250
3.016667	1	-0.061375
3.033333	1	-0.062375
3.050000	1	-0.063375
3.066667	1	-0.063750
3.083333	1	-0.064125
3.100000	1	-0.065375
3.116667	1	-0.066375
3.133333	1	-0.067125
3.150000	1	-0.067500
3.166667	1	-0.068625
3.183333	1	-0.069375
3.200000	1	-0.069500
3.216667	1	-0.069750
3.233333	1	-0.070000
3.250000	1	-0.070375
3.266667	1	-0.070875
3.283333	1	-0.071750
3.300000	1	-0.072125
3.316667	1	-0.072750
3.333333	1	-0.073375
3.350000	1	-0.074000
3.366667	1	-0.074250
3.383333	1	-0.074875
3.400000	1	-0.074750
3.416667	1	-0.075375
3.433333	1	-0.075625
3.450000	1	-0.075875
3.466667	1	-0.076250
3.483333	1	-0.076625
3.500000	1	-0.077000
3.516667	1	-0.077250
3.533333	1	-0.077125
3.550000	1	-0.077375
3.566667	1	-0.077125
3.583333	1	-0.077875
3.600000	1	-0.077750
3.616667	1	-0.077375
3.633333	1	-0.077875
3.650000	1	-0.078250
3.666667	1	-0.078375
3.683333	1	-0.078250
3.700000	1	-0.079375
3.716667	1	-0.079500
3.733333	1	-0.079000
3.750000	1	-0.079250
3.766667	1	-0.078875
3.783333	1	-0.079250
3.800000	1	-0.079875
3.816667	1	-0.079750
3.833333	1	-0.079500
3.850000	1	-0.079500
3.866667	1	-0.079625
3.883333	1	-0.079750
3.900000	1	-0.080250
3.916667	1	-0.080500
3.933333	1	-0.081125
3.950000	1	-0.081125
3.966667	1	-0.081625
3.983333	1	-0.081375
4.000000	1	-0.082250
4.016667	1	-0.082375
4.033333	1	-0.082750
4.050000	1	-0.082500
4.066667	1	-0.083250
4.083333	1	-0.083625
4.100000	1	-0.083625
4.116667	1	-0.083000
4.133333	1	-0.083125
4.150000	1	-0.083250
4.166667	1	-0.083750
4.183333	1	-0.083375
4.200000	1	-0.083125
4.216667	1	-0.083250
4.233333	1	-0.083250
4.250000	1	-0.083875
4.266667	1	-0.083875
4.283333	1	-0.084000
4.300000	1	-0.083375
4.316667	1	-0.083750
4.333333	1	-0.084125
4.350000	1	-0.084375
4.366667	1	-0.084000
4.383333	1	-0.083625
4.400000	1	-0.083750
4.416667	1	-0.083125
4.433333	1	-0.083125
4.450000	1	-0.082875
4.466667	1	-0.082625
4.483333	1	-0.082500
4.500000	1	-0.082250
4.516667	1	-0.082000
4.533333	1	-0.081750
4.550000	1	-0.080875
4.566667	1	-0.080125
4.583333	1	-0.079125
4.600000	1	-0.078375
4.616667	1	-0.077625
4.633333	1	-0.076625
4.650000	1	-0.075375
4.666667	1	-0.075250
4.683333	1	-0.074125
4.700000	1	-0.073000
4.716667	1	-0.071375
4.733333	1	-0.070250
4.750000	1	-0.068750
4.766667	1	-0.066500
4.783333	1	-0.064625
4.800000	1	-0.063250
4.816667	1	-0.061250
4.833333	1	-0.059625
4.850000	1	-0.058125
4.866667	1	-0.055875
4.883333	1	-0.054375
4.900000	1	-0.052875
4.916667	1	-0.051125
4.933333	1	-0.049375
4.950000	1	-0.047250
4.966667	1	-0.045125
4.983333	1	-0.043000
5.000000	1	-0.041000
5.016667	1	-0.039500
5.033333	1	-0.037625
5.050000	1	-0.036250
5.066667	1	-0.034125
5.083333	1	-0.032500
5.100000	1	-0.031000
5.116667	1	-0.029625
5.133333	1	-0.028250
5.150000	1	-0.027500
5.166667	1	-0.026250
5.183333	1	-0.025250
5.200000	1	-0.023375
5.216667	1	-0.021625
5.233333	1	-0.021250
5.250000	1	-0.020750
5.266667	1	-0.020625
5.283333	1	-0.020375
5.300000	1	-0.020500
5.316667	1	-0.020000
5.333333	1	-0.020250
5.350000	1	-0.019750
5.366667	1	-0.019375
5.383333	1	-0.019125
5.400000	1	-0.019500
5.416667	1	-0.020125
5.433333	1	-0.020250
5.450000	1	-0.020125
5.466667	1	-0.020500
5.483333	1	-0.021000
5.500000	1	-0.021625
5.516667	1	-0.022625
5.533333	1	-0.023250
5.550000	1	-0.023250
5.566667	1	-0.024000
5.583333	1	-0.024500
5.600000	1	-0.024625
5.616667	1	-0.024750
5.633333	1	-0.025500
5.650000	1	-0.026500
5.666667	1	-0.027625
5.683333	1	-0.027750
5.700000	1	-0.028125
5.716667	1	-0.029250
5.733333	1	-0.029375
5.750000	1	-0.029375
5.766667	1	-0.029375
5.783333	1	-0.029750
5.800000	1	-0.029375
5.816667	1	-0.030375
5.833333	1	-0.030625
5.850000	1	-0.030750
5.866667	1	-0.030875
5.883333	1	-0.030625
5.900000	1	-0.030500
5.916667	1	-0.030875
5.933333	1	-0.031625
5.950000	1	-0.031500
5.966667	1	-0.031125
5.983333	1	-0.030750
6.000000	1	-0.029875
6.016667	1	-0.029750
6.033333	1	-0.029375
6.050000	1	-0.029000
6.066667	1	-0.028375
6.083333	1	-0.027875
6.100000	1	-0.026875
6.116667	1	-0.026250
6.133333	1	-0.025750
6.150000	1	-0.025500
6.166667	1	-0.024625
6.183333	1	-0.023375
6.200000	1	-0.021875
6.216667	1	-0.020750
6.233333	1	-0.019250
6.250000	1	-0.018125
6.266667	1	-0.016750
6.283333	1	-0.015500
6.300000	1	-0.014000
6.316667	1	-0.012250
6.333333	1	-0.010375
6.350000	1	-0.008750
6.366667	1	-0.007000
6.383333	1	-0.005750
6.400000	1	-0.003625
6.416667	1	-0.001750
6.433333	1	0.000000
6.450000	1	0.001875
6.466667	1	0.003875
6.483333	1	0.006250
6.500000	1	0.007750
6.516667	1	0.009250
6.533333	1	0.010875
6.550000	1	0.012875
6.566667	1	0.014875
6.583333	1	0.015875
6.600000	1	0.017875
6.616667	1	0.018875
6.633333	1	0.019750
6.650000	1	0.020875
6.666667	1	0.021125
6.683333	1	0.021625
6.700000	1	0.021750
6.716667	1	0.022375
6.733333	1	0.022375
6.750000	1	0.022250
6.766667	1	0.022125
6.783333	1	0.022125
6.800000	1	0.021500
6.816667	1	0.020625
6.833333	1	0.019375
6.850000	1	0.018375
6.866667	1	0.017125
6.883333	1	0.015375
6.900000	1	0.014125
6.916667	1	0.012250
6.933333	1	0.011000
6.950000	1	0.009250
6.966667	1	0.007750
6.983333	1	0.005125
7.000000	1	0.003125
7.016667	1	0.000875
7.033333	1	-0.001125
7.050000	1	-0.003500
7.066667	1	-0.005625
7.083333	1	-0.007750
7.100000	1	-0.009875
7.116667	1	-0.012875
7.133333	1	-0.015125
7.150000	1	-0.017500
7.166667	1	-0.019875
7.183333	1	-0.022500
7.200000	1	-0.024625
7.216667	1	-0.026375
7.233333	1	-0.029000
7.250000	1	-0.030875
7.266667	1	-0.032875
7.283333	1	-0.034875
7.300000	1	-0.036625
7.316667	1	-0.038375
7.333333	1	-0.040250
7.350000	1	-0.041875
7.366667	1	-0.043500
7.383333	1	-0.045125
7.400000	1	-0.046250
7.416667	1	-0.047750
7.433333	1	-0.048625
7.450000	1	-0.050125
7.466667	1	-0.051500
7.483333	1	-0.052500
7.500000	1	-0.053750
7.516667	1	-0.054625
7.533333	1	-0.055250
7.550000	1	-0.056000
7.566667	1	-0.056500
7.583333	1	-0.056750
7.600000	1	-0.057125
7.616667	1	-0.057125
7.633333	1	-0.057375
7.650000	1	-0.057750
7.666667	1	-0.057750
7.683333	1	-0.057625
7.700000	1	-0.056750
7.716667	1	-0.056500
7.733333	1	-0.056500
7.750000	1	-0.056000
7.766667	1	-0.055125
7.783333	1	-0.054500
7.800000	1	-0.053625
7.816667	1	-0.052250
7.833333	1	-0.050875
7.850000	1	-0.049750
7.866667	1	-0.049250
7.883333	1	-0.048500
7.900000	1	-0.046875
7.916667	1	-0.046000
7.933333	1	-0.044500
7.950000	1	-0.043500
7.966667	1	-0.041500
7.983333	1	-0.040375
8.000000	1	-0.039125
8.016667	1	-0.037500
8.033333	1	-0.035625
8.050000	1	-0.033875
8.066667	1	-0.031375
8.083333	1	-0.030000
8.100000	1	-0.028250
8.116667	1	-0.027000
8.133333	1	-0.025250
8.150000	1	-0.023125
8.166667	1	-0.020875
8.183333	1	-0.019625
8.200000	1	-0.017875
8.216667	1	-0.016000
8.233333	1	-0.014375
8.250000	1	-0.012375
8.266667	1	-0.011125
8.283333	1	-0.009625
8.300000	1	-0.006875
8.316667	1	-0.005250
8.333333	1	-0.003125
8.350000	1	-0.002000
8.366667	1	-0.000625
8.383333	1	0.001000
8.400000	1	0.002875
8.416667	1	0.003500
8.433333	1	0.004875
8.450000	1	0.006750
8.466667	1	0.008750
8.483333	1	0.009875
8.500000	1	0.012625
8.516667	1	0.014625
8.533333	1	0.017000
8.550000	1	0.019250
8.566667	1	0.020875
8.583333	1	0.022500
8.600000	1	0.023250
8.616667	1	0.024625
8.633333	1	0.026125
8.650000	1	0.026875
8.666667	1	0.027500
8.683333	1	0.028375
8.700000	1	0.028750
8.716667	1	0.028500
8.733333	1	0.029500
8.750000	1	0.030375
8.766667	1	0.030500
8.783333	1	0.030750
8.800000	1	0.031750
8.816667	1	0.032625
8.833333	1	0.033000
8.850000	1	0.033375
8.866667	1	0.033250
8.883333	1	0.032875
8.900000	1	0.033250
8.916667	1	0.033500
8.933333	1	0.033375
8.950000	1	0.034000
8.966667	1	0.033625
8.983333	1	0.033875
9.000000	1	0.033750
9.016667	1	0.033750
9.033333	1	0.033625
9.050000	1	0.033750
9.066667	1	0.033750
9.083333	1	0.034000
9.100000	1	0.033625
9.116667	1	0.033500
9.133333	1	0.034125
9.150000	1	0.033625
9.166667	1	0.033875
9.183333	1	0.033875
9.200000	1	0.034000
9.216667	1	0.033375
9.233333	1	0.033500
9.250000	1	0.033375
9.266667	1	0.033500
9.283333	1	0.033750
9.300000	1	0.033750
9.316667	1	0.033500
9.333333	1	0.034125
9.350000	1	0.034125
9.366667	1	0.034125
9.383333	1	0.033875
9.400000	1	0.033750
9.416667	1	0.033375
9.433333	1	0.034000
9.450000	1	0.034375
9.466667	1	0.034875
9.483333	1	0.036125
9.500000	1	0.037000
9.516667	1	0.038625
9.533333	1	0.040500
9.550000	1	0.044000
9.566667	1	0.047625
9.583333	1	0.052750
9.600000	1	0.058375
9.616667	1	0.065750
9.633333	1	0.074875
9.650000	1	0.086125
9.666667	1	0.098875
9.683333	1	0.113625
9.700000	1	0.130000
9.716667	1	0.149375
9.733333	1	0.170000
9.750000	1	0.191000
9.766667	1	0.212000
9.783333	1	0.230125
9.800000	1	0.245500
9.816667	1	0.257250
9.833333	1	0.264750
9.850000	1	0.263875
9.866667	1	0.253625
9.883333	1	0.230125
9.900000	1	0.193375
9.916667	1	0.150625
9.933333	1	0.122250
9.950000	1	0.145625
9.966667	1	0.273625
9.983333	1	0.568375
10.000000	1	1.093375
10.016667	1	1.904625
10.033333	1	3.047875
10.050000	1	4.550625
10.066667	1	6.428500
10.083333	1	8.682750
10.100000	1	11.298750
10.116667	1	14.249500
10.133333	1	17.488500
10.150000	1	20.948250
10.166667	1	24.539875
10.183333	1	28.146125
10.200000	1	31.622375
10.216667	1	34.800375
10.233333	1	37.499250
10.250000	1	39.542000
10.266667	1	40.788250
10.283333	1	41.157500
10.300000	1	40.643375
10.316667	1	39.319375
10.333333	1	37.325000
10.350000	1	34.839125
10.366667	1	32.053125
10.383333	1	29.146250
10.400000	1	26.261125
10.416667	1	23.505750
10.433333	1	20.949250
10.450000	1	18.629625
10.466667	1	16.555875
10.483333	1	14.720625
10.500000	1	13.106500
10.516667	1	11.692125
10.533333	1	10.453250
10.550000	1	9.368250
10.566667	1	8.416250
10.583333	1	7.578250
10.600000	1	6.840750
10.616667	1	6.190875
10.633333	1	5.617750
10.650000	1	5.113625
10.666667	1	4.670625
10.683333	1	4.280875
10.700000	1	3.938625
10.716667	1	3.636875
10.733333	1	3.370875
10.750000	1	3.135250
10.766667	1	2.925500
10.783333	1	2.738500
10.800000	1	2.571750
10.816667	1	2.421750
10.833333	1	2.286750
10.850000	1	2.164125
10.866667	1	2.053375
10.883333	1	1.952875
10.900000	1	1.861375
10.916667	1	1.777125
10.933333	1	1.700375
10.950000	1	1.630125
10.966667	1	1.565500
10.983333	1	1.506125
11.000000	1	1.452000
11.016667	1	1.401625
11.033333	1	1.355875
11.050000	1	1.313750
11.066667	1	1.274625
11.083333	1	1.238500
11.100000	1	1.204625
11.116667	1	1.174250
11.133333	1	1.145625
11.150000	1	1.118750
11.166667	1	1.094750
11.183333	1	1.072500
11.200000	1	1.052000
11.216667	1	1.032250
11.233333	1	1.013875
11.250000	1	0.996500
11.266667	1	0.980875
11.283333	1	0.966000
11.300000	1	0.952500
11.316667	1	0.939750
11.333333	1	0.928250
11.350000	1	0.916250
11.366667	1	0.906125
11.383333	1	0.896250
11.400000	1	0.888000
11.416667	1	0.881250
11.433333	1	0.874250
11.450000	1	0.869000
11.466667	1	0.864500
11.483333	1	0.861125
11.500000	1	0.858375
11.516667	1	0.856750
11.533333	1	0.855125
11.550000	1	0.854500
11.566667	1	0.854125
11.583333	1	0.853625
11.600000	1	0.854125
11.616667	1	0.855125
11.633333	1	0.856250
11.650000	1	0.857500
11.666667	1	0.858000
11.683333	1	0.858750
11.700000	1	0.859625
11.716667	1	0.860625
11.733333	1	0.860375
11.750000	1	0.860375
11.766667	1	0.860250
11.783333	1	0.859750
11.800000	1	0.859625
11.816667	1	0.860375
11.833333	1	0.861625
11.850000	1	0.863375
11.866667	1	0.866375
11.883333	1	0.871125
11.900000	1	0.876875
11.916667	1	0.883875
11.933333	1	0.892500
11.950000	1	0.902750
11.966667	1	0.915500
11.983333	1	0.930000
12.000000	1	0.947250
12.016667	1	0.967125
12.033333	1	0.989625
12.050000	1	1.016125
12.066667	1	1.046625
12.083333	1	1.082375
12.100000	1	1.125125
12.116667	1	1.176375
12.133333	1	1.239250
12.150000	1	1.315875
12.166667	1	1.407750
12.183333	1	1.517625
12.200000	1	1.647875
12.216667	1	1.800125
12.233333	1	1.976500
12.250000	1	2.177500
12.266667	1	2.404000
12.283333	1	2.658375
12.300000	1	2.941625
12.316667	1	3.256250
12.333333	1	3.604250
12.350000	1	3.987250
12.366667	1	4.408375
12.383333	1	4.868500
12.400000	1	5.368500
12.416667	1	5.907375
12.433333	1	6.481250
12.450000	1	7.081875
12.466667	1	7.698625
12.483333	1	8.314500
12.500000	1	8.910500
12.516667	1	9.463500
12.533333	1	9.949750
12.550000	1	10.351125
12.566667	1	10.657875
12.583333	1	10.865375
12.600000	1	10.979875
12.616667	1	11.009125
12.633333	1	10.964625
12.650000	1	10.859500
12.666667	1	10.704750
12.683333	1	10.512750
12.700000	1	10.292625
12.716667	1	10.052750
12.733333	1	9.800000
12.750000	1	9.541500
12.766667	1	9.280500
12.783333	1	9.021500
12.800000	1	8.766750
12.816667	1	8.519000
12.833333	1	8.279500
12.850000	1	8.048250
12.866667	1	7.824500
12.883333	1	7.607875
12.900000	1	7.396750
12.916667	1	7.190000
12.933333	1	6.986875
12.950000	1	6.785500
12.966667	1	6.585250
12.983333	1	6.384500
13.000000	1	6.180625
13.016667	1	5.972250
13.033333	1	5.757625
13.050000	1	5.534500
13.066667	1	5.301875
13.083333	1	5.056375
13.100000	1	4.794500
13.116667	1	4.515125
13.133333	1	4.214875
13.150000	1	3.891875
13.166667	1	3.547875
13.183333	1	3.188500
13.200000	1	2.825625
13.216667	1	2.478500
13.233333	1	2.164625
13.250000	1	1.896750
13.266667	1	1.677375
13.283333	1	1.501875
13.300000	1	1.363000
13.316667	1	1.252250
13.333333	1	1.162375
13.350000	1	1.088000
13.366667	1	1.026375
13.383333	1	0.973875
13.400000	1	0.929125
13.416667	1	0.890000
13.433333	1	0.855500
13.450000	1	0.825250
13.466667	1	0.798500
13.483333	1	0.775625
13.500000	1	0.755625
13.516667	1	0.738250
13.533333	1	0.723250
13.550000	1	0.711125
13.566667	1	0.700875
13.583333	1	0.693500
13.600000	1	0.687750
13.616667	1	0.683500
13.633333	1	0.681375
13.650000	1	0.679750
13.666667	1	0.678625
13.683333	1	0.677875
13.700000	1	0.676625
13.716667	1	0.674250
13.733333	1	0.670750
13.750000	1	0.666125
13.766667	1	0.660750
13.783333	1	0.654375
13.800000	1	0.646875
13.816667	1	0.638500
13.833333	1	0.628500
13.850000	1	0.617250
13.866667	1	0.606250
13.883333	1	0.593875
13.900000	1	0.581125
13.916667	1	0.568375
13.933333	1	0.556125
13.950000	1	0.544375
13.966667	1	0.532750
13.983333	1	0.521125
14.000000	1	0.510250
14.016667	1	0.500000
14.033333	1	0.492000
14.050000	1	0.484375
14.066667	1	0.477250
14.083333	1	0.470750
14.100000	1	0.465000
14.116667	1	0.461500
14.133333	1	0.458375
14.150000	1	0.456750
14.166667	1	0.456625
14.183333	1	0.457875
14.200000	1	0.461125
14.216667	1	0.466625
14.233333	1	0.474250
14.250000	1	0.485500
14.266667	1	0.499375
14.283333	1	0.517250
14.300000	1	0.539375
14.316667	1	0.567625
14.333333	1	0.602375
14.350000	1	0.644375
14.366667	1	0.695750
14.383333	1	0.756750
14.400000	1	0.828750
14.416667	1	0.914375
14.433333	1	1.013625
14.450000	1	1.129250
14.466667	1	1.262625
14.483333	1	1.417125
14.500000	1	1.595000
14.516667	1	1.799000
14.533333	1	2.033375
14.550000	1	2.303375
14.566667	1	2.613875
14.583333	1	2.973625
14.600000	1	3.393750
14.616667	1	3.888625
14.633333	1	4.476875
14.650000	1	5.180875
14.666667	1	6.029500
14.683333	1	7.053250
14.700000	1	8.285500
14.716667	1	9.758875
14.733333	1	11.503375
14.750000	1	13.541875
14.766667	1	15.884875
14.783333	1	18.524000
14.800000	1	21.437250
14.816667	1	24.578875
14.833333	1	27.883750
14.850000	1	31.264125
14.866667	1	34.616875
14.883333	1	37.823500
14.900000	1	40.765625
14.916667	1	43.333625
14.933333	1	45.433000
14.950000	1	46.992500
14.966667	1	47.968250
14.983333	1	48.345125
15.000000	1	48.135875
15.016667	1	47.376375
15.033333	1	46.122125
15.050000	1	44.441500
15.066667	1	42.414250
15.083333	1	40.122125
15.100000	1	37.649000
15.116667	1	35.072375
15.133333	1	32.457875
15.150000	1	29.861250
15.166667	1	27.330625
15.183333	1	24.902125
15.200000	1	22.599500
15.216667	1	20.438625
15.233333	1	18.429250
15.250000	1	16.575000
15.266667	1	14.876250
15.283333	1	13.329375
15.300000	1	11.928375
15.316667	1	10.666125
15.333333	1	9.533875
15.350000	1	8.520625
15.366667	1	7.618500
15.383333	1	6.818625
15.400000	1	6.110750
15.416667	1	5.486000
15.433333	1	4.936250
15.450000	1	4.454000
15.466667	1	4.032125
15.483333	1	3.664750
15.500000	1	3.346500
15.516667	1	3.071625
15.533333	1	2.834875
15.550000	1	2.631750
15.566667	1	2.458500
15.583333	1	2.310750
15.600000	1	2.184000
15.616667	1	2.075000
15.633333	1	1.980500
15.650000	1	1.897500
15.666667	1	1.823000
15.683333	1	1.753875
15.700000	1	1.689750
15.716667	1	1.628875
15.733333	1	1.570000
15.750000	1	1.513125
15.766667	1	1.458250
15.783333	1	1.404625
15.800000	1	1.352500
15.816667	1	1.303375
15.833333	1	1.255625
15.850000	1	1.209375
15.866667	1	1.165875
15.883333	1	1.124750
15.900000	1	1.085000
15.916667	1	1.048375
15.933333	1	1.014750
15.950000	1	0.982750
15.966667	1	0.954250
15.983333	1	0.928125
16.000000	1	0.903625
16.016667	1	0.881875
16.033333	1	0.862875
16.050000	1	0.845750
16.066667	1	0.832000
16.083333	1	0.819750
16.100000	1	0.809625
16.116667	1	0.801875
16.133333	1	0.795875
16.150000	1	0.791875
16.166667	1	0.789375
16.183333	1	0.787500
16.200000	1	0.787000
16.216667	1	0.786125
16.233333	1	0.785125
16.250000	1	0.784250
16.266667	1	0.782375
16.283333	1	0.779750
16.300000	1	0.775875
16.316667	1	0.771875
16.333333	1	0.766750
16.350000	1	0.761125
16.366667	1	0.755250
16.383333	1	0.748625
16.400000	1	0.742000
16.416667	1	0.735750
16.433333	1	0.729875
16.450000	1	0.724000
16.466667	1	0.718250
16.483333	1	0.712750
16.500000	1	0.708250
16.516667	1	0.705750
16.533333	1	0.704000
16.550000	1	0.702625
16.566667	1	0.701750
16.583333	1	0.701625
16.600000	1	0.703250
16.616667	1	0.705125
16.633333	1	0.708125
16.650000	1	0.712125
16.666667	1	0.715750
16.683333	1	0.719750
16.700000	1	0.724500
16.716667	1	0.729875
16.733333	1	0.735125
16.750000	1	0.740375
16.766667	1	0.745000
16.783333	1	0.749375
16.800000	1	0.753250
16.816667	1	0.756250
16.833333	1	0.758625
16.850000	1	0.760250
16.866667	1	0.760875
16.883333	1	0.760875
16.900000	1	0.760750
16.916667	1	0.759625
16.933333	1	0.757750
16.950000	1	0.756250
16.966667	1	0.755875
16.983333	1	0.756500
17.000000	1	0.756875
17.016667	1	0.757250
17.033333	1	0.758000
17.050000	1	0.759750
17.066667	1	0.761000
17.083333	1	0.761750
17.100000	1	0.762500
17.116667	1	0.763250
17.133333	1	0.763000
17.150000	1	0.762375
17.166667	1	0.760500
17.183333	1	0.757125
17.200000	1	0.753125
17.216667	1	0.748750
17.233333	1	0.742875
17.250000	1	0.735875
17.266667	1	0.729375
17.283333	1	0.721875
17.300000	1	0.714125
17.316667	1	0.706000
17.333333	1	0.697625
17.350000	1	0.689875
17.366667	1	0.682250
17.383333	1	0.675000
17.400000	1	0.668625
17.416667	1	0.662500
17.433333	1	0.657625
17.450000	1	0.653250
17.466667	1	0.650125
17.483333	1	0.647625
17.500000	1	0.646000
17.516667	1	0.646375
17.533333	1	0.648875
17.550000	1	0.651875
17.566667	1	0.656000
17.583333	1	0.662000
17.600000	1	0.668875
17.616667	1	0.677125
17.633333	1	0.686125
17.650000	1	0.696125
17.666667	1	0.707250
17.683333	1	0.718875
17.700000	1	0.731125
17.716667	1	0.744375
17.733333	1	0.758000
17.750000	1	0.771500
17.766667	1	0.785125
17.783333	1	0.798500
17.800000	1	0.810875
17.816667	1	0.822750
17.833333	1	0.834125
17.850000	1	0.843750
17.866667	1	0.852125
17.883333	1	0.858500
17.900000	1	0.863375
17.916667	1	0.866500
17.933333	1	0.868375
17.950000	1	0.867500
17.966667	1	0.865250
17.983333	1	0.861250
18.000000	1	0.855750
18.016667	1	0.847875
18.033333	1	0.838375
18.050000	1	0.828125
18.066667	1	0.816375
18.083333	1	0.803625
18.100000	1	0.791000
18.116667	1	0.777125
18.133333	1	0.762750
18.150000	1	0.749375
18.166667	1	0.735000
18.183333	1	0.721250
18.200000	1	0.708000
18.216667	1	0.694625
18.233333	1	0.682250
18.250000	1	0.670250
18.266667	1	0.658875
18.283333	1	0.649250
18.300000	1	0.640000
18.316667	1	0.632750
18.333333	1	0.626125
18.350000	1	0.620500
18.366667	1	0.615500
18.383333	1	0.611500
18.400000	1	0.608625
18.416667	1	0.606375
18.433333	1	0.605250
18.450000	1	0.603875
18.466667	1	0.603375
18.483333	1	0.603500
18.500000	1	0.604250
18.516667	1	0.605375
18.533333	1	0.606500
18.550000	1	0.608125
18.566667	1	0.610000
18.583333	1	0.611875
18.600000	1	0.614875
18.616667	1	0.617375
18.633333	1	0.620625
18.650000	1	0.624875
18.666667	1	0.628750
18.683333	1	0.633625
18.700000	1	0.639250
18.716667	1	0.645000
18.733333	1	0.651625
18.750000	1	0.657875
18.766667	1	0.665625
18.783333	1	0.673625
18.800000	1	0.682625
18.816667	1	0.692000
18.833333	1	0.702375
18.850000	1	0.712500
18.866667	1	0.724125
18.883333	1	0.736375
18.900000	1	0.750750
18.916667	1	0.765875
18.933333	1	0.782500
18.950000	1	0.801500
18.966667	1	0.822750
18.983333	1	0.846500
19.000000	1	0.872250
19.016667	1	0.900750
19.033333	1	0.931500
19.050000	1	0.964625
19.066667	1	0.999375
19.083333	1	1.035500
19.100000	1	1.072750
19.116667	1	1.111250
19.133333	1	1.148875
19.150000	1	1.186000
19.166667	1	1.221375
19.183333	1	1.254500
19.200000	1	1.283625
19.216667	1	1.308875
19.233333	1	1.328000
19.250000	1	1.342625
19.266667	1	1.352125
19.283333	1	1.355500
19.300000	1	1.353250
19.316667	1	1.345250
19.333333	1	1.331875
19.350000	1	1.313000
19.366667	1	1.289000
19.383333	1	1.261000
19.400000	1	1.229375
19.416667	1	1.193625
19.433333	1	1.156875
19.450000	1	1.117625
19.466667	1	1.077875
19.483333	1	1.037000
19.500000	1	0.996750
19.516667	1	0.955750
19.533333	1	0.916875
19.550000	1	0.879750
19.566667	1	0.843500
19.583333	1	0.810500
19.600000	1	0.779250
19.616667	1	0.750875
19.633333	1	0.723875
19.650000	1	0.700375
19.666667	1	0.680000
19.683333	1	0.663625
19.700000	1	0.650500
19.716667	1	0.640500
19.733333	1	0.634000
19.750000	1	0.631375
19.766667	1	0.632375
19.783333	1	0.636750
19.800000	1	0.644375
19.816667	1	0.655500
19.833333	1	0.669750
19.850000	1	0.687250
19.866667	1	0.708625
19.883333	1	0.731750
19.900000	1	0.756500
19.916667	1	0.783250
19.933333	1	0.811125
19.950000	1	0.839500
19.966667	1	0.868125
19.983333	1	0.896875
20.000000	1	0.926000
20.016667	1	0.953875
20.033333	1	0.981500
20.050000	1	1.008750
20.066667	1	1.036500
20.083333	1	1.064000
20.100000	1	1.092000
20.116667	1	1.121000
20.133333	1	1.152750
20.150000	1	1.187125
20.166667	1	1.225750
20.183333	1	1.270250
20.200000	1	1.321125
20.216667	1	1.379875
20.233333	1	1.447375
20.250000	1	1.525625
20.266667	1	1.614250
20.283333	1	1.716000
20.300000	1	1.829125
20.316667	1	1.954125
20.333333	1	2.091375
20.350000	1	2.238750
20.366667	1	2.393125
20.383333	1	2.553125
20.400000	1	2.715625
20.416667	1	2.876625
20.433333	1	3.032375
20.450000	1	3.179500
20.466667	1	3.313625
20.483333	1	3.431625
20.500000	1	3.530125
20.516667	1	3.606875
20.533333	1	3.659875
20.550000	1	3.689000
20.566667	1	3.693875
20.583333	1	3.674500
20.600000	1	3.633375
20.616667	1	3.573250
20.633333	1	3.495875
20.650000	1	3.405000
20.666667	1	3.302750
20.683333	1	3.194500
20.700000	1	3.082625
20.716667	1	2.971625
20.733333	1	2.862625
20.750000	1	2.758250
20.766667	1	2.661125
20.783333	1	2.571375
20.800000	1	2.490375
20.816667	1	2.418250
20.833333	1	2.354125
20.850000	1	2.297750
20.866667	1	2.247750
20.883333	1	2.202750
20.900000	1	2.160625
20.916667	1	2.119875
20.933333	1	2.079125
20.950000	1	2.036875
20.966667	1	1.991875
20.983333	1	1.944125
21.000000	1	1.891125
21.016667	1	1.833250
21.033333	1	1.771750
21.050000	1	1.705750
21.066667	1	1.636000
21.083333	1	1.564125
21.100000	1	1.490375
21.116667	1	1.416125
21.133333	1	1.341875
21.150000	1	1.268625
21.166667	1	1.196750
21.183333	1	1.126750
21.200000	1	1.059125
21.216667	1	0.994250
21.233333	1	0.933500
21.250000	1	0.876750
21.266667	1	0.823625
21.283333	1	0.774375
21.300000	1	0.729250
21.316667	1	0.688375
21.333333	1	0.650500
21.350000	1	0.616125
21.366667	1	0.585375
21.383333	1	0.557000
21.400000	1	0.532125
21.416667	1	0.509000
21.433333	1	0.488375
21.450000	1	0.470125
21.466667	1	0.453875
21.483333	1	0.439625
21.500000	1	0.426625
21.516667	1	0.415625
21.533333	1	0.405750
21.550000	1	0.396625
21.566667	1	0.388750
21.583333	1	0.381500
21.600000	1	0.375000
21.616667	1	0.369375
21.633333	1	0.364750
21.650000	1	0.360250
21.666667	1	0.356875
21.683333	1	0.354125
21.700000	1	0.352000
21.716667	1	0.350125
21.733333	1	0.349250
21.750000	1	0.349250
21.766667	1	0.350000
21.783333	1	0.352750
21.800000	1	0.355500
21.816667	1	0.359000
21.833333	1	0.363250
21.850000	1	0.369000
21.866667	1	0.375250
21.883333	1	0.381625
21.900000	1	0.389625
21.916667	1	0.397500
21.933333	1	0.405500
21.950000	1	0.414000
21.966667	1	0.421375
21.983333	1	0.428500
22.000000	1	0.435875
22.016667	1	0.442000
22.033333	1	0.447250
22.050000	1	0.451750
22.066667	1	0.455125
22.083333	1	0.456750
22.100000	1	0.457875
22.116667	1	0.457375
22.133333	1	0.456125
22.150000	1	0.453875
22.166667	1	0.450750
22.183333	1	0.447375
22.200000	1	0.443125
22.216667	1	0.439000
22.233333	1	0.434500
22.250000	1	0.430125
22.266667	1	0.425625
22.283333	1	0.421750
22.300000	1	0.418375
22.316667	1	0.415250
22.333333	1	0.412250
22.350000	1	0.409750
22.366667	1	0.409375
22.383333	1	0.409125
22.400000	1	0.409750
22.416667	1	0.410125
22.433333	1	0.411500
22.450000	1	0.412625
22.466667	1	0.415125
22.483333	1	0.418125
22.500000	1	0.420875
22.516667	1	0.424000
22.533333	1	0.428500
22.550000	1	0.432125
22.566667	1	0.436250
22.583333	1	0.439750
22.600000	1	0.444125
22.616667	1	0.447875
22.633333	1	0.451375
22.650000	1	0.455000
22.666667	1	0.457250
22.683333	1	0.460500
22.700000	1	0.462625
22.716667	1	0.464625
22.733333	1	0.465875
22.750000	1	0.466250
22.766667	1	0.466000
22.783333	1	0.465000
22.800000	1	0.463625
22.816667	1	0.461750
22.833333	1	0.460000
22.850000	1	0.456375
22.866667	1	0.452625
22.883333	1	0.448625
22.900000	1	0.444250
22.916667	1	0.439625
22.933333	1	0.435625
22.950000	1	0.431250
22.966667	1	0.426750
22.983333	1	0.421875
23.000000	1	0.417500
23.016667	1	0.413875
23.033333	1	0.410375
23.050000	1	0.406750
23.066667	1	0.404875
23.083333	1	0.403750
23.100000	1	0.403000
23.116667	1	0.404000
23.133333	1	0.405500
23.150000	1	0.408750
23.166667	1	0.412750
23.183333	1	0.418500
23.200000	1	0.424875
23.216667	1	0.433375
23.233333	1	0.443375
23.250000	1	0.455500
23.266667	1	0.469500
23.283333	1	0.485250
23.300000	1	0.502750
23.316667	1	0.523750
23.333333	1	0.546500
23.350000	1	0.572250
23.366667	1	0.600875
23.383333	1	0.633250
23.400000	1	0.668875
23.416667	1	0.709125
23.433333	1	0.754625
23.450000	1	0.805500
23.466667	1	0.861625
23.483333	1	0.925000
23.500000	1	0.995875
23.516667	1	1.075875
23.533333	1	1.166250
23.550000	1	1.267625
23.566667	1	1.382875
23.583333	1	1.510750
23.600000	1	1.653500
23.616667	1	1.812375
23.633333	1	1.988000
23.650000	1	2.180750
23.666667	1	2.391125
23.683333	1	2.618125
23.700000	1	2.860375
23.716667	1	3.117375
23.733333	1	3.386000
23.750000	1	3.664000
23.766667	1	3.946625
23.783333	1	4.229500
23.800000	1	4.508625
23.816667	1	4.779125
23.833333	1	5.035875
23.850000	1	5.273375
23.866667	1	5.488625
23.883333	1	5.676125
23.900000	1	5.832500
23.916667	1	5.953375
23.933333	1	6.037500
23.950000	1	6.083875
23.966667	1	6.092250
23.983333	1	6.062375
24.000000	1	5.996125
24.016667	1	5.896125
24.033333	1	5.764625
24.050000	1	5.605750
24.066667	1	5.423000
24.083333	1	5.219625
24.100000	1	5.000125
24.116667	1	4.768750
24.133333	1	4.529500
24.150000	1	4.285250
24.166667	1	4.039750
24.183333	1	3.796000
24.200000	1	3.557750
24.216667	1	3.325625
24.233333	1	3.103500
24.250000	1	2.892375
24.266667	1	2.691875
24.283333	1	2.503875
24.300000	1	2.328000
24.316667	1	2.164000
24.333333	1	2.012875
24.350000	1	1.873250
24.366667	1	1.744875
24.383333	1	1.627625
24.400000	1	1.520250
24.416667	1	1.423500
24.433333	1	1.335625
24.450000	1	1.255000
24.466667	1	1.181500
24.483333	1	1.114250
24.500000	1	1.053125
24.516667	1	0.997625
24.533333	1	0.946250
24.550000	1	0.898750
24.566667	1	0.853750
24.583333	1	0.812625
24.600000	1	0.774000
24.616667	1	0.737500
24.633333	1	0.702750
24.650000	1	0.670250
24.666667	1	0.639875
24.683333	1	0.610125
24.700000	1	0.581500
24.716667	1	0.554750
24.733333	1	0.529500
24.750000	1	0.504500
24.766667	1	0.480625
24.783333	1	0.458750
24.800000	1	0.437875
24.816667	1	0.418125
24.833333	1	0.399625
24.850000	1	0.381750
24.866667	1	0.365750
24.883333	1	0.350500
24.900000	1	0.336500
24.916667	1	0.323250
24.933333	1	0.311000
24.950000	1	0.300375
24.966667	1	0.290625
24.983333	1	0.281625
25.000000	1	0.273375
25.016667	1	0.266500
25.033333	1	0.260750
25.050000	1	0.255875
25.066667	1	0.251625
25.083333	1	0.248750
25.100000	1	0.246750
25.116667	1	0.244625
25.133333	1	0.242750
25.150000	1	0.241625
25.166667	1	0.241500
25.183333	1	0.241500
25.200000	1	0.242000
25.216667	1	0.242875
25.233333	1	0.244750
25.250000	1	0.247000
25.266667	1	0.249125
25.283333	1	0.251625
25.300000	1	0.254125
25.316667	1	0.256750
25.333333	1	0.260000
25.350000	1	0.263000
25.366667	1	0.265750
25.383333	1	0.268250
25.400000	1	0.270500
25.416667	1	0.273000
25.433333	1	0.275125
25.450000	1	0.277625
25.466667	1	0.279750
25.483333	1	0.281125
25.500000	1	0.282750
25.516667	1	0.283875
25.533333	1	0.284500
25.550000	1	0.284875
25.566667	1	0.285375
25.583333	1	0.285250
25.600000	1	0.285250
25.616667	1	0.284125
25.633333	1	0.283500
25.650000	1	0.281875
25.666667	1	0.280750
25.683333	1	0.279375
25.700000	1	0.277750
25.716667	1	0.275750
25.733333	1	0.273000
25.750000	1	0.270750
25.766667	1	0.267250
25.783333	1	0.263875
25.800000	1	0.260625
25.816667	1	0.256500
25.833333	1	0.251750
25.850000	1	0.247125
25.866667	1	0.242750
25.883333	1	0.238125
25.900000	1	0.232250
25.916667	1	0.226500
25.933333	1	0.220375
25.950000	1	0.213625
25.966667	1	0.207000
25.983333	1	0.201000
26.000000	1	0.194125
26.016667	1	0.187250
26.033333	1	0.179750
26.050000	1	0.173250
26.066667	1	0.167000
26.083333	1	0.161000
26.100000	1	0.154750
26.116667	1	0.148625
26.133333	1	0.143250
26.150000	1	0.137875
26.166667	1	0.133125
26.183333	1	0.129125
26.200000	1	0.125625
26.216667	1	0.122000
26.233333	1	0.120250
26.250000	1	0.118625
26.266667	1	0.117750
26.283333	1	0.117875
26.300000	1	0.118000
26.316667	1	0.118625
26.333333	1	0.119375
26.350000	1	0.120625
26.366667	1	0.122000
26.383333	1	0.123250
26.400000	1	0.124875
26.416667	1	0.126875
26.433333	1	0.128750
26.450000	1	0.130375
26.466667	1	0.132000
26.483333	1	0.133375
26.500000	1	0.134500
26.516667	1	0.135500
26.533333	1	0.136625
26.550000	1	0.136250
26.566667	1	0.136375
26.583333	1	0.136875
26.600000	1	0.136625
26.616667	1	0.136875
26.633333	1	0.136625
26.650000	1	0.136750
26.666667	1	0.136375
26.683333	1	0.135875
26.700000	1	0.134750
26.716667	1	0.135125
26.733333	1	0.134625
26.750000	1	0.134625
26.766667	1	0.134500
26.783333	1	0.134625
26.800000	1	0.135125
26.816667	1	0.136500
26.833333	1	0.137375
26.850000	1	0.138750
26.866667	1	0.140125
26.883333	1	0.142500
26.900000	1	0.144625
26.916667	1	0.147375
26.933333	1	0.150750
26.950000	1	0.154375
26.966667	1	0.158250
26.983333	1	0.163125
27.000000	1	0.168000
27.016667	1	0.173250
27.033333	1	0.178250
27.050000	1	0.183875
27.066667	1	0.190500
27.083333	1	0.197875
27.100000	1	0.204750
27.116667	1	0.213125
27.133333	1	0.222125
27.150000	1	0.231250
27.166667	1	0.240625
27.183333	1	0.251125
27.200000	1	0.262250
27.216667	1	0.273625
27.233333	1	0.286250
27.250000	1	0.299250
27.266667	1	0.313625
27.283333	1	0.329000
27.300000	1	0.344500
27.316667	1	0.361375
27.333333	1	0.379000
27.350000	1	0.397750
27.366667	1	0.418000
27.383333	1	0.439750
27.400000	1	0.463375
27.416667	1	0.489250
27.433333	1	0.517000
27.450000	1	0.547500
27.466667	1	0.580625
27.483333	1	0.616625
27.500000	1	0.655875
27.516667	1	0.699250
27.533333	1	0.746625
27.550000	1	0.799625
27.566667	1	0.857125
27.583333	1	0.920875
27.600000	1	0.990625
27.616667	1	1.066875
27.633333	1	1.149625
27.650000	1	1.239875
27.666667	1	1.336500
27.683333	1	1.440000
27.700000	1	1.549625
27.716667	1	1.665500
27.733333	1	1.787375
27.750000	1	1.913375
27.766667	1	2.042750
27.783333	1	2.175375
27.800000	1	2.308500
27.816667	1	2.441750
27.833333	1	2.573625
27.850000	1	2.701750
27.866667	1	2.824500
27.883333	1	2.940000
27.900000	1	3.046500
27.916667	1	3.142250
27.933333	1	3.226250
27.950000	1	3.296625
27.966667	1	3.352750
27.983333	1	3.393625
28.000000	1	3.416625
28.016667	1	3.423125
28.033333	1	3.411875
28.050000	1	3.384250
28.066667	1	3.339750
28.083333	1	3.279875
28.100000	1	3.204750
28.116667	1	3.115125
28.133333	1	3.013250
28.150000	1	2.901000
28.166667	1	2.780000
28.183333	1	2.651625
28.200000	1	2.517125
28.216667	1	2.378625
28.233333	1	2.238375
28.250000	1	2.096500
28.266667	1	1.955250
28.283333	1	1.815875
28.300000	1	1.678500
28.316667	1	1.544125
28.333333	1	1.415125
28.350000	1	1.289625
28.366667	1	1.170125
28.383333	1	1.056125
28.400000	1	0.947875
28.416667	1	0.844125
28.433333	1	0.745625
28.450000	1	0.652375
28.466667	1	0.563625
28.483333	1	0.479125
28.500000	1	0.399125
28.516667	1	0.321625
28.533333	1	0.248000
28.550000	1	0.176875
28.566667	1	0.108000
28.583333	1	0.041875
28.600000	1	-0.021875
28.616667	1	-0.083375
28.633333	1	-0.142875
28.650000	1	-0.201500
28.666667	1	-0.257750
28.683333	1	-0.312875
28.700000	1	-0.366625
28.716667	1	-0.418500
28.733333	1	-0.468000
28.750000	1	-0.514625
28.766667	1	-0.559625
28.783333	1	-0.600750
28.800000	1	-0.639125
28.816667	1	-0.674500
28.833333	1	-0.706250
28.850000	1	-0.734500
28.866667	1	-0.758625
28.883333	1	-0.778750
28.900000	1	-0.794625
28.916667	1	-0.806125
28.933333	1	-0.812125
28.950000	1	-0.815000
28.966667	1	-0.812875
28.983333	1	-0.805875
29.000000	1	-0.794625
29.016667	1	-0.780000
29.033333	1	-0.760750
29.050000	1	-0.737875
29.066667	1	-0.711125
29.083333	1	-0.682500
29.100000	1	-0.650375
29.116667	1	-0.616250
29.133333	1	-0.579000
29.150000	1	-0.540375
29.166667	1	-0.500750
29.183333	1	-0.460250
29.200000	1	-0.418375
29.216667	1	-0.376000
29.233333	1	-0.333125
29.250000	1	-0.290375
29.266667	1	-0.248500
29.283333	1	-0.207000
29.300000	1	-0.165875
29.316667	1	-0.126375
29.333333	1	-0.087875
29.350000	1	-0.050500
29.366667	1	-0.014500
29.383333	1	0.019875
29.400000	1	0.052500
29.416667	1	0.084000
29.433333	1	0.113500
29.450000	1	0.141125
29.466667	1	0.166500
29.483333	1	0.190750
29.500000	1	0.212500
29.516667	1	0.232875
29.533333	1	0.251000
29.550000	1	0.267875
29.566667	1	0.283000
29.583333	1	0.296375
29.600000	1	0.308250
29.616667	1	0.318750
29.633333	1	0.328000
29.650000	1	0.336250
29.666667	1	0.342500
29.683333	1	0.347000
29.700000	1	0.351000
29.716667	1	0.353125
29.733333	1	0.355375
29.750000	1	0.356375
29.766667	1	0.356375
29.783333	1	0.356000
29.800000	1	0.355000
29.816667	1	0.354250
29.833333	1	0.352375
29.850000	1	0.350375
29.866667	1	0.348375
29.883333	1	0.345875
29.900000	1	0.344000
29.916667	1	0.341625
29.933333	1	0.338875
29.950000	1	0.335875
29.966667	1	0.334000
29.983333	1	0.332625
30.000000	1	0.331625
30.016667	1	0.330750
30.033333	1	0.330500
30.050000	1	0.330750
30.066667	1	0.330125
30.083333	1	0.330625
30.100000	1	0.332000
30.116667	1	0.334125
30.133333	1	0.336125
30.150000	1	0.338375
30.166667	1	0.341625
30.183333	1	0.344375
30.200000	1	0.347875
30.216667	1	0.352750
30.233333	1	0.358000
30.250000	1	0.364125
30.266667	1	0.370500
30.283333	1	0.377625
30.300000	1	0.386000
30.316667	1	0.394750
30.333333	1	0.405625
30.350000	1	0.416875
30.366667	1	0.429000
30.383333	1	0.442375
30.400000	1	0.457500
30.416667	1	0.474250
30.433333	1	0.492000
30.450000	1	0.510875
30.466667	1	0.531000
30.483333	1	0.551750
30.500000	1	0.574125
30.516667	1	0.597625
30.533333	1	0.621625
30.550000	1	0.646875
30.566667	1	0.673625
30.583333	1	0.699750
30.600000	1	0.726375
30.616667	1	0.752500
30.633333	1	0.778250
30.650000	1	0.802375
30.666667	1	0.826000
30.683333	1	0.848375
30.700000	1	0.869125
30.716667	1	0.888000
30.733333	1	0.904375
30.750000	1	0.917500
30.766667	1	0.928375
30.783333	1	0.936250
30.800000	1	0.940625
30.816667	1	0.942500
30.833333	1	0.941375
30.850000	1	0.936500
30.866667	1	0.927875
30.883333	1	0.916750
30.900000	1	0.902875
30.916667	1	0.886625
30.933333	1	0.867375
30.950000	1	0.846000
30.966667	1	0.823000
30.983333	1	0.798250
31.000000	1	0.772375
31.016667	1	0.745500
31.033333	1	0.717875
31.050000	1	0.688500
31.066667	1	0.659125
31.083333	1	0.630000
31.100000	1	0.601625
31.116667	1	0.573625
31.133333	1	0.546000
31.150000	1	0.519375
31.166667	1	0.493875
31.183333	1	0.468875
31.200000	1	0.445125
31.216667	1	0.422875
31.233333	1	0.402250
31.250000	1	0.382000
31.266667	1	0.363750
31.283333	1	0.346250
31.300000	1	0.330125
31.316667	1	0.315250
31.333333	1	0.302000
31.350000	1	0.289625
31.366667	1	0.278000
31.383333	1	0.268000
31.400000	1	0.258750
31.416667	1	0.250375
31.433333	1	0.243500
31.450000	1	0.236750
31.466667	1	0.230625
31.483333	1	0.225250
31.500000	1	0.220625
31.516667	1	0.216750
31.533333	1	0.213750
31.550000	1	0.210875
31.566667	1	0.209000
31.583333	1	0.207125
31.600000	1	0.205875
31.616667	1	0.205000
31.633333	1	0.204750
31.650000	1	0.204625
31.666667	1	0.204625
31.683333	1	0.205000
31.700000	1	0.205625
31.716667	1	0.207500
31.733333	1	0.209000
31.750000	1	0.211125
31.766667	1	0.213875
31.783333	1	0.216250
31.800000	1	0.218625
31.816667	1	0.221375
31.833333	1	0.224625
31.850000	1	0.227125
31.866667	1	0.229125
31.883333	1	0.230375
31.900000	1	0.233625
31.916667	1	0.235500
31.933333	1	0.236625
31.950000	1	0.238125
31.966667	1	0.239375
31.983333	1	0.239625
32.000000	1	0.239625
32.016667	1	0.238750
32.033333	1	0.237875
32.050000	1	0.236625
32.066667	1	0.234250
32.083333	1	0.231000
32.100000	1	0.228500
32.116667	1	0.225500
32.133333	1	0.221375
32.150000	1	0.216250
32.166667	1	0.210750
32.183333	1	0.205625
32.200000	1	0.200000
32.216667	1	0.193625
32.233333	1	0.188000
32.250000	1	0.180625
32.266667	1	0.173625
32.283333	1	0.166875
32.300000	1	0.160000
32.316667	1	0.153750
32.333333	1	0.147125
32.350000	1	0.140250
32.366667	1	0.133875
32.383333	1	0.127125
32.400000	1	0.120625
32.416667	1	0.114250
32.433333	1	0.108625
32.450000	1	0.103000
32.466667	1	0.097500
32.483333	1	0.091625
32.500000	1	0.086875
32.516667	1	0.082250
32.533333	1	0.077750
32.550000	1	0.073875
32.566667	1	0.070500
32.583333	1	0.067375
32.600000	1	0.063875
32.616667	1	0.061000
32.633333	1	0.058375
32.650000	1	0.056000
32.666667	1	0.052875
32.683333	1	0.049875
32.700000	1	0.047125
32.716667	1	0.045125
32.733333	1	0.043125
32.750000	1	0.041625
32.766667	1	0.039875
32.783333	1	0.038250
32.800000	1	0.037000
32.816667	1	0.036375
32.833333	1	0.034750
32.850000	1	0.033625
32.866667	1	0.032375
32.883333	1	0.030250
32.900000	1	0.029125
32.916667	1	0.027750
32.933333	1	0.025875
32.950000	1	0.024500
32.966667	1	0.023750
32.983333	1	0.023625
33.000000	1	0.022500
33.016667	1	0.020875
33.033333	1	0.019500
33.050000	1	0.018625
33.066667	1	0.017625
33.083333	1	0.016000
33.100000	1	0.014625
33.116667	1	0.014000
33.133333	1	0.012500
33.150000	1	0.011250
33.166667	1	0.009125
33.183333	1	0.007875
33.200000	1	0.006500
33.216667	1	0.005125
33.233333	1	0.003500
33.250000	1	0.002125
33.266667	1	0.002000
33.283333	1	0.000625
33.300000	1	-0.001125
33.316667	1	-0.003125
33.333333	1	-0.004625
33.350000	1	-0.005875
33.366667	1	-0.007125
33.383333	1	-0.008625
33.400000	1	-0.010625
33.416667	1	-0.012250
33.433333	1	-0.013250
33.450000	1	-0.014625
33.466667	1	-0.015625
33.483333	1	-0.017375
33.500000	1	-0.018000
33.516667	1	-0.018750
33.533333	1	-0.019500
33.550000	1	-0.019500
33.566667	1	-0.019750
33.583333	1	-0.020125
33.600000	1	-0.021000
33.616667	1	-0.020875
33.633333	1	-0.021375
33.650000	1	-0.021000
33.666667	1	-0.020750
33.683333	1	-0.019875
33.700000	1	-0.019000
33.716667	1	-0.018250
33.733333	1	-0.017375
33.750000	1	-0.016250
33.766667	1	-0.015125
33.783333	1	-0.013750
33.800000	1	-0.012500
33.816667	1	-0.011250
33.833333	1	-0.009750
33.850000	1	-0.008250
33.866667	1	-0.006250
33.883333	1	-0.004750
33.900000	1	-0.002500
33.916667	1	-0.000750
33.933333	1	0.000625
33.950000	1	0.002375
33.966667	1	0.004375
33.983333	1	0.006375
34.000000	1	0.008250
34.016667	1	0.009750
34.033333	1	0.011750
34.050000	1	0.013875
34.066667	1	0.016250
34.083333	1	0.018750
34.100000	1	0.020375
34.116667	1	0.022250
34.133333	1	0.024500
34.150000	1	0.026750
34.166667	1	0.028625
34.183333	1	0.030125
34.200000	1	0.031000
34.216667	1	0.033125
34.233333	1	0.033875
34.250000	1	0.035125
34.266667	1	0.036125
34.283333	1	0.037500
34.300000	1	0.037875
34.316667	1	0.038750
34.333333	1	0.039875
34.350000	1	0.041000
34.366667	1	0.041375
34.383333	1	0.041375
34.400000	1	0.041375
34.416667	1	0.042125
34.433333	1	0.042250
34.450000	1	0.042625
34.466667	1	0.043250
34.483333	1	0.042875
34.500000	1	0.043000
34.516667	1	0.042750
34.533333	1	0.042750
34.550000	1	0.043125
34.566667	1	0.043625
34.583333	1	0.043000
34.600000	1	0.043000
34.616667	1	0.043250
34.633333	1	0.043250
34.650000	1	0.043500
34.666667	1	0.043625
34.683333	1	0.044375
34.700000	1	0.044750
34.716667	1	0.045625
34.733333	1	0.046375
34.750000	1	0.048000
34.766667	1	0.049750
34.783333	1	0.050500
34.800000	1	0.051875
34.816667	1	0.053750
34.833333	1	0.055875
34.850000	1	0.058375
34.866667	1	0.061250
34.883333	1	0.063500
34.900000	1	0.066125
34.916667	1	0.069125
34.933333	1	0.072250
34.950000	1	0.075875
34.966667	1	0.079375
34.983333	1	0.082625
35.000000	1	0.086125
35.016667	1	0.089875
35.033333	1	0.093625
35.050000	1	0.096875
35.066667	1	0.101125
35.083333	1	0.104875
35.100000	1	0.108375
35.116667	1	0.111875
35.133333	1	0.115125
35.150000	1	0.119125
35.166667	1	0.122875
35.183333	1	0.126875
35.200000	1	0.129750
35.216667	1	0.132625
35.233333	1	0.135250
35.250000	1	0.138625
35.266667	1	0.142125
35.283333	1	0.144875
35.300000	1	0.147250
35.316667	1	0.149750
35.333333	1	0.151625
35.350000	1	0.153125
35.366667	1	0.154750
35.383333	1	0.155750
35.400000	1	0.157250
35.416667	1	0.157500
35.433333	1	0.157750
35.450000	1	0.158000
35.466667	1	0.157625
35.483333	1	0.157125
35.500000	1	0.157500
35.516667	1	0.156500
35.533333	1	0.155500
35.550000	1	0.154500
35.566667	1	0.153000
35.583333	1	0.151125
35.600000	1	0.149750
35.616667	1	0.148250
35.633333	1	0.145625
35.650000	1	0.143500
35.666667	1	0.141500
35.683333	1	0.139125
35.700000	1	0.137000
35.716667	1	0.134750
35.733333	1	0.132375
35.750000	1	0.130625
35.766667	1	0.128000
35.783333	1	0.124875
35.800000	1	0.122500
35.816667	1	0.120875
35.833333	1	0.118375
35.850000	1	0.115375
35.866667	1	0.112625
35.883333	1	0.110250
35.900000	1	0.108000
35.916667	1	0.105375
35.933333	1	0.102750
35.950000	1	0.100375
35.966667	1	0.097500
35.983333	1	0.095250
36.000000	1	0.092750
36.016667	1	0.090250
36.033333	1	0.088250
36.050000	1	0.085125
36.066667	1	0.083375
36.083333	1	0.080625
36.100000	1	0.078250
36.116667	1	0.075375
36.133333	1	0.072625
36.150000	1	0.069750
36.166667	1	0.067375
36.183333	1	0.065000
36.200000	1	0.063000
36.216667	1	0.060375
36.233333	1	0.057625
36.250000	1	0.056000
36.266667	1	0.054500
36.283333	1	0.052875
36.300000	1	0.051500
36.316667	1	0.050000
36.333333	1	0.049125
36.350000	1	0.047000
36.366667	1	0.045375
36.383333	1	0.043375
36.400000	1	0.042125
36.416667	1	0.040750
36.433333	1	0.039375
36.450000	1	0.038125
36.466667	1	0.036625
36.483333	1	0.036000
36.500000	1	0.034500
36.516667	1	0.033250
36.533333	1	0.032250
36.550000	1	0.031375
36.566667	1	0.029500
36.583333	1	0.028375
36.600000	1	0.026875
36.616667	1	0.025250
36.633333	1	0.024000
36.650000	1	0.022125
36.666667	1	0.020500
36.683333	1	0.018875
36.700000	1	0.017125
36.716667	1	0.015875
36.733333	1	0.014250
36.750000	1	0.011625
36.766667	1	0.009250
36.783333	1	0.007375
36.800000	1	0.006000
36.816667	1	0.003250
36.833333	1	0.001000
36.850000	1	-0.001125
36.866667	1	-0.003500
36.883333	1	-0.006000
36.900000	1	-0.008000
36.916667	1	-0.010000
36.933333	1	-0.011750
36.950000	1	-0.014125
36.966667	1	-0.016250
36.983333	1	-0.018125
37.000000	1	-0.020250
37.016667	1	-0.022125
37.033333	1	-0.023875
37.050000	1	-0.025125
37.066667	1	-0.027000
37.083333	1	-0.028875
37.100000	1	-0.030375
37.116667	1	-0.031750
37.133333	1	-0.033375
37.150000	1	-0.034000
37.166667	1	-0.035625
37.183333	1	-0.037250
37.200000	1	-0.038750
37.216667	1	-0.039250
37.233333	1	-0.040125
37.250000	1	-0.040625
37.266667	1	-0.041500
37.283333	1	-0.041875
37.300000	1	-0.042500
37.316667	1	-0.042875
37.333333	1	-0.043625
37.350000	1	-0.044375
37.366667	1	-0.044875
37.383333	1	-0.045125
37.400000	1	-0.045750
37.416667	1	-0.046375
37.433333	1	-0.046625
37.450000	1	-0.046125
37.466667	1	-0.045625
37.483333	1	-0.046000
37.500000	1	-0.046125
37.516667	1	-0.045750
37.533333	1	-0.045250
37.550000	1	-0.045375
37.566667	1	-0.045500
37.583333	1	-0.045875
37.600000	1	-0.045625
37.616667	1	-0.045000
37.633333	1	-0.044750
37.650000	1	-0.044875
37.666667	1	-0.044375
37.683333	1	-0.043375
37.700000	1	-0.043125
37.716667	1	-0.042875
37.733333	1	-0.042375
37.750000	1	-0.041750
37.766667	1	-0.041625
37.783333	1	-0.041375
37.800000	1	-0.041750
37.816667	1	-0.040500
37.833333	1	-0.040500
37.850000	1	-0.040500
37.866667	1	-0.039375
37.883333	1	-0.037875
37.900000	1	-0.038250
37.916667	1	-0.037000
37.933333	1	-0.036375
37.950000	1	-0.036125
37.966667	1	-0.035625
37.983333	1	-0.035000
38.000000	1	-0.035125
38.016667	1	-0.035000
38.033333	1	-0.034125
38.050000	1	-0.033500
38.066667	1	-0.032875
38.083333	1	-0.032375
38.100000	1	-0.032000
38.116667	1	-0.031625
38.133333	1	-0.032500
38.150000	1	-0.032750
38.166667	1	-0.033125
38.183333	1	-0.033500
38.200000	1	-0.033625
38.216667	1	-0.034250
38.233333	1	-0.034875
38.250000	1	-0.035250
38.266667	1	-0.035625
38.283333	1	-0.036125
38.300000	1	-0.036875
38.316667	1	-0.037250
38.333333	1	-0.037875
38.350000	1	-0.038875
38.366667	1	-0.040250
38.383333	1	-0.041250
38.400000	1	-0.041875
38.416667	1	-0.042875
38.433333	1	-0.043875
38.450000	1	-0.045125
38.466667	1	-0.046750
38.483333	1	-0.047625
38.500000	1	-0.048250
38.516667	1	-0.049625
38.533333	1	-0.051125
38.550000	1	-0.052375
38.566667	1	-0.053750
38.583333	1	-0.055375
38.600000	1	-0.056875
38.616667	1	-0.057875
38.633333	1	-0.058875
38.650000	1	-0.059125
38.666667	1	-0.060250
38.683333	1	-0.061000
38.700000	1	-0.061375
38.716667	1	-0.062125
38.733333	1	-0.062250
38.750000	1	-0.063125
38.766667	1	-0.064000
38.783333	1	-0.064500
38.800000	1	-0.065625
38.816667	1	-0.065125
38.833333	1	-0.065625
38.850000	1	-0.065750
38.866667	1	-0.065500
38.883333	1	-0.064875
38.900000	1	-0.063875
38.916667	1	-0.063875
38.933333	1	-0.063875
38.950000	1	-0.063500
38.966667	1	-0.063250
38.983333	1	-0.062500
39.000000	1	-0.062125
39.016667	1	-0.062125
39.033333	1	-0.061875
39.050000	1	-0.061625
39.066667	1	-0.061375
39.083333	1	-0.060500
39.100000	1	-0.059625
39.116667	1	-0.059125
39.133333	1	-0.058500
39.150000	1	-0.058125
39.166667	1	-0.057500
39.183333	1	-0.057375
39.200000	1	-0.057500
39.216667	1	-0.056500
39.233333	1	-0.055375
39.250000	1	-0.055000
39.266667	1	-0.053625
39.283333	1	-0.052625
39.300000	1	-0.052625
39.316667	1	-0.052250
39.333333	1	-0.051125
39.350000	1	-0.049875
39.366667	1	-0.049000
39.383333	1	-0.047500
39.400000	1	-0.046875
39.416667	1	-0.045125
39.433333	1	-0.044625
39.450000	1	-0.043625
39.466667	1	-0.042375
39.483333	1	-0.040500
39.500000	1	-0.039125
39.516667	1	-0.037250
39.533333	1	-0.036250
39.550000	1	-0.034875
39.566667	1	-0.033250
39.583333	1	-0.032500
39.600000	1	-0.030375
39.616667	1	-0.029375
39.633333	1	-0.028000
39.650000	1	-0.026000
39.666667	1	-0.024000
39.683333	1	-0.022125
39.700000	1	-0.020250
39.716667	1	-0.018750
39.733333	1	-0.017250
39.750000	1	-0.016000
39.766667	1	-0.015000
39.783333	1	-0.013500
39.800000	1	-0.012000
39.816667	1	-0.010375
39.833333	1	-0.009375
39.850000	1	-0.007750
39.866667	1	-0.006875
39.883333	1	-0.005375
39.900000	1	-0.004375
39.916667	1	-0.004000
39.933333	1	-0.003375
39.950000	1	-0.002500
39.966667	1	-0.001250
39.983333	1	0.000500
40.000000	1	0.001125
