File Path	chrom://990-75db15j/XVault/Ultimate_3000/1256/20230531_CMO_stabTest _FP08_FP09.seq/194.smp/RI_1.channel/RI_1.chm
Channel	RI_1

Injection Information:
Data Vault	XVault
Injection	FP08_6_s4
Injection Number	35
Position	BE1
Comment	
Processing Method	
Instrument Method	run_25B_method
Type	Unknown
Status	Finished
Injection Date	02.06.2023
Injection Time	11:57:48
Injection Volume (µl)	20.000
Dilution Factor	1.0000
Weight	1.0000

Chromatogram Data Information:
Time Min. (min)	0.000000
Time Max. (min)	40.000000
Data Points	2401
Detector	RI
Generating Data System	Chromeleon 7.2.5.9507
Exporting Data System	Chromeleon 7.2.5.0
Operator	Instrument Controller
Signal Quantity	Refractive 
Signal Unit	µRIU
Signal Min.	-0.393125
Signal Max.	53.477375
Channel	RI_1
Driver Name	RID520Driver.dll
Channel Type	Evaluation
Min. Step (s)	1
Max. Step (s)	1
Average Step (s)	1

Signal Parameter Information:
Signal Info	

Chromatogram Data:
Time (min)	Step (s)	Value (µRIU)
0.000000	n.a.	-0.051875
0.016667	1	-0.053625
0.033333	1	-0.055000
0.050000	1	-0.056125
0.066667	1	-0.057250
0.083333	1	-0.057875
0.100000	1	-0.058375
0.116667	1	-0.059625
0.133333	1	-0.060375
0.150000	1	-0.061000
0.166667	1	-0.061750
0.183333	1	-0.063000
0.200000	1	-0.063375
0.216667	1	-0.064375
0.233333	1	-0.065000
0.250000	1	-0.065875
0.266667	1	-0.065250
0.283333	1	-0.066625
0.300000	1	-0.069000
0.316667	1	-0.072500
0.333333	1	-0.075750
0.350000	1	-0.076000
0.366667	1	-0.073250
0.383333	1	-0.069250
0.400000	1	-0.065500
0.416667	1	-0.062625
0.433333	1	-0.059500
0.450000	1	-0.057000
0.466667	1	-0.055750
0.483333	1	-0.055875
0.500000	1	-0.056625
0.516667	1	-0.058375
0.533333	1	-0.060875
0.550000	1	-0.062875
0.566667	1	-0.064125
0.583333	1	-0.065500
0.600000	1	-0.067000
0.616667	1	-0.067750
0.633333	1	-0.068500
0.650000	1	-0.069625
0.666667	1	-0.070375
0.683333	1	-0.070375
0.700000	1	-0.070625
0.716667	1	-0.070500
0.733333	1	-0.071375
0.750000	1	-0.071625
0.766667	1	-0.071500
0.783333	1	-0.071500
0.800000	1	-0.071750
0.816667	1	-0.071500
0.833333	1	-0.071500
0.850000	1	-0.071250
0.866667	1	-0.071375
0.883333	1	-0.071000
0.900000	1	-0.071250
0.916667	1	-0.071000
0.933333	1	-0.070750
0.950000	1	-0.070750
0.966667	1	-0.070750
0.983333	1	-0.070375
1.000000	1	-0.069875
1.016667	1	-0.069375
1.033333	1	-0.068250
1.050000	1	-0.068625
1.066667	1	-0.068250
1.083333	1	-0.067125
1.100000	1	-0.067500
1.116667	1	-0.067250
1.133333	1	-0.067625
1.150000	1	-0.067375
1.166667	1	-0.067875
1.183333	1	-0.067875
1.200000	1	-0.068125
1.216667	1	-0.068125
1.233333	1	-0.068500
1.250000	1	-0.068375
1.266667	1	-0.068125
1.283333	1	-0.068250
1.300000	1	-0.068000
1.316667	1	-0.068000
1.333333	1	-0.068750
1.350000	1	-0.068375
1.366667	1	-0.068250
1.383333	1	-0.068625
1.400000	1	-0.068500
1.416667	1	-0.069000
1.433333	1	-0.069375
1.450000	1	-0.069625
1.466667	1	-0.069625
1.483333	1	-0.069625
1.500000	1	-0.069750
1.516667	1	-0.070250
1.533333	1	-0.070125
1.550000	1	-0.070250
1.566667	1	-0.070125
1.583333	1	-0.070125
1.600000	1	-0.069375
1.616667	1	-0.069250
1.633333	1	-0.068875
1.650000	1	-0.069625
1.666667	1	-0.069250
1.683333	1	-0.069625
1.700000	1	-0.069250
1.716667	1	-0.069125
1.733333	1	-0.069000
1.750000	1	-0.068875
1.766667	1	-0.068750
1.783333	1	-0.068125
1.800000	1	-0.068125
1.816667	1	-0.067875
1.833333	1	-0.067750
1.850000	1	-0.067500
1.866667	1	-0.067750
1.883333	1	-0.067000
1.900000	1	-0.067125
1.916667	1	-0.067000
1.933333	1	-0.067375
1.950000	1	-0.066750
1.966667	1	-0.066750
1.983333	1	-0.066125
2.000000	1	-0.065625
2.016667	1	-0.065250
2.033333	1	-0.064750
2.050000	1	-0.064125
2.066667	1	-0.064125
2.083333	1	-0.063875
2.100000	1	-0.063500
2.116667	1	-0.063000
2.133333	1	-0.062000
2.150000	1	-0.061000
2.166667	1	-0.059750
2.183333	1	-0.059125
2.200000	1	-0.057625
2.216667	1	-0.056625
2.233333	1	-0.055375
2.250000	1	-0.054125
2.266667	1	-0.053125
2.283333	1	-0.052125
2.300000	1	-0.050750
2.316667	1	-0.049875
2.333333	1	-0.048750
2.350000	1	-0.047500
2.366667	1	-0.046125
2.383333	1	-0.045250
2.400000	1	-0.044250
2.416667	1	-0.043500
2.433333	1	-0.041750
2.450000	1	-0.040750
2.466667	1	-0.039375
2.483333	1	-0.038250
2.500000	1	-0.037250
2.516667	1	-0.036625
2.533333	1	-0.035750
2.550000	1	-0.035250
2.566667	1	-0.034875
2.583333	1	-0.034500
2.600000	1	-0.033625
2.616667	1	-0.032250
2.633333	1	-0.031000
2.650000	1	-0.029625
2.666667	1	-0.028500
2.683333	1	-0.028125
2.700000	1	-0.028125
2.716667	1	-0.027375
2.733333	1	-0.026875
2.750000	1	-0.026375
2.766667	1	-0.025875
2.783333	1	-0.025375
2.800000	1	-0.024875
2.816667	1	-0.024500
2.833333	1	-0.023875
2.850000	1	-0.023500
2.866667	1	-0.022750
2.883333	1	-0.022125
2.900000	1	-0.021625
2.916667	1	-0.021000
2.933333	1	-0.021250
2.950000	1	-0.021250
2.966667	1	-0.021500
2.983333	1	-0.021750
3.000000	1	-0.021250
3.016667	1	-0.021250
3.033333	1	-0.021375
3.050000	1	-0.021125
3.066667	1	-0.020750
3.083333	1	-0.021500
3.100000	1	-0.022000
3.116667	1	-0.022500
3.133333	1	-0.023250
3.150000	1	-0.023250
3.166667	1	-0.023750
3.183333	1	-0.025250
3.200000	1	-0.025250
3.216667	1	-0.025500
3.233333	1	-0.026500
3.250000	1	-0.027000
3.266667	1	-0.028000
3.283333	1	-0.028875
3.300000	1	-0.029875
3.316667	1	-0.031250
3.333333	1	-0.032375
3.350000	1	-0.033000
3.366667	1	-0.033750
3.383333	1	-0.034875
3.400000	1	-0.036000
3.416667	1	-0.036500
3.433333	1	-0.037250
3.450000	1	-0.038000
3.466667	1	-0.039500
3.483333	1	-0.040625
3.500000	1	-0.041875
3.516667	1	-0.044000
3.533333	1	-0.044875
3.550000	1	-0.045125
3.566667	1	-0.046375
3.583333	1	-0.047250
3.600000	1	-0.048750
3.616667	1	-0.049375
3.633333	1	-0.050375
3.650000	1	-0.051375
3.666667	1	-0.051750
3.683333	1	-0.053375
3.700000	1	-0.054250
3.716667	1	-0.055500
3.733333	1	-0.056000
3.750000	1	-0.056375
3.766667	1	-0.057125
3.783333	1	-0.057875
3.800000	1	-0.058375
3.816667	1	-0.059000
3.833333	1	-0.059750
3.850000	1	-0.060250
3.866667	1	-0.061000
3.883333	1	-0.061500
3.900000	1	-0.061500
3.916667	1	-0.062250
3.933333	1	-0.062875
3.950000	1	-0.063125
3.966667	1	-0.063750
3.983333	1	-0.063375
4.000000	1	-0.063750
4.016667	1	-0.063750
4.033333	1	-0.064125
4.050000	1	-0.064500
4.066667	1	-0.065250
4.083333	1	-0.064750
4.100000	1	-0.064875
4.116667	1	-0.065000
4.133333	1	-0.065000
4.150000	1	-0.065250
4.166667	1	-0.065250
4.183333	1	-0.065500
4.200000	1	-0.065125
4.216667	1	-0.064750
4.233333	1	-0.064250
4.250000	1	-0.064750
4.266667	1	-0.064125
4.283333	1	-0.064250
4.300000	1	-0.063750
4.316667	1	-0.064250
4.333333	1	-0.064250
4.350000	1	-0.063625
4.366667	1	-0.063125
4.383333	1	-0.062875
4.400000	1	-0.062750
4.416667	1	-0.062375
4.433333	1	-0.062250
4.450000	1	-0.061000
4.466667	1	-0.060375
4.483333	1	-0.060000
4.500000	1	-0.059500
4.516667	1	-0.059500
4.533333	1	-0.059000
4.550000	1	-0.057875
4.566667	1	-0.057250
4.583333	1	-0.056125
4.600000	1	-0.055625
4.616667	1	-0.054250
4.633333	1	-0.052875
4.650000	1	-0.051625
4.666667	1	-0.050875
4.683333	1	-0.049375
4.700000	1	-0.047625
4.716667	1	-0.045875
4.733333	1	-0.044250
4.750000	1	-0.042500
4.766667	1	-0.040625
4.783333	1	-0.038750
4.800000	1	-0.036125
4.816667	1	-0.033750
4.833333	1	-0.031250
4.850000	1	-0.028500
4.866667	1	-0.025875
4.883333	1	-0.023500
4.900000	1	-0.021000
4.916667	1	-0.018125
4.933333	1	-0.014625
4.950000	1	-0.012000
4.966667	1	-0.008375
4.983333	1	-0.005125
5.000000	1	-0.001750
5.016667	1	0.001500
5.033333	1	0.004750
5.050000	1	0.008125
5.066667	1	0.011500
5.083333	1	0.015250
5.100000	1	0.019250
5.116667	1	0.023375
5.133333	1	0.027250
5.150000	1	0.030750
5.166667	1	0.034625
5.183333	1	0.038250
5.200000	1	0.041625
5.216667	1	0.045250
5.233333	1	0.048500
5.250000	1	0.051500
5.266667	1	0.055000
5.283333	1	0.057750
5.300000	1	0.060125
5.316667	1	0.063125
5.333333	1	0.065625
5.350000	1	0.068000
5.366667	1	0.070625
5.383333	1	0.073125
5.400000	1	0.075000
5.416667	1	0.077250
5.433333	1	0.078875
5.450000	1	0.080375
5.466667	1	0.081375
5.483333	1	0.082000
5.500000	1	0.082750
5.516667	1	0.083875
5.533333	1	0.084375
5.550000	1	0.084875
5.566667	1	0.085125
5.583333	1	0.084625
5.600000	1	0.084250
5.616667	1	0.084250
5.633333	1	0.083250
5.650000	1	0.081875
5.666667	1	0.080750
5.683333	1	0.079375
5.700000	1	0.077875
5.716667	1	0.076250
5.733333	1	0.074875
5.750000	1	0.073000
5.766667	1	0.071125
5.783333	1	0.068625
5.800000	1	0.067500
5.816667	1	0.065750
5.833333	1	0.063375
5.850000	1	0.061750
5.866667	1	0.059625
5.883333	1	0.057125
5.900000	1	0.055500
5.916667	1	0.053375
5.933333	1	0.050625
5.950000	1	0.048375
5.966667	1	0.046875
5.983333	1	0.044375
6.000000	1	0.043000
6.016667	1	0.041500
6.033333	1	0.039625
6.050000	1	0.038250
6.066667	1	0.036875
6.083333	1	0.035750
6.100000	1	0.034125
6.116667	1	0.033125
6.133333	1	0.031750
6.150000	1	0.031250
6.166667	1	0.030625
6.183333	1	0.029875
6.200000	1	0.029875
6.216667	1	0.029500
6.233333	1	0.029375
6.250000	1	0.029000
6.266667	1	0.029250
6.283333	1	0.029500
6.300000	1	0.029875
6.316667	1	0.030000
6.333333	1	0.030500
6.350000	1	0.030375
6.366667	1	0.031250
6.383333	1	0.032375
6.400000	1	0.032875
6.416667	1	0.033625
6.433333	1	0.034750
6.450000	1	0.035750
6.466667	1	0.037000
6.483333	1	0.038250
6.500000	1	0.040125
6.516667	1	0.041500
6.533333	1	0.043125
6.550000	1	0.045125
6.566667	1	0.046500
6.583333	1	0.047250
6.600000	1	0.048625
6.616667	1	0.051125
6.633333	1	0.051875
6.650000	1	0.053000
6.666667	1	0.053625
6.683333	1	0.054250
6.700000	1	0.055375
6.716667	1	0.056625
6.733333	1	0.057250
6.750000	1	0.058500
6.766667	1	0.058750
6.783333	1	0.060125
6.800000	1	0.060875
6.816667	1	0.061625
6.833333	1	0.061250
6.850000	1	0.061000
6.866667	1	0.060375
6.883333	1	0.060375
6.900000	1	0.060125
6.916667	1	0.059875
6.933333	1	0.059000
6.950000	1	0.059000
6.966667	1	0.057625
6.983333	1	0.056750
7.000000	1	0.055750
7.016667	1	0.054375
7.033333	1	0.053000
7.050000	1	0.051250
7.066667	1	0.050125
7.083333	1	0.048500
7.100000	1	0.046375
7.116667	1	0.044625
7.133333	1	0.043000
7.150000	1	0.040750
7.166667	1	0.038500
7.183333	1	0.036000
7.200000	1	0.033750
7.216667	1	0.031000
7.233333	1	0.028375
7.250000	1	0.025875
7.266667	1	0.023000
7.283333	1	0.021250
7.300000	1	0.019125
7.316667	1	0.016500
7.333333	1	0.014375
7.350000	1	0.011875
7.366667	1	0.009125
7.383333	1	0.006875
7.400000	1	0.004875
7.416667	1	0.002875
7.433333	1	0.000250
7.450000	1	-0.002125
7.466667	1	-0.004375
7.483333	1	-0.006500
7.500000	1	-0.008875
7.516667	1	-0.010750
7.533333	1	-0.012625
7.550000	1	-0.014750
7.566667	1	-0.016625
7.583333	1	-0.018375
7.600000	1	-0.020125
7.616667	1	-0.021750
7.633333	1	-0.023125
7.650000	1	-0.023750
7.666667	1	-0.024375
7.683333	1	-0.025750
7.700000	1	-0.026500
7.716667	1	-0.027000
7.733333	1	-0.027375
7.750000	1	-0.027750
7.766667	1	-0.028250
7.783333	1	-0.029125
7.800000	1	-0.029500
7.816667	1	-0.029500
7.833333	1	-0.029500
7.850000	1	-0.029625
7.866667	1	-0.029375
7.883333	1	-0.029500
7.900000	1	-0.029250
7.916667	1	-0.029750
7.933333	1	-0.029375
7.950000	1	-0.028750
7.966667	1	-0.027875
7.983333	1	-0.027875
8.000000	1	-0.028000
8.016667	1	-0.027125
8.033333	1	-0.027125
8.050000	1	-0.026500
8.066667	1	-0.026125
8.083333	1	-0.025500
8.100000	1	-0.025375
8.116667	1	-0.024875
8.133333	1	-0.024750
8.150000	1	-0.024125
8.166667	1	-0.023375
8.183333	1	-0.023250
8.200000	1	-0.022500
8.216667	1	-0.022375
8.233333	1	-0.022875
8.250000	1	-0.022625
8.266667	1	-0.021875
8.283333	1	-0.020875
8.300000	1	-0.020375
8.316667	1	-0.019875
8.333333	1	-0.019125
8.350000	1	-0.018375
8.366667	1	-0.017750
8.383333	1	-0.016750
8.400000	1	-0.016250
8.416667	1	-0.015250
8.433333	1	-0.014250
8.450000	1	-0.012875
8.466667	1	-0.011125
8.483333	1	-0.010375
8.500000	1	-0.008375
8.516667	1	-0.006875
8.533333	1	-0.004375
8.550000	1	-0.002625
8.566667	1	-0.000500
8.583333	1	0.000875
8.600000	1	0.003000
8.616667	1	0.004750
8.633333	1	0.007250
8.650000	1	0.009625
8.666667	1	0.011500
8.683333	1	0.013375
8.700000	1	0.015500
8.716667	1	0.017625
8.733333	1	0.019375
8.750000	1	0.021875
8.766667	1	0.023750
8.783333	1	0.025375
8.800000	1	0.027375
8.816667	1	0.028875
8.833333	1	0.030625
8.850000	1	0.033625
8.866667	1	0.035250
8.883333	1	0.036875
8.900000	1	0.037500
8.916667	1	0.039000
8.933333	1	0.041000
8.950000	1	0.042125
8.966667	1	0.042875
8.983333	1	0.044625
9.000000	1	0.046750
9.016667	1	0.046875
9.033333	1	0.047750
9.050000	1	0.049000
9.066667	1	0.050125
9.083333	1	0.051250
9.100000	1	0.052125
9.116667	1	0.053000
9.133333	1	0.053625
9.150000	1	0.053875
9.166667	1	0.054500
9.183333	1	0.054625
9.200000	1	0.055500
9.216667	1	0.056000
9.233333	1	0.056750
9.250000	1	0.056750
9.266667	1	0.057125
9.283333	1	0.057125
9.300000	1	0.058250
9.316667	1	0.058500
9.333333	1	0.059000
9.350000	1	0.058625
9.366667	1	0.059250
9.383333	1	0.060125
9.400000	1	0.061625
9.416667	1	0.063125
9.433333	1	0.064625
9.450000	1	0.066125
9.466667	1	0.068875
9.483333	1	0.071625
9.500000	1	0.074750
9.516667	1	0.078000
9.533333	1	0.082250
9.550000	1	0.088375
9.566667	1	0.094500
9.583333	1	0.101500
9.600000	1	0.110500
9.616667	1	0.120500
9.633333	1	0.132375
9.650000	1	0.146250
9.666667	1	0.161500
9.683333	1	0.179125
9.700000	1	0.197375
9.716667	1	0.218250
9.733333	1	0.239125
9.750000	1	0.259625
9.766667	1	0.278125
9.783333	1	0.294375
9.800000	1	0.306500
9.816667	1	0.314125
9.833333	1	0.316125
9.850000	1	0.312125
9.866667	1	0.300625
9.883333	1	0.280875
9.900000	1	0.253250
9.916667	1	0.230375
9.933333	1	0.235250
9.950000	1	0.309250
9.966667	1	0.505750
9.983333	1	0.888375
10.000000	1	1.519625
10.016667	1	2.453000
10.033333	1	3.732625
10.050000	1	5.386375
10.066667	1	7.428000
10.083333	1	9.859500
10.100000	1	12.671125
10.116667	1	15.838625
10.133333	1	19.321375
10.150000	1	23.059875
10.166667	1	26.972000
10.183333	1	30.947500
10.200000	1	34.845625
10.216667	1	38.495375
10.233333	1	41.698750
10.250000	1	44.242750
10.266667	1	45.935125
10.283333	1	46.632375
10.300000	1	46.272625
10.316667	1	44.891375
10.333333	1	42.619875
10.350000	1	39.660750
10.366667	1	36.258875
10.383333	1	32.660500
10.400000	1	29.072500
10.416667	1	25.657875
10.433333	1	22.520625
10.450000	1	19.715500
10.466667	1	17.254375
10.483333	1	15.120125
10.500000	1	13.283625
10.516667	1	11.705625
10.533333	1	10.348375
10.550000	1	9.178375
10.566667	1	8.165625
10.583333	1	7.287125
10.600000	1	6.524625
10.616667	1	5.863625
10.633333	1	5.291500
10.650000	1	4.797875
10.666667	1	4.372250
10.683333	1	4.005125
10.700000	1	3.689625
10.716667	1	3.415875
10.733333	1	3.177375
10.750000	1	2.969125
10.766667	1	2.785750
10.783333	1	2.622375
10.800000	1	2.477375
10.816667	1	2.346625
10.833333	1	2.228250
10.850000	1	2.122250
10.866667	1	2.025000
10.883333	1	1.936500
10.900000	1	1.855250
10.916667	1	1.781625
10.933333	1	1.714000
10.950000	1	1.651625
10.966667	1	1.593625
10.983333	1	1.540625
11.000000	1	1.490500
11.016667	1	1.444875
11.033333	1	1.402250
11.050000	1	1.363125
11.066667	1	1.326625
11.083333	1	1.292875
11.100000	1	1.260750
11.116667	1	1.231500
11.133333	1	1.203000
11.150000	1	1.177625
11.166667	1	1.153125
11.183333	1	1.129750
11.200000	1	1.108125
11.216667	1	1.087125
11.233333	1	1.068250
11.250000	1	1.050375
11.266667	1	1.033000
11.283333	1	1.016750
11.300000	1	1.001375
11.316667	1	0.986750
11.333333	1	0.973000
11.350000	1	0.959500
11.366667	1	0.947000
11.383333	1	0.935125
11.400000	1	0.924375
11.416667	1	0.914625
11.433333	1	0.906000
11.450000	1	0.898500
11.466667	1	0.892250
11.483333	1	0.886750
11.500000	1	0.882125
11.516667	1	0.878375
11.533333	1	0.875750
11.550000	1	0.873375
11.566667	1	0.872375
11.583333	1	0.872250
11.600000	1	0.872000
11.616667	1	0.872750
11.633333	1	0.873750
11.650000	1	0.874625
11.666667	1	0.875750
11.683333	1	0.876875
11.700000	1	0.877250
11.716667	1	0.878625
11.733333	1	0.879000
11.750000	1	0.879250
11.766667	1	0.879500
11.783333	1	0.880000
11.800000	1	0.880750
11.816667	1	0.881875
11.833333	1	0.884000
11.850000	1	0.886375
11.866667	1	0.889875
11.883333	1	0.894625
11.900000	1	0.901125
11.916667	1	0.909250
11.933333	1	0.919125
11.950000	1	0.931000
11.966667	1	0.945000
11.983333	1	0.961250
12.000000	1	0.980750
12.016667	1	1.002500
12.033333	1	1.027750
12.050000	1	1.056625
12.066667	1	1.091250
12.083333	1	1.131250
12.100000	1	1.179125
12.116667	1	1.236125
12.133333	1	1.304250
12.150000	1	1.385875
12.166667	1	1.484875
12.183333	1	1.601250
12.200000	1	1.738750
12.216667	1	1.897375
12.233333	1	2.079625
12.250000	1	2.287125
12.266667	1	2.521125
12.283333	1	2.783500
12.300000	1	3.075375
12.316667	1	3.399250
12.333333	1	3.757250
12.350000	1	4.152875
12.366667	1	4.588875
12.383333	1	5.067625
12.400000	1	5.590625
12.416667	1	6.156375
12.433333	1	6.761000
12.450000	1	7.396875
12.466667	1	8.052750
12.483333	1	8.711750
12.500000	1	9.354250
12.516667	1	9.956375
12.533333	1	10.494375
12.550000	1	10.946250
12.566667	1	11.296750
12.583333	1	11.540250
12.600000	1	11.678625
12.616667	1	11.721375
12.633333	1	11.681250
12.650000	1	11.573000
12.666667	1	11.409750
12.683333	1	11.206500
12.700000	1	10.972250
12.716667	1	10.717000
12.733333	1	10.449000
12.750000	1	10.173625
12.766667	1	9.896375
12.783333	1	9.619625
12.800000	1	9.347500
12.816667	1	9.081250
12.833333	1	8.822750
12.850000	1	8.571625
12.866667	1	8.327750
12.883333	1	8.090750
12.900000	1	7.858750
12.916667	1	7.630875
12.933333	1	7.405875
12.950000	1	7.183000
12.966667	1	6.959500
12.983333	1	6.734625
13.000000	1	6.506000
13.016667	1	6.271625
13.033333	1	6.030000
13.050000	1	5.778125
13.066667	1	5.513750
13.083333	1	5.233375
13.100000	1	4.935250
13.116667	1	4.615625
13.133333	1	4.271875
13.150000	1	3.904875
13.166667	1	3.519375
13.183333	1	3.125875
13.200000	1	2.743500
13.216667	1	2.394250
13.233333	1	2.093125
13.250000	1	1.844625
13.266667	1	1.645250
13.283333	1	1.488125
13.300000	1	1.363000
13.316667	1	1.262000
13.333333	1	1.178875
13.350000	1	1.109625
13.366667	1	1.051875
13.383333	1	1.001875
13.400000	1	0.958875
13.416667	1	0.920375
13.433333	1	0.887375
13.450000	1	0.858000
13.466667	1	0.832500
13.483333	1	0.810375
13.500000	1	0.790750
13.516667	1	0.774125
13.533333	1	0.760000
13.550000	1	0.749250
13.566667	1	0.740250
13.583333	1	0.734250
13.600000	1	0.729500
13.616667	1	0.726875
13.633333	1	0.725375
13.650000	1	0.723375
13.666667	1	0.722750
13.683333	1	0.721125
13.700000	1	0.718750
13.716667	1	0.715375
13.733333	1	0.710750
13.750000	1	0.704750
13.766667	1	0.697000
13.783333	1	0.688500
13.800000	1	0.679250
13.816667	1	0.669000
13.833333	1	0.657250
13.850000	1	0.645250
13.866667	1	0.633500
13.883333	1	0.620250
13.900000	1	0.607500
13.916667	1	0.594750
13.933333	1	0.582875
13.950000	1	0.570750
13.966667	1	0.559625
13.983333	1	0.549500
14.000000	1	0.539875
14.016667	1	0.531375
14.033333	1	0.524125
14.050000	1	0.517875
14.066667	1	0.512750
14.083333	1	0.508375
14.100000	1	0.505500
14.116667	1	0.503500
14.133333	1	0.502875
14.150000	1	0.503500
14.166667	1	0.506375
14.183333	1	0.511500
14.200000	1	0.519000
14.216667	1	0.529000
14.233333	1	0.541750
14.250000	1	0.559500
14.266667	1	0.581250
14.283333	1	0.608250
14.300000	1	0.641125
14.316667	1	0.681000
14.333333	1	0.729250
14.350000	1	0.787000
14.366667	1	0.855750
14.383333	1	0.937000
14.400000	1	1.031375
14.416667	1	1.141125
14.433333	1	1.267750
14.450000	1	1.413625
14.466667	1	1.580500
14.483333	1	1.771250
14.500000	1	1.987750
14.516667	1	2.234500
14.533333	1	2.515000
14.550000	1	2.835375
14.566667	1	3.201375
14.583333	1	3.621375
14.600000	1	4.109125
14.616667	1	4.680250
14.633333	1	5.356125
14.650000	1	6.162250
14.666667	1	7.131000
14.683333	1	8.296625
14.700000	1	9.696875
14.716667	1	11.370375
14.733333	1	13.349250
14.750000	1	15.654375
14.766667	1	18.296125
14.783333	1	21.263000
14.800000	1	24.523000
14.816667	1	28.022625
14.833333	1	31.684000
14.850000	1	35.409500
14.866667	1	39.080750
14.883333	1	42.569750
14.900000	1	45.746375
14.916667	1	48.489125
14.933333	1	50.694875
14.950000	1	52.286750
14.966667	1	53.218375
14.983333	1	53.477375
15.000000	1	53.082125
15.016667	1	52.075875
15.033333	1	50.523500
15.050000	1	48.505375
15.066667	1	46.111750
15.083333	1	43.436875
15.100000	1	40.574500
15.116667	1	37.610250
15.133333	1	34.618500
15.150000	1	31.661750
15.166667	1	28.794625
15.183333	1	26.058375
15.200000	1	23.480250
15.216667	1	21.077625
15.233333	1	18.859000
15.250000	1	16.827625
15.266667	1	14.979875
15.283333	1	13.311625
15.300000	1	11.814250
15.316667	1	10.478875
15.333333	1	9.293625
15.350000	1	8.245125
15.366667	1	7.323500
15.383333	1	6.515500
15.400000	1	5.810375
15.416667	1	5.197125
15.433333	1	4.664000
15.450000	1	4.202750
15.466667	1	3.805375
15.483333	1	3.464750
15.500000	1	3.173500
15.516667	1	2.926000
15.533333	1	2.716625
15.550000	1	2.539250
15.566667	1	2.390125
15.583333	1	2.264250
15.600000	1	2.158000
15.616667	1	2.066375
15.633333	1	1.987250
15.650000	1	1.917000
15.666667	1	1.853250
15.683333	1	1.793375
15.700000	1	1.735625
15.716667	1	1.681000
15.733333	1	1.626375
15.750000	1	1.572250
15.766667	1	1.519500
15.783333	1	1.468000
15.800000	1	1.418000
15.816667	1	1.368375
15.833333	1	1.320500
15.850000	1	1.275000
15.866667	1	1.231250
15.883333	1	1.190125
15.900000	1	1.151125
15.916667	1	1.114250
15.933333	1	1.080375
15.950000	1	1.048875
15.966667	1	1.020125
15.983333	1	0.994125
16.000000	1	0.971625
16.016667	1	0.951375
16.033333	1	0.934125
16.050000	1	0.919750
16.066667	1	0.907750
16.083333	1	0.897375
16.100000	1	0.890000
16.116667	1	0.885375
16.133333	1	0.882625
16.150000	1	0.881125
16.166667	1	0.881125
16.183333	1	0.882250
16.200000	1	0.883625
16.216667	1	0.885375
16.233333	1	0.885625
16.250000	1	0.885625
16.266667	1	0.884000
16.283333	1	0.881250
16.300000	1	0.878250
16.316667	1	0.873500
16.333333	1	0.867375
16.350000	1	0.860375
16.366667	1	0.853250
16.383333	1	0.845875
16.400000	1	0.838000
16.416667	1	0.830875
16.433333	1	0.824125
16.450000	1	0.818000
16.466667	1	0.811875
16.483333	1	0.806375
16.500000	1	0.802500
16.516667	1	0.799750
16.533333	1	0.797375
16.550000	1	0.795750
16.566667	1	0.794625
16.583333	1	0.794250
16.600000	1	0.795250
16.616667	1	0.796625
16.633333	1	0.799000
16.650000	1	0.801750
16.666667	1	0.805375
16.683333	1	0.809250
16.700000	1	0.813125
16.716667	1	0.817125
16.733333	1	0.821750
16.750000	1	0.825625
16.766667	1	0.829125
16.783333	1	0.832250
16.800000	1	0.834375
16.816667	1	0.836000
16.833333	1	0.836750
16.850000	1	0.836375
16.866667	1	0.834625
16.883333	1	0.832750
16.900000	1	0.830625
16.916667	1	0.827750
16.933333	1	0.825250
16.950000	1	0.822375
16.966667	1	0.819875
16.983333	1	0.818000
17.000000	1	0.817500
17.016667	1	0.817750
17.033333	1	0.818000
17.050000	1	0.819000
17.066667	1	0.819375
17.083333	1	0.820875
17.100000	1	0.821125
17.116667	1	0.822125
17.133333	1	0.821500
17.150000	1	0.820875
17.166667	1	0.819625
17.183333	1	0.816750
17.200000	1	0.811750
17.216667	1	0.807250
17.233333	1	0.801250
17.250000	1	0.794000
17.266667	1	0.785750
17.283333	1	0.777000
17.300000	1	0.768000
17.316667	1	0.758250
17.333333	1	0.749500
17.350000	1	0.741125
17.366667	1	0.732000
17.383333	1	0.723500
17.400000	1	0.715500
17.416667	1	0.708875
17.433333	1	0.703000
17.450000	1	0.697625
17.466667	1	0.693125
17.483333	1	0.690375
17.500000	1	0.688500
17.516667	1	0.688375
17.533333	1	0.690250
17.550000	1	0.693875
17.566667	1	0.698375
17.583333	1	0.705375
17.600000	1	0.714000
17.616667	1	0.724000
17.633333	1	0.735250
17.650000	1	0.748250
17.666667	1	0.761875
17.683333	1	0.776875
17.700000	1	0.791750
17.716667	1	0.806750
17.733333	1	0.822500
17.750000	1	0.838750
17.766667	1	0.854625
17.783333	1	0.870375
17.800000	1	0.884250
17.816667	1	0.896750
17.833333	1	0.907625
17.850000	1	0.917000
17.866667	1	0.924375
17.883333	1	0.930000
17.900000	1	0.934250
17.916667	1	0.935750
17.933333	1	0.935375
17.950000	1	0.932625
17.966667	1	0.927875
17.983333	1	0.920500
18.000000	1	0.912000
18.016667	1	0.902000
18.033333	1	0.890750
18.050000	1	0.878125
18.066667	1	0.864875
18.083333	1	0.850500
18.100000	1	0.836375
18.116667	1	0.821750
18.133333	1	0.806750
18.150000	1	0.791875
18.166667	1	0.777750
18.183333	1	0.763250
18.200000	1	0.749750
18.216667	1	0.736750
18.233333	1	0.723750
18.250000	1	0.712125
18.266667	1	0.700875
18.283333	1	0.690750
18.300000	1	0.681500
18.316667	1	0.673500
18.333333	1	0.666625
18.350000	1	0.660750
18.366667	1	0.656000
18.383333	1	0.651875
18.400000	1	0.648625
18.416667	1	0.646500
18.433333	1	0.644750
18.450000	1	0.644000
18.466667	1	0.643125
18.483333	1	0.642625
18.500000	1	0.642750
18.516667	1	0.643500
18.533333	1	0.644500
18.550000	1	0.646125
18.566667	1	0.648250
18.583333	1	0.650500
18.600000	1	0.653375
18.616667	1	0.656125
18.633333	1	0.660125
18.650000	1	0.663875
18.666667	1	0.668375
18.683333	1	0.672875
18.700000	1	0.678000
18.716667	1	0.684750
18.733333	1	0.691250
18.750000	1	0.698375
18.766667	1	0.706125
18.783333	1	0.714500
18.800000	1	0.723250
18.816667	1	0.733125
18.833333	1	0.743375
18.850000	1	0.754125
18.866667	1	0.764750
18.883333	1	0.777750
18.900000	1	0.791500
18.916667	1	0.805750
18.933333	1	0.822250
18.950000	1	0.841500
18.966667	1	0.862625
18.983333	1	0.885875
19.000000	1	0.911625
19.016667	1	0.939875
19.033333	1	0.971625
19.050000	1	1.005250
19.066667	1	1.041000
19.083333	1	1.079125
19.100000	1	1.119125
19.116667	1	1.160000
19.133333	1	1.200875
19.150000	1	1.241500
19.166667	1	1.281250
19.183333	1	1.318000
19.200000	1	1.352125
19.216667	1	1.381625
19.233333	1	1.406625
19.250000	1	1.426625
19.266667	1	1.440750
19.283333	1	1.448875
19.300000	1	1.450375
19.316667	1	1.445250
19.333333	1	1.434125
19.350000	1	1.417625
19.366667	1	1.395125
19.383333	1	1.366750
19.400000	1	1.334375
19.416667	1	1.298500
19.433333	1	1.259875
19.450000	1	1.218875
19.466667	1	1.176875
19.483333	1	1.132500
19.500000	1	1.089125
19.516667	1	1.045250
19.533333	1	1.002875
19.550000	1	0.962750
19.566667	1	0.925000
19.583333	1	0.888250
19.600000	1	0.854875
19.616667	1	0.823125
19.633333	1	0.795625
19.650000	1	0.771750
19.666667	1	0.751125
19.683333	1	0.734375
19.700000	1	0.721125
19.716667	1	0.711750
19.733333	1	0.707000
19.750000	1	0.706250
19.766667	1	0.709000
19.783333	1	0.715375
19.800000	1	0.725750
19.816667	1	0.739875
19.833333	1	0.757000
19.850000	1	0.777375
19.866667	1	0.799625
19.883333	1	0.823750
19.900000	1	0.849500
19.916667	1	0.876375
19.933333	1	0.902875
19.950000	1	0.930125
19.966667	1	0.956375
19.983333	1	0.982750
20.000000	1	1.007625
20.016667	1	1.031500
20.033333	1	1.054625
20.050000	1	1.076875
20.066667	1	1.098875
20.083333	1	1.120125
20.100000	1	1.141875
20.116667	1	1.165500
20.133333	1	1.191500
20.150000	1	1.219250
20.166667	1	1.251000
20.183333	1	1.288125
20.200000	1	1.331000
20.216667	1	1.381250
20.233333	1	1.439000
20.250000	1	1.505875
20.266667	1	1.583750
20.283333	1	1.671000
20.300000	1	1.768125
20.316667	1	1.875125
20.333333	1	1.991250
20.350000	1	2.114250
20.366667	1	2.242250
20.383333	1	2.373625
20.400000	1	2.506000
20.416667	1	2.634625
20.433333	1	2.757750
20.450000	1	2.871250
20.466667	1	2.973000
20.483333	1	3.059125
20.500000	1	3.127750
20.516667	1	3.178625
20.533333	1	3.209000
20.550000	1	3.219750
20.566667	1	3.210750
20.583333	1	3.183125
20.600000	1	3.138625
20.616667	1	3.080250
20.633333	1	3.009500
20.650000	1	2.930750
20.666667	1	2.847125
20.683333	1	2.761125
20.700000	1	2.676625
20.716667	1	2.595875
20.733333	1	2.521750
20.750000	1	2.456125
20.766667	1	2.400250
20.783333	1	2.355125
20.800000	1	2.322125
20.816667	1	2.299750
20.833333	1	2.287750
20.850000	1	2.284750
20.866667	1	2.289625
20.883333	1	2.299250
20.900000	1	2.311875
20.916667	1	2.324250
20.933333	1	2.334250
20.950000	1	2.339875
20.966667	1	2.337250
20.983333	1	2.326250
21.000000	1	2.306000
21.016667	1	2.275250
21.033333	1	2.233375
21.050000	1	2.181125
21.066667	1	2.119000
21.083333	1	2.048125
21.100000	1	1.970000
21.116667	1	1.885500
21.133333	1	1.796500
21.150000	1	1.704375
21.166667	1	1.610750
21.183333	1	1.517125
21.200000	1	1.425250
21.216667	1	1.335000
21.233333	1	1.247750
21.250000	1	1.164750
21.266667	1	1.086625
21.283333	1	1.013625
21.300000	1	0.945500
21.316667	1	0.882500
21.333333	1	0.825000
21.350000	1	0.773125
21.366667	1	0.725375
21.383333	1	0.682125
21.400000	1	0.643625
21.416667	1	0.608625
21.433333	1	0.578125
21.450000	1	0.550625
21.466667	1	0.526500
21.483333	1	0.505375
21.500000	1	0.486625
21.516667	1	0.470250
21.533333	1	0.456625
21.550000	1	0.444375
21.566667	1	0.433500
21.583333	1	0.424875
21.600000	1	0.417250
21.616667	1	0.411250
21.633333	1	0.406125
21.650000	1	0.402000
21.666667	1	0.399500
21.683333	1	0.397625
21.700000	1	0.396500
21.716667	1	0.396875
21.733333	1	0.398125
21.750000	1	0.401000
21.766667	1	0.405125
21.783333	1	0.409875
21.800000	1	0.416000
21.816667	1	0.423000
21.833333	1	0.431625
21.850000	1	0.441000
21.866667	1	0.450750
21.883333	1	0.461375
21.900000	1	0.472375
21.916667	1	0.483875
21.933333	1	0.495500
21.950000	1	0.506875
21.966667	1	0.517750
21.983333	1	0.527250
22.000000	1	0.535625
22.016667	1	0.543375
22.033333	1	0.549375
22.050000	1	0.553750
22.066667	1	0.556875
22.083333	1	0.557500
22.100000	1	0.557375
22.116667	1	0.555750
22.133333	1	0.551625
22.150000	1	0.546500
22.166667	1	0.540250
22.183333	1	0.533125
22.200000	1	0.525375
22.216667	1	0.516750
22.233333	1	0.508375
22.250000	1	0.499250
22.266667	1	0.490875
22.283333	1	0.483000
22.300000	1	0.475250
22.316667	1	0.467625
22.333333	1	0.461500
22.350000	1	0.457250
22.366667	1	0.452375
22.383333	1	0.449000
22.400000	1	0.446375
22.416667	1	0.444375
22.433333	1	0.442750
22.450000	1	0.442375
22.466667	1	0.443125
22.483333	1	0.444125
22.500000	1	0.446000
22.516667	1	0.448500
22.533333	1	0.450000
22.550000	1	0.453000
22.566667	1	0.455500
22.583333	1	0.458000
22.600000	1	0.460125
22.616667	1	0.463000
22.633333	1	0.464750
22.650000	1	0.467000
22.666667	1	0.468375
22.683333	1	0.470250
22.700000	1	0.470875
22.716667	1	0.471875
22.733333	1	0.471500
22.750000	1	0.471375
22.766667	1	0.470125
22.783333	1	0.468500
22.800000	1	0.465250
22.816667	1	0.462250
22.833333	1	0.458250
22.850000	1	0.454500
22.866667	1	0.450125
22.883333	1	0.445500
22.900000	1	0.440500
22.916667	1	0.435000
22.933333	1	0.430000
22.950000	1	0.424750
22.966667	1	0.419125
22.983333	1	0.414250
23.000000	1	0.409500
23.016667	1	0.406125
23.033333	1	0.403125
23.050000	1	0.400625
23.066667	1	0.399000
23.083333	1	0.398500
23.100000	1	0.398750
23.116667	1	0.400500
23.133333	1	0.403750
23.150000	1	0.408125
23.166667	1	0.413625
23.183333	1	0.421000
23.200000	1	0.430250
23.216667	1	0.441750
23.233333	1	0.454375
23.250000	1	0.469125
23.266667	1	0.486375
23.283333	1	0.506250
23.300000	1	0.527875
23.316667	1	0.552375
23.333333	1	0.579750
23.350000	1	0.610625
23.366667	1	0.644375
23.383333	1	0.681500
23.400000	1	0.723000
23.416667	1	0.768750
23.433333	1	0.819375
23.450000	1	0.876000
23.466667	1	0.939125
23.483333	1	1.009250
23.500000	1	1.087750
23.516667	1	1.174750
23.533333	1	1.272875
23.550000	1	1.383000
23.566667	1	1.506125
23.583333	1	1.644000
23.600000	1	1.797625
23.616667	1	1.969250
23.633333	1	2.158375
23.650000	1	2.366375
23.666667	1	2.593125
23.683333	1	2.838375
23.700000	1	3.101500
23.716667	1	3.381750
23.733333	1	3.675500
23.750000	1	3.979875
23.766667	1	4.291375
23.783333	1	4.604875
23.800000	1	4.915750
23.816667	1	5.219250
23.833333	1	5.508500
23.850000	1	5.778750
23.866667	1	6.023875
23.883333	1	6.239625
23.900000	1	6.420375
23.916667	1	6.563625
23.933333	1	6.666250
23.950000	1	6.726375
23.966667	1	6.742750
23.983333	1	6.716000
24.000000	1	6.647625
24.016667	1	6.540000
24.033333	1	6.394750
24.050000	1	6.218125
24.066667	1	6.012625
24.083333	1	5.783500
24.100000	1	5.534750
24.116667	1	5.271000
24.133333	1	4.996500
24.150000	1	4.716625
24.166667	1	4.435500
24.183333	1	4.156250
24.200000	1	3.882125
24.216667	1	3.615750
24.233333	1	3.359875
24.250000	1	3.115625
24.266667	1	2.886125
24.283333	1	2.669625
24.300000	1	2.468375
24.316667	1	2.281875
24.333333	1	2.109750
24.350000	1	1.950625
24.366667	1	1.807000
24.383333	1	1.676250
24.400000	1	1.558500
24.416667	1	1.451750
24.433333	1	1.356250
24.450000	1	1.270000
24.466667	1	1.192875
24.483333	1	1.123750
24.500000	1	1.060875
24.516667	1	1.004125
24.533333	1	0.952375
24.550000	1	0.906125
24.566667	1	0.863125
24.583333	1	0.823375
24.600000	1	0.785875
24.616667	1	0.751375
24.633333	1	0.718500
24.650000	1	0.688375
24.666667	1	0.659250
24.683333	1	0.631625
24.700000	1	0.605000
24.716667	1	0.578750
24.733333	1	0.554375
24.750000	1	0.530125
24.766667	1	0.506625
24.783333	1	0.483875
24.800000	1	0.461625
24.816667	1	0.440250
24.833333	1	0.420750
24.850000	1	0.401875
24.866667	1	0.384000
24.883333	1	0.366750
24.900000	1	0.350125
24.916667	1	0.334625
24.933333	1	0.320250
24.950000	1	0.307750
24.966667	1	0.295500
24.983333	1	0.284500
25.000000	1	0.274250
25.016667	1	0.265375
25.033333	1	0.257375
25.050000	1	0.250875
25.066667	1	0.245125
25.083333	1	0.239750
25.100000	1	0.235375
25.116667	1	0.231500
25.133333	1	0.228375
25.150000	1	0.226500
25.166667	1	0.224875
25.183333	1	0.224000
25.200000	1	0.223875
25.216667	1	0.223875
25.233333	1	0.224125
25.250000	1	0.225500
25.266667	1	0.227625
25.283333	1	0.230000
25.300000	1	0.231500
25.316667	1	0.234125
25.333333	1	0.236375
25.350000	1	0.239875
25.366667	1	0.242875
25.383333	1	0.245250
25.400000	1	0.248875
25.416667	1	0.251625
25.433333	1	0.254125
25.450000	1	0.256500
25.466667	1	0.259375
25.483333	1	0.262125
25.500000	1	0.264500
25.516667	1	0.266500
25.533333	1	0.267875
25.550000	1	0.268875
25.566667	1	0.270250
25.583333	1	0.270125
25.600000	1	0.270750
25.616667	1	0.271000
25.633333	1	0.272000
25.650000	1	0.271625
25.666667	1	0.271000
25.683333	1	0.269125
25.700000	1	0.267875
25.716667	1	0.266625
25.733333	1	0.265250
25.750000	1	0.263625
25.766667	1	0.261000
25.783333	1	0.258500
25.800000	1	0.257000
25.816667	1	0.253750
25.833333	1	0.250875
25.850000	1	0.248375
25.866667	1	0.244750
25.883333	1	0.240500
25.900000	1	0.236250
25.916667	1	0.232000
25.933333	1	0.227625
25.950000	1	0.222500
25.966667	1	0.216625
25.983333	1	0.211000
26.000000	1	0.204625
26.016667	1	0.198250
26.033333	1	0.191875
26.050000	1	0.186000
26.066667	1	0.179250
26.083333	1	0.173125
26.100000	1	0.166500
26.116667	1	0.159500
26.133333	1	0.152875
26.150000	1	0.146625
26.166667	1	0.140250
26.183333	1	0.135000
26.200000	1	0.129500
26.216667	1	0.124375
26.233333	1	0.119625
26.250000	1	0.116500
26.266667	1	0.113625
26.283333	1	0.112000
26.300000	1	0.110625
26.316667	1	0.110000
26.333333	1	0.109125
26.350000	1	0.109625
26.366667	1	0.110250
26.383333	1	0.111125
26.400000	1	0.112250
26.416667	1	0.114750
26.433333	1	0.117500
26.450000	1	0.119750
26.466667	1	0.122500
26.483333	1	0.124250
26.500000	1	0.127375
26.516667	1	0.130250
26.533333	1	0.133250
26.550000	1	0.135750
26.566667	1	0.137625
26.583333	1	0.140125
26.600000	1	0.142750
26.616667	1	0.144750
26.633333	1	0.146250
26.650000	1	0.147750
26.666667	1	0.149000
26.683333	1	0.150000
26.700000	1	0.151250
26.716667	1	0.152250
26.733333	1	0.154000
26.750000	1	0.155750
26.766667	1	0.157125
26.783333	1	0.158500
26.800000	1	0.159625
26.816667	1	0.161250
26.833333	1	0.163250
26.850000	1	0.166000
26.866667	1	0.168500
26.883333	1	0.170500
26.900000	1	0.173500
26.916667	1	0.176375
26.933333	1	0.179375
26.950000	1	0.183000
26.966667	1	0.187000
26.983333	1	0.191750
27.000000	1	0.195750
27.016667	1	0.201125
27.033333	1	0.206250
27.050000	1	0.212125
27.066667	1	0.218750
27.083333	1	0.225250
27.100000	1	0.232000
27.116667	1	0.239750
27.133333	1	0.247250
27.150000	1	0.255625
27.166667	1	0.265375
27.183333	1	0.275250
27.200000	1	0.285500
27.216667	1	0.295750
27.233333	1	0.307750
27.250000	1	0.320000
27.266667	1	0.333000
27.283333	1	0.346625
27.300000	1	0.361875
27.316667	1	0.377375
27.333333	1	0.394000
27.350000	1	0.411875
27.366667	1	0.430250
27.383333	1	0.450500
27.400000	1	0.471875
27.416667	1	0.495125
27.433333	1	0.520500
27.450000	1	0.547375
27.466667	1	0.576125
27.483333	1	0.607375
27.500000	1	0.642000
27.516667	1	0.679750
27.533333	1	0.720375
27.550000	1	0.765375
27.566667	1	0.815250
27.583333	1	0.870125
27.600000	1	0.930375
27.616667	1	0.996125
27.633333	1	1.067375
27.650000	1	1.146000
27.666667	1	1.230625
27.683333	1	1.322625
27.700000	1	1.421000
27.716667	1	1.525375
27.733333	1	1.636250
27.750000	1	1.753125
27.766667	1	1.874750
27.783333	1	2.001125
27.800000	1	2.130375
27.816667	1	2.261625
27.833333	1	2.393000
27.850000	1	2.524375
27.866667	1	2.653125
27.883333	1	2.777125
27.900000	1	2.895250
27.916667	1	3.005250
27.933333	1	3.106125
27.950000	1	3.196000
27.966667	1	3.272875
27.983333	1	3.336125
28.000000	1	3.384250
28.016667	1	3.416250
28.033333	1	3.431750
28.050000	1	3.430125
28.066667	1	3.411500
28.083333	1	3.376000
28.100000	1	3.323500
28.116667	1	3.255375
28.133333	1	3.172625
28.150000	1	3.076875
28.166667	1	2.969500
28.183333	1	2.852250
28.200000	1	2.726500
28.216667	1	2.594625
28.233333	1	2.456375
28.250000	1	2.316000
28.266667	1	2.173625
28.283333	1	2.031250
28.300000	1	1.889875
28.316667	1	1.751125
28.333333	1	1.616000
28.350000	1	1.486000
28.366667	1	1.360750
28.383333	1	1.241625
28.400000	1	1.128875
28.416667	1	1.022875
28.433333	1	0.923375
28.450000	1	0.829375
28.466667	1	0.742375
28.483333	1	0.660750
28.500000	1	0.584625
28.516667	1	0.513750
28.533333	1	0.448125
28.550000	1	0.387250
28.566667	1	0.329500
28.583333	1	0.275875
28.600000	1	0.224750
28.616667	1	0.177375
28.633333	1	0.132000
28.650000	1	0.089375
28.666667	1	0.048500
28.683333	1	0.009125
28.700000	1	-0.028625
28.716667	1	-0.064375
28.733333	1	-0.099125
28.750000	1	-0.132125
28.766667	1	-0.163625
28.783333	1	-0.192875
28.800000	1	-0.221000
28.816667	1	-0.247000
28.833333	1	-0.271500
28.850000	1	-0.294000
28.866667	1	-0.313750
28.883333	1	-0.331875
28.900000	1	-0.348125
28.916667	1	-0.361750
28.933333	1	-0.373375
28.950000	1	-0.382375
28.966667	1	-0.388500
28.983333	1	-0.392125
29.000000	1	-0.393125
29.016667	1	-0.391750
29.033333	1	-0.387375
29.050000	1	-0.380375
29.066667	1	-0.370250
29.083333	1	-0.359000
29.100000	1	-0.345625
29.116667	1	-0.329750
29.133333	1	-0.311750
29.150000	1	-0.292250
29.166667	1	-0.271000
29.183333	1	-0.247875
29.200000	1	-0.223625
29.216667	1	-0.198625
29.233333	1	-0.172750
29.250000	1	-0.146250
29.266667	1	-0.119000
29.283333	1	-0.091500
29.300000	1	-0.063875
29.316667	1	-0.036625
29.333333	1	-0.008875
29.350000	1	0.018250
29.366667	1	0.045125
29.383333	1	0.072375
29.400000	1	0.098375
29.416667	1	0.123750
29.433333	1	0.147875
29.450000	1	0.171125
29.466667	1	0.193500
29.483333	1	0.215125
29.500000	1	0.235250
29.516667	1	0.254875
29.533333	1	0.272750
29.550000	1	0.289500
29.566667	1	0.305250
29.583333	1	0.319500
29.600000	1	0.333000
29.616667	1	0.344875
29.633333	1	0.356125
29.650000	1	0.366375
29.666667	1	0.374500
29.683333	1	0.381125
29.700000	1	0.387125
29.716667	1	0.391750
29.733333	1	0.396125
29.750000	1	0.399000
29.766667	1	0.401125
29.783333	1	0.401625
29.800000	1	0.401750
29.816667	1	0.401250
29.833333	1	0.400375
29.850000	1	0.398375
29.866667	1	0.396000
29.883333	1	0.393125
29.900000	1	0.390000
29.916667	1	0.385875
29.933333	1	0.382000
29.950000	1	0.377875
29.966667	1	0.372875
29.983333	1	0.368500
30.000000	1	0.364500
30.016667	1	0.359875
30.033333	1	0.355375
30.050000	1	0.351500
30.066667	1	0.347000
30.083333	1	0.343000
30.100000	1	0.338375
30.116667	1	0.334750
30.133333	1	0.331000
30.150000	1	0.328000
30.166667	1	0.324875
30.183333	1	0.321625
30.200000	1	0.319000
30.216667	1	0.316375
30.233333	1	0.314000
30.250000	1	0.312125
30.266667	1	0.309500
30.283333	1	0.307500
30.300000	1	0.305375
30.316667	1	0.303750
30.333333	1	0.302375
30.350000	1	0.300625
30.366667	1	0.299750
30.383333	1	0.299000
30.400000	1	0.298750
30.416667	1	0.299500
30.433333	1	0.300125
30.450000	1	0.300375
30.466667	1	0.301750
30.483333	1	0.303000
30.500000	1	0.305125
30.516667	1	0.307375
30.533333	1	0.310625
30.550000	1	0.314125
30.566667	1	0.317500
30.583333	1	0.322250
30.600000	1	0.327250
30.616667	1	0.332000
30.633333	1	0.337500
30.650000	1	0.343500
30.666667	1	0.349625
30.683333	1	0.355500
30.700000	1	0.361500
30.716667	1	0.367125
30.733333	1	0.372750
30.750000	1	0.377875
30.766667	1	0.382375
30.783333	1	0.386750
30.800000	1	0.390750
30.816667	1	0.394250
30.833333	1	0.396500
30.850000	1	0.398500
30.866667	1	0.399500
30.883333	1	0.399125
30.900000	1	0.397375
30.916667	1	0.396250
30.933333	1	0.392750
30.950000	1	0.387625
30.966667	1	0.382375
30.983333	1	0.377125
31.000000	1	0.370250
31.016667	1	0.363125
31.033333	1	0.354875
31.050000	1	0.346000
31.066667	1	0.337125
31.083333	1	0.326500
31.100000	1	0.316125
31.116667	1	0.305500
31.133333	1	0.295125
31.150000	1	0.284625
31.166667	1	0.273875
31.183333	1	0.263000
31.200000	1	0.252750
31.216667	1	0.243500
31.233333	1	0.234750
31.250000	1	0.225875
31.266667	1	0.216500
31.283333	1	0.207500
31.300000	1	0.199875
31.316667	1	0.191625
31.333333	1	0.184625
31.350000	1	0.178125
31.366667	1	0.172875
31.383333	1	0.167000
31.400000	1	0.162500
31.416667	1	0.158250
31.433333	1	0.154750
31.450000	1	0.151125
31.466667	1	0.148375
31.483333	1	0.146375
31.500000	1	0.144875
31.516667	1	0.144250
31.533333	1	0.143875
31.550000	1	0.143500
31.566667	1	0.144000
31.583333	1	0.144875
31.600000	1	0.146000
31.616667	1	0.148000
31.633333	1	0.150375
31.650000	1	0.152500
31.666667	1	0.154750
31.683333	1	0.157875
31.700000	1	0.161000
31.716667	1	0.165000
31.733333	1	0.169375
31.750000	1	0.173625
31.766667	1	0.178750
31.783333	1	0.182875
31.800000	1	0.187750
31.816667	1	0.192875
31.833333	1	0.198250
31.850000	1	0.203875
31.866667	1	0.209250
31.883333	1	0.213875
31.900000	1	0.219250
31.916667	1	0.224125
31.933333	1	0.228500
31.950000	1	0.232750
31.966667	1	0.237000
31.983333	1	0.240375
32.000000	1	0.243500
32.016667	1	0.245625
32.033333	1	0.248000
32.050000	1	0.249750
32.066667	1	0.250875
32.083333	1	0.250375
32.100000	1	0.249875
32.116667	1	0.248250
32.133333	1	0.246875
32.150000	1	0.244750
32.166667	1	0.241250
32.183333	1	0.237250
32.200000	1	0.233375
32.216667	1	0.228000
32.233333	1	0.222125
32.250000	1	0.216250
32.266667	1	0.209000
32.283333	1	0.201875
32.300000	1	0.194875
32.316667	1	0.187625
32.333333	1	0.179750
32.350000	1	0.172875
32.366667	1	0.165250
32.383333	1	0.157125
32.400000	1	0.149625
32.416667	1	0.142125
32.433333	1	0.134500
32.450000	1	0.126500
32.466667	1	0.119000
32.483333	1	0.111500
32.500000	1	0.104250
32.516667	1	0.097125
32.533333	1	0.090500
32.550000	1	0.084000
32.566667	1	0.077875
32.583333	1	0.071375
32.600000	1	0.065250
32.616667	1	0.059500
32.633333	1	0.053875
32.650000	1	0.048250
32.666667	1	0.043500
32.683333	1	0.038625
32.700000	1	0.033750
32.716667	1	0.028500
32.733333	1	0.023625
32.750000	1	0.020250
32.766667	1	0.016250
32.783333	1	0.011875
32.800000	1	0.007750
32.816667	1	0.003750
32.833333	1	0.000000
32.850000	1	-0.002750
32.866667	1	-0.006250
32.883333	1	-0.009500
32.900000	1	-0.011500
32.916667	1	-0.014500
32.933333	1	-0.017375
32.950000	1	-0.019500
32.966667	1	-0.021875
32.983333	1	-0.023875
33.000000	1	-0.026625
33.016667	1	-0.028375
33.033333	1	-0.030125
33.050000	1	-0.031500
33.066667	1	-0.033250
33.083333	1	-0.035000
33.100000	1	-0.035625
33.116667	1	-0.036500
33.133333	1	-0.037750
33.150000	1	-0.038000
33.166667	1	-0.039125
33.183333	1	-0.039625
33.200000	1	-0.039750
33.216667	1	-0.040250
33.233333	1	-0.040250
33.250000	1	-0.040375
33.266667	1	-0.040750
33.283333	1	-0.040750
33.300000	1	-0.040500
33.316667	1	-0.040875
33.333333	1	-0.040875
33.350000	1	-0.040375
33.366667	1	-0.040500
33.383333	1	-0.040000
33.400000	1	-0.039500
33.416667	1	-0.039375
33.433333	1	-0.039125
33.450000	1	-0.039250
33.466667	1	-0.038625
33.483333	1	-0.038125
33.500000	1	-0.037875
33.516667	1	-0.037625
33.533333	1	-0.037125
33.550000	1	-0.036000
33.566667	1	-0.035250
33.583333	1	-0.035125
33.600000	1	-0.034750
33.616667	1	-0.034500
33.633333	1	-0.033750
33.650000	1	-0.033250
33.666667	1	-0.032750
33.683333	1	-0.032000
33.700000	1	-0.032125
33.716667	1	-0.031625
33.733333	1	-0.031250
33.750000	1	-0.030500
33.766667	1	-0.029250
33.783333	1	-0.028500
33.800000	1	-0.027375
33.816667	1	-0.026000
33.833333	1	-0.025375
33.850000	1	-0.024375
33.866667	1	-0.022500
33.883333	1	-0.021250
33.900000	1	-0.019625
33.916667	1	-0.017875
33.933333	1	-0.016500
33.950000	1	-0.014500
33.966667	1	-0.013000
33.983333	1	-0.010250
34.000000	1	-0.008250
34.016667	1	-0.006625
34.033333	1	-0.004875
34.050000	1	-0.002250
34.066667	1	0.000000
34.083333	1	0.002125
34.100000	1	0.004375
34.116667	1	0.006750
34.133333	1	0.009125
34.150000	1	0.011500
34.166667	1	0.013875
34.183333	1	0.016125
34.200000	1	0.018375
34.216667	1	0.020250
34.233333	1	0.022125
34.250000	1	0.024000
34.266667	1	0.025875
34.283333	1	0.027625
34.300000	1	0.028875
34.316667	1	0.030750
34.333333	1	0.031625
34.350000	1	0.032750
34.366667	1	0.033750
34.383333	1	0.035000
34.400000	1	0.035625
34.416667	1	0.036375
34.433333	1	0.036375
34.450000	1	0.036375
34.466667	1	0.036250
34.483333	1	0.036250
34.500000	1	0.036000
34.516667	1	0.036500
34.533333	1	0.036875
34.550000	1	0.037250
34.566667	1	0.037125
34.583333	1	0.037000
34.600000	1	0.036875
34.616667	1	0.036375
34.633333	1	0.036000
34.650000	1	0.036000
34.666667	1	0.036250
34.683333	1	0.035875
34.700000	1	0.035500
34.716667	1	0.035500
34.733333	1	0.035000
34.750000	1	0.035125
34.766667	1	0.034750
34.783333	1	0.034625
34.800000	1	0.034500
34.816667	1	0.034250
34.833333	1	0.034750
34.850000	1	0.035375
34.866667	1	0.035625
34.883333	1	0.036375
34.900000	1	0.036750
34.916667	1	0.037750
34.933333	1	0.038750
34.950000	1	0.040000
34.966667	1	0.042000
34.983333	1	0.044125
35.000000	1	0.045625
35.016667	1	0.047625
35.033333	1	0.049625
35.050000	1	0.051875
35.066667	1	0.054500
35.083333	1	0.057375
35.100000	1	0.059625
35.116667	1	0.062375
35.133333	1	0.066000
35.150000	1	0.069125
35.166667	1	0.072750
35.183333	1	0.076500
35.200000	1	0.079875
35.216667	1	0.082875
35.233333	1	0.086625
35.250000	1	0.090375
35.266667	1	0.094750
35.283333	1	0.098750
35.300000	1	0.102500
35.316667	1	0.105875
35.333333	1	0.109875
35.350000	1	0.113500
35.366667	1	0.116500
35.383333	1	0.119875
35.400000	1	0.123000
35.416667	1	0.126625
35.433333	1	0.129375
35.450000	1	0.132000
35.466667	1	0.135750
35.483333	1	0.137875
35.500000	1	0.140375
35.516667	1	0.142000
35.533333	1	0.144500
35.550000	1	0.146500
35.566667	1	0.147875
35.583333	1	0.149500
35.600000	1	0.151250
35.616667	1	0.152500
35.633333	1	0.153625
35.650000	1	0.154375
35.666667	1	0.155125
35.683333	1	0.155375
35.700000	1	0.155125
35.716667	1	0.154875
35.733333	1	0.154500
35.750000	1	0.154375
35.766667	1	0.153375
35.783333	1	0.152625
35.800000	1	0.151375
35.816667	1	0.149875
35.833333	1	0.149000
35.850000	1	0.147625
35.866667	1	0.146000
35.883333	1	0.144250
35.900000	1	0.142250
35.916667	1	0.141000
35.933333	1	0.139375
35.950000	1	0.137625
35.966667	1	0.135500
35.983333	1	0.133500
36.000000	1	0.131500
36.016667	1	0.129625
36.033333	1	0.127750
36.050000	1	0.125500
36.066667	1	0.123125
36.083333	1	0.120500
36.100000	1	0.118500
36.116667	1	0.116500
36.133333	1	0.114875
36.150000	1	0.113000
36.166667	1	0.110750
36.183333	1	0.108750
36.200000	1	0.106500
36.216667	1	0.103875
36.233333	1	0.101375
36.250000	1	0.099125
36.266667	1	0.096875
36.283333	1	0.094750
36.300000	1	0.092875
36.316667	1	0.090375
36.333333	1	0.088375
36.350000	1	0.085750
36.366667	1	0.083500
36.383333	1	0.080000
36.400000	1	0.077375
36.416667	1	0.074875
36.433333	1	0.071875
36.450000	1	0.069000
36.466667	1	0.066500
36.483333	1	0.064125
36.500000	1	0.061250
36.516667	1	0.059250
36.533333	1	0.056750
36.550000	1	0.054000
36.566667	1	0.051000
36.583333	1	0.048500
36.600000	1	0.046000
36.616667	1	0.043375
36.633333	1	0.041375
36.650000	1	0.039125
36.666667	1	0.036250
36.683333	1	0.033875
36.700000	1	0.032250
36.716667	1	0.030125
36.733333	1	0.027625
36.750000	1	0.025500
36.766667	1	0.023250
36.783333	1	0.020875
36.800000	1	0.018625
36.816667	1	0.015875
36.833333	1	0.014250
36.850000	1	0.012625
36.866667	1	0.010500
36.883333	1	0.008375
36.900000	1	0.006375
36.916667	1	0.004625
36.933333	1	0.003125
36.950000	1	0.000625
36.966667	1	-0.001125
36.983333	1	-0.003250
37.000000	1	-0.005875
37.016667	1	-0.007750
37.033333	1	-0.010375
37.050000	1	-0.013250
37.066667	1	-0.015375
37.083333	1	-0.017000
37.100000	1	-0.019000
37.116667	1	-0.020875
37.133333	1	-0.023125
37.150000	1	-0.025000
37.166667	1	-0.027125
37.183333	1	-0.029250
37.200000	1	-0.031625
37.216667	1	-0.033625
37.233333	1	-0.036500
37.250000	1	-0.038750
37.266667	1	-0.040500
37.283333	1	-0.041375
37.300000	1	-0.042750
37.316667	1	-0.044125
37.333333	1	-0.045875
37.350000	1	-0.047125
37.366667	1	-0.048000
37.383333	1	-0.048750
37.400000	1	-0.049000
37.416667	1	-0.049875
37.433333	1	-0.050500
37.450000	1	-0.050875
37.466667	1	-0.052125
37.483333	1	-0.052750
37.500000	1	-0.053125
37.516667	1	-0.053000
37.533333	1	-0.053250
37.550000	1	-0.054125
37.566667	1	-0.054375
37.583333	1	-0.054750
37.600000	1	-0.054500
37.616667	1	-0.054625
37.633333	1	-0.055000
37.650000	1	-0.055000
37.666667	1	-0.054000
37.683333	1	-0.053000
37.700000	1	-0.051750
37.716667	1	-0.051125
37.733333	1	-0.050500
37.750000	1	-0.050375
37.766667	1	-0.049750
37.783333	1	-0.049250
37.800000	1	-0.048750
37.816667	1	-0.048000
37.833333	1	-0.047250
37.850000	1	-0.046000
37.866667	1	-0.044500
37.883333	1	-0.043375
37.900000	1	-0.042250
37.916667	1	-0.041375
37.933333	1	-0.040250
37.950000	1	-0.038875
37.966667	1	-0.037750
37.983333	1	-0.035875
38.000000	1	-0.035125
38.016667	1	-0.034250
38.033333	1	-0.033125
38.050000	1	-0.032375
38.066667	1	-0.030625
38.083333	1	-0.029000
38.100000	1	-0.027750
38.116667	1	-0.026500
38.133333	1	-0.026000
38.150000	1	-0.025375
38.166667	1	-0.024875
38.183333	1	-0.024125
38.200000	1	-0.023000
38.216667	1	-0.022625
38.233333	1	-0.021750
38.250000	1	-0.021125
38.266667	1	-0.020500
38.283333	1	-0.020500
38.300000	1	-0.020125
38.316667	1	-0.019875
38.333333	1	-0.019125
38.350000	1	-0.017875
38.366667	1	-0.017750
38.383333	1	-0.017625
38.400000	1	-0.017250
38.416667	1	-0.017250
38.433333	1	-0.016375
38.450000	1	-0.015625
38.466667	1	-0.015375
38.483333	1	-0.014875
38.500000	1	-0.014375
38.516667	1	-0.013750
38.533333	1	-0.013500
38.550000	1	-0.013250
38.566667	1	-0.013125
38.583333	1	-0.013125
38.600000	1	-0.012125
38.616667	1	-0.011625
38.633333	1	-0.012000
38.650000	1	-0.011875
38.666667	1	-0.011750
38.683333	1	-0.011125
38.700000	1	-0.011250
38.716667	1	-0.010375
38.733333	1	-0.010000
38.750000	1	-0.010000
38.766667	1	-0.010000
38.783333	1	-0.010250
38.800000	1	-0.009500
38.816667	1	-0.009500
38.833333	1	-0.009625
38.850000	1	-0.009875
38.866667	1	-0.009875
38.883333	1	-0.010125
38.900000	1	-0.010500
38.916667	1	-0.010625
38.933333	1	-0.010750
38.950000	1	-0.011000
38.966667	1	-0.011625
38.983333	1	-0.012000
39.000000	1	-0.012750
39.016667	1	-0.013250
39.033333	1	-0.013500
39.050000	1	-0.014125
39.066667	1	-0.014375
39.083333	1	-0.014250
39.100000	1	-0.014125
39.116667	1	-0.014375
39.133333	1	-0.014500
39.150000	1	-0.015250
39.166667	1	-0.015625
39.183333	1	-0.016250
39.200000	1	-0.016625
39.216667	1	-0.017125
39.233333	1	-0.017375
39.250000	1	-0.016750
39.266667	1	-0.016500
39.283333	1	-0.016500
39.300000	1	-0.016500
39.316667	1	-0.016500
39.333333	1	-0.016375
39.350000	1	-0.016625
39.366667	1	-0.017125
39.383333	1	-0.017250
39.400000	1	-0.017250
39.416667	1	-0.017250
39.433333	1	-0.017000
39.450000	1	-0.017125
39.466667	1	-0.017375
39.483333	1	-0.016750
39.500000	1	-0.016875
39.516667	1	-0.017500
39.533333	1	-0.017875
39.550000	1	-0.017375
39.566667	1	-0.017125
39.583333	1	-0.017750
39.600000	1	-0.017250
39.616667	1	-0.017500
39.633333	1	-0.017000
39.650000	1	-0.016625
39.666667	1	-0.016625
39.683333	1	-0.016375
39.700000	1	-0.015125
39.716667	1	-0.014625
39.733333	1	-0.014500
39.750000	1	-0.013875
39.766667	1	-0.013375
39.783333	1	-0.012750
39.800000	1	-0.011875
39.816667	1	-0.010750
39.833333	1	-0.009875
39.850000	1	-0.009250
39.866667	1	-0.008000
39.883333	1	-0.007500
39.900000	1	-0.007000
39.916667	1	-0.006500
39.933333	1	-0.005750
39.950000	1	-0.004500
39.966667	1	-0.003375
39.983333	1	-0.002750
40.000000	1	-0.002250
