File Path	chrom://marshall/Chromeleon7/HPLC_Ultimate_3000/Users/markusar/20230610_CMO_FP11_FP12.seq/235.smp/RI_1.channel/RI_1.chm
Channel	RI_1

Injection Information:
Data Vault	Chromeleon7
Injection	FP11_6_S4
Injection Number	9
Position	BA8
Comment	
Processing Method	
Instrument Method	run_25B_method
Type	Unknown
Status	Finished
Injection Date	11.06.2023
Injection Time	00:11:36
Injection Volume (µl)	20.000
Dilution Factor	1.0000
Weight	1.0000

Chromatogram Data Information:
Time Min. (min)	0.000000
Time Max. (min)	40.000000
Data Points	2401
Detector	RI
Generating Data System	Chromeleon 7.2.5.9507
Exporting Data System	Chromeleon 7.2.5.0
Operator	Instrument Controller
Signal Quantity	Refractive 
Signal Unit	µRIU
Signal Min.	-0.605875
Signal Max.	40.849375
Channel	RI_1
Driver Name	RID520Driver.dll
Channel Type	Evaluation
Min. Step (s)	1
Max. Step (s)	1
Average Step (s)	1

Signal Parameter Information:
Signal Info	

Chromatogram Data:
Time (min)	Step (s)	Value (µRIU)
0.000000	n.a.	-0.040500
0.016667	1	-0.041375
0.033333	1	-0.043250
0.050000	1	-0.044000
0.066667	1	-0.044500
0.083333	1	-0.045000
0.100000	1	-0.045625
0.116667	1	-0.046750
0.133333	1	-0.047750
0.150000	1	-0.048125
0.166667	1	-0.048375
0.183333	1	-0.048750
0.200000	1	-0.048625
0.216667	1	-0.049125
0.233333	1	-0.049250
0.250000	1	-0.049375
0.266667	1	-0.049000
0.283333	1	-0.049250
0.300000	1	-0.049625
0.316667	1	-0.050250
0.333333	1	-0.052250
0.350000	1	-0.055750
0.366667	1	-0.058375
0.383333	1	-0.059250
0.400000	1	-0.056750
0.416667	1	-0.052625
0.433333	1	-0.048875
0.450000	1	-0.045875
0.466667	1	-0.043375
0.483333	1	-0.040000
0.500000	1	-0.037750
0.516667	1	-0.035625
0.533333	1	-0.034375
0.550000	1	-0.034625
0.566667	1	-0.035625
0.583333	1	-0.037500
0.600000	1	-0.039875
0.616667	1	-0.040875
0.633333	1	-0.041500
0.650000	1	-0.042375
0.666667	1	-0.042875
0.683333	1	-0.043375
0.700000	1	-0.043875
0.716667	1	-0.044125
0.733333	1	-0.044875
0.750000	1	-0.045250
0.766667	1	-0.045250
0.783333	1	-0.045625
0.800000	1	-0.045875
0.816667	1	-0.046250
0.833333	1	-0.046375
0.850000	1	-0.046125
0.866667	1	-0.045875
0.883333	1	-0.046125
0.900000	1	-0.045875
0.916667	1	-0.046000
0.933333	1	-0.045500
0.950000	1	-0.045250
0.966667	1	-0.044875
0.983333	1	-0.044750
1.000000	1	-0.045125
1.016667	1	-0.045125
1.033333	1	-0.044625
1.050000	1	-0.044750
1.066667	1	-0.045000
1.083333	1	-0.044750
1.100000	1	-0.044750
1.116667	1	-0.044250
1.133333	1	-0.044250
1.150000	1	-0.044250
1.166667	1	-0.044500
1.183333	1	-0.044500
1.200000	1	-0.044750
1.216667	1	-0.044750
1.233333	1	-0.044500
1.250000	1	-0.044375
1.266667	1	-0.044125
1.283333	1	-0.044500
1.300000	1	-0.044625
1.316667	1	-0.045250
1.333333	1	-0.045125
1.350000	1	-0.045500
1.366667	1	-0.045250
1.383333	1	-0.046000
1.400000	1	-0.046375
1.416667	1	-0.046625
1.433333	1	-0.046750
1.450000	1	-0.046875
1.466667	1	-0.047500
1.483333	1	-0.047625
1.500000	1	-0.047750
1.516667	1	-0.047750
1.533333	1	-0.047500
1.550000	1	-0.047250
1.566667	1	-0.047375
1.583333	1	-0.047500
1.600000	1	-0.047375
1.616667	1	-0.047750
1.633333	1	-0.048125
1.650000	1	-0.048500
1.666667	1	-0.048375
1.683333	1	-0.048625
1.700000	1	-0.049000
1.716667	1	-0.048625
1.733333	1	-0.049250
1.750000	1	-0.049375
1.766667	1	-0.049750
1.783333	1	-0.049375
1.800000	1	-0.049500
1.816667	1	-0.049125
1.833333	1	-0.049500
1.850000	1	-0.049000
1.866667	1	-0.049250
1.883333	1	-0.049375
1.900000	1	-0.049500
1.916667	1	-0.049375
1.933333	1	-0.049875
1.950000	1	-0.049625
1.966667	1	-0.049875
1.983333	1	-0.049625
2.000000	1	-0.049125
2.016667	1	-0.049250
2.033333	1	-0.049500
2.050000	1	-0.049500
2.066667	1	-0.049625
2.083333	1	-0.049625
2.100000	1	-0.049875
2.116667	1	-0.050125
2.133333	1	-0.050250
2.150000	1	-0.050375
2.166667	1	-0.050625
2.183333	1	-0.049625
2.200000	1	-0.048625
2.216667	1	-0.048625
2.233333	1	-0.048750
2.250000	1	-0.048250
2.266667	1	-0.047625
2.283333	1	-0.047750
2.300000	1	-0.047375
2.316667	1	-0.047250
2.333333	1	-0.047125
2.350000	1	-0.046250
2.366667	1	-0.046250
2.383333	1	-0.045500
2.400000	1	-0.044625
2.416667	1	-0.044375
2.433333	1	-0.044000
2.450000	1	-0.043250
2.466667	1	-0.042375
2.483333	1	-0.042250
2.500000	1	-0.041250
2.516667	1	-0.040875
2.533333	1	-0.039875
2.550000	1	-0.039500
2.566667	1	-0.038625
2.583333	1	-0.037500
2.600000	1	-0.036125
2.616667	1	-0.035500
2.633333	1	-0.034750
2.650000	1	-0.033250
2.666667	1	-0.032125
2.683333	1	-0.031500
2.700000	1	-0.030875
2.716667	1	-0.030500
2.733333	1	-0.029875
2.750000	1	-0.028875
2.766667	1	-0.027500
2.783333	1	-0.027000
2.800000	1	-0.026250
2.816667	1	-0.025500
2.833333	1	-0.024750
2.850000	1	-0.024000
2.866667	1	-0.023625
2.883333	1	-0.023250
2.900000	1	-0.022500
2.916667	1	-0.021875
2.933333	1	-0.021625
2.950000	1	-0.021375
2.966667	1	-0.021625
2.983333	1	-0.021500
3.000000	1	-0.021125
3.016667	1	-0.020375
3.033333	1	-0.020875
3.050000	1	-0.021250
3.066667	1	-0.021625
3.083333	1	-0.022375
3.100000	1	-0.023000
3.116667	1	-0.023000
3.133333	1	-0.023500
3.150000	1	-0.023375
3.166667	1	-0.024000
3.183333	1	-0.025875
3.200000	1	-0.027125
3.216667	1	-0.027875
3.233333	1	-0.028125
3.250000	1	-0.029250
3.266667	1	-0.030250
3.283333	1	-0.031250
3.300000	1	-0.031875
3.316667	1	-0.033250
3.333333	1	-0.034000
3.350000	1	-0.034750
3.366667	1	-0.035875
3.383333	1	-0.036250
3.400000	1	-0.037500
3.416667	1	-0.038125
3.433333	1	-0.038875
3.450000	1	-0.039750
3.466667	1	-0.040500
3.483333	1	-0.040750
3.500000	1	-0.041625
3.516667	1	-0.042000
3.533333	1	-0.042500
3.550000	1	-0.044000
3.566667	1	-0.044250
3.583333	1	-0.044875
3.600000	1	-0.045625
3.616667	1	-0.045375
3.633333	1	-0.045500
3.650000	1	-0.045500
3.666667	1	-0.045375
3.683333	1	-0.045500
3.700000	1	-0.045875
3.716667	1	-0.045500
3.733333	1	-0.045250
3.750000	1	-0.044625
3.766667	1	-0.044000
3.783333	1	-0.044000
3.800000	1	-0.043500
3.816667	1	-0.044000
3.833333	1	-0.043250
3.850000	1	-0.043250
3.866667	1	-0.041875
3.883333	1	-0.041750
3.900000	1	-0.041125
3.916667	1	-0.040250
3.933333	1	-0.039500
3.950000	1	-0.038875
3.966667	1	-0.038125
3.983333	1	-0.037875
4.000000	1	-0.036750
4.016667	1	-0.036000
4.033333	1	-0.035500
4.050000	1	-0.034875
4.066667	1	-0.034375
4.083333	1	-0.033625
4.100000	1	-0.033375
4.116667	1	-0.033000
4.133333	1	-0.032500
4.150000	1	-0.032375
4.166667	1	-0.031750
4.183333	1	-0.031250
4.200000	1	-0.030625
4.216667	1	-0.029875
4.233333	1	-0.029500
4.250000	1	-0.028625
4.266667	1	-0.028250
4.283333	1	-0.028375
4.300000	1	-0.028000
4.316667	1	-0.028125
4.333333	1	-0.028000
4.350000	1	-0.027875
4.366667	1	-0.028125
4.383333	1	-0.027750
4.400000	1	-0.026875
4.416667	1	-0.026500
4.433333	1	-0.026125
4.450000	1	-0.025625
4.466667	1	-0.025500
4.483333	1	-0.025125
4.500000	1	-0.024750
4.516667	1	-0.024375
4.533333	1	-0.024375
4.550000	1	-0.024125
4.566667	1	-0.024000
4.583333	1	-0.024000
4.600000	1	-0.023625
4.616667	1	-0.023625
4.633333	1	-0.023500
4.650000	1	-0.022750
4.666667	1	-0.022625
4.683333	1	-0.022500
4.700000	1	-0.022000
4.716667	1	-0.021375
4.733333	1	-0.020750
4.750000	1	-0.020000
4.766667	1	-0.019000
4.783333	1	-0.019125
4.800000	1	-0.018500
4.816667	1	-0.017500
4.833333	1	-0.016875
4.850000	1	-0.015625
4.866667	1	-0.015625
4.883333	1	-0.014375
4.900000	1	-0.013125
4.916667	1	-0.012500
4.933333	1	-0.011250
4.950000	1	-0.010375
4.966667	1	-0.009625
4.983333	1	-0.007750
5.000000	1	-0.006625
5.016667	1	-0.005875
5.033333	1	-0.004375
5.050000	1	-0.003000
5.066667	1	-0.002250
5.083333	1	-0.000625
5.100000	1	0.000875
5.116667	1	0.002375
5.133333	1	0.003750
5.150000	1	0.004250
5.166667	1	0.005625
5.183333	1	0.006875
5.200000	1	0.008750
5.216667	1	0.009625
5.233333	1	0.011125
5.250000	1	0.012375
5.266667	1	0.013750
5.283333	1	0.014750
5.300000	1	0.015750
5.316667	1	0.016500
5.333333	1	0.018125
5.350000	1	0.018625
5.366667	1	0.019000
5.383333	1	0.019500
5.400000	1	0.020625
5.416667	1	0.020625
5.433333	1	0.021125
5.450000	1	0.021875
5.466667	1	0.022125
5.483333	1	0.022125
5.500000	1	0.021500
5.516667	1	0.021375
5.533333	1	0.020750
5.550000	1	0.020500
5.566667	1	0.019750
5.583333	1	0.019750
5.600000	1	0.019500
5.616667	1	0.019375
5.633333	1	0.018250
5.650000	1	0.016750
5.666667	1	0.016250
5.683333	1	0.015125
5.700000	1	0.014500
5.716667	1	0.013250
5.733333	1	0.012500
5.750000	1	0.011625
5.766667	1	0.010750
5.783333	1	0.009500
5.800000	1	0.008500
5.816667	1	0.007750
5.833333	1	0.006625
5.850000	1	0.005000
5.866667	1	0.004375
5.883333	1	0.002750
5.900000	1	0.001875
5.916667	1	0.001500
5.933333	1	0.000625
5.950000	1	-0.000375
5.966667	1	-0.001000
5.983333	1	-0.001250
6.000000	1	-0.001250
6.016667	1	-0.002125
6.033333	1	-0.003375
6.050000	1	-0.003500
6.066667	1	-0.003875
6.083333	1	-0.003750
6.100000	1	-0.004250
6.116667	1	-0.004625
6.133333	1	-0.004875
6.150000	1	-0.005000
6.166667	1	-0.005000
6.183333	1	-0.004625
6.200000	1	-0.003875
6.216667	1	-0.003375
6.233333	1	-0.002625
6.250000	1	-0.001750
6.266667	1	-0.001125
6.283333	1	-0.000375
6.300000	1	0.000625
6.316667	1	0.002125
6.333333	1	0.002750
6.350000	1	0.004125
6.366667	1	0.005625
6.383333	1	0.007125
6.400000	1	0.008750
6.416667	1	0.010875
6.433333	1	0.012250
6.450000	1	0.014000
6.466667	1	0.016125
6.483333	1	0.017250
6.500000	1	0.019500
6.516667	1	0.021000
6.533333	1	0.023125
6.550000	1	0.025250
6.566667	1	0.027125
6.583333	1	0.029125
6.600000	1	0.030875
6.616667	1	0.033125
6.633333	1	0.034625
6.650000	1	0.036375
6.666667	1	0.037750
6.683333	1	0.038750
6.700000	1	0.040375
6.716667	1	0.042000
6.733333	1	0.043375
6.750000	1	0.044000
6.766667	1	0.044750
6.783333	1	0.045250
6.800000	1	0.045625
6.816667	1	0.046125
6.833333	1	0.046750
6.850000	1	0.046500
6.866667	1	0.046500
6.883333	1	0.045375
6.900000	1	0.044625
6.916667	1	0.043625
6.933333	1	0.043000
6.950000	1	0.042125
6.966667	1	0.041000
6.983333	1	0.039500
7.000000	1	0.038500
7.016667	1	0.036875
7.033333	1	0.034750
7.050000	1	0.032500
7.066667	1	0.030875
7.083333	1	0.029375
7.100000	1	0.028000
7.116667	1	0.026625
7.133333	1	0.024500
7.150000	1	0.022250
7.166667	1	0.020250
7.183333	1	0.018625
7.200000	1	0.016500
7.216667	1	0.014375
7.233333	1	0.012500
7.250000	1	0.011000
7.266667	1	0.009750
7.283333	1	0.007750
7.300000	1	0.006250
7.316667	1	0.004500
7.333333	1	0.003250
7.350000	1	0.001875
7.366667	1	0.000625
7.383333	1	-0.000125
7.400000	1	-0.001375
7.416667	1	-0.002625
7.433333	1	-0.003750
7.450000	1	-0.004375
7.466667	1	-0.005000
7.483333	1	-0.005250
7.500000	1	-0.005750
7.516667	1	-0.005375
7.533333	1	-0.006375
7.550000	1	-0.007125
7.566667	1	-0.007250
7.583333	1	-0.007000
7.600000	1	-0.007125
7.616667	1	-0.007125
7.633333	1	-0.007250
7.650000	1	-0.007625
7.666667	1	-0.007750
7.683333	1	-0.007500
7.700000	1	-0.006750
7.716667	1	-0.006375
7.733333	1	-0.006250
7.750000	1	-0.006000
7.766667	1	-0.006250
7.783333	1	-0.005750
7.800000	1	-0.005625
7.816667	1	-0.005375
7.833333	1	-0.005000
7.850000	1	-0.004375
7.866667	1	-0.004250
7.883333	1	-0.004250
7.900000	1	-0.004000
7.916667	1	-0.003750
7.933333	1	-0.004125
7.950000	1	-0.003000
7.966667	1	-0.002625
7.983333	1	-0.002750
8.000000	1	-0.002500
8.016667	1	-0.002625
8.033333	1	-0.002500
8.050000	1	-0.003000
8.066667	1	-0.003125
8.083333	1	-0.002750
8.100000	1	-0.002250
8.116667	1	-0.002500
8.133333	1	-0.002875
8.150000	1	-0.002500
8.166667	1	-0.002250
8.183333	1	-0.001750
8.200000	1	-0.002250
8.216667	1	-0.001750
8.233333	1	-0.001875
8.250000	1	-0.001375
8.266667	1	-0.001375
8.283333	1	-0.001250
8.300000	1	-0.001250
8.316667	1	-0.001375
8.333333	1	-0.001500
8.350000	1	-0.001500
8.366667	1	-0.000875
8.383333	1	-0.000625
8.400000	1	-0.000375
8.416667	1	0.000250
8.433333	1	0.000375
8.450000	1	0.001125
8.466667	1	0.001250
8.483333	1	0.002000
8.500000	1	0.003250
8.516667	1	0.003750
8.533333	1	0.004625
8.550000	1	0.006000
8.566667	1	0.006875
8.583333	1	0.007250
8.600000	1	0.007625
8.616667	1	0.008500
8.633333	1	0.010250
8.650000	1	0.011875
8.666667	1	0.013500
8.683333	1	0.014625
8.700000	1	0.015625
8.716667	1	0.016375
8.733333	1	0.017125
8.750000	1	0.018000
8.766667	1	0.019375
8.783333	1	0.020625
8.800000	1	0.021375
8.816667	1	0.021500
8.833333	1	0.022250
8.850000	1	0.023750
8.866667	1	0.024625
8.883333	1	0.025125
8.900000	1	0.025750
8.916667	1	0.026625
8.933333	1	0.027625
8.950000	1	0.028375
8.966667	1	0.028375
8.983333	1	0.028750
9.000000	1	0.029625
9.016667	1	0.030250
9.033333	1	0.030875
9.050000	1	0.031750
9.066667	1	0.031750
9.083333	1	0.031625
9.100000	1	0.032250
9.116667	1	0.032625
9.133333	1	0.032625
9.150000	1	0.033000
9.166667	1	0.032625
9.183333	1	0.032625
9.200000	1	0.033125
9.216667	1	0.033500
9.233333	1	0.033750
9.250000	1	0.033875
9.266667	1	0.034125
9.283333	1	0.034500
9.300000	1	0.034625
9.316667	1	0.035750
9.333333	1	0.035625
9.350000	1	0.036250
9.366667	1	0.036875
9.383333	1	0.037000
9.400000	1	0.037500
9.416667	1	0.037500
9.433333	1	0.038500
9.450000	1	0.038625
9.466667	1	0.039875
9.483333	1	0.040625
9.500000	1	0.042500
9.516667	1	0.044500
9.533333	1	0.046500
9.550000	1	0.049125
9.566667	1	0.052750
9.583333	1	0.056625
9.600000	1	0.061000
9.616667	1	0.066250
9.633333	1	0.073375
9.650000	1	0.081000
9.666667	1	0.090500
9.683333	1	0.101625
9.700000	1	0.114500
9.716667	1	0.129750
9.733333	1	0.147750
9.750000	1	0.169000
9.766667	1	0.193375
9.783333	1	0.221125
9.800000	1	0.254000
9.816667	1	0.291750
9.833333	1	0.332125
9.850000	1	0.374125
9.866667	1	0.413625
9.883333	1	0.446625
9.900000	1	0.469750
9.916667	1	0.485500
9.933333	1	0.501500
9.950000	1	0.537375
9.966667	1	0.619875
9.983333	1	0.781500
10.000000	1	1.055000
10.016667	1	1.472625
10.033333	1	2.061000
10.050000	1	2.842500
10.066667	1	3.831000
10.083333	1	5.036500
10.100000	1	6.461250
10.116667	1	8.101250
10.133333	1	9.945375
10.150000	1	11.972750
10.166667	1	14.156125
10.183333	1	16.459875
10.200000	1	18.845875
10.216667	1	21.275000
10.233333	1	23.707500
10.250000	1	26.103375
10.266667	1	28.425625
10.283333	1	30.629375
10.300000	1	32.662250
10.316667	1	34.453875
10.333333	1	35.915625
10.350000	1	36.934875
10.366667	1	37.392750
10.383333	1	37.186625
10.400000	1	36.258375
10.416667	1	34.619500
10.433333	1	32.364875
10.450000	1	29.663500
10.466667	1	26.717250
10.483333	1	23.727000
10.500000	1	20.854750
10.516667	1	18.205875
10.533333	1	15.833750
10.550000	1	13.747375
10.566667	1	11.932000
10.583333	1	10.361000
10.600000	1	9.007625
10.616667	1	7.846125
10.633333	1	6.855125
10.650000	1	6.015875
10.666667	1	5.310625
10.683333	1	4.721625
10.700000	1	4.231250
10.716667	1	3.823625
10.733333	1	3.485875
10.750000	1	3.202625
10.766667	1	2.965000
10.783333	1	2.763125
10.800000	1	2.588750
10.816667	1	2.437000
10.833333	1	2.303375
10.850000	1	2.184625
10.866667	1	2.078500
10.883333	1	1.983125
10.900000	1	1.896250
10.916667	1	1.817125
10.933333	1	1.744375
10.950000	1	1.677625
10.966667	1	1.615625
10.983333	1	1.558750
11.000000	1	1.505625
11.016667	1	1.455375
11.033333	1	1.408875
11.050000	1	1.365125
11.066667	1	1.323750
11.083333	1	1.285000
11.100000	1	1.248750
11.116667	1	1.214375
11.133333	1	1.182250
11.150000	1	1.152375
11.166667	1	1.124125
11.183333	1	1.097250
11.200000	1	1.071625
11.216667	1	1.048250
11.233333	1	1.026500
11.250000	1	1.005875
11.266667	1	0.986500
11.283333	1	0.968375
11.300000	1	0.952125
11.316667	1	0.936000
11.333333	1	0.921625
11.350000	1	0.907750
11.366667	1	0.895125
11.383333	1	0.883125
11.400000	1	0.872875
11.416667	1	0.863500
11.433333	1	0.855500
11.450000	1	0.848125
11.466667	1	0.841375
11.483333	1	0.836500
11.500000	1	0.832125
11.516667	1	0.827750
11.533333	1	0.824750
11.550000	1	0.823250
11.566667	1	0.820625
11.583333	1	0.819625
11.600000	1	0.818500
11.616667	1	0.818500
11.633333	1	0.819250
11.650000	1	0.820000
11.666667	1	0.820875
11.683333	1	0.822500
11.700000	1	0.823250
11.716667	1	0.824125
11.733333	1	0.825875
11.750000	1	0.828000
11.766667	1	0.829625
11.783333	1	0.831125
11.800000	1	0.832625
11.816667	1	0.833500
11.833333	1	0.834625
11.850000	1	0.836500
11.866667	1	0.838625
11.883333	1	0.840875
11.900000	1	0.843000
11.916667	1	0.845750
11.933333	1	0.848625
11.950000	1	0.852375
11.966667	1	0.856750
11.983333	1	0.861500
12.000000	1	0.867250
12.016667	1	0.874375
12.033333	1	0.884000
12.050000	1	0.895750
12.066667	1	0.910375
12.083333	1	0.929125
12.100000	1	0.952375
12.116667	1	0.983500
12.133333	1	1.021875
12.150000	1	1.070625
12.166667	1	1.131125
12.183333	1	1.205375
12.200000	1	1.295375
12.216667	1	1.403250
12.233333	1	1.530125
12.250000	1	1.676750
12.266667	1	1.846375
12.283333	1	2.040625
12.300000	1	2.261500
12.316667	1	2.510500
12.333333	1	2.789250
12.350000	1	3.099500
12.366667	1	3.443250
12.383333	1	3.820000
12.400000	1	4.229750
12.416667	1	4.672000
12.433333	1	5.145250
12.450000	1	5.646625
12.466667	1	6.175250
12.483333	1	6.726375
12.500000	1	7.294500
12.516667	1	7.873000
12.533333	1	8.455625
12.550000	1	9.029875
12.566667	1	9.585250
12.583333	1	10.110500
12.600000	1	10.594875
12.616667	1	11.030875
12.633333	1	11.414125
12.650000	1	11.741750
12.666667	1	12.014000
12.683333	1	12.230500
12.700000	1	12.392000
12.716667	1	12.498125
12.733333	1	12.551000
12.750000	1	12.550125
12.766667	1	12.494250
12.783333	1	12.382250
12.800000	1	12.214000
12.816667	1	11.990625
12.833333	1	11.715875
12.850000	1	11.396000
12.866667	1	11.041500
12.883333	1	10.659750
12.900000	1	10.254500
12.916667	1	9.824375
12.933333	1	9.368750
12.950000	1	8.885375
12.966667	1	8.374625
12.983333	1	7.839500
13.000000	1	7.284875
13.016667	1	6.716125
13.033333	1	6.133625
13.050000	1	5.538000
13.066667	1	4.931750
13.083333	1	4.325500
13.100000	1	3.739250
13.116667	1	3.202625
13.133333	1	2.739875
13.150000	1	2.361000
13.166667	1	2.062125
13.183333	1	1.830875
13.200000	1	1.651250
13.216667	1	1.510625
13.233333	1	1.398625
13.250000	1	1.307625
13.266667	1	1.231750
13.283333	1	1.167625
13.300000	1	1.111625
13.316667	1	1.062750
13.333333	1	1.019000
13.350000	1	0.979000
13.366667	1	0.942750
13.383333	1	0.908500
13.400000	1	0.876750
13.416667	1	0.847875
13.433333	1	0.820625
13.450000	1	0.795625
13.466667	1	0.772500
13.483333	1	0.750250
13.500000	1	0.730625
13.516667	1	0.713625
13.533333	1	0.697625
13.550000	1	0.683375
13.566667	1	0.670750
13.583333	1	0.660750
13.600000	1	0.651875
13.616667	1	0.645000
13.633333	1	0.639250
13.650000	1	0.634875
13.666667	1	0.631750
13.683333	1	0.629125
13.700000	1	0.627375
13.716667	1	0.627125
13.733333	1	0.627000
13.750000	1	0.628000
13.766667	1	0.629375
13.783333	1	0.631000
13.800000	1	0.631125
13.816667	1	0.630625
13.833333	1	0.629375
13.850000	1	0.627125
13.866667	1	0.622625
13.883333	1	0.615875
13.900000	1	0.608375
13.916667	1	0.599625
13.933333	1	0.589375
13.950000	1	0.577500
13.966667	1	0.564500
13.983333	1	0.552000
14.000000	1	0.539500
14.016667	1	0.527125
14.033333	1	0.515125
14.050000	1	0.503625
14.066667	1	0.492875
14.083333	1	0.482875
14.100000	1	0.473875
14.116667	1	0.465500
14.133333	1	0.458250
14.150000	1	0.452250
14.166667	1	0.446750
14.183333	1	0.442625
14.200000	1	0.440125
14.216667	1	0.438375
14.233333	1	0.437625
14.250000	1	0.438000
14.266667	1	0.439500
14.283333	1	0.442750
14.300000	1	0.447000
14.316667	1	0.453625
14.333333	1	0.461875
14.350000	1	0.472625
14.366667	1	0.485375
14.383333	1	0.501875
14.400000	1	0.521125
14.416667	1	0.543875
14.433333	1	0.570500
14.450000	1	0.603000
14.466667	1	0.642250
14.483333	1	0.689000
14.500000	1	0.745000
14.516667	1	0.812875
14.533333	1	0.895500
14.550000	1	0.997250
14.566667	1	1.122500
14.583333	1	1.278500
14.600000	1	1.474250
14.616667	1	1.719375
14.633333	1	2.026875
14.650000	1	2.411125
14.666667	1	2.888875
14.683333	1	3.476625
14.700000	1	4.191500
14.716667	1	5.047250
14.733333	1	6.058625
14.750000	1	7.234500
14.766667	1	8.581625
14.783333	1	10.098250
14.800000	1	11.780375
14.816667	1	13.618625
14.833333	1	15.600000
14.850000	1	17.706000
14.866667	1	19.912500
14.883333	1	22.191750
14.900000	1	24.511250
14.916667	1	26.834750
14.933333	1	29.123625
14.950000	1	31.336000
14.966667	1	33.426875
14.983333	1	35.348250
15.000000	1	37.053000
15.016667	1	38.495125
15.033333	1	39.630625
15.050000	1	40.420375
15.066667	1	40.833125
15.083333	1	40.849375
15.100000	1	40.465500
15.116667	1	39.691000
15.133333	1	38.549375
15.150000	1	37.078375
15.166667	1	35.327000
15.183333	1	33.352500
15.200000	1	31.213375
15.216667	1	28.968375
15.233333	1	26.674625
15.250000	1	24.383625
15.266667	1	22.140125
15.283333	1	19.982750
15.300000	1	17.941375
15.316667	1	16.037250
15.333333	1	14.283125
15.350000	1	12.685375
15.366667	1	11.243750
15.383333	1	9.954750
15.400000	1	8.810000
15.416667	1	7.799875
15.433333	1	6.912125
15.450000	1	6.135875
15.466667	1	5.459250
15.483333	1	4.872750
15.500000	1	4.365125
15.516667	1	3.927000
15.533333	1	3.550125
15.550000	1	3.225750
15.566667	1	2.948000
15.583333	1	2.709375
15.600000	1	2.505000
15.616667	1	2.330250
15.633333	1	2.180500
15.650000	1	2.052500
15.666667	1	1.942375
15.683333	1	1.848750
15.700000	1	1.767375
15.716667	1	1.697250
15.733333	1	1.637000
15.750000	1	1.582875
15.766667	1	1.534250
15.783333	1	1.490625
15.800000	1	1.449875
15.816667	1	1.410875
15.833333	1	1.373000
15.850000	1	1.335250
15.866667	1	1.297750
15.883333	1	1.260750
15.900000	1	1.222875
15.916667	1	1.185875
15.933333	1	1.149875
15.950000	1	1.115125
15.966667	1	1.081750
15.983333	1	1.050000
16.000000	1	1.020625
16.016667	1	0.993375
16.033333	1	0.968500
16.050000	1	0.945375
16.066667	1	0.924625
16.083333	1	0.906500
16.100000	1	0.891125
16.116667	1	0.877625
16.133333	1	0.866000
16.150000	1	0.857000
16.166667	1	0.850125
16.183333	1	0.845250
16.200000	1	0.841625
16.216667	1	0.838625
16.233333	1	0.837375
16.250000	1	0.837875
16.266667	1	0.839125
16.283333	1	0.839500
16.300000	1	0.841000
16.316667	1	0.842750
16.333333	1	0.844000
16.350000	1	0.844500
16.366667	1	0.844000
16.383333	1	0.842375
16.400000	1	0.840750
16.416667	1	0.837250
16.433333	1	0.833000
16.450000	1	0.826500
16.466667	1	0.819750
16.483333	1	0.811750
16.500000	1	0.803375
16.516667	1	0.794625
16.533333	1	0.785375
16.550000	1	0.776375
16.566667	1	0.767500
16.583333	1	0.759125
16.600000	1	0.752000
16.616667	1	0.745875
16.633333	1	0.741000
16.650000	1	0.736875
16.666667	1	0.733125
16.683333	1	0.730125
16.700000	1	0.728500
16.716667	1	0.727750
16.733333	1	0.726875
16.750000	1	0.727250
16.766667	1	0.728250
16.783333	1	0.730250
16.800000	1	0.731625
16.816667	1	0.733750
16.833333	1	0.735250
16.850000	1	0.737250
16.866667	1	0.738875
16.883333	1	0.740750
16.900000	1	0.742375
16.916667	1	0.743875
16.933333	1	0.745250
16.950000	1	0.746000
16.966667	1	0.747000
16.983333	1	0.747000
17.000000	1	0.747250
17.016667	1	0.747250
17.033333	1	0.746500
17.050000	1	0.745375
17.066667	1	0.743375
17.083333	1	0.741625
17.100000	1	0.740000
17.116667	1	0.737375
17.133333	1	0.735250
17.150000	1	0.733500
17.166667	1	0.731875
17.183333	1	0.729250
17.200000	1	0.727625
17.216667	1	0.725625
17.233333	1	0.723125
17.250000	1	0.720375
17.266667	1	0.716875
17.283333	1	0.712375
17.300000	1	0.707250
17.316667	1	0.701875
17.333333	1	0.696250
17.350000	1	0.690250
17.366667	1	0.683875
17.383333	1	0.676500
17.400000	1	0.669500
17.416667	1	0.662625
17.433333	1	0.655750
17.450000	1	0.648500
17.466667	1	0.642000
17.483333	1	0.636500
17.500000	1	0.631375
17.516667	1	0.627125
17.533333	1	0.623375
17.550000	1	0.622375
17.566667	1	0.621625
17.583333	1	0.622375
17.600000	1	0.623875
17.616667	1	0.627375
17.633333	1	0.632000
17.650000	1	0.637875
17.666667	1	0.645125
17.683333	1	0.654250
17.700000	1	0.663750
17.716667	1	0.676125
17.733333	1	0.689375
17.750000	1	0.703125
17.766667	1	0.717125
17.783333	1	0.732000
17.800000	1	0.747750
17.816667	1	0.763000
17.833333	1	0.778625
17.850000	1	0.793250
17.866667	1	0.808000
17.883333	1	0.821625
17.900000	1	0.834500
17.916667	1	0.846375
17.933333	1	0.856875
17.950000	1	0.866250
17.966667	1	0.873875
17.983333	1	0.880125
18.000000	1	0.884250
18.016667	1	0.886750
18.033333	1	0.887375
18.050000	1	0.886250
18.066667	1	0.882875
18.083333	1	0.877250
18.100000	1	0.870625
18.116667	1	0.862125
18.133333	1	0.852500
18.150000	1	0.841625
18.166667	1	0.830000
18.183333	1	0.817875
18.200000	1	0.805000
18.216667	1	0.791625
18.233333	1	0.777625
18.250000	1	0.763625
18.266667	1	0.750125
18.283333	1	0.737250
18.300000	1	0.724000
18.316667	1	0.712000
18.333333	1	0.701250
18.350000	1	0.690875
18.366667	1	0.680875
18.383333	1	0.671875
18.400000	1	0.663000
18.416667	1	0.655250
18.433333	1	0.648875
18.450000	1	0.643000
18.466667	1	0.638000
18.483333	1	0.633375
18.500000	1	0.629625
18.516667	1	0.627250
18.533333	1	0.625500
18.550000	1	0.624000
18.566667	1	0.622750
18.583333	1	0.621500
18.600000	1	0.621625
18.616667	1	0.622250
18.633333	1	0.622500
18.650000	1	0.622750
18.666667	1	0.624125
18.683333	1	0.626250
18.700000	1	0.628125
18.716667	1	0.630750
18.733333	1	0.632875
18.750000	1	0.635375
18.766667	1	0.638250
18.783333	1	0.642500
18.800000	1	0.647125
18.816667	1	0.651750
18.833333	1	0.656375
18.850000	1	0.662750
18.866667	1	0.669125
18.883333	1	0.676625
18.900000	1	0.685125
18.916667	1	0.695250
18.933333	1	0.706375
18.950000	1	0.718500
18.966667	1	0.731875
18.983333	1	0.747625
19.000000	1	0.764250
19.016667	1	0.782750
19.033333	1	0.802500
19.050000	1	0.824250
19.066667	1	0.847125
19.083333	1	0.871875
19.100000	1	0.898500
19.116667	1	0.927125
19.133333	1	0.956250
19.150000	1	0.986875
19.166667	1	1.017875
19.183333	1	1.049125
19.200000	1	1.080375
19.216667	1	1.111875
19.233333	1	1.142375
19.250000	1	1.171625
19.266667	1	1.199375
19.283333	1	1.225125
19.300000	1	1.248500
19.316667	1	1.268250
19.333333	1	1.284625
19.350000	1	1.296875
19.366667	1	1.305375
19.383333	1	1.309000
19.400000	1	1.307375
19.416667	1	1.301625
19.433333	1	1.290750
19.450000	1	1.274875
19.466667	1	1.255250
19.483333	1	1.231250
19.500000	1	1.203375
19.516667	1	1.173000
19.533333	1	1.139375
19.550000	1	1.103625
19.566667	1	1.066250
19.583333	1	1.028375
19.600000	1	0.990000
19.616667	1	0.951375
19.633333	1	0.913500
19.650000	1	0.876500
19.666667	1	0.841250
19.683333	1	0.808250
19.700000	1	0.777375
19.716667	1	0.748625
19.733333	1	0.722875
19.750000	1	0.701250
19.766667	1	0.682000
19.783333	1	0.666250
19.800000	1	0.653125
19.816667	1	0.643750
19.833333	1	0.637000
19.850000	1	0.633875
19.866667	1	0.633625
19.883333	1	0.636500
19.900000	1	0.641750
19.916667	1	0.650125
19.933333	1	0.661500
19.950000	1	0.674250
19.966667	1	0.689625
19.983333	1	0.707000
20.000000	1	0.725625
20.016667	1	0.746250
20.033333	1	0.767375
20.050000	1	0.790000
20.066667	1	0.813250
20.083333	1	0.838000
20.100000	1	0.864000
20.116667	1	0.890875
20.133333	1	0.919250
20.150000	1	0.948625
20.166667	1	0.980875
20.183333	1	1.015500
20.200000	1	1.053375
20.216667	1	1.094000
20.233333	1	1.138625
20.250000	1	1.188250
20.266667	1	1.243000
20.283333	1	1.303250
20.300000	1	1.368375
20.316667	1	1.440000
20.333333	1	1.517000
20.350000	1	1.600000
20.366667	1	1.689250
20.383333	1	1.784250
20.400000	1	1.884000
20.416667	1	1.987625
20.433333	1	2.094875
20.450000	1	2.205375
20.466667	1	2.317500
20.483333	1	2.430250
20.500000	1	2.542000
20.516667	1	2.651000
20.533333	1	2.756625
20.550000	1	2.856250
20.566667	1	2.948625
20.583333	1	3.032000
20.600000	1	3.104125
20.616667	1	3.163875
20.633333	1	3.208625
20.650000	1	3.239500
20.666667	1	3.254625
20.683333	1	3.254500
20.700000	1	3.239750
20.716667	1	3.210625
20.733333	1	3.167875
20.750000	1	3.113000
20.766667	1	3.047625
20.783333	1	2.974625
20.800000	1	2.894250
20.816667	1	2.810625
20.833333	1	2.724125
20.850000	1	2.637625
20.866667	1	2.552500
20.883333	1	2.470375
20.900000	1	2.392500
20.916667	1	2.320000
20.933333	1	2.251875
20.950000	1	2.190000
20.966667	1	2.133375
20.983333	1	2.081125
21.000000	1	2.033250
21.016667	1	1.987500
21.033333	1	1.943875
21.050000	1	1.901625
21.066667	1	1.859750
21.083333	1	1.816125
21.100000	1	1.771375
21.116667	1	1.724000
21.133333	1	1.675125
21.150000	1	1.622125
21.166667	1	1.566125
21.183333	1	1.507125
21.200000	1	1.446250
21.216667	1	1.382750
21.233333	1	1.318375
21.250000	1	1.253625
21.266667	1	1.188125
21.283333	1	1.124000
21.300000	1	1.060750
21.316667	1	0.999125
21.333333	1	0.940000
21.350000	1	0.883625
21.366667	1	0.830875
21.383333	1	0.780875
21.400000	1	0.733625
21.416667	1	0.690625
21.433333	1	0.651625
21.450000	1	0.615375
21.466667	1	0.583000
21.483333	1	0.553625
21.500000	1	0.527125
21.516667	1	0.503500
21.533333	1	0.482250
21.550000	1	0.463750
21.566667	1	0.447250
21.583333	1	0.433000
21.600000	1	0.419625
21.616667	1	0.407750
21.633333	1	0.398375
21.650000	1	0.390250
21.666667	1	0.383375
21.683333	1	0.378125
21.700000	1	0.374125
21.716667	1	0.370625
21.733333	1	0.367875
21.750000	1	0.367000
21.766667	1	0.366750
21.783333	1	0.367375
21.800000	1	0.368250
21.816667	1	0.370000
21.833333	1	0.372875
21.850000	1	0.376375
21.866667	1	0.381375
21.883333	1	0.386750
21.900000	1	0.392875
21.916667	1	0.400125
21.933333	1	0.407625
21.950000	1	0.416250
21.966667	1	0.425000
21.983333	1	0.433875
22.000000	1	0.443125
22.016667	1	0.452250
22.033333	1	0.462000
22.050000	1	0.471250
22.066667	1	0.480250
22.083333	1	0.489000
22.100000	1	0.497000
22.116667	1	0.504375
22.133333	1	0.510875
22.150000	1	0.515875
22.166667	1	0.520000
22.183333	1	0.523375
22.200000	1	0.524750
22.216667	1	0.524750
22.233333	1	0.523750
22.250000	1	0.521875
22.266667	1	0.518500
22.283333	1	0.514375
22.300000	1	0.509000
22.316667	1	0.502750
22.333333	1	0.496500
22.350000	1	0.489250
22.366667	1	0.482125
22.383333	1	0.474625
22.400000	1	0.467375
22.416667	1	0.460000
22.433333	1	0.453375
22.450000	1	0.447375
22.466667	1	0.441500
22.483333	1	0.436625
22.500000	1	0.432625
22.516667	1	0.429125
22.533333	1	0.426500
22.550000	1	0.425250
22.566667	1	0.424500
22.583333	1	0.424000
22.600000	1	0.423375
22.616667	1	0.424375
22.633333	1	0.425875
22.650000	1	0.427875
22.666667	1	0.430000
22.683333	1	0.432000
22.700000	1	0.433250
22.716667	1	0.435375
22.733333	1	0.437250
22.750000	1	0.438625
22.766667	1	0.440375
22.783333	1	0.441750
22.800000	1	0.442250
22.816667	1	0.443125
22.833333	1	0.443000
22.850000	1	0.442750
22.866667	1	0.442125
22.883333	1	0.441000
22.900000	1	0.439000
22.916667	1	0.437250
22.933333	1	0.435500
22.950000	1	0.432500
22.966667	1	0.429250
22.983333	1	0.425875
23.000000	1	0.421875
23.016667	1	0.418125
23.033333	1	0.414250
23.050000	1	0.409125
23.066667	1	0.405250
23.083333	1	0.401250
23.100000	1	0.397125
23.116667	1	0.393625
23.133333	1	0.390500
23.150000	1	0.388125
23.166667	1	0.385750
23.183333	1	0.383125
23.200000	1	0.381750
23.216667	1	0.380750
23.233333	1	0.381125
23.250000	1	0.383375
23.266667	1	0.385375
23.283333	1	0.389250
23.300000	1	0.394375
23.316667	1	0.401125
23.333333	1	0.408750
23.350000	1	0.418750
23.366667	1	0.430375
23.383333	1	0.445000
23.400000	1	0.462250
23.416667	1	0.483375
23.433333	1	0.507750
23.450000	1	0.536625
23.466667	1	0.570000
23.483333	1	0.608875
23.500000	1	0.654500
23.516667	1	0.706500
23.533333	1	0.766000
23.550000	1	0.834000
23.566667	1	0.911625
23.583333	1	0.998375
23.600000	1	1.096250
23.616667	1	1.205250
23.633333	1	1.325125
23.650000	1	1.456375
23.666667	1	1.599500
23.683333	1	1.755375
23.700000	1	1.922750
23.716667	1	2.102750
23.733333	1	2.294625
23.750000	1	2.497250
23.766667	1	2.709750
23.783333	1	2.930375
23.800000	1	3.159250
23.816667	1	3.394250
23.833333	1	3.634125
23.850000	1	3.876500
23.866667	1	4.118500
23.883333	1	4.358750
23.900000	1	4.594875
23.916667	1	4.823750
23.933333	1	5.041750
23.950000	1	5.245500
23.966667	1	5.432375
23.983333	1	5.598375
24.000000	1	5.741625
24.016667	1	5.859750
24.033333	1	5.950625
24.050000	1	6.011750
24.066667	1	6.041125
24.083333	1	6.040375
24.100000	1	6.008500
24.116667	1	5.946000
24.133333	1	5.853500
24.150000	1	5.733500
24.166667	1	5.588250
24.183333	1	5.420375
24.200000	1	5.232500
24.216667	1	5.028250
24.233333	1	4.810500
24.250000	1	4.583750
24.266667	1	4.350000
24.283333	1	4.113625
24.300000	1	3.876250
24.316667	1	3.640875
24.333333	1	3.411125
24.350000	1	3.187250
24.366667	1	2.972000
24.383333	1	2.767000
24.400000	1	2.573375
24.416667	1	2.391500
24.433333	1	2.221875
24.450000	1	2.064625
24.466667	1	1.919000
24.483333	1	1.785500
24.500000	1	1.663250
24.516667	1	1.551750
24.533333	1	1.450125
24.550000	1	1.357625
24.566667	1	1.274125
24.583333	1	1.198375
24.600000	1	1.129875
24.616667	1	1.067250
24.633333	1	1.009750
24.650000	1	0.957750
24.666667	1	0.909875
24.683333	1	0.865625
24.700000	1	0.824375
24.716667	1	0.786250
24.733333	1	0.750250
24.750000	1	0.715875
24.766667	1	0.683125
24.783333	1	0.652250
24.800000	1	0.624125
24.816667	1	0.596625
24.833333	1	0.570125
24.850000	1	0.544750
24.866667	1	0.520250
24.883333	1	0.496750
24.900000	1	0.473625
24.916667	1	0.452125
24.933333	1	0.431750
24.950000	1	0.412250
24.966667	1	0.393875
24.983333	1	0.376375
25.000000	1	0.359625
25.016667	1	0.344125
25.033333	1	0.330000
25.050000	1	0.316750
25.066667	1	0.304625
25.083333	1	0.292750
25.100000	1	0.282625
25.116667	1	0.272500
25.133333	1	0.263500
25.150000	1	0.255250
25.166667	1	0.248750
25.183333	1	0.242625
25.200000	1	0.238000
25.216667	1	0.233750
25.233333	1	0.230375
25.250000	1	0.227875
25.266667	1	0.225500
25.283333	1	0.223875
25.300000	1	0.223625
25.316667	1	0.222625
25.333333	1	0.222375
25.350000	1	0.222375
25.366667	1	0.223000
25.383333	1	0.224500
25.400000	1	0.226125
25.416667	1	0.227750
25.433333	1	0.229625
25.450000	1	0.231250
25.466667	1	0.233250
25.483333	1	0.235250
25.500000	1	0.237250
25.516667	1	0.239125
25.533333	1	0.240750
25.550000	1	0.242875
25.566667	1	0.245000
25.583333	1	0.246750
25.600000	1	0.248125
25.616667	1	0.249250
25.633333	1	0.250500
25.650000	1	0.251125
25.666667	1	0.251875
25.683333	1	0.252625
25.700000	1	0.252875
25.716667	1	0.252500
25.733333	1	0.252125
25.750000	1	0.252000
25.766667	1	0.251125
25.783333	1	0.250750
25.800000	1	0.249750
25.816667	1	0.248875
25.833333	1	0.248500
25.850000	1	0.247000
25.866667	1	0.245750
25.883333	1	0.244500
25.900000	1	0.243875
25.916667	1	0.242500
25.933333	1	0.241375
25.950000	1	0.240250
25.966667	1	0.238875
25.983333	1	0.237875
26.000000	1	0.236875
26.016667	1	0.235375
26.033333	1	0.234000
26.050000	1	0.233625
26.066667	1	0.233375
26.083333	1	0.233000
26.100000	1	0.232000
26.116667	1	0.231625
26.133333	1	0.231750
26.150000	1	0.231500
26.166667	1	0.231375
26.183333	1	0.231750
26.200000	1	0.233125
26.216667	1	0.234000
26.233333	1	0.234750
26.250000	1	0.235875
26.266667	1	0.236875
26.283333	1	0.238625
26.300000	1	0.239875
26.316667	1	0.241000
26.333333	1	0.242125
26.350000	1	0.244250
26.366667	1	0.244500
26.383333	1	0.245750
26.400000	1	0.246750
26.416667	1	0.247875
26.433333	1	0.248250
26.450000	1	0.249250
26.466667	1	0.249250
26.483333	1	0.249000
26.500000	1	0.248250
26.516667	1	0.246375
26.533333	1	0.245000
26.550000	1	0.243000
26.566667	1	0.241125
26.583333	1	0.238500
26.600000	1	0.235500
26.616667	1	0.231375
26.633333	1	0.227500
26.650000	1	0.223875
26.666667	1	0.219000
26.683333	1	0.213625
26.700000	1	0.208625
26.716667	1	0.203500
26.733333	1	0.198375
26.750000	1	0.192500
26.766667	1	0.187125
26.783333	1	0.181750
26.800000	1	0.176125
26.816667	1	0.169750
26.833333	1	0.164625
26.850000	1	0.159500
26.866667	1	0.154125
26.883333	1	0.149500
26.900000	1	0.144125
26.916667	1	0.139875
26.933333	1	0.135750
26.950000	1	0.131500
26.966667	1	0.127875
26.983333	1	0.124875
27.000000	1	0.122250
27.016667	1	0.120375
27.033333	1	0.118500
27.050000	1	0.117125
27.066667	1	0.115750
27.083333	1	0.115375
27.100000	1	0.115250
27.116667	1	0.115500
27.133333	1	0.116750
27.150000	1	0.117750
27.166667	1	0.119625
27.183333	1	0.122500
27.200000	1	0.126000
27.216667	1	0.130125
27.233333	1	0.134250
27.250000	1	0.139125
27.266667	1	0.144500
27.283333	1	0.151875
27.300000	1	0.159250
27.316667	1	0.167875
27.333333	1	0.177250
27.350000	1	0.187875
27.366667	1	0.200250
27.383333	1	0.214000
27.400000	1	0.229625
27.416667	1	0.247000
27.433333	1	0.266750
27.450000	1	0.288625
27.466667	1	0.312500
27.483333	1	0.339500
27.500000	1	0.370250
27.516667	1	0.403125
27.533333	1	0.440250
27.550000	1	0.482000
27.566667	1	0.527125
27.583333	1	0.576500
27.600000	1	0.630250
27.616667	1	0.689250
27.633333	1	0.753125
27.650000	1	0.821375
27.666667	1	0.895000
27.683333	1	0.973500
27.700000	1	1.057500
27.716667	1	1.147000
27.733333	1	1.241875
27.750000	1	1.340500
27.766667	1	1.444500
27.783333	1	1.552250
27.800000	1	1.663875
27.816667	1	1.778375
27.833333	1	1.896125
27.850000	1	2.016250
27.866667	1	2.137625
27.883333	1	2.260375
27.900000	1	2.382875
27.916667	1	2.503375
27.933333	1	2.622375
27.950000	1	2.737750
27.966667	1	2.849750
27.983333	1	2.956250
28.000000	1	3.056000
28.016667	1	3.148750
28.033333	1	3.232500
28.050000	1	3.306625
28.066667	1	3.370875
28.083333	1	3.423875
28.100000	1	3.464625
28.116667	1	3.491625
28.133333	1	3.504875
28.150000	1	3.504125
28.166667	1	3.489625
28.183333	1	3.460750
28.200000	1	3.418125
28.216667	1	3.361625
28.233333	1	3.292375
28.250000	1	3.211000
28.266667	1	3.117250
28.283333	1	3.013750
28.300000	1	2.900375
28.316667	1	2.780375
28.333333	1	2.653000
28.350000	1	2.521375
28.366667	1	2.386625
28.383333	1	2.249625
28.400000	1	2.111625
28.416667	1	1.973875
28.433333	1	1.837375
28.450000	1	1.702875
28.466667	1	1.570875
28.483333	1	1.443000
28.500000	1	1.319500
28.516667	1	1.200000
28.533333	1	1.084875
28.550000	1	0.974625
28.566667	1	0.870500
28.583333	1	0.770500
28.600000	1	0.676625
28.616667	1	0.586500
28.633333	1	0.500875
28.650000	1	0.419750
28.666667	1	0.342125
28.683333	1	0.268500
28.700000	1	0.198500
28.716667	1	0.132250
28.733333	1	0.068750
28.750000	1	0.007875
28.766667	1	-0.050000
28.783333	1	-0.105000
28.800000	1	-0.157375
28.816667	1	-0.206875
28.833333	1	-0.253500
28.850000	1	-0.298000
28.866667	1	-0.339375
28.883333	1	-0.378625
28.900000	1	-0.414750
28.916667	1	-0.448250
28.933333	1	-0.479125
28.950000	1	-0.506375
28.966667	1	-0.530875
28.983333	1	-0.551875
29.000000	1	-0.568875
29.016667	1	-0.582625
29.033333	1	-0.593250
29.050000	1	-0.600875
29.066667	1	-0.605250
29.083333	1	-0.605875
29.100000	1	-0.602875
29.116667	1	-0.597000
29.133333	1	-0.587625
29.150000	1	-0.575125
29.166667	1	-0.559625
29.183333	1	-0.541000
29.200000	1	-0.520625
29.216667	1	-0.497625
29.233333	1	-0.472500
29.250000	1	-0.444875
29.266667	1	-0.416000
29.283333	1	-0.385625
29.300000	1	-0.353375
29.316667	1	-0.321125
29.333333	1	-0.287375
29.350000	1	-0.253750
29.366667	1	-0.219125
29.383333	1	-0.184500
29.400000	1	-0.150125
29.416667	1	-0.116375
29.433333	1	-0.082875
29.450000	1	-0.049750
29.466667	1	-0.018000
29.483333	1	0.012875
29.500000	1	0.043000
29.516667	1	0.071750
29.533333	1	0.099875
29.550000	1	0.126125
29.566667	1	0.150750
29.583333	1	0.175000
29.600000	1	0.197625
29.616667	1	0.218875
29.633333	1	0.238125
29.650000	1	0.256375
29.666667	1	0.272750
29.683333	1	0.288250
29.700000	1	0.302875
29.716667	1	0.315375
29.733333	1	0.326875
29.750000	1	0.337250
29.766667	1	0.346250
29.783333	1	0.354000
29.800000	1	0.360750
29.816667	1	0.367000
29.833333	1	0.372000
29.850000	1	0.376500
29.866667	1	0.380625
29.883333	1	0.384000
29.900000	1	0.386500
29.916667	1	0.389000
29.933333	1	0.391500
29.950000	1	0.393000
29.966667	1	0.394750
29.983333	1	0.396500
30.000000	1	0.398375
30.016667	1	0.400625
30.033333	1	0.403625
30.050000	1	0.407250
30.066667	1	0.411250
30.083333	1	0.416000
30.100000	1	0.421875
30.116667	1	0.429250
30.133333	1	0.437375
30.150000	1	0.447125
30.166667	1	0.458750
30.183333	1	0.472875
30.200000	1	0.488375
30.216667	1	0.506875
30.233333	1	0.527625
30.250000	1	0.550750
30.266667	1	0.577125
30.283333	1	0.607250
30.300000	1	0.639875
30.316667	1	0.677250
30.333333	1	0.718875
30.350000	1	0.765000
30.366667	1	0.815625
30.383333	1	0.871250
30.400000	1	0.932000
30.416667	1	0.998875
30.433333	1	1.070375
30.450000	1	1.147250
30.466667	1	1.230750
30.483333	1	1.319375
30.500000	1	1.414375
30.516667	1	1.514750
30.533333	1	1.620250
30.550000	1	1.732250
30.566667	1	1.849250
30.583333	1	1.970625
30.600000	1	2.095750
30.616667	1	2.224625
30.633333	1	2.357500
30.650000	1	2.492875
30.666667	1	2.629125
30.683333	1	2.766250
30.700000	1	2.904000
30.716667	1	3.040750
30.733333	1	3.174250
30.750000	1	3.304000
30.766667	1	3.430000
30.783333	1	3.549500
30.800000	1	3.663125
30.816667	1	3.768625
30.833333	1	3.864625
30.850000	1	3.950250
30.866667	1	4.024750
30.883333	1	4.086750
30.900000	1	4.136125
30.916667	1	4.173500
30.933333	1	4.195875
30.950000	1	4.203750
30.966667	1	4.197750
30.983333	1	4.177875
31.000000	1	4.145000
31.016667	1	4.097875
31.033333	1	4.038125
31.050000	1	3.966125
31.066667	1	3.882250
31.083333	1	3.787500
31.100000	1	3.684750
31.116667	1	3.573625
31.133333	1	3.455875
31.150000	1	3.331375
31.166667	1	3.202250
31.183333	1	3.070500
31.200000	1	2.935625
31.216667	1	2.799250
31.233333	1	2.662375
31.250000	1	2.525875
31.266667	1	2.391250
31.283333	1	2.259750
31.300000	1	2.131250
31.316667	1	2.006625
31.333333	1	1.885625
31.350000	1	1.769250
31.366667	1	1.658125
31.383333	1	1.552250
31.400000	1	1.451125
31.416667	1	1.356000
31.433333	1	1.265500
31.450000	1	1.180375
31.466667	1	1.101000
31.483333	1	1.026625
31.500000	1	0.957500
31.516667	1	0.893375
31.533333	1	0.833000
31.550000	1	0.777500
31.566667	1	0.726750
31.583333	1	0.679500
31.600000	1	0.636250
31.616667	1	0.596125
31.633333	1	0.559750
31.650000	1	0.526000
31.666667	1	0.495250
31.683333	1	0.467625
31.700000	1	0.442625
31.716667	1	0.420125
31.733333	1	0.399750
31.750000	1	0.381000
31.766667	1	0.364750
31.783333	1	0.350000
31.800000	1	0.336625
31.816667	1	0.324750
31.833333	1	0.313500
31.850000	1	0.304250
31.866667	1	0.295875
31.883333	1	0.288875
31.900000	1	0.281875
31.916667	1	0.276375
31.933333	1	0.272375
31.950000	1	0.268125
31.966667	1	0.264875
31.983333	1	0.261375
32.000000	1	0.258500
32.016667	1	0.256000
32.033333	1	0.253500
32.050000	1	0.251000
32.066667	1	0.249125
32.083333	1	0.247000
32.100000	1	0.244500
32.116667	1	0.242375
32.133333	1	0.239750
32.150000	1	0.237125
32.166667	1	0.234750
32.183333	1	0.231500
32.200000	1	0.227750
32.216667	1	0.224500
32.233333	1	0.220500
32.250000	1	0.215375
32.266667	1	0.210125
32.283333	1	0.205000
32.300000	1	0.199500
32.316667	1	0.193250
32.333333	1	0.186625
32.350000	1	0.179750
32.366667	1	0.172750
32.383333	1	0.165625
32.400000	1	0.158500
32.416667	1	0.151125
32.433333	1	0.143125
32.450000	1	0.134875
32.466667	1	0.127375
32.483333	1	0.119750
32.500000	1	0.112125
32.516667	1	0.104625
32.533333	1	0.096750
32.550000	1	0.089375
32.566667	1	0.082500
32.583333	1	0.075875
32.600000	1	0.068750
32.616667	1	0.062000
32.633333	1	0.055250
32.650000	1	0.049000
32.666667	1	0.043125
32.683333	1	0.038000
32.700000	1	0.032625
32.716667	1	0.027625
32.733333	1	0.023125
32.750000	1	0.019000
32.766667	1	0.015375
32.783333	1	0.011375
32.800000	1	0.007375
32.816667	1	0.004375
32.833333	1	0.001125
32.850000	1	-0.002625
32.866667	1	-0.005375
32.883333	1	-0.008000
32.900000	1	-0.010250
32.916667	1	-0.012875
32.933333	1	-0.015375
32.950000	1	-0.017000
32.966667	1	-0.019750
32.983333	1	-0.021750
33.000000	1	-0.023625
33.016667	1	-0.026375
33.033333	1	-0.028500
33.050000	1	-0.030500
33.066667	1	-0.032625
33.083333	1	-0.034250
33.100000	1	-0.035625
33.116667	1	-0.037375
33.133333	1	-0.039625
33.150000	1	-0.041875
33.166667	1	-0.043500
33.183333	1	-0.045000
33.200000	1	-0.046875
33.216667	1	-0.048125
33.233333	1	-0.049625
33.250000	1	-0.051125
33.266667	1	-0.052625
33.283333	1	-0.054375
33.300000	1	-0.055375
33.316667	1	-0.056750
33.333333	1	-0.058125
33.350000	1	-0.059125
33.366667	1	-0.059500
33.383333	1	-0.060125
33.400000	1	-0.061000
33.416667	1	-0.061500
33.433333	1	-0.062625
33.450000	1	-0.063250
33.466667	1	-0.063875
33.483333	1	-0.064375
33.500000	1	-0.064375
33.516667	1	-0.064500
33.533333	1	-0.064500
33.550000	1	-0.063875
33.566667	1	-0.064375
33.583333	1	-0.064750
33.600000	1	-0.064625
33.616667	1	-0.064750
33.633333	1	-0.064500
33.650000	1	-0.064000
33.666667	1	-0.064000
33.683333	1	-0.063500
33.700000	1	-0.063125
33.716667	1	-0.062500
33.733333	1	-0.062000
33.750000	1	-0.061875
33.766667	1	-0.061125
33.783333	1	-0.060375
33.800000	1	-0.059750
33.816667	1	-0.059250
33.833333	1	-0.058625
33.850000	1	-0.058250
33.866667	1	-0.057000
33.883333	1	-0.056125
33.900000	1	-0.055375
33.916667	1	-0.054125
33.933333	1	-0.052750
33.950000	1	-0.052250
33.966667	1	-0.051000
33.983333	1	-0.050250
34.000000	1	-0.048875
34.016667	1	-0.047000
34.033333	1	-0.045375
34.050000	1	-0.044125
34.066667	1	-0.042750
34.083333	1	-0.041375
34.100000	1	-0.039625
34.116667	1	-0.038625
34.133333	1	-0.036250
34.150000	1	-0.033750
34.166667	1	-0.031500
34.183333	1	-0.029500
34.200000	1	-0.028125
34.216667	1	-0.026375
34.233333	1	-0.024375
34.250000	1	-0.022750
34.266667	1	-0.021375
34.283333	1	-0.019625
34.300000	1	-0.017875
34.316667	1	-0.016375
34.333333	1	-0.014000
34.350000	1	-0.012125
34.366667	1	-0.010625
34.383333	1	-0.008625
34.400000	1	-0.006875
34.416667	1	-0.006250
34.433333	1	-0.004375
34.450000	1	-0.002875
34.466667	1	-0.001750
34.483333	1	0.000000
34.500000	1	0.000750
34.516667	1	0.002375
34.533333	1	0.003875
34.550000	1	0.004125
34.566667	1	0.004750
34.583333	1	0.005750
34.600000	1	0.007000
34.616667	1	0.008375
34.633333	1	0.009125
34.650000	1	0.010125
34.666667	1	0.010750
34.683333	1	0.011250
34.700000	1	0.011750
34.716667	1	0.012125
34.733333	1	0.013000
34.750000	1	0.013375
34.766667	1	0.013625
34.783333	1	0.014125
34.800000	1	0.014250
34.816667	1	0.014250
34.833333	1	0.014750
34.850000	1	0.014625
34.866667	1	0.015500
34.883333	1	0.016500
34.900000	1	0.017375
34.916667	1	0.018250
34.933333	1	0.019500
34.950000	1	0.020250
34.966667	1	0.021375
34.983333	1	0.022125
35.000000	1	0.023250
35.016667	1	0.024875
35.033333	1	0.026125
35.050000	1	0.026875
35.066667	1	0.027500
35.083333	1	0.029250
35.100000	1	0.031375
35.116667	1	0.033375
35.133333	1	0.035250
35.150000	1	0.037125
35.166667	1	0.039125
35.183333	1	0.040875
35.200000	1	0.042125
35.216667	1	0.044625
35.233333	1	0.046625
35.250000	1	0.048875
35.266667	1	0.051125
35.283333	1	0.054000
35.300000	1	0.056500
35.316667	1	0.059125
35.333333	1	0.061500
35.350000	1	0.064125
35.366667	1	0.066500
35.383333	1	0.069000
35.400000	1	0.070875
35.416667	1	0.073000
35.433333	1	0.074750
35.450000	1	0.077000
35.466667	1	0.079250
35.483333	1	0.081250
35.500000	1	0.082750
35.516667	1	0.084625
35.533333	1	0.086625
35.550000	1	0.088250
35.566667	1	0.089750
35.583333	1	0.091375
35.600000	1	0.092250
35.616667	1	0.093500
35.633333	1	0.094375
35.650000	1	0.095500
35.666667	1	0.096750
35.683333	1	0.096875
35.700000	1	0.097375
35.716667	1	0.098125
35.733333	1	0.098625
35.750000	1	0.099125
35.766667	1	0.099000
35.783333	1	0.098875
35.800000	1	0.098625
35.816667	1	0.099000
35.833333	1	0.098750
35.850000	1	0.099000
35.866667	1	0.099000
35.883333	1	0.098750
35.900000	1	0.098625
35.916667	1	0.098250
35.933333	1	0.097500
35.950000	1	0.097250
35.966667	1	0.096750
35.983333	1	0.096000
36.000000	1	0.095375
36.016667	1	0.095250
36.033333	1	0.094000
36.050000	1	0.093750
36.066667	1	0.092875
36.083333	1	0.091750
36.100000	1	0.090625
36.116667	1	0.089375
36.133333	1	0.088500
36.150000	1	0.087625
36.166667	1	0.087125
36.183333	1	0.085250
36.200000	1	0.084375
36.216667	1	0.083250
36.233333	1	0.081875
36.250000	1	0.080375
36.266667	1	0.079625
36.283333	1	0.078750
36.300000	1	0.078000
36.316667	1	0.076750
36.333333	1	0.075250
36.350000	1	0.073500
36.366667	1	0.072250
36.383333	1	0.070375
36.400000	1	0.068625
36.416667	1	0.067625
36.433333	1	0.066125
36.450000	1	0.064250
36.466667	1	0.062875
36.483333	1	0.061625
36.500000	1	0.059875
36.516667	1	0.058375
36.533333	1	0.056625
36.550000	1	0.055125
36.566667	1	0.054000
36.583333	1	0.052000
36.600000	1	0.050625
36.616667	1	0.049250
36.633333	1	0.047625
36.650000	1	0.045875
36.666667	1	0.044125
36.683333	1	0.042250
36.700000	1	0.040375
36.716667	1	0.039000
36.733333	1	0.037625
36.750000	1	0.035875
36.766667	1	0.034250
36.783333	1	0.031875
36.800000	1	0.029875
36.816667	1	0.027625
36.833333	1	0.026500
36.850000	1	0.024500
36.866667	1	0.022125
36.883333	1	0.020000
36.900000	1	0.017750
36.916667	1	0.016125
36.933333	1	0.013750
36.950000	1	0.011625
36.966667	1	0.009875
36.983333	1	0.007625
37.000000	1	0.005250
37.016667	1	0.003125
37.033333	1	0.001750
37.050000	1	-0.001000
37.066667	1	-0.003000
37.083333	1	-0.005125
37.100000	1	-0.007125
37.116667	1	-0.009250
37.133333	1	-0.011375
37.150000	1	-0.013125
37.166667	1	-0.014125
37.183333	1	-0.016500
37.200000	1	-0.018500
37.216667	1	-0.019875
37.233333	1	-0.021375
37.250000	1	-0.022875
37.266667	1	-0.024125
37.283333	1	-0.025875
37.300000	1	-0.027250
37.316667	1	-0.028875
37.333333	1	-0.029500
37.350000	1	-0.030875
37.366667	1	-0.031500
37.383333	1	-0.032125
37.400000	1	-0.032875
37.416667	1	-0.034250
37.433333	1	-0.036125
37.450000	1	-0.037000
37.466667	1	-0.037750
37.483333	1	-0.037875
37.500000	1	-0.038375
37.516667	1	-0.038250
37.533333	1	-0.039000
37.550000	1	-0.040125
37.566667	1	-0.040875
37.583333	1	-0.041250
37.600000	1	-0.042125
37.616667	1	-0.043125
37.633333	1	-0.043625
37.650000	1	-0.043750
37.666667	1	-0.043750
37.683333	1	-0.044375
37.700000	1	-0.043750
37.716667	1	-0.044250
37.733333	1	-0.044625
37.750000	1	-0.044625
37.766667	1	-0.045125
37.783333	1	-0.045625
37.800000	1	-0.044875
37.816667	1	-0.044750
37.833333	1	-0.044500
37.850000	1	-0.044125
37.866667	1	-0.044250
37.883333	1	-0.044375
37.900000	1	-0.043875
37.916667	1	-0.043750
37.933333	1	-0.043250
37.950000	1	-0.042500
37.966667	1	-0.042500
37.983333	1	-0.042250
38.000000	1	-0.042250
38.016667	1	-0.041875
38.033333	1	-0.041125
38.050000	1	-0.041000
38.066667	1	-0.040000
38.083333	1	-0.039500
38.100000	1	-0.038875
38.116667	1	-0.038500
38.133333	1	-0.038125
38.150000	1	-0.038000
38.166667	1	-0.037625
38.183333	1	-0.037250
38.200000	1	-0.037000
38.216667	1	-0.036625
38.233333	1	-0.036125
38.250000	1	-0.035875
38.266667	1	-0.035500
38.283333	1	-0.035250
38.300000	1	-0.034875
38.316667	1	-0.035000
38.333333	1	-0.035375
38.350000	1	-0.035375
38.366667	1	-0.035125
38.383333	1	-0.035250
38.400000	1	-0.035250
38.416667	1	-0.035625
38.433333	1	-0.036250
38.450000	1	-0.037000
38.466667	1	-0.037625
38.483333	1	-0.037875
38.500000	1	-0.038125
38.516667	1	-0.039750
38.533333	1	-0.040750
38.550000	1	-0.041500
38.566667	1	-0.042250
38.583333	1	-0.042500
38.600000	1	-0.043125
38.616667	1	-0.044625
38.633333	1	-0.045875
38.650000	1	-0.047500
38.666667	1	-0.049000
38.683333	1	-0.050000
38.700000	1	-0.050625
38.716667	1	-0.051250
38.733333	1	-0.052000
38.750000	1	-0.053125
38.766667	1	-0.054000
38.783333	1	-0.054125
38.800000	1	-0.054875
38.816667	1	-0.055625
38.833333	1	-0.057000
38.850000	1	-0.057500
38.866667	1	-0.057750
38.883333	1	-0.058500
38.900000	1	-0.059000
38.916667	1	-0.059375
38.933333	1	-0.059375
38.950000	1	-0.059625
38.966667	1	-0.059750
38.983333	1	-0.059750
39.000000	1	-0.059750
39.016667	1	-0.059875
39.033333	1	-0.060125
39.050000	1	-0.059875
39.066667	1	-0.059625
39.083333	1	-0.058875
39.100000	1	-0.058500
39.116667	1	-0.058750
39.133333	1	-0.058625
39.150000	1	-0.058375
39.166667	1	-0.057875
39.183333	1	-0.057750
39.200000	1	-0.057250
39.216667	1	-0.056000
39.233333	1	-0.055625
39.250000	1	-0.054625
39.266667	1	-0.054000
39.283333	1	-0.053625
39.300000	1	-0.053125
39.316667	1	-0.052625
39.333333	1	-0.052125
39.350000	1	-0.051125
39.366667	1	-0.051000
39.383333	1	-0.050125
39.400000	1	-0.049875
39.416667	1	-0.049375
39.433333	1	-0.048875
39.450000	1	-0.048000
39.466667	1	-0.046500
39.483333	1	-0.045375
39.500000	1	-0.044500
39.516667	1	-0.043625
39.533333	1	-0.043000
39.550000	1	-0.042500
39.566667	1	-0.041250
39.583333	1	-0.039625
39.600000	1	-0.038500
39.616667	1	-0.037125
39.633333	1	-0.036250
39.650000	1	-0.034500
39.666667	1	-0.032625
39.683333	1	-0.031000
39.700000	1	-0.029625
39.716667	1	-0.028000
39.733333	1	-0.026500
39.750000	1	-0.024875
39.766667	1	-0.023125
39.783333	1	-0.021625
39.800000	1	-0.020375
39.816667	1	-0.018250
39.833333	1	-0.017250
39.850000	1	-0.015875
39.866667	1	-0.014125
39.883333	1	-0.012375
39.900000	1	-0.010375
39.916667	1	-0.009375
39.933333	1	-0.007750
39.950000	1	-0.006250
39.966667	1	-0.005250
39.983333	1	-0.004250
40.000000	1	-0.002875
