File Path	chrom://marshall/Chromeleon7/HPLC_Ultimate_3000/Users/markusar/20230610_CMO_FP11_FP12.seq/263.smp/RI_1.channel/RI_1.chm
Channel	RI_1

Injection Information:
Data Vault	Chromeleon7
Injection	FP11_6_S5
Injection Number	10
Position	BA9
Comment	
Processing Method	
Instrument Method	run_25B_method
Type	Unknown
Status	Finished
Injection Date	11.06.2023
Injection Time	00:52:34
Injection Volume (µl)	20.000
Dilution Factor	1.0000
Weight	1.0000

Chromatogram Data Information:
Time Min. (min)	0.000000
Time Max. (min)	40.000000
Data Points	2401
Detector	RI
Generating Data System	Chromeleon 7.2.5.9507
Exporting Data System	Chromeleon 7.2.5.0
Operator	Instrument Controller
Signal Quantity	Refractive 
Signal Unit	µRIU
Signal Min.	-0.647625
Signal Max.	39.928750
Channel	RI_1
Driver Name	RID520Driver.dll
Channel Type	Evaluation
Min. Step (s)	1
Max. Step (s)	1
Average Step (s)	1

Signal Parameter Information:
Signal Info	

Chromatogram Data:
Time (min)	Step (s)	Value (µRIU)
0.000000	n.a.	-0.022875
0.016667	1	-0.024625
0.033333	1	-0.026125
0.050000	1	-0.027875
0.066667	1	-0.029250
0.083333	1	-0.030500
0.100000	1	-0.032125
0.116667	1	-0.033250
0.133333	1	-0.034875
0.150000	1	-0.037125
0.166667	1	-0.038750
0.183333	1	-0.040875
0.200000	1	-0.042375
0.216667	1	-0.043375
0.233333	1	-0.045125
0.250000	1	-0.046000
0.266667	1	-0.047000
0.283333	1	-0.047750
0.300000	1	-0.049500
0.316667	1	-0.051500
0.333333	1	-0.054750
0.350000	1	-0.059125
0.366667	1	-0.063875
0.383333	1	-0.066125
0.400000	1	-0.064875
0.416667	1	-0.062500
0.433333	1	-0.059875
0.450000	1	-0.057375
0.466667	1	-0.055000
0.483333	1	-0.053000
0.500000	1	-0.051500
0.516667	1	-0.050250
0.533333	1	-0.049750
0.550000	1	-0.050625
0.566667	1	-0.051750
0.583333	1	-0.053875
0.600000	1	-0.056250
0.616667	1	-0.058625
0.633333	1	-0.059875
0.650000	1	-0.060500
0.666667	1	-0.061250
0.683333	1	-0.062000
0.700000	1	-0.063125
0.716667	1	-0.063125
0.733333	1	-0.063750
0.750000	1	-0.064375
0.766667	1	-0.064625
0.783333	1	-0.065000
0.800000	1	-0.064875
0.816667	1	-0.064750
0.833333	1	-0.064250
0.850000	1	-0.064750
0.866667	1	-0.064125
0.883333	1	-0.063500
0.900000	1	-0.063125
0.916667	1	-0.063250
0.933333	1	-0.063500
0.950000	1	-0.063250
0.966667	1	-0.062375
0.983333	1	-0.062250
1.000000	1	-0.062375
1.016667	1	-0.062000
1.033333	1	-0.061750
1.050000	1	-0.062000
1.066667	1	-0.061125
1.083333	1	-0.060750
1.100000	1	-0.061000
1.116667	1	-0.061250
1.133333	1	-0.061750
1.150000	1	-0.061625
1.166667	1	-0.061250
1.183333	1	-0.061125
1.200000	1	-0.060875
1.216667	1	-0.060500
1.233333	1	-0.061125
1.250000	1	-0.061625
1.266667	1	-0.061750
1.283333	1	-0.062000
1.300000	1	-0.062125
1.316667	1	-0.061875
1.333333	1	-0.061750
1.350000	1	-0.062250
1.366667	1	-0.062375
1.383333	1	-0.062625
1.400000	1	-0.062250
1.416667	1	-0.062500
1.433333	1	-0.062750
1.450000	1	-0.063250
1.466667	1	-0.063250
1.483333	1	-0.063375
1.500000	1	-0.064000
1.516667	1	-0.064125
1.533333	1	-0.064000
1.550000	1	-0.064500
1.566667	1	-0.065500
1.583333	1	-0.066250
1.600000	1	-0.067125
1.616667	1	-0.068375
1.633333	1	-0.068750
1.650000	1	-0.070125
1.666667	1	-0.070250
1.683333	1	-0.071250
1.700000	1	-0.072000
1.716667	1	-0.072875
1.733333	1	-0.073625
1.750000	1	-0.074875
1.766667	1	-0.075875
1.783333	1	-0.077125
1.800000	1	-0.077750
1.816667	1	-0.078375
1.833333	1	-0.079375
1.850000	1	-0.080500
1.866667	1	-0.081750
1.883333	1	-0.082125
1.900000	1	-0.083500
1.916667	1	-0.084750
1.933333	1	-0.085250
1.950000	1	-0.086000
1.966667	1	-0.087000
1.983333	1	-0.087750
2.000000	1	-0.088625
2.016667	1	-0.089250
2.033333	1	-0.090250
2.050000	1	-0.091000
2.066667	1	-0.091625
2.083333	1	-0.091500
2.100000	1	-0.090875
2.116667	1	-0.091625
2.133333	1	-0.091625
2.150000	1	-0.091500
2.166667	1	-0.091750
2.183333	1	-0.092250
2.200000	1	-0.092250
2.216667	1	-0.092000
2.233333	1	-0.091625
2.250000	1	-0.091375
2.266667	1	-0.091375
2.283333	1	-0.091125
2.300000	1	-0.090625
2.316667	1	-0.089875
2.333333	1	-0.088875
2.350000	1	-0.088875
2.366667	1	-0.089125
2.383333	1	-0.088750
2.400000	1	-0.088250
2.416667	1	-0.087375
2.433333	1	-0.086250
2.450000	1	-0.085875
2.466667	1	-0.084625
2.483333	1	-0.084500
2.500000	1	-0.083750
2.516667	1	-0.083500
2.533333	1	-0.083125
2.550000	1	-0.082750
2.566667	1	-0.082125
2.583333	1	-0.081375
2.600000	1	-0.080375
2.616667	1	-0.079750
2.633333	1	-0.078875
2.650000	1	-0.078375
2.666667	1	-0.077250
2.683333	1	-0.076375
2.700000	1	-0.075250
2.716667	1	-0.074500
2.733333	1	-0.073875
2.750000	1	-0.073125
2.766667	1	-0.072375
2.783333	1	-0.071375
2.800000	1	-0.070750
2.816667	1	-0.070250
2.833333	1	-0.068125
2.850000	1	-0.067000
2.866667	1	-0.065750
2.883333	1	-0.064500
2.900000	1	-0.063375
2.916667	1	-0.062250
2.933333	1	-0.060750
2.950000	1	-0.059375
2.966667	1	-0.057875
2.983333	1	-0.056750
3.000000	1	-0.055250
3.016667	1	-0.053625
3.033333	1	-0.051750
3.050000	1	-0.050125
3.066667	1	-0.048625
3.083333	1	-0.047375
3.100000	1	-0.046125
3.116667	1	-0.044500
3.133333	1	-0.043375
3.150000	1	-0.042875
3.166667	1	-0.041375
3.183333	1	-0.039875
3.200000	1	-0.038875
3.216667	1	-0.038375
3.233333	1	-0.037375
3.250000	1	-0.036750
3.266667	1	-0.035500
3.283333	1	-0.034250
3.300000	1	-0.033500
3.316667	1	-0.033125
3.333333	1	-0.032500
3.350000	1	-0.032125
3.366667	1	-0.031750
3.383333	1	-0.031000
3.400000	1	-0.031375
3.416667	1	-0.030875
3.433333	1	-0.030500
3.450000	1	-0.030375
3.466667	1	-0.030625
3.483333	1	-0.030375
3.500000	1	-0.030750
3.516667	1	-0.031000
3.533333	1	-0.031000
3.550000	1	-0.031875
3.566667	1	-0.031750
3.583333	1	-0.031875
3.600000	1	-0.032500
3.616667	1	-0.033125
3.633333	1	-0.033375
3.650000	1	-0.034250
3.666667	1	-0.034875
3.683333	1	-0.035375
3.700000	1	-0.036250
3.716667	1	-0.036875
3.733333	1	-0.037375
3.750000	1	-0.038125
3.766667	1	-0.038750
3.783333	1	-0.040000
3.800000	1	-0.040375
3.816667	1	-0.041250
3.833333	1	-0.042375
3.850000	1	-0.043125
3.866667	1	-0.043875
3.883333	1	-0.044750
3.900000	1	-0.045625
3.916667	1	-0.046500
3.933333	1	-0.047625
3.950000	1	-0.048250
3.966667	1	-0.049250
3.983333	1	-0.050625
4.000000	1	-0.051375
4.016667	1	-0.052000
4.033333	1	-0.053250
4.050000	1	-0.054250
4.066667	1	-0.054875
4.083333	1	-0.055500
4.100000	1	-0.056500
4.116667	1	-0.057500
4.133333	1	-0.057875
4.150000	1	-0.058250
4.166667	1	-0.059000
4.183333	1	-0.058875
4.200000	1	-0.059375
4.216667	1	-0.059625
4.233333	1	-0.060375
4.250000	1	-0.059875
4.266667	1	-0.059875
4.283333	1	-0.060000
4.300000	1	-0.059625
4.316667	1	-0.060000
4.333333	1	-0.060125
4.350000	1	-0.060250
4.366667	1	-0.060375
4.383333	1	-0.060125
4.400000	1	-0.059875
4.416667	1	-0.058625
4.433333	1	-0.058250
4.450000	1	-0.057500
4.466667	1	-0.056875
4.483333	1	-0.057000
4.500000	1	-0.056625
4.516667	1	-0.056000
4.533333	1	-0.055000
4.550000	1	-0.054000
4.566667	1	-0.052875
4.583333	1	-0.051375
4.600000	1	-0.050500
4.616667	1	-0.049125
4.633333	1	-0.048625
4.650000	1	-0.046750
4.666667	1	-0.045125
4.683333	1	-0.044125
4.700000	1	-0.043125
4.716667	1	-0.040875
4.733333	1	-0.039500
4.750000	1	-0.037875
4.766667	1	-0.035625
4.783333	1	-0.033750
4.800000	1	-0.032875
4.816667	1	-0.031500
4.833333	1	-0.030000
4.850000	1	-0.028250
4.866667	1	-0.026500
4.883333	1	-0.024875
4.900000	1	-0.022875
4.916667	1	-0.021500
4.933333	1	-0.019375
4.950000	1	-0.018000
4.966667	1	-0.015500
4.983333	1	-0.013625
5.000000	1	-0.011375
5.016667	1	-0.009500
5.033333	1	-0.008000
5.050000	1	-0.006250
5.066667	1	-0.004500
5.083333	1	-0.003250
5.100000	1	-0.001375
5.116667	1	-0.000125
5.133333	1	0.001250
5.150000	1	0.002625
5.166667	1	0.004625
5.183333	1	0.006375
5.200000	1	0.008000
5.216667	1	0.009375
5.233333	1	0.011250
5.250000	1	0.012000
5.266667	1	0.012375
5.283333	1	0.013750
5.300000	1	0.014625
5.316667	1	0.015500
5.333333	1	0.016500
5.350000	1	0.016750
5.366667	1	0.017000
5.383333	1	0.017500
5.400000	1	0.018250
5.416667	1	0.019000
5.433333	1	0.018625
5.450000	1	0.018000
5.466667	1	0.018375
5.483333	1	0.017375
5.500000	1	0.017125
5.516667	1	0.016375
5.533333	1	0.015250
5.550000	1	0.014250
5.566667	1	0.013875
5.583333	1	0.012250
5.600000	1	0.011125
5.616667	1	0.009625
5.633333	1	0.008625
5.650000	1	0.007250
5.666667	1	0.006250
5.683333	1	0.005125
5.700000	1	0.003625
5.716667	1	0.001875
5.733333	1	0.000000
5.750000	1	-0.000750
5.766667	1	-0.002250
5.783333	1	-0.003375
5.800000	1	-0.004500
5.816667	1	-0.005000
5.833333	1	-0.006625
5.850000	1	-0.007375
5.866667	1	-0.008375
5.883333	1	-0.008875
5.900000	1	-0.009875
5.916667	1	-0.010125
5.933333	1	-0.010750
5.950000	1	-0.010875
5.966667	1	-0.011625
5.983333	1	-0.012000
6.000000	1	-0.011500
6.016667	1	-0.011625
6.033333	1	-0.011250
6.050000	1	-0.010750
6.066667	1	-0.010375
6.083333	1	-0.010250
6.100000	1	-0.009625
6.116667	1	-0.008750
6.133333	1	-0.007875
6.150000	1	-0.007250
6.166667	1	-0.006250
6.183333	1	-0.004750
6.200000	1	-0.003375
6.216667	1	-0.001750
6.233333	1	-0.000125
6.250000	1	0.001000
6.266667	1	0.002500
6.283333	1	0.004250
6.300000	1	0.005375
6.316667	1	0.007375
6.333333	1	0.009375
6.350000	1	0.011375
6.366667	1	0.012875
6.383333	1	0.015375
6.400000	1	0.017000
6.416667	1	0.019000
6.433333	1	0.020500
6.450000	1	0.021875
6.466667	1	0.024250
6.483333	1	0.026375
6.500000	1	0.027875
6.516667	1	0.029500
6.533333	1	0.031125
6.550000	1	0.032875
6.566667	1	0.034875
6.583333	1	0.037250
6.600000	1	0.038375
6.616667	1	0.040125
6.633333	1	0.042000
6.650000	1	0.043500
6.666667	1	0.044750
6.683333	1	0.046750
6.700000	1	0.048000
6.716667	1	0.049125
6.733333	1	0.050500
6.750000	1	0.051500
6.766667	1	0.052250
6.783333	1	0.053125
6.800000	1	0.053250
6.816667	1	0.053500
6.833333	1	0.053875
6.850000	1	0.053375
6.866667	1	0.052500
6.883333	1	0.052375
6.900000	1	0.052000
6.916667	1	0.052625
6.933333	1	0.052000
6.950000	1	0.051125
6.966667	1	0.049500
6.983333	1	0.048375
7.000000	1	0.047000
7.016667	1	0.045750
7.033333	1	0.044500
7.050000	1	0.042500
7.066667	1	0.040125
7.083333	1	0.038250
7.100000	1	0.035375
7.116667	1	0.033000
7.133333	1	0.030125
7.150000	1	0.028125
7.166667	1	0.026250
7.183333	1	0.023625
7.200000	1	0.020750
7.216667	1	0.018000
7.233333	1	0.016250
7.250000	1	0.012875
7.266667	1	0.009750
7.283333	1	0.006625
7.300000	1	0.003750
7.316667	1	0.001250
7.333333	1	-0.001250
7.350000	1	-0.003625
7.366667	1	-0.007000
7.383333	1	-0.009000
7.400000	1	-0.011250
7.416667	1	-0.014625
7.433333	1	-0.017500
7.450000	1	-0.018750
7.466667	1	-0.020875
7.483333	1	-0.023125
7.500000	1	-0.025250
7.516667	1	-0.026750
7.533333	1	-0.029125
7.550000	1	-0.031125
7.566667	1	-0.033125
7.583333	1	-0.034875
7.600000	1	-0.035750
7.616667	1	-0.037750
7.633333	1	-0.039250
7.650000	1	-0.040125
7.666667	1	-0.041000
7.683333	1	-0.042125
7.700000	1	-0.042750
7.716667	1	-0.043875
7.733333	1	-0.045000
7.750000	1	-0.046125
7.766667	1	-0.047000
7.783333	1	-0.047375
7.800000	1	-0.047750
7.816667	1	-0.048750
7.833333	1	-0.049375
7.850000	1	-0.049375
7.866667	1	-0.049500
7.883333	1	-0.049625
7.900000	1	-0.049625
7.916667	1	-0.050000
7.933333	1	-0.049875
7.950000	1	-0.049875
7.966667	1	-0.050125
7.983333	1	-0.049875
8.000000	1	-0.049875
8.016667	1	-0.049125
8.033333	1	-0.048250
8.050000	1	-0.048125
8.066667	1	-0.047000
8.083333	1	-0.046000
8.100000	1	-0.044625
8.116667	1	-0.044125
8.133333	1	-0.043125
8.150000	1	-0.042000
8.166667	1	-0.040625
8.183333	1	-0.039375
8.200000	1	-0.037625
8.216667	1	-0.036750
8.233333	1	-0.035000
8.250000	1	-0.033375
8.266667	1	-0.031250
8.283333	1	-0.029875
8.300000	1	-0.028500
8.316667	1	-0.026000
8.333333	1	-0.024625
8.350000	1	-0.022500
8.366667	1	-0.020250
8.383333	1	-0.018625
8.400000	1	-0.016000
8.416667	1	-0.014250
8.433333	1	-0.012375
8.450000	1	-0.010250
8.466667	1	-0.008750
8.483333	1	-0.006625
8.500000	1	-0.004125
8.516667	1	-0.002000
8.533333	1	0.001125
8.550000	1	0.003250
8.566667	1	0.005375
8.583333	1	0.006875
8.600000	1	0.008750
8.616667	1	0.010375
8.633333	1	0.012375
8.650000	1	0.014125
8.666667	1	0.016625
8.683333	1	0.019000
8.700000	1	0.020625
8.716667	1	0.022375
8.733333	1	0.023750
8.750000	1	0.024625
8.766667	1	0.026000
8.783333	1	0.027125
8.800000	1	0.028500
8.816667	1	0.029250
8.833333	1	0.031375
8.850000	1	0.032250
8.866667	1	0.032625
8.883333	1	0.033250
8.900000	1	0.034125
8.916667	1	0.034625
8.933333	1	0.036000
8.950000	1	0.036625
8.966667	1	0.037500
8.983333	1	0.038250
9.000000	1	0.038750
9.016667	1	0.039250
9.033333	1	0.039875
9.050000	1	0.040500
9.066667	1	0.040875
9.083333	1	0.041250
9.100000	1	0.041500
9.116667	1	0.042125
9.133333	1	0.042500
9.150000	1	0.042750
9.166667	1	0.043125
9.183333	1	0.043625
9.200000	1	0.043875
9.216667	1	0.043750
9.233333	1	0.043625
9.250000	1	0.044250
9.266667	1	0.043875
9.283333	1	0.043875
9.300000	1	0.044500
9.316667	1	0.044750
9.333333	1	0.044500
9.350000	1	0.044875
9.366667	1	0.045750
9.383333	1	0.046500
9.400000	1	0.047500
9.416667	1	0.047875
9.433333	1	0.049000
9.450000	1	0.050000
9.466667	1	0.051375
9.483333	1	0.053000
9.500000	1	0.054875
9.516667	1	0.057000
9.533333	1	0.059750
9.550000	1	0.063375
9.566667	1	0.067500
9.583333	1	0.071875
9.600000	1	0.077750
9.616667	1	0.084000
9.633333	1	0.091000
9.650000	1	0.099625
9.666667	1	0.110250
9.683333	1	0.122750
9.700000	1	0.136250
9.716667	1	0.152000
9.733333	1	0.170250
9.750000	1	0.191000
9.766667	1	0.215125
9.783333	1	0.242875
9.800000	1	0.274750
9.816667	1	0.311125
9.833333	1	0.351250
9.850000	1	0.392875
9.866667	1	0.432250
9.883333	1	0.465875
9.900000	1	0.490375
9.916667	1	0.505375
9.933333	1	0.520500
9.950000	1	0.552875
9.966667	1	0.628500
9.983333	1	0.777375
10.000000	1	1.032875
10.016667	1	1.428125
10.033333	1	1.989625
10.050000	1	2.740625
10.066667	1	3.696250
10.083333	1	4.865750
10.100000	1	6.254375
10.116667	1	7.859000
10.133333	1	9.670250
10.150000	1	11.667500
10.166667	1	13.826000
10.183333	1	16.110375
10.200000	1	18.484750
10.216667	1	20.910125
10.233333	1	23.349875
10.250000	1	25.764250
10.266667	1	28.115125
10.283333	1	30.361375
10.300000	1	32.452375
10.316667	1	34.321000
10.333333	1	35.877625
10.350000	1	37.012125
10.366667	1	37.601875
10.383333	1	37.537625
10.400000	1	36.748500
10.416667	1	35.232375
10.433333	1	33.070000
10.450000	1	30.421500
10.466667	1	27.487500
10.483333	1	24.472625
10.500000	1	21.548750
10.516667	1	18.834250
10.533333	1	16.392000
10.550000	1	14.238500
10.566667	1	12.360625
10.583333	1	10.734000
10.600000	1	9.328625
10.616667	1	8.120375
10.633333	1	7.087500
10.650000	1	6.210000
10.666667	1	5.468875
10.683333	1	4.849125
10.700000	1	4.332500
10.716667	1	3.903500
10.733333	1	3.546875
10.750000	1	3.249000
10.766667	1	2.998750
10.783333	1	2.785125
10.800000	1	2.601750
10.816667	1	2.443375
10.833333	1	2.303625
10.850000	1	2.180500
10.866667	1	2.070250
10.883333	1	1.970875
10.900000	1	1.880375
10.916667	1	1.799375
10.933333	1	1.724750
10.950000	1	1.656625
10.966667	1	1.593125
10.983333	1	1.534000
11.000000	1	1.480625
11.016667	1	1.430000
11.033333	1	1.382500
11.050000	1	1.338875
11.066667	1	1.297250
11.083333	1	1.258625
11.100000	1	1.223250
11.116667	1	1.189750
11.133333	1	1.158250
11.150000	1	1.129250
11.166667	1	1.102125
11.183333	1	1.076500
11.200000	1	1.052250
11.216667	1	1.029750
11.233333	1	1.008750
11.250000	1	0.988500
11.266667	1	0.970250
11.283333	1	0.953000
11.300000	1	0.936875
11.316667	1	0.922875
11.333333	1	0.908500
11.350000	1	0.896625
11.366667	1	0.884750
11.383333	1	0.874500
11.400000	1	0.865250
11.416667	1	0.856500
11.433333	1	0.848375
11.450000	1	0.842125
11.466667	1	0.836875
11.483333	1	0.832375
11.500000	1	0.828250
11.516667	1	0.825125
11.533333	1	0.823125
11.550000	1	0.821250
11.566667	1	0.819500
11.583333	1	0.819250
11.600000	1	0.819375
11.616667	1	0.819125
11.633333	1	0.819000
11.650000	1	0.819625
11.666667	1	0.820250
11.683333	1	0.822125
11.700000	1	0.823375
11.716667	1	0.825250
11.733333	1	0.825875
11.750000	1	0.826750
11.766667	1	0.827750
11.783333	1	0.829375
11.800000	1	0.830375
11.816667	1	0.831000
11.833333	1	0.831875
11.850000	1	0.832750
11.866667	1	0.833375
11.883333	1	0.834250
11.900000	1	0.835250
11.916667	1	0.836375
11.933333	1	0.837875
11.950000	1	0.839625
11.966667	1	0.842625
11.983333	1	0.846250
12.000000	1	0.851000
12.016667	1	0.856875
12.033333	1	0.864750
12.050000	1	0.874750
12.066667	1	0.888000
12.083333	1	0.905750
12.100000	1	0.927500
12.116667	1	0.956250
12.133333	1	0.993375
12.150000	1	1.040125
12.166667	1	1.099125
12.183333	1	1.170625
12.200000	1	1.258500
12.216667	1	1.364250
12.233333	1	1.487875
12.250000	1	1.632625
12.266667	1	1.800250
12.283333	1	1.992000
12.300000	1	2.209000
12.316667	1	2.455500
12.333333	1	2.731625
12.350000	1	3.038375
12.366667	1	3.377875
12.383333	1	3.750750
12.400000	1	4.156125
12.416667	1	4.594000
12.433333	1	5.063000
12.450000	1	5.560500
12.466667	1	6.084375
12.483333	1	6.630250
12.500000	1	7.193500
12.516667	1	7.767000
12.533333	1	8.342375
12.550000	1	8.910500
12.566667	1	9.459000
12.583333	1	9.977500
12.600000	1	10.456750
12.616667	1	10.890250
12.633333	1	11.273625
12.650000	1	11.603750
12.666667	1	11.880875
12.683333	1	12.103250
12.700000	1	12.272000
12.716667	1	12.386625
12.733333	1	12.447375
12.750000	1	12.454250
12.766667	1	12.407125
12.783333	1	12.304125
12.800000	1	12.145750
12.816667	1	11.932625
12.833333	1	11.669125
12.850000	1	11.363125
12.866667	1	11.024125
12.883333	1	10.659375
12.900000	1	10.273625
12.916667	1	9.866125
12.933333	1	9.434375
12.950000	1	8.978000
12.966667	1	8.494875
12.983333	1	7.989250
13.000000	1	7.464750
13.016667	1	6.925500
13.033333	1	6.373500
13.050000	1	5.808750
13.066667	1	5.231500
13.083333	1	4.643750
13.100000	1	4.058750
13.116667	1	3.499875
13.133333	1	2.996375
13.150000	1	2.567250
13.166667	1	2.219875
13.183333	1	1.948125
13.200000	1	1.737500
13.216667	1	1.574375
13.233333	1	1.446250
13.250000	1	1.344375
13.266667	1	1.260625
13.283333	1	1.191000
13.300000	1	1.131750
13.316667	1	1.079875
13.333333	1	1.033875
13.350000	1	0.992625
13.366667	1	0.954625
13.383333	1	0.920500
13.400000	1	0.888875
13.416667	1	0.859750
13.433333	1	0.833000
13.450000	1	0.808250
13.466667	1	0.785250
13.483333	1	0.764000
13.500000	1	0.744500
13.516667	1	0.727125
13.533333	1	0.711000
13.550000	1	0.697500
13.566667	1	0.685375
13.583333	1	0.674875
13.600000	1	0.666625
13.616667	1	0.659375
13.633333	1	0.653875
13.650000	1	0.650500
13.666667	1	0.648375
13.683333	1	0.646625
13.700000	1	0.645125
13.716667	1	0.644250
13.733333	1	0.644250
13.750000	1	0.645625
13.766667	1	0.647375
13.783333	1	0.648375
13.800000	1	0.649250
13.816667	1	0.650250
13.833333	1	0.648875
13.850000	1	0.646625
13.866667	1	0.642125
13.883333	1	0.636750
13.900000	1	0.629875
13.916667	1	0.621000
13.933333	1	0.610625
13.950000	1	0.599625
13.966667	1	0.587250
13.983333	1	0.574625
14.000000	1	0.561625
14.016667	1	0.548625
14.033333	1	0.536625
14.050000	1	0.524500
14.066667	1	0.513750
14.083333	1	0.503500
14.100000	1	0.494250
14.116667	1	0.485875
14.133333	1	0.477625
14.150000	1	0.471375
14.166667	1	0.465625
14.183333	1	0.460500
14.200000	1	0.457000
14.216667	1	0.454375
14.233333	1	0.453625
14.250000	1	0.453375
14.266667	1	0.454500
14.283333	1	0.457250
14.300000	1	0.460750
14.316667	1	0.466250
14.333333	1	0.474000
14.350000	1	0.483625
14.366667	1	0.495125
14.383333	1	0.509875
14.400000	1	0.528500
14.416667	1	0.550125
14.433333	1	0.576125
14.450000	1	0.607750
14.466667	1	0.645750
14.483333	1	0.690250
14.500000	1	0.744500
14.516667	1	0.809875
14.533333	1	0.889000
14.550000	1	0.987000
14.566667	1	1.107500
14.583333	1	1.257250
14.600000	1	1.444500
14.616667	1	1.678500
14.633333	1	1.972000
14.650000	1	2.339000
14.666667	1	2.793250
14.683333	1	3.352750
14.700000	1	4.034250
14.716667	1	4.851125
14.733333	1	5.817125
14.750000	1	6.942000
14.766667	1	8.232375
14.783333	1	9.687500
14.800000	1	11.303750
14.816667	1	13.071125
14.833333	1	14.979625
14.850000	1	17.011625
14.866667	1	19.146500
14.883333	1	21.357750
14.900000	1	23.615125
14.916667	1	25.883875
14.933333	1	28.127125
14.950000	1	30.305000
14.966667	1	32.371875
14.983333	1	34.280000
15.000000	1	35.983875
15.016667	1	37.436125
15.033333	1	38.592500
15.050000	1	39.413125
15.066667	1	39.865375
15.083333	1	39.928750
15.100000	1	39.597000
15.116667	1	38.879125
15.133333	1	37.797500
15.150000	1	36.386875
15.166667	1	34.696250
15.183333	1	32.782250
15.200000	1	30.700125
15.216667	1	28.510000
15.233333	1	26.266250
15.250000	1	24.021000
15.266667	1	21.818125
15.283333	1	19.696500
15.300000	1	17.686375
15.316667	1	15.809250
15.333333	1	14.079000
15.350000	1	12.500625
15.366667	1	11.075625
15.383333	1	9.800125
15.400000	1	8.666625
15.416667	1	7.666000
15.433333	1	6.786000
15.450000	1	6.016125
15.466667	1	5.344875
15.483333	1	4.761875
15.500000	1	4.257125
15.516667	1	3.821875
15.533333	1	3.448125
15.550000	1	3.127000
15.566667	1	2.851500
15.583333	1	2.615625
15.600000	1	2.413125
15.616667	1	2.239375
15.633333	1	2.091000
15.650000	1	1.964875
15.666667	1	1.856750
15.683333	1	1.764375
15.700000	1	1.685000
15.716667	1	1.616000
15.733333	1	1.556750
15.750000	1	1.505000
15.766667	1	1.458875
15.783333	1	1.416625
15.800000	1	1.377250
15.816667	1	1.339625
15.833333	1	1.302250
15.850000	1	1.266375
15.866667	1	1.230000
15.883333	1	1.193625
15.900000	1	1.157750
15.916667	1	1.122250
15.933333	1	1.087250
15.950000	1	1.053375
15.966667	1	1.020250
15.983333	1	0.989000
16.000000	1	0.959500
16.016667	1	0.932250
16.033333	1	0.907500
16.050000	1	0.884875
16.066667	1	0.864625
16.083333	1	0.846875
16.100000	1	0.831125
16.116667	1	0.817875
16.133333	1	0.806250
16.150000	1	0.796375
16.166667	1	0.789875
16.183333	1	0.784625
16.200000	1	0.780875
16.216667	1	0.778750
16.233333	1	0.778375
16.250000	1	0.778625
16.266667	1	0.779750
16.283333	1	0.781625
16.300000	1	0.784000
16.316667	1	0.786375
16.333333	1	0.788375
16.350000	1	0.789750
16.366667	1	0.790375
16.383333	1	0.790375
16.400000	1	0.789250
16.416667	1	0.787375
16.433333	1	0.783750
16.450000	1	0.779500
16.466667	1	0.773625
16.483333	1	0.766875
16.500000	1	0.759625
16.516667	1	0.752375
16.533333	1	0.744625
16.550000	1	0.737125
16.566667	1	0.730000
16.583333	1	0.723375
16.600000	1	0.717375
16.616667	1	0.712625
16.633333	1	0.708375
16.650000	1	0.705250
16.666667	1	0.703125
16.683333	1	0.701750
16.700000	1	0.701250
16.716667	1	0.701625
16.733333	1	0.703000
16.750000	1	0.704375
16.766667	1	0.707125
16.783333	1	0.710000
16.800000	1	0.713125
16.816667	1	0.717000
16.833333	1	0.721250
16.850000	1	0.724625
16.866667	1	0.728125
16.883333	1	0.731625
16.900000	1	0.735000
16.916667	1	0.738625
16.933333	1	0.741250
16.950000	1	0.744125
16.966667	1	0.745625
16.983333	1	0.746625
17.000000	1	0.747750
17.016667	1	0.748625
17.033333	1	0.748625
17.050000	1	0.748375
17.066667	1	0.748250
17.083333	1	0.747500
17.100000	1	0.746375
17.116667	1	0.744625
17.133333	1	0.743625
17.150000	1	0.743000
17.166667	1	0.741375
17.183333	1	0.740000
17.200000	1	0.738875
17.216667	1	0.736500
17.233333	1	0.733625
17.250000	1	0.730750
17.266667	1	0.727250
17.283333	1	0.723375
17.300000	1	0.719125
17.316667	1	0.713125
17.333333	1	0.707750
17.350000	1	0.701625
17.366667	1	0.694250
17.383333	1	0.687250
17.400000	1	0.678875
17.416667	1	0.671000
17.433333	1	0.663875
17.450000	1	0.655500
17.466667	1	0.648250
17.483333	1	0.641625
17.500000	1	0.635625
17.516667	1	0.630500
17.533333	1	0.626000
17.550000	1	0.623000
17.566667	1	0.620875
17.583333	1	0.620250
17.600000	1	0.621250
17.616667	1	0.623250
17.633333	1	0.627125
17.650000	1	0.632375
17.666667	1	0.638875
17.683333	1	0.646250
17.700000	1	0.655375
17.716667	1	0.665750
17.733333	1	0.677125
17.750000	1	0.689500
17.766667	1	0.702750
17.783333	1	0.717250
17.800000	1	0.732125
17.816667	1	0.746875
17.833333	1	0.761375
17.850000	1	0.775750
17.866667	1	0.789875
17.883333	1	0.803750
17.900000	1	0.816125
17.916667	1	0.827500
17.933333	1	0.838000
17.950000	1	0.847125
17.966667	1	0.854250
17.983333	1	0.860000
18.000000	1	0.864250
18.016667	1	0.866625
18.033333	1	0.867000
18.050000	1	0.864875
18.066667	1	0.860875
18.083333	1	0.855375
18.100000	1	0.848750
18.116667	1	0.839750
18.133333	1	0.829500
18.150000	1	0.818125
18.166667	1	0.806750
18.183333	1	0.793250
18.200000	1	0.779250
18.216667	1	0.765250
18.233333	1	0.751250
18.250000	1	0.737000
18.266667	1	0.723250
18.283333	1	0.709250
18.300000	1	0.695625
18.316667	1	0.683250
18.333333	1	0.672250
18.350000	1	0.660875
18.366667	1	0.650125
18.383333	1	0.640625
18.400000	1	0.632125
18.416667	1	0.624500
18.433333	1	0.617000
18.450000	1	0.610625
18.466667	1	0.605625
18.483333	1	0.600625
18.500000	1	0.597000
18.516667	1	0.594375
18.533333	1	0.592250
18.550000	1	0.591000
18.566667	1	0.590250
18.583333	1	0.590000
18.600000	1	0.590375
18.616667	1	0.590375
18.633333	1	0.590875
18.650000	1	0.592500
18.666667	1	0.594125
18.683333	1	0.595875
18.700000	1	0.597375
18.716667	1	0.599750
18.733333	1	0.602500
18.750000	1	0.605000
18.766667	1	0.608250
18.783333	1	0.612000
18.800000	1	0.615750
18.816667	1	0.620125
18.833333	1	0.625375
18.850000	1	0.631125
18.866667	1	0.637750
18.883333	1	0.644750
18.900000	1	0.653000
18.916667	1	0.662750
18.933333	1	0.673375
18.950000	1	0.685375
18.966667	1	0.698875
18.983333	1	0.713875
19.000000	1	0.730375
19.016667	1	0.748875
19.033333	1	0.768500
19.050000	1	0.789500
19.066667	1	0.811875
19.083333	1	0.836250
19.100000	1	0.862625
19.116667	1	0.890125
19.133333	1	0.918750
19.150000	1	0.949000
19.166667	1	0.980625
19.183333	1	1.012375
19.200000	1	1.044500
19.216667	1	1.076500
19.233333	1	1.107625
19.250000	1	1.138250
19.266667	1	1.166500
19.283333	1	1.192750
19.300000	1	1.216750
19.316667	1	1.237750
19.333333	1	1.255250
19.350000	1	1.268000
19.366667	1	1.276875
19.383333	1	1.281875
19.400000	1	1.281875
19.416667	1	1.277750
19.433333	1	1.267875
19.450000	1	1.254125
19.466667	1	1.235875
19.483333	1	1.213125
19.500000	1	1.186125
19.516667	1	1.157000
19.533333	1	1.124625
19.550000	1	1.089875
19.566667	1	1.053750
19.583333	1	1.016750
19.600000	1	0.979375
19.616667	1	0.941625
19.633333	1	0.904625
19.650000	1	0.868875
19.666667	1	0.834625
19.683333	1	0.802500
19.700000	1	0.772875
19.716667	1	0.745750
19.733333	1	0.721125
19.750000	1	0.699625
19.766667	1	0.681625
19.783333	1	0.666750
19.800000	1	0.655375
19.816667	1	0.647125
19.833333	1	0.642500
19.850000	1	0.640375
19.866667	1	0.641375
19.883333	1	0.646250
19.900000	1	0.653375
19.916667	1	0.663750
19.933333	1	0.677125
19.950000	1	0.692250
19.966667	1	0.710000
19.983333	1	0.729625
20.000000	1	0.750750
20.016667	1	0.772625
20.033333	1	0.796125
20.050000	1	0.821375
20.066667	1	0.847875
20.083333	1	0.875750
20.100000	1	0.904125
20.116667	1	0.933875
20.133333	1	0.964750
20.150000	1	0.997625
20.166667	1	1.033500
20.183333	1	1.072125
20.200000	1	1.113500
20.216667	1	1.159000
20.233333	1	1.208875
20.250000	1	1.263750
20.266667	1	1.324125
20.283333	1	1.390500
20.300000	1	1.463250
20.316667	1	1.542250
20.333333	1	1.628500
20.350000	1	1.720750
20.366667	1	1.820125
20.383333	1	1.925750
20.400000	1	2.036875
20.416667	1	2.152750
20.433333	1	2.272875
20.450000	1	2.396750
20.466667	1	2.523000
20.483333	1	2.649875
20.500000	1	2.775250
20.516667	1	2.899125
20.533333	1	3.018500
20.550000	1	3.131250
20.566667	1	3.236375
20.583333	1	3.332125
20.600000	1	3.414750
20.616667	1	3.483625
20.633333	1	3.536125
20.650000	1	3.572875
20.666667	1	3.591375
20.683333	1	3.592125
20.700000	1	3.575375
20.716667	1	3.542000
20.733333	1	3.492875
20.750000	1	3.430000
20.766667	1	3.353625
20.783333	1	3.267500
20.800000	1	3.173625
20.816667	1	3.075000
20.833333	1	2.972750
20.850000	1	2.870500
20.866667	1	2.770125
20.883333	1	2.672375
20.900000	1	2.578625
20.916667	1	2.490500
20.933333	1	2.409125
20.950000	1	2.332875
20.966667	1	2.263375
20.983333	1	2.199250
21.000000	1	2.139625
21.016667	1	2.084375
21.033333	1	2.032125
21.050000	1	1.981625
21.066667	1	1.932250
21.083333	1	1.882750
21.100000	1	1.832625
21.116667	1	1.780500
21.133333	1	1.726375
21.150000	1	1.669375
21.166667	1	1.610125
21.183333	1	1.547875
21.200000	1	1.483625
21.216667	1	1.416875
21.233333	1	1.349500
21.250000	1	1.281875
21.266667	1	1.214125
21.283333	1	1.147125
21.300000	1	1.082125
21.316667	1	1.019250
21.333333	1	0.959375
21.350000	1	0.901625
21.366667	1	0.847250
21.383333	1	0.796375
21.400000	1	0.749375
21.416667	1	0.705250
21.433333	1	0.664625
21.450000	1	0.627500
21.466667	1	0.594500
21.483333	1	0.564375
21.500000	1	0.537250
21.516667	1	0.513500
21.533333	1	0.492125
21.550000	1	0.472250
21.566667	1	0.456125
21.583333	1	0.441125
21.600000	1	0.427750
21.616667	1	0.416625
21.633333	1	0.407250
21.650000	1	0.398500
21.666667	1	0.391125
21.683333	1	0.385250
21.700000	1	0.380625
21.716667	1	0.377125
21.733333	1	0.374625
21.750000	1	0.372750
21.766667	1	0.372500
21.783333	1	0.372625
21.800000	1	0.373875
21.816667	1	0.376375
21.833333	1	0.379625
21.850000	1	0.382875
21.866667	1	0.387750
21.883333	1	0.393250
21.900000	1	0.400000
21.916667	1	0.407375
21.933333	1	0.415625
21.950000	1	0.423875
21.966667	1	0.433000
21.983333	1	0.442500
22.000000	1	0.452125
22.016667	1	0.461625
22.033333	1	0.471250
22.050000	1	0.481500
22.066667	1	0.491250
22.083333	1	0.500500
22.100000	1	0.508750
22.116667	1	0.516000
22.133333	1	0.524000
22.150000	1	0.529250
22.166667	1	0.533000
22.183333	1	0.536625
22.200000	1	0.538375
22.216667	1	0.538750
22.233333	1	0.537500
22.250000	1	0.534625
22.266667	1	0.530500
22.283333	1	0.526250
22.300000	1	0.519500
22.316667	1	0.512625
22.333333	1	0.504625
22.350000	1	0.496375
22.366667	1	0.487500
22.383333	1	0.478250
22.400000	1	0.469375
22.416667	1	0.460500
22.433333	1	0.453250
22.450000	1	0.445625
22.466667	1	0.439500
22.483333	1	0.433250
22.500000	1	0.427750
22.516667	1	0.423250
22.533333	1	0.419875
22.550000	1	0.417250
22.566667	1	0.416000
22.583333	1	0.414250
22.600000	1	0.414000
22.616667	1	0.413625
22.633333	1	0.413375
22.650000	1	0.414250
22.666667	1	0.415625
22.683333	1	0.417375
22.700000	1	0.418500
22.716667	1	0.420125
22.733333	1	0.421625
22.750000	1	0.422750
22.766667	1	0.423750
22.783333	1	0.424625
22.800000	1	0.425625
22.816667	1	0.425750
22.833333	1	0.425750
22.850000	1	0.425750
22.866667	1	0.424625
22.883333	1	0.423625
22.900000	1	0.422125
22.916667	1	0.420250
22.933333	1	0.417875
22.950000	1	0.415500
22.966667	1	0.412000
22.983333	1	0.408375
23.000000	1	0.405000
23.016667	1	0.401500
23.033333	1	0.397500
23.050000	1	0.393500
23.066667	1	0.389875
23.083333	1	0.386000
23.100000	1	0.382250
23.116667	1	0.378500
23.133333	1	0.375375
23.150000	1	0.373250
23.166667	1	0.370375
23.183333	1	0.369250
23.200000	1	0.368000
23.216667	1	0.367750
23.233333	1	0.369000
23.250000	1	0.371000
23.266667	1	0.373750
23.283333	1	0.378250
23.300000	1	0.383875
23.316667	1	0.391250
23.333333	1	0.400000
23.350000	1	0.411250
23.366667	1	0.424375
23.383333	1	0.439625
23.400000	1	0.458125
23.416667	1	0.480250
23.433333	1	0.505375
23.450000	1	0.535750
23.466667	1	0.571125
23.483333	1	0.611625
23.500000	1	0.658375
23.516667	1	0.712750
23.533333	1	0.774625
23.550000	1	0.845500
23.566667	1	0.924875
23.583333	1	1.015125
23.600000	1	1.116000
23.616667	1	1.228375
23.633333	1	1.353000
23.650000	1	1.489625
23.666667	1	1.638875
23.683333	1	1.801250
23.700000	1	1.976000
23.716667	1	2.163125
23.733333	1	2.363375
23.750000	1	2.575000
23.766667	1	2.796625
23.783333	1	3.027875
23.800000	1	3.267625
23.816667	1	3.515125
23.833333	1	3.767000
23.850000	1	4.022250
23.866667	1	4.277000
23.883333	1	4.531000
23.900000	1	4.780875
23.916667	1	5.022875
23.933333	1	5.254000
23.950000	1	5.469875
23.966667	1	5.668125
23.983333	1	5.845500
24.000000	1	5.998625
24.016667	1	6.124875
24.033333	1	6.221750
24.050000	1	6.287250
24.066667	1	6.320875
24.083333	1	6.322000
24.100000	1	6.289875
24.116667	1	6.225500
24.133333	1	6.129625
24.150000	1	6.003625
24.166667	1	5.850625
24.183333	1	5.674500
24.200000	1	5.476750
24.216667	1	5.261250
24.233333	1	5.031750
24.250000	1	4.792250
24.266667	1	4.545625
24.283333	1	4.294875
24.300000	1	4.044125
24.316667	1	3.795375
24.333333	1	3.551125
24.350000	1	3.314000
24.366667	1	3.085750
24.383333	1	2.869375
24.400000	1	2.663875
24.416667	1	2.470875
24.433333	1	2.290875
24.450000	1	2.123750
24.466667	1	1.970125
24.483333	1	1.829625
24.500000	1	1.700375
24.516667	1	1.581625
24.533333	1	1.474375
24.550000	1	1.377875
24.566667	1	1.289750
24.583333	1	1.210000
24.600000	1	1.138000
24.616667	1	1.073000
24.633333	1	1.014375
24.650000	1	0.960500
24.666667	1	0.911875
24.683333	1	0.866500
24.700000	1	0.824500
24.716667	1	0.786000
24.733333	1	0.749875
24.750000	1	0.715500
24.766667	1	0.683750
24.783333	1	0.653500
24.800000	1	0.624875
24.816667	1	0.597625
24.833333	1	0.571875
24.850000	1	0.546625
24.866667	1	0.522625
24.883333	1	0.499750
24.900000	1	0.478000
24.916667	1	0.456625
24.933333	1	0.437000
24.950000	1	0.417500
24.966667	1	0.399250
24.983333	1	0.382000
25.000000	1	0.366125
25.016667	1	0.351125
25.033333	1	0.337500
25.050000	1	0.324500
25.066667	1	0.312750
25.083333	1	0.301625
25.100000	1	0.291000
25.116667	1	0.282125
25.133333	1	0.273500
25.150000	1	0.266000
25.166667	1	0.259375
25.183333	1	0.253875
25.200000	1	0.248625
25.216667	1	0.244000
25.233333	1	0.240375
25.250000	1	0.237375
25.266667	1	0.234625
25.283333	1	0.232625
25.300000	1	0.231625
25.316667	1	0.231000
25.333333	1	0.230000
25.350000	1	0.229750
25.366667	1	0.230125
25.383333	1	0.230375
25.400000	1	0.230875
25.416667	1	0.231625
25.433333	1	0.232375
25.450000	1	0.234125
25.466667	1	0.235750
25.483333	1	0.237750
25.500000	1	0.238750
25.516667	1	0.239875
25.533333	1	0.241125
25.550000	1	0.241875
25.566667	1	0.243000
25.583333	1	0.244250
25.600000	1	0.245375
25.616667	1	0.247000
25.633333	1	0.247375
25.650000	1	0.248000
25.666667	1	0.248375
25.683333	1	0.248875
25.700000	1	0.249125
25.716667	1	0.249375
25.733333	1	0.249125
25.750000	1	0.248375
25.766667	1	0.247875
25.783333	1	0.248000
25.800000	1	0.247500
25.816667	1	0.246750
25.833333	1	0.246250
25.850000	1	0.246000
25.866667	1	0.245125
25.883333	1	0.244625
25.900000	1	0.243875
25.916667	1	0.243125
25.933333	1	0.241875
25.950000	1	0.241125
25.966667	1	0.240375
25.983333	1	0.240500
26.000000	1	0.239500
26.016667	1	0.239000
26.033333	1	0.239125
26.050000	1	0.238875
26.066667	1	0.238750
26.083333	1	0.239500
26.100000	1	0.239250
26.116667	1	0.240000
26.133333	1	0.240375
26.150000	1	0.240375
26.166667	1	0.241125
26.183333	1	0.242625
26.200000	1	0.244125
26.216667	1	0.245750
26.233333	1	0.246750
26.250000	1	0.248625
26.266667	1	0.250625
26.283333	1	0.251875
26.300000	1	0.253375
26.316667	1	0.254625
26.333333	1	0.255500
26.350000	1	0.257500
26.366667	1	0.259000
26.383333	1	0.260375
26.400000	1	0.261750
26.416667	1	0.263125
26.433333	1	0.263625
26.450000	1	0.263750
26.466667	1	0.264000
26.483333	1	0.263750
26.500000	1	0.263375
26.516667	1	0.261875
26.533333	1	0.260375
26.550000	1	0.258375
26.566667	1	0.256250
26.583333	1	0.253500
26.600000	1	0.250250
26.616667	1	0.246375
26.633333	1	0.243250
26.650000	1	0.238875
26.666667	1	0.234250
26.683333	1	0.229500
26.700000	1	0.224250
26.716667	1	0.219375
26.733333	1	0.213375
26.750000	1	0.207750
26.766667	1	0.201250
26.783333	1	0.195625
26.800000	1	0.190375
26.816667	1	0.185125
26.833333	1	0.179625
26.850000	1	0.174125
26.866667	1	0.168875
26.883333	1	0.163875
26.900000	1	0.158375
26.916667	1	0.154000
26.933333	1	0.149625
26.950000	1	0.145875
26.966667	1	0.142875
26.983333	1	0.139875
27.000000	1	0.137375
27.016667	1	0.135125
27.033333	1	0.133375
27.050000	1	0.132625
27.066667	1	0.132125
27.083333	1	0.132125
27.100000	1	0.132625
27.116667	1	0.132750
27.133333	1	0.133500
27.150000	1	0.134750
27.166667	1	0.137125
27.183333	1	0.139500
27.200000	1	0.143125
27.216667	1	0.146875
27.233333	1	0.151750
27.250000	1	0.157500
27.266667	1	0.164125
27.283333	1	0.171250
27.300000	1	0.178500
27.316667	1	0.187250
27.333333	1	0.197000
27.350000	1	0.208000
27.366667	1	0.220875
27.383333	1	0.235625
27.400000	1	0.251125
27.416667	1	0.268625
27.433333	1	0.287875
27.450000	1	0.310000
27.466667	1	0.334250
27.483333	1	0.361375
27.500000	1	0.391750
27.516667	1	0.425500
27.533333	1	0.461625
27.550000	1	0.502375
27.566667	1	0.547250
27.583333	1	0.596625
27.600000	1	0.650625
27.616667	1	0.708875
27.633333	1	0.771750
27.650000	1	0.840500
27.666667	1	0.914125
27.683333	1	0.993625
27.700000	1	1.078125
27.716667	1	1.167375
27.733333	1	1.261625
27.750000	1	1.360875
27.766667	1	1.464500
27.783333	1	1.572125
27.800000	1	1.684125
27.816667	1	1.798250
27.833333	1	1.917000
27.850000	1	2.037125
27.866667	1	2.158875
27.883333	1	2.281625
27.900000	1	2.403875
27.916667	1	2.526000
27.933333	1	2.645375
27.950000	1	2.761875
27.966667	1	2.875125
27.983333	1	2.982125
28.000000	1	3.083375
28.016667	1	3.177250
28.033333	1	3.262625
28.050000	1	3.338875
28.066667	1	3.404625
28.083333	1	3.457750
28.100000	1	3.499500
28.116667	1	3.527375
28.133333	1	3.541875
28.150000	1	3.542375
28.166667	1	3.528750
28.183333	1	3.500875
28.200000	1	3.457625
28.216667	1	3.401250
28.233333	1	3.331500
28.250000	1	3.249125
28.266667	1	3.154500
28.283333	1	3.050000
28.300000	1	2.935375
28.316667	1	2.813000
28.333333	1	2.683875
28.350000	1	2.549000
28.366667	1	2.411250
28.383333	1	2.270750
28.400000	1	2.129500
28.416667	1	1.988000
28.433333	1	1.847625
28.450000	1	1.709500
28.466667	1	1.574375
28.483333	1	1.442750
28.500000	1	1.315125
28.516667	1	1.192750
28.533333	1	1.075000
28.550000	1	0.962250
28.566667	1	0.854750
28.583333	1	0.752625
28.600000	1	0.655125
28.616667	1	0.563625
28.633333	1	0.475875
28.650000	1	0.393125
28.666667	1	0.313875
28.683333	1	0.238625
28.700000	1	0.167125
28.716667	1	0.098750
28.733333	1	0.033625
28.750000	1	-0.028000
28.766667	1	-0.086000
28.783333	1	-0.141625
28.800000	1	-0.194000
28.816667	1	-0.243750
28.833333	1	-0.291125
28.850000	1	-0.336375
28.866667	1	-0.378875
28.883333	1	-0.418125
28.900000	1	-0.454500
28.916667	1	-0.488250
28.933333	1	-0.519125
28.950000	1	-0.547000
28.966667	1	-0.571125
28.983333	1	-0.592125
29.000000	1	-0.609625
29.016667	1	-0.624375
29.033333	1	-0.634875
29.050000	1	-0.642500
29.066667	1	-0.646500
29.083333	1	-0.647625
29.100000	1	-0.644250
29.116667	1	-0.637875
29.133333	1	-0.628125
29.150000	1	-0.616125
29.166667	1	-0.600250
29.183333	1	-0.582250
29.200000	1	-0.560875
29.216667	1	-0.537125
29.233333	1	-0.511625
29.250000	1	-0.483875
29.266667	1	-0.454875
29.283333	1	-0.423875
29.300000	1	-0.392500
29.316667	1	-0.359250
29.333333	1	-0.325125
29.350000	1	-0.290375
29.366667	1	-0.255875
29.383333	1	-0.221375
29.400000	1	-0.186750
29.416667	1	-0.152125
29.433333	1	-0.117625
29.450000	1	-0.084375
29.466667	1	-0.052125
29.483333	1	-0.020375
29.500000	1	0.010125
29.516667	1	0.040000
29.533333	1	0.068375
29.550000	1	0.095875
29.566667	1	0.121125
29.583333	1	0.145875
29.600000	1	0.168750
29.616667	1	0.190625
29.633333	1	0.210750
29.650000	1	0.229750
29.666667	1	0.247125
29.683333	1	0.263625
29.700000	1	0.278375
29.716667	1	0.291750
29.733333	1	0.304500
29.750000	1	0.315500
29.766667	1	0.324750
29.783333	1	0.333875
29.800000	1	0.342125
29.816667	1	0.348500
29.833333	1	0.354875
29.850000	1	0.360000
29.866667	1	0.364875
29.883333	1	0.369000
29.900000	1	0.372500
29.916667	1	0.375375
29.933333	1	0.377625
29.950000	1	0.379625
29.966667	1	0.381250
29.983333	1	0.383375
30.000000	1	0.386125
30.016667	1	0.388500
30.033333	1	0.391500
30.050000	1	0.394750
30.066667	1	0.398875
30.083333	1	0.403125
30.100000	1	0.408375
30.116667	1	0.415000
30.133333	1	0.422250
30.150000	1	0.431000
30.166667	1	0.441750
30.183333	1	0.454125
30.200000	1	0.468000
30.216667	1	0.484625
30.233333	1	0.503000
30.250000	1	0.524000
30.266667	1	0.547500
30.283333	1	0.574375
30.300000	1	0.604250
30.316667	1	0.637750
30.333333	1	0.674625
30.350000	1	0.716250
30.366667	1	0.761000
30.383333	1	0.810750
30.400000	1	0.865125
30.416667	1	0.924250
30.433333	1	0.988125
30.450000	1	1.057500
30.466667	1	1.131625
30.483333	1	1.211000
30.500000	1	1.295500
30.516667	1	1.385750
30.533333	1	1.480875
30.550000	1	1.580375
30.566667	1	1.684750
30.583333	1	1.792875
30.600000	1	1.905500
30.616667	1	2.021625
30.633333	1	2.140375
30.650000	1	2.261875
30.666667	1	2.385125
30.683333	1	2.508250
30.700000	1	2.631625
30.716667	1	2.753375
30.733333	1	2.873625
30.750000	1	2.990125
30.766667	1	3.103125
30.783333	1	3.210500
30.800000	1	3.312875
30.816667	1	3.407500
30.833333	1	3.493750
30.850000	1	3.571000
30.866667	1	3.637125
30.883333	1	3.692375
30.900000	1	3.736750
30.916667	1	3.769500
30.933333	1	3.789000
30.950000	1	3.796250
30.966667	1	3.790750
30.983333	1	3.772000
31.000000	1	3.741250
31.016667	1	3.697250
31.033333	1	3.642375
31.050000	1	3.577000
31.066667	1	3.501000
31.083333	1	3.415125
31.100000	1	3.321375
31.116667	1	3.219875
31.133333	1	3.112500
31.150000	1	2.999875
31.166667	1	2.883500
31.183333	1	2.763500
31.200000	1	2.641625
31.216667	1	2.518875
31.233333	1	2.395500
31.250000	1	2.272250
31.266667	1	2.151250
31.283333	1	2.032125
31.300000	1	1.915875
31.316667	1	1.803250
31.333333	1	1.695000
31.350000	1	1.591500
31.366667	1	1.491125
31.383333	1	1.396250
31.400000	1	1.305750
31.416667	1	1.219875
31.433333	1	1.138875
31.450000	1	1.062500
31.466667	1	0.990750
31.483333	1	0.924000
31.500000	1	0.862125
31.516667	1	0.804125
31.533333	1	0.750875
31.550000	1	0.701125
31.566667	1	0.655500
31.583333	1	0.613000
31.600000	1	0.574375
31.616667	1	0.538750
31.633333	1	0.505500
31.650000	1	0.475000
31.666667	1	0.447750
31.683333	1	0.423250
31.700000	1	0.400625
31.716667	1	0.380125
31.733333	1	0.360750
31.750000	1	0.343000
31.766667	1	0.327625
31.783333	1	0.314125
31.800000	1	0.301250
31.816667	1	0.290000
31.833333	1	0.280125
31.850000	1	0.270625
31.866667	1	0.261875
31.883333	1	0.254875
31.900000	1	0.248000
31.916667	1	0.242125
31.933333	1	0.236625
31.950000	1	0.232125
31.966667	1	0.228125
31.983333	1	0.224500
32.000000	1	0.221125
32.016667	1	0.218000
32.033333	1	0.215375
32.050000	1	0.212500
32.066667	1	0.210500
32.083333	1	0.207750
32.100000	1	0.205000
32.116667	1	0.202250
32.133333	1	0.199000
32.150000	1	0.195875
32.166667	1	0.193125
32.183333	1	0.189375
32.200000	1	0.186000
32.216667	1	0.182750
32.233333	1	0.178625
32.250000	1	0.174000
32.266667	1	0.169500
32.283333	1	0.164375
32.300000	1	0.159500
32.316667	1	0.153750
32.333333	1	0.147875
32.350000	1	0.142125
32.366667	1	0.135750
32.383333	1	0.129750
32.400000	1	0.123500
32.416667	1	0.117500
32.433333	1	0.111000
32.450000	1	0.104000
32.466667	1	0.097125
32.483333	1	0.090125
32.500000	1	0.083750
32.516667	1	0.077500
32.533333	1	0.071625
32.550000	1	0.065875
32.566667	1	0.060250
32.583333	1	0.055125
32.600000	1	0.049750
32.616667	1	0.044625
32.633333	1	0.039375
32.650000	1	0.034625
32.666667	1	0.030000
32.683333	1	0.025375
32.700000	1	0.021000
32.716667	1	0.017500
32.733333	1	0.014125
32.750000	1	0.011125
32.766667	1	0.008875
32.783333	1	0.006125
32.800000	1	0.003375
32.816667	1	0.001000
32.833333	1	-0.001250
32.850000	1	-0.003125
32.866667	1	-0.005000
32.883333	1	-0.007500
32.900000	1	-0.009000
32.916667	1	-0.010125
32.933333	1	-0.011375
32.950000	1	-0.013000
32.966667	1	-0.014000
32.983333	1	-0.015500
33.000000	1	-0.016750
33.016667	1	-0.018000
33.033333	1	-0.019750
33.050000	1	-0.021000
33.066667	1	-0.022875
33.083333	1	-0.024125
33.100000	1	-0.025500
33.116667	1	-0.027000
33.133333	1	-0.028500
33.150000	1	-0.029500
33.166667	1	-0.030250
33.183333	1	-0.031250
33.200000	1	-0.033875
33.216667	1	-0.036125
33.233333	1	-0.037750
33.250000	1	-0.039250
33.266667	1	-0.041125
33.283333	1	-0.043000
33.300000	1	-0.044250
33.316667	1	-0.046125
33.333333	1	-0.047375
33.350000	1	-0.048625
33.366667	1	-0.049750
33.383333	1	-0.051375
33.400000	1	-0.052750
33.416667	1	-0.053750
33.433333	1	-0.055750
33.450000	1	-0.057500
33.466667	1	-0.058750
33.483333	1	-0.060375
33.500000	1	-0.061500
33.516667	1	-0.063000
33.533333	1	-0.064125
33.550000	1	-0.065625
33.566667	1	-0.066750
33.583333	1	-0.067875
33.600000	1	-0.069000
33.616667	1	-0.069875
33.633333	1	-0.070375
33.650000	1	-0.070625
33.666667	1	-0.071250
33.683333	1	-0.072000
33.700000	1	-0.072875
33.716667	1	-0.073500
33.733333	1	-0.074250
33.750000	1	-0.074500
33.766667	1	-0.075125
33.783333	1	-0.074375
33.800000	1	-0.074375
33.816667	1	-0.074500
33.833333	1	-0.075000
33.850000	1	-0.074750
33.866667	1	-0.074875
33.883333	1	-0.075125
33.900000	1	-0.075000
33.916667	1	-0.073875
33.933333	1	-0.073750
33.950000	1	-0.073125
33.966667	1	-0.072000
33.983333	1	-0.071125
34.000000	1	-0.070500
34.016667	1	-0.070250
34.033333	1	-0.069250
34.050000	1	-0.068500
34.066667	1	-0.067500
34.083333	1	-0.066250
34.100000	1	-0.065125
34.116667	1	-0.063625
34.133333	1	-0.062500
34.150000	1	-0.061250
34.166667	1	-0.059000
34.183333	1	-0.057250
34.200000	1	-0.055625
34.216667	1	-0.053750
34.233333	1	-0.052500
34.250000	1	-0.051125
34.266667	1	-0.049625
34.283333	1	-0.047875
34.300000	1	-0.046250
34.316667	1	-0.044500
34.333333	1	-0.042000
34.350000	1	-0.040375
34.366667	1	-0.038125
34.383333	1	-0.035750
34.400000	1	-0.033875
34.416667	1	-0.031875
34.433333	1	-0.030000
34.450000	1	-0.028125
34.466667	1	-0.026500
34.483333	1	-0.024875
34.500000	1	-0.023250
34.516667	1	-0.021625
34.533333	1	-0.019500
34.550000	1	-0.017000
34.566667	1	-0.015375
34.583333	1	-0.013875
34.600000	1	-0.012750
34.616667	1	-0.011750
34.633333	1	-0.010250
34.650000	1	-0.008625
34.666667	1	-0.008000
34.683333	1	-0.007375
34.700000	1	-0.006250
34.716667	1	-0.004625
34.733333	1	-0.004625
34.750000	1	-0.003875
34.766667	1	-0.002500
34.783333	1	-0.002000
34.800000	1	-0.001875
34.816667	1	-0.001375
34.833333	1	-0.000625
34.850000	1	0.000500
34.866667	1	0.000875
34.883333	1	0.001625
34.900000	1	0.002500
34.916667	1	0.003750
34.933333	1	0.004875
34.950000	1	0.006375
34.966667	1	0.008625
34.983333	1	0.009875
35.000000	1	0.011000
35.016667	1	0.011750
35.033333	1	0.013125
35.050000	1	0.015000
35.066667	1	0.016250
35.083333	1	0.017875
35.100000	1	0.019625
35.116667	1	0.021750
35.133333	1	0.023250
35.150000	1	0.025375
35.166667	1	0.027500
35.183333	1	0.029375
35.200000	1	0.031500
35.216667	1	0.034250
35.233333	1	0.037125
35.250000	1	0.039625
35.266667	1	0.042250
35.283333	1	0.045250
35.300000	1	0.047750
35.316667	1	0.050250
35.333333	1	0.052625
35.350000	1	0.055250
35.366667	1	0.057875
35.383333	1	0.060500
35.400000	1	0.062875
35.416667	1	0.065375
35.433333	1	0.067125
35.450000	1	0.070000
35.466667	1	0.071625
35.483333	1	0.073500
35.500000	1	0.075125
35.516667	1	0.077500
35.533333	1	0.079250
35.550000	1	0.080750
35.566667	1	0.082375
35.583333	1	0.083250
35.600000	1	0.084625
35.616667	1	0.085500
35.633333	1	0.086750
35.650000	1	0.087625
35.666667	1	0.088750
35.683333	1	0.089500
35.700000	1	0.090875
35.716667	1	0.091000
35.733333	1	0.091500
35.750000	1	0.091875
35.766667	1	0.091500
35.783333	1	0.091375
35.800000	1	0.091375
35.816667	1	0.091875
35.833333	1	0.091875
35.850000	1	0.091375
35.866667	1	0.090500
35.883333	1	0.090250
35.900000	1	0.090000
35.916667	1	0.089750
35.933333	1	0.089625
35.950000	1	0.089250
35.966667	1	0.089125
35.983333	1	0.088500
36.000000	1	0.087125
36.016667	1	0.086250
36.033333	1	0.085500
36.050000	1	0.084875
36.066667	1	0.084125
36.083333	1	0.083500
36.100000	1	0.082750
36.116667	1	0.082250
36.133333	1	0.081375
36.150000	1	0.080250
36.166667	1	0.079250
36.183333	1	0.077875
36.200000	1	0.076500
36.216667	1	0.075500
36.233333	1	0.074375
36.250000	1	0.073125
36.266667	1	0.071625
36.283333	1	0.070625
36.300000	1	0.069375
36.316667	1	0.068125
36.333333	1	0.067000
36.350000	1	0.065750
36.366667	1	0.064500
36.383333	1	0.062875
36.400000	1	0.061500
36.416667	1	0.060625
36.433333	1	0.059000
36.450000	1	0.058000
36.466667	1	0.056625
36.483333	1	0.055250
36.500000	1	0.054500
36.516667	1	0.053375
36.533333	1	0.052375
36.550000	1	0.051125
36.566667	1	0.050000
36.583333	1	0.049250
36.600000	1	0.048250
36.616667	1	0.046500
36.633333	1	0.044875
36.650000	1	0.043875
36.666667	1	0.042250
36.683333	1	0.040750
36.700000	1	0.039750
36.716667	1	0.038125
36.733333	1	0.036500
36.750000	1	0.034625
36.766667	1	0.032875
36.783333	1	0.031375
36.800000	1	0.029375
36.816667	1	0.027500
36.833333	1	0.025500
36.850000	1	0.023000
36.866667	1	0.021750
36.883333	1	0.019625
36.900000	1	0.017750
36.916667	1	0.015625
36.933333	1	0.012625
36.950000	1	0.009875
36.966667	1	0.006625
36.983333	1	0.003875
37.000000	1	0.000875
37.016667	1	-0.001250
37.033333	1	-0.003750
37.050000	1	-0.007125
37.066667	1	-0.010500
37.083333	1	-0.013125
37.100000	1	-0.016125
37.116667	1	-0.019250
37.133333	1	-0.022500
37.150000	1	-0.025125
37.166667	1	-0.027500
37.183333	1	-0.030625
37.200000	1	-0.034000
37.216667	1	-0.036625
37.233333	1	-0.039125
37.250000	1	-0.042250
37.266667	1	-0.045125
37.283333	1	-0.047125
37.300000	1	-0.049625
37.316667	1	-0.051875
37.333333	1	-0.054250
37.350000	1	-0.056750
37.366667	1	-0.059125
37.383333	1	-0.061125
37.400000	1	-0.062750
37.416667	1	-0.064250
37.433333	1	-0.065875
37.450000	1	-0.067750
37.466667	1	-0.068875
37.483333	1	-0.070000
37.500000	1	-0.071375
37.516667	1	-0.072000
37.533333	1	-0.072875
37.550000	1	-0.074000
37.566667	1	-0.074625
37.583333	1	-0.074500
37.600000	1	-0.074750
37.616667	1	-0.074750
37.633333	1	-0.074750
37.650000	1	-0.074625
37.666667	1	-0.074750
37.683333	1	-0.074625
37.700000	1	-0.074875
37.716667	1	-0.074500
37.733333	1	-0.073250
37.750000	1	-0.072625
37.766667	1	-0.072375
37.783333	1	-0.072000
37.800000	1	-0.071500
37.816667	1	-0.070500
37.833333	1	-0.069125
37.850000	1	-0.068125
37.866667	1	-0.067875
37.883333	1	-0.066875
37.900000	1	-0.066500
37.916667	1	-0.065375
37.933333	1	-0.064125
37.950000	1	-0.063625
37.966667	1	-0.062750
37.983333	1	-0.061625
38.000000	1	-0.060875
38.016667	1	-0.059625
38.033333	1	-0.058125
38.050000	1	-0.057500
38.066667	1	-0.056750
38.083333	1	-0.055500
38.100000	1	-0.054125
38.116667	1	-0.053000
38.133333	1	-0.051625
38.150000	1	-0.051000
38.166667	1	-0.050125
38.183333	1	-0.048000
38.200000	1	-0.047500
38.216667	1	-0.046875
38.233333	1	-0.046750
38.250000	1	-0.046250
38.266667	1	-0.045125
38.283333	1	-0.044500
38.300000	1	-0.043625
38.316667	1	-0.042125
38.333333	1	-0.041625
38.350000	1	-0.041375
38.366667	1	-0.040500
38.383333	1	-0.040625
38.400000	1	-0.040125
38.416667	1	-0.040000
38.433333	1	-0.040375
38.450000	1	-0.039500
38.466667	1	-0.040125
38.483333	1	-0.039750
38.500000	1	-0.039500
38.516667	1	-0.039500
38.533333	1	-0.039750
38.550000	1	-0.040375
38.566667	1	-0.041625
38.583333	1	-0.042125
38.600000	1	-0.042625
38.616667	1	-0.042875
38.633333	1	-0.043250
38.650000	1	-0.044125
38.666667	1	-0.044625
38.683333	1	-0.045625
38.700000	1	-0.046125
38.716667	1	-0.047625
38.733333	1	-0.048875
38.750000	1	-0.050500
38.766667	1	-0.052250
38.783333	1	-0.053000
38.800000	1	-0.054000
38.816667	1	-0.055125
38.833333	1	-0.056875
38.850000	1	-0.058375
38.866667	1	-0.059750
38.883333	1	-0.060250
38.900000	1	-0.061250
38.916667	1	-0.062000
38.933333	1	-0.063375
38.950000	1	-0.065125
38.966667	1	-0.066750
38.983333	1	-0.067375
39.000000	1	-0.068500
39.016667	1	-0.071125
39.033333	1	-0.072875
39.050000	1	-0.074625
39.066667	1	-0.075375
39.083333	1	-0.076500
39.100000	1	-0.077625
39.116667	1	-0.079125
39.133333	1	-0.080375
39.150000	1	-0.081375
39.166667	1	-0.082250
39.183333	1	-0.082625
39.200000	1	-0.083750
39.216667	1	-0.084625
39.233333	1	-0.085500
39.250000	1	-0.086000
39.266667	1	-0.086000
39.283333	1	-0.086125
39.300000	1	-0.086500
39.316667	1	-0.087125
39.333333	1	-0.087625
39.350000	1	-0.087250
39.366667	1	-0.088125
39.383333	1	-0.088000
39.400000	1	-0.087750
39.416667	1	-0.088250
39.433333	1	-0.088625
39.450000	1	-0.089250
39.466667	1	-0.089250
39.483333	1	-0.088875
39.500000	1	-0.088250
39.516667	1	-0.087875
39.533333	1	-0.087500
39.550000	1	-0.087750
39.566667	1	-0.088000
39.583333	1	-0.088125
39.600000	1	-0.088000
39.616667	1	-0.087000
39.633333	1	-0.086000
39.650000	1	-0.085250
39.666667	1	-0.083875
39.683333	1	-0.083375
39.700000	1	-0.082500
39.716667	1	-0.081500
39.733333	1	-0.080250
39.750000	1	-0.079375
39.766667	1	-0.078125
39.783333	1	-0.075750
39.800000	1	-0.073875
39.816667	1	-0.072625
39.833333	1	-0.070875
39.850000	1	-0.068375
39.866667	1	-0.066000
39.883333	1	-0.063625
39.900000	1	-0.062000
39.916667	1	-0.060000
39.933333	1	-0.057750
39.950000	1	-0.055500
39.966667	1	-0.053500
39.983333	1	-0.051250
40.000000	1	-0.048625
