File Path	chrom://990-75db15j/XVault/Ultimate_3000/1256/20230531_CMO_stabTest _FP08_FP09.seq/527.smp/RI_1.channel/RI_1.chm
Channel	RI_1

Injection Information:
Data Vault	XVault
Injection	FP08_6_s2
Injection Number	33
Position	BD11
Comment	
Processing Method	
Instrument Method	run_25B_method
Type	Unknown
Status	Finished
Injection Date	02.06.2023
Injection Time	10:35:52
Injection Volume (µl)	20.000
Dilution Factor	1.0000
Weight	1.0000

Chromatogram Data Information:
Time Min. (min)	0.000000
Time Max. (min)	40.000000
Data Points	2401
Detector	RI
Generating Data System	Chromeleon 7.2.5.9507
Exporting Data System	Chromeleon 7.2.5.0
Operator	Instrument Controller
Signal Quantity	Refractive 
Signal Unit	µRIU
Signal Min.	-0.484625
Signal Max.	58.704250
Channel	RI_1
Driver Name	RID520Driver.dll
Channel Type	Evaluation
Min. Step (s)	1
Max. Step (s)	1
Average Step (s)	1

Signal Parameter Information:
Signal Info	

Chromatogram Data:
Time (min)	Step (s)	Value (µRIU)
0.000000	n.a.	-0.036500
0.016667	1	-0.038125
0.033333	1	-0.039250
0.050000	1	-0.039875
0.066667	1	-0.041125
0.083333	1	-0.042750
0.100000	1	-0.044125
0.116667	1	-0.045125
0.133333	1	-0.046500
0.150000	1	-0.047125
0.166667	1	-0.047750
0.183333	1	-0.048250
0.200000	1	-0.049000
0.216667	1	-0.049500
0.233333	1	-0.049625
0.250000	1	-0.050375
0.266667	1	-0.051250
0.283333	1	-0.053000
0.300000	1	-0.056125
0.316667	1	-0.059625
0.333333	1	-0.062000
0.350000	1	-0.060625
0.366667	1	-0.057375
0.383333	1	-0.053125
0.400000	1	-0.049625
0.416667	1	-0.046625
0.433333	1	-0.044125
0.450000	1	-0.041625
0.466667	1	-0.040625
0.483333	1	-0.041125
0.500000	1	-0.043375
0.516667	1	-0.045750
0.533333	1	-0.047750
0.550000	1	-0.050000
0.566667	1	-0.051750
0.583333	1	-0.053250
0.600000	1	-0.054125
0.616667	1	-0.055500
0.633333	1	-0.057000
0.650000	1	-0.057375
0.666667	1	-0.058000
0.683333	1	-0.058750
0.700000	1	-0.059250
0.716667	1	-0.059875
0.733333	1	-0.060375
0.750000	1	-0.060375
0.766667	1	-0.060750
0.783333	1	-0.060750
0.800000	1	-0.061125
0.816667	1	-0.060875
0.833333	1	-0.059875
0.850000	1	-0.059125
0.866667	1	-0.058625
0.883333	1	-0.058500
0.900000	1	-0.058375
0.916667	1	-0.057875
0.933333	1	-0.057375
0.950000	1	-0.056750
0.966667	1	-0.055875
0.983333	1	-0.055375
1.000000	1	-0.054375
1.016667	1	-0.053000
1.033333	1	-0.052375
1.050000	1	-0.052375
1.066667	1	-0.051750
1.083333	1	-0.050875
1.100000	1	-0.049750
1.116667	1	-0.049750
1.133333	1	-0.048875
1.150000	1	-0.049125
1.166667	1	-0.049000
1.183333	1	-0.048625
1.200000	1	-0.048250
1.216667	1	-0.047250
1.233333	1	-0.046250
1.250000	1	-0.045500
1.266667	1	-0.045375
1.283333	1	-0.044625
1.300000	1	-0.044000
1.316667	1	-0.043625
1.333333	1	-0.043250
1.350000	1	-0.042750
1.366667	1	-0.043000
1.383333	1	-0.042250
1.400000	1	-0.041750
1.416667	1	-0.042000
1.433333	1	-0.041250
1.450000	1	-0.040625
1.466667	1	-0.040000
1.483333	1	-0.039875
1.500000	1	-0.039500
1.516667	1	-0.039250
1.533333	1	-0.039000
1.550000	1	-0.039250
1.566667	1	-0.039125
1.583333	1	-0.038750
1.600000	1	-0.038250
1.616667	1	-0.038000
1.633333	1	-0.037750
1.650000	1	-0.037375
1.666667	1	-0.037625
1.683333	1	-0.037500
1.700000	1	-0.037250
1.716667	1	-0.037000
1.733333	1	-0.037375
1.750000	1	-0.037750
1.766667	1	-0.038125
1.783333	1	-0.038125
1.800000	1	-0.037875
1.816667	1	-0.038125
1.833333	1	-0.038375
1.850000	1	-0.039000
1.866667	1	-0.040000
1.883333	1	-0.040125
1.900000	1	-0.040250
1.916667	1	-0.040875
1.933333	1	-0.041250
1.950000	1	-0.042000
1.966667	1	-0.042375
1.983333	1	-0.042500
2.000000	1	-0.043375
2.016667	1	-0.043750
2.033333	1	-0.044375
2.050000	1	-0.044750
2.066667	1	-0.044875
2.083333	1	-0.045375
2.100000	1	-0.046000
2.116667	1	-0.045875
2.133333	1	-0.046125
2.150000	1	-0.046125
2.166667	1	-0.046000
2.183333	1	-0.045875
2.200000	1	-0.045375
2.216667	1	-0.045625
2.233333	1	-0.045500
2.250000	1	-0.045250
2.266667	1	-0.044250
2.283333	1	-0.044000
2.300000	1	-0.043875
2.316667	1	-0.044125
2.333333	1	-0.043875
2.350000	1	-0.043500
2.366667	1	-0.043125
2.383333	1	-0.043625
2.400000	1	-0.043000
2.416667	1	-0.042500
2.433333	1	-0.041500
2.450000	1	-0.041500
2.466667	1	-0.040625
2.483333	1	-0.040125
2.500000	1	-0.039750
2.516667	1	-0.039125
2.533333	1	-0.038250
2.550000	1	-0.038375
2.566667	1	-0.037750
2.583333	1	-0.036875
2.600000	1	-0.036125
2.616667	1	-0.035750
2.633333	1	-0.034875
2.650000	1	-0.033875
2.666667	1	-0.033750
2.683333	1	-0.033125
2.700000	1	-0.032625
2.716667	1	-0.032000
2.733333	1	-0.031375
2.750000	1	-0.030875
2.766667	1	-0.030125
2.783333	1	-0.029500
2.800000	1	-0.028500
2.816667	1	-0.028000
2.833333	1	-0.027000
2.850000	1	-0.026125
2.866667	1	-0.025625
2.883333	1	-0.025375
2.900000	1	-0.025000
2.916667	1	-0.024875
2.933333	1	-0.024625
2.950000	1	-0.024625
2.966667	1	-0.025000
2.983333	1	-0.025125
3.000000	1	-0.025500
3.016667	1	-0.025875
3.033333	1	-0.025875
3.050000	1	-0.026500
3.066667	1	-0.027125
3.083333	1	-0.027625
3.100000	1	-0.028125
3.116667	1	-0.027875
3.133333	1	-0.028500
3.150000	1	-0.029250
3.166667	1	-0.029875
3.183333	1	-0.030625
3.200000	1	-0.032125
3.216667	1	-0.033125
3.233333	1	-0.033875
3.250000	1	-0.035250
3.266667	1	-0.036125
3.283333	1	-0.037125
3.300000	1	-0.037375
3.316667	1	-0.037125
3.333333	1	-0.038000
3.350000	1	-0.038625
3.366667	1	-0.038875
3.383333	1	-0.039500
3.400000	1	-0.039500
3.416667	1	-0.040000
3.433333	1	-0.039875
3.450000	1	-0.040750
3.466667	1	-0.041125
3.483333	1	-0.041625
3.500000	1	-0.042500
3.516667	1	-0.042625
3.533333	1	-0.043000
3.550000	1	-0.043375
3.566667	1	-0.043625
3.583333	1	-0.044125
3.600000	1	-0.044625
3.616667	1	-0.045500
3.633333	1	-0.045750
3.650000	1	-0.046250
3.666667	1	-0.047125
3.683333	1	-0.047625
3.700000	1	-0.048000
3.716667	1	-0.048000
3.733333	1	-0.049125
3.750000	1	-0.049750
3.766667	1	-0.050500
3.783333	1	-0.050750
3.800000	1	-0.051250
3.816667	1	-0.051500
3.833333	1	-0.052125
3.850000	1	-0.053125
3.866667	1	-0.053375
3.883333	1	-0.054250
3.900000	1	-0.054750
3.916667	1	-0.055250
3.933333	1	-0.055750
3.950000	1	-0.056875
3.966667	1	-0.057500
3.983333	1	-0.058000
4.000000	1	-0.058125
4.016667	1	-0.058500
4.033333	1	-0.059125
4.050000	1	-0.059750
4.066667	1	-0.060000
4.083333	1	-0.060875
4.100000	1	-0.061250
4.116667	1	-0.061375
4.133333	1	-0.061250
4.150000	1	-0.061125
4.166667	1	-0.061000
4.183333	1	-0.061000
4.200000	1	-0.061250
4.216667	1	-0.061750
4.233333	1	-0.061875
4.250000	1	-0.062250
4.266667	1	-0.062375
4.283333	1	-0.062625
4.300000	1	-0.063000
4.316667	1	-0.063500
4.333333	1	-0.063625
4.350000	1	-0.064250
4.366667	1	-0.064250
4.383333	1	-0.064500
4.400000	1	-0.064750
4.416667	1	-0.064625
4.433333	1	-0.064500
4.450000	1	-0.064000
4.466667	1	-0.063625
4.483333	1	-0.063375
4.500000	1	-0.062250
4.516667	1	-0.061500
4.533333	1	-0.060750
4.550000	1	-0.059125
4.566667	1	-0.058250
4.583333	1	-0.056500
4.600000	1	-0.054500
4.616667	1	-0.052625
4.633333	1	-0.051250
4.650000	1	-0.049500
4.666667	1	-0.047625
4.683333	1	-0.045375
4.700000	1	-0.043625
4.716667	1	-0.041625
4.733333	1	-0.039125
4.750000	1	-0.036375
4.766667	1	-0.033875
4.783333	1	-0.031625
4.800000	1	-0.029750
4.816667	1	-0.027625
4.833333	1	-0.024750
4.850000	1	-0.022875
4.866667	1	-0.020125
4.883333	1	-0.017375
4.900000	1	-0.015125
4.916667	1	-0.012250
4.933333	1	-0.010000
4.950000	1	-0.007500
4.966667	1	-0.004375
4.983333	1	-0.001875
5.000000	1	0.000625
5.016667	1	0.003625
5.033333	1	0.005500
5.050000	1	0.008125
5.066667	1	0.010875
5.083333	1	0.014250
5.100000	1	0.017250
5.116667	1	0.020125
5.133333	1	0.023375
5.150000	1	0.025625
5.166667	1	0.028875
5.183333	1	0.031875
5.200000	1	0.035125
5.216667	1	0.038250
5.233333	1	0.040875
5.250000	1	0.044000
5.266667	1	0.047000
5.283333	1	0.049375
5.300000	1	0.051375
5.316667	1	0.053375
5.333333	1	0.056375
5.350000	1	0.058500
5.366667	1	0.061250
5.383333	1	0.062875
5.400000	1	0.065250
5.416667	1	0.066625
5.433333	1	0.068000
5.450000	1	0.069125
5.466667	1	0.070125
5.483333	1	0.071125
5.500000	1	0.071250
5.516667	1	0.072125
5.533333	1	0.072125
5.550000	1	0.072125
5.566667	1	0.071875
5.583333	1	0.072250
5.600000	1	0.072125
5.616667	1	0.071625
5.633333	1	0.071125
5.650000	1	0.069875
5.666667	1	0.069000
5.683333	1	0.068125
5.700000	1	0.066875
5.716667	1	0.066125
5.733333	1	0.064875
5.750000	1	0.063375
5.766667	1	0.062625
5.783333	1	0.061625
5.800000	1	0.059500
5.816667	1	0.057875
5.833333	1	0.056500
5.850000	1	0.054625
5.866667	1	0.052625
5.883333	1	0.051000
5.900000	1	0.049625
5.916667	1	0.047875
5.933333	1	0.046000
5.950000	1	0.044625
5.966667	1	0.043375
5.983333	1	0.042500
6.000000	1	0.040625
6.016667	1	0.039250
6.033333	1	0.038500
6.050000	1	0.037375
6.066667	1	0.036125
6.083333	1	0.035250
6.100000	1	0.034375
6.116667	1	0.032875
6.133333	1	0.032250
6.150000	1	0.032125
6.166667	1	0.031875
6.183333	1	0.031625
6.200000	1	0.031500
6.216667	1	0.031250
6.233333	1	0.031500
6.250000	1	0.031375
6.266667	1	0.031750
6.283333	1	0.031375
6.300000	1	0.032250
6.316667	1	0.032875
6.333333	1	0.033125
6.350000	1	0.034250
6.366667	1	0.035375
6.383333	1	0.036375
6.400000	1	0.037375
6.416667	1	0.038625
6.433333	1	0.039500
6.450000	1	0.041000
6.466667	1	0.042125
6.483333	1	0.043625
6.500000	1	0.045000
6.516667	1	0.047125
6.533333	1	0.049125
6.550000	1	0.051375
6.566667	1	0.053375
6.583333	1	0.055250
6.600000	1	0.056750
6.616667	1	0.059125
6.633333	1	0.061125
6.650000	1	0.062625
6.666667	1	0.064375
6.683333	1	0.067000
6.700000	1	0.069500
6.716667	1	0.070875
6.733333	1	0.072750
6.750000	1	0.074500
6.766667	1	0.076625
6.783333	1	0.077500
6.800000	1	0.078375
6.816667	1	0.079125
6.833333	1	0.079875
6.850000	1	0.080000
6.866667	1	0.080250
6.883333	1	0.080375
6.900000	1	0.080375
6.916667	1	0.080000
6.933333	1	0.079750
6.950000	1	0.078750
6.966667	1	0.078000
6.983333	1	0.077000
7.000000	1	0.075625
7.016667	1	0.073750
7.033333	1	0.071500
7.050000	1	0.068875
7.066667	1	0.067125
7.083333	1	0.065500
7.100000	1	0.063125
7.116667	1	0.061000
7.133333	1	0.057750
7.150000	1	0.055375
7.166667	1	0.053000
7.183333	1	0.050750
7.200000	1	0.047250
7.216667	1	0.044250
7.233333	1	0.041000
7.250000	1	0.037625
7.266667	1	0.034875
7.283333	1	0.031250
7.300000	1	0.027875
7.316667	1	0.024750
7.333333	1	0.021750
7.350000	1	0.019000
7.366667	1	0.015625
7.383333	1	0.012250
7.400000	1	0.009000
7.416667	1	0.005500
7.433333	1	0.002125
7.450000	1	-0.000250
7.466667	1	-0.003000
7.483333	1	-0.006250
7.500000	1	-0.008750
7.516667	1	-0.011250
7.533333	1	-0.013875
7.550000	1	-0.016625
7.566667	1	-0.018125
7.583333	1	-0.021000
7.600000	1	-0.023500
7.616667	1	-0.025375
7.633333	1	-0.027250
7.650000	1	-0.029250
7.666667	1	-0.030875
7.683333	1	-0.032875
7.700000	1	-0.034625
7.716667	1	-0.035875
7.733333	1	-0.037250
7.750000	1	-0.038750
7.766667	1	-0.039875
7.783333	1	-0.041375
7.800000	1	-0.042875
7.816667	1	-0.044250
7.833333	1	-0.045000
7.850000	1	-0.046250
7.866667	1	-0.048000
7.883333	1	-0.048500
7.900000	1	-0.049000
7.916667	1	-0.049000
7.933333	1	-0.049500
7.950000	1	-0.050250
7.966667	1	-0.050125
7.983333	1	-0.050125
8.000000	1	-0.050125
8.016667	1	-0.050000
8.033333	1	-0.050625
8.050000	1	-0.050250
8.066667	1	-0.049625
8.083333	1	-0.048875
8.100000	1	-0.048250
8.116667	1	-0.046750
8.133333	1	-0.045500
8.150000	1	-0.043750
8.166667	1	-0.042625
8.183333	1	-0.041375
8.200000	1	-0.039500
8.216667	1	-0.038125
8.233333	1	-0.035750
8.250000	1	-0.033625
8.266667	1	-0.031000
8.283333	1	-0.029000
8.300000	1	-0.026500
8.316667	1	-0.024625
8.333333	1	-0.021125
8.350000	1	-0.018500
8.366667	1	-0.016125
8.383333	1	-0.013000
8.400000	1	-0.009750
8.416667	1	-0.007000
8.433333	1	-0.004000
8.450000	1	-0.000875
8.466667	1	0.001500
8.483333	1	0.004250
8.500000	1	0.007625
8.516667	1	0.010375
8.533333	1	0.013250
8.550000	1	0.016625
8.566667	1	0.019625
8.583333	1	0.022250
8.600000	1	0.025375
8.616667	1	0.027750
8.633333	1	0.030000
8.650000	1	0.032625
8.666667	1	0.035500
8.683333	1	0.037750
8.700000	1	0.040500
8.716667	1	0.042375
8.733333	1	0.044750
8.750000	1	0.047125
8.766667	1	0.049125
8.783333	1	0.051375
8.800000	1	0.053500
8.816667	1	0.055000
8.833333	1	0.056500
8.850000	1	0.058625
8.866667	1	0.059750
8.883333	1	0.060750
8.900000	1	0.062500
8.916667	1	0.064000
8.933333	1	0.065250
8.950000	1	0.066500
8.966667	1	0.067250
8.983333	1	0.067875
9.000000	1	0.068750
9.016667	1	0.069000
9.033333	1	0.069500
9.050000	1	0.069375
9.066667	1	0.069375
9.083333	1	0.069125
9.100000	1	0.068875
9.116667	1	0.068750
9.133333	1	0.068500
9.150000	1	0.068375
9.166667	1	0.068000
9.183333	1	0.067875
9.200000	1	0.068000
9.216667	1	0.067750
9.233333	1	0.067000
9.250000	1	0.066000
9.266667	1	0.065375
9.283333	1	0.064750
9.300000	1	0.064125
9.316667	1	0.064250
9.333333	1	0.063750
9.350000	1	0.063500
9.366667	1	0.063000
9.383333	1	0.062500
9.400000	1	0.061875
9.416667	1	0.062125
9.433333	1	0.063625
9.450000	1	0.065125
9.466667	1	0.067500
9.483333	1	0.070750
9.500000	1	0.073875
9.516667	1	0.077750
9.533333	1	0.083625
9.550000	1	0.090000
9.566667	1	0.097125
9.583333	1	0.105250
9.600000	1	0.115375
9.616667	1	0.127375
9.633333	1	0.140750
9.650000	1	0.156125
9.666667	1	0.173625
9.683333	1	0.192625
9.700000	1	0.213875
9.716667	1	0.235625
9.733333	1	0.257625
9.750000	1	0.277875
9.766667	1	0.296875
9.783333	1	0.311625
9.800000	1	0.322250
9.816667	1	0.328000
9.833333	1	0.328250
9.850000	1	0.321875
9.866667	1	0.306500
9.883333	1	0.283625
9.900000	1	0.258125
9.916667	1	0.247125
9.933333	1	0.283250
9.950000	1	0.413375
9.966667	1	0.696000
9.983333	1	1.194250
10.000000	1	1.966625
10.016667	1	3.062750
10.033333	1	4.518875
10.050000	1	6.355750
10.066667	1	8.584125
10.083333	1	11.200125
10.100000	1	14.187375
10.116667	1	17.514375
10.133333	1	21.131250
10.150000	1	24.969375
10.166667	1	28.930500
10.183333	1	32.889000
10.200000	1	36.687750
10.216667	1	40.135875
10.233333	1	43.020000
10.250000	1	45.131375
10.266667	1	46.294625
10.283333	1	46.405750
10.300000	1	45.455625
10.316667	1	43.537750
10.333333	1	40.834625
10.350000	1	37.584000
10.366667	1	34.039125
10.383333	1	30.429250
10.400000	1	26.936250
10.416667	1	23.685500
10.433333	1	20.749000
10.450000	1	18.154125
10.466667	1	15.893000
10.483333	1	13.940875
10.500000	1	12.261125
10.516667	1	10.818250
10.533333	1	9.575250
10.550000	1	8.502125
10.566667	1	7.572500
10.583333	1	6.767500
10.600000	1	6.070500
10.616667	1	5.468000
10.633333	1	4.948125
10.650000	1	4.500250
10.666667	1	4.114750
10.683333	1	3.783125
10.700000	1	3.496625
10.716667	1	3.248125
10.733333	1	3.031250
10.750000	1	2.840000
10.766667	1	2.670375
10.783333	1	2.520125
10.800000	1	2.384625
10.816667	1	2.262625
10.833333	1	2.152875
10.850000	1	2.052750
10.866667	1	1.961000
10.883333	1	1.876875
10.900000	1	1.799250
10.916667	1	1.728875
10.933333	1	1.664250
10.950000	1	1.603500
10.966667	1	1.547875
10.983333	1	1.495875
11.000000	1	1.447750
11.016667	1	1.402875
11.033333	1	1.361000
11.050000	1	1.321625
11.066667	1	1.284750
11.083333	1	1.250375
11.100000	1	1.219375
11.116667	1	1.190125
11.133333	1	1.161875
11.150000	1	1.135250
11.166667	1	1.109750
11.183333	1	1.086875
11.200000	1	1.065125
11.216667	1	1.044625
11.233333	1	1.025000
11.250000	1	1.005875
11.266667	1	0.987875
11.283333	1	0.971500
11.300000	1	0.955875
11.316667	1	0.941375
11.333333	1	0.927500
11.350000	1	0.914500
11.366667	1	0.902500
11.383333	1	0.891625
11.400000	1	0.881000
11.416667	1	0.871500
11.433333	1	0.863000
11.450000	1	0.855750
11.466667	1	0.849750
11.483333	1	0.844875
11.500000	1	0.841000
11.516667	1	0.838000
11.533333	1	0.836000
11.550000	1	0.834750
11.566667	1	0.834750
11.583333	1	0.834875
11.600000	1	0.834625
11.616667	1	0.834625
11.633333	1	0.835875
11.650000	1	0.837250
11.666667	1	0.838750
11.683333	1	0.840125
11.700000	1	0.841000
11.716667	1	0.842000
11.733333	1	0.843375
11.750000	1	0.844125
11.766667	1	0.844625
11.783333	1	0.845250
11.800000	1	0.847375
11.816667	1	0.850250
11.833333	1	0.853250
11.850000	1	0.857500
11.866667	1	0.862500
11.883333	1	0.869000
11.900000	1	0.878125
11.916667	1	0.888000
11.933333	1	0.901000
11.950000	1	0.916000
11.966667	1	0.933250
11.983333	1	0.954375
12.000000	1	0.976875
12.016667	1	1.003375
12.033333	1	1.032750
12.050000	1	1.067250
12.066667	1	1.106750
12.083333	1	1.152750
12.100000	1	1.206875
12.116667	1	1.271250
12.133333	1	1.348500
12.150000	1	1.439500
12.166667	1	1.548250
12.183333	1	1.676375
12.200000	1	1.825625
12.216667	1	1.998250
12.233333	1	2.194625
12.250000	1	2.416750
12.266667	1	2.665500
12.283333	1	2.943500
12.300000	1	3.252250
12.316667	1	3.593125
12.333333	1	3.970875
12.350000	1	4.386875
12.366667	1	4.845250
12.383333	1	5.347750
12.400000	1	5.894625
12.416667	1	6.481750
12.433333	1	7.104250
12.450000	1	7.754000
12.466667	1	8.417125
12.483333	1	9.076625
12.500000	1	9.711375
12.516667	1	10.295375
12.533333	1	10.805875
12.550000	1	11.222000
12.566667	1	11.531750
12.583333	1	11.732375
12.600000	1	11.829375
12.616667	1	11.832625
12.633333	1	11.758500
12.650000	1	11.619750
12.666667	1	11.431750
12.683333	1	11.206125
12.700000	1	10.953250
12.716667	1	10.682125
12.733333	1	10.399625
12.750000	1	10.112250
12.766667	1	9.822875
12.783333	1	9.536000
12.800000	1	9.254625
12.816667	1	8.979375
12.833333	1	8.712125
12.850000	1	8.452250
12.866667	1	8.198250
12.883333	1	7.950875
12.900000	1	7.708125
12.916667	1	7.469250
12.933333	1	7.232000
12.950000	1	6.995750
12.966667	1	6.758500
12.983333	1	6.518750
13.000000	1	6.275000
13.016667	1	6.023875
13.033333	1	5.763625
13.050000	1	5.490500
13.066667	1	5.201250
13.083333	1	4.892625
13.100000	1	4.562500
13.116667	1	4.208750
13.133333	1	3.832375
13.150000	1	3.439875
13.166667	1	3.044125
13.183333	1	2.666500
13.200000	1	2.326375
13.216667	1	2.037500
13.233333	1	1.802250
13.250000	1	1.614625
13.266667	1	1.465750
13.283333	1	1.347125
13.300000	1	1.251125
13.316667	1	1.172250
13.333333	1	1.105375
13.350000	1	1.049625
13.366667	1	1.002375
13.383333	1	0.960875
13.400000	1	0.923875
13.416667	1	0.891625
13.433333	1	0.863500
13.450000	1	0.838625
13.466667	1	0.816375
13.483333	1	0.798125
13.500000	1	0.782125
13.516667	1	0.768500
13.533333	1	0.757375
13.550000	1	0.748750
13.566667	1	0.743625
13.583333	1	0.740250
13.600000	1	0.737125
13.616667	1	0.735250
13.633333	1	0.735125
13.650000	1	0.733875
13.666667	1	0.733375
13.683333	1	0.732125
13.700000	1	0.730000
13.716667	1	0.726125
13.733333	1	0.720750
13.750000	1	0.714625
13.766667	1	0.707625
13.783333	1	0.698250
13.800000	1	0.688000
13.816667	1	0.676625
13.833333	1	0.664625
13.850000	1	0.651875
13.866667	1	0.638500
13.883333	1	0.626125
13.900000	1	0.613750
13.916667	1	0.601250
13.933333	1	0.589125
13.950000	1	0.577625
13.966667	1	0.567000
13.983333	1	0.557000
14.000000	1	0.548000
14.016667	1	0.540000
14.033333	1	0.532875
14.050000	1	0.526375
14.066667	1	0.520875
14.083333	1	0.516375
14.100000	1	0.513625
14.116667	1	0.512750
14.133333	1	0.513125
14.150000	1	0.515750
14.166667	1	0.519500
14.183333	1	0.525625
14.200000	1	0.533875
14.216667	1	0.546125
14.233333	1	0.561375
14.250000	1	0.581875
14.266667	1	0.607000
14.283333	1	0.638625
14.300000	1	0.677750
14.316667	1	0.724125
14.333333	1	0.781000
14.350000	1	0.848625
14.366667	1	0.928500
14.383333	1	1.022625
14.400000	1	1.132625
14.416667	1	1.260625
14.433333	1	1.407250
14.450000	1	1.575625
14.466667	1	1.768250
14.483333	1	1.988875
14.500000	1	2.238750
14.516667	1	2.523625
14.533333	1	2.848750
14.550000	1	3.220375
14.566667	1	3.646125
14.583333	1	4.139750
14.600000	1	4.716125
14.616667	1	5.395625
14.633333	1	6.203375
14.650000	1	7.171875
14.666667	1	8.337875
14.683333	1	9.741750
14.700000	1	11.426500
14.716667	1	13.431625
14.733333	1	15.786750
14.750000	1	18.510250
14.766667	1	21.600250
14.783333	1	25.032750
14.800000	1	28.760375
14.816667	1	32.711500
14.833333	1	36.789375
14.850000	1	40.874625
14.866667	1	44.831250
14.883333	1	48.516625
14.900000	1	51.792500
14.916667	1	54.533625
14.933333	1	56.638750
14.950000	1	58.040375
14.966667	1	58.704250
14.983333	1	58.635250
15.000000	1	57.865375
15.016667	1	56.456750
15.033333	1	54.488750
15.050000	1	52.056875
15.066667	1	49.264125
15.083333	1	46.211625
15.100000	1	43.001250
15.116667	1	39.720000
15.133333	1	36.444250
15.150000	1	33.235625
15.166667	1	30.146375
15.183333	1	27.214625
15.200000	1	24.465125
15.216667	1	21.913125
15.233333	1	19.565375
15.250000	1	17.422625
15.266667	1	15.480625
15.283333	1	13.732625
15.300000	1	12.168375
15.316667	1	10.777250
15.333333	1	9.544625
15.350000	1	8.458125
15.366667	1	7.504625
15.383333	1	6.670500
15.400000	1	5.944125
15.416667	1	5.312750
15.433333	1	4.766000
15.450000	1	4.294250
15.466667	1	3.888375
15.483333	1	3.540250
15.500000	1	3.242875
15.516667	1	2.989875
15.533333	1	2.776375
15.550000	1	2.595750
15.566667	1	2.443625
15.583333	1	2.314250
15.600000	1	2.204875
15.616667	1	2.109500
15.633333	1	2.025125
15.650000	1	1.949125
15.666667	1	1.879375
15.683333	1	1.814000
15.700000	1	1.751750
15.716667	1	1.691625
15.733333	1	1.632500
15.750000	1	1.574500
15.766667	1	1.517875
15.783333	1	1.462000
15.800000	1	1.408375
15.816667	1	1.356500
15.833333	1	1.306125
15.850000	1	1.259375
15.866667	1	1.214250
15.883333	1	1.172375
15.900000	1	1.132875
15.916667	1	1.096500
15.933333	1	1.063750
15.950000	1	1.032500
15.966667	1	1.004750
15.983333	1	0.980125
16.000000	1	0.958750
16.016667	1	0.939875
16.033333	1	0.924000
16.050000	1	0.911250
16.066667	1	0.901250
16.083333	1	0.894000
16.100000	1	0.889750
16.116667	1	0.887500
16.133333	1	0.886875
16.150000	1	0.888125
16.166667	1	0.890500
16.183333	1	0.892000
16.200000	1	0.893875
16.216667	1	0.894875
16.233333	1	0.895375
16.250000	1	0.894125
16.266667	1	0.892375
16.283333	1	0.888625
16.300000	1	0.883625
16.316667	1	0.877625
16.333333	1	0.870500
16.350000	1	0.861750
16.366667	1	0.852125
16.383333	1	0.843000
16.400000	1	0.834375
16.416667	1	0.825875
16.433333	1	0.817750
16.450000	1	0.810750
16.466667	1	0.804625
16.483333	1	0.799250
16.500000	1	0.794750
16.516667	1	0.791250
16.533333	1	0.788875
16.550000	1	0.787250
16.566667	1	0.786125
16.583333	1	0.786125
16.600000	1	0.788125
16.616667	1	0.791625
16.633333	1	0.795250
16.650000	1	0.799250
16.666667	1	0.803125
16.683333	1	0.807500
16.700000	1	0.812125
16.716667	1	0.817375
16.733333	1	0.822000
16.750000	1	0.827125
16.766667	1	0.831500
16.783333	1	0.835250
16.800000	1	0.839500
16.816667	1	0.842000
16.833333	1	0.842750
16.850000	1	0.843250
16.866667	1	0.843250
16.883333	1	0.842375
16.900000	1	0.840875
16.916667	1	0.839000
16.933333	1	0.838000
16.950000	1	0.836625
16.966667	1	0.835625
16.983333	1	0.835125
17.000000	1	0.835625
17.016667	1	0.836000
17.033333	1	0.838750
17.050000	1	0.841125
17.066667	1	0.842750
17.083333	1	0.844500
17.100000	1	0.846375
17.116667	1	0.846750
17.133333	1	0.846750
17.150000	1	0.845750
17.166667	1	0.843875
17.183333	1	0.840500
17.200000	1	0.836375
17.216667	1	0.830625
17.233333	1	0.824375
17.250000	1	0.817125
17.266667	1	0.809000
17.283333	1	0.800125
17.300000	1	0.791500
17.316667	1	0.781125
17.333333	1	0.770750
17.350000	1	0.761250
17.366667	1	0.752000
17.383333	1	0.744750
17.400000	1	0.736625
17.416667	1	0.730125
17.433333	1	0.723500
17.450000	1	0.718750
17.466667	1	0.713750
17.483333	1	0.710875
17.500000	1	0.709250
17.516667	1	0.709500
17.533333	1	0.710875
17.550000	1	0.713875
17.566667	1	0.717500
17.583333	1	0.723375
17.600000	1	0.730750
17.616667	1	0.740000
17.633333	1	0.750125
17.650000	1	0.760750
17.666667	1	0.772750
17.683333	1	0.785000
17.700000	1	0.798750
17.716667	1	0.812375
17.733333	1	0.826500
17.750000	1	0.840875
17.766667	1	0.854750
17.783333	1	0.868125
17.800000	1	0.879250
17.816667	1	0.890250
17.833333	1	0.899875
17.850000	1	0.907750
17.866667	1	0.914500
17.883333	1	0.918500
17.900000	1	0.921125
17.916667	1	0.921250
17.933333	1	0.920125
17.950000	1	0.916500
17.966667	1	0.911125
17.983333	1	0.903625
18.000000	1	0.894625
18.016667	1	0.884750
18.033333	1	0.873125
18.050000	1	0.861375
18.066667	1	0.849125
18.083333	1	0.836000
18.100000	1	0.822125
18.116667	1	0.808125
18.133333	1	0.794500
18.150000	1	0.780625
18.166667	1	0.767000
18.183333	1	0.754250
18.200000	1	0.742500
18.216667	1	0.731250
18.233333	1	0.719875
18.250000	1	0.709875
18.266667	1	0.699875
18.283333	1	0.691750
18.300000	1	0.684625
18.316667	1	0.678625
18.333333	1	0.673000
18.350000	1	0.669000
18.366667	1	0.666375
18.383333	1	0.664000
18.400000	1	0.663125
18.416667	1	0.661500
18.433333	1	0.661000
18.450000	1	0.660875
18.466667	1	0.661750
18.483333	1	0.662500
18.500000	1	0.663500
18.516667	1	0.664750
18.533333	1	0.666375
18.550000	1	0.668250
18.566667	1	0.670625
18.583333	1	0.674250
18.600000	1	0.677750
18.616667	1	0.681250
18.633333	1	0.685000
18.650000	1	0.689500
18.666667	1	0.694500
18.683333	1	0.700375
18.700000	1	0.706250
18.716667	1	0.713125
18.733333	1	0.720250
18.750000	1	0.728625
18.766667	1	0.736375
18.783333	1	0.745375
18.800000	1	0.754625
18.816667	1	0.765125
18.833333	1	0.775750
18.850000	1	0.787500
18.866667	1	0.799250
18.883333	1	0.812375
18.900000	1	0.826625
18.916667	1	0.843125
18.933333	1	0.860500
18.950000	1	0.880875
18.966667	1	0.903125
18.983333	1	0.927375
19.000000	1	0.954250
19.016667	1	0.983875
19.033333	1	1.017250
19.050000	1	1.052000
19.066667	1	1.089250
19.083333	1	1.127625
19.100000	1	1.168250
19.116667	1	1.209750
19.133333	1	1.250750
19.150000	1	1.290375
19.166667	1	1.329250
19.183333	1	1.365125
19.200000	1	1.397125
19.216667	1	1.424125
19.233333	1	1.446500
19.250000	1	1.463250
19.266667	1	1.475000
19.283333	1	1.479750
19.300000	1	1.477375
19.316667	1	1.469500
19.333333	1	1.455500
19.350000	1	1.435500
19.366667	1	1.410625
19.383333	1	1.381250
19.400000	1	1.346875
19.416667	1	1.309250
19.433333	1	1.268750
19.450000	1	1.225625
19.466667	1	1.182000
19.483333	1	1.137875
19.500000	1	1.093625
19.516667	1	1.050750
19.533333	1	1.009125
19.550000	1	0.969500
19.566667	1	0.931125
19.583333	1	0.895125
19.600000	1	0.861375
19.616667	1	0.831625
19.633333	1	0.804625
19.650000	1	0.780750
19.666667	1	0.760500
19.683333	1	0.743625
19.700000	1	0.730875
19.716667	1	0.722125
19.733333	1	0.716375
19.750000	1	0.715125
19.766667	1	0.717500
19.783333	1	0.722750
19.800000	1	0.731750
19.816667	1	0.743250
19.833333	1	0.757625
19.850000	1	0.774250
19.866667	1	0.793625
19.883333	1	0.815125
19.900000	1	0.836375
19.916667	1	0.857750
19.933333	1	0.879375
19.950000	1	0.900875
19.966667	1	0.921625
19.983333	1	0.940750
20.000000	1	0.958500
20.016667	1	0.975625
20.033333	1	0.991500
20.050000	1	1.005750
20.066667	1	1.019125
20.083333	1	1.031625
20.100000	1	1.045125
20.116667	1	1.058500
20.133333	1	1.072625
20.150000	1	1.088250
20.166667	1	1.106625
20.183333	1	1.128125
20.200000	1	1.153125
20.216667	1	1.182375
20.233333	1	1.216375
20.250000	1	1.256250
20.266667	1	1.303000
20.283333	1	1.356375
20.300000	1	1.415375
20.316667	1	1.479750
20.333333	1	1.548750
20.350000	1	1.620875
20.366667	1	1.696500
20.383333	1	1.772375
20.400000	1	1.847125
20.416667	1	1.918500
20.433333	1	1.985125
20.450000	1	2.045375
20.466667	1	2.096375
20.483333	1	2.138125
20.500000	1	2.169875
20.516667	1	2.190750
20.533333	1	2.199250
20.550000	1	2.196750
20.566667	1	2.184625
20.583333	1	2.162500
20.600000	1	2.133500
20.616667	1	2.097250
20.633333	1	2.057875
20.650000	1	2.016375
20.666667	1	1.974625
20.683333	1	1.936000
20.700000	1	1.901000
20.716667	1	1.872625
20.733333	1	1.851125
20.750000	1	1.838875
20.766667	1	1.835500
20.783333	1	1.842500
20.800000	1	1.858750
20.816667	1	1.883000
20.833333	1	1.914375
20.850000	1	1.951375
20.866667	1	1.991875
20.883333	1	2.033125
20.900000	1	2.073875
20.916667	1	2.110625
20.933333	1	2.140875
20.950000	1	2.163875
20.966667	1	2.177500
20.983333	1	2.179500
21.000000	1	2.170125
21.016667	1	2.148250
21.033333	1	2.114500
21.050000	1	2.068500
21.066667	1	2.012875
21.083333	1	1.948125
21.100000	1	1.876250
21.116667	1	1.798625
21.133333	1	1.716250
21.150000	1	1.631250
21.166667	1	1.545000
21.183333	1	1.457875
21.200000	1	1.372125
21.216667	1	1.288750
21.233333	1	1.209375
21.250000	1	1.133250
21.266667	1	1.062625
21.283333	1	0.996250
21.300000	1	0.934250
21.316667	1	0.877375
21.333333	1	0.825125
21.350000	1	0.777750
21.366667	1	0.734750
21.383333	1	0.695625
21.400000	1	0.659500
21.416667	1	0.627875
21.433333	1	0.600125
21.450000	1	0.574875
21.466667	1	0.552875
21.483333	1	0.533250
21.500000	1	0.516375
21.516667	1	0.501000
21.533333	1	0.487875
21.550000	1	0.475875
21.566667	1	0.465625
21.583333	1	0.455750
21.600000	1	0.447375
21.616667	1	0.439625
21.633333	1	0.433250
21.650000	1	0.428000
21.666667	1	0.423125
21.683333	1	0.418625
21.700000	1	0.415000
21.716667	1	0.412500
21.733333	1	0.410625
21.750000	1	0.409125
21.766667	1	0.409000
21.783333	1	0.409000
21.800000	1	0.408625
21.816667	1	0.410250
21.833333	1	0.412250
21.850000	1	0.415750
21.866667	1	0.421000
21.883333	1	0.424750
21.900000	1	0.429250
21.916667	1	0.433500
21.933333	1	0.438125
21.950000	1	0.443500
21.966667	1	0.448250
21.983333	1	0.452375
22.000000	1	0.456375
22.016667	1	0.460375
22.033333	1	0.463000
22.050000	1	0.464875
22.066667	1	0.465500
22.083333	1	0.465875
22.100000	1	0.464625
22.116667	1	0.462500
22.133333	1	0.459250
22.150000	1	0.455125
22.166667	1	0.449875
22.183333	1	0.444625
22.200000	1	0.439875
22.216667	1	0.434750
22.233333	1	0.429625
22.250000	1	0.425500
22.266667	1	0.421500
22.283333	1	0.417750
22.300000	1	0.414375
22.316667	1	0.411250
22.333333	1	0.409500
22.350000	1	0.408500
22.366667	1	0.408125
22.383333	1	0.408000
22.400000	1	0.409000
22.416667	1	0.410750
22.433333	1	0.413000
22.450000	1	0.416250
22.466667	1	0.417875
22.483333	1	0.420750
22.500000	1	0.424500
22.516667	1	0.428125
22.533333	1	0.432000
22.550000	1	0.435500
22.566667	1	0.439625
22.583333	1	0.442500
22.600000	1	0.446750
22.616667	1	0.450125
22.633333	1	0.453500
22.650000	1	0.456250
22.666667	1	0.458500
22.683333	1	0.461500
22.700000	1	0.463500
22.716667	1	0.464375
22.733333	1	0.465125
22.750000	1	0.465125
22.766667	1	0.464000
22.783333	1	0.463125
22.800000	1	0.460375
22.816667	1	0.457125
22.833333	1	0.454500
22.850000	1	0.450750
22.866667	1	0.446875
22.883333	1	0.443000
22.900000	1	0.438250
22.916667	1	0.433125
22.933333	1	0.428375
22.950000	1	0.423375
22.966667	1	0.418375
22.983333	1	0.413750
23.000000	1	0.409500
23.016667	1	0.405750
23.033333	1	0.402250
23.050000	1	0.399375
23.066667	1	0.396125
23.083333	1	0.394750
23.100000	1	0.394625
23.116667	1	0.395875
23.133333	1	0.398375
23.150000	1	0.402000
23.166667	1	0.407375
23.183333	1	0.414125
23.200000	1	0.422000
23.216667	1	0.432250
23.233333	1	0.444250
23.250000	1	0.457750
23.266667	1	0.473000
23.283333	1	0.491125
23.300000	1	0.512125
23.316667	1	0.533875
23.333333	1	0.558375
23.350000	1	0.585750
23.366667	1	0.617750
23.383333	1	0.651875
23.400000	1	0.689375
23.416667	1	0.731625
23.433333	1	0.777625
23.450000	1	0.829750
23.466667	1	0.887500
23.483333	1	0.951125
23.500000	1	1.021500
23.516667	1	1.100500
23.533333	1	1.189375
23.550000	1	1.288375
23.566667	1	1.398750
23.583333	1	1.522125
23.600000	1	1.659250
23.616667	1	1.810875
23.633333	1	1.978000
23.650000	1	2.161125
23.666667	1	2.359875
23.683333	1	2.573750
23.700000	1	2.801250
23.716667	1	3.041625
23.733333	1	3.292625
23.750000	1	3.551375
23.766667	1	3.812750
23.783333	1	4.074000
23.800000	1	4.331125
23.816667	1	4.579000
23.833333	1	4.811875
23.850000	1	5.026500
23.866667	1	5.216375
23.883333	1	5.379875
23.900000	1	5.512000
23.916667	1	5.612125
23.933333	1	5.676875
23.950000	1	5.705125
23.966667	1	5.697125
23.983333	1	5.652500
24.000000	1	5.574250
24.016667	1	5.464375
24.033333	1	5.326125
24.050000	1	5.162750
24.066667	1	4.977875
24.083333	1	4.774500
24.100000	1	4.557250
24.116667	1	4.329500
24.133333	1	4.095250
24.150000	1	3.857875
24.166667	1	3.622125
24.183333	1	3.388750
24.200000	1	3.162250
24.216667	1	2.942875
24.233333	1	2.733375
24.250000	1	2.534875
24.266667	1	2.349000
24.283333	1	2.176000
24.300000	1	2.014625
24.316667	1	1.866375
24.333333	1	1.730250
24.350000	1	1.605500
24.366667	1	1.491625
24.383333	1	1.389250
24.400000	1	1.297125
24.416667	1	1.215000
24.433333	1	1.141250
24.450000	1	1.074875
24.466667	1	1.016250
24.483333	1	0.962500
24.500000	1	0.914500
24.516667	1	0.870375
24.533333	1	0.831000
24.550000	1	0.794250
24.566667	1	0.761000
24.583333	1	0.729875
24.600000	1	0.701000
24.616667	1	0.673750
24.633333	1	0.648250
24.650000	1	0.623125
24.666667	1	0.599750
24.683333	1	0.576250
24.700000	1	0.553750
24.716667	1	0.532500
24.733333	1	0.511625
24.750000	1	0.491375
24.766667	1	0.471875
24.783333	1	0.452250
24.800000	1	0.432750
24.816667	1	0.413875
24.833333	1	0.396125
24.850000	1	0.379625
24.866667	1	0.364125
24.883333	1	0.348750
24.900000	1	0.335125
24.916667	1	0.322000
24.933333	1	0.309125
24.950000	1	0.297500
24.966667	1	0.286625
24.983333	1	0.277000
25.000000	1	0.268125
25.016667	1	0.260375
25.033333	1	0.253625
25.050000	1	0.247750
25.066667	1	0.243250
25.083333	1	0.239250
25.100000	1	0.235625
25.116667	1	0.232250
25.133333	1	0.229500
25.150000	1	0.227875
25.166667	1	0.226500
25.183333	1	0.225750
25.200000	1	0.226375
25.216667	1	0.227000
25.233333	1	0.228250
25.250000	1	0.230250
25.266667	1	0.231750
25.283333	1	0.235000
25.300000	1	0.238625
25.316667	1	0.242125
25.333333	1	0.245500
25.350000	1	0.249125
25.366667	1	0.251500
25.383333	1	0.253500
25.400000	1	0.256750
25.416667	1	0.259625
25.433333	1	0.262750
25.450000	1	0.266625
25.466667	1	0.269000
25.483333	1	0.271875
25.500000	1	0.274375
25.516667	1	0.277125
25.533333	1	0.279125
25.550000	1	0.280250
25.566667	1	0.281125
25.583333	1	0.282125
25.600000	1	0.282125
25.616667	1	0.282000
25.633333	1	0.281250
25.650000	1	0.280625
25.666667	1	0.280375
25.683333	1	0.280000
25.700000	1	0.278500
25.716667	1	0.276375
25.733333	1	0.274500
25.750000	1	0.272625
25.766667	1	0.270250
25.783333	1	0.267375
25.800000	1	0.264125
25.816667	1	0.261125
25.833333	1	0.257250
25.850000	1	0.253250
25.866667	1	0.248625
25.883333	1	0.243875
25.900000	1	0.238875
25.916667	1	0.234250
25.933333	1	0.228375
25.950000	1	0.222625
25.966667	1	0.216750
25.983333	1	0.210625
26.000000	1	0.203500
26.016667	1	0.195875
26.033333	1	0.188375
26.050000	1	0.181125
26.066667	1	0.173875
26.083333	1	0.167000
26.100000	1	0.159500
26.116667	1	0.152375
26.133333	1	0.146250
26.150000	1	0.139625
26.166667	1	0.133875
26.183333	1	0.127625
26.200000	1	0.123000
26.216667	1	0.118625
26.233333	1	0.115000
26.250000	1	0.111500
26.266667	1	0.108125
26.283333	1	0.105750
26.300000	1	0.105000
26.316667	1	0.104125
26.333333	1	0.103875
26.350000	1	0.104875
26.366667	1	0.105500
26.383333	1	0.107500
26.400000	1	0.109375
26.416667	1	0.112250
26.433333	1	0.115125
26.450000	1	0.118625
26.466667	1	0.121375
26.483333	1	0.123875
26.500000	1	0.127000
26.516667	1	0.130625
26.533333	1	0.132750
26.550000	1	0.135375
26.566667	1	0.137625
26.583333	1	0.140625
26.600000	1	0.142875
26.616667	1	0.144875
26.633333	1	0.146250
26.650000	1	0.148250
26.666667	1	0.149625
26.683333	1	0.150625
26.700000	1	0.152000
26.716667	1	0.154125
26.733333	1	0.155625
26.750000	1	0.156375
26.766667	1	0.158125
26.783333	1	0.159000
26.800000	1	0.160125
26.816667	1	0.162500
26.833333	1	0.165000
26.850000	1	0.167250
26.866667	1	0.169250
26.883333	1	0.172750
26.900000	1	0.177250
26.916667	1	0.180750
26.933333	1	0.185375
26.950000	1	0.189000
26.966667	1	0.193375
26.983333	1	0.199375
27.000000	1	0.205000
27.016667	1	0.211125
27.033333	1	0.217125
27.050000	1	0.224000
27.066667	1	0.231250
27.083333	1	0.238750
27.100000	1	0.247000
27.116667	1	0.255250
27.133333	1	0.263875
27.150000	1	0.272625
27.166667	1	0.281500
27.183333	1	0.291375
27.200000	1	0.302250
27.216667	1	0.314375
27.233333	1	0.326500
27.250000	1	0.339250
27.266667	1	0.352000
27.283333	1	0.366375
27.300000	1	0.381375
27.316667	1	0.396875
27.333333	1	0.413875
27.350000	1	0.431250
27.366667	1	0.450125
27.383333	1	0.471625
27.400000	1	0.493500
27.416667	1	0.516625
27.433333	1	0.542500
27.450000	1	0.568750
27.466667	1	0.597625
27.483333	1	0.629625
27.500000	1	0.664500
27.516667	1	0.702250
27.533333	1	0.743875
27.550000	1	0.789625
27.566667	1	0.840000
27.583333	1	0.895500
27.600000	1	0.957000
27.616667	1	1.024625
27.633333	1	1.098875
27.650000	1	1.178750
27.666667	1	1.265875
27.683333	1	1.359875
27.700000	1	1.460750
27.716667	1	1.568250
27.733333	1	1.680625
27.750000	1	1.799000
27.766667	1	1.921625
27.783333	1	2.048000
27.800000	1	2.176625
27.816667	1	2.307625
27.833333	1	2.438375
27.850000	1	2.567625
27.866667	1	2.693500
27.883333	1	2.814250
27.900000	1	2.929250
27.916667	1	3.035000
27.933333	1	3.130500
27.950000	1	3.214375
27.966667	1	3.284375
27.983333	1	3.339875
28.000000	1	3.380250
28.016667	1	3.405000
28.033333	1	3.412000
28.050000	1	3.402125
28.066667	1	3.374500
28.083333	1	3.330875
28.100000	1	3.271750
28.116667	1	3.197500
28.133333	1	3.109625
28.150000	1	3.008875
28.166667	1	2.897500
28.183333	1	2.776500
28.200000	1	2.648125
28.216667	1	2.515125
28.233333	1	2.376875
28.250000	1	2.236750
28.266667	1	2.096250
28.283333	1	1.955375
28.300000	1	1.816375
28.316667	1	1.680125
28.333333	1	1.548750
28.350000	1	1.421625
28.366667	1	1.300125
28.383333	1	1.184125
28.400000	1	1.074250
28.416667	1	0.971500
28.433333	1	0.874750
28.450000	1	0.783250
28.466667	1	0.697375
28.483333	1	0.617750
28.500000	1	0.542125
28.516667	1	0.471250
28.533333	1	0.404875
28.550000	1	0.343375
28.566667	1	0.285000
28.583333	1	0.230125
28.600000	1	0.177875
28.616667	1	0.128250
28.633333	1	0.080500
28.650000	1	0.035250
28.666667	1	-0.008875
28.683333	1	-0.051000
28.700000	1	-0.091625
28.716667	1	-0.131250
28.733333	1	-0.169250
28.750000	1	-0.206250
28.766667	1	-0.240500
28.783333	1	-0.273500
28.800000	1	-0.304625
28.816667	1	-0.333750
28.833333	1	-0.360375
28.850000	1	-0.384250
28.866667	1	-0.406625
28.883333	1	-0.426750
28.900000	1	-0.443750
28.916667	1	-0.458000
28.933333	1	-0.469250
28.950000	1	-0.477250
28.966667	1	-0.481875
28.983333	1	-0.484625
29.000000	1	-0.484375
29.016667	1	-0.480375
29.033333	1	-0.473250
29.050000	1	-0.462750
29.066667	1	-0.450625
29.083333	1	-0.435375
29.100000	1	-0.417625
29.116667	1	-0.397750
29.133333	1	-0.376000
29.150000	1	-0.352000
29.166667	1	-0.326375
29.183333	1	-0.299375
29.200000	1	-0.270500
29.216667	1	-0.241250
29.233333	1	-0.211250
29.250000	1	-0.180125
29.266667	1	-0.148375
29.283333	1	-0.117500
29.300000	1	-0.086375
29.316667	1	-0.055250
29.333333	1	-0.024500
29.350000	1	0.006375
29.366667	1	0.035875
29.383333	1	0.065250
29.400000	1	0.093875
29.416667	1	0.121000
29.433333	1	0.147500
29.450000	1	0.173000
29.466667	1	0.196375
29.483333	1	0.218250
29.500000	1	0.239625
29.516667	1	0.259625
29.533333	1	0.278125
29.550000	1	0.294750
29.566667	1	0.309875
29.583333	1	0.324000
29.600000	1	0.336000
29.616667	1	0.347875
29.633333	1	0.357875
29.650000	1	0.366500
29.666667	1	0.373875
29.683333	1	0.380000
29.700000	1	0.384375
29.716667	1	0.388875
29.733333	1	0.391875
29.750000	1	0.393750
29.766667	1	0.394250
29.783333	1	0.394125
29.800000	1	0.392375
29.816667	1	0.390625
29.833333	1	0.388250
29.850000	1	0.385750
29.866667	1	0.382125
29.883333	1	0.377750
29.900000	1	0.374250
29.916667	1	0.370375
29.933333	1	0.365750
29.950000	1	0.361375
29.966667	1	0.356625
29.983333	1	0.352000
30.000000	1	0.347750
30.016667	1	0.344000
30.033333	1	0.340250
30.050000	1	0.335625
30.066667	1	0.330750
30.083333	1	0.327000
30.100000	1	0.323375
30.116667	1	0.320000
30.133333	1	0.316500
30.150000	1	0.313250
30.166667	1	0.310750
30.183333	1	0.307625
30.200000	1	0.305500
30.216667	1	0.303250
30.233333	1	0.302375
30.250000	1	0.300250
30.266667	1	0.299125
30.283333	1	0.296500
30.300000	1	0.294750
30.316667	1	0.293375
30.333333	1	0.291500
30.350000	1	0.290000
30.366667	1	0.288625
30.383333	1	0.287875
30.400000	1	0.287125
30.416667	1	0.286125
30.433333	1	0.286500
30.450000	1	0.286375
30.466667	1	0.286875
30.483333	1	0.287500
30.500000	1	0.287625
30.516667	1	0.288375
30.533333	1	0.289750
30.550000	1	0.291375
30.566667	1	0.293625
30.583333	1	0.297375
30.600000	1	0.300125
30.616667	1	0.304250
30.633333	1	0.308500
30.650000	1	0.312375
30.666667	1	0.316000
30.683333	1	0.319875
30.700000	1	0.324375
30.716667	1	0.328250
30.733333	1	0.331250
30.750000	1	0.334250
30.766667	1	0.337250
30.783333	1	0.339750
30.800000	1	0.342125
30.816667	1	0.343875
30.833333	1	0.408750
30.850000	1	0.387625
30.866667	1	0.371375
30.883333	1	0.360250
30.900000	1	0.352375
30.916667	1	0.346000
30.933333	1	0.340500
30.950000	1	0.334375
30.966667	1	0.329750
30.983333	1	0.324250
31.000000	1	0.317875
31.016667	1	0.310750
31.033333	1	0.302875
31.050000	1	0.294875
31.066667	1	0.286750
31.083333	1	0.278625
31.100000	1	0.270625
31.116667	1	0.262750
31.133333	1	0.255375
31.150000	1	0.247375
31.166667	1	0.238250
31.183333	1	0.230000
31.200000	1	0.221875
31.216667	1	0.213500
31.233333	1	0.206000
31.250000	1	0.198125
31.266667	1	0.190750
31.283333	1	0.183375
31.300000	1	0.177000
31.316667	1	0.171125
31.333333	1	0.166125
31.350000	1	0.161500
31.366667	1	0.156875
31.383333	1	0.153250
31.400000	1	0.150000
31.416667	1	0.147000
31.433333	1	0.144000
31.450000	1	0.141875
31.466667	1	0.140875
31.483333	1	0.139500
31.500000	1	0.139000
31.516667	1	0.138875
31.533333	1	0.139125
31.550000	1	0.140375
31.566667	1	0.142000
31.583333	1	0.143500
31.600000	1	0.145125
31.616667	1	0.147125
31.633333	1	0.149875
31.650000	1	0.152500
31.666667	1	0.155750
31.683333	1	0.159125
31.700000	1	0.162875
31.716667	1	0.166875
31.733333	1	0.171250
31.750000	1	0.174625
31.766667	1	0.178750
31.783333	1	0.183500
31.800000	1	0.188125
31.816667	1	0.193250
31.833333	1	0.197875
31.850000	1	0.202500
31.866667	1	0.208125
31.883333	1	0.213375
31.900000	1	0.218250
31.916667	1	0.223500
31.933333	1	0.228375
31.950000	1	0.232875
31.966667	1	0.237375
31.983333	1	0.241125
32.000000	1	0.244250
32.016667	1	0.247125
32.033333	1	0.250250
32.050000	1	0.252125
32.066667	1	0.253875
32.083333	1	0.255125
32.100000	1	0.256250
32.116667	1	0.256000
32.133333	1	0.255250
32.150000	1	0.254000
32.166667	1	0.252375
32.183333	1	0.249500
32.200000	1	0.246250
32.216667	1	0.242875
32.233333	1	0.239250
32.250000	1	0.235250
32.266667	1	0.230000
32.283333	1	0.224750
32.300000	1	0.218625
32.316667	1	0.212750
32.333333	1	0.207250
32.350000	1	0.201125
32.366667	1	0.195000
32.383333	1	0.189000
32.400000	1	0.182875
32.416667	1	0.176500
32.433333	1	0.169625
32.450000	1	0.162500
32.466667	1	0.156000
32.483333	1	0.149625
32.500000	1	0.143000
32.516667	1	0.136375
32.533333	1	0.130250
32.550000	1	0.124500
32.566667	1	0.119000
32.583333	1	0.112875
32.600000	1	0.107000
32.616667	1	0.101875
32.633333	1	0.096250
32.650000	1	0.091500
32.666667	1	0.085875
32.683333	1	0.081125
32.700000	1	0.076125
32.716667	1	0.071750
32.733333	1	0.067000
32.750000	1	0.062375
32.766667	1	0.057875
32.783333	1	0.053750
32.800000	1	0.050750
32.816667	1	0.047625
32.833333	1	0.043250
32.850000	1	0.040000
32.866667	1	0.036375
32.883333	1	0.033375
32.900000	1	0.029875
32.916667	1	0.027750
32.933333	1	0.025125
32.950000	1	0.022500
32.966667	1	0.020875
32.983333	1	0.018250
33.000000	1	0.015250
33.016667	1	0.012750
33.033333	1	0.011250
33.050000	1	0.009375
33.066667	1	0.007875
33.083333	1	0.006125
33.100000	1	0.004875
33.116667	1	0.003250
33.133333	1	0.001875
33.150000	1	0.000625
33.166667	1	0.000000
33.183333	1	-0.001375
33.200000	1	-0.001875
33.216667	1	-0.002375
33.233333	1	-0.003250
33.250000	1	-0.004000
33.266667	1	-0.004375
33.283333	1	-0.004750
33.300000	1	-0.004625
33.316667	1	-0.004750
33.333333	1	-0.004750
33.350000	1	-0.004750
33.366667	1	-0.004375
33.383333	1	-0.004125
33.400000	1	-0.004250
33.416667	1	-0.004375
33.433333	1	-0.004625
33.450000	1	-0.004625
33.466667	1	-0.005625
33.483333	1	-0.005500
33.500000	1	-0.005625
33.516667	1	-0.005125
33.533333	1	-0.005125
33.550000	1	-0.005875
33.566667	1	-0.006000
33.583333	1	-0.005750
33.600000	1	-0.005875
33.616667	1	-0.004875
33.633333	1	-0.004500
33.650000	1	-0.003875
33.666667	1	-0.003875
33.683333	1	-0.004500
33.700000	1	-0.004875
33.716667	1	-0.004750
33.733333	1	-0.004875
33.750000	1	-0.004500
33.766667	1	-0.004250
33.783333	1	-0.003500
33.800000	1	-0.002750
33.816667	1	-0.002875
33.833333	1	-0.002125
33.850000	1	-0.001875
33.866667	1	-0.000750
33.883333	1	-0.000750
33.900000	1	0.000000
33.916667	1	-0.000125
33.933333	1	0.000125
33.950000	1	0.001000
33.966667	1	0.001625
33.983333	1	0.002625
34.000000	1	0.003375
34.016667	1	0.004500
34.033333	1	0.004625
34.050000	1	0.004875
34.066667	1	0.005750
34.083333	1	0.006125
34.100000	1	0.006875
34.116667	1	0.008125
34.133333	1	0.008500
34.150000	1	0.009875
34.166667	1	0.010875
34.183333	1	0.012000
34.200000	1	0.012625
34.216667	1	0.013000
34.233333	1	0.013250
34.250000	1	0.013875
34.266667	1	0.014000
34.283333	1	0.015000
34.300000	1	0.015875
34.316667	1	0.016250
34.333333	1	0.016750
34.350000	1	0.017000
34.366667	1	0.017375
34.383333	1	0.018000
34.400000	1	0.017625
34.416667	1	0.016875
34.433333	1	0.016125
34.450000	1	0.015000
34.466667	1	0.015375
34.483333	1	0.015375
34.500000	1	0.014875
34.516667	1	0.013875
34.533333	1	0.013750
34.550000	1	0.013125
34.566667	1	0.012375
34.583333	1	0.011500
34.600000	1	0.011125
34.616667	1	0.009750
34.633333	1	0.009125
34.650000	1	0.007750
34.666667	1	0.006625
34.683333	1	0.006375
34.700000	1	0.006750
34.716667	1	0.006500
34.733333	1	0.005875
34.750000	1	0.006000
34.766667	1	0.006250
34.783333	1	0.005625
34.800000	1	0.005500
34.816667	1	0.005250
34.833333	1	0.005875
34.850000	1	0.006625
34.866667	1	0.007625
34.883333	1	0.008375
34.900000	1	0.009375
34.916667	1	0.010625
34.933333	1	0.011500
34.950000	1	0.012500
34.966667	1	0.013750
34.983333	1	0.015750
35.000000	1	0.017750
35.016667	1	0.021125
35.033333	1	0.024125
35.050000	1	0.026500
35.066667	1	0.028500
35.083333	1	0.032000
35.100000	1	0.035125
35.116667	1	0.037750
35.133333	1	0.041000
35.150000	1	0.044625
35.166667	1	0.049125
35.183333	1	0.052500
35.200000	1	0.055875
35.216667	1	0.059500
35.233333	1	0.063125
35.250000	1	0.066750
35.266667	1	0.069875
35.283333	1	0.072750
35.300000	1	0.076625
35.316667	1	0.080125
35.333333	1	0.082750
35.350000	1	0.086625
35.366667	1	0.090250
35.383333	1	0.093250
35.400000	1	0.095375
35.416667	1	0.097125
35.433333	1	0.099500
35.450000	1	0.101875
35.466667	1	0.103625
35.483333	1	0.106000
35.500000	1	0.107250
35.516667	1	0.108125
35.533333	1	0.108625
35.550000	1	0.110250
35.566667	1	0.111375
35.583333	1	0.112375
35.600000	1	0.112125
35.616667	1	0.113000
35.633333	1	0.113375
35.650000	1	0.113375
35.666667	1	0.113625
35.683333	1	0.113625
35.700000	1	0.113375
35.716667	1	0.113250
35.733333	1	0.112625
35.750000	1	0.113000
35.766667	1	0.111875
35.783333	1	0.111500
35.800000	1	0.111125
35.816667	1	0.110875
35.833333	1	0.111500
35.850000	1	0.111375
35.866667	1	0.110875
35.883333	1	0.110375
35.900000	1	0.110000
35.916667	1	0.110000
35.933333	1	0.109375
35.950000	1	0.108500
35.966667	1	0.107500
35.983333	1	0.107875
36.000000	1	0.107125
36.016667	1	0.105875
36.033333	1	0.105250
36.050000	1	0.104500
36.066667	1	0.103875
36.083333	1	0.102125
36.100000	1	0.100625
36.116667	1	0.099750
36.133333	1	0.099125
36.150000	1	0.098000
36.166667	1	0.096625
36.183333	1	0.095250
36.200000	1	0.094625
36.216667	1	0.093500
36.233333	1	0.091500
36.250000	1	0.089625
36.266667	1	0.087250
36.283333	1	0.085750
36.300000	1	0.084125
36.316667	1	0.082250
36.333333	1	0.080375
36.350000	1	0.078500
36.366667	1	0.076750
36.383333	1	0.075000
36.400000	1	0.072875
36.416667	1	0.070750
36.433333	1	0.068875
36.450000	1	0.066750
36.466667	1	0.064750
36.483333	1	0.061875
36.500000	1	0.059875
36.516667	1	0.058125
36.533333	1	0.056250
36.550000	1	0.053375
36.566667	1	0.051125
36.583333	1	0.048750
36.600000	1	0.046625
36.616667	1	0.043875
36.633333	1	0.041875
36.650000	1	0.039375
36.666667	1	0.037250
36.683333	1	0.034875
36.700000	1	0.032750
36.716667	1	0.030625
36.733333	1	0.028250
36.750000	1	0.025875
36.766667	1	0.023500
36.783333	1	0.021500
36.800000	1	0.019875
36.816667	1	0.018125
36.833333	1	0.016375
36.850000	1	0.014375
36.866667	1	0.011625
36.883333	1	0.008500
36.900000	1	0.006500
36.916667	1	0.004125
36.933333	1	0.002875
36.950000	1	0.001125
36.966667	1	-0.000750
36.983333	1	-0.002750
37.000000	1	-0.003625
37.016667	1	-0.004875
37.033333	1	-0.006500
37.050000	1	-0.007875
37.066667	1	-0.009625
37.083333	1	-0.011375
37.100000	1	-0.012750
37.116667	1	-0.013875
37.133333	1	-0.015500
37.150000	1	-0.016750
37.166667	1	-0.017875
37.183333	1	-0.019125
37.200000	1	-0.020000
37.216667	1	-0.021375
37.233333	1	-0.022375
37.250000	1	-0.023500
37.266667	1	-0.024125
37.283333	1	-0.025250
37.300000	1	-0.026750
37.316667	1	-0.028625
37.333333	1	-0.029750
37.350000	1	-0.030375
37.366667	1	-0.031250
37.383333	1	-0.032625
37.400000	1	-0.033125
37.416667	1	-0.034375
37.433333	1	-0.035375
37.450000	1	-0.035750
37.466667	1	-0.036500
37.483333	1	-0.037625
37.500000	1	-0.038125
37.516667	1	-0.038750
37.533333	1	-0.038750
37.550000	1	-0.038500
37.566667	1	-0.039125
37.583333	1	-0.039875
37.600000	1	-0.040250
37.616667	1	-0.040250
37.633333	1	-0.040750
37.650000	1	-0.041125
37.666667	1	-0.041625
37.683333	1	-0.041750
37.700000	1	-0.041875
37.716667	1	-0.041375
37.733333	1	-0.041000
37.750000	1	-0.041250
37.766667	1	-0.041750
37.783333	1	-0.041875
37.800000	1	-0.041750
37.816667	1	-0.041250
37.833333	1	-0.040500
37.850000	1	-0.039000
37.866667	1	-0.037500
37.883333	1	-0.036125
37.900000	1	-0.035125
37.916667	1	-0.035000
37.933333	1	-0.034250
37.950000	1	-0.032875
37.966667	1	-0.032250
37.983333	1	-0.032000
38.000000	1	-0.030875
38.016667	1	-0.029750
38.033333	1	-0.029000
38.050000	1	-0.028250
38.066667	1	-0.027625
38.083333	1	-0.027125
38.100000	1	-0.025875
38.116667	1	-0.025625
38.133333	1	-0.025125
38.150000	1	-0.025000
38.166667	1	-0.024000
38.183333	1	-0.023875
38.200000	1	-0.024500
38.216667	1	-0.024125
38.233333	1	-0.024375
38.250000	1	-0.024375
38.266667	1	-0.024125
38.283333	1	-0.023500
38.300000	1	-0.024000
38.316667	1	-0.023750
38.333333	1	-0.023500
38.350000	1	-0.022750
38.366667	1	-0.022625
38.383333	1	-0.022750
38.400000	1	-0.022750
38.416667	1	-0.023000
38.433333	1	-0.023125
38.450000	1	-0.023000
38.466667	1	-0.023625
38.483333	1	-0.024000
38.500000	1	-0.024875
38.516667	1	-0.025500
38.533333	1	-0.025625
38.550000	1	-0.026125
38.566667	1	-0.026125
38.583333	1	-0.026750
38.600000	1	-0.028000
38.616667	1	-0.029000
38.633333	1	-0.030000
38.650000	1	-0.031000
38.666667	1	-0.031625
38.683333	1	-0.032625
38.700000	1	-0.033000
38.716667	1	-0.033500
38.733333	1	-0.033625
38.750000	1	-0.034375
38.766667	1	-0.035125
38.783333	1	-0.035625
38.800000	1	-0.036000
38.816667	1	-0.036625
38.833333	1	-0.037375
38.850000	1	-0.038000
38.866667	1	-0.038875
38.883333	1	-0.039875
38.900000	1	-0.041000
38.916667	1	-0.041500
38.933333	1	-0.042500
38.950000	1	-0.043375
38.966667	1	-0.043875
38.983333	1	-0.044125
39.000000	1	-0.045250
39.016667	1	-0.045500
39.033333	1	-0.046875
39.050000	1	-0.047875
39.066667	1	-0.048875
39.083333	1	-0.049375
39.100000	1	-0.049875
39.116667	1	-0.050500
39.133333	1	-0.050875
39.150000	1	-0.050625
39.166667	1	-0.050750
39.183333	1	-0.050875
39.200000	1	-0.050875
39.216667	1	-0.051000
39.233333	1	-0.050375
39.250000	1	-0.049875
39.266667	1	-0.049625
39.283333	1	-0.049500
39.300000	1	-0.048875
39.316667	1	-0.048375
39.333333	1	-0.048250
39.350000	1	-0.047875
39.366667	1	-0.049000
39.383333	1	-0.049500
39.400000	1	-0.049500
39.416667	1	-0.049750
39.433333	1	-0.049750
39.450000	1	-0.049250
39.466667	1	-0.048750
39.483333	1	-0.048500
39.500000	1	-0.047750
39.516667	1	-0.047375
39.533333	1	-0.046625
39.550000	1	-0.046125
39.566667	1	-0.045750
39.583333	1	-0.045000
39.600000	1	-0.044875
39.616667	1	-0.044000
39.633333	1	-0.043125
39.650000	1	-0.042000
39.666667	1	-0.040875
39.683333	1	-0.041000
39.700000	1	-0.040500
39.716667	1	-0.039875
39.733333	1	-0.039875
39.750000	1	-0.039250
39.766667	1	-0.037750
39.783333	1	-0.037000
39.800000	1	-0.036500
39.816667	1	-0.035875
39.833333	1	-0.034125
39.850000	1	-0.032500
39.866667	1	-0.031125
39.883333	1	-0.029625
39.900000	1	-0.028625
39.916667	1	-0.027375
39.933333	1	-0.025875
39.950000	1	-0.024875
39.966667	1	-0.023250
39.983333	1	-0.022125
40.000000	1	-0.021500
