File Path	chrom://990-75db15j/XVault/Ultimate_3000/1256/20230531_CMO_stabTest _FP08_FP09.seq/298.smp/RI_1.channel/RI_1.chm
Channel	RI_1

Injection Information:
Data Vault	XVault
Injection	FP09__6_s2
Injection Number	69
Position	BC8
Comment	
Processing Method	
Instrument Method	run_25B_method
Type	Unknown
Status	Finished
Injection Date	03.06.2023
Injection Time	12:10:38
Injection Volume (µl)	20.000
Dilution Factor	1.0000
Weight	1.0000

Chromatogram Data Information:
Time Min. (min)	0.000000
Time Max. (min)	40.000000
Data Points	2401
Detector	RI
Generating Data System	Chromeleon 7.2.5.9507
Exporting Data System	Chromeleon 7.2.5.0
Operator	Instrument Controller
Signal Quantity	Refractive 
Signal Unit	µRIU
Signal Min.	-0.619500
Signal Max.	61.183750
Channel	RI_1
Driver Name	RID520Driver.dll
Channel Type	Evaluation
Min. Step (s)	1
Max. Step (s)	1
Average Step (s)	1

Signal Parameter Information:
Signal Info	

Chromatogram Data:
Time (min)	Step (s)	Value (µRIU)
0.000000	n.a.	-0.049125
0.016667	1	-0.050125
0.033333	1	-0.051625
0.050000	1	-0.052750
0.066667	1	-0.053500
0.083333	1	-0.054000
0.100000	1	-0.054750
0.116667	1	-0.055750
0.133333	1	-0.056625
0.150000	1	-0.057250
0.166667	1	-0.057875
0.183333	1	-0.057875
0.200000	1	-0.058625
0.216667	1	-0.059000
0.233333	1	-0.058875
0.250000	1	-0.058500
0.266667	1	-0.058875
0.283333	1	-0.060125
0.300000	1	-0.063125
0.316667	1	-0.067000
0.333333	1	-0.069500
0.350000	1	-0.068250
0.366667	1	-0.065000
0.383333	1	-0.061000
0.400000	1	-0.057125
0.416667	1	-0.053125
0.433333	1	-0.049500
0.450000	1	-0.045750
0.466667	1	-0.043250
0.483333	1	-0.042125
0.500000	1	-0.042500
0.516667	1	-0.043875
0.533333	1	-0.046125
0.550000	1	-0.047625
0.566667	1	-0.048250
0.583333	1	-0.048125
0.600000	1	-0.048250
0.616667	1	-0.048375
0.633333	1	-0.048500
0.650000	1	-0.048375
0.666667	1	-0.047500
0.683333	1	-0.046750
0.700000	1	-0.046625
0.716667	1	-0.046125
0.733333	1	-0.046000
0.750000	1	-0.045750
0.766667	1	-0.044750
0.783333	1	-0.043875
0.800000	1	-0.043750
0.816667	1	-0.043375
0.833333	1	-0.042875
0.850000	1	-0.041875
0.866667	1	-0.041125
0.883333	1	-0.040750
0.900000	1	-0.040000
0.916667	1	-0.039875
0.933333	1	-0.038875
0.950000	1	-0.038125
0.966667	1	-0.037750
0.983333	1	-0.037625
1.000000	1	-0.037375
1.016667	1	-0.036750
1.033333	1	-0.036000
1.050000	1	-0.035250
1.066667	1	-0.034500
1.083333	1	-0.034500
1.100000	1	-0.035125
1.116667	1	-0.034625
1.133333	1	-0.034500
1.150000	1	-0.034500
1.166667	1	-0.034750
1.183333	1	-0.035250
1.200000	1	-0.035375
1.216667	1	-0.036250
1.233333	1	-0.036375
1.250000	1	-0.036625
1.266667	1	-0.036875
1.283333	1	-0.037500
1.300000	1	-0.038125
1.316667	1	-0.038750
1.333333	1	-0.039875
1.350000	1	-0.040250
1.366667	1	-0.040875
1.383333	1	-0.041500
1.400000	1	-0.042375
1.416667	1	-0.042750
1.433333	1	-0.043625
1.450000	1	-0.044000
1.466667	1	-0.044000
1.483333	1	-0.044375
1.500000	1	-0.044625
1.516667	1	-0.045000
1.533333	1	-0.045375
1.550000	1	-0.045625
1.566667	1	-0.045375
1.583333	1	-0.045625
1.600000	1	-0.045250
1.616667	1	-0.045250
1.633333	1	-0.044750
1.650000	1	-0.044875
1.666667	1	-0.044250
1.683333	1	-0.044500
1.700000	1	-0.044625
1.716667	1	-0.044750
1.733333	1	-0.044250
1.750000	1	-0.044000
1.766667	1	-0.043625
1.783333	1	-0.043500
1.800000	1	-0.043250
1.816667	1	-0.043375
1.833333	1	-0.043000
1.850000	1	-0.042750
1.866667	1	-0.043000
1.883333	1	-0.043625
1.900000	1	-0.043500
1.916667	1	-0.044625
1.933333	1	-0.044750
1.950000	1	-0.045125
1.966667	1	-0.045375
1.983333	1	-0.044875
2.000000	1	-0.045125
2.016667	1	-0.045625
2.033333	1	-0.046375
2.050000	1	-0.046625
2.066667	1	-0.047000
2.083333	1	-0.047000
2.100000	1	-0.047000
2.116667	1	-0.047500
2.133333	1	-0.047250
2.150000	1	-0.047375
2.166667	1	-0.047500
2.183333	1	-0.047500
2.200000	1	-0.047250
2.216667	1	-0.047250
2.233333	1	-0.046875
2.250000	1	-0.046250
2.266667	1	-0.046500
2.283333	1	-0.046375
2.300000	1	-0.046500
2.316667	1	-0.046125
2.333333	1	-0.046500
2.350000	1	-0.046250
2.366667	1	-0.045750
2.383333	1	-0.045250
2.400000	1	-0.044125
2.416667	1	-0.044250
2.433333	1	-0.043500
2.450000	1	-0.042375
2.466667	1	-0.041625
2.483333	1	-0.041625
2.500000	1	-0.040750
2.516667	1	-0.040375
2.533333	1	-0.040500
2.550000	1	-0.039875
2.566667	1	-0.038625
2.583333	1	-0.037250
2.600000	1	-0.036250
2.616667	1	-0.035125
2.633333	1	-0.034250
2.650000	1	-0.033500
2.666667	1	-0.033250
2.683333	1	-0.032625
2.700000	1	-0.031875
2.716667	1	-0.031250
2.733333	1	-0.030750
2.750000	1	-0.029750
2.766667	1	-0.028750
2.783333	1	-0.027875
2.800000	1	-0.027750
2.816667	1	-0.026500
2.833333	1	-0.025750
2.850000	1	-0.025500
2.866667	1	-0.025375
2.883333	1	-0.024375
2.900000	1	-0.024500
2.916667	1	-0.024750
2.933333	1	-0.024750
2.950000	1	-0.024625
2.966667	1	-0.024750
2.983333	1	-0.024750
3.000000	1	-0.024375
3.016667	1	-0.024625
3.033333	1	-0.025500
3.050000	1	-0.026125
3.066667	1	-0.026125
3.083333	1	-0.026000
3.100000	1	-0.026875
3.116667	1	-0.027750
3.133333	1	-0.028500
3.150000	1	-0.029500
3.166667	1	-0.029875
3.183333	1	-0.030125
3.200000	1	-0.031250
3.216667	1	-0.031750
3.233333	1	-0.032750
3.250000	1	-0.034250
3.266667	1	-0.034375
3.283333	1	-0.035250
3.300000	1	-0.036375
3.316667	1	-0.037750
3.333333	1	-0.038875
3.350000	1	-0.039125
3.366667	1	-0.039875
3.383333	1	-0.039625
3.400000	1	-0.039625
3.416667	1	-0.040250
3.433333	1	-0.041250
3.450000	1	-0.041875
3.466667	1	-0.042875
3.483333	1	-0.043500
3.500000	1	-0.044000
3.516667	1	-0.044500
3.533333	1	-0.044750
3.550000	1	-0.045375
3.566667	1	-0.046125
3.583333	1	-0.046250
3.600000	1	-0.046250
3.616667	1	-0.047125
3.633333	1	-0.047375
3.650000	1	-0.048125
3.666667	1	-0.047500
3.683333	1	-0.047375
3.700000	1	-0.047500
3.716667	1	-0.047625
3.733333	1	-0.047750
3.750000	1	-0.048375
3.766667	1	-0.048500
3.783333	1	-0.048000
3.800000	1	-0.047625
3.816667	1	-0.047375
3.833333	1	-0.047250
3.850000	1	-0.046875
3.866667	1	-0.046250
3.883333	1	-0.045875
3.900000	1	-0.044625
3.916667	1	-0.044250
3.933333	1	-0.043625
3.950000	1	-0.043750
3.966667	1	-0.043250
3.983333	1	-0.041750
4.000000	1	-0.041125
4.016667	1	-0.040250
4.033333	1	-0.039500
4.050000	1	-0.038500
4.066667	1	-0.037875
4.083333	1	-0.037500
4.100000	1	-0.036875
4.116667	1	-0.036500
4.133333	1	-0.035625
4.150000	1	-0.035000
4.166667	1	-0.034375
4.183333	1	-0.033625
4.200000	1	-0.032625
4.216667	1	-0.031625
4.233333	1	-0.031125
4.250000	1	-0.031250
4.266667	1	-0.031250
4.283333	1	-0.031500
4.300000	1	-0.031500
4.316667	1	-0.031625
4.333333	1	-0.031750
4.350000	1	-0.031500
4.366667	1	-0.031125
4.383333	1	-0.030875
4.400000	1	-0.030125
4.416667	1	-0.030000
4.433333	1	-0.030125
4.450000	1	-0.029875
4.466667	1	-0.029500
4.483333	1	-0.029625
4.500000	1	-0.029625
4.516667	1	-0.029250
4.533333	1	-0.029125
4.550000	1	-0.028375
4.566667	1	-0.027750
4.583333	1	-0.027500
4.600000	1	-0.026625
4.616667	1	-0.026375
4.633333	1	-0.025875
4.650000	1	-0.025250
4.666667	1	-0.025000
4.683333	1	-0.024500
4.700000	1	-0.023000
4.716667	1	-0.021625
4.733333	1	-0.020000
4.750000	1	-0.018875
4.766667	1	-0.017375
4.783333	1	-0.014875
4.800000	1	-0.013500
4.816667	1	-0.011500
4.833333	1	-0.009625
4.850000	1	-0.007375
4.866667	1	-0.005625
4.883333	1	-0.003875
4.900000	1	-0.002000
4.916667	1	-0.000875
4.933333	1	0.000375
4.950000	1	0.002375
4.966667	1	0.004125
4.983333	1	0.006125
5.000000	1	0.007625
5.016667	1	0.009500
5.033333	1	0.011125
5.050000	1	0.012500
5.066667	1	0.013500
5.083333	1	0.014750
5.100000	1	0.015375
5.116667	1	0.015875
5.133333	1	0.016750
5.150000	1	0.017625
5.166667	1	0.017750
5.183333	1	0.017375
5.200000	1	0.017000
5.216667	1	0.017000
5.233333	1	0.016500
5.250000	1	0.016500
5.266667	1	0.016125
5.283333	1	0.015375
5.300000	1	0.014625
5.316667	1	0.013500
5.333333	1	0.012500
5.350000	1	0.011750
5.366667	1	0.010875
5.383333	1	0.009750
5.400000	1	0.008625
5.416667	1	0.007750
5.433333	1	0.006375
5.450000	1	0.004875
5.466667	1	0.004125
5.483333	1	0.002875
5.500000	1	0.001875
5.516667	1	0.001000
5.533333	1	0.000250
5.550000	1	-0.001125
5.566667	1	-0.002250
5.583333	1	-0.002875
5.600000	1	-0.004375
5.616667	1	-0.005750
5.633333	1	-0.006750
5.650000	1	-0.008375
5.666667	1	-0.009375
5.683333	1	-0.009750
5.700000	1	-0.010000
5.716667	1	-0.010750
5.733333	1	-0.011500
5.750000	1	-0.012000
5.766667	1	-0.012250
5.783333	1	-0.011875
5.800000	1	-0.011625
5.816667	1	-0.010750
5.833333	1	-0.010750
5.850000	1	-0.010500
5.866667	1	-0.010125
5.883333	1	-0.009375
5.900000	1	-0.009000
5.916667	1	-0.008625
5.933333	1	-0.008500
5.950000	1	-0.007750
5.966667	1	-0.006625
5.983333	1	-0.006125
6.000000	1	-0.005250
6.016667	1	-0.003750
6.033333	1	-0.003625
6.050000	1	-0.003000
6.066667	1	-0.001750
6.083333	1	-0.001125
6.100000	1	0.000000
6.116667	1	0.001000
6.133333	1	0.002250
6.150000	1	0.003625
6.166667	1	0.005125
6.183333	1	0.006625
6.200000	1	0.007500
6.216667	1	0.009375
6.233333	1	0.011375
6.250000	1	0.012875
6.266667	1	0.014500
6.283333	1	0.016125
6.300000	1	0.018375
6.316667	1	0.019750
6.333333	1	0.021250
6.350000	1	0.023250
6.366667	1	0.025500
6.383333	1	0.027625
6.400000	1	0.029875
6.416667	1	0.031125
6.433333	1	0.033500
6.450000	1	0.035500
6.466667	1	0.037750
6.483333	1	0.039375
6.500000	1	0.041375
6.516667	1	0.043000
6.533333	1	0.044750
6.550000	1	0.045625
6.566667	1	0.046875
6.583333	1	0.048500
6.600000	1	0.049625
6.616667	1	0.049750
6.633333	1	0.050875
6.650000	1	0.051500
6.666667	1	0.051375
6.683333	1	0.051250
6.700000	1	0.050375
6.716667	1	0.050500
6.733333	1	0.049500
6.750000	1	0.049250
6.766667	1	0.048500
6.783333	1	0.047500
6.800000	1	0.045750
6.816667	1	0.045125
6.833333	1	0.043500
6.850000	1	0.042250
6.866667	1	0.040625
6.883333	1	0.039250
6.900000	1	0.037875
6.916667	1	0.036375
6.933333	1	0.034625
6.950000	1	0.033000
6.966667	1	0.031500
6.983333	1	0.029875
7.000000	1	0.028375
7.016667	1	0.026125
7.033333	1	0.023750
7.050000	1	0.021750
7.066667	1	0.019500
7.083333	1	0.017375
7.100000	1	0.015250
7.116667	1	0.013250
7.133333	1	0.011000
7.150000	1	0.009875
7.166667	1	0.008250
7.183333	1	0.006875
7.200000	1	0.005000
7.216667	1	0.002875
7.233333	1	0.001750
7.250000	1	0.000250
7.266667	1	-0.001250
7.283333	1	-0.002875
7.300000	1	-0.004625
7.316667	1	-0.006250
7.333333	1	-0.007750
7.350000	1	-0.009875
7.366667	1	-0.011000
7.383333	1	-0.011875
7.400000	1	-0.013250
7.416667	1	-0.014625
7.433333	1	-0.015750
7.450000	1	-0.016500
7.466667	1	-0.017000
7.483333	1	-0.018750
7.500000	1	-0.019375
7.516667	1	-0.020125
7.533333	1	-0.020875
7.550000	1	-0.021500
7.566667	1	-0.022000
7.583333	1	-0.022375
7.600000	1	-0.022875
7.616667	1	-0.023250
7.633333	1	-0.024500
7.650000	1	-0.025375
7.666667	1	-0.025875
7.683333	1	-0.026375
7.700000	1	-0.026500
7.716667	1	-0.026750
7.733333	1	-0.027250
7.750000	1	-0.027500
7.766667	1	-0.028125
7.783333	1	-0.028125
7.800000	1	-0.028250
7.816667	1	-0.028250
7.833333	1	-0.028625
7.850000	1	-0.028500
7.866667	1	-0.028375
7.883333	1	-0.028500
7.900000	1	-0.028750
7.916667	1	-0.029500
7.933333	1	-0.028875
7.950000	1	-0.029000
7.966667	1	-0.028500
7.983333	1	-0.028125
8.000000	1	-0.028500
8.016667	1	-0.028750
8.033333	1	-0.028500
8.050000	1	-0.028875
8.066667	1	-0.029000
8.083333	1	-0.029875
8.100000	1	-0.030125
8.116667	1	-0.029875
8.133333	1	-0.029250
8.150000	1	-0.029375
8.166667	1	-0.029000
8.183333	1	-0.028875
8.200000	1	-0.028250
8.216667	1	-0.028125
8.233333	1	-0.028000
8.250000	1	-0.027875
8.266667	1	-0.027750
8.283333	1	-0.027250
8.300000	1	-0.026625
8.316667	1	-0.026375
8.333333	1	-0.025500
8.350000	1	-0.024500
8.366667	1	-0.023250
8.383333	1	-0.022250
8.400000	1	-0.021500
8.416667	1	-0.020500
8.433333	1	-0.018875
8.450000	1	-0.018250
8.466667	1	-0.016750
8.483333	1	-0.015250
8.500000	1	-0.014125
8.516667	1	-0.012375
8.533333	1	-0.010500
8.550000	1	-0.008750
8.566667	1	-0.007000
8.583333	1	-0.006250
8.600000	1	-0.004625
8.616667	1	-0.003000
8.633333	1	-0.001000
8.650000	1	0.000750
8.666667	1	0.001750
8.683333	1	0.002875
8.700000	1	0.005000
8.716667	1	0.006250
8.733333	1	0.007375
8.750000	1	0.008875
8.766667	1	0.009750
8.783333	1	0.011625
8.800000	1	0.012750
8.816667	1	0.013375
8.833333	1	0.014375
8.850000	1	0.014500
8.866667	1	0.015250
8.883333	1	0.015750
8.900000	1	0.015875
8.916667	1	0.016500
8.933333	1	0.017000
8.950000	1	0.017125
8.966667	1	0.017750
8.983333	1	0.017625
9.000000	1	0.016875
9.016667	1	0.016375
9.033333	1	0.016500
9.050000	1	0.016000
9.066667	1	0.015625
9.083333	1	0.015875
9.100000	1	0.015750
9.116667	1	0.015625
9.133333	1	0.015000
9.150000	1	0.014500
9.166667	1	0.013750
9.183333	1	0.012875
9.200000	1	0.012250
9.216667	1	0.011875
9.233333	1	0.011500
9.250000	1	0.010750
9.266667	1	0.010375
9.283333	1	0.009875
9.300000	1	0.009750
9.316667	1	0.009750
9.333333	1	0.009125
9.350000	1	0.009125
9.366667	1	0.009125
9.383333	1	0.009500
9.400000	1	0.009250
9.416667	1	0.009500
9.433333	1	0.010375
9.450000	1	0.011875
9.466667	1	0.013250
9.483333	1	0.015375
9.500000	1	0.018000
9.516667	1	0.020625
9.533333	1	0.024500
9.550000	1	0.029125
9.566667	1	0.035000
9.583333	1	0.042125
9.600000	1	0.050375
9.616667	1	0.060250
9.633333	1	0.071750
9.650000	1	0.086000
9.666667	1	0.101500
9.683333	1	0.119625
9.700000	1	0.139750
9.716667	1	0.161125
9.733333	1	0.183875
9.750000	1	0.206250
9.766667	1	0.228250
9.783333	1	0.248250
9.800000	1	0.265250
9.816667	1	0.276500
9.833333	1	0.282500
9.850000	1	0.281125
9.866667	1	0.269125
9.883333	1	0.244500
9.900000	1	0.209125
9.916667	1	0.173375
9.933333	1	0.163125
9.950000	1	0.220875
9.966667	1	0.405000
9.983333	1	0.780875
10.000000	1	1.412625
10.016667	1	2.356250
10.033333	1	3.654125
10.050000	1	5.334750
10.066667	1	7.412750
10.083333	1	9.889750
10.100000	1	12.752125
10.116667	1	15.971375
10.133333	1	19.503375
10.150000	1	23.283625
10.166667	1	27.224000
10.183333	1	31.209375
10.200000	1	35.095750
10.216667	1	38.710000
10.233333	1	41.857250
10.250000	1	44.340000
10.266667	1	45.986625
10.283333	1	46.680250
10.300000	1	46.380500
10.316667	1	45.136250
10.333333	1	43.076000
10.350000	1	40.385750
10.366667	1	37.279250
10.383333	1	33.967250
10.400000	1	30.629500
10.416667	1	27.406375
10.433333	1	24.394500
10.450000	1	21.649625
10.466667	1	19.192250
10.483333	1	17.019375
10.500000	1	15.114125
10.516667	1	13.451375
10.533333	1	12.003500
10.550000	1	10.739750
10.566667	1	9.635000
10.583333	1	8.666125
10.600000	1	7.813375
10.616667	1	7.060875
10.633333	1	6.397250
10.650000	1	5.812125
10.666667	1	5.296375
10.683333	1	4.842375
10.700000	1	4.443125
10.716667	1	4.092000
10.733333	1	3.783625
10.750000	1	3.510750
10.766667	1	3.270250
10.783333	1	3.056875
10.800000	1	2.867000
10.816667	1	2.697250
10.833333	1	2.544750
10.850000	1	2.407500
10.866667	1	2.282875
10.883333	1	2.169125
10.900000	1	2.065500
10.916667	1	1.971250
10.933333	1	1.885250
10.950000	1	1.806250
10.966667	1	1.734125
10.983333	1	1.668500
11.000000	1	1.608250
11.016667	1	1.553125
11.033333	1	1.501875
11.050000	1	1.454750
11.066667	1	1.411500
11.083333	1	1.371250
11.100000	1	1.334875
11.116667	1	1.301250
11.133333	1	1.269500
11.150000	1	1.240375
11.166667	1	1.213375
11.183333	1	1.188250
11.200000	1	1.164000
11.216667	1	1.141750
11.233333	1	1.120875
11.250000	1	1.101750
11.266667	1	1.083875
11.283333	1	1.066125
11.300000	1	1.049625
11.316667	1	1.034000
11.333333	1	1.020125
11.350000	1	1.006125
11.366667	1	0.993625
11.383333	1	0.981750
11.400000	1	0.971625
11.416667	1	0.962250
11.433333	1	0.953875
11.450000	1	0.946375
11.466667	1	0.940250
11.483333	1	0.936000
11.500000	1	0.932125
11.516667	1	0.930000
11.533333	1	0.928500
11.550000	1	0.927500
11.566667	1	0.927375
11.583333	1	0.928125
11.600000	1	0.929625
11.616667	1	0.931125
11.633333	1	0.933375
11.650000	1	0.936625
11.666667	1	0.939000
11.683333	1	0.940875
11.700000	1	0.942750
11.716667	1	0.944375
11.733333	1	0.945625
11.750000	1	0.946375
11.766667	1	0.947125
11.783333	1	0.947500
11.800000	1	0.949000
11.816667	1	0.949875
11.833333	1	0.951875
11.850000	1	0.953875
11.866667	1	0.956875
11.883333	1	0.961750
11.900000	1	0.968250
11.916667	1	0.976875
11.933333	1	0.987125
11.950000	1	1.000000
11.966667	1	1.013750
11.983333	1	1.031250
12.000000	1	1.051750
12.016667	1	1.074500
12.033333	1	1.101125
12.050000	1	1.130750
12.066667	1	1.164625
12.083333	1	1.203625
12.100000	1	1.249375
12.116667	1	1.303250
12.133333	1	1.369250
12.150000	1	1.447250
12.166667	1	1.541750
12.183333	1	1.653625
12.200000	1	1.785750
12.216667	1	1.939000
12.233333	1	2.116750
12.250000	1	2.319000
12.266667	1	2.549500
12.283333	1	2.808625
12.300000	1	3.097625
12.316667	1	3.419875
12.333333	1	3.778750
12.350000	1	4.175500
12.366667	1	4.614500
12.383333	1	5.097750
12.400000	1	5.625250
12.416667	1	6.195500
12.433333	1	6.803500
12.450000	1	7.442875
12.466667	1	8.100000
12.483333	1	8.760500
12.500000	1	9.401625
12.516667	1	10.000250
12.533333	1	10.532125
12.550000	1	10.978750
12.566667	1	11.325125
12.583333	1	11.566750
12.600000	1	11.706750
12.616667	1	11.753875
12.633333	1	11.720500
12.650000	1	11.621625
12.666667	1	11.470500
12.683333	1	11.278500
12.700000	1	11.057375
12.716667	1	10.815250
12.733333	1	10.561125
12.750000	1	10.301500
12.766667	1	10.040375
12.783333	1	9.781000
12.800000	1	9.526500
12.816667	1	9.278375
12.833333	1	9.038375
12.850000	1	8.808125
12.866667	1	8.585875
12.883333	1	8.370250
12.900000	1	8.161000
12.916667	1	7.957000
12.933333	1	7.757750
12.950000	1	7.562000
12.966667	1	7.368500
12.983333	1	7.174875
13.000000	1	6.980875
13.016667	1	6.785000
13.033333	1	6.585375
13.050000	1	6.380500
13.066667	1	6.168000
13.083333	1	5.946875
13.100000	1	5.714750
13.116667	1	5.469250
13.133333	1	5.208250
13.150000	1	4.929250
13.166667	1	4.629500
13.183333	1	4.307125
13.200000	1	3.961250
13.216667	1	3.594250
13.233333	1	3.214875
13.250000	1	2.837250
13.266667	1	2.480750
13.283333	1	2.163875
13.300000	1	1.897000
13.316667	1	1.680375
13.333333	1	1.507625
13.350000	1	1.370250
13.366667	1	1.260875
13.383333	1	1.172125
13.400000	1	1.099750
13.416667	1	1.039500
13.433333	1	0.989000
13.450000	1	0.946375
13.466667	1	0.909625
13.483333	1	0.877750
13.500000	1	0.850750
13.516667	1	0.828625
13.533333	1	0.809250
13.550000	1	0.792875
13.566667	1	0.780000
13.583333	1	0.769125
13.600000	1	0.762125
13.616667	1	0.757750
13.633333	1	0.753875
13.650000	1	0.752375
13.666667	1	0.750375
13.683333	1	0.748500
13.700000	1	0.746500
13.716667	1	0.744125
13.733333	1	0.739750
13.750000	1	0.734750
13.766667	1	0.729375
13.783333	1	0.722125
13.800000	1	0.713375
13.816667	1	0.704000
13.833333	1	0.693375
13.850000	1	0.680875
13.866667	1	0.668625
13.883333	1	0.655125
13.900000	1	0.641875
13.916667	1	0.628375
13.933333	1	0.614750
13.950000	1	0.601625
13.966667	1	0.589250
13.983333	1	0.577250
14.000000	1	0.565875
14.016667	1	0.555500
14.033333	1	0.546625
14.050000	1	0.537875
14.066667	1	0.530625
14.083333	1	0.524125
14.100000	1	0.518625
14.116667	1	0.515000
14.133333	1	0.512625
14.150000	1	0.511625
14.166667	1	0.512625
14.183333	1	0.515375
14.200000	1	0.520625
14.216667	1	0.528500
14.233333	1	0.539375
14.250000	1	0.554375
14.266667	1	0.572625
14.283333	1	0.597000
14.300000	1	0.627375
14.316667	1	0.665750
14.333333	1	0.712125
14.350000	1	0.768125
14.366667	1	0.836000
14.383333	1	0.916250
14.400000	1	1.011125
14.416667	1	1.122250
14.433333	1	1.251375
14.450000	1	1.401750
14.466667	1	1.576125
14.483333	1	1.776000
14.500000	1	2.005375
14.516667	1	2.268000
14.533333	1	2.569875
14.550000	1	2.916500
14.566667	1	3.316500
14.583333	1	3.780625
14.600000	1	4.322250
14.616667	1	4.960500
14.633333	1	5.720250
14.650000	1	6.630375
14.666667	1	7.726250
14.683333	1	9.047625
14.700000	1	10.635250
14.716667	1	12.531125
14.733333	1	14.769875
14.750000	1	17.378625
14.766667	1	20.369000
14.783333	1	23.727000
14.800000	1	27.420875
14.816667	1	31.392125
14.833333	1	35.555375
14.850000	1	39.800375
14.866667	1	43.997375
14.883333	1	48.004125
14.900000	1	51.677250
14.916667	1	54.883500
14.933333	1	57.507750
14.950000	1	59.463875
14.966667	1	60.695500
14.983333	1	61.183750
15.000000	1	60.944375
15.016667	1	60.020875
15.033333	1	58.479750
15.050000	1	56.404500
15.066667	1	53.892125
15.083333	1	51.042625
15.100000	1	47.955125
15.116667	1	44.721500
15.133333	1	41.427625
15.150000	1	38.146625
15.166667	1	34.937750
15.183333	1	31.849500
15.200000	1	28.913875
15.216667	1	26.152875
15.233333	1	23.578750
15.250000	1	21.198250
15.266667	1	19.011250
15.283333	1	17.016375
15.300000	1	15.206750
15.316667	1	13.574125
15.333333	1	12.107625
15.350000	1	10.797750
15.366667	1	9.631500
15.383333	1	8.598000
15.400000	1	7.684375
15.416667	1	6.877625
15.433333	1	6.169875
15.450000	1	5.548750
15.466667	1	5.006000
15.483333	1	4.533375
15.500000	1	4.123875
15.516667	1	3.770500
15.533333	1	3.466500
15.550000	1	3.204875
15.566667	1	2.981000
15.583333	1	2.789500
15.600000	1	2.625000
15.616667	1	2.483750
15.633333	1	2.359875
15.650000	1	2.250750
15.666667	1	2.152625
15.683333	1	2.063500
15.700000	1	1.979625
15.716667	1	1.900875
15.733333	1	1.826125
15.750000	1	1.755000
15.766667	1	1.686375
15.783333	1	1.620375
15.800000	1	1.557375
15.816667	1	1.496750
15.833333	1	1.438500
15.850000	1	1.383625
15.866667	1	1.331875
15.883333	1	1.283000
15.900000	1	1.236250
15.916667	1	1.193625
15.933333	1	1.153125
15.950000	1	1.115625
15.966667	1	1.081125
15.983333	1	1.049000
16.000000	1	1.020250
16.016667	1	0.994500
16.033333	1	0.971375
16.050000	1	0.950375
16.066667	1	0.933000
16.083333	1	0.917750
16.100000	1	0.904250
16.116667	1	0.893125
16.133333	1	0.884500
16.150000	1	0.878250
16.166667	1	0.873125
16.183333	1	0.869000
16.200000	1	0.865375
16.216667	1	0.862125
16.233333	1	0.858875
16.250000	1	0.855875
16.266667	1	0.851875
16.283333	1	0.846875
16.300000	1	0.841875
16.316667	1	0.836000
16.333333	1	0.829125
16.350000	1	0.821500
16.366667	1	0.813750
16.383333	1	0.805375
16.400000	1	0.797250
16.416667	1	0.789250
16.433333	1	0.780625
16.450000	1	0.773000
16.466667	1	0.766500
16.483333	1	0.760625
16.500000	1	0.755125
16.516667	1	0.751000
16.533333	1	0.747750
16.550000	1	0.745375
16.566667	1	0.744000
16.583333	1	0.743125
16.600000	1	0.743125
16.616667	1	0.744375
16.633333	1	0.747000
16.650000	1	0.749375
16.666667	1	0.752875
16.683333	1	0.756000
16.700000	1	0.760500
16.716667	1	0.765125
16.733333	1	0.770500
16.750000	1	0.775125
16.766667	1	0.779375
16.783333	1	0.783125
16.800000	1	0.786250
16.816667	1	0.789375
16.833333	1	0.791625
16.850000	1	0.792875
16.866667	1	0.793625
16.883333	1	0.793125
16.900000	1	0.792000
16.916667	1	0.790750
16.933333	1	0.789000
16.950000	1	0.788125
16.966667	1	0.787375
16.983333	1	0.787250
17.000000	1	0.788000
17.016667	1	0.789125
17.033333	1	0.790750
17.050000	1	0.792125
17.066667	1	0.794125
17.083333	1	0.795000
17.100000	1	0.796125
17.116667	1	0.797000
17.133333	1	0.796750
17.150000	1	0.795750
17.166667	1	0.794000
17.183333	1	0.791125
17.200000	1	0.787625
17.216667	1	0.782750
17.233333	1	0.777625
17.250000	1	0.770500
17.266667	1	0.762625
17.283333	1	0.754875
17.300000	1	0.747000
17.316667	1	0.738750
17.333333	1	0.730125
17.350000	1	0.722875
17.366667	1	0.715375
17.383333	1	0.708750
17.400000	1	0.702375
17.416667	1	0.697375
17.433333	1	0.692500
17.450000	1	0.689125
17.466667	1	0.686375
17.483333	1	0.685250
17.500000	1	0.686125
17.516667	1	0.688000
17.533333	1	0.692250
17.550000	1	0.697500
17.566667	1	0.705250
17.583333	1	0.714000
17.600000	1	0.724500
17.616667	1	0.735750
17.633333	1	0.748375
17.650000	1	0.762125
17.666667	1	0.777125
17.683333	1	0.792500
17.700000	1	0.808750
17.716667	1	0.826125
17.733333	1	0.842250
17.750000	1	0.859125
17.766667	1	0.875250
17.783333	1	0.890750
17.800000	1	0.905125
17.816667	1	0.918125
17.833333	1	0.929375
17.850000	1	0.938625
17.866667	1	0.945625
17.883333	1	0.951000
17.900000	1	0.954500
17.916667	1	0.956000
17.933333	1	0.954375
17.950000	1	0.951000
17.966667	1	0.945125
17.983333	1	0.937250
18.000000	1	0.927750
18.016667	1	0.916500
18.033333	1	0.904125
18.050000	1	0.890375
18.066667	1	0.875875
18.083333	1	0.860500
18.100000	1	0.845750
18.116667	1	0.830125
18.133333	1	0.814500
18.150000	1	0.798250
18.166667	1	0.783000
18.183333	1	0.767875
18.200000	1	0.754000
18.216667	1	0.740125
18.233333	1	0.728000
18.250000	1	0.716375
18.266667	1	0.706250
18.283333	1	0.696250
18.300000	1	0.687375
18.316667	1	0.679750
18.333333	1	0.673125
18.350000	1	0.667500
18.366667	1	0.663125
18.383333	1	0.659875
18.400000	1	0.656500
18.416667	1	0.654375
18.433333	1	0.653500
18.450000	1	0.652625
18.466667	1	0.652375
18.483333	1	0.652000
18.500000	1	0.652000
18.516667	1	0.652625
18.533333	1	0.653125
18.550000	1	0.653375
18.566667	1	0.655500
18.583333	1	0.657000
18.600000	1	0.659125
18.616667	1	0.661375
18.633333	1	0.663500
18.650000	1	0.666625
18.666667	1	0.670625
18.683333	1	0.675000
18.700000	1	0.679625
18.716667	1	0.685125
18.733333	1	0.691250
18.750000	1	0.697125
18.766667	1	0.704375
18.783333	1	0.712500
18.800000	1	0.721125
18.816667	1	0.730750
18.833333	1	0.741000
18.850000	1	0.751750
18.866667	1	0.764500
18.883333	1	0.778375
18.900000	1	0.793625
18.916667	1	0.810500
18.933333	1	0.829125
18.950000	1	0.850000
18.966667	1	0.873125
18.983333	1	0.899750
19.000000	1	0.928125
19.016667	1	0.960250
19.033333	1	0.994500
19.050000	1	1.031125
19.066667	1	1.070250
19.083333	1	1.111875
19.100000	1	1.154250
19.116667	1	1.197125
19.133333	1	1.240000
19.150000	1	1.281750
19.166667	1	1.321375
19.183333	1	1.357875
19.200000	1	1.390875
19.216667	1	1.419250
19.233333	1	1.442250
19.250000	1	1.459625
19.266667	1	1.470250
19.283333	1	1.475125
19.300000	1	1.472250
19.316667	1	1.463875
19.333333	1	1.448750
19.350000	1	1.427625
19.366667	1	1.400875
19.383333	1	1.369375
19.400000	1	1.333625
19.416667	1	1.294000
19.433333	1	1.251625
19.450000	1	1.207125
19.466667	1	1.161500
19.483333	1	1.114750
19.500000	1	1.068500
19.516667	1	1.021375
19.533333	1	0.976625
19.550000	1	0.932625
19.566667	1	0.891000
19.583333	1	0.851375
19.600000	1	0.814750
19.616667	1	0.780875
19.633333	1	0.749000
19.650000	1	0.720500
19.666667	1	0.695250
19.683333	1	0.674000
19.700000	1	0.656125
19.716667	1	0.642000
19.733333	1	0.631750
19.750000	1	0.625000
19.766667	1	0.622500
19.783333	1	0.624250
19.800000	1	0.629875
19.816667	1	0.638875
19.833333	1	0.650375
19.850000	1	0.665750
19.866667	1	0.683625
19.883333	1	0.704375
19.900000	1	0.726375
19.916667	1	0.749625
19.933333	1	0.773750
19.950000	1	0.799125
19.966667	1	0.823000
19.983333	1	0.846000
20.000000	1	0.868625
20.016667	1	0.890375
20.033333	1	0.911125
20.050000	1	0.930000
20.066667	1	0.947500
20.083333	1	0.963625
20.100000	1	0.980000
20.116667	1	0.996000
20.133333	1	1.012125
20.150000	1	1.028750
20.166667	1	1.048125
20.183333	1	1.069625
20.200000	1	1.094125
20.216667	1	1.122250
20.233333	1	1.155625
20.250000	1	1.195000
20.266667	1	1.239250
20.283333	1	1.290375
20.300000	1	1.348625
20.316667	1	1.412500
20.333333	1	1.483250
20.350000	1	1.558875
20.366667	1	1.638125
20.383333	1	1.720125
20.400000	1	1.803875
20.416667	1	1.885625
20.433333	1	1.965750
20.450000	1	2.039875
20.466667	1	2.107000
20.483333	1	2.166000
20.500000	1	2.215250
20.516667	1	2.253375
20.533333	1	2.279875
20.550000	1	2.294125
20.566667	1	2.298375
20.583333	1	2.291375
20.600000	1	2.274750
20.616667	1	2.250250
20.633333	1	2.219125
20.650000	1	2.184750
20.666667	1	2.148000
20.683333	1	2.112500
20.700000	1	2.079500
20.716667	1	2.050375
20.733333	1	2.026500
20.750000	1	2.010625
20.766667	1	2.002875
20.783333	1	2.002125
20.800000	1	2.008500
20.816667	1	2.022125
20.833333	1	2.041875
20.850000	1	2.064750
20.866667	1	2.089750
20.883333	1	2.114500
20.900000	1	2.136375
20.916667	1	2.153750
20.933333	1	2.164875
20.950000	1	2.168625
20.966667	1	2.161125
20.983333	1	2.143750
21.000000	1	2.115875
21.016667	1	2.077000
21.033333	1	2.027750
21.050000	1	1.969500
21.066667	1	1.903875
21.083333	1	1.830750
21.100000	1	1.752625
21.116667	1	1.669750
21.133333	1	1.585125
21.150000	1	1.499125
21.166667	1	1.413625
21.183333	1	1.329875
21.200000	1	1.247625
21.216667	1	1.168500
21.233333	1	1.092750
21.250000	1	1.021625
21.266667	1	0.954125
21.283333	1	0.892000
21.300000	1	0.835000
21.316667	1	0.782500
21.333333	1	0.734125
21.350000	1	0.690125
21.366667	1	0.651250
21.383333	1	0.614750
21.400000	1	0.582500
21.416667	1	0.552875
21.433333	1	0.526875
21.450000	1	0.503500
21.466667	1	0.482250
21.483333	1	0.463750
21.500000	1	0.446875
21.516667	1	0.431875
21.533333	1	0.419000
21.550000	1	0.407125
21.566667	1	0.397250
21.583333	1	0.387500
21.600000	1	0.379750
21.616667	1	0.372750
21.633333	1	0.366250
21.650000	1	0.360125
21.666667	1	0.354750
21.683333	1	0.350375
21.700000	1	0.345875
21.716667	1	0.343375
21.733333	1	0.341375
21.750000	1	0.340250
21.766667	1	0.339625
21.783333	1	0.340250
21.800000	1	0.341750
21.816667	1	0.344000
21.833333	1	0.346625
21.850000	1	0.350750
21.866667	1	0.355625
21.883333	1	0.361250
21.900000	1	0.367125
21.916667	1	0.373000
21.933333	1	0.379875
21.950000	1	0.386875
21.966667	1	0.392875
21.983333	1	0.398625
22.000000	1	0.404000
22.016667	1	0.407625
22.033333	1	0.411375
22.050000	1	0.413750
22.066667	1	0.415500
22.083333	1	0.416250
22.100000	1	0.415000
22.116667	1	0.413875
22.133333	1	0.411375
22.150000	1	0.408125
22.166667	1	0.404125
22.183333	1	0.399500
22.200000	1	0.394750
22.216667	1	0.389125
22.233333	1	0.384125
22.250000	1	0.379250
22.266667	1	0.374625
22.283333	1	0.370000
22.300000	1	0.366625
22.316667	1	0.363375
22.333333	1	0.360625
22.350000	1	0.359125
22.366667	1	0.357750
22.383333	1	0.357625
22.400000	1	0.357875
22.416667	1	0.359250
22.433333	1	0.360875
22.450000	1	0.363625
22.466667	1	0.366625
22.483333	1	0.369875
22.500000	1	0.373625
22.516667	1	0.378125
22.533333	1	0.382875
22.550000	1	0.387375
22.566667	1	0.391875
22.583333	1	0.396250
22.600000	1	0.400375
22.616667	1	0.404875
22.633333	1	0.408125
22.650000	1	0.411750
22.666667	1	0.415125
22.683333	1	0.417875
22.700000	1	0.419750
22.716667	1	0.421250
22.733333	1	0.422500
22.750000	1	0.423250
22.766667	1	0.422750
22.783333	1	0.421750
22.800000	1	0.419250
22.816667	1	0.415875
22.833333	1	0.412375
22.850000	1	0.407875
22.866667	1	0.403500
22.883333	1	0.398250
22.900000	1	0.393125
22.916667	1	0.388250
22.933333	1	0.382375
22.950000	1	0.376375
22.966667	1	0.370125
22.983333	1	0.364000
23.000000	1	0.358750
23.016667	1	0.353625
23.033333	1	0.349000
23.050000	1	0.344625
23.066667	1	0.341125
23.083333	1	0.338375
23.100000	1	0.337500
23.116667	1	0.336875
23.133333	1	0.337750
23.150000	1	0.339375
23.166667	1	0.342375
23.183333	1	0.346625
23.200000	1	0.352375
23.216667	1	0.360125
23.233333	1	0.369500
23.250000	1	0.380875
23.266667	1	0.394000
23.283333	1	0.409500
23.300000	1	0.426625
23.316667	1	0.445750
23.333333	1	0.467750
23.350000	1	0.492250
23.366667	1	0.519625
23.383333	1	0.550125
23.400000	1	0.584000
23.416667	1	0.622375
23.433333	1	0.664125
23.450000	1	0.711000
23.466667	1	0.763250
23.483333	1	0.822250
23.500000	1	0.888375
23.516667	1	0.962625
23.533333	1	1.046875
23.550000	1	1.141500
23.566667	1	1.247500
23.583333	1	1.366000
23.600000	1	1.499625
23.616667	1	1.647375
23.633333	1	1.810125
23.650000	1	1.988000
23.666667	1	2.182000
23.683333	1	2.390750
23.700000	1	2.614000
23.716667	1	2.850250
23.733333	1	3.097000
23.750000	1	3.351750
23.766667	1	3.610000
23.783333	1	3.868875
23.800000	1	4.124250
23.816667	1	4.371125
23.833333	1	4.604625
23.850000	1	4.819875
23.866667	1	5.013875
23.883333	1	5.181625
23.900000	1	5.321125
23.916667	1	5.428750
23.933333	1	5.501875
23.950000	1	5.540250
23.966667	1	5.543750
23.983333	1	5.512000
24.000000	1	5.447250
24.016667	1	5.351875
24.033333	1	5.228625
24.050000	1	5.080500
24.066667	1	4.909250
24.083333	1	4.720250
24.100000	1	4.516875
24.116667	1	4.302375
24.133333	1	4.081750
24.150000	1	3.856750
24.166667	1	3.631125
24.183333	1	3.408375
24.200000	1	3.190375
24.216667	1	2.979125
24.233333	1	2.776625
24.250000	1	2.583875
24.266667	1	2.402500
24.283333	1	2.231375
24.300000	1	2.073250
24.316667	1	1.925500
24.333333	1	1.790125
24.350000	1	1.664875
24.366667	1	1.550500
24.383333	1	1.445875
24.400000	1	1.351375
24.416667	1	1.265375
24.433333	1	1.188625
24.450000	1	1.118125
24.466667	1	1.053750
24.483333	1	0.995250
24.500000	1	0.942375
24.516667	1	0.893750
24.533333	1	0.848625
24.550000	1	0.806750
24.566667	1	0.768000
24.583333	1	0.730750
24.600000	1	0.697125
24.616667	1	0.664500
24.633333	1	0.632625
24.650000	1	0.602500
24.666667	1	0.573625
24.683333	1	0.546500
24.700000	1	0.519375
24.716667	1	0.493500
24.733333	1	0.468375
24.750000	1	0.444500
24.766667	1	0.421375
24.783333	1	0.399000
24.800000	1	0.377500
24.816667	1	0.357000
24.833333	1	0.338000
24.850000	1	0.319875
24.866667	1	0.302625
24.883333	1	0.286750
24.900000	1	0.272125
24.916667	1	0.258500
24.933333	1	0.245750
24.950000	1	0.234500
24.966667	1	0.224125
24.983333	1	0.214375
25.000000	1	0.206875
25.016667	1	0.199500
25.033333	1	0.193500
25.050000	1	0.188625
25.066667	1	0.184250
25.083333	1	0.180500
25.100000	1	0.178500
25.116667	1	0.177000
25.133333	1	0.176625
25.150000	1	0.176000
25.166667	1	0.175875
25.183333	1	0.176875
25.200000	1	0.178125
25.216667	1	0.180375
25.233333	1	0.181625
25.250000	1	0.184000
25.266667	1	0.186250
25.283333	1	0.188625
25.300000	1	0.191125
25.316667	1	0.193625
25.333333	1	0.196250
25.350000	1	0.199000
25.366667	1	0.201125
25.383333	1	0.202750
25.400000	1	0.205000
25.416667	1	0.207000
25.433333	1	0.208125
25.450000	1	0.209500
25.466667	1	0.210875
25.483333	1	0.211875
25.500000	1	0.212625
25.516667	1	0.212875
25.533333	1	0.213125
25.550000	1	0.213125
25.566667	1	0.212625
25.583333	1	0.211750
25.600000	1	0.210500
25.616667	1	0.209125
25.633333	1	0.207750
25.650000	1	0.206250
25.666667	1	0.204500
25.683333	1	0.202250
25.700000	1	0.200625
25.716667	1	0.198500
25.733333	1	0.196000
25.750000	1	0.193625
25.766667	1	0.190250
25.783333	1	0.187250
25.800000	1	0.184125
25.816667	1	0.179875
25.833333	1	0.175875
25.850000	1	0.172125
25.866667	1	0.168000
25.883333	1	0.163500
25.900000	1	0.158625
25.916667	1	0.154000
25.933333	1	0.148000
25.950000	1	0.141625
25.966667	1	0.135375
25.983333	1	0.129625
26.000000	1	0.123250
26.016667	1	0.116000
26.033333	1	0.110375
26.050000	1	0.104375
26.066667	1	0.097875
26.083333	1	0.091625
26.100000	1	0.085750
26.116667	1	0.080750
26.133333	1	0.075125
26.150000	1	0.070000
26.166667	1	0.065250
26.183333	1	0.061500
26.200000	1	0.058875
26.216667	1	0.056625
26.233333	1	0.054375
26.250000	1	0.052250
26.266667	1	0.050875
26.283333	1	0.050625
26.300000	1	0.050750
26.316667	1	0.050875
26.333333	1	0.052125
26.350000	1	0.053125
26.366667	1	0.055125
26.383333	1	0.057000
26.400000	1	0.059125
26.416667	1	0.060625
26.433333	1	0.062625
26.450000	1	0.064125
26.466667	1	0.065500
26.483333	1	0.066750
26.500000	1	0.067500
26.516667	1	0.068875
26.533333	1	0.069625
26.550000	1	0.070250
26.566667	1	0.070750
26.583333	1	0.070625
26.600000	1	0.070250
26.616667	1	0.070000
26.633333	1	0.069375
26.650000	1	0.068750
26.666667	1	0.068125
26.683333	1	0.067500
26.700000	1	0.067250
26.716667	1	0.066125
26.733333	1	0.065250
26.750000	1	0.065000
26.766667	1	0.064500
26.783333	1	0.064375
26.800000	1	0.064750
26.816667	1	0.065375
26.833333	1	0.067125
26.850000	1	0.068000
26.866667	1	0.069500
26.883333	1	0.071250
26.900000	1	0.073500
26.916667	1	0.076250
26.933333	1	0.079250
26.950000	1	0.082500
26.966667	1	0.087000
26.983333	1	0.091625
27.000000	1	0.097000
27.016667	1	0.102500
27.033333	1	0.109000
27.050000	1	0.115750
27.066667	1	0.122750
27.083333	1	0.130875
27.100000	1	0.139625
27.116667	1	0.148875
27.133333	1	0.158125
27.150000	1	0.167875
27.166667	1	0.178750
27.183333	1	0.190375
27.200000	1	0.202875
27.216667	1	0.216625
27.233333	1	0.231125
27.250000	1	0.246500
27.266667	1	0.263125
27.283333	1	0.279750
27.300000	1	0.298000
27.316667	1	0.317000
27.333333	1	0.338000
27.350000	1	0.360000
27.366667	1	0.383625
27.383333	1	0.408750
27.400000	1	0.435750
27.416667	1	0.464625
27.433333	1	0.496375
27.450000	1	0.530250
27.466667	1	0.568250
27.483333	1	0.609500
27.500000	1	0.654250
27.516667	1	0.703500
27.533333	1	0.757625
27.550000	1	0.817125
27.566667	1	0.883125
27.583333	1	0.955375
27.600000	1	1.033750
27.616667	1	1.119125
27.633333	1	1.211625
27.650000	1	1.312000
27.666667	1	1.419750
27.683333	1	1.535125
27.700000	1	1.657500
27.716667	1	1.787375
27.733333	1	1.923125
27.750000	1	2.064625
27.766667	1	2.210000
27.783333	1	2.359000
27.800000	1	2.509500
27.816667	1	2.660750
27.833333	1	2.810500
27.850000	1	2.956500
27.866667	1	3.097375
27.883333	1	3.231500
27.900000	1	3.356625
27.916667	1	3.470625
27.933333	1	3.571875
27.950000	1	3.659125
27.966667	1	3.729500
27.983333	1	3.781750
28.000000	1	3.816000
28.016667	1	3.831625
28.033333	1	3.829000
28.050000	1	3.806875
28.066667	1	3.765375
28.083333	1	3.704500
28.100000	1	3.626625
28.116667	1	3.532500
28.133333	1	3.424125
28.150000	1	3.302250
28.166667	1	3.169625
28.183333	1	3.028125
28.200000	1	2.878875
28.216667	1	2.724000
28.233333	1	2.564750
28.250000	1	2.404750
28.266667	1	2.243250
28.283333	1	2.082875
28.300000	1	1.926125
28.316667	1	1.772500
28.333333	1	1.623500
28.350000	1	1.480625
28.366667	1	1.343375
28.383333	1	1.213125
28.400000	1	1.089375
28.416667	1	0.972875
28.433333	1	0.862500
28.450000	1	0.758625
28.466667	1	0.661375
28.483333	1	0.569250
28.500000	1	0.483125
28.516667	1	0.401750
28.533333	1	0.326000
28.550000	1	0.253375
28.566667	1	0.185125
28.583333	1	0.120000
28.600000	1	0.058875
28.616667	1	0.000750
28.633333	1	-0.054750
28.650000	1	-0.108000
28.666667	1	-0.158625
28.683333	1	-0.207000
28.700000	1	-0.252625
28.716667	1	-0.296750
28.733333	1	-0.338125
28.750000	1	-0.377625
28.766667	1	-0.414000
28.783333	1	-0.448375
28.800000	1	-0.480125
28.816667	1	-0.509125
28.833333	1	-0.534625
28.850000	1	-0.556375
28.866667	1	-0.576000
28.883333	1	-0.591000
28.900000	1	-0.603250
28.916667	1	-0.612500
28.933333	1	-0.617250
28.950000	1	-0.619500
28.966667	1	-0.617875
28.983333	1	-0.612750
29.000000	1	-0.604000
29.016667	1	-0.591875
29.033333	1	-0.576875
29.050000	1	-0.559125
29.066667	1	-0.538375
29.083333	1	-0.515875
29.100000	1	-0.491375
29.116667	1	-0.464750
29.133333	1	-0.435500
29.150000	1	-0.405500
29.166667	1	-0.374125
29.183333	1	-0.341750
29.200000	1	-0.308500
29.216667	1	-0.274750
29.233333	1	-0.240125
29.250000	1	-0.206000
29.266667	1	-0.172500
29.283333	1	-0.139375
29.300000	1	-0.105500
29.316667	1	-0.073250
29.333333	1	-0.041750
29.350000	1	-0.011125
29.366667	1	0.018375
29.383333	1	0.046500
29.400000	1	0.074375
29.416667	1	0.100000
29.433333	1	0.124250
29.450000	1	0.147625
29.466667	1	0.168625
29.483333	1	0.188750
29.500000	1	0.207125
29.516667	1	0.223875
29.533333	1	0.239500
29.550000	1	0.252750
29.566667	1	0.264250
29.583333	1	0.274625
29.600000	1	0.283500
29.616667	1	0.291250
29.633333	1	0.297125
29.650000	1	0.302000
29.666667	1	0.305875
29.683333	1	0.307750
29.700000	1	0.308625
29.716667	1	0.308250
29.733333	1	0.306625
29.750000	1	0.304375
29.766667	1	0.301000
29.783333	1	0.297500
29.800000	1	0.293750
29.816667	1	0.289250
29.833333	1	0.284125
29.850000	1	0.278500
29.866667	1	0.272125
29.883333	1	0.266250
29.900000	1	0.260625
29.916667	1	0.254125
29.933333	1	0.248000
29.950000	1	0.242250
29.966667	1	0.236750
29.983333	1	0.230750
30.000000	1	0.225375
30.016667	1	0.220375
30.033333	1	0.214750
30.050000	1	0.209375
30.066667	1	0.204750
30.083333	1	0.200625
30.100000	1	0.196625
30.116667	1	0.192625
30.133333	1	0.188375
30.150000	1	0.184750
30.166667	1	0.181250
30.183333	1	0.178000
30.200000	1	0.175000
30.216667	1	0.173250
30.233333	1	0.170875
30.250000	1	0.169125
30.266667	1	0.166750
30.283333	1	0.164625
30.300000	1	0.162750
30.316667	1	0.161000
30.333333	1	0.159750
30.350000	1	0.158875
30.366667	1	0.158125
30.383333	1	0.157500
30.400000	1	0.158250
30.416667	1	0.158625
30.433333	1	0.158625
30.450000	1	0.159750
30.466667	1	0.160875
30.483333	1	0.162625
30.500000	1	0.164875
30.516667	1	0.167625
30.533333	1	0.169750
30.550000	1	0.172625
30.566667	1	0.175875
30.583333	1	0.179000
30.600000	1	0.182625
30.616667	1	0.186000
30.633333	1	0.189375
30.650000	1	0.192375
30.666667	1	0.195625
30.683333	1	0.198250
30.700000	1	0.200750
30.716667	1	0.203250
30.733333	1	0.204875
30.750000	1	0.205875
30.766667	1	0.206750
30.783333	1	0.206750
30.800000	1	0.206250
30.816667	1	0.205375
30.833333	1	0.203500
30.850000	1	0.201000
30.866667	1	0.196750
30.883333	1	0.192625
30.900000	1	0.187750
30.916667	1	0.182875
30.933333	1	0.177000
30.950000	1	0.170250
30.966667	1	0.163500
30.983333	1	0.155875
31.000000	1	0.148625
31.016667	1	0.141875
31.033333	1	0.134625
31.050000	1	0.127625
31.066667	1	0.120000
31.083333	1	0.111750
31.100000	1	0.104125
31.116667	1	0.097250
31.133333	1	0.090375
31.150000	1	0.083000
31.166667	1	0.077500
31.183333	1	0.071750
31.200000	1	0.066875
31.216667	1	0.061750
31.233333	1	0.057000
31.250000	1	0.052125
31.266667	1	0.048625
31.283333	1	0.045500
31.300000	1	0.042375
31.316667	1	0.039625
31.333333	1	0.037125
31.350000	1	0.035125
31.366667	1	0.034000
31.383333	1	0.032625
31.400000	1	0.032375
31.416667	1	0.031875
31.433333	1	0.031500
31.450000	1	0.031500
31.466667	1	0.032250
31.483333	1	0.032000
31.500000	1	0.033750
31.516667	1	0.035125
31.533333	1	0.036750
31.550000	1	0.038250
31.566667	1	0.040375
31.583333	1	0.043250
31.600000	1	0.046000
31.616667	1	0.049125
31.633333	1	0.052250
31.650000	1	0.055250
31.666667	1	0.059125
31.683333	1	0.062875
31.700000	1	0.067750
31.716667	1	0.072625
31.733333	1	0.076750
31.750000	1	0.081750
31.766667	1	0.086750
31.783333	1	0.092375
31.800000	1	0.097125
31.816667	1	0.102750
31.833333	1	0.108125
31.850000	1	0.113125
31.866667	1	0.118875
31.883333	1	0.123375
31.900000	1	0.128500
31.916667	1	0.133000
31.933333	1	0.137000
31.950000	1	0.140750
31.966667	1	0.144375
31.983333	1	0.147500
32.000000	1	0.149875
32.016667	1	0.151375
32.033333	1	0.152125
32.050000	1	0.152500
32.066667	1	0.152375
32.083333	1	0.150625
32.100000	1	0.148625
32.116667	1	0.146375
32.133333	1	0.142750
32.150000	1	0.138625
32.166667	1	0.134250
32.183333	1	0.129500
32.200000	1	0.124375
32.216667	1	0.118125
32.233333	1	0.111625
32.250000	1	0.104875
32.266667	1	0.098000
32.283333	1	0.090875
32.300000	1	0.082750
32.316667	1	0.075125
32.333333	1	0.067875
32.350000	1	0.060250
32.366667	1	0.052625
32.383333	1	0.044875
32.400000	1	0.038125
32.416667	1	0.030625
32.433333	1	0.023625
32.450000	1	0.017000
32.466667	1	0.011000
32.483333	1	0.004375
32.500000	1	-0.001375
32.516667	1	-0.006625
32.533333	1	-0.011750
32.550000	1	-0.016375
32.566667	1	-0.020750
32.583333	1	-0.025625
32.600000	1	-0.030125
32.616667	1	-0.034500
32.633333	1	-0.039375
32.650000	1	-0.043250
32.666667	1	-0.047375
32.683333	1	-0.052125
32.700000	1	-0.055750
32.716667	1	-0.059125
32.733333	1	-0.062625
32.750000	1	-0.066875
32.766667	1	-0.071000
32.783333	1	-0.074500
32.800000	1	-0.078375
32.816667	1	-0.082125
32.833333	1	-0.085625
32.850000	1	-0.089125
32.866667	1	-0.093500
32.883333	1	-0.097250
32.900000	1	-0.100875
32.916667	1	-0.104000
32.933333	1	-0.107750
32.950000	1	-0.111625
32.966667	1	-0.115125
32.983333	1	-0.117625
33.000000	1	-0.121125
33.016667	1	-0.123750
33.033333	1	-0.126250
33.050000	1	-0.129000
33.066667	1	-0.132250
33.083333	1	-0.135375
33.100000	1	-0.138375
33.116667	1	-0.140125
33.133333	1	-0.142625
33.150000	1	-0.144375
33.166667	1	-0.146375
33.183333	1	-0.148250
33.200000	1	-0.149500
33.216667	1	-0.151125
33.233333	1	-0.152500
33.250000	1	-0.154125
33.266667	1	-0.155500
33.283333	1	-0.157000
33.300000	1	-0.157625
33.316667	1	-0.158125
33.333333	1	-0.159125
33.350000	1	-0.160125
33.366667	1	-0.160125
33.383333	1	-0.160875
33.400000	1	-0.161625
33.416667	1	-0.162250
33.433333	1	-0.163125
33.450000	1	-0.163375
33.466667	1	-0.163875
33.483333	1	-0.164250
33.500000	1	-0.164875
33.516667	1	-0.164500
33.533333	1	-0.164375
33.550000	1	-0.164375
33.566667	1	-0.164000
33.583333	1	-0.164125
33.600000	1	-0.164500
33.616667	1	-0.163875
33.633333	1	-0.163625
33.650000	1	-0.163125
33.666667	1	-0.163000
33.683333	1	-0.162375
33.700000	1	-0.162000
33.716667	1	-0.162000
33.733333	1	-0.160750
33.750000	1	-0.160250
33.766667	1	-0.159500
33.783333	1	-0.158000
33.800000	1	-0.156750
33.816667	1	-0.155750
33.833333	1	-0.154250
33.850000	1	-0.152875
33.866667	1	-0.151750
33.883333	1	-0.150000
33.900000	1	-0.147875
33.916667	1	-0.146250
33.933333	1	-0.144500
33.950000	1	-0.142375
33.966667	1	-0.140625
33.983333	1	-0.138125
34.000000	1	-0.136000
34.016667	1	-0.133625
34.033333	1	-0.131500
34.050000	1	-0.129375
34.066667	1	-0.126750
34.083333	1	-0.124375
34.100000	1	-0.121625
34.116667	1	-0.119125
34.133333	1	-0.116375
34.150000	1	-0.113625
34.166667	1	-0.111375
34.183333	1	-0.109000
34.200000	1	-0.106500
34.216667	1	-0.104375
34.233333	1	-0.102250
34.250000	1	-0.100250
34.266667	1	-0.098375
34.283333	1	-0.097125
34.300000	1	-0.095125
34.316667	1	-0.092875
34.333333	1	-0.090875
34.350000	1	-0.089125
34.366667	1	-0.087500
34.383333	1	-0.086000
34.400000	1	-0.084625
34.416667	1	-0.083625
34.433333	1	-0.082625
34.450000	1	-0.081750
34.466667	1	-0.080625
34.483333	1	-0.080125
34.500000	1	-0.078875
34.516667	1	-0.078250
34.533333	1	-0.077875
34.550000	1	-0.076750
34.566667	1	-0.076375
34.583333	1	-0.075250
34.600000	1	-0.074750
34.616667	1	-0.073875
34.633333	1	-0.073500
34.650000	1	-0.072750
34.666667	1	-0.072625
34.683333	1	-0.071500
34.700000	1	-0.070500
34.716667	1	-0.069375
34.733333	1	-0.068375
34.750000	1	-0.067250
34.766667	1	-0.066125
34.783333	1	-0.065000
34.800000	1	-0.063500
34.816667	1	-0.062750
34.833333	1	-0.061000
34.850000	1	-0.059750
34.866667	1	-0.058000
34.883333	1	-0.056875
34.900000	1	-0.055125
34.916667	1	-0.053000
34.933333	1	-0.051125
34.950000	1	-0.049375
34.966667	1	-0.047875
34.983333	1	-0.046375
35.000000	1	-0.044125
35.016667	1	-0.041500
35.033333	1	-0.040125
35.050000	1	-0.038125
35.066667	1	-0.035750
35.083333	1	-0.033625
35.100000	1	-0.031500
35.116667	1	-0.028750
35.133333	1	-0.026375
35.150000	1	-0.023500
35.166667	1	-0.021250
35.183333	1	-0.019125
35.200000	1	-0.016875
35.216667	1	-0.015375
35.233333	1	-0.012875
35.250000	1	-0.010625
35.266667	1	-0.008375
35.283333	1	-0.006125
35.300000	1	-0.004125
35.316667	1	-0.002000
35.333333	1	0.000000
35.350000	1	0.001625
35.366667	1	0.002750
35.383333	1	0.004125
35.400000	1	0.006125
35.416667	1	0.006500
35.433333	1	0.007625
35.450000	1	0.008500
35.466667	1	0.009250
35.483333	1	0.010250
35.500000	1	0.010875
35.516667	1	0.010625
35.533333	1	0.010375
35.550000	1	0.009875
35.566667	1	0.009750
35.583333	1	0.008750
35.600000	1	0.008250
35.616667	1	0.007625
35.633333	1	0.007250
35.650000	1	0.006625
35.666667	1	0.004750
35.683333	1	0.003375
35.700000	1	0.002000
35.716667	1	0.001500
35.733333	1	0.000500
35.750000	1	-0.000250
35.766667	1	-0.001250
35.783333	1	-0.002000
35.800000	1	-0.003125
35.816667	1	-0.004375
35.833333	1	-0.005000
35.850000	1	-0.005250
35.866667	1	-0.006375
35.883333	1	-0.007375
35.900000	1	-0.007875
35.916667	1	-0.008500
35.933333	1	-0.009500
35.950000	1	-0.010625
35.966667	1	-0.011250
35.983333	1	-0.012375
36.000000	1	-0.013875
36.016667	1	-0.014875
36.033333	1	-0.015750
36.050000	1	-0.016250
36.066667	1	-0.017375
36.083333	1	-0.018500
36.100000	1	-0.018875
36.116667	1	-0.020375
36.133333	1	-0.021500
36.150000	1	-0.022625
36.166667	1	-0.023250
36.183333	1	-0.024875
36.200000	1	-0.026625
36.216667	1	-0.028500
36.233333	1	-0.030125
36.250000	1	-0.031625
36.266667	1	-0.032875
36.283333	1	-0.034250
36.300000	1	-0.036125
36.316667	1	-0.038000
36.333333	1	-0.039000
36.350000	1	-0.041125
36.366667	1	-0.043000
36.383333	1	-0.045750
36.400000	1	-0.048000
36.416667	1	-0.049375
36.433333	1	-0.051250
36.450000	1	-0.052875
36.466667	1	-0.055000
36.483333	1	-0.056750
36.500000	1	-0.058500
36.516667	1	-0.060500
36.533333	1	-0.062875
36.550000	1	-0.064750
36.566667	1	-0.067250
36.583333	1	-0.068875
36.600000	1	-0.071000
36.616667	1	-0.073375
36.633333	1	-0.076125
36.650000	1	-0.079375
36.666667	1	-0.081875
36.683333	1	-0.084750
36.700000	1	-0.087500
36.716667	1	-0.089875
36.733333	1	-0.092875
36.750000	1	-0.095750
36.766667	1	-0.099250
36.783333	1	-0.102125
36.800000	1	-0.105625
36.816667	1	-0.108750
36.833333	1	-0.112000
36.850000	1	-0.114875
36.866667	1	-0.118000
36.883333	1	-0.121125
36.900000	1	-0.124625
36.916667	1	-0.127500
36.933333	1	-0.130125
36.950000	1	-0.132750
36.966667	1	-0.136000
36.983333	1	-0.139250
37.000000	1	-0.141500
37.016667	1	-0.143375
37.033333	1	-0.145500
37.050000	1	-0.148250
37.066667	1	-0.150750
37.083333	1	-0.153250
37.100000	1	-0.154875
37.116667	1	-0.156125
37.133333	1	-0.157750
37.150000	1	-0.158625
37.166667	1	-0.160375
37.183333	1	-0.161625
37.200000	1	-0.162625
37.216667	1	-0.164500
37.233333	1	-0.165625
37.250000	1	-0.166500
37.266667	1	-0.167125
37.283333	1	-0.167750
37.300000	1	-0.167875
37.316667	1	-0.168375
37.333333	1	-0.169250
37.350000	1	-0.169625
37.366667	1	-0.169750
37.383333	1	-0.170125
37.400000	1	-0.170500
37.416667	1	-0.170750
37.433333	1	-0.171250
37.450000	1	-0.171500
37.466667	1	-0.171375
37.483333	1	-0.171500
37.500000	1	-0.171250
37.516667	1	-0.171375
37.533333	1	-0.171625
37.550000	1	-0.171625
37.566667	1	-0.171750
37.583333	1	-0.171875
37.600000	1	-0.171500
37.616667	1	-0.171625
37.633333	1	-0.171250
37.650000	1	-0.170375
37.666667	1	-0.169750
37.683333	1	-0.168750
37.700000	1	-0.168375
37.716667	1	-0.167750
37.733333	1	-0.167125
37.750000	1	-0.166625
37.766667	1	-0.165875
37.783333	1	-0.165000
37.800000	1	-0.163875
37.816667	1	-0.162750
37.833333	1	-0.161125
37.850000	1	-0.159750
37.866667	1	-0.158375
37.883333	1	-0.157500
37.900000	1	-0.155750
37.916667	1	-0.154250
37.933333	1	-0.152250
37.950000	1	-0.150250
37.966667	1	-0.148875
37.983333	1	-0.148000
38.000000	1	-0.146625
38.016667	1	-0.145625
38.033333	1	-0.143375
38.050000	1	-0.142125
38.066667	1	-0.141250
38.083333	1	-0.139750
38.100000	1	-0.138750
38.116667	1	-0.137375
38.133333	1	-0.136250
38.150000	1	-0.134750
38.166667	1	-0.133625
38.183333	1	-0.132500
38.200000	1	-0.131500
38.216667	1	-0.131000
38.233333	1	-0.130000
38.250000	1	-0.129500
38.266667	1	-0.129250
38.283333	1	-0.128375
38.300000	1	-0.127750
38.316667	1	-0.127000
38.333333	1	-0.126750
38.350000	1	-0.125500
38.366667	1	-0.124750
38.383333	1	-0.124250
38.400000	1	-0.123875
38.416667	1	-0.123375
38.433333	1	-0.123125
38.450000	1	-0.122875
38.466667	1	-0.122250
38.483333	1	-0.121750
38.500000	1	-0.121125
38.516667	1	-0.120625
38.533333	1	-0.120000
38.550000	1	-0.119500
38.566667	1	-0.119625
38.583333	1	-0.119000
38.600000	1	-0.119250
38.616667	1	-0.119500
38.633333	1	-0.119125
38.650000	1	-0.119000
38.666667	1	-0.119125
38.683333	1	-0.119250
38.700000	1	-0.119375
38.716667	1	-0.119250
38.733333	1	-0.119875
38.750000	1	-0.119875
38.766667	1	-0.120125
38.783333	1	-0.120250
38.800000	1	-0.120250
38.816667	1	-0.120625
38.833333	1	-0.120875
38.850000	1	-0.121000
38.866667	1	-0.120375
38.883333	1	-0.121000
38.900000	1	-0.120750
38.916667	1	-0.121125
38.933333	1	-0.121125
38.950000	1	-0.121500
38.966667	1	-0.121875
38.983333	1	-0.122500
39.000000	1	-0.123125
39.016667	1	-0.123875
39.033333	1	-0.124500
39.050000	1	-0.124875
39.066667	1	-0.125375
39.083333	1	-0.126375
39.100000	1	-0.126375
39.116667	1	-0.127375
39.133333	1	-0.127750
39.150000	1	-0.129125
39.166667	1	-0.130250
39.183333	1	-0.131000
39.200000	1	-0.131750
39.216667	1	-0.133375
39.233333	1	-0.134625
39.250000	1	-0.136000
39.266667	1	-0.137375
39.283333	1	-0.138000
39.300000	1	-0.138750
39.316667	1	-0.139000
39.333333	1	-0.139625
39.350000	1	-0.140250
39.366667	1	-0.140625
39.383333	1	-0.141250
39.400000	1	-0.142000
39.416667	1	-0.142750
39.433333	1	-0.143125
39.450000	1	-0.144375
39.466667	1	-0.144500
39.483333	1	-0.145125
39.500000	1	-0.146125
39.516667	1	-0.146500
39.533333	1	-0.146375
39.550000	1	-0.146125
39.566667	1	-0.146375
39.583333	1	-0.146625
39.600000	1	-0.146500
39.616667	1	-0.146750
39.633333	1	-0.146500
39.650000	1	-0.146375
39.666667	1	-0.146500
39.683333	1	-0.146625
39.700000	1	-0.146125
39.716667	1	-0.145750
39.733333	1	-0.145500
39.750000	1	-0.145625
39.766667	1	-0.145125
39.783333	1	-0.144625
39.800000	1	-0.145125
39.816667	1	-0.145125
39.833333	1	-0.144750
39.850000	1	-0.144875
39.866667	1	-0.145250
39.883333	1	-0.144500
39.900000	1	-0.144375
39.916667	1	-0.144250
39.933333	1	-0.144250
39.950000	1	-0.144500
39.966667	1	-0.144625
39.983333	1	-0.144625
40.000000	1	-0.144875
