File Path	chrom://marshall/Chromeleon7/HPLC_Ultimate_3000/Users/markusar/20230531_CMO_stabTest _FP08_FP09.seq/270.smp/RI_1.channel/RI_1.chm
Channel	RI_1

Injection Information:
Data Vault	Chromeleon7
Injection	FP09__9_s2
Injection Number	83
Position	BE9
Comment	
Processing Method	
Instrument Method	run_25B_method
Type	Unknown
Status	Finished
Injection Date	03.06.2023
Injection Time	22:40:11
Injection Volume (µl)	20.000
Dilution Factor	1.0000
Weight	1.0000

Chromatogram Data Information:
Time Min. (min)	0.000000
Time Max. (min)	40.000000
Data Points	2401
Detector	RI
Generating Data System	Chromeleon 7.2.5.9507
Exporting Data System	Chromeleon 7.2.5.0
Operator	Instrument Controller
Signal Quantity	Refractive 
Signal Unit	µRIU
Signal Min.	-0.791875
Signal Max.	56.161375
Channel	RI_1
Driver Name	RID520Driver.dll
Channel Type	Evaluation
Min. Step (s)	1
Max. Step (s)	1
Average Step (s)	1

Signal Parameter Information:
Signal Info	

Chromatogram Data:
Time (min)	Step (s)	Value (µRIU)
0.000000	n.a.	0.024000
0.016667	1	0.023875
0.033333	1	0.023500
0.050000	1	0.023625
0.066667	1	0.023125
0.083333	1	0.022875
0.100000	1	0.023000
0.116667	1	0.023250
0.133333	1	0.023000
0.150000	1	0.023375
0.166667	1	0.023125
0.183333	1	0.023125
0.200000	1	0.022875
0.216667	1	0.023625
0.233333	1	0.023750
0.250000	1	0.023750
0.266667	1	0.024375
0.283333	1	0.023125
0.300000	1	0.020250
0.316667	1	0.016750
0.333333	1	0.014000
0.350000	1	0.015750
0.366667	1	0.019375
0.383333	1	0.023625
0.400000	1	0.027625
0.416667	1	0.031000
0.433333	1	0.034250
0.450000	1	0.036500
0.466667	1	0.037625
0.483333	1	0.037500
0.500000	1	0.036375
0.516667	1	0.034500
0.533333	1	0.032625
0.550000	1	0.031125
0.566667	1	0.030375
0.583333	1	0.029250
0.600000	1	0.028625
0.616667	1	0.028250
0.633333	1	0.027875
0.650000	1	0.027500
0.666667	1	0.027125
0.683333	1	0.026625
0.700000	1	0.026875
0.716667	1	0.026375
0.733333	1	0.025875
0.750000	1	0.025750
0.766667	1	0.025000
0.783333	1	0.025250
0.800000	1	0.025500
0.816667	1	0.026500
0.833333	1	0.026125
0.850000	1	0.027000
0.866667	1	0.027125
0.883333	1	0.026875
0.900000	1	0.026875
0.916667	1	0.027125
0.933333	1	0.027250
0.950000	1	0.027250
0.966667	1	0.027250
0.983333	1	0.027250
1.000000	1	0.027125
1.016667	1	0.027625
1.033333	1	0.027625
1.050000	1	0.028250
1.066667	1	0.028000
1.083333	1	0.027875
1.100000	1	0.028250
1.116667	1	0.028250
1.133333	1	0.028250
1.150000	1	0.028750
1.166667	1	0.028500
1.183333	1	0.028625
1.200000	1	0.028750
1.216667	1	0.028125
1.233333	1	0.027250
1.250000	1	0.027375
1.266667	1	0.027125
1.283333	1	0.027750
1.300000	1	0.027625
1.316667	1	0.026875
1.333333	1	0.026500
1.350000	1	0.025500
1.366667	1	0.024500
1.383333	1	0.024125
1.400000	1	0.023500
1.416667	1	0.023125
1.433333	1	0.022625
1.450000	1	0.022125
1.466667	1	0.022125
1.483333	1	0.021875
1.500000	1	0.021375
1.516667	1	0.021000
1.533333	1	0.020375
1.550000	1	0.020125
1.566667	1	0.019375
1.583333	1	0.019125
1.600000	1	0.018375
1.616667	1	0.018250
1.633333	1	0.017875
1.650000	1	0.018250
1.666667	1	0.017500
1.683333	1	0.016000
1.700000	1	0.014500
1.716667	1	0.014125
1.733333	1	0.014000
1.750000	1	0.013625
1.766667	1	0.013125
1.783333	1	0.012375
1.800000	1	0.012000
1.816667	1	0.011375
1.833333	1	0.011250
1.850000	1	0.010750
1.866667	1	0.010250
1.883333	1	0.009375
1.900000	1	0.009125
1.916667	1	0.008250
1.933333	1	0.007625
1.950000	1	0.006500
1.966667	1	0.005875
1.983333	1	0.005125
2.000000	1	0.005000
2.016667	1	0.005125
2.033333	1	0.004375
2.050000	1	0.004000
2.066667	1	0.003625
2.083333	1	0.003250
2.100000	1	0.003000
2.116667	1	0.002375
2.133333	1	0.001750
2.150000	1	0.001000
2.166667	1	0.001125
2.183333	1	0.001125
2.200000	1	0.000125
2.216667	1	0.000000
2.233333	1	-0.000375
2.250000	1	-0.001500
2.266667	1	-0.002375
2.283333	1	-0.002375
2.300000	1	-0.003250
2.316667	1	-0.003750
2.333333	1	-0.004000
2.350000	1	-0.005000
2.366667	1	-0.004875
2.383333	1	-0.005375
2.400000	1	-0.006500
2.416667	1	-0.007375
2.433333	1	-0.007500
2.450000	1	-0.008125
2.466667	1	-0.008375
2.483333	1	-0.008625
2.500000	1	-0.008750
2.516667	1	-0.009125
2.533333	1	-0.009625
2.550000	1	-0.010250
2.566667	1	-0.010750
2.583333	1	-0.012250
2.600000	1	-0.012750
2.616667	1	-0.012750
2.633333	1	-0.013125
2.650000	1	-0.013250
2.666667	1	-0.014125
2.683333	1	-0.014875
2.700000	1	-0.015875
2.716667	1	-0.016750
2.733333	1	-0.017125
2.750000	1	-0.017875
2.766667	1	-0.018750
2.783333	1	-0.018750
2.800000	1	-0.019000
2.816667	1	-0.020125
2.833333	1	-0.020375
2.850000	1	-0.020875
2.866667	1	-0.021625
2.883333	1	-0.022625
2.900000	1	-0.023125
2.916667	1	-0.023625
2.933333	1	-0.023875
2.950000	1	-0.025000
2.966667	1	-0.025000
2.983333	1	-0.025750
3.000000	1	-0.026375
3.016667	1	-0.026875
3.033333	1	-0.027500
3.050000	1	-0.027750
3.066667	1	-0.028250
3.083333	1	-0.028250
3.100000	1	-0.028875
3.116667	1	-0.029250
3.133333	1	-0.029750
3.150000	1	-0.030500
3.166667	1	-0.030375
3.183333	1	-0.030625
3.200000	1	-0.030750
3.216667	1	-0.029875
3.233333	1	-0.030375
3.250000	1	-0.029875
3.266667	1	-0.029625
3.283333	1	-0.029500
3.300000	1	-0.029000
3.316667	1	-0.028875
3.333333	1	-0.028625
3.350000	1	-0.028375
3.366667	1	-0.027625
3.383333	1	-0.027375
3.400000	1	-0.026625
3.416667	1	-0.026000
3.433333	1	-0.024875
3.450000	1	-0.024250
3.466667	1	-0.023875
3.483333	1	-0.024000
3.500000	1	-0.023250
3.516667	1	-0.021750
3.533333	1	-0.021625
3.550000	1	-0.021000
3.566667	1	-0.020750
3.583333	1	-0.020625
3.600000	1	-0.021000
3.616667	1	-0.020625
3.633333	1	-0.019750
3.650000	1	-0.019500
3.666667	1	-0.019625
3.683333	1	-0.019875
3.700000	1	-0.019625
3.716667	1	-0.019250
3.733333	1	-0.019250
3.750000	1	-0.019250
3.766667	1	-0.019625
3.783333	1	-0.019000
3.800000	1	-0.019000
3.816667	1	-0.019625
3.833333	1	-0.019500
3.850000	1	-0.020000
3.866667	1	-0.020625
3.883333	1	-0.020875
3.900000	1	-0.021375
3.916667	1	-0.021500
3.933333	1	-0.021375
3.950000	1	-0.021875
3.966667	1	-0.022625
3.983333	1	-0.022875
4.000000	1	-0.023375
4.016667	1	-0.024125
4.033333	1	-0.023875
4.050000	1	-0.024000
4.066667	1	-0.024500
4.083333	1	-0.024625
4.100000	1	-0.025375
4.116667	1	-0.026125
4.133333	1	-0.026625
4.150000	1	-0.028250
4.166667	1	-0.028250
4.183333	1	-0.029000
4.200000	1	-0.029125
4.216667	1	-0.029500
4.233333	1	-0.029625
4.250000	1	-0.029500
4.266667	1	-0.029375
4.283333	1	-0.029875
4.300000	1	-0.030625
4.316667	1	-0.030750
4.333333	1	-0.030500
4.350000	1	-0.030500
4.366667	1	-0.030750
4.383333	1	-0.030500
4.400000	1	-0.030250
4.416667	1	-0.030375
4.433333	1	-0.030250
4.450000	1	-0.029875
4.466667	1	-0.030500
4.483333	1	-0.030000
4.500000	1	-0.029875
4.516667	1	-0.029625
4.533333	1	-0.029125
4.550000	1	-0.028000
4.566667	1	-0.027750
4.583333	1	-0.027000
4.600000	1	-0.026125
4.616667	1	-0.025625
4.633333	1	-0.024375
4.650000	1	-0.024250
4.666667	1	-0.023500
4.683333	1	-0.022875
4.700000	1	-0.022125
4.716667	1	-0.021750
4.733333	1	-0.020875
4.750000	1	-0.020125
4.766667	1	-0.018750
4.783333	1	-0.018250
4.800000	1	-0.016875
4.816667	1	-0.015500
4.833333	1	-0.014875
4.850000	1	-0.014500
4.866667	1	-0.013750
4.883333	1	-0.012625
4.900000	1	-0.012125
4.916667	1	-0.011125
4.933333	1	-0.009875
4.950000	1	-0.009000
4.966667	1	-0.008000
4.983333	1	-0.006750
5.000000	1	-0.005750
5.016667	1	-0.005250
5.033333	1	-0.004875
5.050000	1	-0.003750
5.066667	1	-0.003500
5.083333	1	-0.002375
5.100000	1	-0.001875
5.116667	1	-0.001250
5.133333	1	-0.000625
5.150000	1	-0.000125
5.166667	1	0.000375
5.183333	1	0.001250
5.200000	1	0.001875
5.216667	1	0.002375
5.233333	1	0.002625
5.250000	1	0.003375
5.266667	1	0.004250
5.283333	1	0.004875
5.300000	1	0.005125
5.316667	1	0.005375
5.333333	1	0.006250
5.350000	1	0.006875
5.366667	1	0.007375
5.383333	1	0.007625
5.400000	1	0.008625
5.416667	1	0.009250
5.433333	1	0.010000
5.450000	1	0.009750
5.466667	1	0.010375
5.483333	1	0.011375
5.500000	1	0.012125
5.516667	1	0.012125
5.533333	1	0.012125
5.550000	1	0.012625
5.566667	1	0.014250
5.583333	1	0.015000
5.600000	1	0.015375
5.616667	1	0.016125
5.633333	1	0.016375
5.650000	1	0.017625
5.666667	1	0.018000
5.683333	1	0.018375
5.700000	1	0.019250
5.716667	1	0.019625
5.733333	1	0.020125
5.750000	1	0.020750
5.766667	1	0.021875
5.783333	1	0.023125
5.800000	1	0.023500
5.816667	1	0.024125
5.833333	1	0.024500
5.850000	1	0.026000
5.866667	1	0.025875
5.883333	1	0.026375
5.900000	1	0.026625
5.916667	1	0.026500
5.933333	1	0.027375
5.950000	1	0.027250
5.966667	1	0.027625
5.983333	1	0.027875
6.000000	1	0.027875
6.016667	1	0.027375
6.033333	1	0.027375
6.050000	1	0.027000
6.066667	1	0.026625
6.083333	1	0.026375
6.100000	1	0.025750
6.116667	1	0.025875
6.133333	1	0.025500
6.150000	1	0.025625
6.166667	1	0.025000
6.183333	1	0.023875
6.200000	1	0.023750
6.216667	1	0.022750
6.233333	1	0.021750
6.250000	1	0.020500
6.266667	1	0.020125
6.283333	1	0.019125
6.300000	1	0.019000
6.316667	1	0.018125
6.333333	1	0.017875
6.350000	1	0.016750
6.366667	1	0.015625
6.383333	1	0.014500
6.400000	1	0.014625
6.416667	1	0.014000
6.433333	1	0.012875
6.450000	1	0.011750
6.466667	1	0.010875
6.483333	1	0.009875
6.500000	1	0.009625
6.516667	1	0.008750
6.533333	1	0.007750
6.550000	1	0.007375
6.566667	1	0.006500
6.583333	1	0.005625
6.600000	1	0.004625
6.616667	1	0.004125
6.633333	1	0.003375
6.650000	1	0.003250
6.666667	1	0.002625
6.683333	1	0.002125
6.700000	1	0.001375
6.716667	1	0.001125
6.733333	1	0.001125
6.750000	1	0.001000
6.766667	1	0.001250
6.783333	1	0.000250
6.800000	1	0.000250
6.816667	1	-0.000625
6.833333	1	-0.001000
6.850000	1	-0.001375
6.866667	1	-0.001375
6.883333	1	-0.001625
6.900000	1	-0.001625
6.916667	1	-0.001250
6.933333	1	-0.001125
6.950000	1	-0.001375
6.966667	1	-0.001750
6.983333	1	-0.001875
7.000000	1	-0.002000
7.016667	1	-0.002125
7.033333	1	-0.002000
7.050000	1	-0.002500
7.066667	1	-0.002125
7.083333	1	-0.001875
7.100000	1	-0.002125
7.116667	1	-0.002250
7.133333	1	-0.002125
7.150000	1	-0.001375
7.166667	1	-0.001000
7.183333	1	0.000000
7.200000	1	0.000000
7.216667	1	0.000125
7.233333	1	0.000250
7.250000	1	0.000500
7.266667	1	0.000500
7.283333	1	0.001500
7.300000	1	0.001875
7.316667	1	0.002625
7.333333	1	0.003375
7.350000	1	0.003000
7.366667	1	0.004000
7.383333	1	0.004625
7.400000	1	0.005625
7.416667	1	0.005625
7.433333	1	0.006500
7.450000	1	0.006625
7.466667	1	0.007750
7.483333	1	0.008500
7.500000	1	0.009000
7.516667	1	0.009750
7.533333	1	0.010500
7.550000	1	0.010750
7.566667	1	0.011250
7.583333	1	0.011625
7.600000	1	0.012375
7.616667	1	0.012625
7.633333	1	0.013250
7.650000	1	0.013875
7.666667	1	0.015000
7.683333	1	0.015125
7.700000	1	0.015875
7.716667	1	0.016000
7.733333	1	0.017000
7.750000	1	0.017375
7.766667	1	0.017375
7.783333	1	0.017000
7.800000	1	0.017000
7.816667	1	0.016625
7.833333	1	0.017125
7.850000	1	0.017750
7.866667	1	0.018000
7.883333	1	0.018375
7.900000	1	0.018875
7.916667	1	0.018500
7.933333	1	0.018625
7.950000	1	0.019375
7.966667	1	0.019250
7.983333	1	0.019125
8.000000	1	0.019375
8.016667	1	0.019125
8.033333	1	0.019000
8.050000	1	0.019125
8.066667	1	0.019250
8.083333	1	0.019125
8.100000	1	0.019250
8.116667	1	0.019750
8.133333	1	0.020250
8.150000	1	0.020875
8.166667	1	0.021250
8.183333	1	0.021500
8.200000	1	0.021875
8.216667	1	0.022125
8.233333	1	0.022500
8.250000	1	0.023500
8.266667	1	0.024125
8.283333	1	0.024125
8.300000	1	0.024625
8.316667	1	0.025375
8.333333	1	0.026250
8.350000	1	0.027000
8.366667	1	0.028375
8.383333	1	0.029250
8.400000	1	0.030500
8.416667	1	0.031250
8.433333	1	0.032125
8.450000	1	0.033250
8.466667	1	0.034375
8.483333	1	0.035750
8.500000	1	0.037500
8.516667	1	0.038750
8.533333	1	0.040750
8.550000	1	0.043000
8.566667	1	0.045125
8.583333	1	0.046750
8.600000	1	0.048250
8.616667	1	0.049750
8.633333	1	0.051500
8.650000	1	0.053625
8.666667	1	0.055125
8.683333	1	0.057750
8.700000	1	0.059125
8.716667	1	0.061000
8.733333	1	0.062625
8.750000	1	0.064500
8.766667	1	0.067125
8.783333	1	0.068750
8.800000	1	0.071375
8.816667	1	0.073250
8.833333	1	0.074750
8.850000	1	0.076000
8.866667	1	0.077750
8.883333	1	0.079625
8.900000	1	0.082125
8.916667	1	0.083500
8.933333	1	0.084625
8.950000	1	0.087625
8.966667	1	0.088625
8.983333	1	0.090000
9.000000	1	0.091500
9.016667	1	0.093000
9.033333	1	0.094625
9.050000	1	0.095375
9.066667	1	0.096750
9.083333	1	0.097750
9.100000	1	0.099125
9.116667	1	0.100000
9.133333	1	0.101000
9.150000	1	0.102250
9.166667	1	0.102000
9.183333	1	0.102875
9.200000	1	0.103875
9.216667	1	0.104625
9.233333	1	0.105500
9.250000	1	0.105750
9.266667	1	0.106000
9.283333	1	0.105875
9.300000	1	0.106125
9.316667	1	0.106875
9.333333	1	0.107000
9.350000	1	0.106625
9.366667	1	0.106625
9.383333	1	0.106250
9.400000	1	0.106250
9.416667	1	0.106375
9.433333	1	0.106000
9.450000	1	0.106375
9.466667	1	0.106625
9.483333	1	0.107875
9.500000	1	0.109125
9.516667	1	0.110750
9.533333	1	0.112500
9.550000	1	0.115500
9.566667	1	0.119375
9.583333	1	0.124375
9.600000	1	0.130125
9.616667	1	0.136875
9.633333	1	0.145125
9.650000	1	0.155750
9.666667	1	0.168000
9.683333	1	0.181750
9.700000	1	0.197125
9.716667	1	0.214125
9.733333	1	0.232625
9.750000	1	0.252125
9.766667	1	0.269875
9.783333	1	0.286000
9.800000	1	0.299000
9.816667	1	0.307375
9.833333	1	0.309250
9.850000	1	0.301625
9.866667	1	0.282500
9.883333	1	0.248250
9.900000	1	0.199125
9.916667	1	0.141625
9.933333	1	0.096125
9.950000	1	0.099125
9.966667	1	0.203500
9.983333	1	0.471000
10.000000	1	0.964125
10.016667	1	1.739625
10.033333	1	2.842125
10.050000	1	4.300375
10.066667	1	6.130500
10.083333	1	8.331125
10.100000	1	10.889250
10.116667	1	13.773500
10.133333	1	16.934750
10.150000	1	20.304500
10.166667	1	23.788000
10.183333	1	27.267000
10.200000	1	30.599000
10.216667	1	33.619625
10.233333	1	36.160250
10.250000	1	38.064375
10.266667	1	39.215750
10.283333	1	39.554125
10.300000	1	39.090125
10.316667	1	37.900500
10.333333	1	36.114125
10.350000	1	33.890375
10.366667	1	31.394625
10.383333	1	28.779000
10.400000	1	26.168625
10.416667	1	23.653750
10.433333	1	21.295500
10.450000	1	19.130875
10.466667	1	17.170625
10.483333	1	15.413000
10.500000	1	13.849125
10.516667	1	12.464000
10.533333	1	11.240375
10.550000	1	10.159500
10.566667	1	9.203875
10.583333	1	8.356750
10.600000	1	7.603625
10.616667	1	6.931250
10.633333	1	6.330625
10.650000	1	5.793375
10.666667	1	5.312875
10.683333	1	4.883000
10.700000	1	4.498625
10.716667	1	4.155375
10.733333	1	3.848625
10.750000	1	3.573750
10.766667	1	3.327625
10.783333	1	3.106875
10.800000	1	2.908375
10.816667	1	2.729875
10.833333	1	2.567750
10.850000	1	2.421250
10.866667	1	2.287875
10.883333	1	2.166500
10.900000	1	2.056250
10.916667	1	1.955625
10.933333	1	1.863125
10.950000	1	1.778875
10.966667	1	1.701875
10.983333	1	1.631375
11.000000	1	1.567000
11.016667	1	1.508125
11.033333	1	1.454000
11.050000	1	1.404500
11.066667	1	1.359125
11.083333	1	1.317375
11.100000	1	1.279875
11.116667	1	1.244875
11.133333	1	1.213000
11.150000	1	1.182875
11.166667	1	1.155000
11.183333	1	1.130125
11.200000	1	1.106500
11.216667	1	1.085125
11.233333	1	1.065125
11.250000	1	1.045500
11.266667	1	1.027750
11.283333	1	1.010625
11.300000	1	0.994500
11.316667	1	0.978875
11.333333	1	0.963500
11.350000	1	0.949625
11.366667	1	0.935250
11.383333	1	0.922375
11.400000	1	0.910375
11.416667	1	0.899500
11.433333	1	0.888875
11.450000	1	0.879500
11.466667	1	0.871000
11.483333	1	0.863125
11.500000	1	0.856625
11.516667	1	0.850500
11.533333	1	0.845500
11.550000	1	0.841000
11.566667	1	0.837750
11.583333	1	0.834750
11.600000	1	0.832375
11.616667	1	0.831250
11.633333	1	0.829375
11.650000	1	0.828250
11.666667	1	0.826750
11.683333	1	0.825750
11.700000	1	0.824375
11.716667	1	0.822875
11.733333	1	0.821375
11.750000	1	0.819875
11.766667	1	0.819375
11.783333	1	0.817250
11.800000	1	0.817250
11.816667	1	0.816500
11.833333	1	0.816250
11.850000	1	0.817875
11.866667	1	0.820125
11.883333	1	0.824125
11.900000	1	0.829500
11.916667	1	0.837375
11.933333	1	0.847000
11.950000	1	0.858500
11.966667	1	0.873375
11.983333	1	0.889500
12.000000	1	0.909250
12.016667	1	0.931625
12.033333	1	0.957375
12.050000	1	0.985750
12.066667	1	1.019500
12.083333	1	1.057750
12.100000	1	1.103250
12.116667	1	1.157375
12.133333	1	1.221250
12.150000	1	1.299500
12.166667	1	1.393125
12.183333	1	1.505000
12.200000	1	1.637125
12.216667	1	1.791375
12.233333	1	1.968250
12.250000	1	2.170500
12.266667	1	2.398875
12.283333	1	2.655375
12.300000	1	2.939250
12.316667	1	3.253500
12.333333	1	3.601125
12.350000	1	3.983375
12.366667	1	4.402625
12.383333	1	4.860250
12.400000	1	5.356875
12.416667	1	5.890625
12.433333	1	6.459250
12.450000	1	7.054375
12.466667	1	7.665250
12.483333	1	8.276250
12.500000	1	8.865250
12.516667	1	9.409250
12.533333	1	9.885000
12.550000	1	10.274500
12.566667	1	10.568500
12.583333	1	10.764000
12.600000	1	10.866375
12.616667	1	10.887625
12.633333	1	10.838500
12.650000	1	10.731000
12.666667	1	10.576750
12.683333	1	10.387625
12.700000	1	10.171875
12.716667	1	9.938625
12.733333	1	9.693750
12.750000	1	9.443875
12.766667	1	9.193625
12.783333	1	8.946250
12.800000	1	8.704750
12.816667	1	8.471000
12.833333	1	8.247125
12.850000	1	8.033250
12.866667	1	7.827250
12.883333	1	7.629000
12.900000	1	7.438250
12.916667	1	7.253125
12.933333	1	7.072500
12.950000	1	6.894125
12.966667	1	6.717250
12.983333	1	6.540625
13.000000	1	6.362500
13.016667	1	6.182250
13.033333	1	5.997375
13.050000	1	5.807000
13.066667	1	5.608625
13.083333	1	5.400125
13.100000	1	5.179500
13.116667	1	4.943375
13.133333	1	4.690250
13.150000	1	4.417500
13.166667	1	4.123625
13.183333	1	3.807375
13.200000	1	3.470250
13.216667	1	3.120000
13.233333	1	2.770375
13.250000	1	2.439375
13.266667	1	2.145000
13.283333	1	1.895375
13.300000	1	1.692375
13.316667	1	1.530000
13.333333	1	1.401375
13.350000	1	1.298125
13.366667	1	1.214125
13.383333	1	1.144625
13.400000	1	1.086625
13.416667	1	1.037250
13.433333	1	0.994625
13.450000	1	0.957625
13.466667	1	0.925500
13.483333	1	0.897250
13.500000	1	0.872500
13.516667	1	0.851750
13.533333	1	0.833000
13.550000	1	0.817750
13.566667	1	0.804000
13.583333	1	0.792750
13.600000	1	0.784000
13.616667	1	0.777125
13.633333	1	0.771500
13.650000	1	0.766375
13.666667	1	0.762750
13.683333	1	0.758250
13.700000	1	0.754375
13.716667	1	0.750125
13.733333	1	0.744750
13.750000	1	0.739000
13.766667	1	0.733250
13.783333	1	0.725750
13.800000	1	0.717500
13.816667	1	0.708500
13.833333	1	0.698875
13.850000	1	0.688750
13.866667	1	0.678500
13.883333	1	0.667625
13.900000	1	0.656125
13.916667	1	0.643875
13.933333	1	0.632625
13.950000	1	0.621250
13.966667	1	0.610000
13.983333	1	0.599250
14.000000	1	0.589000
14.016667	1	0.578875
14.033333	1	0.570250
14.050000	1	0.563000
14.066667	1	0.556250
14.083333	1	0.549750
14.100000	1	0.544625
14.116667	1	0.540750
14.133333	1	0.537875
14.150000	1	0.536000
14.166667	1	0.536375
14.183333	1	0.538500
14.200000	1	0.542000
14.216667	1	0.548000
14.233333	1	0.557125
14.250000	1	0.568750
14.266667	1	0.584125
14.283333	1	0.605125
14.300000	1	0.630875
14.316667	1	0.662500
14.333333	1	0.701375
14.350000	1	0.748500
14.366667	1	0.805625
14.383333	1	0.874375
14.400000	1	0.955625
14.416667	1	1.050875
14.433333	1	1.162500
14.450000	1	1.292750
14.466667	1	1.443750
14.483333	1	1.617875
14.500000	1	1.818750
14.516667	1	2.049375
14.533333	1	2.314125
14.550000	1	2.619375
14.566667	1	2.971250
14.583333	1	3.378750
14.600000	1	3.855125
14.616667	1	4.415250
14.633333	1	5.080500
14.650000	1	5.876750
14.666667	1	6.835250
14.683333	1	7.991000
14.700000	1	9.381625
14.716667	1	11.046250
14.733333	1	13.016125
14.750000	1	15.319000
14.766667	1	17.967125
14.783333	1	20.953625
14.800000	1	24.255500
14.816667	1	27.824625
14.833333	1	31.590125
14.850000	1	35.454500
14.866667	1	39.306250
14.883333	1	43.020000
14.900000	1	46.466375
14.916667	1	49.524250
14.933333	1	52.088500
14.950000	1	54.075375
14.966667	1	55.428250
14.983333	1	56.122500
15.000000	1	56.161375
15.016667	1	55.575125
15.033333	1	54.417500
15.050000	1	52.758000
15.066667	1	50.679250
15.083333	1	48.269125
15.100000	1	45.616875
15.116667	1	42.804750
15.133333	1	39.905875
15.150000	1	36.986000
15.166667	1	34.101750
15.183333	1	31.298500
15.200000	1	28.609375
15.216667	1	26.058125
15.233333	1	23.659750
15.250000	1	21.423625
15.266667	1	19.353000
15.283333	1	17.447625
15.300000	1	15.705750
15.316667	1	14.119000
15.333333	1	12.682125
15.350000	1	11.384250
15.366667	1	10.218125
15.383333	1	9.173625
15.400000	1	8.238875
15.416667	1	7.407500
15.433333	1	6.667875
15.450000	1	6.012625
15.466667	1	5.433875
15.483333	1	4.924125
15.500000	1	4.477375
15.516667	1	4.087250
15.533333	1	3.747750
15.550000	1	3.453125
15.566667	1	3.199000
15.583333	1	2.978375
15.600000	1	2.788000
15.616667	1	2.623500
15.633333	1	2.480250
15.650000	1	2.354500
15.666667	1	2.243875
15.683333	1	2.145375
15.700000	1	2.056625
15.716667	1	1.975125
15.733333	1	1.900750
15.750000	1	1.830875
15.766667	1	1.765875
15.783333	1	1.704875
15.800000	1	1.647750
15.816667	1	1.593750
15.833333	1	1.542875
15.850000	1	1.494625
15.866667	1	1.449375
15.883333	1	1.406375
15.900000	1	1.365500
15.916667	1	1.327000
15.933333	1	1.290625
15.950000	1	1.255875
15.966667	1	1.222625
15.983333	1	1.191250
16.000000	1	1.162000
16.016667	1	1.135750
16.033333	1	1.110500
16.050000	1	1.087000
16.066667	1	1.065250
16.083333	1	1.046500
16.100000	1	1.030500
16.116667	1	1.016375
16.133333	1	1.003500
16.150000	1	0.992375
16.166667	1	0.983375
16.183333	1	0.976000
16.200000	1	0.969375
16.216667	1	0.962750
16.233333	1	0.957750
16.250000	1	0.951875
16.266667	1	0.946250
16.283333	1	0.940125
16.300000	1	0.933625
16.316667	1	0.925625
16.333333	1	0.918250
16.350000	1	0.909875
16.366667	1	0.901125
16.383333	1	0.892000
16.400000	1	0.883125
16.416667	1	0.874375
16.433333	1	0.865750
16.450000	1	0.857375
16.466667	1	0.849375
16.483333	1	0.841875
16.500000	1	0.836000
16.516667	1	0.830500
16.533333	1	0.825375
16.550000	1	0.821625
16.566667	1	0.818875
16.583333	1	0.816625
16.600000	1	0.815250
16.616667	1	0.815000
16.633333	1	0.815750
16.650000	1	0.817500
16.666667	1	0.819500
16.683333	1	0.822375
16.700000	1	0.825500
16.716667	1	0.829000
16.733333	1	0.832375
16.750000	1	0.835750
16.766667	1	0.839500
16.783333	1	0.843500
16.800000	1	0.846375
16.816667	1	0.848750
16.833333	1	0.850250
16.850000	1	0.851625
16.866667	1	0.851625
16.883333	1	0.851125
16.900000	1	0.850125
16.916667	1	0.848875
16.933333	1	0.847625
16.950000	1	0.846500
16.966667	1	0.845625
16.983333	1	0.845625
17.000000	1	0.846250
17.016667	1	0.846625
17.033333	1	0.848500
17.050000	1	0.849875
17.066667	1	0.851500
17.083333	1	0.852750
17.100000	1	0.853875
17.116667	1	0.854125
17.133333	1	0.854750
17.150000	1	0.854625
17.166667	1	0.852750
17.183333	1	0.850500
17.200000	1	0.847750
17.216667	1	0.843875
17.233333	1	0.838625
17.250000	1	0.833125
17.266667	1	0.827500
17.283333	1	0.820625
17.300000	1	0.814000
17.316667	1	0.806750
17.333333	1	0.800250
17.350000	1	0.793625
17.366667	1	0.787250
17.383333	1	0.781375
17.400000	1	0.776375
17.416667	1	0.772375
17.433333	1	0.768375
17.450000	1	0.765625
17.466667	1	0.763125
17.483333	1	0.762625
17.500000	1	0.762250
17.516667	1	0.763625
17.533333	1	0.766625
17.550000	1	0.770625
17.566667	1	0.776375
17.583333	1	0.783125
17.600000	1	0.791250
17.616667	1	0.801250
17.633333	1	0.811500
17.650000	1	0.823250
17.666667	1	0.835625
17.683333	1	0.848875
17.700000	1	0.862375
17.716667	1	0.876125
17.733333	1	0.889875
17.750000	1	0.903750
17.766667	1	0.917500
17.783333	1	0.930875
17.800000	1	0.944125
17.816667	1	0.956500
17.833333	1	0.966750
17.850000	1	0.976250
17.866667	1	0.984375
17.883333	1	0.990625
17.900000	1	0.995625
17.916667	1	0.997375
17.933333	1	0.997500
17.950000	1	0.995500
17.966667	1	0.992125
17.983333	1	0.986875
18.000000	1	0.980125
18.016667	1	0.971750
18.033333	1	0.961750
18.050000	1	0.950125
18.066667	1	0.937250
18.083333	1	0.924875
18.100000	1	0.911625
18.116667	1	0.898500
18.133333	1	0.884500
18.150000	1	0.871625
18.166667	1	0.858750
18.183333	1	0.845625
18.200000	1	0.833000
18.216667	1	0.820500
18.233333	1	0.809000
18.250000	1	0.798750
18.266667	1	0.788500
18.283333	1	0.780375
18.300000	1	0.773000
18.316667	1	0.766500
18.333333	1	0.760875
18.350000	1	0.755750
18.366667	1	0.752875
18.383333	1	0.750000
18.400000	1	0.747875
18.416667	1	0.746375
18.433333	1	0.745750
18.450000	1	0.744750
18.466667	1	0.744250
18.483333	1	0.745000
18.500000	1	0.745625
18.516667	1	0.746875
18.533333	1	0.747250
18.550000	1	0.748250
18.566667	1	0.750000
18.583333	1	0.751875
18.600000	1	0.753375
18.616667	1	0.755500
18.633333	1	0.757750
18.650000	1	0.759875
18.666667	1	0.762625
18.683333	1	0.766000
18.700000	1	0.770000
18.716667	1	0.774375
18.733333	1	0.779625
18.750000	1	0.784250
18.766667	1	0.790625
18.783333	1	0.797125
18.800000	1	0.804750
18.816667	1	0.812125
18.833333	1	0.820625
18.850000	1	0.830125
18.866667	1	0.840125
18.883333	1	0.851500
18.900000	1	0.863750
18.916667	1	0.878125
18.933333	1	0.894875
18.950000	1	0.912500
18.966667	1	0.932750
18.983333	1	0.955375
19.000000	1	0.980500
19.016667	1	1.008625
19.033333	1	1.038500
19.050000	1	1.070500
19.066667	1	1.105375
19.083333	1	1.140375
19.100000	1	1.178250
19.116667	1	1.215875
19.133333	1	1.253625
19.150000	1	1.290375
19.166667	1	1.325375
19.183333	1	1.357750
19.200000	1	1.387000
19.216667	1	1.412250
19.233333	1	1.432500
19.250000	1	1.448125
19.266667	1	1.458250
19.283333	1	1.463125
19.300000	1	1.462500
19.316667	1	1.456500
19.333333	1	1.444625
19.350000	1	1.427250
19.366667	1	1.405625
19.383333	1	1.380000
19.400000	1	1.351375
19.416667	1	1.319125
19.433333	1	1.285250
19.450000	1	1.249125
19.466667	1	1.211750
19.483333	1	1.175000
19.500000	1	1.138000
19.516667	1	1.102000
19.533333	1	1.066375
19.550000	1	1.032875
19.566667	1	1.002125
19.583333	1	0.973750
19.600000	1	0.948375
19.616667	1	0.926125
19.633333	1	0.908000
19.650000	1	0.893500
19.666667	1	0.884000
19.683333	1	0.878875
19.700000	1	0.879125
19.716667	1	0.885625
19.733333	1	0.897125
19.750000	1	0.915625
19.766667	1	0.941125
19.783333	1	0.972125
19.800000	1	1.009500
19.816667	1	1.051625
19.833333	1	1.099375
19.850000	1	1.151625
19.866667	1	1.207125
19.883333	1	1.265000
19.900000	1	1.323125
19.916667	1	1.381000
19.933333	1	1.437125
19.950000	1	1.489250
19.966667	1	1.536500
19.983333	1	1.577625
20.000000	1	1.612000
20.016667	1	1.638750
20.033333	1	1.657750
20.050000	1	1.667250
20.066667	1	1.669000
20.083333	1	1.662250
20.100000	1	1.649375
20.116667	1	1.630000
20.133333	1	1.604750
20.150000	1	1.576125
20.166667	1	1.543500
20.183333	1	1.508875
20.200000	1	1.472250
20.216667	1	1.435875
20.233333	1	1.399625
20.250000	1	1.365125
20.266667	1	1.333250
20.283333	1	1.303875
20.300000	1	1.277500
20.316667	1	1.255625
20.333333	1	1.236375
20.350000	1	1.220000
20.366667	1	1.207500
20.383333	1	1.198625
20.400000	1	1.191875
20.416667	1	1.186375
20.433333	1	1.182375
20.450000	1	1.179375
20.466667	1	1.176875
20.483333	1	1.175125
20.500000	1	1.172500
20.516667	1	1.168875
20.533333	1	1.164125
20.550000	1	1.158875
20.566667	1	1.152000
20.583333	1	1.144750
20.600000	1	1.136375
20.616667	1	1.128125
20.633333	1	1.119375
20.650000	1	1.112750
20.666667	1	1.107125
20.683333	1	1.102875
20.700000	1	1.102625
20.716667	1	1.105625
20.733333	1	1.112875
20.750000	1	1.123250
20.766667	1	1.137500
20.783333	1	1.155500
20.800000	1	1.177375
20.816667	1	1.202250
20.833333	1	1.229125
20.850000	1	1.257875
20.866667	1	1.285750
20.883333	1	1.312375
20.900000	1	1.336500
20.916667	1	1.356875
20.933333	1	1.372375
20.950000	1	1.382625
20.966667	1	1.386125
20.983333	1	1.383375
21.000000	1	1.374000
21.016667	1	1.357625
21.033333	1	1.334750
21.050000	1	1.306000
21.066667	1	1.272625
21.083333	1	1.234375
21.100000	1	1.193125
21.116667	1	1.149125
21.133333	1	1.104250
21.150000	1	1.058125
21.166667	1	1.011625
21.183333	1	0.964875
21.200000	1	0.920250
21.216667	1	0.876375
21.233333	1	0.834625
21.250000	1	0.795000
21.266667	1	0.758500
21.283333	1	0.723625
21.300000	1	0.693375
21.316667	1	0.664250
21.333333	1	0.637250
21.350000	1	0.613375
21.366667	1	0.592125
21.383333	1	0.572125
21.400000	1	0.554500
21.416667	1	0.539000
21.433333	1	0.525000
21.450000	1	0.512750
21.466667	1	0.502125
21.483333	1	0.492875
21.500000	1	0.485000
21.516667	1	0.478125
21.533333	1	0.472125
21.550000	1	0.466750
21.566667	1	0.461875
21.583333	1	0.457500
21.600000	1	0.453875
21.616667	1	0.450625
21.633333	1	0.448250
21.650000	1	0.446250
21.666667	1	0.445000
21.683333	1	0.445000
21.700000	1	0.444375
21.716667	1	0.444875
21.733333	1	0.445875
21.750000	1	0.447500
21.766667	1	0.449875
21.783333	1	0.452875
21.800000	1	0.456375
21.816667	1	0.461625
21.833333	1	0.467375
21.850000	1	0.473500
21.866667	1	0.481000
21.883333	1	0.488875
21.900000	1	0.497000
21.916667	1	0.505000
21.933333	1	0.513125
21.950000	1	0.521875
21.966667	1	0.529875
21.983333	1	0.536750
22.000000	1	0.543875
22.016667	1	0.549625
22.033333	1	0.554625
22.050000	1	0.558625
22.066667	1	0.561875
22.083333	1	0.563000
22.100000	1	0.563625
22.116667	1	0.562875
22.133333	1	0.561250
22.150000	1	0.557875
22.166667	1	0.554250
22.183333	1	0.549875
22.200000	1	0.544625
22.216667	1	0.539125
22.233333	1	0.533375
22.250000	1	0.527875
22.266667	1	0.522125
22.283333	1	0.516375
22.300000	1	0.510750
22.316667	1	0.506375
22.333333	1	0.502375
22.350000	1	0.499375
22.366667	1	0.496500
22.383333	1	0.494250
22.400000	1	0.492375
22.416667	1	0.491625
22.433333	1	0.491000
22.450000	1	0.491500
22.466667	1	0.492625
22.483333	1	0.494625
22.500000	1	0.496500
22.516667	1	0.499125
22.533333	1	0.501625
22.550000	1	0.504250
22.566667	1	0.507125
22.583333	1	0.510375
22.600000	1	0.514000
22.616667	1	0.517375
22.633333	1	0.519875
22.650000	1	0.522750
22.666667	1	0.525000
22.683333	1	0.527000
22.700000	1	0.528500
22.716667	1	0.530000
22.733333	1	0.530500
22.750000	1	0.531000
22.766667	1	0.531250
22.783333	1	0.530125
22.800000	1	0.529000
22.816667	1	0.526750
22.833333	1	0.524125
22.850000	1	0.520875
22.866667	1	0.517250
22.883333	1	0.513125
22.900000	1	0.509000
22.916667	1	0.503750
22.933333	1	0.498250
22.950000	1	0.492750
22.966667	1	0.488500
22.983333	1	0.483250
23.000000	1	0.477875
23.016667	1	0.473125
23.033333	1	0.469250
23.050000	1	0.465125
23.066667	1	0.461500
23.083333	1	0.458750
23.100000	1	0.457125
23.116667	1	0.455875
23.133333	1	0.454875
23.150000	1	0.455250
23.166667	1	0.457125
23.183333	1	0.459375
23.200000	1	0.463000
23.216667	1	0.468000
23.233333	1	0.473625
23.250000	1	0.481000
23.266667	1	0.489500
23.283333	1	0.500250
23.300000	1	0.511375
23.316667	1	0.525625
23.333333	1	0.541250
23.350000	1	0.558625
23.366667	1	0.577625
23.383333	1	0.599500
23.400000	1	0.623625
23.416667	1	0.650625
23.433333	1	0.681500
23.450000	1	0.715625
23.466667	1	0.754000
23.483333	1	0.797250
23.500000	1	0.846500
23.516667	1	0.901750
23.533333	1	0.963625
23.550000	1	1.033625
23.566667	1	1.112625
23.583333	1	1.200750
23.600000	1	1.300125
23.616667	1	1.410375
23.633333	1	1.532000
23.650000	1	1.666000
23.666667	1	1.811625
23.683333	1	1.968750
23.700000	1	2.137750
23.716667	1	2.317125
23.733333	1	2.504875
23.750000	1	2.699000
23.766667	1	2.897000
23.783333	1	3.096750
23.800000	1	3.293625
23.816667	1	3.485875
23.833333	1	3.669625
23.850000	1	3.841250
23.866667	1	3.997250
23.883333	1	4.134750
23.900000	1	4.251250
23.916667	1	4.344625
23.933333	1	4.413125
23.950000	1	4.455500
23.966667	1	4.471125
23.983333	1	4.459875
24.000000	1	4.423875
24.016667	1	4.364125
24.033333	1	4.280875
24.050000	1	4.178625
24.066667	1	4.058125
24.083333	1	3.922625
24.100000	1	3.774875
24.116667	1	3.617750
24.133333	1	3.454375
24.150000	1	3.285875
24.166667	1	3.115750
24.183333	1	2.947000
24.200000	1	2.780125
24.216667	1	2.617750
24.233333	1	2.461125
24.250000	1	2.311125
24.266667	1	2.169375
24.283333	1	2.035000
24.300000	1	1.909125
24.316667	1	1.791875
24.333333	1	1.682875
24.350000	1	1.582250
24.366667	1	1.489000
24.383333	1	1.404125
24.400000	1	1.326750
24.416667	1	1.256250
24.433333	1	1.191000
24.450000	1	1.131750
24.466667	1	1.077125
24.483333	1	1.027500
24.500000	1	0.982000
24.516667	1	0.940125
24.533333	1	0.901375
24.550000	1	0.864375
24.566667	1	0.829875
24.583333	1	0.798375
24.600000	1	0.767875
24.616667	1	0.738875
24.633333	1	0.711250
24.650000	1	0.684625
24.666667	1	0.659625
24.683333	1	0.635500
24.700000	1	0.611875
24.716667	1	0.589375
24.733333	1	0.568375
24.750000	1	0.547125
24.766667	1	0.527000
24.783333	1	0.507500
24.800000	1	0.489375
24.816667	1	0.471750
24.833333	1	0.455500
24.850000	1	0.440500
24.866667	1	0.426375
24.883333	1	0.412500
24.900000	1	0.399625
24.916667	1	0.387250
24.933333	1	0.376125
24.950000	1	0.365375
24.966667	1	0.355625
24.983333	1	0.346875
25.000000	1	0.339625
25.016667	1	0.332625
25.033333	1	0.327000
25.050000	1	0.322250
25.066667	1	0.318125
25.083333	1	0.315500
25.100000	1	0.312375
25.116667	1	0.309625
25.133333	1	0.307375
25.150000	1	0.306375
25.166667	1	0.305375
25.183333	1	0.305375
25.200000	1	0.306000
25.216667	1	0.306875
25.233333	1	0.307875
25.250000	1	0.309125
25.266667	1	0.310875
25.283333	1	0.312625
25.300000	1	0.315000
25.316667	1	0.317125
25.333333	1	0.319125
25.350000	1	0.321625
25.366667	1	0.323875
25.383333	1	0.326125
25.400000	1	0.328625
25.416667	1	0.330625
25.433333	1	0.332500
25.450000	1	0.333750
25.466667	1	0.334875
25.483333	1	0.336375
25.500000	1	0.337625
25.516667	1	0.338000
25.533333	1	0.338625
25.550000	1	0.338875
25.566667	1	0.338750
25.583333	1	0.337750
25.600000	1	0.337125
25.616667	1	0.336750
25.633333	1	0.336000
25.650000	1	0.335875
25.666667	1	0.334125
25.683333	1	0.332500
25.700000	1	0.330500
25.716667	1	0.328625
25.733333	1	0.326500
25.750000	1	0.324000
25.766667	1	0.320500
25.783333	1	0.317875
25.800000	1	0.314125
25.816667	1	0.310875
25.833333	1	0.307000
25.850000	1	0.303375
25.866667	1	0.299125
25.883333	1	0.294750
25.900000	1	0.289875
25.916667	1	0.284875
25.933333	1	0.280000
25.950000	1	0.274875
25.966667	1	0.269500
25.983333	1	0.264125
26.000000	1	0.258125
26.016667	1	0.251500
26.033333	1	0.245750
26.050000	1	0.239625
26.066667	1	0.234250
26.083333	1	0.229125
26.100000	1	0.224375
26.116667	1	0.219375
26.133333	1	0.215250
26.150000	1	0.211125
26.166667	1	0.208000
26.183333	1	0.205625
26.200000	1	0.204250
26.216667	1	0.202625
26.233333	1	0.202000
26.250000	1	0.201750
26.266667	1	0.202500
26.283333	1	0.203250
26.300000	1	0.204625
26.316667	1	0.206000
26.333333	1	0.208000
26.350000	1	0.210250
26.366667	1	0.213000
26.383333	1	0.215250
26.400000	1	0.218000
26.416667	1	0.220500
26.433333	1	0.223750
26.450000	1	0.226250
26.466667	1	0.228375
26.483333	1	0.230750
26.500000	1	0.233125
26.516667	1	0.234750
26.533333	1	0.235875
26.550000	1	0.236750
26.566667	1	0.237250
26.583333	1	0.238500
26.600000	1	0.238625
26.616667	1	0.239375
26.633333	1	0.239500
26.650000	1	0.240250
26.666667	1	0.240125
26.683333	1	0.239750
26.700000	1	0.239375
26.716667	1	0.238875
26.733333	1	0.239000
26.750000	1	0.239125
26.766667	1	0.239500
26.783333	1	0.239625
26.800000	1	0.240000
26.816667	1	0.240750
26.833333	1	0.241375
26.850000	1	0.242875
26.866667	1	0.243625
26.883333	1	0.245625
26.900000	1	0.247625
26.916667	1	0.249000
26.933333	1	0.251625
26.950000	1	0.254125
26.966667	1	0.257875
26.983333	1	0.261750
27.000000	1	0.266250
27.016667	1	0.270750
27.033333	1	0.276000
27.050000	1	0.281375
27.066667	1	0.287750
27.083333	1	0.294750
27.100000	1	0.301250
27.116667	1	0.309500
27.133333	1	0.317625
27.150000	1	0.326375
27.166667	1	0.335625
27.183333	1	0.345875
27.200000	1	0.357250
27.216667	1	0.368625
27.233333	1	0.380750
27.250000	1	0.394125
27.266667	1	0.408000
27.283333	1	0.423500
27.300000	1	0.440125
27.316667	1	0.457625
27.333333	1	0.475750
27.350000	1	0.495250
27.366667	1	0.516250
27.383333	1	0.538750
27.400000	1	0.563500
27.416667	1	0.590125
27.433333	1	0.619250
27.450000	1	0.651250
27.466667	1	0.686000
27.483333	1	0.724000
27.500000	1	0.765875
27.516667	1	0.812125
27.533333	1	0.862250
27.550000	1	0.917750
27.566667	1	0.978125
27.583333	1	1.044625
27.600000	1	1.117750
27.616667	1	1.197750
27.633333	1	1.283875
27.650000	1	1.376375
27.666667	1	1.476625
27.683333	1	1.583250
27.700000	1	1.697250
27.716667	1	1.816250
27.733333	1	1.941000
27.750000	1	2.070000
27.766667	1	2.203000
27.783333	1	2.338625
27.800000	1	2.475250
27.816667	1	2.610875
27.833333	1	2.744625
27.850000	1	2.875500
27.866667	1	3.000625
27.883333	1	3.118875
27.900000	1	3.227750
27.916667	1	3.326250
27.933333	1	3.411500
27.950000	1	3.484375
27.966667	1	3.541875
27.983333	1	3.582750
28.000000	1	3.608000
28.016667	1	3.615625
28.033333	1	3.605375
28.050000	1	3.578500
28.066667	1	3.534250
28.083333	1	3.474250
28.100000	1	3.399500
28.116667	1	3.310625
28.133333	1	3.209500
28.150000	1	3.096375
28.166667	1	2.974000
28.183333	1	2.843125
28.200000	1	2.706125
28.216667	1	2.564375
28.233333	1	2.419875
28.250000	1	2.273625
28.266667	1	2.127250
28.283333	1	1.981625
28.300000	1	1.838250
28.316667	1	1.697375
28.333333	1	1.562000
28.350000	1	1.429875
28.366667	1	1.303250
28.383333	1	1.181250
28.400000	1	1.064875
28.416667	1	0.953750
28.433333	1	0.847625
28.450000	1	0.747375
28.466667	1	0.651750
28.483333	1	0.560500
28.500000	1	0.473000
28.516667	1	0.390000
28.533333	1	0.310875
28.550000	1	0.234375
28.566667	1	0.161500
28.583333	1	0.092000
28.600000	1	0.024750
28.616667	1	-0.040250
28.633333	1	-0.103500
28.650000	1	-0.164625
28.666667	1	-0.223750
28.683333	1	-0.280750
28.700000	1	-0.335625
28.716667	1	-0.388250
28.733333	1	-0.438250
28.750000	1	-0.485750
28.766667	1	-0.530625
28.783333	1	-0.572750
28.800000	1	-0.611500
28.816667	1	-0.646750
28.833333	1	-0.678875
28.850000	1	-0.706500
28.866667	1	-0.731375
28.883333	1	-0.751625
28.900000	1	-0.768000
28.916667	1	-0.780250
28.933333	1	-0.788375
28.950000	1	-0.791875
28.966667	1	-0.790625
28.983333	1	-0.785375
29.000000	1	-0.775875
29.016667	1	-0.762750
29.033333	1	-0.746000
29.050000	1	-0.725250
29.066667	1	-0.701750
29.083333	1	-0.675625
29.100000	1	-0.645125
29.116667	1	-0.612625
29.133333	1	-0.578500
29.150000	1	-0.542500
29.166667	1	-0.505375
29.183333	1	-0.466500
29.200000	1	-0.427375
29.216667	1	-0.387000
29.233333	1	-0.346625
29.250000	1	-0.306250
29.266667	1	-0.266875
29.283333	1	-0.227375
29.300000	1	-0.189000
29.316667	1	-0.151000
29.333333	1	-0.113750
29.350000	1	-0.078000
29.366667	1	-0.043875
29.383333	1	-0.010750
29.400000	1	0.021375
29.416667	1	0.051750
29.433333	1	0.080000
29.450000	1	0.106750
29.466667	1	0.132250
29.483333	1	0.155750
29.500000	1	0.177500
29.516667	1	0.197250
29.533333	1	0.215125
29.550000	1	0.231125
29.566667	1	0.246375
29.583333	1	0.260250
29.600000	1	0.272250
29.616667	1	0.282375
29.633333	1	0.291000
29.650000	1	0.298250
29.666667	1	0.304125
29.683333	1	0.308125
29.700000	1	0.311875
29.716667	1	0.314500
29.733333	1	0.316500
29.750000	1	0.317375
29.766667	1	0.317750
29.783333	1	0.317875
29.800000	1	0.317000
29.816667	1	0.315625
29.833333	1	0.313625
29.850000	1	0.311875
29.866667	1	0.309875
29.883333	1	0.308125
29.900000	1	0.305250
29.916667	1	0.302500
29.933333	1	0.300125
29.950000	1	0.297625
29.966667	1	0.295750
29.983333	1	0.294125
30.000000	1	0.293000
30.016667	1	0.292250
30.033333	1	0.291250
30.050000	1	0.290750
30.066667	1	0.289875
30.083333	1	0.289875
30.100000	1	0.289875
30.116667	1	0.290500
30.133333	1	0.291500
30.150000	1	0.293250
30.166667	1	0.295500
30.183333	1	0.297375
30.200000	1	0.300125
30.216667	1	0.303625
30.233333	1	0.306875
30.250000	1	0.310750
30.266667	1	0.315250
30.283333	1	0.319875
30.300000	1	0.325625
30.316667	1	0.331500
30.333333	1	0.338250
30.350000	1	0.345375
30.366667	1	0.354250
30.383333	1	0.363250
30.400000	1	0.373875
30.416667	1	0.384875
30.433333	1	0.396500
30.450000	1	0.408750
30.466667	1	0.422000
30.483333	1	0.435375
30.500000	1	0.449750
30.516667	1	0.465625
30.533333	1	0.482000
30.550000	1	0.498750
30.566667	1	0.515625
30.583333	1	0.532375
30.600000	1	0.549500
30.616667	1	0.566500
30.633333	1	0.582625
30.650000	1	0.598500
30.666667	1	0.613250
30.683333	1	0.627500
30.700000	1	0.640625
30.716667	1	0.651750
30.733333	1	0.661250
30.750000	1	0.669375
30.766667	1	0.675625
30.783333	1	0.680125
30.800000	1	0.682875
30.816667	1	0.683625
30.833333	1	0.682250
30.850000	1	0.679375
30.866667	1	0.673500
30.883333	1	0.665875
30.900000	1	0.656375
30.916667	1	0.644875
30.933333	1	0.632375
30.950000	1	0.619250
30.966667	1	0.604625
30.983333	1	0.588875
31.000000	1	0.572625
31.016667	1	0.555125
31.033333	1	0.537750
31.050000	1	0.520125
31.066667	1	0.503000
31.083333	1	0.484625
31.100000	1	0.466750
31.116667	1	0.449250
31.133333	1	0.432500
31.150000	1	0.415750
31.166667	1	0.399750
31.183333	1	0.384625
31.200000	1	0.370000
31.216667	1	0.357000
31.233333	1	0.344500
31.250000	1	0.332625
31.266667	1	0.321375
31.283333	1	0.311250
31.300000	1	0.301375
31.316667	1	0.292625
31.333333	1	0.284250
31.350000	1	0.277625
31.366667	1	0.271250
31.383333	1	0.266000
31.400000	1	0.261375
31.416667	1	0.256625
31.433333	1	0.252875
31.450000	1	0.249250
31.466667	1	0.246000
31.483333	1	0.243625
31.500000	1	0.241500
31.516667	1	0.239750
31.533333	1	0.238875
31.550000	1	0.238500
31.566667	1	0.238000
31.583333	1	0.238375
31.600000	1	0.238625
31.616667	1	0.239375
31.633333	1	0.241000
31.650000	1	0.242250
31.666667	1	0.244125
31.683333	1	0.246750
31.700000	1	0.248750
31.716667	1	0.250625
31.733333	1	0.253750
31.750000	1	0.257250
31.766667	1	0.260625
31.783333	1	0.264875
31.800000	1	0.268500
31.816667	1	0.272125
31.833333	1	0.275625
31.850000	1	0.279375
31.866667	1	0.282625
31.883333	1	0.285750
31.900000	1	0.289000
31.916667	1	0.291875
31.933333	1	0.294375
31.950000	1	0.296000
31.966667	1	0.298375
31.983333	1	0.300250
32.000000	1	0.301500
32.016667	1	0.301750
32.033333	1	0.301375
32.050000	1	0.300875
32.066667	1	0.299250
32.083333	1	0.297875
32.100000	1	0.295500
32.116667	1	0.292625
32.133333	1	0.290375
32.150000	1	0.287500
32.166667	1	0.284250
32.183333	1	0.280125
32.200000	1	0.275875
32.216667	1	0.272000
32.233333	1	0.267125
32.250000	1	0.261875
32.266667	1	0.257125
32.283333	1	0.251750
32.300000	1	0.246625
32.316667	1	0.242750
32.333333	1	0.238375
32.350000	1	0.234250
32.366667	1	0.230750
32.383333	1	0.226375
32.400000	1	0.223000
32.416667	1	0.220125
32.433333	1	0.216875
32.450000	1	0.213875
32.466667	1	0.211625
32.483333	1	0.209000
32.500000	1	0.207375
32.516667	1	0.206375
32.533333	1	0.205500
32.550000	1	0.203875
32.566667	1	0.202500
32.583333	1	0.201875
32.600000	1	0.200750
32.616667	1	0.199125
32.633333	1	0.198125
32.650000	1	0.197125
32.666667	1	0.195625
32.683333	1	0.193875
32.700000	1	0.191875
32.716667	1	0.189750
32.733333	1	0.188000
32.750000	1	0.186125
32.766667	1	0.184625
32.783333	1	0.182125
32.800000	1	0.179250
32.816667	1	0.176875
32.833333	1	0.174500
32.850000	1	0.171375
32.866667	1	0.168125
32.883333	1	0.165375
32.900000	1	0.162250
32.916667	1	0.158500
32.933333	1	0.155000
32.950000	1	0.152125
32.966667	1	0.149625
32.983333	1	0.146625
33.000000	1	0.143500
33.016667	1	0.140750
33.033333	1	0.137500
33.050000	1	0.134250
33.066667	1	0.131625
33.083333	1	0.128750
33.100000	1	0.126125
33.116667	1	0.124250
33.133333	1	0.121375
33.150000	1	0.118375
33.166667	1	0.116125
33.183333	1	0.113375
33.200000	1	0.111875
33.216667	1	0.110250
33.233333	1	0.108500
33.250000	1	0.105750
33.266667	1	0.104000
33.283333	1	0.102250
33.300000	1	0.101375
33.316667	1	0.099625
33.333333	1	0.098250
33.350000	1	0.096750
33.366667	1	0.095875
33.383333	1	0.095000
33.400000	1	0.094125
33.416667	1	0.093250
33.433333	1	0.092375
33.450000	1	0.091375
33.466667	1	0.090000
33.483333	1	0.088875
33.500000	1	0.087625
33.516667	1	0.087375
33.533333	1	0.087000
33.550000	1	0.086500
33.566667	1	0.086000
33.583333	1	0.086250
33.600000	1	0.085625
33.616667	1	0.085000
33.633333	1	0.085250
33.650000	1	0.084500
33.666667	1	0.084250
33.683333	1	0.084375
33.700000	1	0.084125
33.716667	1	0.084625
33.733333	1	0.084750
33.750000	1	0.084750
33.766667	1	0.085625
33.783333	1	0.086500
33.800000	1	0.086625
33.816667	1	0.086875
33.833333	1	0.087250
33.850000	1	0.087250
33.866667	1	0.088125
33.883333	1	0.089000
33.900000	1	0.090250
33.916667	1	0.091375
33.933333	1	0.092750
33.950000	1	0.093125
33.966667	1	0.094000
33.983333	1	0.094750
34.000000	1	0.095750
34.016667	1	0.097125
34.033333	1	0.097375
34.050000	1	0.098375
34.066667	1	0.099625
34.083333	1	0.100875
34.100000	1	0.101875
34.116667	1	0.103000
34.133333	1	0.104250
34.150000	1	0.105125
34.166667	1	0.106625
34.183333	1	0.107875
34.200000	1	0.108625
34.216667	1	0.109375
34.233333	1	0.110000
34.250000	1	0.110750
34.266667	1	0.111875
34.283333	1	0.112375
34.300000	1	0.112625
34.316667	1	0.113500
34.333333	1	0.114500
34.350000	1	0.115125
34.366667	1	0.115625
34.383333	1	0.115750
34.400000	1	0.116125
34.416667	1	0.115625
34.433333	1	0.115625
34.450000	1	0.115875
34.466667	1	0.115625
34.483333	1	0.115250
34.500000	1	0.115125
34.516667	1	0.115750
34.533333	1	0.115625
34.550000	1	0.115000
34.566667	1	0.114750
34.583333	1	0.114000
34.600000	1	0.113500
34.616667	1	0.112750
34.633333	1	0.112375
34.650000	1	0.112250
34.666667	1	0.112625
34.683333	1	0.112375
34.700000	1	0.111750
34.716667	1	0.111500
34.733333	1	0.111625
34.750000	1	0.111875
34.766667	1	0.112250
34.783333	1	0.112250
34.800000	1	0.112500
34.816667	1	0.112875
34.833333	1	0.112750
34.850000	1	0.113250
34.866667	1	0.113875
34.883333	1	0.114750
34.900000	1	0.115000
34.916667	1	0.116750
34.933333	1	0.117500
34.950000	1	0.118750
34.966667	1	0.119625
34.983333	1	0.120625
35.000000	1	0.121750
35.016667	1	0.122875
35.033333	1	0.124250
35.050000	1	0.126125
35.066667	1	0.127125
35.083333	1	0.128500
35.100000	1	0.130125
35.116667	1	0.131375
35.133333	1	0.133250
35.150000	1	0.135000
35.166667	1	0.136875
35.183333	1	0.138500
35.200000	1	0.140000
35.216667	1	0.141625
35.233333	1	0.143125
35.250000	1	0.144125
35.266667	1	0.145875
35.283333	1	0.147875
35.300000	1	0.149625
35.316667	1	0.151250
35.333333	1	0.153000
35.350000	1	0.154000
35.366667	1	0.155375
35.383333	1	0.156250
35.400000	1	0.157375
35.416667	1	0.158875
35.433333	1	0.159375
35.450000	1	0.159875
35.466667	1	0.161000
35.483333	1	0.161875
35.500000	1	0.162750
35.516667	1	0.163125
35.533333	1	0.163625
35.550000	1	0.163750
35.566667	1	0.164500
35.583333	1	0.165125
35.600000	1	0.165125
35.616667	1	0.165125
35.633333	1	0.165625
35.650000	1	0.166375
35.666667	1	0.167000
35.683333	1	0.167625
35.700000	1	0.168125
35.716667	1	0.168250
35.733333	1	0.168500
35.750000	1	0.168750
35.766667	1	0.169375
35.783333	1	0.169250
35.800000	1	0.169500
35.816667	1	0.169625
35.833333	1	0.170125
35.850000	1	0.170875
35.866667	1	0.171250
35.883333	1	0.171250
35.900000	1	0.172125
35.916667	1	0.172750
35.933333	1	0.172625
35.950000	1	0.172750
35.966667	1	0.172875
35.983333	1	0.172875
36.000000	1	0.173000
36.016667	1	0.172125
36.033333	1	0.172375
36.050000	1	0.172250
36.066667	1	0.171875
36.083333	1	0.171750
36.100000	1	0.171875
36.116667	1	0.171875
36.133333	1	0.171875
36.150000	1	0.171250
36.166667	1	0.170625
36.183333	1	0.170375
36.200000	1	0.169250
36.216667	1	0.168625
36.233333	1	0.167625
36.250000	1	0.166375
36.266667	1	0.165000
36.283333	1	0.164125
36.300000	1	0.163500
36.316667	1	0.163125
36.333333	1	0.161750
36.350000	1	0.161250
36.366667	1	0.160250
36.383333	1	0.158750
36.400000	1	0.158000
36.416667	1	0.156750
36.433333	1	0.155500
36.450000	1	0.153500
36.466667	1	0.151625
36.483333	1	0.149625
36.500000	1	0.148125
36.516667	1	0.147250
36.533333	1	0.145750
36.550000	1	0.143875
36.566667	1	0.142000
36.583333	1	0.139875
36.600000	1	0.138250
36.616667	1	0.136125
36.633333	1	0.133875
36.650000	1	0.131125
36.666667	1	0.129000
36.683333	1	0.126125
36.700000	1	0.124000
36.716667	1	0.121500
36.733333	1	0.118625
36.750000	1	0.115500
36.766667	1	0.112625
36.783333	1	0.109500
36.800000	1	0.106625
36.816667	1	0.103500
36.833333	1	0.100375
36.850000	1	0.098000
36.866667	1	0.095625
36.883333	1	0.092750
36.900000	1	0.089875
36.916667	1	0.087625
36.933333	1	0.085625
36.950000	1	0.083125
36.966667	1	0.080500
36.983333	1	0.077875
37.000000	1	0.075250
37.016667	1	0.073500
37.033333	1	0.071625
37.050000	1	0.070375
37.066667	1	0.068375
37.083333	1	0.066750
37.100000	1	0.064875
37.116667	1	0.063375
37.133333	1	0.061750
37.150000	1	0.060500
37.166667	1	0.059750
37.183333	1	0.058875
37.200000	1	0.058125
37.216667	1	0.057875
37.233333	1	0.056750
37.250000	1	0.056125
37.266667	1	0.055625
37.283333	1	0.055875
37.300000	1	0.055875
37.316667	1	0.055500
37.333333	1	0.056125
37.350000	1	0.056125
37.366667	1	0.055875
37.383333	1	0.055500
37.400000	1	0.055625
37.416667	1	0.056500
37.433333	1	0.056750
37.450000	1	0.057500
37.466667	1	0.058500
37.483333	1	0.058875
37.500000	1	0.059125
37.516667	1	0.060125
37.533333	1	0.061000
37.550000	1	0.061750
37.566667	1	0.062125
37.583333	1	0.062250
37.600000	1	0.063375
37.616667	1	0.064500
37.633333	1	0.065750
37.650000	1	0.066625
37.666667	1	0.067500
37.683333	1	0.068750
37.700000	1	0.069500
37.716667	1	0.071250
37.733333	1	0.072625
37.750000	1	0.073375
37.766667	1	0.074375
37.783333	1	0.075125
37.800000	1	0.075750
37.816667	1	0.077500
37.833333	1	0.078500
37.850000	1	0.079250
37.866667	1	0.079500
37.883333	1	0.081000
37.900000	1	0.082125
37.916667	1	0.082875
37.933333	1	0.083375
37.950000	1	0.084000
37.966667	1	0.084625
37.983333	1	0.084625
38.000000	1	0.085500
38.016667	1	0.085875
38.033333	1	0.086875
38.050000	1	0.087000
38.066667	1	0.087500
38.083333	1	0.088000
38.100000	1	0.088250
38.116667	1	0.087875
38.133333	1	0.088000
38.150000	1	0.088125
38.166667	1	0.088250
38.183333	1	0.087875
38.200000	1	0.088250
38.216667	1	0.087250
38.233333	1	0.086375
38.250000	1	0.085750
38.266667	1	0.085000
38.283333	1	0.084625
38.300000	1	0.084750
38.316667	1	0.084375
38.333333	1	0.083250
38.350000	1	0.082625
38.366667	1	0.082125
38.383333	1	0.081250
38.400000	1	0.079625
38.416667	1	0.078250
38.433333	1	0.076875
38.450000	1	0.076000
38.466667	1	0.075375
38.483333	1	0.074375
38.500000	1	0.073875
38.516667	1	0.072250
38.533333	1	0.070875
38.550000	1	0.069375
38.566667	1	0.067875
38.583333	1	0.066625
38.600000	1	0.065375
38.616667	1	0.064500
38.633333	1	0.064000
38.650000	1	0.062750
38.666667	1	0.061375
38.683333	1	0.059750
38.700000	1	0.059250
38.716667	1	0.058500
38.733333	1	0.057750
38.750000	1	0.057625
38.766667	1	0.057000
38.783333	1	0.055750
38.800000	1	0.055125
38.816667	1	0.054875
38.833333	1	0.054375
38.850000	1	0.054125
38.866667	1	0.053750
38.883333	1	0.052500
38.900000	1	0.052000
38.916667	1	0.052125
38.933333	1	0.051875
38.950000	1	0.051375
38.966667	1	0.051250
38.983333	1	0.050750
39.000000	1	0.051125
39.016667	1	0.050375
39.033333	1	0.050125
39.050000	1	0.050250
39.066667	1	0.050250
39.083333	1	0.050250
39.100000	1	0.050375
39.116667	1	0.050750
39.133333	1	0.051125
39.150000	1	0.051625
39.166667	1	0.051750
39.183333	1	0.052250
39.200000	1	0.053250
39.216667	1	0.053625
39.233333	1	0.054250
39.250000	1	0.055125
39.266667	1	0.055875
39.283333	1	0.057500
39.300000	1	0.058125
39.316667	1	0.059375
39.333333	1	0.060875
39.350000	1	0.061750
39.366667	1	0.062875
39.383333	1	0.064250
39.400000	1	0.065750
39.416667	1	0.067375
39.433333	1	0.068750
39.450000	1	0.070500
39.466667	1	0.072125
39.483333	1	0.073875
39.500000	1	0.076125
39.516667	1	0.077625
39.533333	1	0.079375
39.550000	1	0.080625
39.566667	1	0.082750
39.583333	1	0.084625
39.600000	1	0.086500
39.616667	1	0.087875
39.633333	1	0.090375
39.650000	1	0.093250
39.666667	1	0.095375
39.683333	1	0.097250
39.700000	1	0.099000
39.716667	1	0.100875
39.733333	1	0.102625
39.750000	1	0.104250
39.766667	1	0.106125
39.783333	1	0.108000
39.800000	1	0.109000
39.816667	1	0.110625
39.833333	1	0.112000
39.850000	1	0.113375
39.866667	1	0.114250
39.883333	1	0.115750
39.900000	1	0.117250
39.916667	1	0.118500
39.933333	1	0.119500
39.950000	1	0.120250
39.966667	1	0.121250
39.983333	1	0.121250
40.000000	1	0.121750
