File Path	chrom://990-75db15j/XVault/Ultimate_3000/1256/20230531_CMO_stabTest _FP08_FP09.seq/224.smp/RI_1.channel/RI_1.chm
Channel	RI_1

Injection Information:
Data Vault	XVault
Injection	Btet_S06
Injection Number	11
Position	BB7
Comment	
Processing Method	
Instrument Method	run_25B_method
Type	Unknown
Status	Finished
Injection Date	01.06.2023
Injection Time	19:34:29
Injection Volume (µl)	20.000
Dilution Factor	1.0000
Weight	1.0000

Chromatogram Data Information:
Time Min. (min)	0.000000
Time Max. (min)	40.000000
Data Points	2401
Detector	RI
Generating Data System	Chromeleon 7.2.5.9507
Exporting Data System	Chromeleon 7.2.5.0
Operator	Instrument Controller
Signal Quantity	Refractive 
Signal Unit	µRIU
Signal Min.	-0.738500
Signal Max.	69.724125
Channel	RI_1
Driver Name	RID520Driver.dll
Channel Type	Evaluation
Min. Step (s)	1
Max. Step (s)	1
Average Step (s)	1

Signal Parameter Information:
Signal Info	

Chromatogram Data:
Time (min)	Step (s)	Value (µRIU)
0.000000	n.a.	-0.047000
0.016667	1	-0.051500
0.033333	1	-0.053500
0.050000	1	-0.054125
0.066667	1	-0.054375
0.083333	1	-0.054000
0.100000	1	-0.053500
0.116667	1	-0.053875
0.133333	1	-0.054250
0.150000	1	-0.055000
0.166667	1	-0.055375
0.183333	1	-0.055125
0.200000	1	-0.054750
0.216667	1	-0.054750
0.233333	1	-0.054625
0.250000	1	-0.053250
0.266667	1	-0.052250
0.283333	1	-0.051875
0.300000	1	-0.052000
0.316667	1	-0.056000
0.333333	1	-0.061750
0.350000	1	-0.065875
0.366667	1	-0.065875
0.383333	1	-0.062500
0.400000	1	-0.058750
0.416667	1	-0.055625
0.433333	1	-0.051000
0.450000	1	-0.046500
0.466667	1	-0.043375
0.483333	1	-0.041250
0.500000	1	-0.040875
0.516667	1	-0.041125
0.533333	1	-0.042500
0.550000	1	-0.042375
0.566667	1	-0.042375
0.583333	1	-0.042500
0.600000	1	-0.042500
0.616667	1	-0.041250
0.633333	1	-0.040250
0.650000	1	-0.039625
0.666667	1	-0.038125
0.683333	1	-0.038000
0.700000	1	-0.036125
0.716667	1	-0.035250
0.733333	1	-0.034625
0.750000	1	-0.033375
0.766667	1	-0.032000
0.783333	1	-0.030625
0.800000	1	-0.028750
0.816667	1	-0.027375
0.833333	1	-0.025625
0.850000	1	-0.023875
0.866667	1	-0.022625
0.883333	1	-0.022000
0.900000	1	-0.021375
0.916667	1	-0.020250
0.933333	1	-0.018500
0.950000	1	-0.017625
0.966667	1	-0.016750
0.983333	1	-0.016500
1.000000	1	-0.016750
1.016667	1	-0.016250
1.033333	1	-0.016875
1.050000	1	-0.016625
1.066667	1	-0.016875
1.083333	1	-0.016875
1.100000	1	-0.017625
1.116667	1	-0.017750
1.133333	1	-0.018750
1.150000	1	-0.019250
1.166667	1	-0.020500
1.183333	1	-0.021500
1.200000	1	-0.021875
1.216667	1	-0.023000
1.233333	1	-0.024125
1.250000	1	-0.024875
1.266667	1	-0.026500
1.283333	1	-0.027750
1.300000	1	-0.028625
1.316667	1	-0.029500
1.333333	1	-0.030500
1.350000	1	-0.032000
1.366667	1	-0.033250
1.383333	1	-0.035375
1.400000	1	-0.036750
1.416667	1	-0.037875
1.433333	1	-0.038750
1.450000	1	-0.039125
1.466667	1	-0.039875
1.483333	1	-0.041125
1.500000	1	-0.042000
1.516667	1	-0.042875
1.533333	1	-0.044125
1.550000	1	-0.044875
1.566667	1	-0.045500
1.583333	1	-0.046500
1.600000	1	-0.047125
1.616667	1	-0.048375
1.633333	1	-0.049000
1.650000	1	-0.049250
1.666667	1	-0.049750
1.683333	1	-0.050250
1.700000	1	-0.051250
1.716667	1	-0.052500
1.733333	1	-0.053500
1.750000	1	-0.053750
1.766667	1	-0.054500
1.783333	1	-0.055250
1.800000	1	-0.056250
1.816667	1	-0.056500
1.833333	1	-0.057000
1.850000	1	-0.057625
1.866667	1	-0.058250
1.883333	1	-0.058500
1.900000	1	-0.059500
1.916667	1	-0.059875
1.933333	1	-0.060625
1.950000	1	-0.060750
1.966667	1	-0.061375
1.983333	1	-0.062000
2.000000	1	-0.062250
2.016667	1	-0.062500
2.033333	1	-0.062250
2.050000	1	-0.061875
2.066667	1	-0.061750
2.083333	1	-0.061875
2.100000	1	-0.061625
2.116667	1	-0.061625
2.133333	1	-0.061875
2.150000	1	-0.061375
2.166667	1	-0.061375
2.183333	1	-0.060750
2.200000	1	-0.060500
2.216667	1	-0.059750
2.233333	1	-0.058750
2.250000	1	-0.058250
2.266667	1	-0.057250
2.283333	1	-0.056250
2.300000	1	-0.056250
2.316667	1	-0.056250
2.333333	1	-0.055500
2.350000	1	-0.054375
2.366667	1	-0.053125
2.383333	1	-0.052625
2.400000	1	-0.051500
2.416667	1	-0.051000
2.433333	1	-0.050000
2.450000	1	-0.048875
2.466667	1	-0.048250
2.483333	1	-0.047500
2.500000	1	-0.046625
2.516667	1	-0.046250
2.533333	1	-0.046125
2.550000	1	-0.045125
2.566667	1	-0.044500
2.583333	1	-0.044000
2.600000	1	-0.043500
2.616667	1	-0.042000
2.633333	1	-0.040625
2.650000	1	-0.040375
2.666667	1	-0.039875
2.683333	1	-0.039625
2.700000	1	-0.039375
2.716667	1	-0.038500
2.733333	1	-0.038125
2.750000	1	-0.037875
2.766667	1	-0.036500
2.783333	1	-0.035875
2.800000	1	-0.035625
2.816667	1	-0.035375
2.833333	1	-0.035125
2.850000	1	-0.035125
2.866667	1	-0.035125
2.883333	1	-0.034750
2.900000	1	-0.034875
2.916667	1	-0.034875
2.933333	1	-0.034375
2.950000	1	-0.034750
2.966667	1	-0.034375
2.983333	1	-0.035125
3.000000	1	-0.035250
3.016667	1	-0.035750
3.033333	1	-0.035500
3.050000	1	-0.036125
3.066667	1	-0.035750
3.083333	1	-0.036000
3.100000	1	-0.036750
3.116667	1	-0.037250
3.133333	1	-0.038000
3.150000	1	-0.038000
3.166667	1	-0.037875
3.183333	1	-0.038250
3.200000	1	-0.038750
3.216667	1	-0.038500
3.233333	1	-0.038750
3.250000	1	-0.038875
3.266667	1	-0.039500
3.283333	1	-0.039625
3.300000	1	-0.039750
3.316667	1	-0.040125
3.333333	1	-0.040375
3.350000	1	-0.040375
3.366667	1	-0.040500
3.383333	1	-0.040500
3.400000	1	-0.040875
3.416667	1	-0.040750
3.433333	1	-0.041000
3.450000	1	-0.041250
3.466667	1	-0.041750
3.483333	1	-0.042000
3.500000	1	-0.042375
3.516667	1	-0.042875
3.533333	1	-0.043375
3.550000	1	-0.043125
3.566667	1	-0.043250
3.583333	1	-0.044000
3.600000	1	-0.044250
3.616667	1	-0.045000
3.633333	1	-0.044375
3.650000	1	-0.044875
3.666667	1	-0.045875
3.683333	1	-0.046125
3.700000	1	-0.046250
3.716667	1	-0.047000
3.733333	1	-0.047750
3.750000	1	-0.048000
3.766667	1	-0.048500
3.783333	1	-0.048250
3.800000	1	-0.049125
3.816667	1	-0.049250
3.833333	1	-0.049750
3.850000	1	-0.050125
3.866667	1	-0.050500
3.883333	1	-0.050750
3.900000	1	-0.051125
3.916667	1	-0.051625
3.933333	1	-0.052375
3.950000	1	-0.053000
3.966667	1	-0.053375
3.983333	1	-0.054250
4.000000	1	-0.055500
4.016667	1	-0.056000
4.033333	1	-0.057000
4.050000	1	-0.057625
4.066667	1	-0.058625
4.083333	1	-0.059250
4.100000	1	-0.059500
4.116667	1	-0.060250
4.133333	1	-0.060625
4.150000	1	-0.061375
4.166667	1	-0.061750
4.183333	1	-0.063250
4.200000	1	-0.063875
4.216667	1	-0.064000
4.233333	1	-0.064250
4.250000	1	-0.064500
4.266667	1	-0.065000
4.283333	1	-0.065250
4.300000	1	-0.065500
4.316667	1	-0.065875
4.333333	1	-0.066500
4.350000	1	-0.066750
4.366667	1	-0.066375
4.383333	1	-0.066500
4.400000	1	-0.066625
4.416667	1	-0.066375
4.433333	1	-0.066250
4.450000	1	-0.066875
4.466667	1	-0.066750
4.483333	1	-0.066875
4.500000	1	-0.066250
4.516667	1	-0.065625
4.533333	1	-0.064625
4.550000	1	-0.064000
4.566667	1	-0.063000
4.583333	1	-0.062500
4.600000	1	-0.061625
4.616667	1	-0.060250
4.633333	1	-0.059000
4.650000	1	-0.057000
4.666667	1	-0.055750
4.683333	1	-0.054000
4.700000	1	-0.052875
4.716667	1	-0.051000
4.733333	1	-0.049875
4.750000	1	-0.048750
4.766667	1	-0.047375
4.783333	1	-0.045375
4.800000	1	-0.043250
4.816667	1	-0.041500
4.833333	1	-0.039375
4.850000	1	-0.037875
4.866667	1	-0.036250
4.883333	1	-0.034000
4.900000	1	-0.032250
4.916667	1	-0.030375
4.933333	1	-0.028375
4.950000	1	-0.026750
4.966667	1	-0.024750
4.983333	1	-0.022375
5.000000	1	-0.020375
5.016667	1	-0.018750
5.033333	1	-0.016250
5.050000	1	-0.013500
5.066667	1	-0.011250
5.083333	1	-0.009500
5.100000	1	-0.007375
5.116667	1	-0.005500
5.133333	1	-0.003250
5.150000	1	-0.000375
5.166667	1	0.001875
5.183333	1	0.004875
5.200000	1	0.007500
5.216667	1	0.011250
5.233333	1	0.014250
5.250000	1	0.017375
5.266667	1	0.020625
5.283333	1	0.024250
5.300000	1	0.027250
5.316667	1	0.030250
5.333333	1	0.033875
5.350000	1	0.037375
5.366667	1	0.040125
5.383333	1	0.043250
5.400000	1	0.046250
5.416667	1	0.048500
5.433333	1	0.051625
5.450000	1	0.054500
5.466667	1	0.056625
5.483333	1	0.059250
5.500000	1	0.060125
5.516667	1	0.061875
5.533333	1	0.063875
5.550000	1	0.065000
5.566667	1	0.065875
5.583333	1	0.067125
5.600000	1	0.067625
5.616667	1	0.067375
5.633333	1	0.067000
5.650000	1	0.066000
5.666667	1	0.066000
5.683333	1	0.065250
5.700000	1	0.064750
5.716667	1	0.064000
5.733333	1	0.062875
5.750000	1	0.061500
5.766667	1	0.059625
5.783333	1	0.057875
5.800000	1	0.055875
5.816667	1	0.054375
5.833333	1	0.052875
5.850000	1	0.051375
5.866667	1	0.049375
5.883333	1	0.047375
5.900000	1	0.046125
5.916667	1	0.044750
5.933333	1	0.043625
5.950000	1	0.041750
5.966667	1	0.040875
5.983333	1	0.040000
6.000000	1	0.038750
6.016667	1	0.038125
6.033333	1	0.037000
6.050000	1	0.036250
6.066667	1	0.035250
6.083333	1	0.034875
6.100000	1	0.034250
6.116667	1	0.033625
6.133333	1	0.033000
6.150000	1	0.032875
6.166667	1	0.032250
6.183333	1	0.032375
6.200000	1	0.032500
6.216667	1	0.032500
6.233333	1	0.032500
6.250000	1	0.032250
6.266667	1	0.032375
6.283333	1	0.033125
6.300000	1	0.033625
6.316667	1	0.033000
6.333333	1	0.033375
6.350000	1	0.033750
6.366667	1	0.034125
6.383333	1	0.034375
6.400000	1	0.035500
6.416667	1	0.035375
6.433333	1	0.036125
6.450000	1	0.036875
6.466667	1	0.037625
6.483333	1	0.038500
6.500000	1	0.039875
6.516667	1	0.040750
6.533333	1	0.042000
6.550000	1	0.042875
6.566667	1	0.044000
6.583333	1	0.045750
6.600000	1	0.047125
6.616667	1	0.048500
6.633333	1	0.049750
6.650000	1	0.051125
6.666667	1	0.052375
6.683333	1	0.054125
6.700000	1	0.055500
6.716667	1	0.058000
6.733333	1	0.060125
6.750000	1	0.061750
6.766667	1	0.063625
6.783333	1	0.065000
6.800000	1	0.067375
6.816667	1	0.069125
6.833333	1	0.070250
6.850000	1	0.072500
6.866667	1	0.073875
6.883333	1	0.075000
6.900000	1	0.076625
6.916667	1	0.078000
6.933333	1	0.080250
6.950000	1	0.081625
6.966667	1	0.082750
6.983333	1	0.083625
7.000000	1	0.084500
7.016667	1	0.085500
7.033333	1	0.086125
7.050000	1	0.086750
7.066667	1	0.087125
7.083333	1	0.088125
7.100000	1	0.088125
7.116667	1	0.087875
7.133333	1	0.088000
7.150000	1	0.087875
7.166667	1	0.086500
7.183333	1	0.085250
7.200000	1	0.084250
7.216667	1	0.083375
7.233333	1	0.081875
7.250000	1	0.079500
7.266667	1	0.077375
7.283333	1	0.074500
7.300000	1	0.072500
7.316667	1	0.070625
7.333333	1	0.068000
7.350000	1	0.065250
7.366667	1	0.062125
7.383333	1	0.059125
7.400000	1	0.056375
7.416667	1	0.053375
7.433333	1	0.049750
7.450000	1	0.047250
7.466667	1	0.044000
7.483333	1	0.041250
7.500000	1	0.038500
7.516667	1	0.035875
7.533333	1	0.033125
7.550000	1	0.030000
7.566667	1	0.027125
7.583333	1	0.024125
7.600000	1	0.021250
7.616667	1	0.017875
7.633333	1	0.014250
7.650000	1	0.011250
7.666667	1	0.008625
7.683333	1	0.005875
7.700000	1	0.003500
7.716667	1	0.000500
7.733333	1	-0.001625
7.750000	1	-0.004125
7.766667	1	-0.006500
7.783333	1	-0.008375
7.800000	1	-0.010750
7.816667	1	-0.013375
7.833333	1	-0.015375
7.850000	1	-0.016875
7.866667	1	-0.018750
7.883333	1	-0.020750
7.900000	1	-0.022000
7.916667	1	-0.023125
7.933333	1	-0.024625
7.950000	1	-0.025000
7.966667	1	-0.026000
7.983333	1	-0.026375
8.000000	1	-0.026875
8.016667	1	-0.027750
8.033333	1	-0.028125
8.050000	1	-0.028250
8.066667	1	-0.028250
8.083333	1	-0.028125
8.100000	1	-0.028500
8.116667	1	-0.028250
8.133333	1	-0.028375
8.150000	1	-0.028500
8.166667	1	-0.028250
8.183333	1	-0.028000
8.200000	1	-0.027625
8.216667	1	-0.028000
8.233333	1	-0.028000
8.250000	1	-0.027625
8.266667	1	-0.026875
8.283333	1	-0.026375
8.300000	1	-0.025500
8.316667	1	-0.025250
8.333333	1	-0.024875
8.350000	1	-0.023625
8.366667	1	-0.022125
8.383333	1	-0.021500
8.400000	1	-0.020875
8.416667	1	-0.019500
8.433333	1	-0.018250
8.450000	1	-0.017375
8.466667	1	-0.016375
8.483333	1	-0.015125
8.500000	1	-0.013500
8.516667	1	-0.011250
8.533333	1	-0.008375
8.550000	1	-0.006000
8.566667	1	-0.003625
8.583333	1	-0.001875
8.600000	1	0.000250
8.616667	1	0.002000
8.633333	1	0.004875
8.650000	1	0.006875
8.666667	1	0.008375
8.683333	1	0.010750
8.700000	1	0.012875
8.716667	1	0.015125
8.733333	1	0.017375
8.750000	1	0.019750
8.766667	1	0.022125
8.783333	1	0.024500
8.800000	1	0.026625
8.816667	1	0.028750
8.833333	1	0.030875
8.850000	1	0.033125
8.866667	1	0.035625
8.883333	1	0.037500
8.900000	1	0.039250
8.916667	1	0.041125
8.933333	1	0.043250
8.950000	1	0.045375
8.966667	1	0.047625
8.983333	1	0.049250
9.000000	1	0.050125
9.016667	1	0.051750
9.033333	1	0.053750
9.050000	1	0.055500
9.066667	1	0.057250
9.083333	1	0.059250
9.100000	1	0.060375
9.116667	1	0.062750
9.133333	1	0.064375
9.150000	1	0.066125
9.166667	1	0.068000
9.183333	1	0.069375
9.200000	1	0.070875
9.216667	1	0.072250
9.233333	1	0.073875
9.250000	1	0.075000
9.266667	1	0.077125
9.283333	1	0.078375
9.300000	1	0.080250
9.316667	1	0.082250
9.333333	1	0.084375
9.350000	1	0.086375
9.366667	1	0.087500
9.383333	1	0.089125
9.400000	1	0.090250
9.416667	1	0.092125
9.433333	1	0.094500
9.450000	1	0.097125
9.466667	1	0.100375
9.483333	1	0.102750
9.500000	1	0.106500
9.516667	1	0.111875
9.533333	1	0.117000
9.550000	1	0.123500
9.566667	1	0.131500
9.583333	1	0.140125
9.600000	1	0.150250
9.616667	1	0.162125
9.633333	1	0.176000
9.650000	1	0.191750
9.666667	1	0.209500
9.683333	1	0.229125
9.700000	1	0.250875
9.716667	1	0.274000
9.733333	1	0.296875
9.750000	1	0.319375
9.766667	1	0.339500
9.783333	1	0.357500
9.800000	1	0.370625
9.816667	1	0.377750
9.833333	1	0.378125
9.850000	1	0.371000
9.866667	1	0.354500
9.883333	1	0.330500
9.900000	1	0.305250
9.916667	1	0.293500
9.933333	1	0.326625
9.950000	1	0.449500
9.966667	1	0.721000
9.983333	1	1.204375
10.000000	1	1.962750
10.016667	1	3.051750
10.033333	1	4.514875
10.050000	1	6.380250
10.066667	1	8.667000
10.083333	1	11.379875
10.100000	1	14.511250
10.116667	1	18.041000
10.133333	1	21.936375
10.150000	1	26.146250
10.166667	1	30.599875
10.183333	1	35.203250
10.200000	1	39.835125
10.216667	1	44.344000
10.233333	1	48.544500
10.250000	1	52.222250
10.266667	1	55.151875
10.283333	1	57.118125
10.300000	1	57.952375
10.316667	1	57.563750
10.333333	1	55.962875
10.350000	1	53.262000
10.366667	1	49.664125
10.383333	1	45.439875
10.400000	1	40.887250
10.416667	1	36.291375
10.433333	1	31.885000
10.450000	1	27.832500
10.466667	1	24.220250
10.483333	1	21.075500
10.500000	1	18.380000
10.516667	1	16.093875
10.533333	1	14.161250
10.550000	1	12.525125
10.566667	1	11.133250
10.583333	1	9.939500
10.600000	1	8.908000
10.616667	1	8.009500
10.633333	1	7.225125
10.650000	1	6.540875
10.666667	1	5.944500
10.683333	1	5.427000
10.700000	1	4.980375
10.716667	1	4.594625
10.733333	1	4.262500
10.750000	1	3.975500
10.766667	1	3.726375
10.783333	1	3.507375
10.800000	1	3.313000
10.816667	1	3.138750
10.833333	1	2.980250
10.850000	1	2.834625
10.866667	1	2.700000
10.883333	1	2.575875
10.900000	1	2.461250
10.916667	1	2.355375
10.933333	1	2.258500
10.950000	1	2.169125
10.966667	1	2.087000
10.983333	1	2.011875
11.000000	1	1.941750
11.016667	1	1.877125
11.033333	1	1.818250
11.050000	1	1.762750
11.066667	1	1.710750
11.083333	1	1.661875
11.100000	1	1.616000
11.116667	1	1.573875
11.133333	1	1.534375
11.150000	1	1.497000
11.166667	1	1.462750
11.183333	1	1.430500
11.200000	1	1.400875
11.216667	1	1.373625
11.233333	1	1.348500
11.250000	1	1.325250
11.266667	1	1.303250
11.283333	1	1.282000
11.300000	1	1.262000
11.316667	1	1.243125
11.333333	1	1.224875
11.350000	1	1.207625
11.366667	1	1.190750
11.383333	1	1.174000
11.400000	1	1.158375
11.416667	1	1.143500
11.433333	1	1.130625
11.450000	1	1.118625
11.466667	1	1.107500
11.483333	1	1.097250
11.500000	1	1.087750
11.516667	1	1.079750
11.533333	1	1.073000
11.550000	1	1.067625
11.566667	1	1.062625
11.583333	1	1.059125
11.600000	1	1.055875
11.616667	1	1.053875
11.633333	1	1.052000
11.650000	1	1.050875
11.666667	1	1.050375
11.683333	1	1.049750
11.700000	1	1.049375
11.716667	1	1.049500
11.733333	1	1.049250
11.750000	1	1.049625
11.766667	1	1.049750
11.783333	1	1.050875
11.800000	1	1.053125
11.816667	1	1.055500
11.833333	1	1.059625
11.850000	1	1.066250
11.866667	1	1.075125
11.883333	1	1.086125
11.900000	1	1.101000
11.916667	1	1.119375
11.933333	1	1.142125
11.950000	1	1.168625
11.966667	1	1.199250
11.983333	1	1.233250
12.000000	1	1.270000
12.016667	1	1.311000
12.033333	1	1.355500
12.050000	1	1.403625
12.066667	1	1.455500
12.083333	1	1.511500
12.100000	1	1.572750
12.116667	1	1.641375
12.133333	1	1.719500
12.150000	1	1.809375
12.166667	1	1.914000
12.183333	1	2.036125
12.200000	1	2.177875
12.216667	1	2.342000
12.233333	1	2.529500
12.250000	1	2.742375
12.266667	1	2.982125
12.283333	1	3.250125
12.300000	1	3.550000
12.316667	1	3.884750
12.333333	1	4.255375
12.350000	1	4.666625
12.366667	1	5.122375
12.383333	1	5.625375
12.400000	1	6.177625
12.416667	1	6.778500
12.433333	1	7.423000
12.450000	1	8.104500
12.466667	1	8.811250
12.483333	1	9.527750
12.500000	1	10.233000
12.516667	1	10.902625
12.533333	1	11.512125
12.550000	1	12.036000
12.566667	1	12.455375
12.583333	1	12.759625
12.600000	1	12.948125
12.616667	1	13.028000
12.633333	1	13.014000
12.650000	1	12.920125
12.666667	1	12.765375
12.683333	1	12.563375
12.700000	1	12.327750
12.716667	1	12.071250
12.733333	1	11.801250
12.750000	1	11.527000
12.766667	1	11.252375
12.783333	1	10.982000
12.800000	1	10.718250
12.816667	1	10.463750
12.833333	1	10.218375
12.850000	1	9.982375
12.866667	1	9.755250
12.883333	1	9.537500
12.900000	1	9.327375
12.916667	1	9.125750
12.933333	1	8.930000
12.950000	1	8.738500
12.966667	1	8.551125
12.983333	1	8.365125
13.000000	1	8.179250
13.016667	1	7.992125
13.033333	1	7.802750
13.050000	1	7.609125
13.066667	1	7.410500
13.083333	1	7.202875
13.100000	1	6.987125
13.116667	1	6.761250
13.133333	1	6.522375
13.150000	1	6.269875
13.166667	1	6.001000
13.183333	1	5.712000
13.200000	1	5.401750
13.216667	1	5.066500
13.233333	1	4.705875
13.250000	1	4.318500
13.266667	1	3.909375
13.283333	1	3.488625
13.300000	1	3.076750
13.316667	1	2.695750
13.333333	1	2.364875
13.350000	1	2.089875
13.366667	1	1.868500
13.383333	1	1.692875
13.400000	1	1.553625
13.416667	1	1.441125
13.433333	1	1.349750
13.450000	1	1.275500
13.466667	1	1.214125
13.483333	1	1.163875
13.500000	1	1.121125
13.516667	1	1.086500
13.533333	1	1.057750
13.550000	1	1.034375
13.566667	1	1.016000
13.583333	1	1.000875
13.600000	1	0.990250
13.616667	1	0.982375
13.633333	1	0.976125
13.650000	1	0.971125
13.666667	1	0.966875
13.683333	1	0.962000
13.700000	1	0.956875
13.716667	1	0.951000
13.733333	1	0.943750
13.750000	1	0.935000
13.766667	1	0.925000
13.783333	1	0.913000
13.800000	1	0.899625
13.816667	1	0.885000
13.833333	1	0.870125
13.850000	1	0.854625
13.866667	1	0.838250
13.883333	1	0.821875
13.900000	1	0.804750
13.916667	1	0.788000
13.933333	1	0.772000
13.950000	1	0.756625
13.966667	1	0.742000
13.983333	1	0.728625
14.000000	1	0.716875
14.016667	1	0.705500
14.033333	1	0.696250
14.050000	1	0.688375
14.066667	1	0.682875
14.083333	1	0.678875
14.100000	1	0.676000
14.116667	1	0.675000
14.133333	1	0.675375
14.150000	1	0.678625
14.166667	1	0.685250
14.183333	1	0.694250
14.200000	1	0.706750
14.216667	1	0.723500
14.233333	1	0.744125
14.250000	1	0.770500
14.266667	1	0.803375
14.283333	1	0.843625
14.300000	1	0.891875
14.316667	1	0.951125
14.333333	1	1.021625
14.350000	1	1.105250
14.366667	1	1.203625
14.383333	1	1.318000
14.400000	1	1.451000
14.416667	1	1.604250
14.433333	1	1.780125
14.450000	1	1.981375
14.466667	1	2.211125
14.483333	1	2.471375
14.500000	1	2.766750
14.516667	1	3.100875
14.533333	1	3.479750
14.550000	1	3.910500
14.566667	1	4.401625
14.583333	1	4.966375
14.600000	1	5.618375
14.616667	1	6.379125
14.633333	1	7.277250
14.650000	1	8.344875
14.666667	1	9.622500
14.683333	1	11.154125
14.700000	1	12.985625
14.716667	1	15.159500
14.733333	1	17.715750
14.750000	1	20.683000
14.766667	1	24.071250
14.783333	1	27.863500
14.800000	1	32.022750
14.816667	1	36.481875
14.833333	1	41.146125
14.850000	1	45.895000
14.866667	1	50.585500
14.883333	1	55.060500
14.900000	1	59.161500
14.916667	1	62.737000
14.933333	1	65.660500
14.950000	1	67.834375
14.966667	1	69.195750
14.983333	1	69.724125
15.000000	1	69.432000
15.016667	1	68.363000
15.033333	1	66.585250
15.050000	1	64.185125
15.066667	1	61.266000
15.083333	1	57.940750
15.100000	1	54.322625
15.116667	1	50.522250
15.133333	1	46.637250
15.150000	1	42.754125
15.166667	1	38.949000
15.183333	1	35.283000
15.200000	1	31.799375
15.216667	1	28.528375
15.233333	1	25.489250
15.250000	1	22.692125
15.266667	1	20.140250
15.283333	1	17.831625
15.300000	1	15.758375
15.316667	1	13.910500
15.333333	1	12.272875
15.350000	1	10.830125
15.366667	1	9.565375
15.383333	1	8.461125
15.400000	1	7.501625
15.416667	1	6.671125
15.433333	1	5.953375
15.450000	1	5.336625
15.466667	1	4.808625
15.483333	1	4.358750
15.500000	1	3.976375
15.516667	1	3.653875
15.533333	1	3.382500
15.550000	1	3.155500
15.566667	1	2.965500
15.583333	1	2.806750
15.600000	1	2.673625
15.616667	1	2.560000
15.633333	1	2.462625
15.650000	1	2.377500
15.666667	1	2.301000
15.683333	1	2.230750
15.700000	1	2.166000
15.716667	1	2.104875
15.733333	1	2.045750
15.750000	1	1.988750
15.766667	1	1.934500
15.783333	1	1.883125
15.800000	1	1.833875
15.816667	1	1.785875
15.833333	1	1.740500
15.850000	1	1.697000
15.866667	1	1.654750
15.883333	1	1.614125
15.900000	1	1.575625
15.916667	1	1.538250
15.933333	1	1.502875
15.950000	1	1.468875
15.966667	1	1.436250
15.983333	1	1.405750
16.000000	1	1.378375
16.016667	1	1.353500
16.033333	1	1.330375
16.050000	1	1.309875
16.066667	1	1.292625
16.083333	1	1.278750
16.100000	1	1.268000
16.116667	1	1.258500
16.133333	1	1.252000
16.150000	1	1.246750
16.166667	1	1.243625
16.183333	1	1.240250
16.200000	1	1.237500
16.216667	1	1.234250
16.233333	1	1.229625
16.250000	1	1.224250
16.266667	1	1.216250
16.283333	1	1.207250
16.300000	1	1.196000
16.316667	1	1.182625
16.333333	1	1.168375
16.350000	1	1.153125
16.366667	1	1.137500
16.383333	1	1.121875
16.400000	1	1.106000
16.416667	1	1.090625
16.433333	1	1.075750
16.450000	1	1.062250
16.466667	1	1.049500
16.483333	1	1.037750
16.500000	1	1.027750
16.516667	1	1.018750
16.533333	1	1.011625
16.550000	1	1.006125
16.566667	1	1.001250
16.583333	1	0.997625
16.600000	1	0.995375
16.616667	1	0.994250
16.633333	1	0.993625
16.650000	1	0.994250
16.666667	1	0.996000
16.683333	1	0.998000
16.700000	1	1.001375
16.716667	1	1.004500
16.733333	1	1.007625
16.750000	1	1.010875
16.766667	1	1.014625
16.783333	1	1.017375
16.800000	1	1.019375
16.816667	1	1.020750
16.833333	1	1.020750
16.850000	1	1.020125
16.866667	1	1.018125
16.883333	1	1.015375
16.900000	1	1.012625
16.916667	1	1.010000
16.933333	1	1.006875
16.950000	1	1.003750
16.966667	1	1.001000
16.983333	1	0.998500
17.000000	1	0.997250
17.016667	1	0.996750
17.033333	1	0.996250
17.050000	1	0.996875
17.066667	1	0.997125
17.083333	1	0.998125
17.100000	1	0.999125
17.116667	1	0.999500
17.133333	1	0.999250
17.150000	1	0.997625
17.166667	1	0.994750
17.183333	1	0.991500
17.200000	1	0.986500
17.216667	1	0.979875
17.233333	1	0.971500
17.250000	1	0.962750
17.266667	1	0.953000
17.283333	1	0.942625
17.300000	1	0.931250
17.316667	1	0.919750
17.333333	1	0.908000
17.350000	1	0.896500
17.366667	1	0.886875
17.383333	1	0.877125
17.400000	1	0.867375
17.416667	1	0.859250
17.433333	1	0.852125
17.450000	1	0.845750
17.466667	1	0.841125
17.483333	1	0.838125
17.500000	1	0.836750
17.516667	1	0.837875
17.533333	1	0.841250
17.550000	1	0.846000
17.566667	1	0.852500
17.583333	1	0.861750
17.600000	1	0.873125
17.616667	1	0.885750
17.633333	1	0.900750
17.650000	1	0.917250
17.666667	1	0.933875
17.683333	1	0.953375
17.700000	1	0.973375
17.716667	1	0.994000
17.733333	1	1.014625
17.750000	1	1.036375
17.766667	1	1.057125
17.783333	1	1.077125
17.800000	1	1.097125
17.816667	1	1.116125
17.833333	1	1.133250
17.850000	1	1.148750
17.866667	1	1.160875
17.883333	1	1.170750
17.900000	1	1.178125
17.916667	1	1.182750
17.933333	1	1.184125
17.950000	1	1.182625
17.966667	1	1.178875
17.983333	1	1.171875
18.000000	1	1.162750
18.016667	1	1.150875
18.033333	1	1.136125
18.050000	1	1.120750
18.066667	1	1.104375
18.083333	1	1.086000
18.100000	1	1.066875
18.116667	1	1.048625
18.133333	1	1.029375
18.150000	1	1.009625
18.166667	1	0.990375
18.183333	1	0.971500
18.200000	1	0.953625
18.216667	1	0.936125
18.233333	1	0.918875
18.250000	1	0.902500
18.266667	1	0.887500
18.283333	1	0.874375
18.300000	1	0.862875
18.316667	1	0.852375
18.333333	1	0.842875
18.350000	1	0.835625
18.366667	1	0.828875
18.383333	1	0.823625
18.400000	1	0.819500
18.416667	1	0.816250
18.433333	1	0.814250
18.450000	1	0.812750
18.466667	1	0.811625
18.483333	1	0.811125
18.500000	1	0.811375
18.516667	1	0.812375
18.533333	1	0.813125
18.550000	1	0.814375
18.566667	1	0.816375
18.583333	1	0.818000
18.600000	1	0.820250
18.616667	1	0.822875
18.633333	1	0.826250
18.650000	1	0.829000
18.666667	1	0.833000
18.683333	1	0.836500
18.700000	1	0.840625
18.716667	1	0.845375
18.733333	1	0.851125
18.750000	1	0.857750
18.766667	1	0.864750
18.783333	1	0.872375
18.800000	1	0.880625
18.816667	1	0.888625
18.833333	1	0.897750
18.850000	1	0.908375
18.866667	1	0.919000
18.883333	1	0.930750
18.900000	1	0.944500
18.916667	1	0.960125
18.933333	1	0.978500
18.950000	1	0.998750
18.966667	1	1.021750
18.983333	1	1.047500
19.000000	1	1.076250
19.016667	1	1.107625
19.033333	1	1.142875
19.050000	1	1.181875
19.066667	1	1.224750
19.083333	1	1.271125
19.100000	1	1.319625
19.116667	1	1.370750
19.133333	1	1.423000
19.150000	1	1.476125
19.166667	1	1.528875
19.183333	1	1.579750
19.200000	1	1.628375
19.216667	1	1.673375
19.233333	1	1.713625
19.250000	1	1.748250
19.266667	1	1.776500
19.283333	1	1.798500
19.300000	1	1.813000
19.316667	1	1.820750
19.333333	1	1.821750
19.350000	1	1.815500
19.366667	1	1.803250
19.383333	1	1.784750
19.400000	1	1.761500
19.416667	1	1.733750
19.433333	1	1.702750
19.450000	1	1.669250
19.466667	1	1.635500
19.483333	1	1.600750
19.500000	1	1.567375
19.516667	1	1.536500
19.533333	1	1.509000
19.550000	1	1.486125
19.566667	1	1.468250
19.583333	1	1.456500
19.600000	1	1.452875
19.616667	1	1.458125
19.633333	1	1.474125
19.650000	1	1.502000
19.666667	1	1.542375
19.683333	1	1.598500
19.700000	1	1.670000
19.716667	1	1.757750
19.733333	1	1.862125
19.750000	1	1.984375
19.766667	1	2.122875
19.783333	1	2.275875
19.800000	1	2.442750
19.816667	1	2.619250
19.833333	1	2.803625
19.850000	1	2.991750
19.866667	1	3.178250
19.883333	1	3.359750
19.900000	1	3.529500
19.916667	1	3.684250
19.933333	1	3.819750
19.950000	1	3.931250
19.966667	1	4.017000
19.983333	1	4.075125
20.000000	1	4.104250
20.016667	1	4.103500
20.033333	1	4.075250
20.050000	1	4.020250
20.066667	1	3.941250
20.083333	1	3.840500
20.100000	1	3.722750
20.116667	1	3.589625
20.133333	1	3.446125
20.150000	1	3.295625
20.166667	1	3.141500
20.183333	1	2.986750
20.200000	1	2.834250
20.216667	1	2.686625
20.233333	1	2.546000
20.250000	1	2.414500
20.266667	1	2.292625
20.283333	1	2.181125
20.300000	1	2.080625
20.316667	1	1.991125
20.333333	1	1.912625
20.350000	1	1.844250
20.366667	1	1.785250
20.383333	1	1.735250
20.400000	1	1.692500
20.416667	1	1.655875
20.433333	1	1.624750
20.450000	1	1.598125
20.466667	1	1.574375
20.483333	1	1.552000
20.500000	1	1.530750
20.516667	1	1.510000
20.533333	1	1.489125
20.550000	1	1.467500
20.566667	1	1.445625
20.583333	1	1.422750
20.600000	1	1.400125
20.616667	1	1.376875
20.633333	1	1.355000
20.650000	1	1.335250
20.666667	1	1.317375
20.683333	1	1.303250
20.700000	1	1.293375
20.716667	1	1.288125
20.733333	1	1.288625
20.750000	1	1.296500
20.766667	1	1.311125
20.783333	1	1.332125
20.800000	1	1.360750
20.816667	1	1.395750
20.833333	1	1.437000
20.850000	1	1.482875
20.866667	1	1.532875
20.883333	1	1.584375
20.900000	1	1.636250
20.916667	1	1.686250
20.933333	1	1.732250
20.950000	1	1.772250
20.966667	1	1.805000
20.983333	1	1.828875
21.000000	1	1.842500
21.016667	1	1.845625
21.033333	1	1.837000
21.050000	1	1.818625
21.066667	1	1.790000
21.083333	1	1.751875
21.100000	1	1.704125
21.116667	1	1.649125
21.133333	1	1.587625
21.150000	1	1.520625
21.166667	1	1.450625
21.183333	1	1.378000
21.200000	1	1.305375
21.216667	1	1.233125
21.233333	1	1.162000
21.250000	1	1.093125
21.266667	1	1.027000
21.283333	1	0.965125
21.300000	1	0.906625
21.316667	1	0.851375
21.333333	1	0.801000
21.350000	1	0.755375
21.366667	1	0.713375
21.383333	1	0.675625
21.400000	1	0.641750
21.416667	1	0.611250
21.433333	1	0.584625
21.450000	1	0.561125
21.466667	1	0.541750
21.483333	1	0.524750
21.500000	1	0.510750
21.516667	1	0.498875
21.533333	1	0.489875
21.550000	1	0.482125
21.566667	1	0.476625
21.583333	1	0.473625
21.600000	1	0.471625
21.616667	1	0.471250
21.633333	1	0.473125
21.650000	1	0.477125
21.666667	1	0.482250
21.683333	1	0.489500
21.700000	1	0.498750
21.716667	1	0.509875
21.733333	1	0.523500
21.750000	1	0.539125
21.766667	1	0.556625
21.783333	1	0.577000
21.800000	1	0.599500
21.816667	1	0.624000
21.833333	1	0.650500
21.850000	1	0.679125
21.866667	1	0.708875
21.883333	1	0.740000
21.900000	1	0.771500
21.916667	1	0.802625
21.933333	1	0.833250
21.950000	1	0.863000
21.966667	1	0.891000
21.983333	1	0.916250
22.000000	1	0.939125
22.016667	1	0.958375
22.033333	1	0.973500
22.050000	1	0.984500
22.066667	1	0.991000
22.083333	1	0.992750
22.100000	1	0.990000
22.116667	1	0.982500
22.133333	1	0.971125
22.150000	1	0.955625
22.166667	1	0.937500
22.183333	1	0.915500
22.200000	1	0.892125
22.216667	1	0.866375
22.233333	1	0.839625
22.250000	1	0.812125
22.266667	1	0.784250
22.283333	1	0.757875
22.300000	1	0.732375
22.316667	1	0.707500
22.333333	1	0.684500
22.350000	1	0.662125
22.366667	1	0.641875
22.383333	1	0.623750
22.400000	1	0.607750
22.416667	1	0.592750
22.433333	1	0.580625
22.450000	1	0.570375
22.466667	1	0.562250
22.483333	1	0.555750
22.500000	1	0.550375
22.516667	1	0.547125
22.533333	1	0.543750
22.550000	1	0.542125
22.566667	1	0.541375
22.583333	1	0.541125
22.600000	1	0.541500
22.616667	1	0.542000
22.633333	1	0.542750
22.650000	1	0.543875
22.666667	1	0.544625
22.683333	1	0.545250
22.700000	1	0.546000
22.716667	1	0.545250
22.733333	1	0.545500
22.750000	1	0.544375
22.766667	1	0.543000
22.783333	1	0.541250
22.800000	1	0.538125
22.816667	1	0.534125
22.833333	1	0.530625
22.850000	1	0.525750
22.866667	1	0.520250
22.883333	1	0.514125
22.900000	1	0.508625
22.916667	1	0.502125
22.933333	1	0.495875
22.950000	1	0.489500
22.966667	1	0.483250
22.983333	1	0.477375
23.000000	1	0.471750
23.016667	1	0.466125
23.033333	1	0.461000
23.050000	1	0.457000
23.066667	1	0.454500
23.083333	1	0.452625
23.100000	1	0.452750
23.116667	1	0.453250
23.133333	1	0.455125
23.150000	1	0.458875
23.166667	1	0.464625
23.183333	1	0.471500
23.200000	1	0.480625
23.216667	1	0.491625
23.233333	1	0.505000
23.250000	1	0.520750
23.266667	1	0.539375
23.283333	1	0.560375
23.300000	1	0.584625
23.316667	1	0.611250
23.333333	1	0.640875
23.350000	1	0.674625
23.366667	1	0.712375
23.383333	1	0.753500
23.400000	1	0.799375
23.416667	1	0.849000
23.433333	1	0.904375
23.450000	1	0.966625
23.466667	1	1.035125
23.483333	1	1.111000
23.500000	1	1.195250
23.516667	1	1.288750
23.533333	1	1.393500
23.550000	1	1.510250
23.566667	1	1.641750
23.583333	1	1.787500
23.600000	1	1.950750
23.616667	1	2.131500
23.633333	1	2.330875
23.650000	1	2.549125
23.666667	1	2.788250
23.683333	1	3.047125
23.700000	1	3.324375
23.716667	1	3.619000
23.733333	1	3.929625
23.750000	1	4.252375
23.766667	1	4.583750
23.783333	1	4.919500
23.800000	1	5.254250
23.816667	1	5.582500
23.833333	1	5.897875
23.850000	1	6.194875
23.866667	1	6.466875
23.883333	1	6.709625
23.900000	1	6.917250
23.916667	1	7.085000
23.933333	1	7.210500
23.950000	1	7.290875
23.966667	1	7.325125
23.983333	1	7.312875
24.000000	1	7.254250
24.016667	1	7.152375
24.033333	1	7.009500
24.050000	1	6.829375
24.066667	1	6.616625
24.083333	1	6.374500
24.100000	1	6.108625
24.116667	1	5.824625
24.133333	1	5.527750
24.150000	1	5.221875
24.166667	1	4.912500
24.183333	1	4.603125
24.200000	1	4.298125
24.216667	1	4.001375
24.233333	1	3.714125
24.250000	1	3.439625
24.266667	1	3.179875
24.283333	1	2.935500
24.300000	1	2.707500
24.316667	1	2.496375
24.333333	1	2.301125
24.350000	1	2.123000
24.366667	1	1.960625
24.383333	1	1.813875
24.400000	1	1.682125
24.416667	1	1.563875
24.433333	1	1.457750
24.450000	1	1.363750
24.466667	1	1.279750
24.483333	1	1.205625
24.500000	1	1.138875
24.516667	1	1.079375
24.533333	1	1.026250
24.550000	1	0.979125
24.566667	1	0.936125
24.583333	1	0.897250
24.600000	1	0.861000
24.616667	1	0.827250
24.633333	1	0.795500
24.650000	1	0.764875
24.666667	1	0.736375
24.683333	1	0.708625
24.700000	1	0.681500
24.716667	1	0.655125
24.733333	1	0.628625
24.750000	1	0.603000
24.766667	1	0.576625
24.783333	1	0.550875
24.800000	1	0.526375
24.816667	1	0.502375
24.833333	1	0.478625
24.850000	1	0.455875
24.866667	1	0.433125
24.883333	1	0.411000
24.900000	1	0.390125
24.916667	1	0.370125
24.933333	1	0.351000
24.950000	1	0.332250
24.966667	1	0.314875
24.983333	1	0.298625
25.000000	1	0.283875
25.016667	1	0.270125
25.033333	1	0.257500
25.050000	1	0.246750
25.066667	1	0.236875
25.083333	1	0.228000
25.100000	1	0.220375
25.116667	1	0.213625
25.133333	1	0.207750
25.150000	1	0.202750
25.166667	1	0.198125
25.183333	1	0.194625
25.200000	1	0.192250
25.216667	1	0.190625
25.233333	1	0.190000
25.250000	1	0.190250
25.266667	1	0.190500
25.283333	1	0.191500
25.300000	1	0.192500
25.316667	1	0.194375
25.333333	1	0.196750
25.350000	1	0.199375
25.366667	1	0.201500
25.383333	1	0.204500
25.400000	1	0.207375
25.416667	1	0.210375
25.433333	1	0.213750
25.450000	1	0.217375
25.466667	1	0.220250
25.483333	1	0.223375
25.500000	1	0.226125
25.516667	1	0.228375
25.533333	1	0.230125
25.550000	1	0.232125
25.566667	1	0.234875
25.583333	1	0.236750
25.600000	1	0.238125
25.616667	1	0.239250
25.633333	1	0.240250
25.650000	1	0.240750
25.666667	1	0.241375
25.683333	1	0.241375
25.700000	1	0.241250
25.716667	1	0.240250
25.733333	1	0.238625
25.750000	1	0.236875
25.766667	1	0.234250
25.783333	1	0.231750
25.800000	1	0.228000
25.816667	1	0.224375
25.833333	1	0.219250
25.850000	1	0.213375
25.866667	1	0.207000
25.883333	1	0.199875
25.900000	1	0.190625
25.916667	1	0.180750
25.933333	1	0.169625
25.950000	1	0.156500
25.966667	1	0.142125
25.983333	1	0.126500
26.000000	1	0.109000
26.016667	1	0.090000
26.033333	1	0.069000
26.050000	1	0.046875
26.066667	1	0.023000
26.083333	1	-0.002625
26.100000	1	-0.029500
26.116667	1	-0.058250
26.133333	1	-0.087250
26.150000	1	-0.118625
26.166667	1	-0.149625
26.183333	1	-0.181125
26.200000	1	-0.212625
26.216667	1	-0.245375
26.233333	1	-0.276625
26.250000	1	-0.308125
26.266667	1	-0.338625
26.283333	1	-0.368500
26.300000	1	-0.397625
26.316667	1	-0.425000
26.333333	1	-0.450125
26.350000	1	-0.474625
26.366667	1	-0.497375
26.383333	1	-0.518500
26.400000	1	-0.537250
26.416667	1	-0.554500
26.433333	1	-0.570375
26.450000	1	-0.584375
26.466667	1	-0.597000
26.483333	1	-0.607750
26.500000	1	-0.617750
26.516667	1	-0.627000
26.533333	1	-0.635625
26.550000	1	-0.642625
26.566667	1	-0.650000
26.583333	1	-0.656875
26.600000	1	-0.662750
26.616667	1	-0.668625
26.633333	1	-0.673625
26.650000	1	-0.679125
26.666667	1	-0.684875
26.683333	1	-0.689875
26.700000	1	-0.695875
26.716667	1	-0.701875
26.733333	1	-0.707125
26.750000	1	-0.712625
26.766667	1	-0.717750
26.783333	1	-0.722875
26.800000	1	-0.727625
26.816667	1	-0.731250
26.833333	1	-0.734000
26.850000	1	-0.736375
26.866667	1	-0.738125
26.883333	1	-0.738500
26.900000	1	-0.737375
26.916667	1	-0.735750
26.933333	1	-0.732750
26.950000	1	-0.729125
26.966667	1	-0.723125
26.983333	1	-0.714375
27.000000	1	-0.705500
27.016667	1	-0.695000
27.033333	1	-0.682375
27.050000	1	-0.668375
27.066667	1	-0.652375
27.083333	1	-0.634500
27.100000	1	-0.615875
27.116667	1	-0.594750
27.133333	1	-0.572125
27.150000	1	-0.548250
27.166667	1	-0.523125
27.183333	1	-0.495375
27.200000	1	-0.466750
27.216667	1	-0.436375
27.233333	1	-0.404125
27.250000	1	-0.370000
27.266667	1	-0.335125
27.283333	1	-0.299125
27.300000	1	-0.261875
27.316667	1	-0.222250
27.333333	1	-0.182250
27.350000	1	-0.140000
27.366667	1	-0.096750
27.383333	1	-0.052250
27.400000	1	-0.006375
27.416667	1	0.041000
27.433333	1	0.091000
27.450000	1	0.142750
27.466667	1	0.197250
27.483333	1	0.253500
27.500000	1	0.312250
27.516667	1	0.375250
27.533333	1	0.442125
27.550000	1	0.513625
27.566667	1	0.589750
27.583333	1	0.670500
27.600000	1	0.756375
27.616667	1	0.848500
27.633333	1	0.947750
27.650000	1	1.053625
27.666667	1	1.167375
27.683333	1	1.287625
27.700000	1	1.416500
27.716667	1	1.552625
27.733333	1	1.696625
27.750000	1	1.847750
27.766667	1	2.005375
27.783333	1	2.168625
27.800000	1	2.337875
27.816667	1	2.511125
27.833333	1	2.685875
27.850000	1	2.861250
27.866667	1	3.036125
27.883333	1	3.208625
27.900000	1	3.375125
27.916667	1	3.535000
27.933333	1	3.685250
27.950000	1	3.824500
27.966667	1	3.951000
27.983333	1	4.062000
28.000000	1	4.155125
28.016667	1	4.229875
28.033333	1	4.285125
28.050000	1	4.319625
28.066667	1	4.332250
28.083333	1	4.322125
28.100000	1	4.290250
28.116667	1	4.236875
28.133333	1	4.161750
28.150000	1	4.066500
28.166667	1	3.952625
28.183333	1	3.821625
28.200000	1	3.675250
28.216667	1	3.516375
28.233333	1	3.345875
28.250000	1	3.166000
28.266667	1	2.980000
28.283333	1	2.789500
28.300000	1	2.595750
28.316667	1	2.401125
28.333333	1	2.209875
28.350000	1	2.022500
28.366667	1	1.839875
28.383333	1	1.665000
28.400000	1	1.497500
28.416667	1	1.338250
28.433333	1	1.187875
28.450000	1	1.047000
28.466667	1	0.915125
28.483333	1	0.792125
28.500000	1	0.678250
28.516667	1	0.574000
28.533333	1	0.478000
28.550000	1	0.390125
28.566667	1	0.310625
28.583333	1	0.237750
28.600000	1	0.172250
28.616667	1	0.112125
28.633333	1	0.056375
28.650000	1	0.006125
28.666667	1	-0.038875
28.683333	1	-0.081500
28.700000	1	-0.120500
28.716667	1	-0.157125
28.733333	1	-0.190500
28.750000	1	-0.220875
28.766667	1	-0.248875
28.783333	1	-0.274500
28.800000	1	-0.298000
28.816667	1	-0.319250
28.833333	1	-0.339000
28.850000	1	-0.356500
28.866667	1	-0.372625
28.883333	1	-0.386250
28.900000	1	-0.398250
28.916667	1	-0.407750
28.933333	1	-0.415625
28.950000	1	-0.420875
28.966667	1	-0.423750
28.983333	1	-0.425000
29.000000	1	-0.424000
29.016667	1	-0.420625
29.033333	1	-0.415500
29.050000	1	-0.407625
29.066667	1	-0.397125
29.083333	1	-0.385375
29.100000	1	-0.371500
29.116667	1	-0.355875
29.133333	1	-0.338250
29.150000	1	-0.318625
29.166667	1	-0.297625
29.183333	1	-0.275250
29.200000	1	-0.251625
29.216667	1	-0.226875
29.233333	1	-0.201375
29.250000	1	-0.174875
29.266667	1	-0.147375
29.283333	1	-0.119625
29.300000	1	-0.091250
29.316667	1	-0.062375
29.333333	1	-0.033875
29.350000	1	-0.005500
29.366667	1	0.022875
29.383333	1	0.051250
29.400000	1	0.079000
29.416667	1	0.106625
29.433333	1	0.133875
29.450000	1	0.159875
29.466667	1	0.185250
29.483333	1	0.209875
29.500000	1	0.233375
29.516667	1	0.255250
29.533333	1	0.276625
29.550000	1	0.297500
29.566667	1	0.317000
29.583333	1	0.334750
29.600000	1	0.351625
29.616667	1	0.366750
29.633333	1	0.381500
29.650000	1	0.394375
29.666667	1	0.405875
29.683333	1	0.415625
29.700000	1	0.424250
29.716667	1	0.431750
29.733333	1	0.437750
29.750000	1	0.442375
29.766667	1	0.446125
29.783333	1	0.448375
29.800000	1	0.450875
29.816667	1	0.451500
29.833333	1	0.451000
29.850000	1	0.449625
29.866667	1	0.446875
29.883333	1	0.443750
29.900000	1	0.439875
29.916667	1	0.435375
29.933333	1	0.431000
29.950000	1	0.425375
29.966667	1	0.419500
29.983333	1	0.413500
30.000000	1	0.407625
30.016667	1	0.402250
30.033333	1	0.395625
30.050000	1	0.389500
30.066667	1	0.383250
30.083333	1	0.377625
30.100000	1	0.371875
30.116667	1	0.366250
30.133333	1	0.360625
30.150000	1	0.355250
30.166667	1	0.349625
30.183333	1	0.344875
30.200000	1	0.340000
30.216667	1	0.336250
30.233333	1	0.332125
30.250000	1	0.328375
30.266667	1	0.324250
30.283333	1	0.320625
30.300000	1	0.316375
30.316667	1	0.313125
30.333333	1	0.309750
30.350000	1	0.306750
30.366667	1	0.303625
30.383333	1	0.300500
30.400000	1	0.298000
30.416667	1	0.295875
30.433333	1	0.294000
30.450000	1	0.292250
30.466667	1	0.290750
30.483333	1	0.289250
30.500000	1	0.288375
30.516667	1	0.288250
30.533333	1	0.288000
30.550000	1	0.288875
30.566667	1	0.290125
30.583333	1	0.292125
30.600000	1	0.294500
30.616667	1	0.296750
30.633333	1	0.299625
30.650000	1	0.303750
30.666667	1	0.307750
30.683333	1	0.312875
30.700000	1	0.317875
30.716667	1	0.323625
30.733333	1	0.329250
30.750000	1	0.335500
30.766667	1	0.341375
30.783333	1	0.347500
30.800000	1	0.353000
30.816667	1	0.358625
30.833333	1	0.364375
30.850000	1	0.368625
30.866667	1	0.372125
30.883333	1	0.375125
30.900000	1	0.376875
30.916667	1	0.378750
30.933333	1	0.379250
30.950000	1	0.378875
30.966667	1	0.377625
30.983333	1	0.375375
31.000000	1	0.371500
31.016667	1	0.366500
31.033333	1	0.361375
31.050000	1	0.354750
31.066667	1	0.347750
31.083333	1	0.340125
31.100000	1	0.332125
31.116667	1	0.323250
31.133333	1	0.314250
31.150000	1	0.304250
31.166667	1	0.294625
31.183333	1	0.284500
31.200000	1	0.274375
31.216667	1	0.264000
31.233333	1	0.254250
31.250000	1	0.243625
31.266667	1	0.234000
31.283333	1	0.225000
31.300000	1	0.216000
31.316667	1	0.208375
31.333333	1	0.200000
31.350000	1	0.192375
31.366667	1	0.184875
31.383333	1	0.178500
31.400000	1	0.172375
31.416667	1	0.167500
31.433333	1	0.163000
31.450000	1	0.159000
31.466667	1	0.155125
31.483333	1	0.151875
31.500000	1	0.149000
31.516667	1	0.146750
31.533333	1	0.144375
31.550000	1	0.142125
31.566667	1	0.141125
31.583333	1	0.141000
31.600000	1	0.141000
31.616667	1	0.141000
31.633333	1	0.140500
31.650000	1	0.141250
31.666667	1	0.142250
31.683333	1	0.143750
31.700000	1	0.146125
31.716667	1	0.148750
31.733333	1	0.151375
31.750000	1	0.154250
31.766667	1	0.157375
31.783333	1	0.161625
31.800000	1	0.165875
31.816667	1	0.170000
31.833333	1	0.174000
31.850000	1	0.178250
31.866667	1	0.182875
31.883333	1	0.187750
31.900000	1	0.193000
31.916667	1	0.197750
31.933333	1	0.202875
31.950000	1	0.207875
31.966667	1	0.212500
31.983333	1	0.217875
32.000000	1	0.222875
32.016667	1	0.228375
32.033333	1	0.233000
32.050000	1	0.237000
32.066667	1	0.241000
32.083333	1	0.245125
32.100000	1	0.248000
32.116667	1	0.251375
32.133333	1	0.254125
32.150000	1	0.255000
32.166667	1	0.256250
32.183333	1	0.257125
32.200000	1	0.256625
32.216667	1	0.256000
32.233333	1	0.254500
32.250000	1	0.252375
32.266667	1	0.250250
32.283333	1	0.247500
32.300000	1	0.244000
32.316667	1	0.239875
32.333333	1	0.236250
32.350000	1	0.231875
32.366667	1	0.227125
32.383333	1	0.221375
32.400000	1	0.216125
32.416667	1	0.210875
32.433333	1	0.205250
32.450000	1	0.199125
32.466667	1	0.192875
32.483333	1	0.186000
32.500000	1	0.179125
32.516667	1	0.172625
32.533333	1	0.166125
32.550000	1	0.159750
32.566667	1	0.152750
32.583333	1	0.145625
32.600000	1	0.138750
32.616667	1	0.131375
32.633333	1	0.123750
32.650000	1	0.115625
32.666667	1	0.107500
32.683333	1	0.099500
32.700000	1	0.091250
32.716667	1	0.083375
32.733333	1	0.076125
32.750000	1	0.068500
32.766667	1	0.060375
32.783333	1	0.052375
32.800000	1	0.044000
32.816667	1	0.035750
32.833333	1	0.027875
32.850000	1	0.019625
32.866667	1	0.011750
32.883333	1	0.004250
32.900000	1	-0.003125
32.916667	1	-0.009750
32.933333	1	-0.016750
32.950000	1	-0.023875
32.966667	1	-0.029750
32.983333	1	-0.035500
33.000000	1	-0.040875
33.016667	1	-0.046625
33.033333	1	-0.052250
33.050000	1	-0.056875
33.066667	1	-0.061500
33.083333	1	-0.065875
33.100000	1	-0.070000
33.116667	1	-0.074125
33.133333	1	-0.077625
33.150000	1	-0.081250
33.166667	1	-0.084875
33.183333	1	-0.087625
33.200000	1	-0.090875
33.216667	1	-0.093250
33.233333	1	-0.095500
33.250000	1	-0.097875
33.266667	1	-0.100250
33.283333	1	-0.102875
33.300000	1	-0.105250
33.316667	1	-0.106875
33.333333	1	-0.108750
33.350000	1	-0.110250
33.366667	1	-0.111125
33.383333	1	-0.113000
33.400000	1	-0.114750
33.416667	1	-0.116500
33.433333	1	-0.118500
33.450000	1	-0.120000
33.466667	1	-0.122125
33.483333	1	-0.123375
33.500000	1	-0.125125
33.516667	1	-0.125500
33.533333	1	-0.126625
33.550000	1	-0.128250
33.566667	1	-0.129875
33.583333	1	-0.130625
33.600000	1	-0.130875
33.616667	1	-0.131875
33.633333	1	-0.132875
33.650000	1	-0.133500
33.666667	1	-0.133625
33.683333	1	-0.134500
33.700000	1	-0.135250
33.716667	1	-0.135375
33.733333	1	-0.135250
33.750000	1	-0.135125
33.766667	1	-0.135000
33.783333	1	-0.134875
33.800000	1	-0.134375
33.816667	1	-0.134375
33.833333	1	-0.134625
33.850000	1	-0.134125
33.866667	1	-0.133250
33.883333	1	-0.132250
33.900000	1	-0.131625
33.916667	1	-0.130625
33.933333	1	-0.129625
33.950000	1	-0.128250
33.966667	1	-0.127250
33.983333	1	-0.126125
34.000000	1	-0.124875
34.016667	1	-0.123625
34.033333	1	-0.121250
34.050000	1	-0.119500
34.066667	1	-0.117000
34.083333	1	-0.115125
34.100000	1	-0.112750
34.116667	1	-0.110500
34.133333	1	-0.108125
34.150000	1	-0.105625
34.166667	1	-0.103250
34.183333	1	-0.100125
34.200000	1	-0.096750
34.216667	1	-0.093500
34.233333	1	-0.090750
34.250000	1	-0.088125
34.266667	1	-0.084750
34.283333	1	-0.082625
34.300000	1	-0.079625
34.316667	1	-0.076625
34.333333	1	-0.073375
34.350000	1	-0.070125
34.366667	1	-0.066625
34.383333	1	-0.063875
34.400000	1	-0.061250
34.416667	1	-0.058625
34.433333	1	-0.056375
34.450000	1	-0.054375
34.466667	1	-0.051500
34.483333	1	-0.049500
34.500000	1	-0.047375
34.516667	1	-0.045125
34.533333	1	-0.043500
34.550000	1	-0.042250
34.566667	1	-0.041125
34.583333	1	-0.040375
34.600000	1	-0.039750
34.616667	1	-0.039250
34.633333	1	-0.038250
34.650000	1	-0.038000
34.666667	1	-0.038125
34.683333	1	-0.037000
34.700000	1	-0.036375
34.716667	1	-0.036000
34.733333	1	-0.035750
34.750000	1	-0.035750
34.766667	1	-0.036375
34.783333	1	-0.036500
34.800000	1	-0.036750
34.816667	1	-0.036750
34.833333	1	-0.036625
34.850000	1	-0.036625
34.866667	1	-0.036750
34.883333	1	-0.036125
34.900000	1	-0.036000
34.916667	1	-0.035125
34.933333	1	-0.034500
34.950000	1	-0.034375
34.966667	1	-0.033875
34.983333	1	-0.032625
35.000000	1	-0.032375
35.016667	1	-0.032125
35.033333	1	-0.030875
35.050000	1	-0.029500
35.066667	1	-0.028125
35.083333	1	-0.026875
35.100000	1	-0.025375
35.116667	1	-0.023375
35.133333	1	-0.021375
35.150000	1	-0.019375
35.166667	1	-0.017125
35.183333	1	-0.014750
35.200000	1	-0.011125
35.216667	1	-0.008375
35.233333	1	-0.006000
35.250000	1	-0.002625
35.266667	1	0.000625
35.283333	1	0.003500
35.300000	1	0.007375
35.316667	1	0.011250
35.333333	1	0.014875
35.350000	1	0.018625
35.366667	1	0.022250
35.383333	1	0.025875
35.400000	1	0.030000
35.416667	1	0.034250
35.433333	1	0.038375
35.450000	1	0.042125
35.466667	1	0.044875
35.483333	1	0.049000
35.500000	1	0.052500
35.516667	1	0.056500
35.533333	1	0.060000
35.550000	1	0.062875
35.566667	1	0.065750
35.583333	1	0.069000
35.600000	1	0.071500
35.616667	1	0.074000
35.633333	1	0.075875
35.650000	1	0.078250
35.666667	1	0.080250
35.683333	1	0.082750
35.700000	1	0.084375
35.716667	1	0.086250
35.733333	1	0.087375
35.750000	1	0.087875
35.766667	1	0.088875
35.783333	1	0.089875
35.800000	1	0.090500
35.816667	1	0.091000
35.833333	1	0.091375
35.850000	1	0.091250
35.866667	1	0.091750
35.883333	1	0.091750
35.900000	1	0.092250
35.916667	1	0.092625
35.933333	1	0.093250
35.950000	1	0.093625
35.966667	1	0.093500
35.983333	1	0.093500
36.000000	1	0.093375
36.016667	1	0.093750
36.033333	1	0.093875
36.050000	1	0.094000
36.066667	1	0.094625
36.083333	1	0.094375
36.100000	1	0.095000
36.116667	1	0.095125
36.133333	1	0.095625
36.150000	1	0.094875
36.166667	1	0.094750
36.183333	1	0.094125
36.200000	1	0.093125
36.216667	1	0.093000
36.233333	1	0.092125
36.250000	1	0.091750
36.266667	1	0.091000
36.283333	1	0.089625
36.300000	1	0.089000
36.316667	1	0.088750
36.333333	1	0.087500
36.350000	1	0.086125
36.366667	1	0.084500
36.383333	1	0.083375
36.400000	1	0.081625
36.416667	1	0.080625
36.433333	1	0.078750
36.450000	1	0.077375
36.466667	1	0.077000
36.483333	1	0.075500
36.500000	1	0.074375
36.516667	1	0.073750
36.533333	1	0.072500
36.550000	1	0.070875
36.566667	1	0.069500
36.583333	1	0.067000
36.600000	1	0.065750
36.616667	1	0.064500
36.633333	1	0.063000
36.650000	1	0.061750
36.666667	1	0.060000
36.683333	1	0.058375
36.700000	1	0.056875
36.716667	1	0.054500
36.733333	1	0.052625
36.750000	1	0.050875
36.766667	1	0.048625
36.783333	1	0.045875
36.800000	1	0.043500
36.816667	1	0.040750
36.833333	1	0.037875
36.850000	1	0.034625
36.866667	1	0.030875
36.883333	1	0.027000
36.900000	1	0.022750
36.916667	1	0.019375
36.933333	1	0.015125
36.950000	1	0.011375
36.966667	1	0.006250
36.983333	1	0.001500
37.000000	1	-0.003125
37.016667	1	-0.007875
37.033333	1	-0.012375
37.050000	1	-0.017000
37.066667	1	-0.021500
37.083333	1	-0.026875
37.100000	1	-0.032000
37.116667	1	-0.036250
37.133333	1	-0.040625
37.150000	1	-0.046000
37.166667	1	-0.051250
37.183333	1	-0.056500
37.200000	1	-0.060125
37.216667	1	-0.064750
37.233333	1	-0.069000
37.250000	1	-0.072750
37.266667	1	-0.076250
37.283333	1	-0.080250
37.300000	1	-0.083375
37.316667	1	-0.087125
37.333333	1	-0.090625
37.350000	1	-0.093125
37.366667	1	-0.095250
37.383333	1	-0.097875
37.400000	1	-0.100250
37.416667	1	-0.102625
37.433333	1	-0.104625
37.450000	1	-0.105625
37.466667	1	-0.107000
37.483333	1	-0.108625
37.500000	1	-0.109500
37.516667	1	-0.110375
37.533333	1	-0.111250
37.550000	1	-0.111625
37.566667	1	-0.112750
37.583333	1	-0.113750
37.600000	1	-0.114125
37.616667	1	-0.114000
37.633333	1	-0.114375
37.650000	1	-0.114125
37.666667	1	-0.114250
37.683333	1	-0.113875
37.700000	1	-0.113250
37.716667	1	-0.113375
37.733333	1	-0.113625
37.750000	1	-0.113000
37.766667	1	-0.112750
37.783333	1	-0.112625
37.800000	1	-0.111500
37.816667	1	-0.110875
37.833333	1	-0.110625
37.850000	1	-0.109750
37.866667	1	-0.109500
37.883333	1	-0.108375
37.900000	1	-0.107625
37.916667	1	-0.106125
37.933333	1	-0.105250
37.950000	1	-0.105000
37.966667	1	-0.104000
37.983333	1	-0.102875
38.000000	1	-0.101750
38.016667	1	-0.100750
38.033333	1	-0.099000
38.050000	1	-0.098500
38.066667	1	-0.097250
38.083333	1	-0.095875
38.100000	1	-0.095625
38.116667	1	-0.094750
38.133333	1	-0.094000
38.150000	1	-0.093125
38.166667	1	-0.092750
38.183333	1	-0.092250
38.200000	1	-0.092375
38.216667	1	-0.091875
38.233333	1	-0.091750
38.250000	1	-0.091250
38.266667	1	-0.091375
38.283333	1	-0.091375
38.300000	1	-0.091000
38.316667	1	-0.091000
38.333333	1	-0.091375
38.350000	1	-0.092000
38.366667	1	-0.092125
38.383333	1	-0.092000
38.400000	1	-0.091875
38.416667	1	-0.092500
38.433333	1	-0.092375
38.450000	1	-0.093000
38.466667	1	-0.093875
38.483333	1	-0.094250
38.500000	1	-0.094375
38.516667	1	-0.095125
38.533333	1	-0.095375
38.550000	1	-0.096125
38.566667	1	-0.096750
38.583333	1	-0.097375
38.600000	1	-0.097750
38.616667	1	-0.098500
38.633333	1	-0.098500
38.650000	1	-0.098875
38.666667	1	-0.099375
38.683333	1	-0.100250
38.700000	1	-0.101000
38.716667	1	-0.101375
38.733333	1	-0.102000
38.750000	1	-0.102875
38.766667	1	-0.102875
38.783333	1	-0.103375
38.800000	1	-0.103375
38.816667	1	-0.103625
38.833333	1	-0.104625
38.850000	1	-0.105250
38.866667	1	-0.105625
38.883333	1	-0.106125
38.900000	1	-0.106250
38.916667	1	-0.106750
38.933333	1	-0.107875
38.950000	1	-0.108500
38.966667	1	-0.109125
38.983333	1	-0.109625
39.000000	1	-0.109750
39.016667	1	-0.110000
39.033333	1	-0.110500
39.050000	1	-0.110625
39.066667	1	-0.111375
39.083333	1	-0.111875
39.100000	1	-0.112000
39.116667	1	-0.111875
39.133333	1	-0.111750
39.150000	1	-0.112125
39.166667	1	-0.112125
39.183333	1	-0.113000
39.200000	1	-0.113000
39.216667	1	-0.112875
39.233333	1	-0.112625
39.250000	1	-0.112125
39.266667	1	-0.111250
39.283333	1	-0.111125
39.300000	1	-0.110125
39.316667	1	-0.110125
39.333333	1	-0.109875
39.350000	1	-0.109750
39.366667	1	-0.108750
39.383333	1	-0.108500
39.400000	1	-0.106875
39.416667	1	-0.106125
39.433333	1	-0.105500
39.450000	1	-0.104625
39.466667	1	-0.103750
39.483333	1	-0.103250
39.500000	1	-0.102500
39.516667	1	-0.102375
39.533333	1	-0.101375
39.550000	1	-0.101125
39.566667	1	-0.101000
39.583333	1	-0.100375
39.600000	1	-0.099375
39.616667	1	-0.098250
39.633333	1	-0.098000
39.650000	1	-0.096875
39.666667	1	-0.096625
39.683333	1	-0.095250
39.700000	1	-0.093375
39.716667	1	-0.092750
39.733333	1	-0.091875
39.750000	1	-0.090375
39.766667	1	-0.089000
39.783333	1	-0.087625
39.800000	1	-0.087125
39.816667	1	-0.085375
39.833333	1	-0.083500
39.850000	1	-0.082125
39.866667	1	-0.080750
39.883333	1	-0.079750
39.900000	1	-0.078375
39.916667	1	-0.077375
39.933333	1	-0.076875
39.950000	1	-0.075625
39.966667	1	-0.074875
39.983333	1	-0.073250
40.000000	1	-0.072250
