File Path	chrom://990-75db15j/XVault/Ultimate_3000/1256/20230531_CMO_stabTest _FP08_FP09.seq/801.smp/RI_1.channel/RI_1.chm
Channel	RI_1

Injection Information:
Data Vault	XVault
Injection	FP08_9_s4
Injection Number	51
Position	BB3
Comment	
Processing Method	
Instrument Method	run_25B_method
Type	Unknown
Status	Finished
Injection Date	02.06.2023
Injection Time	23:53:09
Injection Volume (µl)	20.000
Dilution Factor	1.0000
Weight	1.0000

Chromatogram Data Information:
Time Min. (min)	0.000000
Time Max. (min)	40.000000
Data Points	2401
Detector	RI
Generating Data System	Chromeleon 7.2.5.9507
Exporting Data System	Chromeleon 7.2.5.0
Operator	Instrument Controller
Signal Quantity	Refractive 
Signal Unit	µRIU
Signal Min.	-0.545750
Signal Max.	56.132375
Channel	RI_1
Driver Name	RID520Driver.dll
Channel Type	Evaluation
Min. Step (s)	1
Max. Step (s)	1
Average Step (s)	1

Signal Parameter Information:
Signal Info	

Chromatogram Data:
Time (min)	Step (s)	Value (µRIU)
0.000000	n.a.	-0.044125
0.016667	1	-0.044250
0.033333	1	-0.044125
0.050000	1	-0.044875
0.066667	1	-0.045250
0.083333	1	-0.045750
0.100000	1	-0.045750
0.116667	1	-0.047000
0.133333	1	-0.047625
0.150000	1	-0.048750
0.166667	1	-0.048125
0.183333	1	-0.048250
0.200000	1	-0.049000
0.216667	1	-0.049500
0.233333	1	-0.049875
0.250000	1	-0.050250
0.266667	1	-0.051375
0.283333	1	-0.053000
0.300000	1	-0.056875
0.316667	1	-0.061375
0.333333	1	-0.064375
0.350000	1	-0.063250
0.366667	1	-0.060750
0.383333	1	-0.057250
0.400000	1	-0.054125
0.416667	1	-0.052500
0.433333	1	-0.050250
0.450000	1	-0.049000
0.466667	1	-0.049000
0.483333	1	-0.049875
0.500000	1	-0.052500
0.516667	1	-0.055125
0.533333	1	-0.058125
0.550000	1	-0.060750
0.566667	1	-0.062625
0.583333	1	-0.064000
0.600000	1	-0.065000
0.616667	1	-0.066625
0.633333	1	-0.068000
0.650000	1	-0.069000
0.666667	1	-0.069375
0.683333	1	-0.069625
0.700000	1	-0.070750
0.716667	1	-0.071500
0.733333	1	-0.072625
0.750000	1	-0.072750
0.766667	1	-0.072250
0.783333	1	-0.071625
0.800000	1	-0.070625
0.816667	1	-0.070625
0.833333	1	-0.071000
0.850000	1	-0.071125
0.866667	1	-0.070875
0.883333	1	-0.070625
0.900000	1	-0.070375
0.916667	1	-0.070125
0.933333	1	-0.069375
0.950000	1	-0.068875
0.966667	1	-0.068500
0.983333	1	-0.067375
1.000000	1	-0.066625
1.016667	1	-0.065625
1.033333	1	-0.065375
1.050000	1	-0.064625
1.066667	1	-0.064125
1.083333	1	-0.063625
1.100000	1	-0.063250
1.116667	1	-0.062750
1.133333	1	-0.062750
1.150000	1	-0.062125
1.166667	1	-0.061000
1.183333	1	-0.061125
1.200000	1	-0.060750
1.216667	1	-0.060500
1.233333	1	-0.060250
1.250000	1	-0.059875
1.266667	1	-0.059375
1.283333	1	-0.059250
1.300000	1	-0.058875
1.316667	1	-0.059000
1.333333	1	-0.058000
1.350000	1	-0.057000
1.366667	1	-0.056625
1.383333	1	-0.056375
1.400000	1	-0.055750
1.416667	1	-0.055625
1.433333	1	-0.054750
1.450000	1	-0.053875
1.466667	1	-0.052750
1.483333	1	-0.052875
1.500000	1	-0.052500
1.516667	1	-0.052125
1.533333	1	-0.051375
1.550000	1	-0.050750
1.566667	1	-0.049875
1.583333	1	-0.049125
1.600000	1	-0.048500
1.616667	1	-0.048500
1.633333	1	-0.048125
1.650000	1	-0.047625
1.666667	1	-0.047750
1.683333	1	-0.047500
1.700000	1	-0.047500
1.716667	1	-0.046875
1.733333	1	-0.046875
1.750000	1	-0.046875
1.766667	1	-0.046875
1.783333	1	-0.046750
1.800000	1	-0.045875
1.816667	1	-0.045625
1.833333	1	-0.045875
1.850000	1	-0.045625
1.866667	1	-0.045500
1.883333	1	-0.045375
1.900000	1	-0.045125
1.916667	1	-0.044625
1.933333	1	-0.045250
1.950000	1	-0.045250
1.966667	1	-0.045250
1.983333	1	-0.044875
2.000000	1	-0.045375
2.016667	1	-0.045625
2.033333	1	-0.046125
2.050000	1	-0.046000
2.066667	1	-0.046250
2.083333	1	-0.046500
2.100000	1	-0.046625
2.116667	1	-0.047000
2.133333	1	-0.047125
2.150000	1	-0.047625
2.166667	1	-0.048125
2.183333	1	-0.048375
2.200000	1	-0.048625
2.216667	1	-0.049000
2.233333	1	-0.049125
2.250000	1	-0.048875
2.266667	1	-0.048625
2.283333	1	-0.048625
2.300000	1	-0.049000
2.316667	1	-0.048125
2.333333	1	-0.048250
2.350000	1	-0.048250
2.366667	1	-0.047125
2.383333	1	-0.046875
2.400000	1	-0.046750
2.416667	1	-0.045875
2.433333	1	-0.046125
2.450000	1	-0.045375
2.466667	1	-0.044875
2.483333	1	-0.043625
2.500000	1	-0.043125
2.516667	1	-0.042875
2.533333	1	-0.041875
2.550000	1	-0.040875
2.566667	1	-0.039875
2.583333	1	-0.039500
2.600000	1	-0.039125
2.616667	1	-0.038500
2.633333	1	-0.037500
2.650000	1	-0.036625
2.666667	1	-0.036000
2.683333	1	-0.035375
2.700000	1	-0.034750
2.716667	1	-0.034250
2.733333	1	-0.033625
2.750000	1	-0.033500
2.766667	1	-0.032875
2.783333	1	-0.032500
2.800000	1	-0.032000
2.816667	1	-0.030750
2.833333	1	-0.029875
2.850000	1	-0.029375
2.866667	1	-0.028500
2.883333	1	-0.027875
2.900000	1	-0.027000
2.916667	1	-0.026500
2.933333	1	-0.025375
2.950000	1	-0.024500
2.966667	1	-0.023875
2.983333	1	-0.023000
3.000000	1	-0.021875
3.016667	1	-0.020875
3.033333	1	-0.019750
3.050000	1	-0.018625
3.066667	1	-0.017500
3.083333	1	-0.015875
3.100000	1	-0.014875
3.116667	1	-0.013875
3.133333	1	-0.013250
3.150000	1	-0.012125
3.166667	1	-0.011500
3.183333	1	-0.010125
3.200000	1	-0.009250
3.216667	1	-0.008000
3.233333	1	-0.008250
3.250000	1	-0.007750
3.266667	1	-0.007625
3.283333	1	-0.007000
3.300000	1	-0.007250
3.316667	1	-0.007125
3.333333	1	-0.007125
3.350000	1	-0.007500
3.366667	1	-0.007750
3.383333	1	-0.007750
3.400000	1	-0.007750
3.416667	1	-0.007875
3.433333	1	-0.008250
3.450000	1	-0.008375
3.466667	1	-0.008500
3.483333	1	-0.009125
3.500000	1	-0.010000
3.516667	1	-0.010750
3.533333	1	-0.011625
3.550000	1	-0.012625
3.566667	1	-0.013375
3.583333	1	-0.015125
3.600000	1	-0.015750
3.616667	1	-0.017125
3.633333	1	-0.018000
3.650000	1	-0.018750
3.666667	1	-0.020125
3.683333	1	-0.021750
3.700000	1	-0.023125
3.716667	1	-0.024375
3.733333	1	-0.025625
3.750000	1	-0.028000
3.766667	1	-0.029375
3.783333	1	-0.029750
3.800000	1	-0.031625
3.816667	1	-0.032875
3.833333	1	-0.033875
3.850000	1	-0.034500
3.866667	1	-0.036250
3.883333	1	-0.037500
3.900000	1	-0.039125
3.916667	1	-0.039875
3.933333	1	-0.041125
3.950000	1	-0.042750
3.966667	1	-0.044500
3.983333	1	-0.045750
4.000000	1	-0.047375
4.016667	1	-0.048125
4.033333	1	-0.049375
4.050000	1	-0.050625
4.066667	1	-0.052750
4.083333	1	-0.054000
4.100000	1	-0.055125
4.116667	1	-0.055625
4.133333	1	-0.056625
4.150000	1	-0.057875
4.166667	1	-0.059125
4.183333	1	-0.060375
4.200000	1	-0.060500
4.216667	1	-0.061500
4.233333	1	-0.061250
4.250000	1	-0.062125
4.266667	1	-0.062500
4.283333	1	-0.063625
4.300000	1	-0.063875
4.316667	1	-0.064875
4.333333	1	-0.064250
4.350000	1	-0.064125
4.366667	1	-0.064250
4.383333	1	-0.063750
4.400000	1	-0.064375
4.416667	1	-0.063625
4.433333	1	-0.062625
4.450000	1	-0.062500
4.466667	1	-0.062000
4.483333	1	-0.060250
4.500000	1	-0.059125
4.516667	1	-0.057750
4.533333	1	-0.056875
4.550000	1	-0.055500
4.566667	1	-0.054750
4.583333	1	-0.053375
4.600000	1	-0.052000
4.616667	1	-0.050500
4.633333	1	-0.048125
4.650000	1	-0.045625
4.666667	1	-0.043500
4.683333	1	-0.041125
4.700000	1	-0.038750
4.716667	1	-0.036500
4.733333	1	-0.033500
4.750000	1	-0.030875
4.766667	1	-0.028250
4.783333	1	-0.025500
4.800000	1	-0.022750
4.816667	1	-0.019875
4.833333	1	-0.016500
4.850000	1	-0.014125
4.866667	1	-0.011250
4.883333	1	-0.008000
4.900000	1	-0.004875
4.916667	1	-0.002125
4.933333	1	0.001500
4.950000	1	0.005125
4.966667	1	0.008250
4.983333	1	0.011875
5.000000	1	0.015750
5.016667	1	0.019000
5.033333	1	0.022000
5.050000	1	0.024625
5.066667	1	0.027625
5.083333	1	0.030125
5.100000	1	0.032625
5.116667	1	0.035375
5.133333	1	0.037875
5.150000	1	0.040750
5.166667	1	0.043125
5.183333	1	0.045750
5.200000	1	0.047625
5.216667	1	0.049875
5.233333	1	0.050875
5.250000	1	0.052750
5.266667	1	0.053875
5.283333	1	0.055125
5.300000	1	0.055750
5.316667	1	0.057000
5.333333	1	0.056750
5.350000	1	0.057375
5.366667	1	0.057625
5.383333	1	0.058125
5.400000	1	0.058625
5.416667	1	0.059000
5.433333	1	0.057750
5.450000	1	0.056750
5.466667	1	0.055750
5.483333	1	0.055250
5.500000	1	0.054625
5.516667	1	0.053375
5.533333	1	0.052000
5.550000	1	0.050625
5.566667	1	0.050250
5.583333	1	0.048500
5.600000	1	0.046375
5.616667	1	0.044375
5.633333	1	0.042500
5.650000	1	0.040500
5.666667	1	0.038625
5.683333	1	0.036625
5.700000	1	0.035000
5.716667	1	0.033000
5.733333	1	0.030375
5.750000	1	0.028375
5.766667	1	0.026500
5.783333	1	0.025375
5.800000	1	0.023625
5.816667	1	0.022625
5.833333	1	0.021000
5.850000	1	0.018750
5.866667	1	0.017750
5.883333	1	0.017000
5.900000	1	0.015750
5.916667	1	0.014375
5.933333	1	0.013375
5.950000	1	0.012500
5.966667	1	0.011750
5.983333	1	0.010250
6.000000	1	0.009750
6.016667	1	0.010125
6.033333	1	0.009750
6.050000	1	0.009250
6.066667	1	0.009375
6.083333	1	0.009250
6.100000	1	0.008875
6.116667	1	0.009625
6.133333	1	0.010625
6.150000	1	0.010750
6.166667	1	0.011125
6.183333	1	0.011750
6.200000	1	0.012625
6.216667	1	0.013875
6.233333	1	0.014750
6.250000	1	0.016250
6.266667	1	0.017000
6.283333	1	0.018250
6.300000	1	0.019500
6.316667	1	0.020750
6.333333	1	0.022250
6.350000	1	0.024625
6.366667	1	0.026250
6.383333	1	0.028000
6.400000	1	0.029625
6.416667	1	0.031500
6.433333	1	0.033375
6.450000	1	0.035125
6.466667	1	0.037125
6.483333	1	0.039000
6.500000	1	0.041000
6.516667	1	0.043250
6.533333	1	0.045250
6.550000	1	0.047625
6.566667	1	0.049375
6.583333	1	0.050875
6.600000	1	0.052875
6.616667	1	0.054625
6.633333	1	0.055750
6.650000	1	0.057250
6.666667	1	0.058375
6.683333	1	0.059500
6.700000	1	0.060375
6.716667	1	0.060875
6.733333	1	0.060875
6.750000	1	0.061375
6.766667	1	0.061250
6.783333	1	0.061875
6.800000	1	0.061500
6.816667	1	0.061125
6.833333	1	0.061250
6.850000	1	0.060625
6.866667	1	0.059875
6.883333	1	0.058500
6.900000	1	0.057375
6.916667	1	0.056250
6.933333	1	0.055500
6.950000	1	0.054250
6.966667	1	0.051750
6.983333	1	0.049875
7.000000	1	0.048125
7.016667	1	0.046375
7.033333	1	0.044625
7.050000	1	0.042750
7.066667	1	0.040250
7.083333	1	0.037875
7.100000	1	0.035875
7.116667	1	0.033250
7.133333	1	0.030750
7.150000	1	0.028750
7.166667	1	0.025500
7.183333	1	0.023375
7.200000	1	0.020250
7.216667	1	0.017250
7.233333	1	0.014125
7.250000	1	0.011625
7.266667	1	0.009500
7.283333	1	0.007125
7.300000	1	0.004125
7.316667	1	0.001375
7.333333	1	-0.001375
7.350000	1	-0.003750
7.366667	1	-0.006125
7.383333	1	-0.008750
7.400000	1	-0.011500
7.416667	1	-0.014125
7.433333	1	-0.016375
7.450000	1	-0.018375
7.466667	1	-0.020750
7.483333	1	-0.022125
7.500000	1	-0.024500
7.516667	1	-0.025500
7.533333	1	-0.026875
7.550000	1	-0.027500
7.566667	1	-0.028875
7.583333	1	-0.030625
7.600000	1	-0.031250
7.616667	1	-0.032000
7.633333	1	-0.032125
7.650000	1	-0.032625
7.666667	1	-0.032625
7.683333	1	-0.032250
7.700000	1	-0.031625
7.716667	1	-0.032000
7.733333	1	-0.031250
7.750000	1	-0.030750
7.766667	1	-0.030500
7.783333	1	-0.029625
7.800000	1	-0.027625
7.816667	1	-0.026625
7.833333	1	-0.025875
7.850000	1	-0.025375
7.866667	1	-0.024250
7.883333	1	-0.023125
7.900000	1	-0.021250
7.916667	1	-0.020500
7.933333	1	-0.019500
7.950000	1	-0.018500
7.966667	1	-0.017250
7.983333	1	-0.015500
8.000000	1	-0.014125
8.016667	1	-0.013125
8.033333	1	-0.012250
8.050000	1	-0.011000
8.066667	1	-0.009875
8.083333	1	-0.008375
8.100000	1	-0.007500
8.116667	1	-0.007000
8.133333	1	-0.005750
8.150000	1	-0.004125
8.166667	1	-0.003125
8.183333	1	-0.002375
8.200000	1	-0.002500
8.216667	1	-0.001500
8.233333	1	-0.000750
8.250000	1	0.000125
8.266667	1	0.000875
8.283333	1	0.001875
8.300000	1	0.002875
8.316667	1	0.003625
8.333333	1	0.004250
8.350000	1	0.005000
8.366667	1	0.005750
8.383333	1	0.005875
8.400000	1	0.006875
8.416667	1	0.007250
8.433333	1	0.008250
8.450000	1	0.008625
8.466667	1	0.009250
8.483333	1	0.010125
8.500000	1	0.010875
8.516667	1	0.011875
8.533333	1	0.012625
8.550000	1	0.012875
8.566667	1	0.013625
8.583333	1	0.014000
8.600000	1	0.015375
8.616667	1	0.016375
8.633333	1	0.016625
8.650000	1	0.016875
8.666667	1	0.017500
8.683333	1	0.018375
8.700000	1	0.018875
8.716667	1	0.019375
8.733333	1	0.019875
8.750000	1	0.020000
8.766667	1	0.020625
8.783333	1	0.020500
8.800000	1	0.020875
8.816667	1	0.020250
8.833333	1	0.020375
8.850000	1	0.020625
8.866667	1	0.020750
8.883333	1	0.020500
8.900000	1	0.020375
8.916667	1	0.020000
8.933333	1	0.020500
8.950000	1	0.020625
8.966667	1	0.020625
8.983333	1	0.020625
9.000000	1	0.020375
9.016667	1	0.020125
9.033333	1	0.019250
9.050000	1	0.018875
9.066667	1	0.018750
9.083333	1	0.019375
9.100000	1	0.019875
9.116667	1	0.019750
9.133333	1	0.020375
9.150000	1	0.020625
9.166667	1	0.021000
9.183333	1	0.020750
9.200000	1	0.021875
9.216667	1	0.022250
9.233333	1	0.022500
9.250000	1	0.023125
9.266667	1	0.024000
9.283333	1	0.024250
9.300000	1	0.025125
9.316667	1	0.026500
9.333333	1	0.028125
9.350000	1	0.029125
9.366667	1	0.030750
9.383333	1	0.033125
9.400000	1	0.035500
9.416667	1	0.038625
9.433333	1	0.041875
9.450000	1	0.045625
9.466667	1	0.049875
9.483333	1	0.054250
9.500000	1	0.060500
9.516667	1	0.066625
9.533333	1	0.073500
9.550000	1	0.080750
9.566667	1	0.089000
9.583333	1	0.097875
9.600000	1	0.108000
9.616667	1	0.119375
9.633333	1	0.132125
9.650000	1	0.145250
9.666667	1	0.160625
9.683333	1	0.177125
9.700000	1	0.195750
9.716667	1	0.214250
9.733333	1	0.231875
9.750000	1	0.248875
9.766667	1	0.263500
9.783333	1	0.274375
9.800000	1	0.279500
9.816667	1	0.278750
9.833333	1	0.269375
9.850000	1	0.250750
9.866667	1	0.221875
9.883333	1	0.179625
9.900000	1	0.129125
9.916667	1	0.083500
9.933333	1	0.071750
9.950000	1	0.137625
9.966667	1	0.339250
9.983333	1	0.740125
10.000000	1	1.401625
10.016667	1	2.377375
10.033333	1	3.707250
10.050000	1	5.416625
10.066667	1	7.518625
10.083333	1	10.012250
10.100000	1	12.884125
10.116667	1	16.103875
10.133333	1	19.623500
10.150000	1	23.373375
10.166667	1	27.260250
10.183333	1	31.160375
10.200000	1	34.921000
10.216667	1	38.357250
10.233333	1	41.262375
10.250000	1	43.433750
10.266667	1	44.704500
10.283333	1	44.968875
10.300000	1	44.212125
10.316667	1	42.519625
10.333333	1	40.057500
10.350000	1	37.046750
10.366667	1	33.727000
10.383333	1	30.313750
10.400000	1	26.982625
10.416667	1	23.858875
10.433333	1	21.016750
10.450000	1	18.487625
10.466667	1	16.270125
10.483333	1	14.344000
10.500000	1	12.679125
10.516667	1	11.242500
10.533333	1	10.001000
10.550000	1	8.924375
10.566667	1	7.988125
10.583333	1	7.171625
10.600000	1	6.456875
10.616667	1	5.832000
10.633333	1	5.286375
10.650000	1	4.810125
10.666667	1	4.395000
10.683333	1	4.034000
10.700000	1	3.719500
10.716667	1	3.445500
10.733333	1	3.204625
10.750000	1	2.992125
10.766667	1	2.803250
10.783333	1	2.633875
10.800000	1	2.481125
10.816667	1	2.343750
10.833333	1	2.218875
10.850000	1	2.104000
10.866667	1	1.999250
10.883333	1	1.904000
10.900000	1	1.817125
10.916667	1	1.738875
10.933333	1	1.666500
10.950000	1	1.600250
10.966667	1	1.539625
10.983333	1	1.484125
11.000000	1	1.433125
11.016667	1	1.385875
11.033333	1	1.343000
11.050000	1	1.303000
11.066667	1	1.265750
11.083333	1	1.231375
11.100000	1	1.199250
11.116667	1	1.169875
11.133333	1	1.142875
11.150000	1	1.117125
11.166667	1	1.093750
11.183333	1	1.071750
11.200000	1	1.051375
11.216667	1	1.032500
11.233333	1	1.015000
11.250000	1	0.998875
11.266667	1	0.983625
11.283333	1	0.969125
11.300000	1	0.955125
11.316667	1	0.942375
11.333333	1	0.929625
11.350000	1	0.917375
11.366667	1	0.906000
11.383333	1	0.895125
11.400000	1	0.885875
11.416667	1	0.877875
11.433333	1	0.869875
11.450000	1	0.863000
11.466667	1	0.856625
11.483333	1	0.851625
11.500000	1	0.847375
11.516667	1	0.843625
11.533333	1	0.841000
11.550000	1	0.839125
11.566667	1	0.837500
11.583333	1	0.837000
11.600000	1	0.837000
11.616667	1	0.836625
11.633333	1	0.837625
11.650000	1	0.838250
11.666667	1	0.839000
11.683333	1	0.840000
11.700000	1	0.840500
11.716667	1	0.841250
11.733333	1	0.841625
11.750000	1	0.841750
11.766667	1	0.842000
11.783333	1	0.843000
11.800000	1	0.844375
11.816667	1	0.846750
11.833333	1	0.849500
11.850000	1	0.853375
11.866667	1	0.858375
11.883333	1	0.865000
11.900000	1	0.873375
11.916667	1	0.884000
11.933333	1	0.896500
11.950000	1	0.912250
11.966667	1	0.929750
11.983333	1	0.950375
12.000000	1	0.973500
12.016667	1	1.000250
12.033333	1	1.029375
12.050000	1	1.062250
12.066667	1	1.099750
12.083333	1	1.142250
12.100000	1	1.193500
12.116667	1	1.253000
12.133333	1	1.323750
12.150000	1	1.409250
12.166667	1	1.511000
12.183333	1	1.631375
12.200000	1	1.772750
12.216667	1	1.937375
12.233333	1	2.125500
12.250000	1	2.339125
12.266667	1	2.579500
12.283333	1	2.848625
12.300000	1	3.148375
12.316667	1	3.481000
12.333333	1	3.848125
12.350000	1	4.252375
12.366667	1	4.696500
12.383333	1	5.182750
12.400000	1	5.711500
12.416667	1	6.281125
12.433333	1	6.887125
12.450000	1	7.520750
12.466667	1	8.170250
12.483333	1	8.817625
12.500000	1	9.442875
12.516667	1	10.021625
12.533333	1	10.531000
12.550000	1	10.950250
12.566667	1	11.267500
12.583333	1	11.478750
12.600000	1	11.588000
12.616667	1	11.605250
12.633333	1	11.543625
12.650000	1	11.418000
12.666667	1	11.241750
12.683333	1	11.026500
12.700000	1	10.782750
12.716667	1	10.519000
12.733333	1	10.243875
12.750000	1	9.962250
12.766667	1	9.679875
12.783333	1	9.399875
12.800000	1	9.124625
12.816667	1	8.855625
12.833333	1	8.594625
12.850000	1	8.341500
12.866667	1	8.095625
12.883333	1	7.857000
12.900000	1	7.624250
12.916667	1	7.395500
12.933333	1	7.170250
12.950000	1	6.946500
12.966667	1	6.722625
12.983333	1	6.496500
13.000000	1	6.267750
13.016667	1	6.033250
13.033333	1	5.791375
13.050000	1	5.538375
13.066667	1	5.273000
13.083333	1	4.992250
13.100000	1	4.691750
13.116667	1	4.369750
13.133333	1	4.025000
13.150000	1	3.658875
13.166667	1	3.279000
13.183333	1	2.899875
13.200000	1	2.541125
13.216667	1	2.221375
13.233333	1	1.951375
13.250000	1	1.732000
13.266667	1	1.558250
13.283333	1	1.419375
13.300000	1	1.308750
13.316667	1	1.218875
13.333333	1	1.144125
13.350000	1	1.081375
13.366667	1	1.028125
13.383333	1	0.982000
13.400000	1	0.942625
13.416667	1	0.906750
13.433333	1	0.875375
13.450000	1	0.847625
13.466667	1	0.823125
13.483333	1	0.801500
13.500000	1	0.782500
13.516667	1	0.766500
13.533333	1	0.752750
13.550000	1	0.742000
13.566667	1	0.733375
13.583333	1	0.727375
13.600000	1	0.722500
13.616667	1	0.719375
13.633333	1	0.717750
13.650000	1	0.716250
13.666667	1	0.714375
13.683333	1	0.712875
13.700000	1	0.710250
13.716667	1	0.707500
13.733333	1	0.702875
13.750000	1	0.697875
13.766667	1	0.690750
13.783333	1	0.682875
13.800000	1	0.672750
13.816667	1	0.662375
13.833333	1	0.651125
13.850000	1	0.639125
13.866667	1	0.626875
13.883333	1	0.613625
13.900000	1	0.600375
13.916667	1	0.587500
13.933333	1	0.574000
13.950000	1	0.561500
13.966667	1	0.549375
13.983333	1	0.538000
14.000000	1	0.527375
14.016667	1	0.518250
14.033333	1	0.509625
14.050000	1	0.502125
14.066667	1	0.495500
14.083333	1	0.489750
14.100000	1	0.485625
14.116667	1	0.482250
14.133333	1	0.480500
14.150000	1	0.479875
14.166667	1	0.481500
14.183333	1	0.485250
14.200000	1	0.491250
14.216667	1	0.499625
14.233333	1	0.512125
14.250000	1	0.529250
14.266667	1	0.550125
14.283333	1	0.576625
14.300000	1	0.610125
14.316667	1	0.650750
14.333333	1	0.699500
14.350000	1	0.758625
14.366667	1	0.828500
14.383333	1	0.911750
14.400000	1	1.009250
14.416667	1	1.123750
14.433333	1	1.255500
14.450000	1	1.407000
14.466667	1	1.581625
14.483333	1	1.780625
14.500000	1	2.007500
14.516667	1	2.267250
14.533333	1	2.563500
14.550000	1	2.903250
14.566667	1	3.294125
14.583333	1	3.744625
14.600000	1	4.270000
14.616667	1	4.888625
14.633333	1	5.623750
14.650000	1	6.504250
14.666667	1	7.563250
14.683333	1	8.839500
14.700000	1	10.370500
14.716667	1	12.194000
14.733333	1	14.342625
14.750000	1	16.838500
14.766667	1	19.686750
14.783333	1	22.870125
14.800000	1	26.353125
14.816667	1	30.076500
14.833333	1	33.955000
14.850000	1	37.877125
14.866667	1	41.715500
14.883333	1	45.333625
14.900000	1	48.596000
14.916667	1	51.379125
14.933333	1	53.581000
14.950000	1	55.127500
14.966667	1	55.979875
14.983333	1	56.132375
15.000000	1	55.610750
15.016667	1	54.463875
15.033333	1	52.763125
15.050000	1	50.592750
15.066667	1	48.047875
15.083333	1	45.226625
15.100000	1	42.226750
15.116667	1	39.136250
15.133333	1	36.028250
15.150000	1	32.968000
15.166667	1	30.006875
15.183333	1	27.183625
15.200000	1	24.524500
15.216667	1	22.045000
15.233333	1	19.753875
15.250000	1	17.654250
15.266667	1	15.743125
15.283333	1	14.014375
15.300000	1	12.460250
15.316667	1	11.071125
15.333333	1	9.834000
15.350000	1	8.737875
15.366667	1	7.770000
15.383333	1	6.919250
15.400000	1	6.173500
15.416667	1	5.522250
15.433333	1	4.955000
15.450000	1	4.462625
15.466667	1	4.037125
15.483333	1	3.671000
15.500000	1	3.357750
15.516667	1	3.090625
15.533333	1	2.863750
15.550000	1	2.671500
15.566667	1	2.509250
15.583333	1	2.373125
15.600000	1	2.257500
15.616667	1	2.158625
15.633333	1	2.073000
15.650000	1	1.997500
15.666667	1	1.929250
15.683333	1	1.867500
15.700000	1	1.810500
15.716667	1	1.755875
15.733333	1	1.704500
15.750000	1	1.654750
15.766667	1	1.606875
15.783333	1	1.560625
15.800000	1	1.516500
15.816667	1	1.474125
15.833333	1	1.432875
15.850000	1	1.393375
15.866667	1	1.355375
15.883333	1	1.319000
15.900000	1	1.284750
15.916667	1	1.251125
15.933333	1	1.219125
15.950000	1	1.188625
15.966667	1	1.159500
15.983333	1	1.132125
16.000000	1	1.107250
16.016667	1	1.084750
16.033333	1	1.064250
16.050000	1	1.046500
16.066667	1	1.031375
16.083333	1	1.018250
16.100000	1	1.008625
16.116667	1	1.002000
16.133333	1	0.998000
16.150000	1	0.995625
16.166667	1	0.994125
16.183333	1	0.994125
16.200000	1	0.994000
16.216667	1	0.993875
16.233333	1	0.992375
16.250000	1	0.990000
16.266667	1	0.985500
16.283333	1	0.979750
16.300000	1	0.971750
16.316667	1	0.962500
16.333333	1	0.952250
16.350000	1	0.940500
16.366667	1	0.929125
16.383333	1	0.915250
16.400000	1	0.902375
16.416667	1	0.889125
16.433333	1	0.876250
16.450000	1	0.864250
16.466667	1	0.854000
16.483333	1	0.844375
16.500000	1	0.835125
16.516667	1	0.826875
16.533333	1	0.820750
16.550000	1	0.815375
16.566667	1	0.812000
16.583333	1	0.808875
16.600000	1	0.807875
16.616667	1	0.807500
16.633333	1	0.807750
16.650000	1	0.808750
16.666667	1	0.810250
16.683333	1	0.812500
16.700000	1	0.815625
16.716667	1	0.818750
16.733333	1	0.823125
16.750000	1	0.826375
16.766667	1	0.830000
16.783333	1	0.833000
16.800000	1	0.836000
16.816667	1	0.838625
16.833333	1	0.840375
16.850000	1	0.840625
16.866667	1	0.840500
16.883333	1	0.839375
16.900000	1	0.838250
16.916667	1	0.837125
16.933333	1	0.836000
16.950000	1	0.834375
16.966667	1	0.833375
16.983333	1	0.832875
17.000000	1	0.833000
17.016667	1	0.833875
17.033333	1	0.834250
17.050000	1	0.834875
17.066667	1	0.835625
17.083333	1	0.837125
17.100000	1	0.837625
17.116667	1	0.838500
17.133333	1	0.838375
17.150000	1	0.836750
17.166667	1	0.834500
17.183333	1	0.830875
17.200000	1	0.825875
17.216667	1	0.820625
17.233333	1	0.814625
17.250000	1	0.806750
17.266667	1	0.798500
17.283333	1	0.790125
17.300000	1	0.781750
17.316667	1	0.773000
17.333333	1	0.764250
17.350000	1	0.755625
17.366667	1	0.747625
17.383333	1	0.739625
17.400000	1	0.732625
17.416667	1	0.726750
17.433333	1	0.721250
17.450000	1	0.716500
17.466667	1	0.712750
17.483333	1	0.710375
17.500000	1	0.709500
17.516667	1	0.709500
17.533333	1	0.711875
17.550000	1	0.715250
17.566667	1	0.720500
17.583333	1	0.727500
17.600000	1	0.735375
17.616667	1	0.744625
17.633333	1	0.754750
17.650000	1	0.767125
17.666667	1	0.779750
17.683333	1	0.793375
17.700000	1	0.807875
17.716667	1	0.823125
17.733333	1	0.838125
17.750000	1	0.853875
17.766667	1	0.869625
17.783333	1	0.884500
17.800000	1	0.898875
17.816667	1	0.911750
17.833333	1	0.923250
17.850000	1	0.933625
17.866667	1	0.942000
17.883333	1	0.948875
17.900000	1	0.953625
17.916667	1	0.956875
17.933333	1	0.956625
17.950000	1	0.954250
17.966667	1	0.950625
17.983333	1	0.945375
18.000000	1	0.938125
18.016667	1	0.928750
18.033333	1	0.918000
18.050000	1	0.905875
18.066667	1	0.893500
18.083333	1	0.880250
18.100000	1	0.866125
18.116667	1	0.851625
18.133333	1	0.837625
18.150000	1	0.823750
18.166667	1	0.810500
18.183333	1	0.797625
18.200000	1	0.785250
18.216667	1	0.772625
18.233333	1	0.761125
18.250000	1	0.750625
18.266667	1	0.741250
18.283333	1	0.733000
18.300000	1	0.726250
18.316667	1	0.720125
18.333333	1	0.714875
18.350000	1	0.710250
18.366667	1	0.707000
18.383333	1	0.704625
18.400000	1	0.703125
18.416667	1	0.702250
18.433333	1	0.702125
18.450000	1	0.702375
18.466667	1	0.703125
18.483333	1	0.704000
18.500000	1	0.705125
18.516667	1	0.706875
18.533333	1	0.708500
18.550000	1	0.710250
18.566667	1	0.711875
18.583333	1	0.713625
18.600000	1	0.715500
18.616667	1	0.718125
18.633333	1	0.720750
18.650000	1	0.722625
18.666667	1	0.725750
18.683333	1	0.727875
18.700000	1	0.732000
18.716667	1	0.736125
18.733333	1	0.740000
18.750000	1	0.744750
18.766667	1	0.749875
18.783333	1	0.755750
18.800000	1	0.762000
18.816667	1	0.768125
18.833333	1	0.774875
18.850000	1	0.782125
18.866667	1	0.790125
18.883333	1	0.799625
18.900000	1	0.811000
18.916667	1	0.823000
18.933333	1	0.837250
18.950000	1	0.853875
18.966667	1	0.872625
18.983333	1	0.893750
19.000000	1	0.918125
19.016667	1	0.945500
19.033333	1	0.974750
19.050000	1	1.006875
19.066667	1	1.041750
19.083333	1	1.078625
19.100000	1	1.116750
19.116667	1	1.156375
19.133333	1	1.196125
19.150000	1	1.235125
19.166667	1	1.272500
19.183333	1	1.307500
19.200000	1	1.339625
19.216667	1	1.367875
19.233333	1	1.391875
19.250000	1	1.411125
19.266667	1	1.424750
19.283333	1	1.432250
19.300000	1	1.434125
19.316667	1	1.430000
19.333333	1	1.420625
19.350000	1	1.406000
19.366667	1	1.385625
19.383333	1	1.361500
19.400000	1	1.333875
19.416667	1	1.303125
19.433333	1	1.270375
19.450000	1	1.236000
19.466667	1	1.201250
19.483333	1	1.166875
19.500000	1	1.132250
19.516667	1	1.099875
19.533333	1	1.069000
19.550000	1	1.041500
19.566667	1	1.017625
19.583333	1	0.997250
19.600000	1	0.981375
19.616667	1	0.970125
19.633333	1	0.964750
19.650000	1	0.965500
19.666667	1	0.973000
19.683333	1	0.988250
19.700000	1	1.011625
19.716667	1	1.044250
19.733333	1	1.086250
19.750000	1	1.136750
19.766667	1	1.196750
19.783333	1	1.266875
19.800000	1	1.345625
19.816667	1	1.431500
19.833333	1	1.523000
19.850000	1	1.618375
19.866667	1	1.717625
19.883333	1	1.816500
19.900000	1	1.912000
19.916667	1	2.002500
19.933333	1	2.087125
19.950000	1	2.160750
19.966667	1	2.223625
19.983333	1	2.273500
20.000000	1	2.308875
20.016667	1	2.330250
20.033333	1	2.335625
20.050000	1	2.327125
20.066667	1	2.304750
20.083333	1	2.270000
20.100000	1	2.225125
20.116667	1	2.171000
20.133333	1	2.109750
20.150000	1	2.042750
20.166667	1	1.973750
20.183333	1	1.902250
20.200000	1	1.831250
20.216667	1	1.760625
20.233333	1	1.693750
20.250000	1	1.629500
20.266667	1	1.570000
20.283333	1	1.516125
20.300000	1	1.467375
20.316667	1	1.424750
20.333333	1	1.387875
20.350000	1	1.355875
20.366667	1	1.329250
20.383333	1	1.307000
20.400000	1	1.287625
20.416667	1	1.270875
20.433333	1	1.257125
20.450000	1	1.245250
20.466667	1	1.233875
20.483333	1	1.223250
20.500000	1	1.213250
20.516667	1	1.202625
20.533333	1	1.190875
20.550000	1	1.178125
20.566667	1	1.165125
20.583333	1	1.152625
20.600000	1	1.139000
20.616667	1	1.125500
20.633333	1	1.112750
20.650000	1	1.101375
20.666667	1	1.092625
20.683333	1	1.086750
20.700000	1	1.084000
20.716667	1	1.085625
20.733333	1	1.092750
20.750000	1	1.104250
20.766667	1	1.120500
20.783333	1	1.141625
20.800000	1	1.166625
20.816667	1	1.195375
20.833333	1	1.226875
20.850000	1	1.259625
20.866667	1	1.292875
20.883333	1	1.324250
20.900000	1	1.353875
20.916667	1	1.379250
20.933333	1	1.400250
20.950000	1	1.415625
20.966667	1	1.423875
20.983333	1	1.424875
21.000000	1	1.418000
21.016667	1	1.403375
21.033333	1	1.381125
21.050000	1	1.352000
21.066667	1	1.316875
21.083333	1	1.276750
21.100000	1	1.231750
21.116667	1	1.184875
21.133333	1	1.135125
21.150000	1	1.084375
21.166667	1	1.032375
21.183333	1	0.981750
21.200000	1	0.931625
21.216667	1	0.883125
21.233333	1	0.836625
21.250000	1	0.792625
21.266667	1	0.751000
21.283333	1	0.713000
21.300000	1	0.677500
21.316667	1	0.645125
21.333333	1	0.615875
21.350000	1	0.588375
21.366667	1	0.563125
21.383333	1	0.541375
21.400000	1	0.522250
21.416667	1	0.505000
21.433333	1	0.489500
21.450000	1	0.475875
21.466667	1	0.464125
21.483333	1	0.453875
21.500000	1	0.444625
21.516667	1	0.437250
21.533333	1	0.431250
21.550000	1	0.425500
21.566667	1	0.421250
21.583333	1	0.416875
21.600000	1	0.414000
21.616667	1	0.411750
21.633333	1	0.410500
21.650000	1	0.410625
21.666667	1	0.411125
21.683333	1	0.412375
21.700000	1	0.414750
21.716667	1	0.417750
21.733333	1	0.422875
21.750000	1	0.428750
21.766667	1	0.436125
21.783333	1	0.444625
21.800000	1	0.454500
21.816667	1	0.465500
21.833333	1	0.478125
21.850000	1	0.491375
21.866667	1	0.505250
21.883333	1	0.520875
21.900000	1	0.536750
21.916667	1	0.552875
21.933333	1	0.569250
21.950000	1	0.584500
21.966667	1	0.599000
21.983333	1	0.612625
22.000000	1	0.624125
22.016667	1	0.634250
22.033333	1	0.643250
22.050000	1	0.649625
22.066667	1	0.653500
22.083333	1	0.655375
22.100000	1	0.654625
22.116667	1	0.652375
22.133333	1	0.647750
22.150000	1	0.641375
22.166667	1	0.633750
22.183333	1	0.623750
22.200000	1	0.612875
22.216667	1	0.601375
22.233333	1	0.590625
22.250000	1	0.579375
22.266667	1	0.567375
22.283333	1	0.555625
22.300000	1	0.545750
22.316667	1	0.536500
22.333333	1	0.527500
22.350000	1	0.519250
22.366667	1	0.512625
22.383333	1	0.506750
22.400000	1	0.501875
22.416667	1	0.498375
22.433333	1	0.495250
22.450000	1	0.493375
22.466667	1	0.492125
22.483333	1	0.491500
22.500000	1	0.491625
22.516667	1	0.491875
22.533333	1	0.493500
22.550000	1	0.495250
22.566667	1	0.497375
22.583333	1	0.499375
22.600000	1	0.501125
22.616667	1	0.503375
22.633333	1	0.505375
22.650000	1	0.507125
22.666667	1	0.508875
22.683333	1	0.510250
22.700000	1	0.511500
22.716667	1	0.511875
22.733333	1	0.512250
22.750000	1	0.512500
22.766667	1	0.511750
22.783333	1	0.510625
22.800000	1	0.508375
22.816667	1	0.505875
22.833333	1	0.502875
22.850000	1	0.499875
22.866667	1	0.496500
22.883333	1	0.493250
22.900000	1	0.489375
22.916667	1	0.484250
22.933333	1	0.480250
22.950000	1	0.476000
22.966667	1	0.471750
22.983333	1	0.467500
23.000000	1	0.463125
23.016667	1	0.459000
23.033333	1	0.456500
23.050000	1	0.454125
23.066667	1	0.451750
23.083333	1	0.450500
23.100000	1	0.449750
23.116667	1	0.450750
23.133333	1	0.452250
23.150000	1	0.454750
23.166667	1	0.458500
23.183333	1	0.463500
23.200000	1	0.469875
23.216667	1	0.478375
23.233333	1	0.488000
23.250000	1	0.499250
23.266667	1	0.512000
23.283333	1	0.526875
23.300000	1	0.543750
23.316667	1	0.562250
23.333333	1	0.583250
23.350000	1	0.606875
23.366667	1	0.633250
23.383333	1	0.663000
23.400000	1	0.695750
23.416667	1	0.731625
23.433333	1	0.772125
23.450000	1	0.816875
23.466667	1	0.867000
23.483333	1	0.923375
23.500000	1	0.985750
23.516667	1	1.057250
23.533333	1	1.137500
23.550000	1	1.227250
23.566667	1	1.327750
23.583333	1	1.440000
23.600000	1	1.566750
23.616667	1	1.706875
23.633333	1	1.862000
23.650000	1	2.031625
23.666667	1	2.217000
23.683333	1	2.416000
23.700000	1	2.629375
23.716667	1	2.854375
23.733333	1	3.089125
23.750000	1	3.332250
23.766667	1	3.579000
23.783333	1	3.826750
23.800000	1	4.071500
23.816667	1	4.308375
23.833333	1	4.532500
23.850000	1	4.740125
23.866667	1	4.925500
23.883333	1	5.086000
23.900000	1	5.217625
23.916667	1	5.319000
23.933333	1	5.387375
23.950000	1	5.422000
23.966667	1	5.422000
23.983333	1	5.389375
24.000000	1	5.323500
24.016667	1	5.227750
24.033333	1	5.104250
24.050000	1	4.956500
24.066667	1	4.787375
24.083333	1	4.600625
24.100000	1	4.399625
24.116667	1	4.188375
24.133333	1	3.970375
24.150000	1	3.749500
24.166667	1	3.528500
24.183333	1	3.311000
24.200000	1	3.098000
24.216667	1	2.891750
24.233333	1	2.695125
24.250000	1	2.508500
24.266667	1	2.332500
24.283333	1	2.168625
24.300000	1	2.015625
24.316667	1	1.874250
24.333333	1	1.745000
24.350000	1	1.626750
24.366667	1	1.519000
24.383333	1	1.421750
24.400000	1	1.332750
24.416667	1	1.253375
24.433333	1	1.182375
24.450000	1	1.118375
24.466667	1	1.061250
24.483333	1	1.008500
24.500000	1	0.961250
24.516667	1	0.918750
24.533333	1	0.880000
24.550000	1	0.843750
24.566667	1	0.810000
24.583333	1	0.778375
24.600000	1	0.748875
24.616667	1	0.721250
24.633333	1	0.695375
24.650000	1	0.669875
24.666667	1	0.645625
24.683333	1	0.622000
24.700000	1	0.599250
24.716667	1	0.577125
24.733333	1	0.555625
24.750000	1	0.534750
24.766667	1	0.514375
24.783333	1	0.494375
24.800000	1	0.474750
24.816667	1	0.456750
24.833333	1	0.439250
24.850000	1	0.422375
24.866667	1	0.407500
24.883333	1	0.392500
24.900000	1	0.379125
24.916667	1	0.365750
24.933333	1	0.354250
24.950000	1	0.342875
24.966667	1	0.332750
24.983333	1	0.322625
25.000000	1	0.314375
25.016667	1	0.307500
25.033333	1	0.301375
25.050000	1	0.295875
25.066667	1	0.291375
25.083333	1	0.288000
25.100000	1	0.285250
25.116667	1	0.283250
25.133333	1	0.282125
25.150000	1	0.281500
25.166667	1	0.280750
25.183333	1	0.280750
25.200000	1	0.282000
25.216667	1	0.283500
25.233333	1	0.285250
25.250000	1	0.287625
25.266667	1	0.290125
25.283333	1	0.293250
25.300000	1	0.296375
25.316667	1	0.299750
25.333333	1	0.302375
25.350000	1	0.304750
25.366667	1	0.307500
25.383333	1	0.310500
25.400000	1	0.313750
25.416667	1	0.316250
25.433333	1	0.318750
25.450000	1	0.321250
25.466667	1	0.323500
25.483333	1	0.325125
25.500000	1	0.327125
25.516667	1	0.328125
25.533333	1	0.329125
25.550000	1	0.329375
25.566667	1	0.330125
25.583333	1	0.329750
25.600000	1	0.329250
25.616667	1	0.328375
25.633333	1	0.327500
25.650000	1	0.326750
25.666667	1	0.325375
25.683333	1	0.323875
25.700000	1	0.322250
25.716667	1	0.320125
25.733333	1	0.317250
25.750000	1	0.314000
25.766667	1	0.311000
25.783333	1	0.307750
25.800000	1	0.304250
25.816667	1	0.300375
25.833333	1	0.296250
25.850000	1	0.291875
25.866667	1	0.286750
25.883333	1	0.282000
25.900000	1	0.276500
25.916667	1	0.270875
25.933333	1	0.265250
25.950000	1	0.259250
25.966667	1	0.252500
25.983333	1	0.246250
26.000000	1	0.239250
26.016667	1	0.231875
26.033333	1	0.225125
26.050000	1	0.218625
26.066667	1	0.212000
26.083333	1	0.205375
26.100000	1	0.198625
26.116667	1	0.192375
26.133333	1	0.186375
26.150000	1	0.180250
26.166667	1	0.175500
26.183333	1	0.171625
26.200000	1	0.168250
26.216667	1	0.165375
26.233333	1	0.163250
26.250000	1	0.160875
26.266667	1	0.160875
26.283333	1	0.161125
26.300000	1	0.161625
26.316667	1	0.163125
26.333333	1	0.165500
26.350000	1	0.167375
26.366667	1	0.169750
26.383333	1	0.172875
26.400000	1	0.176250
26.416667	1	0.179375
26.433333	1	0.182750
26.450000	1	0.186375
26.466667	1	0.190250
26.483333	1	0.194125
26.500000	1	0.196750
26.516667	1	0.199500
26.533333	1	0.202000
26.550000	1	0.204125
26.566667	1	0.206750
26.583333	1	0.208500
26.600000	1	0.209625
26.616667	1	0.210500
26.633333	1	0.211250
26.650000	1	0.212750
26.666667	1	0.213625
26.683333	1	0.214375
26.700000	1	0.214625
26.716667	1	0.215250
26.733333	1	0.215125
26.750000	1	0.215625
26.766667	1	0.216125
26.783333	1	0.216500
26.800000	1	0.216875
26.816667	1	0.217875
26.833333	1	0.219125
26.850000	1	0.220500
26.866667	1	0.222000
26.883333	1	0.223875
26.900000	1	0.226250
26.916667	1	0.228750
26.933333	1	0.231250
26.950000	1	0.234375
26.966667	1	0.237750
26.983333	1	0.241625
27.000000	1	0.246250
27.016667	1	0.252250
27.033333	1	0.258125
27.050000	1	0.264750
27.066667	1	0.271000
27.083333	1	0.278125
27.100000	1	0.285625
27.116667	1	0.293625
27.133333	1	0.302875
27.150000	1	0.312250
27.166667	1	0.322000
27.183333	1	0.332625
27.200000	1	0.344500
27.216667	1	0.356625
27.233333	1	0.370375
27.250000	1	0.384375
27.266667	1	0.399375
27.283333	1	0.415250
27.300000	1	0.431750
27.316667	1	0.449375
27.333333	1	0.468625
27.350000	1	0.489000
27.366667	1	0.510625
27.383333	1	0.533625
27.400000	1	0.558500
27.416667	1	0.585000
27.433333	1	0.613625
27.450000	1	0.644625
27.466667	1	0.678125
27.483333	1	0.715250
27.500000	1	0.755375
27.516667	1	0.799750
27.533333	1	0.848750
27.550000	1	0.902125
27.566667	1	0.961625
27.583333	1	1.027375
27.600000	1	1.098625
27.616667	1	1.176500
27.633333	1	1.261875
27.650000	1	1.354375
27.666667	1	1.454875
27.683333	1	1.563000
27.700000	1	1.678625
27.716667	1	1.801750
27.733333	1	1.932500
27.750000	1	2.067875
27.766667	1	2.209250
27.783333	1	2.354250
27.800000	1	2.502125
27.816667	1	2.652250
27.833333	1	2.801625
27.850000	1	2.948875
27.866667	1	3.092625
27.883333	1	3.230375
27.900000	1	3.360125
27.916667	1	3.480000
27.933333	1	3.588125
27.950000	1	3.682750
27.966667	1	3.762625
27.983333	1	3.826000
28.000000	1	3.871625
28.016667	1	3.898875
28.033333	1	3.907000
28.050000	1	3.895875
28.066667	1	3.865500
28.083333	1	3.815625
28.100000	1	3.748125
28.116667	1	3.664125
28.133333	1	3.564625
28.150000	1	3.451625
28.166667	1	3.326000
28.183333	1	3.190625
28.200000	1	3.046750
28.216667	1	2.896875
28.233333	1	2.741125
28.250000	1	2.583125
28.266667	1	2.423500
28.283333	1	2.264625
28.300000	1	2.108000
28.316667	1	1.954125
28.333333	1	1.804625
28.350000	1	1.660500
28.366667	1	1.522625
28.383333	1	1.390875
28.400000	1	1.266250
28.416667	1	1.147250
28.433333	1	1.034875
28.450000	1	0.929375
28.466667	1	0.829750
28.483333	1	0.735750
28.500000	1	0.647750
28.516667	1	0.564750
28.533333	1	0.486875
28.550000	1	0.412750
28.566667	1	0.342750
28.583333	1	0.276500
28.600000	1	0.213500
28.616667	1	0.153750
28.633333	1	0.095000
28.650000	1	0.039875
28.666667	1	-0.012750
28.683333	1	-0.063750
28.700000	1	-0.113000
28.716667	1	-0.159625
28.733333	1	-0.204625
28.750000	1	-0.247125
28.766667	1	-0.287500
28.783333	1	-0.325250
28.800000	1	-0.360750
28.816667	1	-0.393250
28.833333	1	-0.423375
28.850000	1	-0.450125
28.866667	1	-0.474000
28.883333	1	-0.494875
28.900000	1	-0.512125
28.916667	1	-0.525750
28.933333	1	-0.536000
28.950000	1	-0.542875
28.966667	1	-0.545625
28.983333	1	-0.545750
29.000000	1	-0.541250
29.016667	1	-0.533000
29.033333	1	-0.522250
29.050000	1	-0.507875
29.066667	1	-0.491375
29.083333	1	-0.471875
29.100000	1	-0.449250
29.116667	1	-0.424500
29.133333	1	-0.397625
29.150000	1	-0.369375
29.166667	1	-0.339000
29.183333	1	-0.307875
29.200000	1	-0.274625
29.216667	1	-0.241250
29.233333	1	-0.207750
29.250000	1	-0.173750
29.266667	1	-0.139750
29.283333	1	-0.105125
29.300000	1	-0.071250
29.316667	1	-0.037875
29.333333	1	-0.005000
29.350000	1	0.026875
29.366667	1	0.058250
29.383333	1	0.087750
29.400000	1	0.116625
29.416667	1	0.145375
29.433333	1	0.172000
29.450000	1	0.197375
29.466667	1	0.221375
29.483333	1	0.244500
29.500000	1	0.265375
29.516667	1	0.285375
29.533333	1	0.303375
29.550000	1	0.320375
29.566667	1	0.336250
29.583333	1	0.350750
29.600000	1	0.364000
29.616667	1	0.375375
29.633333	1	0.385875
29.650000	1	0.394500
29.666667	1	0.402125
29.683333	1	0.408375
29.700000	1	0.413750
29.716667	1	0.417875
29.733333	1	0.421750
29.750000	1	0.424125
29.766667	1	0.425750
29.783333	1	0.426750
29.800000	1	0.426625
29.816667	1	0.425875
29.833333	1	0.424500
29.850000	1	0.423250
29.866667	1	0.421000
29.883333	1	0.418500
29.900000	1	0.415375
29.916667	1	0.412750
29.933333	1	0.409875
29.950000	1	0.407500
29.966667	1	0.404875
29.983333	1	0.402375
30.000000	1	0.399750
30.016667	1	0.397500
30.033333	1	0.395625
30.050000	1	0.394000
30.066667	1	0.392250
30.083333	1	0.391375
30.100000	1	0.390375
30.116667	1	0.389375
30.133333	1	0.389000
30.150000	1	0.388625
30.166667	1	0.388375
30.183333	1	0.389125
30.200000	1	0.389750
30.216667	1	0.390750
30.233333	1	0.392375
30.250000	1	0.394625
30.266667	1	0.397000
30.283333	1	0.399125
30.300000	1	0.402625
30.316667	1	0.405750
30.333333	1	0.409500
30.350000	1	0.414750
30.366667	1	0.421000
30.383333	1	0.427750
30.400000	1	0.435375
30.416667	1	0.442875
30.433333	1	0.451875
30.450000	1	0.462000
30.466667	1	0.473500
30.483333	1	0.484875
30.500000	1	0.497625
30.516667	1	0.512000
30.533333	1	0.526500
30.550000	1	0.542625
30.566667	1	0.558375
30.583333	1	0.575250
30.600000	1	0.592625
30.616667	1	0.611125
30.633333	1	0.629375
30.650000	1	0.647000
30.666667	1	0.664625
30.683333	1	0.682000
30.700000	1	0.697750
30.716667	1	0.713625
30.733333	1	0.728125
30.750000	1	0.741625
30.766667	1	0.753000
30.783333	1	0.763250
30.800000	1	0.771125
30.816667	1	0.777125
30.833333	1	0.781000
30.850000	1	0.783000
30.866667	1	0.781750
30.883333	1	0.778375
30.900000	1	0.773250
30.916667	1	0.765250
30.933333	1	0.755625
30.950000	1	0.743875
30.966667	1	0.730250
30.983333	1	0.714625
31.000000	1	0.697500
31.016667	1	0.678750
31.033333	1	0.659000
31.050000	1	0.638625
31.066667	1	0.617375
31.083333	1	0.595750
31.100000	1	0.574125
31.116667	1	0.551875
31.133333	1	0.529750
31.150000	1	0.508125
31.166667	1	0.487500
31.183333	1	0.466500
31.200000	1	0.446875
31.216667	1	0.426625
31.233333	1	0.408375
31.250000	1	0.390375
31.266667	1	0.373625
31.283333	1	0.357875
31.300000	1	0.341875
31.316667	1	0.328000
31.333333	1	0.315125
31.350000	1	0.303125
31.366667	1	0.291875
31.383333	1	0.282000
31.400000	1	0.273750
31.416667	1	0.265500
31.433333	1	0.258375
31.450000	1	0.251500
31.466667	1	0.245125
31.483333	1	0.239125
31.500000	1	0.235375
31.516667	1	0.231250
31.533333	1	0.227000
31.550000	1	0.224375
31.566667	1	0.222000
31.583333	1	0.220125
31.600000	1	0.218375
31.616667	1	0.218125
31.633333	1	0.217500
31.650000	1	0.216875
31.666667	1	0.216625
31.683333	1	0.217500
31.700000	1	0.218875
31.716667	1	0.220750
31.733333	1	0.223000
31.750000	1	0.224875
31.766667	1	0.227500
31.783333	1	0.230625
31.800000	1	0.233750
31.816667	1	0.237125
31.833333	1	0.240625
31.850000	1	0.243500
31.866667	1	0.247000
31.883333	1	0.250250
31.900000	1	0.254125
31.916667	1	0.257875
31.933333	1	0.260875
31.950000	1	0.263875
31.966667	1	0.266875
31.983333	1	0.269500
32.000000	1	0.271875
32.016667	1	0.273750
32.033333	1	0.275125
32.050000	1	0.276000
32.066667	1	0.276250
32.083333	1	0.275750
32.100000	1	0.275625
32.116667	1	0.275000
32.133333	1	0.273250
32.150000	1	0.271500
32.166667	1	0.269750
32.183333	1	0.267750
32.200000	1	0.264375
32.216667	1	0.261250
32.233333	1	0.257750
32.250000	1	0.253875
32.266667	1	0.250250
32.283333	1	0.246625
32.300000	1	0.242250
32.316667	1	0.238000
32.333333	1	0.233625
32.350000	1	0.229875
32.366667	1	0.226250
32.383333	1	0.222625
32.400000	1	0.218875
32.416667	1	0.215000
32.433333	1	0.212375
32.450000	1	0.209375
32.466667	1	0.205750
32.483333	1	0.202875
32.500000	1	0.199625
32.516667	1	0.196875
32.533333	1	0.194625
32.550000	1	0.191625
32.566667	1	0.189125
32.583333	1	0.185750
32.600000	1	0.182875
32.616667	1	0.179750
32.633333	1	0.176375
32.650000	1	0.173125
32.666667	1	0.169125
32.683333	1	0.165375
32.700000	1	0.161500
32.716667	1	0.157375
32.733333	1	0.153375
32.750000	1	0.149000
32.766667	1	0.144625
32.783333	1	0.139875
32.800000	1	0.135500
32.816667	1	0.131000
32.833333	1	0.125875
32.850000	1	0.121000
32.866667	1	0.115500
32.883333	1	0.110625
32.900000	1	0.106125
32.916667	1	0.102125
32.933333	1	0.096875
32.950000	1	0.092125
32.966667	1	0.087750
32.983333	1	0.083500
33.000000	1	0.079625
33.016667	1	0.075875
33.033333	1	0.072375
33.050000	1	0.069000
33.066667	1	0.065000
33.083333	1	0.062375
33.100000	1	0.059875
33.116667	1	0.057500
33.133333	1	0.054875
33.150000	1	0.053125
33.166667	1	0.051625
33.183333	1	0.050000
33.200000	1	0.048125
33.216667	1	0.046125
33.233333	1	0.045125
33.250000	1	0.044250
33.266667	1	0.043625
33.283333	1	0.041250
33.300000	1	0.040875
33.316667	1	0.039750
33.333333	1	0.039500
33.350000	1	0.039375
33.366667	1	0.039000
33.383333	1	0.038375
33.400000	1	0.038000
33.416667	1	0.037250
33.433333	1	0.037000
33.450000	1	0.036750
33.466667	1	0.036375
33.483333	1	0.035750
33.500000	1	0.034750
33.516667	1	0.033875
33.533333	1	0.033125
33.550000	1	0.032625
33.566667	1	0.031750
33.583333	1	0.030875
33.600000	1	0.030000
33.616667	1	0.029625
33.633333	1	0.029375
33.650000	1	0.028375
33.666667	1	0.028125
33.683333	1	0.027625
33.700000	1	0.026750
33.716667	1	0.026875
33.733333	1	0.026625
33.750000	1	0.026250
33.766667	1	0.026250
33.783333	1	0.026375
33.800000	1	0.025500
33.816667	1	0.025250
33.833333	1	0.024750
33.850000	1	0.025125
33.866667	1	0.025500
33.883333	1	0.026000
33.900000	1	0.026375
33.916667	1	0.026875
33.933333	1	0.027625
33.950000	1	0.028375
33.966667	1	0.029000
33.983333	1	0.029250
34.000000	1	0.030375
34.016667	1	0.030875
34.033333	1	0.031875
34.050000	1	0.033125
34.066667	1	0.034750
34.083333	1	0.035750
34.100000	1	0.036875
34.116667	1	0.038000
34.133333	1	0.039875
34.150000	1	0.041625
34.166667	1	0.043000
34.183333	1	0.044500
34.200000	1	0.046375
34.216667	1	0.048000
34.233333	1	0.050000
34.250000	1	0.051625
34.266667	1	0.053500
34.283333	1	0.055125
34.300000	1	0.056750
34.316667	1	0.058750
34.333333	1	0.060750
34.350000	1	0.062250
34.366667	1	0.063125
34.383333	1	0.064625
34.400000	1	0.065875
34.416667	1	0.067250
34.433333	1	0.068250
34.450000	1	0.069375
34.466667	1	0.070625
34.483333	1	0.071750
34.500000	1	0.072625
34.516667	1	0.073500
34.533333	1	0.074375
34.550000	1	0.075375
34.566667	1	0.076375
34.583333	1	0.077000
34.600000	1	0.077625
34.616667	1	0.077750
34.633333	1	0.077875
34.650000	1	0.078500
34.666667	1	0.079250
34.683333	1	0.080000
34.700000	1	0.080500
34.716667	1	0.081000
34.733333	1	0.082250
34.750000	1	0.083375
34.766667	1	0.083875
34.783333	1	0.084625
34.800000	1	0.085625
34.816667	1	0.087500
34.833333	1	0.088625
34.850000	1	0.089375
34.866667	1	0.091125
34.883333	1	0.092875
34.900000	1	0.095125
34.916667	1	0.097125
34.933333	1	0.099000
34.950000	1	0.100750
34.966667	1	0.102875
34.983333	1	0.105500
35.000000	1	0.107750
35.016667	1	0.110500
35.033333	1	0.112625
35.050000	1	0.115500
35.066667	1	0.117750
35.083333	1	0.120625
35.100000	1	0.123500
35.116667	1	0.126125
35.133333	1	0.128500
35.150000	1	0.130750
35.166667	1	0.133250
35.183333	1	0.135375
35.200000	1	0.137625
35.216667	1	0.139875
35.233333	1	0.141875
35.250000	1	0.145000
35.266667	1	0.146375
35.283333	1	0.148125
35.300000	1	0.150125
35.316667	1	0.151875
35.333333	1	0.154125
35.350000	1	0.156125
35.366667	1	0.158125
35.383333	1	0.159125
35.400000	1	0.159875
35.416667	1	0.160875
35.433333	1	0.161750
35.450000	1	0.162500
35.466667	1	0.163250
35.483333	1	0.163500
35.500000	1	0.164625
35.516667	1	0.165125
35.533333	1	0.165875
35.550000	1	0.166375
35.566667	1	0.166875
35.583333	1	0.166750
35.600000	1	0.166375
35.616667	1	0.166250
35.633333	1	0.165750
35.650000	1	0.165375
35.666667	1	0.165000
35.683333	1	0.164375
35.700000	1	0.163500
35.716667	1	0.162625
35.733333	1	0.161500
35.750000	1	0.160125
35.766667	1	0.159125
35.783333	1	0.158625
35.800000	1	0.157625
35.816667	1	0.156750
35.833333	1	0.155750
35.850000	1	0.154250
35.866667	1	0.152875
35.883333	1	0.151250
35.900000	1	0.149625
35.916667	1	0.149250
35.933333	1	0.148000
35.950000	1	0.146875
35.966667	1	0.144875
35.983333	1	0.143500
36.000000	1	0.141625
36.016667	1	0.140500
36.033333	1	0.138625
36.050000	1	0.137250
36.066667	1	0.135750
36.083333	1	0.134250
36.100000	1	0.132500
36.116667	1	0.131125
36.133333	1	0.130250
36.150000	1	0.128500
36.166667	1	0.127000
36.183333	1	0.125250
36.200000	1	0.123625
36.216667	1	0.122375
36.233333	1	0.121500
36.250000	1	0.120250
36.266667	1	0.119500
36.283333	1	0.118000
36.300000	1	0.117000
36.316667	1	0.115875
36.333333	1	0.114125
36.350000	1	0.112625
36.366667	1	0.111250
36.383333	1	0.109875
36.400000	1	0.107625
36.416667	1	0.106125
36.433333	1	0.104625
36.450000	1	0.102875
36.466667	1	0.101250
36.483333	1	0.099750
36.500000	1	0.098000
36.516667	1	0.096625
36.533333	1	0.094750
36.550000	1	0.093875
36.566667	1	0.091625
36.583333	1	0.089875
36.600000	1	0.088000
36.616667	1	0.086750
36.633333	1	0.084625
36.650000	1	0.083125
36.666667	1	0.081000
36.683333	1	0.078625
36.700000	1	0.076625
36.716667	1	0.074375
36.733333	1	0.072375
36.750000	1	0.070125
36.766667	1	0.067750
36.783333	1	0.064500
36.800000	1	0.062500
36.816667	1	0.060000
36.833333	1	0.057875
36.850000	1	0.055125
36.866667	1	0.052500
36.883333	1	0.050500
36.900000	1	0.047625
36.916667	1	0.045250
36.933333	1	0.043125
36.950000	1	0.041000
36.966667	1	0.038500
36.983333	1	0.035750
37.000000	1	0.033625
37.016667	1	0.030875
37.033333	1	0.028625
37.050000	1	0.026625
37.066667	1	0.024250
37.083333	1	0.021875
37.100000	1	0.019625
37.116667	1	0.017875
37.133333	1	0.016000
37.150000	1	0.014000
37.166667	1	0.012250
37.183333	1	0.010000
37.200000	1	0.008125
37.216667	1	0.006125
37.233333	1	0.004625
37.250000	1	0.003125
37.266667	1	0.001000
37.283333	1	-0.000375
37.300000	1	-0.002375
37.316667	1	-0.003750
37.333333	1	-0.005500
37.350000	1	-0.007375
37.366667	1	-0.009000
37.383333	1	-0.010875
37.400000	1	-0.012375
37.416667	1	-0.014000
37.433333	1	-0.015375
37.450000	1	-0.016250
37.466667	1	-0.017625
37.483333	1	-0.019250
37.500000	1	-0.020375
37.516667	1	-0.021750
37.533333	1	-0.023125
37.550000	1	-0.023750
37.566667	1	-0.024750
37.583333	1	-0.025875
37.600000	1	-0.026000
37.616667	1	-0.027125
37.633333	1	-0.026875
37.650000	1	-0.027125
37.666667	1	-0.026250
37.683333	1	-0.026375
37.700000	1	-0.025500
37.716667	1	-0.024875
37.733333	1	-0.025125
37.750000	1	-0.024125
37.766667	1	-0.023750
37.783333	1	-0.023625
37.800000	1	-0.022500
37.816667	1	-0.021250
37.833333	1	-0.020625
37.850000	1	-0.019000
37.866667	1	-0.017625
37.883333	1	-0.016250
37.900000	1	-0.014750
37.916667	1	-0.013250
37.933333	1	-0.011500
37.950000	1	-0.010500
37.966667	1	-0.009375
37.983333	1	-0.007250
38.000000	1	-0.006000
38.016667	1	-0.004500
38.033333	1	-0.002875
38.050000	1	-0.001000
38.066667	1	0.000250
38.083333	1	0.002625
38.100000	1	0.003750
38.116667	1	0.004750
38.133333	1	0.006625
38.150000	1	0.008375
38.166667	1	0.009500
38.183333	1	0.010875
38.200000	1	0.012250
38.216667	1	0.013500
38.233333	1	0.014875
38.250000	1	0.016125
38.266667	1	0.016750
38.283333	1	0.016875
38.300000	1	0.017125
38.316667	1	0.017750
38.333333	1	0.018250
38.350000	1	0.017625
38.366667	1	0.018000
38.383333	1	0.017625
38.400000	1	0.017875
38.416667	1	0.018000
38.433333	1	0.018000
38.450000	1	0.017750
38.466667	1	0.017875
38.483333	1	0.017375
38.500000	1	0.017625
38.516667	1	0.017375
38.533333	1	0.016625
38.550000	1	0.016250
38.566667	1	0.015375
38.583333	1	0.015500
38.600000	1	0.014875
38.616667	1	0.014500
38.633333	1	0.013500
38.650000	1	0.013750
38.666667	1	0.012875
38.683333	1	0.012875
38.700000	1	0.012125
38.716667	1	0.011000
38.733333	1	0.010500
38.750000	1	0.009625
38.766667	1	0.008750
38.783333	1	0.007875
38.800000	1	0.007000
38.816667	1	0.006125
38.833333	1	0.004625
38.850000	1	0.003750
38.866667	1	0.003000
38.883333	1	0.001500
38.900000	1	0.000375
38.916667	1	-0.000875
38.933333	1	-0.002750
38.950000	1	-0.004375
38.966667	1	-0.005500
38.983333	1	-0.006875
39.000000	1	-0.008500
39.016667	1	-0.010250
39.033333	1	-0.011625
39.050000	1	-0.013125
39.066667	1	-0.014000
39.083333	1	-0.015625
39.100000	1	-0.016625
39.116667	1	-0.017375
39.133333	1	-0.018500
39.150000	1	-0.018750
39.166667	1	-0.019000
39.183333	1	-0.019500
39.200000	1	-0.019875
39.216667	1	-0.019625
39.233333	1	-0.020250
39.250000	1	-0.019625
39.266667	1	-0.019125
39.283333	1	-0.018375
39.300000	1	-0.017625
39.316667	1	-0.017000
39.333333	1	-0.016375
39.350000	1	-0.015750
39.366667	1	-0.016000
39.383333	1	-0.014500
39.400000	1	-0.013500
39.416667	1	-0.012375
39.433333	1	-0.011625
39.450000	1	-0.011250
39.466667	1	-0.009750
39.483333	1	-0.008500
39.500000	1	-0.007750
39.516667	1	-0.006750
39.533333	1	-0.005500
39.550000	1	-0.004000
39.566667	1	-0.003500
39.583333	1	-0.001625
39.600000	1	-0.000125
39.616667	1	0.001625
39.633333	1	0.003375
39.650000	1	0.004625
39.666667	1	0.005875
39.683333	1	0.007125
39.700000	1	0.008625
39.716667	1	0.009625
39.733333	1	0.010875
39.750000	1	0.012625
39.766667	1	0.013625
39.783333	1	0.015250
39.800000	1	0.016250
39.816667	1	0.017625
39.833333	1	0.019375
39.850000	1	0.021000
39.866667	1	0.022875
39.883333	1	0.024875
39.900000	1	0.025750
39.916667	1	0.027000
39.933333	1	0.028750
39.950000	1	0.030250
39.966667	1	0.031375
39.983333	1	0.032875
40.000000	1	0.033500
