File Path	chrom://marshall/Chromeleon7/HPLC_Ultimate_3000/Users/markusar/20221226.seq/953.smp/RI_1.channel/RI_1.chm
Channel	RI_1

Injection Information:
Data Vault	Chromeleon7
Injection	ca1.4
Injection Number	29
Position	RD5
Comment	
Processing Method	
Instrument Method	std_method
Type	Unknown
Status	Finished
Injection Date	27.12.2022
Injection Time	11:17:47
Injection Volume (µl)	20.000
Dilution Factor	1.0000
Weight	1.0000

Chromatogram Data Information:
Time Min. (min)	0.000000
Time Max. (min)	40.000000
Data Points	2401
Detector	RI
Generating Data System	Chromeleon 7.2.5.9507
Exporting Data System	Chromeleon 7.2.5.0
Operator	Instrument Controller
Signal Quantity	Refractive 
Signal Unit	µRIU
Signal Min.	-0.723000
Signal Max.	95.371500
Channel	RI_1
Driver Name	RID520Driver.dll
Channel Type	Evaluation
Min. Step (s)	1
Max. Step (s)	1
Average Step (s)	1

Signal Parameter Information:
Signal Info	

Chromatogram Data:
Time (min)	Step (s)	Value (µRIU)
0.000000	n.a.	0.128625
0.016667	1	0.127500
0.033333	1	0.126625
0.050000	1	0.125375
0.066667	1	0.124625
0.083333	1	0.122250
0.100000	1	0.120875
0.116667	1	0.119250
0.133333	1	0.117625
0.150000	1	0.116000
0.166667	1	0.114875
0.183333	1	0.113625
0.200000	1	0.111250
0.216667	1	0.109000
0.233333	1	0.106750
0.250000	1	0.104875
0.266667	1	0.102125
0.283333	1	0.098250
0.300000	1	0.093375
0.316667	1	0.089000
0.333333	1	0.087000
0.350000	1	0.088375
0.366667	1	0.090875
0.383333	1	0.093125
0.400000	1	0.093625
0.416667	1	0.092875
0.433333	1	0.092375
0.450000	1	0.091750
0.466667	1	0.089625
0.483333	1	0.085625
0.500000	1	0.080125
0.516667	1	0.074875
0.533333	1	0.070750
0.550000	1	0.066875
0.566667	1	0.064750
0.583333	1	0.062875
0.600000	1	0.060375
0.616667	1	0.057875
0.633333	1	0.055000
0.650000	1	0.053250
0.666667	1	0.051375
0.683333	1	0.049250
0.700000	1	0.047500
0.716667	1	0.046375
0.733333	1	0.045250
0.750000	1	0.043000
0.766667	1	0.041250
0.783333	1	0.039625
0.800000	1	0.038500
0.816667	1	0.037125
0.833333	1	0.035500
0.850000	1	0.034000
0.866667	1	0.032750
0.883333	1	0.032000
0.900000	1	0.030250
0.916667	1	0.028750
0.933333	1	0.027250
0.950000	1	0.025875
0.966667	1	0.024875
0.983333	1	0.023625
1.000000	1	0.022250
1.016667	1	0.020250
1.033333	1	0.019000
1.050000	1	0.017625
1.066667	1	0.015625
1.083333	1	0.013875
1.100000	1	0.012000
1.116667	1	0.009625
1.133333	1	0.007125
1.150000	1	0.005250
1.166667	1	0.003000
1.183333	1	0.000500
1.200000	1	-0.002250
1.216667	1	-0.004500
1.233333	1	-0.006875
1.250000	1	-0.008875
1.266667	1	-0.012000
1.283333	1	-0.014750
1.300000	1	-0.016625
1.316667	1	-0.019250
1.333333	1	-0.021750
1.350000	1	-0.024750
1.366667	1	-0.027625
1.383333	1	-0.029875
1.400000	1	-0.033375
1.416667	1	-0.035875
1.433333	1	-0.037875
1.450000	1	-0.041250
1.466667	1	-0.044375
1.483333	1	-0.047500
1.500000	1	-0.049625
1.516667	1	-0.052750
1.533333	1	-0.055500
1.550000	1	-0.058250
1.566667	1	-0.060000
1.583333	1	-0.062875
1.600000	1	-0.065375
1.616667	1	-0.067500
1.633333	1	-0.070000
1.650000	1	-0.072125
1.666667	1	-0.074375
1.683333	1	-0.077000
1.700000	1	-0.080125
1.716667	1	-0.082250
1.733333	1	-0.084750
1.750000	1	-0.087000
1.766667	1	-0.089750
1.783333	1	-0.092000
1.800000	1	-0.094375
1.816667	1	-0.096750
1.833333	1	-0.098875
1.850000	1	-0.101500
1.866667	1	-0.103750
1.883333	1	-0.105625
1.900000	1	-0.107875
1.916667	1	-0.110000
1.933333	1	-0.112000
1.950000	1	-0.114000
1.966667	1	-0.116375
1.983333	1	-0.117625
2.000000	1	-0.120125
2.016667	1	-0.121250
2.033333	1	-0.122750
2.050000	1	-0.124500
2.066667	1	-0.126625
2.083333	1	-0.127625
2.100000	1	-0.129250
2.116667	1	-0.130500
2.133333	1	-0.131625
2.150000	1	-0.133000
2.166667	1	-0.134375
2.183333	1	-0.136375
2.200000	1	-0.137500
2.216667	1	-0.138750
2.233333	1	-0.139750
2.250000	1	-0.142000
2.266667	1	-0.142875
2.283333	1	-0.143875
2.300000	1	-0.144750
2.316667	1	-0.145625
2.333333	1	-0.145875
2.350000	1	-0.146625
2.366667	1	-0.147375
2.383333	1	-0.148375
2.400000	1	-0.149000
2.416667	1	-0.149750
2.433333	1	-0.150250
2.450000	1	-0.150750
2.466667	1	-0.151500
2.483333	1	-0.152000
2.500000	1	-0.152125
2.516667	1	-0.152750
2.533333	1	-0.152875
2.550000	1	-0.152500
2.566667	1	-0.152750
2.583333	1	-0.152750
2.600000	1	-0.153000
2.616667	1	-0.152250
2.633333	1	-0.152250
2.650000	1	-0.152250
2.666667	1	-0.152625
2.683333	1	-0.152125
2.700000	1	-0.150875
2.716667	1	-0.150750
2.733333	1	-0.150375
2.750000	1	-0.149375
2.766667	1	-0.149250
2.783333	1	-0.148625
2.800000	1	-0.148500
2.816667	1	-0.147375
2.833333	1	-0.146375
2.850000	1	-0.145500
2.866667	1	-0.144750
2.883333	1	-0.144125
2.900000	1	-0.142500
2.916667	1	-0.142250
2.933333	1	-0.141000
2.950000	1	-0.140125
2.966667	1	-0.139000
2.983333	1	-0.137875
3.000000	1	-0.136750
3.016667	1	-0.135875
3.033333	1	-0.134250
3.050000	1	-0.133250
3.066667	1	-0.133000
3.083333	1	-0.131750
3.100000	1	-0.130500
3.116667	1	-0.129500
3.133333	1	-0.128500
3.150000	1	-0.127875
3.166667	1	-0.126375
3.183333	1	-0.124625
3.200000	1	-0.123125
3.216667	1	-0.122250
3.233333	1	-0.120875
3.250000	1	-0.120125
3.266667	1	-0.119125
3.283333	1	-0.118125
3.300000	1	-0.116750
3.316667	1	-0.116125
3.333333	1	-0.114500
3.350000	1	-0.113750
3.366667	1	-0.112750
3.383333	1	-0.111375
3.400000	1	-0.110625
3.416667	1	-0.109375
3.433333	1	-0.108250
3.450000	1	-0.106625
3.466667	1	-0.105250
3.483333	1	-0.104375
3.500000	1	-0.103625
3.516667	1	-0.102500
3.533333	1	-0.101625
3.550000	1	-0.100625
3.566667	1	-0.099625
3.583333	1	-0.098625
3.600000	1	-0.098000
3.616667	1	-0.097125
3.633333	1	-0.096375
3.650000	1	-0.095250
3.666667	1	-0.094625
3.683333	1	-0.093375
3.700000	1	-0.092625
3.716667	1	-0.092000
3.733333	1	-0.091125
3.750000	1	-0.090500
3.766667	1	-0.090500
3.783333	1	-0.089875
3.800000	1	-0.089125
3.816667	1	-0.089625
3.833333	1	-0.089500
3.850000	1	-0.090125
3.866667	1	-0.089875
3.883333	1	-0.089750
3.900000	1	-0.090125
3.916667	1	-0.090125
3.933333	1	-0.090500
3.950000	1	-0.091125
3.966667	1	-0.091750
3.983333	1	-0.092375
4.000000	1	-0.093375
4.016667	1	-0.093875
4.033333	1	-0.094375
4.050000	1	-0.095625
4.066667	1	-0.096000
4.083333	1	-0.096750
4.100000	1	-0.098125
4.116667	1	-0.098875
4.133333	1	-0.099500
4.150000	1	-0.100500
4.166667	1	-0.102000
4.183333	1	-0.103000
4.200000	1	-0.104375
4.216667	1	-0.105375
4.233333	1	-0.106500
4.250000	1	-0.107500
4.266667	1	-0.108750
4.283333	1	-0.109875
4.300000	1	-0.111875
4.316667	1	-0.112375
4.333333	1	-0.113625
4.350000	1	-0.114625
4.366667	1	-0.115750
4.383333	1	-0.116875
4.400000	1	-0.117625
4.416667	1	-0.118500
4.433333	1	-0.119250
4.450000	1	-0.120625
4.466667	1	-0.122000
4.483333	1	-0.123125
4.500000	1	-0.124375
4.516667	1	-0.125125
4.533333	1	-0.125750
4.550000	1	-0.126750
4.566667	1	-0.127000
4.583333	1	-0.128125
4.600000	1	-0.128750
4.616667	1	-0.129625
4.633333	1	-0.131125
4.650000	1	-0.132250
4.666667	1	-0.133125
4.683333	1	-0.134250
4.700000	1	-0.135375
4.716667	1	-0.135625
4.733333	1	-0.136125
4.750000	1	-0.136000
4.766667	1	-0.136750
4.783333	1	-0.137500
4.800000	1	-0.137500
4.816667	1	-0.138000
4.833333	1	-0.138625
4.850000	1	-0.139000
4.866667	1	-0.139000
4.883333	1	-0.139000
4.900000	1	-0.139000
4.916667	1	-0.139250
4.933333	1	-0.139625
4.950000	1	-0.139375
4.966667	1	-0.139125
4.983333	1	-0.139000
5.000000	1	-0.139000
5.016667	1	-0.138875
5.033333	1	-0.139125
5.050000	1	-0.139375
5.066667	1	-0.139500
5.083333	1	-0.139000
5.100000	1	-0.138625
5.116667	1	-0.137500
5.133333	1	-0.137000
5.150000	1	-0.136375
5.166667	1	-0.135625
5.183333	1	-0.134750
5.200000	1	-0.134125
5.216667	1	-0.133625
5.233333	1	-0.132625
5.250000	1	-0.131375
5.266667	1	-0.130500
5.283333	1	-0.129125
5.300000	1	-0.127750
5.316667	1	-0.126125
5.333333	1	-0.125500
5.350000	1	-0.124250
5.366667	1	-0.123250
5.383333	1	-0.121125
5.400000	1	-0.119625
5.416667	1	-0.117625
5.433333	1	-0.115875
5.450000	1	-0.114125
5.466667	1	-0.111750
5.483333	1	-0.109625
5.500000	1	-0.107625
5.516667	1	-0.105500
5.533333	1	-0.103375
5.550000	1	-0.101125
5.566667	1	-0.098875
5.583333	1	-0.096000
5.600000	1	-0.093375
5.616667	1	-0.090500
5.633333	1	-0.088375
5.650000	1	-0.086250
5.666667	1	-0.083875
5.683333	1	-0.081625
5.700000	1	-0.078750
5.716667	1	-0.076000
5.733333	1	-0.073500
5.750000	1	-0.070875
5.766667	1	-0.068250
5.783333	1	-0.065500
5.800000	1	-0.063500
5.816667	1	-0.061000
5.833333	1	-0.058375
5.850000	1	-0.057000
5.866667	1	-0.053750
5.883333	1	-0.051500
5.900000	1	-0.049750
5.916667	1	-0.047875
5.933333	1	-0.045750
5.950000	1	-0.043500
5.966667	1	-0.041000
5.983333	1	-0.039125
6.000000	1	-0.037625
6.016667	1	-0.035750
6.033333	1	-0.034500
6.050000	1	-0.033000
6.066667	1	-0.032000
6.083333	1	-0.030500
6.100000	1	-0.028625
6.116667	1	-0.027875
6.133333	1	-0.026750
6.150000	1	-0.026250
6.166667	1	-0.025875
6.183333	1	-0.026000
6.200000	1	-0.025500
6.216667	1	-0.024750
6.233333	1	-0.024750
6.250000	1	-0.024500
6.266667	1	-0.024750
6.283333	1	-0.024625
6.300000	1	-0.024625
6.316667	1	-0.024750
6.333333	1	-0.024750
6.350000	1	-0.024875
6.366667	1	-0.025875
6.383333	1	-0.026250
6.400000	1	-0.026625
6.416667	1	-0.027500
6.433333	1	-0.028000
6.450000	1	-0.029125
6.466667	1	-0.030625
6.483333	1	-0.031375
6.500000	1	-0.032375
6.516667	1	-0.033875
6.533333	1	-0.034625
6.550000	1	-0.036000
6.566667	1	-0.037125
6.583333	1	-0.038375
6.600000	1	-0.039250
6.616667	1	-0.040250
6.633333	1	-0.041750
6.650000	1	-0.043000
6.666667	1	-0.044750
6.683333	1	-0.045375
6.700000	1	-0.047250
6.716667	1	-0.048000
6.733333	1	-0.049250
6.750000	1	-0.050250
6.766667	1	-0.051250
6.783333	1	-0.051750
6.800000	1	-0.052500
6.816667	1	-0.053250
6.833333	1	-0.054875
6.850000	1	-0.055000
6.866667	1	-0.055375
6.883333	1	-0.056000
6.900000	1	-0.056250
6.916667	1	-0.056625
6.933333	1	-0.056500
6.950000	1	-0.056000
6.966667	1	-0.057000
6.983333	1	-0.057375
7.000000	1	-0.057250
7.016667	1	-0.057250
7.033333	1	-0.056500
7.050000	1	-0.056125
7.066667	1	-0.055500
7.083333	1	-0.054750
7.100000	1	-0.054500
7.116667	1	-0.053375
7.133333	1	-0.052375
7.150000	1	-0.051250
7.166667	1	-0.050250
7.183333	1	-0.049250
7.200000	1	-0.048125
7.216667	1	-0.046750
7.233333	1	-0.045750
7.250000	1	-0.044625
7.266667	1	-0.043125
7.283333	1	-0.042500
7.300000	1	-0.041250
7.316667	1	-0.040000
7.333333	1	-0.038750
7.350000	1	-0.037375
7.366667	1	-0.036125
7.383333	1	-0.034875
7.400000	1	-0.033250
7.416667	1	-0.032125
7.433333	1	-0.030750
7.450000	1	-0.030125
7.466667	1	-0.028625
7.483333	1	-0.027375
7.500000	1	-0.026250
7.516667	1	-0.024875
7.533333	1	-0.023750
7.550000	1	-0.022750
7.566667	1	-0.022875
7.583333	1	-0.022125
7.600000	1	-0.021500
7.616667	1	-0.021250
7.633333	1	-0.021500
7.650000	1	-0.020625
7.666667	1	-0.020250
7.683333	1	-0.020500
7.700000	1	-0.021250
7.716667	1	-0.021500
7.733333	1	-0.022000
7.750000	1	-0.022875
7.766667	1	-0.023750
7.783333	1	-0.024750
7.800000	1	-0.025750
7.816667	1	-0.027625
7.833333	1	-0.029000
7.850000	1	-0.030750
7.866667	1	-0.032750
7.883333	1	-0.034500
7.900000	1	-0.036875
7.916667	1	-0.039000
7.933333	1	-0.041875
7.950000	1	-0.044125
7.966667	1	-0.047250
7.983333	1	-0.051000
8.000000	1	-0.054125
8.016667	1	-0.057375
8.033333	1	-0.061000
8.050000	1	-0.063875
8.066667	1	-0.066875
8.083333	1	-0.070500
8.100000	1	-0.074250
8.116667	1	-0.077000
8.133333	1	-0.080375
8.150000	1	-0.084500
8.166667	1	-0.088875
8.183333	1	-0.092125
8.200000	1	-0.095875
8.216667	1	-0.099375
8.233333	1	-0.103500
8.250000	1	-0.107125
8.266667	1	-0.110750
8.283333	1	-0.114000
8.300000	1	-0.117000
8.316667	1	-0.120125
8.333333	1	-0.123875
8.350000	1	-0.126875
8.366667	1	-0.129625
8.383333	1	-0.132000
8.400000	1	-0.134500
8.416667	1	-0.136625
8.433333	1	-0.138500
8.450000	1	-0.141125
8.466667	1	-0.143125
8.483333	1	-0.145125
8.500000	1	-0.146750
8.516667	1	-0.147375
8.533333	1	-0.148250
8.550000	1	-0.148500
8.566667	1	-0.148750
8.583333	1	-0.148625
8.600000	1	-0.148750
8.616667	1	-0.148500
8.633333	1	-0.148125
8.650000	1	-0.147125
8.666667	1	-0.146750
8.683333	1	-0.145875
8.700000	1	-0.144750
8.716667	1	-0.143500
8.733333	1	-0.142500
8.750000	1	-0.140750
8.766667	1	-0.139375
8.783333	1	-0.138250
8.800000	1	-0.136125
8.816667	1	-0.133750
8.833333	1	-0.131125
8.850000	1	-0.129000
8.866667	1	-0.126875
8.883333	1	-0.124125
8.900000	1	-0.120875
8.916667	1	-0.118875
8.933333	1	-0.116625
8.950000	1	-0.114625
8.966667	1	-0.112000
8.983333	1	-0.109125
9.000000	1	-0.106625
9.016667	1	-0.104375
9.033333	1	-0.102375
9.050000	1	-0.099375
9.066667	1	-0.096375
9.083333	1	-0.093750
9.100000	1	-0.091250
9.116667	1	-0.088875
9.133333	1	-0.086000
9.150000	1	-0.083875
9.166667	1	-0.081750
9.183333	1	-0.079625
9.200000	1	-0.077375
9.216667	1	-0.074875
9.233333	1	-0.072375
9.250000	1	-0.069875
9.266667	1	-0.067250
9.283333	1	-0.064875
9.300000	1	-0.062000
9.316667	1	-0.059125
9.333333	1	-0.056125
9.350000	1	-0.053500
9.366667	1	-0.051000
9.383333	1	-0.047250
9.400000	1	-0.043250
9.416667	1	-0.040000
9.433333	1	-0.036125
9.450000	1	-0.031125
9.466667	1	-0.026500
9.483333	1	-0.021000
9.500000	1	-0.013625
9.516667	1	-0.006125
9.533333	1	0.003000
9.550000	1	0.013375
9.566667	1	0.025500
9.583333	1	0.039500
9.600000	1	0.055625
9.616667	1	0.073875
9.633333	1	0.095125
9.650000	1	0.119000
9.666667	1	0.145500
9.683333	1	0.175500
9.700000	1	0.208250
9.716667	1	0.245125
9.733333	1	0.286375
9.750000	1	0.332875
9.766667	1	0.383500
9.783333	1	0.436125
9.800000	1	0.483500
9.816667	1	0.514250
9.833333	1	0.516250
9.850000	1	0.481125
9.866667	1	0.414875
9.883333	1	0.343500
9.900000	1	0.308250
9.916667	1	0.365375
9.933333	1	0.573000
9.950000	1	0.985375
9.966667	1	1.648875
9.983333	1	2.600500
10.000000	1	3.874000
10.016667	1	5.494875
10.033333	1	7.484625
10.050000	1	9.856000
10.066667	1	12.619500
10.083333	1	15.777875
10.100000	1	19.325875
10.116667	1	23.247125
10.133333	1	27.513750
10.150000	1	32.088375
10.166667	1	36.926500
10.183333	1	41.974750
10.200000	1	47.180250
10.216667	1	52.484000
10.233333	1	57.828625
10.250000	1	63.148750
10.266667	1	68.380750
10.283333	1	73.446375
10.300000	1	78.255375
10.316667	1	82.699500
10.333333	1	86.659500
10.350000	1	90.013000
10.366667	1	92.643625
10.383333	1	94.453000
10.400000	1	95.371500
10.416667	1	95.352625
10.433333	1	94.378000
10.450000	1	92.458375
10.466667	1	89.623625
10.483333	1	85.924250
10.500000	1	81.429875
10.516667	1	76.229625
10.533333	1	70.428125
10.550000	1	64.156250
10.566667	1	57.584750
10.583333	1	50.927625
10.600000	1	44.439250
10.616667	1	38.381250
10.633333	1	32.965500
10.650000	1	28.309125
10.666667	1	24.424125
10.683333	1	21.255500
10.700000	1	18.708625
10.716667	1	16.679250
10.733333	1	15.069250
10.750000	1	13.793625
10.766667	1	12.781250
10.783333	1	11.972875
10.800000	1	11.320750
10.816667	1	10.787625
10.833333	1	10.343250
10.850000	1	9.964500
10.866667	1	9.632125
10.883333	1	9.330375
10.900000	1	9.048500
10.916667	1	8.775375
10.933333	1	8.502500
10.950000	1	8.225500
10.966667	1	7.938375
10.983333	1	7.639250
11.000000	1	7.325875
11.016667	1	7.001125
11.033333	1	6.666375
11.050000	1	6.327000
11.066667	1	5.987375
11.083333	1	5.654250
11.100000	1	5.334375
11.116667	1	5.033000
11.133333	1	4.755375
11.150000	1	4.504500
11.166667	1	4.281500
11.183333	1	4.087000
11.200000	1	3.918500
11.216667	1	3.775250
11.233333	1	3.652875
11.250000	1	3.550125
11.266667	1	3.465125
11.283333	1	3.395125
11.300000	1	3.338875
11.316667	1	3.294500
11.333333	1	3.261375
11.350000	1	3.237375
11.366667	1	3.221500
11.383333	1	3.212250
11.400000	1	3.207500
11.416667	1	3.205375
11.433333	1	3.203750
11.450000	1	3.200500
11.466667	1	3.193750
11.483333	1	3.180875
11.500000	1	3.161750
11.516667	1	3.135875
11.533333	1	3.102250
11.550000	1	3.061625
11.566667	1	3.015125
11.583333	1	2.963875
11.600000	1	2.909250
11.616667	1	2.852125
11.633333	1	2.793375
11.650000	1	2.734375
11.666667	1	2.674375
11.683333	1	2.616000
11.700000	1	2.558500
11.716667	1	2.502625
11.733333	1	2.449750
11.750000	1	2.399125
11.766667	1	2.351250
11.783333	1	2.307250
11.800000	1	2.266250
11.816667	1	2.227875
11.833333	1	2.193000
11.850000	1	2.160375
11.866667	1	2.129875
11.883333	1	2.100875
11.900000	1	2.074125
11.916667	1	2.047500
11.933333	1	2.021750
11.950000	1	1.996250
11.966667	1	1.970750
11.983333	1	1.944750
12.000000	1	1.918375
12.016667	1	1.892750
12.033333	1	1.868625
12.050000	1	1.846250
12.066667	1	1.827000
12.083333	1	1.812875
12.100000	1	1.805625
12.116667	1	1.806000
12.133333	1	1.815625
12.150000	1	1.837500
12.166667	1	1.872000
12.183333	1	1.920875
12.200000	1	1.985875
12.216667	1	2.069875
12.233333	1	2.175000
12.250000	1	2.303500
12.266667	1	2.458500
12.283333	1	2.643375
12.300000	1	2.860875
12.316667	1	3.111500
12.333333	1	3.397125
12.350000	1	3.717625
12.366667	1	4.072500
12.383333	1	4.461000
12.400000	1	4.881375
12.416667	1	5.331250
12.433333	1	5.808625
12.450000	1	6.311875
12.466667	1	6.840750
12.483333	1	7.394000
12.500000	1	7.968500
12.516667	1	8.562125
12.533333	1	9.172000
12.550000	1	9.792375
12.566667	1	10.418875
12.583333	1	11.045125
12.600000	1	11.666250
12.616667	1	12.274500
12.633333	1	12.863625
12.650000	1	13.426250
12.666667	1	13.958125
12.683333	1	14.451625
12.700000	1	14.902625
12.716667	1	15.306000
12.733333	1	15.658250
12.750000	1	15.957750
12.766667	1	16.203500
12.783333	1	16.395625
12.800000	1	16.536000
12.816667	1	16.626750
12.833333	1	16.672750
12.850000	1	16.677250
12.866667	1	16.645000
12.883333	1	16.580750
12.900000	1	16.487875
12.916667	1	16.371875
12.933333	1	16.234625
12.950000	1	16.078625
12.966667	1	15.904875
12.983333	1	15.713250
13.000000	1	15.504125
13.016667	1	15.279250
13.033333	1	15.039875
13.050000	1	14.788125
13.066667	1	14.525250
13.083333	1	14.253750
13.100000	1	13.976750
13.116667	1	13.695500
13.133333	1	13.413625
13.150000	1	13.133625
13.166667	1	12.856375
13.183333	1	12.585250
13.200000	1	12.320625
13.216667	1	12.064000
13.233333	1	11.816500
13.250000	1	11.577875
13.266667	1	11.347500
13.283333	1	11.124750
13.300000	1	10.908875
13.316667	1	10.699125
13.333333	1	10.495250
13.350000	1	10.295750
13.366667	1	10.100750
13.383333	1	9.909250
13.400000	1	9.720250
13.416667	1	9.532750
13.433333	1	9.345625
13.450000	1	9.157250
13.466667	1	8.965375
13.483333	1	8.767000
13.500000	1	8.560625
13.516667	1	8.343125
13.533333	1	8.112500
13.550000	1	7.867000
13.566667	1	7.604875
13.583333	1	7.325500
13.600000	1	7.029000
13.616667	1	6.716500
13.633333	1	6.387250
13.650000	1	6.045000
13.666667	1	5.694875
13.683333	1	5.346875
13.700000	1	5.015000
13.716667	1	4.712750
13.733333	1	4.452250
13.750000	1	4.234625
13.766667	1	4.059375
13.783333	1	3.919625
13.800000	1	3.808750
13.816667	1	3.718750
13.833333	1	3.646875
13.850000	1	3.588000
13.866667	1	3.539000
13.883333	1	3.497250
13.900000	1	3.461750
13.916667	1	3.430250
13.933333	1	3.402250
13.950000	1	3.375625
13.966667	1	3.350500
13.983333	1	3.325125
14.000000	1	3.299125
14.016667	1	3.272875
14.033333	1	3.246125
14.050000	1	3.219875
14.066667	1	3.194375
14.083333	1	3.171375
14.100000	1	3.151500
14.116667	1	3.137000
14.133333	1	3.130125
14.150000	1	3.132625
14.166667	1	3.145750
14.183333	1	3.171500
14.200000	1	3.212000
14.216667	1	3.266500
14.233333	1	3.336500
14.250000	1	3.422000
14.266667	1	3.521875
14.283333	1	3.636125
14.300000	1	3.762125
14.316667	1	3.900000
14.333333	1	4.047625
14.350000	1	4.203375
14.366667	1	4.364500
14.383333	1	4.528125
14.400000	1	4.693250
14.416667	1	4.856625
14.433333	1	5.017375
14.450000	1	5.172000
14.466667	1	5.319250
14.483333	1	5.458125
14.500000	1	5.588875
14.516667	1	5.714250
14.533333	1	5.837375
14.550000	1	5.962250
14.566667	1	6.094125
14.583333	1	6.240875
14.600000	1	6.407625
14.616667	1	6.600625
14.633333	1	6.825750
14.650000	1	7.085750
14.666667	1	7.381875
14.683333	1	7.714125
14.700000	1	8.079625
14.716667	1	8.474750
14.733333	1	8.894750
14.750000	1	9.337125
14.766667	1	9.798125
14.783333	1	10.275125
14.800000	1	10.768375
14.816667	1	11.278250
14.833333	1	11.804375
14.850000	1	12.347625
14.866667	1	12.905875
14.883333	1	13.475750
14.900000	1	14.049750
14.916667	1	14.618375
14.933333	1	15.173000
14.950000	1	15.699000
14.966667	1	16.184000
14.983333	1	16.615875
15.000000	1	16.982625
15.016667	1	17.275000
15.033333	1	17.483875
15.050000	1	17.602500
15.066667	1	17.625500
15.083333	1	17.547500
15.100000	1	17.367875
15.116667	1	17.087500
15.133333	1	16.711000
15.150000	1	16.242625
15.166667	1	15.690500
15.183333	1	15.064750
15.200000	1	14.376750
15.216667	1	13.638250
15.233333	1	12.862125
15.250000	1	12.060875
15.266667	1	11.246750
15.283333	1	10.430000
15.300000	1	9.621375
15.316667	1	8.831625
15.333333	1	8.067625
15.350000	1	7.339875
15.366667	1	6.662000
15.383333	1	6.044375
15.400000	1	5.493750
15.416667	1	5.012375
15.433333	1	4.595625
15.450000	1	4.236125
15.466667	1	3.928125
15.483333	1	3.665000
15.500000	1	3.439625
15.516667	1	3.248875
15.533333	1	3.088250
15.550000	1	2.954750
15.566667	1	2.846125
15.583333	1	2.759500
15.600000	1	2.694000
15.616667	1	2.647000
15.633333	1	2.616875
15.650000	1	2.601625
15.666667	1	2.599250
15.683333	1	2.608125
15.700000	1	2.626375
15.716667	1	2.651875
15.733333	1	2.683250
15.750000	1	2.718750
15.766667	1	2.757625
15.783333	1	2.798625
15.800000	1	2.840250
15.816667	1	2.882875
15.833333	1	2.926125
15.850000	1	2.970125
15.866667	1	3.014750
15.883333	1	3.060375
15.900000	1	3.107625
15.916667	1	3.155250
15.933333	1	3.203500
15.950000	1	3.252750
15.966667	1	3.301250
15.983333	1	3.349000
16.000000	1	3.394875
16.016667	1	3.437000
16.033333	1	3.473875
16.050000	1	3.505750
16.066667	1	3.531125
16.083333	1	3.549500
16.100000	1	3.560750
16.116667	1	3.564750
16.133333	1	3.561250
16.150000	1	3.550500
16.166667	1	3.532625
16.183333	1	3.508250
16.200000	1	3.476875
16.216667	1	3.439750
16.233333	1	3.396875
16.250000	1	3.347875
16.266667	1	3.293875
16.283333	1	3.235625
16.300000	1	3.173750
16.316667	1	3.109000
16.333333	1	3.041250
16.350000	1	2.971375
16.366667	1	2.899500
16.383333	1	2.827125
16.400000	1	2.753000
16.416667	1	2.677875
16.433333	1	2.601125
16.450000	1	2.523375
16.466667	1	2.444875
16.483333	1	2.366125
16.500000	1	2.286625
16.516667	1	2.206375
16.533333	1	2.127250
16.550000	1	2.048625
16.566667	1	1.973000
16.583333	1	1.899125
16.600000	1	1.829625
16.616667	1	1.763875
16.633333	1	1.702750
16.650000	1	1.646125
16.666667	1	1.594250
16.683333	1	1.547625
16.700000	1	1.506750
16.716667	1	1.470250
16.733333	1	1.438250
16.750000	1	1.411375
16.766667	1	1.388375
16.783333	1	1.368250
16.800000	1	1.350750
16.816667	1	1.336250
16.833333	1	1.324000
16.850000	1	1.313250
16.866667	1	1.303750
16.883333	1	1.295125
16.900000	1	1.286125
16.916667	1	1.276500
16.933333	1	1.267250
16.950000	1	1.257750
16.966667	1	1.247375
16.983333	1	1.237625
17.000000	1	1.227750
17.016667	1	1.216875
17.033333	1	1.205125
17.050000	1	1.194250
17.066667	1	1.183625
17.083333	1	1.172750
17.100000	1	1.161875
17.116667	1	1.151375
17.133333	1	1.142250
17.150000	1	1.132500
17.166667	1	1.123375
17.183333	1	1.114375
17.200000	1	1.106125
17.216667	1	1.098125
17.233333	1	1.090125
17.250000	1	1.082375
17.266667	1	1.075750
17.283333	1	1.068875
17.300000	1	1.062125
17.316667	1	1.055125
17.333333	1	1.048500
17.350000	1	1.042750
17.366667	1	1.037125
17.383333	1	1.031500
17.400000	1	1.026500
17.416667	1	1.021375
17.433333	1	1.016750
17.450000	1	1.013000
17.466667	1	1.010625
17.483333	1	1.008250
17.500000	1	1.006875
17.516667	1	1.007625
17.533333	1	1.008500
17.550000	1	1.012125
17.566667	1	1.016125
17.583333	1	1.022500
17.600000	1	1.030250
17.616667	1	1.039125
17.633333	1	1.049500
17.650000	1	1.062500
17.666667	1	1.077000
17.683333	1	1.092625
17.700000	1	1.109875
17.716667	1	1.128000
17.733333	1	1.147625
17.750000	1	1.167875
17.766667	1	1.189750
17.783333	1	1.211875
17.800000	1	1.235250
17.816667	1	1.259625
17.833333	1	1.284625
17.850000	1	1.310500
17.866667	1	1.335875
17.883333	1	1.361500
17.900000	1	1.386250
17.916667	1	1.410875
17.933333	1	1.434375
17.950000	1	1.456375
17.966667	1	1.476875
17.983333	1	1.495375
18.000000	1	1.513125
18.016667	1	1.528625
18.033333	1	1.541750
18.050000	1	1.553125
18.066667	1	1.561375
18.083333	1	1.567000
18.100000	1	1.571000
18.116667	1	1.572250
18.133333	1	1.571250
18.150000	1	1.567375
18.166667	1	1.561000
18.183333	1	1.552250
18.200000	1	1.541625
18.216667	1	1.529000
18.233333	1	1.513625
18.250000	1	1.496500
18.266667	1	1.477875
18.283333	1	1.457500
18.300000	1	1.435375
18.316667	1	1.412125
18.333333	1	1.388125
18.350000	1	1.363500
18.366667	1	1.338000
18.383333	1	1.312750
18.400000	1	1.287375
18.416667	1	1.261750
18.433333	1	1.236000
18.450000	1	1.210625
18.466667	1	1.185625
18.483333	1	1.160375
18.500000	1	1.136500
18.516667	1	1.113000
18.533333	1	1.088875
18.550000	1	1.067375
18.566667	1	1.045500
18.583333	1	1.023875
18.600000	1	1.004125
18.616667	1	0.984375
18.633333	1	0.965625
18.650000	1	0.947750
18.666667	1	0.930250
18.683333	1	0.913125
18.700000	1	0.896875
18.716667	1	0.881500
18.733333	1	0.866250
18.750000	1	0.852125
18.766667	1	0.838875
18.783333	1	0.826750
18.800000	1	0.815750
18.816667	1	0.806000
18.833333	1	0.797000
18.850000	1	0.789500
18.866667	1	0.783875
18.883333	1	0.779750
18.900000	1	0.777500
18.916667	1	0.777125
18.933333	1	0.778375
18.950000	1	0.781500
18.966667	1	0.787500
18.983333	1	0.794375
19.000000	1	0.803875
19.016667	1	0.815500
19.033333	1	0.828500
19.050000	1	0.843750
19.066667	1	0.860000
19.083333	1	0.878125
19.100000	1	0.897125
19.116667	1	0.917375
19.133333	1	0.938750
19.150000	1	0.962000
19.166667	1	0.985875
19.183333	1	1.011125
19.200000	1	1.037625
19.216667	1	1.065125
19.233333	1	1.093125
19.250000	1	1.121500
19.266667	1	1.150750
19.283333	1	1.179375
19.300000	1	1.208250
19.316667	1	1.236750
19.333333	1	1.264125
19.350000	1	1.290625
19.366667	1	1.316000
19.383333	1	1.339625
19.400000	1	1.361125
19.416667	1	1.381000
19.433333	1	1.397750
19.450000	1	1.412125
19.466667	1	1.423125
19.483333	1	1.431500
19.500000	1	1.436125
19.516667	1	1.437625
19.533333	1	1.435625
19.550000	1	1.430000
19.566667	1	1.419500
19.583333	1	1.406500
19.600000	1	1.389500
19.616667	1	1.369875
19.633333	1	1.348000
19.650000	1	1.323250
19.666667	1	1.296500
19.683333	1	1.268125
19.700000	1	1.237250
19.716667	1	1.206125
19.733333	1	1.175000
19.750000	1	1.142625
19.766667	1	1.112125
19.783333	1	1.081250
19.800000	1	1.051375
19.816667	1	1.023000
19.833333	1	0.996875
19.850000	1	0.972875
19.866667	1	0.951000
19.883333	1	0.932750
19.900000	1	0.916875
19.916667	1	0.904875
19.933333	1	0.896375
19.950000	1	0.891125
19.966667	1	0.890375
19.983333	1	0.894125
20.000000	1	0.902250
20.016667	1	0.914250
20.033333	1	0.932125
20.050000	1	0.955125
20.066667	1	0.984000
20.083333	1	1.018625
20.100000	1	1.059375
20.116667	1	1.106500
20.133333	1	1.160125
20.150000	1	1.219625
20.166667	1	1.285625
20.183333	1	1.356500
20.200000	1	1.432875
20.216667	1	1.512875
20.233333	1	1.596250
20.250000	1	1.681500
20.266667	1	1.767500
20.283333	1	1.853500
20.300000	1	1.940125
20.316667	1	2.026750
20.333333	1	2.113250
20.350000	1	2.200500
20.366667	1	2.287625
20.383333	1	2.378125
20.400000	1	2.469500
20.416667	1	2.564000
20.433333	1	2.663250
20.450000	1	2.765875
20.466667	1	2.872375
20.483333	1	2.981750
20.500000	1	3.093875
20.516667	1	3.207750
20.533333	1	3.323125
20.550000	1	3.438750
20.566667	1	3.553125
20.583333	1	3.665375
20.600000	1	3.775125
20.616667	1	3.880250
20.633333	1	3.978375
20.650000	1	4.069875
20.666667	1	4.152125
20.683333	1	4.223750
20.700000	1	4.283375
20.716667	1	4.329875
20.733333	1	4.362000
20.750000	1	4.378625
20.766667	1	4.378375
20.783333	1	4.360750
20.800000	1	4.325625
20.816667	1	4.273750
20.833333	1	4.206500
20.850000	1	4.123875
20.866667	1	4.028625
20.883333	1	3.922375
20.900000	1	3.807500
20.916667	1	3.687000
20.933333	1	3.563000
20.950000	1	3.437375
20.966667	1	3.313125
20.983333	1	3.191000
21.000000	1	3.073875
21.016667	1	2.961625
21.033333	1	2.855500
21.050000	1	2.757625
21.066667	1	2.665750
21.083333	1	2.580250
21.100000	1	2.500000
21.116667	1	2.426125
21.133333	1	2.355875
21.150000	1	2.289250
21.166667	1	2.225500
21.183333	1	2.162875
21.200000	1	2.101000
21.216667	1	2.038125
21.233333	1	1.974500
21.250000	1	1.909250
21.266667	1	1.841625
21.283333	1	1.771125
21.300000	1	1.697500
21.316667	1	1.621750
21.333333	1	1.544250
21.350000	1	1.464875
21.366667	1	1.383875
21.383333	1	1.302625
21.400000	1	1.220875
21.416667	1	1.140375
21.433333	1	1.062250
21.450000	1	0.985750
21.466667	1	0.913000
21.483333	1	0.844000
21.500000	1	0.779125
21.516667	1	0.718875
21.533333	1	0.663625
21.550000	1	0.612875
21.566667	1	0.567375
21.583333	1	0.526750
21.600000	1	0.491250
21.616667	1	0.460500
21.633333	1	0.435375
21.650000	1	0.413875
21.666667	1	0.397750
21.683333	1	0.385750
21.700000	1	0.376500
21.716667	1	0.370750
21.733333	1	0.369000
21.750000	1	0.370000
21.766667	1	0.373750
21.783333	1	0.380375
21.800000	1	0.388000
21.816667	1	0.398625
21.833333	1	0.410250
21.850000	1	0.424375
21.866667	1	0.439500
21.883333	1	0.456500
21.900000	1	0.475000
21.916667	1	0.495250
21.933333	1	0.516625
21.950000	1	0.539500
21.966667	1	0.563250
21.983333	1	0.588250
22.000000	1	0.613750
22.016667	1	0.640375
22.033333	1	0.668000
22.050000	1	0.695375
22.066667	1	0.723125
22.083333	1	0.750000
22.100000	1	0.776875
22.116667	1	0.802750
22.133333	1	0.827125
22.150000	1	0.850375
22.166667	1	0.871000
22.183333	1	0.889500
22.200000	1	0.905750
22.216667	1	0.918375
22.233333	1	0.928500
22.250000	1	0.935000
22.266667	1	0.937125
22.283333	1	0.935250
22.300000	1	0.930000
22.316667	1	0.920000
22.333333	1	0.906625
22.350000	1	0.889375
22.366667	1	0.868125
22.383333	1	0.843375
22.400000	1	0.815625
22.416667	1	0.785625
22.433333	1	0.753500
22.450000	1	0.720125
22.466667	1	0.685125
22.483333	1	0.650375
22.500000	1	0.615375
22.516667	1	0.581250
22.533333	1	0.547625
22.550000	1	0.515750
22.566667	1	0.485125
22.583333	1	0.456125
22.600000	1	0.430125
22.616667	1	0.406250
22.633333	1	0.384250
22.650000	1	0.364375
22.666667	1	0.347125
22.683333	1	0.331750
22.700000	1	0.318500
22.716667	1	0.307000
22.733333	1	0.297250
22.750000	1	0.288875
22.766667	1	0.282250
22.783333	1	0.277000
22.800000	1	0.272625
22.816667	1	0.269125
22.833333	1	0.266250
22.850000	1	0.264250
22.866667	1	0.261125
22.883333	1	0.259000
22.900000	1	0.257125
22.916667	1	0.254875
22.933333	1	0.252375
22.950000	1	0.249875
22.966667	1	0.246750
22.983333	1	0.242875
23.000000	1	0.239625
23.016667	1	0.234875
23.033333	1	0.230000
23.050000	1	0.225125
23.066667	1	0.219375
23.083333	1	0.213000
23.100000	1	0.206250
23.116667	1	0.198625
23.133333	1	0.191000
23.150000	1	0.182000
23.166667	1	0.172750
23.183333	1	0.163500
23.200000	1	0.154250
23.216667	1	0.144750
23.233333	1	0.134125
23.250000	1	0.124125
23.266667	1	0.114125
23.283333	1	0.104000
23.300000	1	0.095000
23.316667	1	0.085750
23.333333	1	0.076375
23.350000	1	0.068000
23.366667	1	0.060500
23.383333	1	0.053250
23.400000	1	0.047125
23.416667	1	0.042375
23.433333	1	0.039000
23.450000	1	0.036125
23.466667	1	0.036250
23.483333	1	0.038250
23.500000	1	0.041625
23.516667	1	0.047375
23.533333	1	0.055375
23.550000	1	0.066250
23.566667	1	0.080000
23.583333	1	0.095375
23.600000	1	0.112875
23.616667	1	0.132375
23.633333	1	0.154250
23.650000	1	0.177750
23.666667	1	0.203250
23.683333	1	0.230875
23.700000	1	0.259750
23.716667	1	0.289500
23.733333	1	0.321000
23.750000	1	0.354125
23.766667	1	0.388250
23.783333	1	0.423875
23.800000	1	0.461375
23.816667	1	0.499625
23.833333	1	0.539125
23.850000	1	0.580375
23.866667	1	0.622750
23.883333	1	0.666875
23.900000	1	0.711500
23.916667	1	0.756875
23.933333	1	0.802875
23.950000	1	0.849875
23.966667	1	0.896125
23.983333	1	0.943250
24.000000	1	0.989500
24.016667	1	1.035000
24.033333	1	1.079000
24.050000	1	1.120500
24.066667	1	1.159625
24.083333	1	1.196375
24.100000	1	1.230000
24.116667	1	1.259250
24.133333	1	1.284750
24.150000	1	1.305750
24.166667	1	1.322125
24.183333	1	1.333375
24.200000	1	1.338375
24.216667	1	1.337750
24.233333	1	1.331125
24.250000	1	1.319625
24.266667	1	1.301375
24.283333	1	1.278000
24.300000	1	1.249500
24.316667	1	1.217125
24.333333	1	1.179625
24.350000	1	1.137875
24.366667	1	1.093125
24.383333	1	1.046000
24.400000	1	0.997000
24.416667	1	0.946750
24.433333	1	0.896750
24.450000	1	0.847250
24.466667	1	0.799000
24.483333	1	0.752250
24.500000	1	0.707125
24.516667	1	0.664625
24.533333	1	0.624875
24.550000	1	0.589125
24.566667	1	0.555625
24.583333	1	0.525125
24.600000	1	0.498250
24.616667	1	0.474375
24.633333	1	0.453625
24.650000	1	0.436125
24.666667	1	0.421000
24.683333	1	0.407875
24.700000	1	0.396875
24.716667	1	0.387625
24.733333	1	0.379625
24.750000	1	0.373250
24.766667	1	0.366875
24.783333	1	0.361875
24.800000	1	0.356250
24.816667	1	0.351500
24.833333	1	0.346125
24.850000	1	0.340125
24.866667	1	0.333250
24.883333	1	0.325000
24.900000	1	0.317000
24.916667	1	0.307375
24.933333	1	0.296250
24.950000	1	0.284250
24.966667	1	0.271375
24.983333	1	0.257500
25.000000	1	0.242750
25.016667	1	0.226500
25.033333	1	0.209125
25.050000	1	0.190750
25.066667	1	0.171875
25.083333	1	0.152500
25.100000	1	0.132375
25.116667	1	0.112375
25.133333	1	0.092500
25.150000	1	0.072500
25.166667	1	0.053000
25.183333	1	0.034375
25.200000	1	0.015875
25.216667	1	-0.002125
25.233333	1	-0.019125
25.250000	1	-0.034750
25.266667	1	-0.050500
25.283333	1	-0.064625
25.300000	1	-0.077750
25.316667	1	-0.089500
25.333333	1	-0.100375
25.350000	1	-0.109625
25.366667	1	-0.117875
25.383333	1	-0.125000
25.400000	1	-0.131125
25.416667	1	-0.135625
25.433333	1	-0.139250
25.450000	1	-0.142000
25.466667	1	-0.144250
25.483333	1	-0.145000
25.500000	1	-0.145000
25.516667	1	-0.144875
25.533333	1	-0.143875
25.550000	1	-0.141875
25.566667	1	-0.139000
25.583333	1	-0.136000
25.600000	1	-0.132125
25.616667	1	-0.128250
25.633333	1	-0.124375
25.650000	1	-0.119375
25.666667	1	-0.114750
25.683333	1	-0.109875
25.700000	1	-0.105125
25.716667	1	-0.100125
25.733333	1	-0.095375
25.750000	1	-0.090500
25.766667	1	-0.085250
25.783333	1	-0.080750
25.800000	1	-0.076875
25.816667	1	-0.073000
25.833333	1	-0.069625
25.850000	1	-0.065875
25.866667	1	-0.062250
25.883333	1	-0.059500
25.900000	1	-0.056625
25.916667	1	-0.054875
25.933333	1	-0.053375
25.950000	1	-0.052375
25.966667	1	-0.051750
25.983333	1	-0.050125
26.000000	1	-0.049000
26.016667	1	-0.048125
26.033333	1	-0.048375
26.050000	1	-0.047875
26.066667	1	-0.047875
26.083333	1	-0.048000
26.100000	1	-0.048750
26.116667	1	-0.048375
26.133333	1	-0.048750
26.150000	1	-0.048625
26.166667	1	-0.048500
26.183333	1	-0.047625
26.200000	1	-0.047375
26.216667	1	-0.046750
26.233333	1	-0.045625
26.250000	1	-0.045000
26.266667	1	-0.043375
26.283333	1	-0.041875
26.300000	1	-0.040375
26.316667	1	-0.038375
26.333333	1	-0.036625
26.350000	1	-0.034875
26.366667	1	-0.032875
26.383333	1	-0.031000
26.400000	1	-0.028375
26.416667	1	-0.026125
26.433333	1	-0.024250
26.450000	1	-0.022125
26.466667	1	-0.020625
26.483333	1	-0.018750
26.500000	1	-0.017375
26.516667	1	-0.015250
26.533333	1	-0.014250
26.550000	1	-0.013125
26.566667	1	-0.011875
26.583333	1	-0.010625
26.600000	1	-0.009375
26.616667	1	-0.008750
26.633333	1	-0.008750
26.650000	1	-0.008625
26.666667	1	-0.009750
26.683333	1	-0.010125
26.700000	1	-0.011500
26.716667	1	-0.013125
26.733333	1	-0.015250
26.750000	1	-0.017125
26.766667	1	-0.019750
26.783333	1	-0.022625
26.800000	1	-0.026125
26.816667	1	-0.029750
26.833333	1	-0.033875
26.850000	1	-0.038750
26.866667	1	-0.044125
26.883333	1	-0.050125
26.900000	1	-0.055875
26.916667	1	-0.062750
26.933333	1	-0.069500
26.950000	1	-0.076875
26.966667	1	-0.083875
26.983333	1	-0.092125
27.000000	1	-0.100500
27.016667	1	-0.109250
27.033333	1	-0.118625
27.050000	1	-0.128000
27.066667	1	-0.138000
27.083333	1	-0.147875
27.100000	1	-0.158000
27.116667	1	-0.167875
27.133333	1	-0.177750
27.150000	1	-0.187125
27.166667	1	-0.196875
27.183333	1	-0.206750
27.200000	1	-0.217500
27.216667	1	-0.227500
27.233333	1	-0.236500
27.250000	1	-0.245750
27.266667	1	-0.254375
27.283333	1	-0.262250
27.300000	1	-0.268875
27.316667	1	-0.274750
27.333333	1	-0.280375
27.350000	1	-0.285500
27.366667	1	-0.289750
27.383333	1	-0.292125
27.400000	1	-0.293125
27.416667	1	-0.293000
27.433333	1	-0.291500
27.450000	1	-0.287750
27.466667	1	-0.282250
27.483333	1	-0.274500
27.500000	1	-0.264500
27.516667	1	-0.251250
27.533333	1	-0.235000
27.550000	1	-0.215625
27.566667	1	-0.193750
27.583333	1	-0.168125
27.600000	1	-0.139125
27.616667	1	-0.107625
27.633333	1	-0.072125
27.650000	1	-0.033250
27.666667	1	0.008375
27.683333	1	0.052250
27.700000	1	0.100250
27.716667	1	0.150750
27.733333	1	0.203500
27.750000	1	0.258875
27.766667	1	0.317000
27.783333	1	0.376750
27.800000	1	0.437875
27.816667	1	0.501500
27.833333	1	0.566250
27.850000	1	0.632125
27.866667	1	0.700250
27.883333	1	0.770000
27.900000	1	0.840375
27.916667	1	0.912375
27.933333	1	0.986000
27.950000	1	1.061000
27.966667	1	1.137000
27.983333	1	1.214125
28.000000	1	1.291375
28.016667	1	1.370125
28.033333	1	1.449625
28.050000	1	1.528750
28.066667	1	1.607750
28.083333	1	1.686625
28.100000	1	1.764875
28.116667	1	1.841375
28.133333	1	1.917125
28.150000	1	1.990875
28.166667	1	2.061375
28.183333	1	2.129125
28.200000	1	2.193500
28.216667	1	2.253375
28.233333	1	2.309500
28.250000	1	2.361375
28.266667	1	2.407750
28.283333	1	2.449000
28.300000	1	2.483875
28.316667	1	2.512750
28.333333	1	2.535625
28.350000	1	2.550750
28.366667	1	2.558875
28.383333	1	2.559000
28.400000	1	2.550750
28.416667	1	2.534000
28.433333	1	2.509125
28.450000	1	2.475250
28.466667	1	2.432000
28.483333	1	2.380375
28.500000	1	2.319250
28.516667	1	2.250500
28.533333	1	2.173125
28.550000	1	2.088125
28.566667	1	1.995875
28.583333	1	1.897875
28.600000	1	1.794125
28.616667	1	1.685250
28.633333	1	1.572625
28.650000	1	1.458125
28.666667	1	1.341000
28.683333	1	1.223875
28.700000	1	1.107125
28.716667	1	0.992000
28.733333	1	0.878875
28.750000	1	0.769125
28.766667	1	0.663875
28.783333	1	0.564250
28.800000	1	0.469125
28.816667	1	0.379500
28.833333	1	0.295500
28.850000	1	0.217375
28.866667	1	0.145375
28.883333	1	0.079250
28.900000	1	0.018875
28.916667	1	-0.034750
28.933333	1	-0.083875
28.950000	1	-0.127875
28.966667	1	-0.167125
28.983333	1	-0.201750
29.000000	1	-0.231875
29.016667	1	-0.259125
29.033333	1	-0.282625
29.050000	1	-0.303125
29.066667	1	-0.320375
29.083333	1	-0.335625
29.100000	1	-0.347875
29.116667	1	-0.358125
29.133333	1	-0.366375
29.150000	1	-0.373500
29.166667	1	-0.378500
29.183333	1	-0.382625
29.200000	1	-0.384750
29.216667	1	-0.386500
29.233333	1	-0.386625
29.250000	1	-0.386500
29.266667	1	-0.385000
29.283333	1	-0.382625
29.300000	1	-0.379500
29.316667	1	-0.375750
29.333333	1	-0.371500
29.350000	1	-0.367000
29.366667	1	-0.361375
29.383333	1	-0.354875
29.400000	1	-0.348875
29.416667	1	-0.342500
29.433333	1	-0.334750
29.450000	1	-0.326625
29.466667	1	-0.318875
29.483333	1	-0.310250
29.500000	1	-0.301625
29.516667	1	-0.292500
29.533333	1	-0.283500
29.550000	1	-0.274250
29.566667	1	-0.264750
29.583333	1	-0.255875
29.600000	1	-0.246250
29.616667	1	-0.236250
29.633333	1	-0.226625
29.650000	1	-0.216500
29.666667	1	-0.206875
29.683333	1	-0.197750
29.700000	1	-0.188250
29.716667	1	-0.179125
29.733333	1	-0.170125
29.750000	1	-0.160750
29.766667	1	-0.151375
29.783333	1	-0.142625
29.800000	1	-0.134000
29.816667	1	-0.125250
29.833333	1	-0.118125
29.850000	1	-0.111000
29.866667	1	-0.104625
29.883333	1	-0.097875
29.900000	1	-0.091250
29.916667	1	-0.085000
29.933333	1	-0.079625
29.950000	1	-0.074500
29.966667	1	-0.069875
29.983333	1	-0.065500
30.000000	1	-0.061625
30.016667	1	-0.058250
30.033333	1	-0.055625
30.050000	1	-0.052875
30.066667	1	-0.050250
30.083333	1	-0.048375
30.100000	1	-0.047000
30.116667	1	-0.046375
30.133333	1	-0.046500
30.150000	1	-0.046625
30.166667	1	-0.047000
30.183333	1	-0.048500
30.200000	1	-0.049750
30.216667	1	-0.051875
30.233333	1	-0.054750
30.250000	1	-0.057625
30.266667	1	-0.059750
30.283333	1	-0.063250
30.300000	1	-0.066500
30.316667	1	-0.069625
30.333333	1	-0.073250
30.350000	1	-0.076000
30.366667	1	-0.079750
30.383333	1	-0.083125
30.400000	1	-0.086625
30.416667	1	-0.090000
30.433333	1	-0.092875
30.450000	1	-0.094750
30.466667	1	-0.096250
30.483333	1	-0.097375
30.500000	1	-0.099125
30.516667	1	-0.099500
30.533333	1	-0.099250
30.550000	1	-0.098875
30.566667	1	-0.098000
30.583333	1	-0.096875
30.600000	1	-0.094750
30.616667	1	-0.091750
30.633333	1	-0.088375
30.650000	1	-0.084125
30.666667	1	-0.079000
30.683333	1	-0.073750
30.700000	1	-0.067625
30.716667	1	-0.061500
30.733333	1	-0.054750
30.750000	1	-0.047375
30.766667	1	-0.039625
30.783333	1	-0.031375
30.800000	1	-0.022875
30.816667	1	-0.013750
30.833333	1	-0.004750
30.850000	1	0.005625
30.866667	1	0.016500
30.883333	1	0.026875
30.900000	1	0.038000
30.916667	1	0.049125
30.933333	1	0.060500
30.950000	1	0.071750
30.966667	1	0.083500
30.983333	1	0.094625
31.000000	1	0.106875
31.016667	1	0.119750
31.033333	1	0.131250
31.050000	1	0.142375
31.066667	1	0.153875
31.083333	1	0.165125
31.100000	1	0.175750
31.116667	1	0.185625
31.133333	1	0.195375
31.150000	1	0.204375
31.166667	1	0.213125
31.183333	1	0.219875
31.200000	1	0.226250
31.216667	1	0.231375
31.233333	1	0.236000
31.250000	1	0.239250
31.266667	1	0.241875
31.283333	1	0.242750
31.300000	1	0.242125
31.316667	1	0.239875
31.333333	1	0.236750
31.350000	1	0.232125
31.366667	1	0.226750
31.383333	1	0.219375
31.400000	1	0.210875
31.416667	1	0.201000
31.433333	1	0.189750
31.450000	1	0.178250
31.466667	1	0.165375
31.483333	1	0.151750
31.500000	1	0.138125
31.516667	1	0.123875
31.533333	1	0.108875
31.550000	1	0.093250
31.566667	1	0.077375
31.583333	1	0.062250
31.600000	1	0.047250
31.616667	1	0.032125
31.633333	1	0.017750
31.650000	1	0.003125
31.666667	1	-0.010000
31.683333	1	-0.023625
31.700000	1	-0.036000
31.716667	1	-0.047625
31.733333	1	-0.057875
31.750000	1	-0.067500
31.766667	1	-0.076750
31.783333	1	-0.085125
31.800000	1	-0.092375
31.816667	1	-0.098625
31.833333	1	-0.104125
31.850000	1	-0.108125
31.866667	1	-0.111125
31.883333	1	-0.113875
31.900000	1	-0.115875
31.916667	1	-0.116750
31.933333	1	-0.117250
31.950000	1	-0.116750
31.966667	1	-0.115125
31.983333	1	-0.113875
32.000000	1	-0.111875
32.016667	1	-0.109375
32.033333	1	-0.105750
32.050000	1	-0.102125
32.066667	1	-0.098125
32.083333	1	-0.093000
32.100000	1	-0.088125
32.116667	1	-0.082250
32.133333	1	-0.076500
32.150000	1	-0.070375
32.166667	1	-0.064750
32.183333	1	-0.058625
32.200000	1	-0.052875
32.216667	1	-0.046750
32.233333	1	-0.040875
32.250000	1	-0.035375
32.266667	1	-0.029125
32.283333	1	-0.023250
32.300000	1	-0.017500
32.316667	1	-0.012250
32.333333	1	-0.006750
32.350000	1	-0.001875
32.366667	1	0.002750
32.383333	1	0.006750
32.400000	1	0.010000
32.416667	1	0.013375
32.433333	1	0.016000
32.450000	1	0.018375
32.466667	1	0.019625
32.483333	1	0.020250
32.500000	1	0.020750
32.516667	1	0.020125
32.533333	1	0.019625
32.550000	1	0.018125
32.566667	1	0.016125
32.583333	1	0.012625
32.600000	1	0.009125
32.616667	1	0.005125
32.633333	1	0.000375
32.650000	1	-0.005000
32.666667	1	-0.011750
32.683333	1	-0.019000
32.700000	1	-0.026750
32.716667	1	-0.035375
32.733333	1	-0.044625
32.750000	1	-0.055000
32.766667	1	-0.065875
32.783333	1	-0.077625
32.800000	1	-0.090125
32.816667	1	-0.102500
32.833333	1	-0.115750
32.850000	1	-0.128625
32.866667	1	-0.142000
32.883333	1	-0.155500
32.900000	1	-0.170000
32.916667	1	-0.184750
32.933333	1	-0.199625
32.950000	1	-0.214750
32.966667	1	-0.229125
32.983333	1	-0.243875
33.000000	1	-0.258750
33.016667	1	-0.274125
33.033333	1	-0.289125
33.050000	1	-0.303750
33.066667	1	-0.317875
33.083333	1	-0.332000
33.100000	1	-0.346000
33.116667	1	-0.360375
33.133333	1	-0.374375
33.150000	1	-0.387500
33.166667	1	-0.400625
33.183333	1	-0.414000
33.200000	1	-0.426125
33.216667	1	-0.437875
33.233333	1	-0.448875
33.250000	1	-0.460000
33.266667	1	-0.469875
33.283333	1	-0.480000
33.300000	1	-0.489375
33.316667	1	-0.499000
33.333333	1	-0.508500
33.350000	1	-0.517125
33.366667	1	-0.525250
33.383333	1	-0.533625
33.400000	1	-0.540875
33.416667	1	-0.548125
33.433333	1	-0.555125
33.450000	1	-0.561000
33.466667	1	-0.566750
33.483333	1	-0.572250
33.500000	1	-0.577500
33.516667	1	-0.582500
33.533333	1	-0.587625
33.550000	1	-0.591500
33.566667	1	-0.595625
33.583333	1	-0.599750
33.600000	1	-0.603625
33.616667	1	-0.606375
33.633333	1	-0.609625
33.650000	1	-0.612750
33.666667	1	-0.615000
33.683333	1	-0.617625
33.700000	1	-0.620125
33.716667	1	-0.622250
33.733333	1	-0.623500
33.750000	1	-0.625125
33.766667	1	-0.626625
33.783333	1	-0.628250
33.800000	1	-0.630000
33.816667	1	-0.631125
33.833333	1	-0.631500
33.850000	1	-0.632375
33.866667	1	-0.633000
33.883333	1	-0.634000
33.900000	1	-0.634750
33.916667	1	-0.634750
33.933333	1	-0.634375
33.950000	1	-0.633750
33.966667	1	-0.633375
33.983333	1	-0.632750
34.000000	1	-0.632625
34.016667	1	-0.631875
34.033333	1	-0.631125
34.050000	1	-0.629750
34.066667	1	-0.628625
34.083333	1	-0.627125
34.100000	1	-0.625875
34.116667	1	-0.624125
34.133333	1	-0.621875
34.150000	1	-0.620000
34.166667	1	-0.618125
34.183333	1	-0.616125
34.200000	1	-0.613625
34.216667	1	-0.611500
34.233333	1	-0.609125
34.250000	1	-0.606375
34.266667	1	-0.603750
34.283333	1	-0.601500
34.300000	1	-0.599375
34.316667	1	-0.596875
34.333333	1	-0.594500
34.350000	1	-0.591875
34.366667	1	-0.589500
34.383333	1	-0.586625
34.400000	1	-0.584125
34.416667	1	-0.581875
34.433333	1	-0.579750
34.450000	1	-0.577375
34.466667	1	-0.574750
34.483333	1	-0.572750
34.500000	1	-0.570250
34.516667	1	-0.568500
34.533333	1	-0.566375
34.550000	1	-0.564500
34.566667	1	-0.563125
34.583333	1	-0.562125
34.600000	1	-0.560875
34.616667	1	-0.559500
34.633333	1	-0.558000
34.650000	1	-0.557000
34.666667	1	-0.555875
34.683333	1	-0.555750
34.700000	1	-0.555250
34.716667	1	-0.555000
34.733333	1	-0.554125
34.750000	1	-0.553750
34.766667	1	-0.553500
34.783333	1	-0.553500
34.800000	1	-0.553750
34.816667	1	-0.553750
34.833333	1	-0.554250
34.850000	1	-0.554375
34.866667	1	-0.555250
34.883333	1	-0.556000
34.900000	1	-0.556750
34.916667	1	-0.557625
34.933333	1	-0.558250
34.950000	1	-0.558250
34.966667	1	-0.559625
34.983333	1	-0.560875
35.000000	1	-0.561875
35.016667	1	-0.562625
35.033333	1	-0.564375
35.050000	1	-0.565750
35.066667	1	-0.567250
35.083333	1	-0.569625
35.100000	1	-0.571125
35.116667	1	-0.572375
35.133333	1	-0.573375
35.150000	1	-0.575125
35.166667	1	-0.577000
35.183333	1	-0.579000
35.200000	1	-0.580125
35.216667	1	-0.581375
35.233333	1	-0.582875
35.250000	1	-0.584000
35.266667	1	-0.585875
35.283333	1	-0.586875
35.300000	1	-0.587875
35.316667	1	-0.589250
35.333333	1	-0.590625
35.350000	1	-0.591125
35.366667	1	-0.591250
35.383333	1	-0.592125
35.400000	1	-0.592375
35.416667	1	-0.593375
35.433333	1	-0.593000
35.450000	1	-0.593250
35.466667	1	-0.593375
35.483333	1	-0.593000
35.500000	1	-0.592625
35.516667	1	-0.591750
35.533333	1	-0.591375
35.550000	1	-0.591250
35.566667	1	-0.589750
35.583333	1	-0.588750
35.600000	1	-0.587375
35.616667	1	-0.585625
35.633333	1	-0.583375
35.650000	1	-0.581625
35.666667	1	-0.579500
35.683333	1	-0.577250
35.700000	1	-0.575250
35.716667	1	-0.572375
35.733333	1	-0.569500
35.750000	1	-0.566625
35.766667	1	-0.563625
35.783333	1	-0.561000
35.800000	1	-0.557625
35.816667	1	-0.554875
35.833333	1	-0.551625
35.850000	1	-0.548125
35.866667	1	-0.545000
35.883333	1	-0.541375
35.900000	1	-0.538000
35.916667	1	-0.535250
35.933333	1	-0.531750
35.950000	1	-0.529125
35.966667	1	-0.525875
35.983333	1	-0.522625
36.000000	1	-0.519500
36.016667	1	-0.516375
36.033333	1	-0.513750
36.050000	1	-0.510750
36.066667	1	-0.507750
36.083333	1	-0.505000
36.100000	1	-0.502250
36.116667	1	-0.499125
36.133333	1	-0.496625
36.150000	1	-0.494125
36.166667	1	-0.491375
36.183333	1	-0.488875
36.200000	1	-0.486125
36.216667	1	-0.483500
36.233333	1	-0.481000
36.250000	1	-0.478750
36.266667	1	-0.476875
36.283333	1	-0.474375
36.300000	1	-0.471625
36.316667	1	-0.469750
36.333333	1	-0.467750
36.350000	1	-0.465125
36.366667	1	-0.463250
36.383333	1	-0.460500
36.400000	1	-0.458375
36.416667	1	-0.455750
36.433333	1	-0.453875
36.450000	1	-0.451625
36.466667	1	-0.449500
36.483333	1	-0.447125
36.500000	1	-0.445125
36.516667	1	-0.443625
36.533333	1	-0.442375
36.550000	1	-0.440750
36.566667	1	-0.439250
36.583333	1	-0.438625
36.600000	1	-0.437375
36.616667	1	-0.436375
36.633333	1	-0.435625
36.650000	1	-0.434625
36.666667	1	-0.433250
36.683333	1	-0.432625
36.700000	1	-0.432375
36.716667	1	-0.432375
36.733333	1	-0.433125
36.750000	1	-0.434375
36.766667	1	-0.434625
36.783333	1	-0.435000
36.800000	1	-0.436125
36.816667	1	-0.437500
36.833333	1	-0.438625
36.850000	1	-0.440375
36.866667	1	-0.442125
36.883333	1	-0.444000
36.900000	1	-0.446250
36.916667	1	-0.448875
36.933333	1	-0.451250
36.950000	1	-0.454125
36.966667	1	-0.456875
36.983333	1	-0.460125
37.000000	1	-0.463250
37.016667	1	-0.466000
37.033333	1	-0.469875
37.050000	1	-0.473000
37.066667	1	-0.477375
37.083333	1	-0.481375
37.100000	1	-0.485750
37.116667	1	-0.489375
37.133333	1	-0.493250
37.150000	1	-0.497000
37.166667	1	-0.501250
37.183333	1	-0.505500
37.200000	1	-0.510000
37.216667	1	-0.514000
37.233333	1	-0.518250
37.250000	1	-0.523250
37.266667	1	-0.528000
37.283333	1	-0.532000
37.300000	1	-0.536375
37.316667	1	-0.541375
37.333333	1	-0.546125
37.350000	1	-0.550375
37.366667	1	-0.555000
37.383333	1	-0.559875
37.400000	1	-0.564625
37.416667	1	-0.569625
37.433333	1	-0.574500
37.450000	1	-0.579375
37.466667	1	-0.584000
37.483333	1	-0.588750
37.500000	1	-0.594000
37.516667	1	-0.599000
37.533333	1	-0.602875
37.550000	1	-0.607500
37.566667	1	-0.612250
37.583333	1	-0.617000
37.600000	1	-0.622250
37.616667	1	-0.626375
37.633333	1	-0.630500
37.650000	1	-0.634375
37.666667	1	-0.638875
37.683333	1	-0.643125
37.700000	1	-0.646750
37.716667	1	-0.650875
37.733333	1	-0.654625
37.750000	1	-0.658000
37.766667	1	-0.662250
37.783333	1	-0.664625
37.800000	1	-0.667750
37.816667	1	-0.671375
37.833333	1	-0.674125
37.850000	1	-0.676125
37.866667	1	-0.678625
37.883333	1	-0.681125
37.900000	1	-0.683750
37.916667	1	-0.686250
37.933333	1	-0.687500
37.950000	1	-0.688875
37.966667	1	-0.691375
37.983333	1	-0.693000
38.000000	1	-0.694625
38.016667	1	-0.695750
38.033333	1	-0.696875
38.050000	1	-0.699125
38.066667	1	-0.700500
38.083333	1	-0.701500
38.100000	1	-0.702500
38.116667	1	-0.702750
38.133333	1	-0.704000
38.150000	1	-0.704750
38.166667	1	-0.705750
38.183333	1	-0.706750
38.200000	1	-0.708125
38.216667	1	-0.708875
38.233333	1	-0.710000
38.250000	1	-0.711375
38.266667	1	-0.711750
38.283333	1	-0.712000
38.300000	1	-0.713125
38.316667	1	-0.714250
38.333333	1	-0.715125
38.350000	1	-0.716000
38.366667	1	-0.716875
38.383333	1	-0.717000
38.400000	1	-0.717375
38.416667	1	-0.717875
38.433333	1	-0.718500
38.450000	1	-0.718625
38.466667	1	-0.719000
38.483333	1	-0.719875
38.500000	1	-0.720250
38.516667	1	-0.719750
38.533333	1	-0.720375
38.550000	1	-0.720375
38.566667	1	-0.720375
38.583333	1	-0.720375
38.600000	1	-0.720750
38.616667	1	-0.721125
38.633333	1	-0.721500
38.650000	1	-0.721500
38.666667	1	-0.721375
38.683333	1	-0.721625
38.700000	1	-0.721500
38.716667	1	-0.721500
38.733333	1	-0.721375
38.750000	1	-0.720750
38.766667	1	-0.720750
38.783333	1	-0.720625
38.800000	1	-0.720500
38.816667	1	-0.720500
38.833333	1	-0.720125
38.850000	1	-0.720500
38.866667	1	-0.720375
38.883333	1	-0.719875
38.900000	1	-0.720250
38.916667	1	-0.720250
38.933333	1	-0.720875
38.950000	1	-0.721000
38.966667	1	-0.720750
38.983333	1	-0.720750
39.000000	1	-0.720875
39.016667	1	-0.720875
39.033333	1	-0.720875
39.050000	1	-0.720250
39.066667	1	-0.720500
39.083333	1	-0.720750
39.100000	1	-0.721125
39.116667	1	-0.721500
39.133333	1	-0.722375
39.150000	1	-0.722125
39.166667	1	-0.721750
39.183333	1	-0.721750
39.200000	1	-0.721500
39.216667	1	-0.721250
39.233333	1	-0.721375
39.250000	1	-0.721875
39.266667	1	-0.722125
39.283333	1	-0.722750
39.300000	1	-0.723000
39.316667	1	-0.722875
39.333333	1	-0.722875
39.350000	1	-0.722125
39.366667	1	-0.721750
39.383333	1	-0.721875
39.400000	1	-0.721500
39.416667	1	-0.721000
39.433333	1	-0.720125
39.450000	1	-0.720375
39.466667	1	-0.720250
39.483333	1	-0.719750
39.500000	1	-0.719125
39.516667	1	-0.718375
39.533333	1	-0.718000
39.550000	1	-0.717625
39.566667	1	-0.716500
39.583333	1	-0.716000
39.600000	1	-0.715125
39.616667	1	-0.713875
39.633333	1	-0.712750
39.650000	1	-0.711875
39.666667	1	-0.711000
39.683333	1	-0.710250
39.700000	1	-0.708250
39.716667	1	-0.707875
39.733333	1	-0.706875
39.750000	1	-0.705250
39.766667	1	-0.704125
39.783333	1	-0.702750
39.800000	1	-0.702000
39.816667	1	-0.699750
39.833333	1	-0.698375
39.850000	1	-0.696875
39.866667	1	-0.696000
39.883333	1	-0.695125
39.900000	1	-0.693875
39.916667	1	-0.691250
39.933333	1	-0.690000
39.950000	1	-0.688000
39.966667	1	-0.686125
39.983333	1	-0.683875
40.000000	1	-0.682375
