File Path	chrom://marshall/Chromeleon7/HPLC_Ultimate_3000/Users/markusar/20221226.seq/465.smp/RI_1.channel/RI_1.chm
Channel	RI_1

Injection Information:
Data Vault	Chromeleon7
Injection	ca2.4
Injection Number	33
Position	RE1
Comment	
Processing Method	
Instrument Method	std_method
Type	Unknown
Status	Finished
Injection Date	27.12.2022
Injection Time	14:01:40
Injection Volume (µl)	20.000
Dilution Factor	1.0000
Weight	1.0000

Chromatogram Data Information:
Time Min. (min)	0.000000
Time Max. (min)	40.000000
Data Points	2401
Detector	RI
Generating Data System	Chromeleon 7.2.5.9507
Exporting Data System	Chromeleon 7.2.5.0
Operator	Instrument Controller
Signal Quantity	Refractive 
Signal Unit	µRIU
Signal Min.	-0.156750
Signal Max.	96.323625
Channel	RI_1
Driver Name	RID520Driver.dll
Channel Type	Evaluation
Min. Step (s)	1
Max. Step (s)	1
Average Step (s)	1

Signal Parameter Information:
Signal Info	

Chromatogram Data:
Time (min)	Step (s)	Value (µRIU)
0.000000	n.a.	0.168750
0.016667	1	0.169375
0.033333	1	0.170750
0.050000	1	0.171750
0.066667	1	0.172625
0.083333	1	0.173125
0.100000	1	0.173375
0.116667	1	0.174250
0.133333	1	0.173750
0.150000	1	0.173250
0.166667	1	0.172500
0.183333	1	0.172375
0.200000	1	0.172875
0.216667	1	0.172750
0.233333	1	0.172750
0.250000	1	0.172250
0.266667	1	0.170875
0.283333	1	0.168000
0.300000	1	0.164125
0.316667	1	0.160375
0.333333	1	0.158250
0.350000	1	0.159625
0.366667	1	0.162375
0.383333	1	0.164625
0.400000	1	0.165250
0.416667	1	0.166250
0.433333	1	0.166625
0.450000	1	0.165375
0.466667	1	0.163000
0.483333	1	0.159625
0.500000	1	0.155250
0.516667	1	0.150875
0.533333	1	0.146750
0.550000	1	0.143750
0.566667	1	0.141375
0.583333	1	0.139000
0.600000	1	0.136750
0.616667	1	0.134500
0.633333	1	0.132000
0.650000	1	0.129875
0.666667	1	0.128250
0.683333	1	0.126000
0.700000	1	0.123625
0.716667	1	0.121750
0.733333	1	0.120000
0.750000	1	0.118625
0.766667	1	0.117250
0.783333	1	0.115000
0.800000	1	0.112875
0.816667	1	0.111125
0.833333	1	0.109000
0.850000	1	0.107375
0.866667	1	0.106000
0.883333	1	0.104625
0.900000	1	0.102625
0.916667	1	0.101250
0.933333	1	0.098875
0.950000	1	0.097250
0.966667	1	0.095500
0.983333	1	0.093750
1.000000	1	0.091875
1.016667	1	0.089375
1.033333	1	0.087625
1.050000	1	0.085125
1.066667	1	0.083625
1.083333	1	0.081750
1.100000	1	0.079875
1.116667	1	0.077750
1.133333	1	0.075875
1.150000	1	0.073250
1.166667	1	0.071250
1.183333	1	0.069125
1.200000	1	0.066500
1.216667	1	0.063500
1.233333	1	0.060875
1.250000	1	0.058250
1.266667	1	0.055750
1.283333	1	0.053125
1.300000	1	0.050250
1.316667	1	0.048500
1.333333	1	0.045625
1.350000	1	0.043250
1.366667	1	0.040125
1.383333	1	0.037125
1.400000	1	0.034125
1.416667	1	0.031250
1.433333	1	0.028375
1.450000	1	0.025500
1.466667	1	0.022125
1.483333	1	0.018500
1.500000	1	0.016000
1.516667	1	0.013125
1.533333	1	0.010750
1.550000	1	0.008125
1.566667	1	0.005375
1.583333	1	0.003125
1.600000	1	0.000875
1.616667	1	-0.001375
1.633333	1	-0.004125
1.650000	1	-0.007375
1.666667	1	-0.009250
1.683333	1	-0.011250
1.700000	1	-0.012875
1.716667	1	-0.014500
1.733333	1	-0.016500
1.750000	1	-0.018250
1.766667	1	-0.020375
1.783333	1	-0.022500
1.800000	1	-0.023750
1.816667	1	-0.025625
1.833333	1	-0.027125
1.850000	1	-0.028000
1.866667	1	-0.028750
1.883333	1	-0.030125
1.900000	1	-0.031250
1.916667	1	-0.032375
1.933333	1	-0.033625
1.950000	1	-0.034500
1.966667	1	-0.036000
1.983333	1	-0.036750
2.000000	1	-0.037625
2.016667	1	-0.038750
2.033333	1	-0.040000
2.050000	1	-0.040750
2.066667	1	-0.041750
2.083333	1	-0.042500
2.100000	1	-0.043125
2.116667	1	-0.044000
2.133333	1	-0.044750
2.150000	1	-0.045375
2.166667	1	-0.046625
2.183333	1	-0.047625
2.200000	1	-0.048250
2.216667	1	-0.049250
2.233333	1	-0.050125
2.250000	1	-0.050500
2.266667	1	-0.050750
2.283333	1	-0.052375
2.300000	1	-0.053750
2.316667	1	-0.054500
2.333333	1	-0.055000
2.350000	1	-0.055750
2.366667	1	-0.055750
2.383333	1	-0.056500
2.400000	1	-0.056750
2.416667	1	-0.057000
2.433333	1	-0.057000
2.450000	1	-0.057375
2.466667	1	-0.057375
2.483333	1	-0.057625
2.500000	1	-0.057125
2.516667	1	-0.057250
2.533333	1	-0.056750
2.550000	1	-0.057000
2.566667	1	-0.056500
2.583333	1	-0.055750
2.600000	1	-0.054750
2.616667	1	-0.054125
2.633333	1	-0.053750
2.650000	1	-0.052875
2.666667	1	-0.051875
2.683333	1	-0.051125
2.700000	1	-0.049375
2.716667	1	-0.048625
2.733333	1	-0.047750
2.750000	1	-0.046750
2.766667	1	-0.045875
2.783333	1	-0.044375
2.800000	1	-0.043000
2.816667	1	-0.041750
2.833333	1	-0.040500
2.850000	1	-0.038625
2.866667	1	-0.037375
2.883333	1	-0.035750
2.900000	1	-0.035250
2.916667	1	-0.033500
2.933333	1	-0.031375
2.950000	1	-0.030250
2.966667	1	-0.028875
2.983333	1	-0.026875
3.000000	1	-0.025625
3.016667	1	-0.024500
3.033333	1	-0.023125
3.050000	1	-0.021625
3.066667	1	-0.020500
3.083333	1	-0.018500
3.100000	1	-0.016750
3.116667	1	-0.015250
3.133333	1	-0.012875
3.150000	1	-0.010875
3.166667	1	-0.009500
3.183333	1	-0.007750
3.200000	1	-0.006000
3.216667	1	-0.004000
3.233333	1	-0.002625
3.250000	1	-0.000375
3.266667	1	0.001500
3.283333	1	0.003125
3.300000	1	0.004875
3.316667	1	0.007000
3.333333	1	0.009000
3.350000	1	0.010500
3.366667	1	0.012250
3.383333	1	0.014125
3.400000	1	0.015250
3.416667	1	0.016625
3.433333	1	0.017875
3.450000	1	0.019875
3.466667	1	0.021125
3.483333	1	0.022500
3.500000	1	0.024500
3.516667	1	0.026000
3.533333	1	0.027500
3.550000	1	0.028875
3.566667	1	0.030000
3.583333	1	0.031000
3.600000	1	0.031750
3.616667	1	0.032500
3.633333	1	0.033250
3.650000	1	0.034125
3.666667	1	0.034375
3.683333	1	0.034750
3.700000	1	0.035250
3.716667	1	0.036000
3.733333	1	0.036625
3.750000	1	0.036625
3.766667	1	0.037500
3.783333	1	0.037625
3.800000	1	0.037000
3.816667	1	0.036875
3.833333	1	0.036625
3.850000	1	0.036500
3.866667	1	0.036250
3.883333	1	0.036500
3.900000	1	0.036750
3.916667	1	0.036000
3.933333	1	0.036375
3.950000	1	0.036375
3.966667	1	0.035875
3.983333	1	0.035375
4.000000	1	0.035625
4.016667	1	0.035000
4.033333	1	0.034875
4.050000	1	0.034375
4.066667	1	0.034000
4.083333	1	0.033375
4.100000	1	0.032750
4.116667	1	0.032375
4.133333	1	0.032125
4.150000	1	0.032125
4.166667	1	0.032375
4.183333	1	0.032750
4.200000	1	0.032875
4.216667	1	0.032250
4.233333	1	0.031375
4.250000	1	0.031500
4.266667	1	0.031500
4.283333	1	0.031250
4.300000	1	0.030500
4.316667	1	0.030500
4.333333	1	0.029875
4.350000	1	0.030000
4.366667	1	0.029875
4.383333	1	0.029125
4.400000	1	0.028875
4.416667	1	0.028500
4.433333	1	0.027875
4.450000	1	0.027875
4.466667	1	0.028000
4.483333	1	0.028125
4.500000	1	0.027750
4.516667	1	0.027500
4.533333	1	0.027750
4.550000	1	0.027625
4.566667	1	0.027250
4.583333	1	0.027000
4.600000	1	0.027000
4.616667	1	0.027250
4.633333	1	0.027250
4.650000	1	0.026750
4.666667	1	0.026500
4.683333	1	0.026000
4.700000	1	0.025750
4.716667	1	0.025500
4.733333	1	0.025125
4.750000	1	0.025125
4.766667	1	0.025750
4.783333	1	0.025375
4.800000	1	0.025125
4.816667	1	0.025250
4.833333	1	0.025500
4.850000	1	0.025125
4.866667	1	0.025500
4.883333	1	0.024750
4.900000	1	0.024375
4.916667	1	0.024125
4.933333	1	0.024125
4.950000	1	0.024125
4.966667	1	0.023625
4.983333	1	0.023625
5.000000	1	0.023500
5.016667	1	0.023500
5.033333	1	0.023375
5.050000	1	0.023625
5.066667	1	0.023625
5.083333	1	0.023625
5.100000	1	0.024000
5.116667	1	0.024500
5.133333	1	0.025125
5.150000	1	0.024750
5.166667	1	0.025375
5.183333	1	0.024875
5.200000	1	0.025000
5.216667	1	0.025875
5.233333	1	0.026750
5.250000	1	0.027125
5.266667	1	0.027750
5.283333	1	0.028125
5.300000	1	0.028750
5.316667	1	0.029875
5.333333	1	0.030500
5.350000	1	0.030875
5.366667	1	0.031625
5.383333	1	0.032875
5.400000	1	0.033500
5.416667	1	0.034000
5.433333	1	0.035125
5.450000	1	0.035875
5.466667	1	0.037000
5.483333	1	0.037750
5.500000	1	0.038750
5.516667	1	0.040375
5.533333	1	0.042125
5.550000	1	0.044500
5.566667	1	0.046750
5.583333	1	0.048250
5.600000	1	0.049625
5.616667	1	0.051750
5.633333	1	0.053250
5.650000	1	0.054750
5.666667	1	0.056000
5.683333	1	0.058000
5.700000	1	0.060750
5.716667	1	0.062500
5.733333	1	0.064625
5.750000	1	0.066250
5.766667	1	0.068375
5.783333	1	0.070250
5.800000	1	0.072000
5.816667	1	0.073500
5.833333	1	0.075500
5.850000	1	0.077125
5.866667	1	0.078625
5.883333	1	0.079875
5.900000	1	0.081250
5.916667	1	0.083500
5.933333	1	0.085125
5.950000	1	0.086750
5.966667	1	0.088500
5.983333	1	0.090000
6.000000	1	0.091000
6.016667	1	0.091500
6.033333	1	0.092750
6.050000	1	0.094875
6.066667	1	0.096500
6.083333	1	0.097375
6.100000	1	0.099000
6.116667	1	0.100125
6.133333	1	0.101750
6.150000	1	0.102875
6.166667	1	0.103750
6.183333	1	0.104625
6.200000	1	0.105500
6.216667	1	0.106125
6.233333	1	0.106375
6.250000	1	0.107250
6.266667	1	0.107500
6.283333	1	0.108625
6.300000	1	0.108875
6.316667	1	0.109250
6.333333	1	0.108875
6.350000	1	0.109000
6.366667	1	0.108875
6.383333	1	0.108500
6.400000	1	0.108500
6.416667	1	0.108750
6.433333	1	0.108875
6.450000	1	0.108125
6.466667	1	0.107250
6.483333	1	0.106875
6.500000	1	0.106625
6.516667	1	0.106375
6.533333	1	0.106250
6.550000	1	0.105875
6.566667	1	0.105000
6.583333	1	0.104375
6.600000	1	0.103625
6.616667	1	0.103000
6.633333	1	0.102375
6.650000	1	0.101875
6.666667	1	0.101875
6.683333	1	0.101125
6.700000	1	0.101125
6.716667	1	0.100250
6.733333	1	0.100000
6.750000	1	0.100375
6.766667	1	0.100500
6.783333	1	0.100625
6.800000	1	0.100750
6.816667	1	0.101000
6.833333	1	0.101625
6.850000	1	0.101750
6.866667	1	0.101625
6.883333	1	0.102625
6.900000	1	0.103500
6.916667	1	0.104000
6.933333	1	0.105375
6.950000	1	0.107000
6.966667	1	0.108250
6.983333	1	0.108750
7.000000	1	0.109750
7.016667	1	0.111375
7.033333	1	0.113750
7.050000	1	0.115125
7.066667	1	0.116375
7.083333	1	0.117500
7.100000	1	0.119250
7.116667	1	0.121625
7.133333	1	0.124000
7.150000	1	0.126000
7.166667	1	0.127625
7.183333	1	0.129875
7.200000	1	0.131875
7.216667	1	0.133875
7.233333	1	0.135500
7.250000	1	0.137500
7.266667	1	0.139750
7.283333	1	0.142000
7.300000	1	0.144625
7.316667	1	0.146750
7.333333	1	0.148375
7.350000	1	0.150375
7.366667	1	0.152125
7.383333	1	0.154250
7.400000	1	0.156250
7.416667	1	0.157750
7.433333	1	0.159250
7.450000	1	0.161500
7.466667	1	0.163625
7.483333	1	0.165750
7.500000	1	0.167125
7.516667	1	0.168500
7.533333	1	0.170250
7.550000	1	0.171625
7.566667	1	0.173500
7.583333	1	0.174250
7.600000	1	0.175250
7.616667	1	0.175750
7.633333	1	0.176375
7.650000	1	0.176625
7.666667	1	0.178000
7.683333	1	0.179625
7.700000	1	0.179625
7.716667	1	0.179750
7.733333	1	0.180500
7.750000	1	0.180250
7.766667	1	0.180125
7.783333	1	0.179750
7.800000	1	0.179125
7.816667	1	0.178625
7.833333	1	0.177875
7.850000	1	0.176750
7.866667	1	0.176000
7.883333	1	0.175750
7.900000	1	0.174375
7.916667	1	0.172625
7.933333	1	0.171000
7.950000	1	0.169750
7.966667	1	0.168125
7.983333	1	0.166500
8.000000	1	0.164000
8.016667	1	0.161875
8.033333	1	0.160125
8.050000	1	0.158500
8.066667	1	0.156875
8.083333	1	0.154125
8.100000	1	0.151875
8.116667	1	0.149500
8.133333	1	0.146875
8.150000	1	0.144625
8.166667	1	0.142250
8.183333	1	0.140000
8.200000	1	0.137250
8.216667	1	0.134750
8.233333	1	0.132625
8.250000	1	0.130500
8.266667	1	0.128125
8.283333	1	0.125125
8.300000	1	0.123125
8.316667	1	0.120250
8.333333	1	0.117500
8.350000	1	0.114625
8.366667	1	0.112000
8.383333	1	0.110000
8.400000	1	0.107750
8.416667	1	0.105000
8.433333	1	0.103125
8.450000	1	0.100375
8.466667	1	0.098500
8.483333	1	0.096625
8.500000	1	0.094375
8.516667	1	0.092250
8.533333	1	0.089875
8.550000	1	0.088000
8.566667	1	0.086875
8.583333	1	0.085250
8.600000	1	0.083750
8.616667	1	0.083125
8.633333	1	0.081500
8.650000	1	0.080125
8.666667	1	0.079000
8.683333	1	0.078625
8.700000	1	0.077625
8.716667	1	0.076875
8.733333	1	0.076500
8.750000	1	0.076250
8.766667	1	0.075875
8.783333	1	0.075750
8.800000	1	0.076625
8.816667	1	0.077125
8.833333	1	0.077500
8.850000	1	0.078500
8.866667	1	0.079500
8.883333	1	0.080375
8.900000	1	0.082125
8.916667	1	0.083625
8.933333	1	0.085500
8.950000	1	0.086875
8.966667	1	0.088500
8.983333	1	0.090000
9.000000	1	0.092000
9.016667	1	0.093875
9.033333	1	0.095750
9.050000	1	0.098125
9.066667	1	0.100750
9.083333	1	0.103000
9.100000	1	0.105625
9.116667	1	0.108250
9.133333	1	0.110125
9.150000	1	0.113000
9.166667	1	0.116125
9.183333	1	0.119125
9.200000	1	0.121750
9.216667	1	0.125000
9.233333	1	0.127500
9.250000	1	0.130500
9.266667	1	0.134500
9.283333	1	0.137875
9.300000	1	0.140750
9.316667	1	0.144500
9.333333	1	0.148125
9.350000	1	0.151375
9.366667	1	0.155125
9.383333	1	0.159500
9.400000	1	0.163625
9.416667	1	0.168750
9.433333	1	0.173625
9.450000	1	0.179000
9.466667	1	0.184625
9.483333	1	0.191375
9.500000	1	0.198625
9.516667	1	0.206500
9.533333	1	0.215875
9.550000	1	0.226625
9.566667	1	0.239625
9.583333	1	0.253250
9.600000	1	0.270250
9.616667	1	0.289000
9.633333	1	0.310750
9.650000	1	0.334500
9.666667	1	0.361500
9.683333	1	0.390875
9.700000	1	0.423500
9.716667	1	0.459375
9.733333	1	0.500375
9.750000	1	0.545500
9.766667	1	0.594750
9.783333	1	0.645500
9.800000	1	0.691500
9.816667	1	0.722625
9.833333	1	0.725125
9.850000	1	0.691125
9.866667	1	0.625250
9.883333	1	0.551375
9.900000	1	0.511500
9.916667	1	0.559250
9.933333	1	0.753250
9.950000	1	1.147500
9.966667	1	1.788500
9.983333	1	2.716000
10.000000	1	3.961500
10.016667	1	5.553125
10.033333	1	7.512375
10.050000	1	9.851125
10.066667	1	12.581000
10.083333	1	15.706125
10.100000	1	19.221750
10.116667	1	23.113750
10.133333	1	27.354625
10.150000	1	31.908750
10.166667	1	36.732000
10.183333	1	41.773375
10.200000	1	46.978625
10.216667	1	52.292250
10.233333	1	57.655625
10.250000	1	63.003625
10.266667	1	68.275625
10.283333	1	73.395000
10.300000	1	78.272250
10.316667	1	82.802500
10.333333	1	86.865625
10.350000	1	90.340875
10.366667	1	93.110625
10.383333	1	95.077125
10.400000	1	96.164000
10.416667	1	96.323625
10.433333	1	95.537375
10.450000	1	93.812500
10.466667	1	91.176875
10.483333	1	87.680000
10.500000	1	83.387625
10.516667	1	78.382875
10.533333	1	72.762375
10.550000	1	66.642750
10.566667	1	60.177625
10.583333	1	53.558375
10.600000	1	47.021750
10.616667	1	40.826500
10.633333	1	35.205875
10.650000	1	30.307875
10.666667	1	26.177750
10.683333	1	22.780875
10.700000	1	20.034875
10.716667	1	17.839375
10.733333	1	16.093125
10.750000	1	14.706875
10.766667	1	13.605500
10.783333	1	12.725375
10.800000	1	12.014500
10.816667	1	11.431750
10.833333	1	10.944625
10.850000	1	10.528750
10.866667	1	10.163625
10.883333	1	9.834375
10.900000	1	9.528500
10.916667	1	9.235125
10.933333	1	8.947000
10.950000	1	8.656500
10.966667	1	8.360000
10.983333	1	8.054250
11.000000	1	7.737500
11.016667	1	7.411250
11.033333	1	7.076375
11.050000	1	6.736125
11.066667	1	6.395375
11.083333	1	6.058750
11.100000	1	5.733500
11.116667	1	5.425000
11.133333	1	5.138625
11.150000	1	4.878625
11.166667	1	4.647625
11.183333	1	4.443875
11.200000	1	4.267375
11.216667	1	4.115750
11.233333	1	3.987375
11.250000	1	3.879125
11.266667	1	3.789125
11.283333	1	3.714500
11.300000	1	3.653500
11.316667	1	3.605500
11.333333	1	3.568875
11.350000	1	3.542125
11.366667	1	3.523875
11.383333	1	3.512250
11.400000	1	3.505000
11.416667	1	3.500500
11.433333	1	3.496000
11.450000	1	3.490250
11.466667	1	3.480750
11.483333	1	3.465500
11.500000	1	3.443875
11.516667	1	3.415750
11.533333	1	3.379625
11.550000	1	3.337375
11.566667	1	3.289000
11.583333	1	3.235875
11.600000	1	3.180250
11.616667	1	3.120500
11.633333	1	3.059625
11.650000	1	2.997125
11.666667	1	2.936000
11.683333	1	2.875875
11.700000	1	2.816750
11.716667	1	2.759375
11.733333	1	2.705000
11.750000	1	2.653875
11.766667	1	2.606000
11.783333	1	2.561625
11.800000	1	2.520375
11.816667	1	2.482625
11.833333	1	2.447750
11.850000	1	2.415375
11.866667	1	2.386125
11.883333	1	2.358125
11.900000	1	2.331875
11.916667	1	2.307250
11.933333	1	2.283125
11.950000	1	2.260750
11.966667	1	2.238625
11.983333	1	2.216250
12.000000	1	2.193625
12.016667	1	2.172500
12.033333	1	2.152875
12.050000	1	2.134875
12.066667	1	2.120125
12.083333	1	2.109875
12.100000	1	2.105125
12.116667	1	2.108125
12.133333	1	2.120125
12.150000	1	2.142125
12.166667	1	2.177875
12.183333	1	2.227000
12.200000	1	2.292125
12.216667	1	2.375750
12.233333	1	2.479500
12.250000	1	2.606750
12.266667	1	2.759875
12.283333	1	2.941375
12.300000	1	3.154625
12.316667	1	3.400500
12.333333	1	3.679875
12.350000	1	3.993000
12.366667	1	4.340375
12.383333	1	4.719375
12.400000	1	5.129125
12.416667	1	5.567625
12.433333	1	6.031250
12.450000	1	6.521250
12.466667	1	7.035000
12.483333	1	7.573000
12.500000	1	8.132125
12.516667	1	8.709000
12.533333	1	9.302000
12.550000	1	9.905500
12.566667	1	10.514750
12.583333	1	11.123875
12.600000	1	11.726500
12.616667	1	12.316000
12.633333	1	12.887000
12.650000	1	13.433375
12.666667	1	13.949750
12.683333	1	14.430000
12.700000	1	14.870125
12.716667	1	15.265750
12.733333	1	15.612875
12.750000	1	15.909000
12.766667	1	16.155000
12.783333	1	16.349375
12.800000	1	16.495125
12.816667	1	16.593750
12.833333	1	16.648000
12.850000	1	16.663125
12.866667	1	16.642000
12.883333	1	16.591125
12.900000	1	16.513000
12.916667	1	16.411625
12.933333	1	16.288000
12.950000	1	16.145625
12.966667	1	15.984500
12.983333	1	15.805250
13.000000	1	15.607750
13.016667	1	15.394250
13.033333	1	15.164625
13.050000	1	14.921000
13.066667	1	14.665375
13.083333	1	14.401125
13.100000	1	14.129500
13.116667	1	13.853750
13.133333	1	13.577125
13.150000	1	13.301000
13.166667	1	13.028375
13.183333	1	12.762000
13.200000	1	12.502000
13.216667	1	12.249500
13.233333	1	12.005625
13.250000	1	11.769500
13.266667	1	11.541250
13.283333	1	11.320875
13.300000	1	11.106875
13.316667	1	10.899250
13.333333	1	10.696250
13.350000	1	10.498625
13.366667	1	10.304250
13.383333	1	10.113250
13.400000	1	9.924375
13.416667	1	9.736375
13.433333	1	9.549000
13.450000	1	9.359000
13.466667	1	9.165125
13.483333	1	8.964375
13.500000	1	8.754625
13.516667	1	8.533500
13.533333	1	8.298500
13.550000	1	8.047375
13.566667	1	7.779375
13.583333	1	7.493250
13.600000	1	7.190250
13.616667	1	6.870625
13.633333	1	6.535125
13.650000	1	6.185375
13.666667	1	5.826750
13.683333	1	5.467750
13.700000	1	5.125250
13.716667	1	4.814500
13.733333	1	4.548375
13.750000	1	4.328625
13.766667	1	4.151750
13.783333	1	4.011875
13.800000	1	3.900250
13.816667	1	3.811250
13.833333	1	3.739500
13.850000	1	3.681000
13.866667	1	3.633375
13.883333	1	3.594250
13.900000	1	3.560625
13.916667	1	3.532000
13.933333	1	3.506750
13.950000	1	3.484250
13.966667	1	3.464250
13.983333	1	3.443375
14.000000	1	3.422625
14.016667	1	3.402250
14.033333	1	3.382000
14.050000	1	3.361750
14.066667	1	3.342375
14.083333	1	3.325500
14.100000	1	3.311375
14.116667	1	3.302750
14.133333	1	3.301375
14.150000	1	3.309750
14.166667	1	3.329375
14.183333	1	3.361250
14.200000	1	3.408000
14.216667	1	3.469750
14.233333	1	3.547750
14.250000	1	3.641250
14.266667	1	3.750875
14.283333	1	3.874375
14.300000	1	4.011625
14.316667	1	4.161125
14.333333	1	4.321250
14.350000	1	4.489750
14.366667	1	4.665000
14.383333	1	4.844750
14.400000	1	5.025750
14.416667	1	5.207125
14.433333	1	5.386250
14.450000	1	5.560250
14.466667	1	5.728000
14.483333	1	5.887875
14.500000	1	6.037625
14.516667	1	6.179250
14.533333	1	6.313750
14.550000	1	6.444125
14.566667	1	6.572875
14.583333	1	6.704750
14.600000	1	6.844500
14.616667	1	6.997250
14.633333	1	7.165250
14.650000	1	7.352875
14.666667	1	7.560625
14.683333	1	7.790375
14.700000	1	8.039750
14.716667	1	8.308000
14.733333	1	8.592000
14.750000	1	8.890500
14.766667	1	9.200625
14.783333	1	9.521375
14.800000	1	9.853500
14.816667	1	10.195875
14.833333	1	10.550250
14.850000	1	10.916000
14.866667	1	11.291250
14.883333	1	11.673375
14.900000	1	12.057750
14.916667	1	12.438625
14.933333	1	12.808375
14.950000	1	13.158375
14.966667	1	13.478875
14.983333	1	13.761375
15.000000	1	13.997625
15.016667	1	14.180250
15.033333	1	14.303875
15.050000	1	14.362875
15.066667	1	14.352750
15.083333	1	14.272000
15.100000	1	14.119000
15.116667	1	13.895125
15.133333	1	13.602250
15.150000	1	13.245750
15.166667	1	12.829500
15.183333	1	12.362125
15.200000	1	11.850375
15.216667	1	11.303500
15.233333	1	10.730375
15.250000	1	10.138250
15.266667	1	9.537125
15.283333	1	8.933250
15.300000	1	8.334625
15.316667	1	7.746000
15.333333	1	7.172250
15.350000	1	6.617500
15.366667	1	6.085875
15.383333	1	5.580375
15.400000	1	5.110500
15.416667	1	4.684750
15.433333	1	4.311250
15.450000	1	3.991500
15.466667	1	3.723125
15.483333	1	3.498625
15.500000	1	3.312750
15.516667	1	3.159625
15.533333	1	3.033250
15.550000	1	2.931875
15.566667	1	2.850500
15.583333	1	2.789000
15.600000	1	2.744250
15.616667	1	2.715375
15.633333	1	2.701125
15.650000	1	2.698750
15.666667	1	2.707500
15.683333	1	2.725875
15.700000	1	2.751875
15.716667	1	2.784250
15.733333	1	2.821250
15.750000	1	2.861625
15.766667	1	2.903500
15.783333	1	2.946250
15.800000	1	2.988875
15.816667	1	3.030875
15.833333	1	3.071875
15.850000	1	3.110875
15.866667	1	3.148625
15.883333	1	3.184750
15.900000	1	3.219750
15.916667	1	3.252875
15.933333	1	3.284875
15.950000	1	3.313875
15.966667	1	3.340750
15.983333	1	3.365000
16.000000	1	3.384875
16.016667	1	3.400500
16.033333	1	3.410625
16.050000	1	3.415375
16.066667	1	3.412250
16.083333	1	3.402750
16.100000	1	3.385875
16.116667	1	3.360250
16.133333	1	3.327000
16.150000	1	3.285250
16.166667	1	3.236625
16.183333	1	3.179875
16.200000	1	3.116375
16.216667	1	3.046875
16.233333	1	2.971750
16.250000	1	2.891625
16.266667	1	2.809250
16.283333	1	2.724500
16.300000	1	2.638000
16.316667	1	2.552625
16.333333	1	2.469125
16.350000	1	2.388250
16.366667	1	2.309750
16.383333	1	2.235125
16.400000	1	2.165625
16.416667	1	2.100375
16.433333	1	2.039000
16.450000	1	1.983500
16.466667	1	1.932500
16.483333	1	1.885250
16.500000	1	1.842250
16.516667	1	1.803375
16.533333	1	1.767875
16.550000	1	1.735750
16.566667	1	1.706250
16.583333	1	1.679250
16.600000	1	1.655750
16.616667	1	1.636000
16.633333	1	1.619000
16.650000	1	1.604500
16.666667	1	1.592750
16.683333	1	1.584000
16.700000	1	1.578250
16.716667	1	1.574875
16.733333	1	1.572375
16.750000	1	1.572000
16.766667	1	1.572375
16.783333	1	1.574125
16.800000	1	1.576500
16.816667	1	1.580000
16.833333	1	1.582625
16.850000	1	1.585000
16.866667	1	1.587750
16.883333	1	1.589000
16.900000	1	1.589875
16.916667	1	1.589875
16.933333	1	1.588750
16.950000	1	1.586000
16.966667	1	1.582375
16.983333	1	1.577500
17.000000	1	1.571625
17.016667	1	1.565125
17.033333	1	1.557750
17.050000	1	1.549750
17.066667	1	1.541625
17.083333	1	1.534500
17.100000	1	1.526750
17.116667	1	1.519125
17.133333	1	1.511875
17.150000	1	1.503875
17.166667	1	1.496625
17.183333	1	1.489750
17.200000	1	1.483125
17.216667	1	1.477250
17.233333	1	1.470625
17.250000	1	1.464125
17.266667	1	1.458125
17.283333	1	1.452000
17.300000	1	1.446875
17.316667	1	1.441875
17.333333	1	1.437375
17.350000	1	1.432625
17.366667	1	1.427750
17.383333	1	1.423250
17.400000	1	1.419000
17.416667	1	1.415375
17.433333	1	1.412125
17.450000	1	1.409500
17.466667	1	1.407875
17.483333	1	1.407500
17.500000	1	1.408625
17.516667	1	1.410500
17.533333	1	1.412625
17.550000	1	1.416750
17.566667	1	1.422000
17.583333	1	1.429250
17.600000	1	1.438625
17.616667	1	1.449875
17.633333	1	1.462750
17.650000	1	1.477125
17.666667	1	1.493875
17.683333	1	1.512875
17.700000	1	1.532625
17.716667	1	1.554250
17.733333	1	1.576500
17.750000	1	1.600250
17.766667	1	1.625125
17.783333	1	1.651000
17.800000	1	1.678250
17.816667	1	1.705750
17.833333	1	1.734375
17.850000	1	1.763375
17.866667	1	1.792000
17.883333	1	1.820750
17.900000	1	1.849875
17.916667	1	1.878125
17.933333	1	1.905375
17.950000	1	1.931000
17.966667	1	1.954500
17.983333	1	1.976750
18.000000	1	1.997250
18.016667	1	2.015750
18.033333	1	2.031875
18.050000	1	2.044875
18.066667	1	2.055000
18.083333	1	2.062500
18.100000	1	2.067750
18.116667	1	2.069875
18.133333	1	2.068500
18.150000	1	2.064500
18.166667	1	2.056500
18.183333	1	2.045750
18.200000	1	2.032625
18.216667	1	2.017000
18.233333	1	1.998625
18.250000	1	1.977750
18.266667	1	1.954750
18.283333	1	1.929875
18.300000	1	1.903375
18.316667	1	1.875500
18.333333	1	1.846625
18.350000	1	1.816500
18.366667	1	1.786750
18.383333	1	1.756375
18.400000	1	1.726500
18.416667	1	1.696500
18.433333	1	1.665750
18.450000	1	1.636250
18.466667	1	1.607750
18.483333	1	1.579625
18.500000	1	1.551625
18.516667	1	1.525875
18.533333	1	1.500125
18.550000	1	1.474000
18.566667	1	1.449750
18.583333	1	1.426625
18.600000	1	1.404250
18.616667	1	1.383000
18.633333	1	1.362500
18.650000	1	1.342625
18.666667	1	1.324500
18.683333	1	1.307000
18.700000	1	1.289750
18.716667	1	1.273625
18.733333	1	1.257500
18.750000	1	1.242375
18.766667	1	1.228750
18.783333	1	1.215875
18.800000	1	1.204250
18.816667	1	1.194125
18.833333	1	1.185375
18.850000	1	1.177875
18.866667	1	1.170875
18.883333	1	1.166375
18.900000	1	1.164000
18.916667	1	1.163000
18.933333	1	1.164500
18.950000	1	1.167750
18.966667	1	1.173250
18.983333	1	1.181375
19.000000	1	1.190750
19.016667	1	1.202250
19.033333	1	1.215500
19.050000	1	1.230875
19.066667	1	1.247375
19.083333	1	1.265625
19.100000	1	1.285375
19.116667	1	1.306625
19.133333	1	1.329250
19.150000	1	1.353000
19.166667	1	1.378125
19.183333	1	1.404250
19.200000	1	1.431500
19.216667	1	1.459750
19.233333	1	1.488625
19.250000	1	1.517875
19.266667	1	1.548000
19.283333	1	1.577625
19.300000	1	1.608000
19.316667	1	1.636625
19.333333	1	1.664875
19.350000	1	1.692500
19.366667	1	1.718500
19.383333	1	1.742875
19.400000	1	1.765125
19.416667	1	1.785125
19.433333	1	1.802875
19.450000	1	1.817375
19.466667	1	1.829125
19.483333	1	1.837750
19.500000	1	1.843625
19.516667	1	1.844000
19.533333	1	1.841625
19.550000	1	1.835500
19.566667	1	1.825750
19.583333	1	1.812375
19.600000	1	1.795625
19.616667	1	1.775500
19.633333	1	1.752250
19.650000	1	1.727000
19.666667	1	1.700125
19.683333	1	1.670875
19.700000	1	1.640875
19.716667	1	1.609875
19.733333	1	1.577500
19.750000	1	1.545250
19.766667	1	1.513250
19.783333	1	1.481500
19.800000	1	1.451125
19.816667	1	1.422875
19.833333	1	1.395875
19.850000	1	1.372000
19.866667	1	1.349625
19.883333	1	1.330625
19.900000	1	1.314875
19.916667	1	1.302500
19.933333	1	1.293625
19.950000	1	1.288625
19.966667	1	1.288500
19.983333	1	1.293250
20.000000	1	1.302000
20.016667	1	1.317250
20.033333	1	1.337875
20.050000	1	1.365625
20.066667	1	1.400750
20.083333	1	1.442875
20.100000	1	1.493875
20.116667	1	1.554000
20.133333	1	1.622625
20.150000	1	1.700000
20.166667	1	1.786625
20.183333	1	1.881375
20.200000	1	1.984000
20.216667	1	2.093375
20.233333	1	2.207875
20.250000	1	2.325625
20.266667	1	2.447125
20.283333	1	2.570250
20.300000	1	2.694500
20.316667	1	2.819625
20.333333	1	2.945875
20.350000	1	3.073625
20.366667	1	3.204250
20.383333	1	3.337500
20.400000	1	3.474625
20.416667	1	3.616750
20.433333	1	3.764500
20.450000	1	3.916625
20.466667	1	4.074750
20.483333	1	4.236500
20.500000	1	4.402125
20.516667	1	4.569625
20.533333	1	4.739125
20.550000	1	4.908000
20.566667	1	5.075125
20.583333	1	5.238000
20.600000	1	5.395750
20.616667	1	5.545875
20.633333	1	5.686875
20.650000	1	5.817375
20.666667	1	5.934625
20.683333	1	6.036750
20.700000	1	6.121500
20.716667	1	6.187500
20.733333	1	6.232625
20.750000	1	6.255750
20.766667	1	6.255625
20.783333	1	6.230500
20.800000	1	6.180875
20.816667	1	6.106750
20.833333	1	6.009750
20.850000	1	5.891625
20.866667	1	5.754125
20.883333	1	5.600500
20.900000	1	5.433000
20.916667	1	5.255750
20.933333	1	5.071875
20.950000	1	4.883750
20.966667	1	4.696125
20.983333	1	4.511375
21.000000	1	4.332000
21.016667	1	4.159500
21.033333	1	3.995125
21.050000	1	3.840000
21.066667	1	3.695375
21.083333	1	3.561000
21.100000	1	3.436000
21.116667	1	3.319500
21.133333	1	3.211875
21.150000	1	3.111000
21.166667	1	3.015500
21.183333	1	2.924000
21.200000	1	2.836000
21.216667	1	2.749375
21.233333	1	2.664125
21.250000	1	2.578375
21.266667	1	2.492000
21.283333	1	2.404875
21.300000	1	2.316000
21.316667	1	2.225375
21.333333	1	2.132750
21.350000	1	2.039375
21.366667	1	1.946000
21.383333	1	1.852125
21.400000	1	1.759750
21.416667	1	1.668500
21.433333	1	1.579375
21.450000	1	1.493750
21.466667	1	1.412875
21.483333	1	1.335750
21.500000	1	1.264625
21.516667	1	1.197375
21.533333	1	1.137000
21.550000	1	1.081375
21.566667	1	1.031875
21.583333	1	0.988250
21.600000	1	0.950750
21.616667	1	0.919375
21.633333	1	0.893375
21.650000	1	0.872625
21.666667	1	0.857625
21.683333	1	0.847125
21.700000	1	0.842000
21.716667	1	0.840625
21.733333	1	0.842875
21.750000	1	0.849000
21.766667	1	0.858375
21.783333	1	0.871375
21.800000	1	0.886875
21.816667	1	0.905125
21.833333	1	0.925875
21.850000	1	0.948250
21.866667	1	0.973875
21.883333	1	1.001250
21.900000	1	1.030375
21.916667	1	1.060625
21.933333	1	1.093250
21.950000	1	1.127750
21.966667	1	1.164125
21.983333	1	1.201250
22.000000	1	1.239875
22.016667	1	1.279750
22.033333	1	1.320125
22.050000	1	1.361250
22.066667	1	1.402625
22.083333	1	1.443625
22.100000	1	1.483625
22.116667	1	1.521875
22.133333	1	1.558625
22.150000	1	1.593750
22.166667	1	1.625500
22.183333	1	1.653625
22.200000	1	1.679250
22.216667	1	1.700500
22.233333	1	1.716875
22.250000	1	1.727875
22.266667	1	1.733375
22.283333	1	1.734250
22.300000	1	1.729125
22.316667	1	1.718125
22.333333	1	1.701250
22.350000	1	1.677750
22.366667	1	1.648750
22.383333	1	1.615375
22.400000	1	1.577500
22.416667	1	1.535625
22.433333	1	1.490500
22.450000	1	1.442875
22.466667	1	1.393000
22.483333	1	1.342000
22.500000	1	1.291125
22.516667	1	1.239625
22.533333	1	1.189500
22.550000	1	1.141000
22.566667	1	1.094625
22.583333	1	1.051250
22.600000	1	1.010250
22.616667	1	0.972250
22.633333	1	0.937875
22.650000	1	0.905750
22.666667	1	0.877250
22.683333	1	0.852375
22.700000	1	0.830125
22.716667	1	0.810125
22.733333	1	0.793125
22.750000	1	0.778125
22.766667	1	0.765000
22.783333	1	0.753875
22.800000	1	0.744875
22.816667	1	0.737000
22.833333	1	0.730125
22.850000	1	0.723625
22.866667	1	0.718500
22.883333	1	0.713000
22.900000	1	0.707875
22.916667	1	0.703125
22.933333	1	0.699000
22.950000	1	0.694375
22.966667	1	0.689625
22.983333	1	0.684750
23.000000	1	0.678875
23.016667	1	0.673250
23.033333	1	0.667250
23.050000	1	0.660500
23.066667	1	0.653500
23.083333	1	0.646750
23.100000	1	0.638750
23.116667	1	0.630000
23.133333	1	0.621000
23.150000	1	0.611375
23.166667	1	0.600750
23.183333	1	0.590250
23.200000	1	0.580625
23.216667	1	0.570000
23.233333	1	0.559875
23.250000	1	0.548750
23.266667	1	0.537750
23.283333	1	0.527250
23.300000	1	0.516625
23.316667	1	0.506375
23.333333	1	0.496750
23.350000	1	0.487500
23.366667	1	0.478875
23.383333	1	0.471125
23.400000	1	0.465125
23.416667	1	0.460500
23.433333	1	0.457000
23.450000	1	0.455250
23.466667	1	0.455750
23.483333	1	0.458750
23.500000	1	0.463750
23.516667	1	0.471000
23.533333	1	0.480625
23.550000	1	0.493500
23.566667	1	0.508875
23.583333	1	0.527250
23.600000	1	0.549500
23.616667	1	0.573500
23.633333	1	0.600250
23.650000	1	0.628625
23.666667	1	0.659875
23.683333	1	0.693625
23.700000	1	0.728625
23.716667	1	0.765625
23.733333	1	0.804625
23.750000	1	0.845375
23.766667	1	0.887750
23.783333	1	0.932125
23.800000	1	0.978125
23.816667	1	1.026125
23.833333	1	1.075625
23.850000	1	1.126125
23.866667	1	1.178625
23.883333	1	1.232500
23.900000	1	1.288625
23.916667	1	1.345500
23.933333	1	1.403875
23.950000	1	1.462250
23.966667	1	1.521375
23.983333	1	1.579875
24.000000	1	1.638500
24.016667	1	1.696000
24.033333	1	1.751500
24.050000	1	1.804500
24.066667	1	1.854625
24.083333	1	1.901000
24.100000	1	1.943250
24.116667	1	1.981250
24.133333	1	2.014500
24.150000	1	2.041375
24.166667	1	2.063125
24.183333	1	2.077875
24.200000	1	2.085875
24.216667	1	2.086625
24.233333	1	2.080375
24.250000	1	2.066375
24.266667	1	2.044875
24.283333	1	2.016375
24.300000	1	1.981500
24.316667	1	1.940750
24.333333	1	1.894500
24.350000	1	1.843500
24.366667	1	1.788000
24.383333	1	1.729250
24.400000	1	1.668625
24.416667	1	1.607125
24.433333	1	1.544125
24.450000	1	1.481625
24.466667	1	1.420750
24.483333	1	1.360875
24.500000	1	1.303750
24.516667	1	1.248625
24.533333	1	1.197750
24.550000	1	1.150375
24.566667	1	1.106750
24.583333	1	1.067125
24.600000	1	1.031625
24.616667	1	1.000000
24.633333	1	0.971625
24.650000	1	0.946750
24.666667	1	0.925375
24.683333	1	0.907000
24.700000	1	0.891500
24.716667	1	0.877875
24.733333	1	0.866375
24.750000	1	0.856000
24.766667	1	0.847125
24.783333	1	0.839375
24.800000	1	0.832125
24.816667	1	0.824375
24.833333	1	0.816625
24.850000	1	0.808375
24.866667	1	0.799750
24.883333	1	0.790250
24.900000	1	0.780000
24.916667	1	0.769000
24.933333	1	0.756875
24.950000	1	0.744250
24.966667	1	0.729875
24.983333	1	0.715125
25.000000	1	0.698375
25.016667	1	0.681250
25.033333	1	0.663125
25.050000	1	0.644250
25.066667	1	0.624375
25.083333	1	0.605000
25.100000	1	0.584375
25.116667	1	0.563875
25.133333	1	0.542750
25.150000	1	0.522000
25.166667	1	0.502625
25.183333	1	0.484000
25.200000	1	0.466000
25.216667	1	0.449000
25.233333	1	0.432625
25.250000	1	0.417125
25.266667	1	0.402500
25.283333	1	0.389625
25.300000	1	0.376750
25.316667	1	0.366000
25.333333	1	0.356250
25.350000	1	0.347625
25.366667	1	0.340125
25.383333	1	0.334375
25.400000	1	0.329375
25.416667	1	0.325250
25.433333	1	0.322500
25.450000	1	0.320250
25.466667	1	0.319875
25.483333	1	0.320250
25.500000	1	0.321000
25.516667	1	0.322625
25.533333	1	0.324125
25.550000	1	0.327000
25.566667	1	0.330250
25.583333	1	0.333750
25.600000	1	0.338500
25.616667	1	0.343125
25.633333	1	0.348375
25.650000	1	0.352625
25.666667	1	0.357875
25.683333	1	0.362750
25.700000	1	0.367500
25.716667	1	0.372500
25.733333	1	0.377750
25.750000	1	0.382625
25.766667	1	0.387000
25.783333	1	0.391500
25.800000	1	0.395750
25.816667	1	0.399000
25.833333	1	0.402625
25.850000	1	0.404875
25.866667	1	0.407250
25.883333	1	0.409250
25.900000	1	0.411375
25.916667	1	0.412750
25.933333	1	0.413125
25.950000	1	0.414125
25.966667	1	0.414375
25.983333	1	0.413875
26.000000	1	0.413375
26.016667	1	0.413500
26.033333	1	0.412875
26.050000	1	0.412000
26.066667	1	0.411000
26.083333	1	0.409875
26.100000	1	0.409125
26.116667	1	0.408125
26.133333	1	0.407750
26.150000	1	0.406500
26.166667	1	0.405500
26.183333	1	0.405750
26.200000	1	0.405250
26.216667	1	0.405375
26.233333	1	0.405625
26.250000	1	0.405875
26.266667	1	0.407000
26.283333	1	0.408125
26.300000	1	0.409000
26.316667	1	0.410750
26.333333	1	0.412625
26.350000	1	0.414250
26.366667	1	0.416125
26.383333	1	0.418000
26.400000	1	0.420000
26.416667	1	0.422375
26.433333	1	0.424250
26.450000	1	0.426625
26.466667	1	0.429125
26.483333	1	0.431250
26.500000	1	0.433500
26.516667	1	0.435625
26.533333	1	0.437250
26.550000	1	0.439250
26.566667	1	0.440375
26.583333	1	0.441875
26.600000	1	0.443125
26.616667	1	0.444250
26.633333	1	0.445250
26.650000	1	0.445750
26.666667	1	0.446375
26.683333	1	0.446125
26.700000	1	0.445625
26.716667	1	0.444625
26.733333	1	0.444375
26.750000	1	0.443250
26.766667	1	0.440625
26.783333	1	0.438750
26.800000	1	0.436125
26.816667	1	0.433375
26.833333	1	0.430250
26.850000	1	0.425750
26.866667	1	0.420750
26.883333	1	0.416250
26.900000	1	0.410750
26.916667	1	0.405250
26.933333	1	0.399375
26.950000	1	0.393500
26.966667	1	0.386000
26.983333	1	0.378875
27.000000	1	0.370750
27.016667	1	0.363375
27.033333	1	0.355625
27.050000	1	0.347875
27.066667	1	0.338875
27.083333	1	0.330500
27.100000	1	0.321875
27.116667	1	0.312875
27.133333	1	0.304000
27.150000	1	0.295375
27.166667	1	0.286750
27.183333	1	0.278000
27.200000	1	0.269000
27.216667	1	0.261000
27.233333	1	0.253250
27.250000	1	0.245375
27.266667	1	0.238250
27.283333	1	0.231375
27.300000	1	0.225250
27.316667	1	0.219375
27.333333	1	0.213625
27.350000	1	0.209500
27.366667	1	0.206250
27.383333	1	0.204250
27.400000	1	0.203625
27.416667	1	0.203375
27.433333	1	0.205125
27.450000	1	0.208375
27.466667	1	0.213875
27.483333	1	0.221625
27.500000	1	0.231000
27.516667	1	0.244000
27.533333	1	0.259375
27.550000	1	0.277125
27.566667	1	0.298125
27.583333	1	0.321625
27.600000	1	0.349625
27.616667	1	0.380125
27.633333	1	0.414625
27.650000	1	0.451750
27.666667	1	0.492000
27.683333	1	0.536125
27.700000	1	0.582375
27.716667	1	0.631500
27.733333	1	0.684500
27.750000	1	0.738625
27.766667	1	0.795500
27.783333	1	0.853875
27.800000	1	0.914875
27.816667	1	0.977250
27.833333	1	1.041500
27.850000	1	1.107625
27.866667	1	1.175000
27.883333	1	1.244125
27.900000	1	1.315750
27.916667	1	1.387500
27.933333	1	1.459750
27.950000	1	1.534500
27.966667	1	1.610875
27.983333	1	1.687875
28.000000	1	1.765750
28.016667	1	1.844875
28.033333	1	1.924750
28.050000	1	2.004250
28.066667	1	2.083250
28.083333	1	2.163000
28.100000	1	2.241875
28.116667	1	2.318625
28.133333	1	2.394125
28.150000	1	2.467250
28.166667	1	2.538125
28.183333	1	2.606625
28.200000	1	2.670625
28.216667	1	2.732000
28.233333	1	2.788375
28.250000	1	2.839750
28.266667	1	2.886500
28.283333	1	2.928000
28.300000	1	2.963625
28.316667	1	2.993000
28.333333	1	3.015375
28.350000	1	3.030125
28.366667	1	3.037000
28.383333	1	3.036500
28.400000	1	3.027625
28.416667	1	3.010875
28.433333	1	2.985000
28.450000	1	2.950250
28.466667	1	2.907125
28.483333	1	2.854375
28.500000	1	2.793125
28.516667	1	2.723375
28.533333	1	2.645125
28.550000	1	2.560000
28.566667	1	2.466750
28.583333	1	2.367625
28.600000	1	2.262375
28.616667	1	2.153500
28.633333	1	2.040625
28.650000	1	1.924750
28.666667	1	1.807625
28.683333	1	1.690250
28.700000	1	1.573250
28.716667	1	1.458750
28.733333	1	1.346750
28.750000	1	1.238125
28.766667	1	1.133875
28.783333	1	1.034500
28.800000	1	0.940750
28.816667	1	0.852125
28.833333	1	0.770375
28.850000	1	0.694000
28.866667	1	0.624125
28.883333	1	0.560250
28.900000	1	0.502125
28.916667	1	0.449875
28.933333	1	0.402750
28.950000	1	0.361625
28.966667	1	0.324250
28.983333	1	0.292000
29.000000	1	0.263875
29.016667	1	0.239875
29.033333	1	0.218250
29.050000	1	0.199875
29.066667	1	0.184625
29.083333	1	0.172000
29.100000	1	0.160875
29.116667	1	0.152375
29.133333	1	0.144875
29.150000	1	0.139375
29.166667	1	0.135250
29.183333	1	0.132375
29.200000	1	0.130625
29.216667	1	0.129625
29.233333	1	0.129250
29.250000	1	0.129875
29.266667	1	0.131375
29.283333	1	0.134125
29.300000	1	0.137375
29.316667	1	0.141000
29.333333	1	0.145000
29.350000	1	0.149875
29.366667	1	0.155000
29.383333	1	0.159625
29.400000	1	0.165875
29.416667	1	0.172250
29.433333	1	0.179250
29.450000	1	0.186250
29.466667	1	0.193500
29.483333	1	0.200750
29.500000	1	0.208625
29.516667	1	0.216875
29.533333	1	0.226125
29.550000	1	0.235125
29.566667	1	0.243750
29.583333	1	0.252500
29.600000	1	0.261250
29.616667	1	0.270500
29.633333	1	0.279500
29.650000	1	0.288000
29.666667	1	0.296750
29.683333	1	0.305500
29.700000	1	0.313750
29.716667	1	0.322375
29.733333	1	0.332250
29.750000	1	0.340375
29.766667	1	0.348125
29.783333	1	0.356500
29.800000	1	0.364250
29.816667	1	0.371000
29.833333	1	0.378500
29.850000	1	0.385375
29.866667	1	0.392250
29.883333	1	0.398375
29.900000	1	0.404875
29.916667	1	0.411000
29.933333	1	0.416875
29.950000	1	0.421500
29.966667	1	0.425750
29.983333	1	0.429875
30.000000	1	0.433875
30.016667	1	0.436875
30.033333	1	0.439875
30.050000	1	0.442000
30.066667	1	0.444000
30.083333	1	0.446625
30.100000	1	0.447875
30.116667	1	0.448875
30.133333	1	0.449750
30.150000	1	0.450000
30.166667	1	0.449375
30.183333	1	0.449875
30.200000	1	0.449500
30.216667	1	0.448250
30.233333	1	0.447375
30.250000	1	0.446250
30.266667	1	0.444875
30.283333	1	0.443250
30.300000	1	0.441250
30.316667	1	0.439750
30.333333	1	0.438000
30.350000	1	0.436625
30.366667	1	0.435500
30.383333	1	0.434500
30.400000	1	0.433625
30.416667	1	0.432750
30.433333	1	0.432625
30.450000	1	0.432750
30.466667	1	0.433500
30.483333	1	0.435000
30.500000	1	0.437250
30.516667	1	0.440000
30.533333	1	0.443375
30.550000	1	0.447125
30.566667	1	0.452250
30.583333	1	0.458125
30.600000	1	0.464500
30.616667	1	0.471875
30.633333	1	0.479375
30.650000	1	0.488875
30.666667	1	0.498625
30.683333	1	0.509000
30.700000	1	0.520500
30.716667	1	0.532250
30.733333	1	0.545375
30.750000	1	0.558875
30.766667	1	0.573500
30.783333	1	0.588250
30.800000	1	0.603250
30.816667	1	0.619125
30.833333	1	0.634750
30.850000	1	0.652000
30.866667	1	0.670125
30.883333	1	0.688000
30.900000	1	0.706500
30.916667	1	0.725500
30.933333	1	0.743750
30.950000	1	0.763250
30.966667	1	0.782625
30.983333	1	0.802750
31.000000	1	0.821875
31.016667	1	0.841375
31.033333	1	0.860875
31.050000	1	0.879375
31.066667	1	0.897750
31.083333	1	0.915500
31.100000	1	0.932750
31.116667	1	0.949125
31.133333	1	0.964875
31.150000	1	0.979500
31.166667	1	0.993250
31.183333	1	1.004875
31.200000	1	1.014750
31.216667	1	1.023500
31.233333	1	1.030375
31.250000	1	1.035500
31.266667	1	1.038250
31.283333	1	1.039625
31.300000	1	1.039250
31.316667	1	1.036125
31.333333	1	1.030500
31.350000	1	1.023375
31.366667	1	1.014250
31.383333	1	1.003000
31.400000	1	0.989250
31.416667	1	0.973625
31.433333	1	0.955750
31.450000	1	0.936625
31.466667	1	0.916625
31.483333	1	0.895375
31.500000	1	0.873625
31.516667	1	0.850250
31.533333	1	0.826000
31.550000	1	0.801375
31.566667	1	0.776125
31.583333	1	0.751250
31.600000	1	0.726125
31.616667	1	0.701250
31.633333	1	0.677000
31.650000	1	0.653750
31.666667	1	0.631000
31.683333	1	0.609250
31.700000	1	0.588000
31.716667	1	0.568875
31.733333	1	0.550625
31.750000	1	0.533875
31.766667	1	0.518375
31.783333	1	0.503625
31.800000	1	0.491125
31.816667	1	0.479750
31.833333	1	0.469250
31.850000	1	0.460375
31.866667	1	0.453375
31.883333	1	0.447000
31.900000	1	0.441875
31.916667	1	0.438000
31.933333	1	0.434750
31.950000	1	0.433000
31.966667	1	0.431875
31.983333	1	0.432125
32.000000	1	0.432750
32.016667	1	0.433375
32.033333	1	0.434875
32.050000	1	0.437875
32.066667	1	0.441250
32.083333	1	0.444500
32.100000	1	0.448625
32.116667	1	0.452625
32.133333	1	0.457250
32.150000	1	0.462125
32.166667	1	0.467250
32.183333	1	0.472500
32.200000	1	0.478000
32.216667	1	0.482750
32.233333	1	0.488375
32.250000	1	0.493000
32.266667	1	0.498250
32.283333	1	0.502875
32.300000	1	0.508125
32.316667	1	0.512375
32.333333	1	0.516000
32.350000	1	0.519875
32.366667	1	0.523000
32.383333	1	0.526250
32.400000	1	0.528625
32.416667	1	0.531125
32.433333	1	0.533125
32.450000	1	0.534875
32.466667	1	0.535500
32.483333	1	0.536125
32.500000	1	0.535750
32.516667	1	0.534875
32.533333	1	0.533125
32.550000	1	0.531375
32.566667	1	0.527750
32.583333	1	0.524250
32.600000	1	0.520250
32.616667	1	0.515625
32.633333	1	0.510375
32.650000	1	0.504125
32.666667	1	0.496875
32.683333	1	0.488875
32.700000	1	0.481125
32.716667	1	0.472750
32.733333	1	0.463500
32.750000	1	0.453875
32.766667	1	0.443125
32.783333	1	0.432125
32.800000	1	0.420750
32.816667	1	0.408750
32.833333	1	0.396375
32.850000	1	0.383625
32.866667	1	0.371000
32.883333	1	0.357875
32.900000	1	0.344750
32.916667	1	0.331250
32.933333	1	0.318125
32.950000	1	0.304625
32.966667	1	0.290875
32.983333	1	0.276750
33.000000	1	0.262625
33.016667	1	0.249125
33.033333	1	0.235125
33.050000	1	0.221500
33.066667	1	0.207625
33.083333	1	0.193875
33.100000	1	0.180750
33.116667	1	0.167375
33.133333	1	0.154875
33.150000	1	0.142875
33.166667	1	0.131250
33.183333	1	0.118875
33.200000	1	0.107000
33.216667	1	0.095875
33.233333	1	0.084750
33.250000	1	0.073875
33.266667	1	0.063250
33.283333	1	0.053500
33.300000	1	0.044375
33.316667	1	0.036000
33.333333	1	0.028125
33.350000	1	0.020750
33.366667	1	0.013125
33.383333	1	0.006250
33.400000	1	-0.001375
33.416667	1	-0.007500
33.433333	1	-0.013500
33.450000	1	-0.019000
33.466667	1	-0.024125
33.483333	1	-0.028875
33.500000	1	-0.033500
33.516667	1	-0.037000
33.533333	1	-0.041250
33.550000	1	-0.045250
33.566667	1	-0.048375
33.583333	1	-0.052375
33.600000	1	-0.055375
33.616667	1	-0.057750
33.633333	1	-0.060375
33.650000	1	-0.062500
33.666667	1	-0.064500
33.683333	1	-0.065875
33.700000	1	-0.067250
33.716667	1	-0.069125
33.733333	1	-0.070625
33.750000	1	-0.072625
33.766667	1	-0.073750
33.783333	1	-0.074750
33.800000	1	-0.075875
33.816667	1	-0.077000
33.833333	1	-0.077125
33.850000	1	-0.077500
33.866667	1	-0.078250
33.883333	1	-0.078625
33.900000	1	-0.079000
33.916667	1	-0.078750
33.933333	1	-0.079125
33.950000	1	-0.079000
33.966667	1	-0.078625
33.983333	1	-0.078250
34.000000	1	-0.077875
34.016667	1	-0.077375
34.033333	1	-0.076750
34.050000	1	-0.076000
34.066667	1	-0.075000
34.083333	1	-0.074000
34.100000	1	-0.073375
34.116667	1	-0.072000
34.133333	1	-0.070750
34.150000	1	-0.069500
34.166667	1	-0.068375
34.183333	1	-0.066500
34.200000	1	-0.065875
34.216667	1	-0.064375
34.233333	1	-0.062875
34.250000	1	-0.061500
34.266667	1	-0.059625
34.283333	1	-0.058250
34.300000	1	-0.056750
34.316667	1	-0.056125
34.333333	1	-0.054625
34.350000	1	-0.053125
34.366667	1	-0.051625
34.383333	1	-0.049625
34.400000	1	-0.047875
34.416667	1	-0.046875
34.433333	1	-0.045875
34.450000	1	-0.044250
34.466667	1	-0.042125
34.483333	1	-0.041500
34.500000	1	-0.040000
34.516667	1	-0.038500
34.533333	1	-0.037000
34.550000	1	-0.035625
34.566667	1	-0.034375
34.583333	1	-0.033000
34.600000	1	-0.031625
34.616667	1	-0.029750
34.633333	1	-0.029000
34.650000	1	-0.028000
34.666667	1	-0.027125
34.683333	1	-0.026750
34.700000	1	-0.026000
34.716667	1	-0.024750
34.733333	1	-0.023375
34.750000	1	-0.022750
34.766667	1	-0.022375
34.783333	1	-0.021625
34.800000	1	-0.021500
34.816667	1	-0.021250
34.833333	1	-0.021000
34.850000	1	-0.020625
34.866667	1	-0.020875
34.883333	1	-0.021375
34.900000	1	-0.021625
34.916667	1	-0.022000
34.933333	1	-0.023125
34.950000	1	-0.023375
34.966667	1	-0.024125
34.983333	1	-0.025000
35.000000	1	-0.025750
35.016667	1	-0.027000
35.033333	1	-0.028125
35.050000	1	-0.029375
35.066667	1	-0.030250
35.083333	1	-0.031500
35.100000	1	-0.033125
35.116667	1	-0.034875
35.133333	1	-0.036250
35.150000	1	-0.038000
35.166667	1	-0.039125
35.183333	1	-0.040000
35.200000	1	-0.041125
35.216667	1	-0.043000
35.233333	1	-0.044250
35.250000	1	-0.045250
35.266667	1	-0.046000
35.283333	1	-0.047250
35.300000	1	-0.047375
35.316667	1	-0.048375
35.333333	1	-0.048500
35.350000	1	-0.048375
35.366667	1	-0.048875
35.383333	1	-0.048875
35.400000	1	-0.049375
35.416667	1	-0.049000
35.433333	1	-0.048125
35.450000	1	-0.047875
35.466667	1	-0.047125
35.483333	1	-0.046375
35.500000	1	-0.045375
35.516667	1	-0.044375
35.533333	1	-0.042500
35.550000	1	-0.041500
35.566667	1	-0.039750
35.583333	1	-0.038375
35.600000	1	-0.037000
35.616667	1	-0.035375
35.633333	1	-0.033375
35.650000	1	-0.031625
35.666667	1	-0.029000
35.683333	1	-0.027250
35.700000	1	-0.024625
35.716667	1	-0.022000
35.733333	1	-0.019250
35.750000	1	-0.016375
35.766667	1	-0.012875
35.783333	1	-0.010750
35.800000	1	-0.007750
35.816667	1	-0.004500
35.833333	1	-0.000750
35.850000	1	0.002125
35.866667	1	0.005125
35.883333	1	0.008375
35.900000	1	0.010875
35.916667	1	0.014125
35.933333	1	0.017250
35.950000	1	0.020500
35.966667	1	0.024000
35.983333	1	0.027125
36.000000	1	0.030625
36.016667	1	0.034125
36.033333	1	0.037750
36.050000	1	0.041625
36.066667	1	0.044250
36.083333	1	0.047000
36.100000	1	0.050375
36.116667	1	0.054000
36.133333	1	0.056875
36.150000	1	0.059000
36.166667	1	0.062250
36.183333	1	0.065500
36.200000	1	0.068625
36.216667	1	0.071625
36.233333	1	0.074000
36.250000	1	0.076375
36.266667	1	0.079125
36.283333	1	0.080875
36.300000	1	0.082875
36.316667	1	0.085375
36.333333	1	0.087875
36.350000	1	0.090125
36.366667	1	0.092000
36.383333	1	0.093750
36.400000	1	0.095625
36.416667	1	0.097250
36.433333	1	0.099125
36.450000	1	0.101500
36.466667	1	0.103250
36.483333	1	0.104500
36.500000	1	0.106625
36.516667	1	0.108000
36.533333	1	0.109625
36.550000	1	0.111000
36.566667	1	0.112250
36.583333	1	0.113375
36.600000	1	0.114750
36.616667	1	0.116000
36.633333	1	0.116250
36.650000	1	0.117250
36.666667	1	0.118125
36.683333	1	0.119000
36.700000	1	0.119875
36.716667	1	0.119500
36.733333	1	0.119000
36.750000	1	0.118500
36.766667	1	0.118625
36.783333	1	0.117875
36.800000	1	0.117125
36.816667	1	0.116750
36.833333	1	0.116250
36.850000	1	0.115250
36.866667	1	0.114000
36.883333	1	0.113000
36.900000	1	0.111250
36.916667	1	0.109250
36.933333	1	0.107500
36.950000	1	0.105625
36.966667	1	0.103250
36.983333	1	0.100625
37.000000	1	0.098250
37.016667	1	0.095000
37.033333	1	0.091750
37.050000	1	0.088500
37.066667	1	0.085750
37.083333	1	0.081875
37.100000	1	0.077500
37.116667	1	0.073750
37.133333	1	0.070250
37.150000	1	0.065625
37.166667	1	0.061875
37.183333	1	0.057625
37.200000	1	0.053250
37.216667	1	0.048250
37.233333	1	0.044250
37.250000	1	0.038500
37.266667	1	0.033125
37.283333	1	0.028250
37.300000	1	0.022625
37.316667	1	0.017750
37.333333	1	0.012500
37.350000	1	0.007500
37.366667	1	0.002250
37.383333	1	-0.002750
37.400000	1	-0.008000
37.416667	1	-0.013625
37.433333	1	-0.019500
37.450000	1	-0.024500
37.466667	1	-0.029625
37.483333	1	-0.034875
37.500000	1	-0.040375
37.516667	1	-0.045250
37.533333	1	-0.050500
37.550000	1	-0.054875
37.566667	1	-0.060125
37.583333	1	-0.064500
37.600000	1	-0.068750
37.616667	1	-0.073125
37.633333	1	-0.077125
37.650000	1	-0.081125
37.666667	1	-0.085250
37.683333	1	-0.089250
37.700000	1	-0.092500
37.716667	1	-0.095250
37.733333	1	-0.098125
37.750000	1	-0.101000
37.766667	1	-0.103625
37.783333	1	-0.105875
37.800000	1	-0.107875
37.816667	1	-0.110000
37.833333	1	-0.111500
37.850000	1	-0.113375
37.866667	1	-0.115000
37.883333	1	-0.116250
37.900000	1	-0.117125
37.916667	1	-0.118625
37.933333	1	-0.120000
37.950000	1	-0.120750
37.966667	1	-0.121250
37.983333	1	-0.122000
38.000000	1	-0.123000
38.016667	1	-0.123875
38.033333	1	-0.124250
38.050000	1	-0.125125
38.066667	1	-0.124875
38.083333	1	-0.125625
38.100000	1	-0.125750
38.116667	1	-0.126125
38.133333	1	-0.126125
38.150000	1	-0.126625
38.166667	1	-0.127250
38.183333	1	-0.127500
38.200000	1	-0.127500
38.216667	1	-0.127375
38.233333	1	-0.128125
38.250000	1	-0.128625
38.266667	1	-0.128000
38.283333	1	-0.128375
38.300000	1	-0.128250
38.316667	1	-0.128875
38.333333	1	-0.129250
38.350000	1	-0.129500
38.366667	1	-0.130000
38.383333	1	-0.129000
38.400000	1	-0.129625
38.416667	1	-0.129875
38.433333	1	-0.129375
38.450000	1	-0.129375
38.466667	1	-0.129625
38.483333	1	-0.130000
38.500000	1	-0.130000
38.516667	1	-0.129750
38.533333	1	-0.130000
38.550000	1	-0.129375
38.566667	1	-0.128750
38.583333	1	-0.129000
38.600000	1	-0.129000
38.616667	1	-0.128750
38.633333	1	-0.128375
38.650000	1	-0.127625
38.666667	1	-0.127500
38.683333	1	-0.126875
38.700000	1	-0.126500
38.716667	1	-0.126375
38.733333	1	-0.126125
38.750000	1	-0.126250
38.766667	1	-0.125750
38.783333	1	-0.125625
38.800000	1	-0.125125
38.816667	1	-0.124625
38.833333	1	-0.124250
38.850000	1	-0.124375
38.866667	1	-0.124250
38.883333	1	-0.123875
38.900000	1	-0.123750
38.916667	1	-0.123625
38.933333	1	-0.123750
38.950000	1	-0.123875
38.966667	1	-0.124250
38.983333	1	-0.124125
39.000000	1	-0.124125
39.016667	1	-0.125375
39.033333	1	-0.125875
39.050000	1	-0.126125
39.066667	1	-0.126750
39.083333	1	-0.127500
39.100000	1	-0.128375
39.116667	1	-0.129000
39.133333	1	-0.130000
39.150000	1	-0.131250
39.166667	1	-0.132500
39.183333	1	-0.133250
39.200000	1	-0.134250
39.216667	1	-0.135375
39.233333	1	-0.136625
39.250000	1	-0.138000
39.266667	1	-0.139500
39.283333	1	-0.141625
39.300000	1	-0.143125
39.316667	1	-0.144125
39.333333	1	-0.145375
39.350000	1	-0.146375
39.366667	1	-0.147500
39.383333	1	-0.148375
39.400000	1	-0.149375
39.416667	1	-0.150625
39.433333	1	-0.151875
39.450000	1	-0.152625
39.466667	1	-0.153125
39.483333	1	-0.154125
39.500000	1	-0.154250
39.516667	1	-0.154875
39.533333	1	-0.155625
39.550000	1	-0.156000
39.566667	1	-0.156375
39.583333	1	-0.156625
39.600000	1	-0.156750
39.616667	1	-0.156125
39.633333	1	-0.156250
39.650000	1	-0.155625
39.666667	1	-0.155750
39.683333	1	-0.155375
39.700000	1	-0.153875
39.716667	1	-0.153000
39.733333	1	-0.152625
39.750000	1	-0.151875
39.766667	1	-0.150875
39.783333	1	-0.150250
39.800000	1	-0.149500
39.816667	1	-0.148125
39.833333	1	-0.146750
39.850000	1	-0.145875
39.866667	1	-0.144625
39.883333	1	-0.143750
39.900000	1	-0.142375
39.916667	1	-0.141250
39.933333	1	-0.139375
39.950000	1	-0.137875
39.966667	1	-0.135625
39.983333	1	-0.133750
40.000000	1	-0.132375
