File Path	chrom://marshall/Chromeleon7/HPLC_Ultimate_3000/Users/markusar/20230616_CMO_FP13_14_15.seq/881.smp/RI_1.channel/RI_1.chm
Channel	RI_1

Injection Information:
Data Vault	Chromeleon7
Injection	FP14_8_s4
Injection Number	12
Position	BD5
Comment	
Processing Method	
Instrument Method	run_25B_method
Type	Unknown
Status	Finished
Injection Date	16.06.2023
Injection Time	23:59:29
Injection Volume (µl)	20.000
Dilution Factor	1.0000
Weight	1.0000

Chromatogram Data Information:
Time Min. (min)	0.000000
Time Max. (min)	40.000000
Data Points	2401
Detector	RI
Generating Data System	Chromeleon 7.2.5.9507
Exporting Data System	Chromeleon 7.2.5.0
Operator	Instrument Controller
Signal Quantity	Refractive 
Signal Unit	µRIU
Signal Min.	-0.315625
Signal Max.	34.574625
Channel	RI_1
Driver Name	RID520Driver.dll
Channel Type	Evaluation
Min. Step (s)	1
Max. Step (s)	1
Average Step (s)	1

Signal Parameter Information:
Signal Info	

Chromatogram Data:
Time (min)	Step (s)	Value (µRIU)
0.000000	n.a.	0.040000
0.016667	1	0.039000
0.033333	1	0.037750
0.050000	1	0.036875
0.066667	1	0.036500
0.083333	1	0.035375
0.100000	1	0.034250
0.116667	1	0.033500
0.133333	1	0.032250
0.150000	1	0.031250
0.166667	1	0.030125
0.183333	1	0.029000
0.200000	1	0.027750
0.216667	1	0.026250
0.233333	1	0.024875
0.250000	1	0.023375
0.266667	1	0.022250
0.283333	1	0.020875
0.300000	1	0.019375
0.316667	1	0.018000
0.333333	1	0.016375
0.350000	1	0.015375
0.366667	1	0.014125
0.383333	1	0.012875
0.400000	1	0.011875
0.416667	1	0.009750
0.433333	1	0.007500
0.450000	1	0.003750
0.466667	1	0.000375
0.483333	1	-0.001375
0.500000	1	-0.001250
0.516667	1	0.000000
0.533333	1	0.002000
0.550000	1	0.004250
0.566667	1	0.005750
0.583333	1	0.007000
0.600000	1	0.008875
0.616667	1	0.009750
0.633333	1	0.011000
0.650000	1	0.011000
0.666667	1	0.009500
0.683333	1	0.007500
0.700000	1	0.005750
0.716667	1	0.004125
0.733333	1	0.002500
0.750000	1	0.001125
0.766667	1	0.000375
0.783333	1	0.000000
0.800000	1	-0.000125
0.816667	1	-0.000375
0.833333	1	-0.000625
0.850000	1	-0.001125
0.866667	1	-0.001250
0.883333	1	-0.001750
0.900000	1	-0.002125
0.916667	1	-0.002125
0.933333	1	-0.002000
0.950000	1	-0.001750
0.966667	1	-0.002000
0.983333	1	-0.001875
1.000000	1	-0.001875
1.016667	1	-0.001625
1.033333	1	-0.001750
1.050000	1	-0.002000
1.066667	1	-0.002500
1.083333	1	-0.002125
1.100000	1	-0.002375
1.116667	1	-0.002250
1.133333	1	-0.002500
1.150000	1	-0.002250
1.166667	1	-0.002000
1.183333	1	-0.002625
1.200000	1	-0.003625
1.216667	1	-0.003125
1.233333	1	-0.003625
1.250000	1	-0.004125
1.266667	1	-0.004625
1.283333	1	-0.005000
1.300000	1	-0.004875
1.316667	1	-0.005125
1.333333	1	-0.005250
1.350000	1	-0.005625
1.366667	1	-0.006250
1.383333	1	-0.007125
1.400000	1	-0.007250
1.416667	1	-0.008000
1.433333	1	-0.008125
1.450000	1	-0.008500
1.466667	1	-0.008875
1.483333	1	-0.009125
1.500000	1	-0.009125
1.516667	1	-0.009625
1.533333	1	-0.009625
1.550000	1	-0.009500
1.566667	1	-0.010000
1.583333	1	-0.009625
1.600000	1	-0.009625
1.616667	1	-0.009750
1.633333	1	-0.010500
1.650000	1	-0.010750
1.666667	1	-0.010750
1.683333	1	-0.009750
1.700000	1	-0.010000
1.716667	1	-0.010625
1.733333	1	-0.010250
1.750000	1	-0.009875
1.766667	1	-0.009500
1.783333	1	-0.009375
1.800000	1	-0.009375
1.816667	1	-0.008375
1.833333	1	-0.008250
1.850000	1	-0.007750
1.866667	1	-0.007000
1.883333	1	-0.006250
1.900000	1	-0.005875
1.916667	1	-0.005125
1.933333	1	-0.004750
1.950000	1	-0.004250
1.966667	1	-0.003000
1.983333	1	-0.002500
2.000000	1	-0.001125
2.016667	1	-0.000500
2.033333	1	-0.000250
2.050000	1	0.000250
2.066667	1	0.000500
2.083333	1	0.001000
2.100000	1	0.002125
2.116667	1	0.002375
2.133333	1	0.003750
2.150000	1	0.004250
2.166667	1	0.005750
2.183333	1	0.006375
2.200000	1	0.006375
2.216667	1	0.006375
2.233333	1	0.007250
2.250000	1	0.007375
2.266667	1	0.008000
2.283333	1	0.008250
2.300000	1	0.008750
2.316667	1	0.008250
2.333333	1	0.008250
2.350000	1	0.009000
2.366667	1	0.009500
2.383333	1	0.009750
2.400000	1	0.009500
2.416667	1	0.009500
2.433333	1	0.009250
2.450000	1	0.009250
2.466667	1	0.009125
2.483333	1	0.008750
2.500000	1	0.008875
2.516667	1	0.008750
2.533333	1	0.008000
2.550000	1	0.008250
2.566667	1	0.007500
2.583333	1	0.008000
2.600000	1	0.007500
2.616667	1	0.007625
2.633333	1	0.007250
2.650000	1	0.007500
2.666667	1	0.007125
2.683333	1	0.007375
2.700000	1	0.007250
2.716667	1	0.006875
2.733333	1	0.007000
2.750000	1	0.006875
2.766667	1	0.006625
2.783333	1	0.006125
2.800000	1	0.006000
2.816667	1	0.005000
2.833333	1	0.005250
2.850000	1	0.005125
2.866667	1	0.005125
2.883333	1	0.004875
2.900000	1	0.005250
2.916667	1	0.005875
2.933333	1	0.005375
2.950000	1	0.005625
2.966667	1	0.006375
2.983333	1	0.006750
3.000000	1	0.006750
3.016667	1	0.007000
3.033333	1	0.007625
3.050000	1	0.008500
3.066667	1	0.009125
3.083333	1	0.010250
3.100000	1	0.010625
3.116667	1	0.010625
3.133333	1	0.011250
3.150000	1	0.011750
3.166667	1	0.012250
3.183333	1	0.012500
3.200000	1	0.013125
3.216667	1	0.013625
3.233333	1	0.014625
3.250000	1	0.015125
3.266667	1	0.015875
3.283333	1	0.016375
3.300000	1	0.017250
3.316667	1	0.017375
3.333333	1	0.017500
3.350000	1	0.017625
3.366667	1	0.018125
3.383333	1	0.018750
3.400000	1	0.018625
3.416667	1	0.018875
3.433333	1	0.019250
3.450000	1	0.019000
3.466667	1	0.019000
3.483333	1	0.019500
3.500000	1	0.019125
3.516667	1	0.019375
3.533333	1	0.019625
3.550000	1	0.019750
3.566667	1	0.019750
3.583333	1	0.018750
3.600000	1	0.018625
3.616667	1	0.018750
3.633333	1	0.018875
3.650000	1	0.019000
3.666667	1	0.018250
3.683333	1	0.018500
3.700000	1	0.018500
3.716667	1	0.018625
3.733333	1	0.018875
3.750000	1	0.018750
3.766667	1	0.018000
3.783333	1	0.017375
3.800000	1	0.017500
3.816667	1	0.017625
3.833333	1	0.017250
3.850000	1	0.017125
3.866667	1	0.017250
3.883333	1	0.017000
3.900000	1	0.016375
3.916667	1	0.016000
3.933333	1	0.015625
3.950000	1	0.015750
3.966667	1	0.015000
3.983333	1	0.014500
4.000000	1	0.013500
4.016667	1	0.013750
4.033333	1	0.013250
4.050000	1	0.013125
4.066667	1	0.013000
4.083333	1	0.012125
4.100000	1	0.011500
4.116667	1	0.011375
4.133333	1	0.010500
4.150000	1	0.010125
4.166667	1	0.010375
4.183333	1	0.009750
4.200000	1	0.008875
4.216667	1	0.008125
4.233333	1	0.007750
4.250000	1	0.007750
4.266667	1	0.007500
4.283333	1	0.007000
4.300000	1	0.007250
4.316667	1	0.007250
4.333333	1	0.006375
4.350000	1	0.006375
4.366667	1	0.006375
4.383333	1	0.006375
4.400000	1	0.005625
4.416667	1	0.005000
4.433333	1	0.004750
4.450000	1	0.005250
4.466667	1	0.005125
4.483333	1	0.005250
4.500000	1	0.005250
4.516667	1	0.005250
4.533333	1	0.005250
4.550000	1	0.005250
4.566667	1	0.004625
4.583333	1	0.004750
4.600000	1	0.004250
4.616667	1	0.004500
4.633333	1	0.005000
4.650000	1	0.005250
4.666667	1	0.005500
4.683333	1	0.006500
4.700000	1	0.006875
4.716667	1	0.007875
4.733333	1	0.008625
4.750000	1	0.008750
4.766667	1	0.009375
4.783333	1	0.010250
4.800000	1	0.011000
4.816667	1	0.012125
4.833333	1	0.012875
4.850000	1	0.013625
4.866667	1	0.014625
4.883333	1	0.015750
4.900000	1	0.016500
4.916667	1	0.018250
4.933333	1	0.019125
4.950000	1	0.020125
4.966667	1	0.022250
4.983333	1	0.023750
5.000000	1	0.025000
5.016667	1	0.026000
5.033333	1	0.027375
5.050000	1	0.029000
5.066667	1	0.031250
5.083333	1	0.033625
5.100000	1	0.035500
5.116667	1	0.037875
5.133333	1	0.039875
5.150000	1	0.041750
5.166667	1	0.043500
5.183333	1	0.046875
5.200000	1	0.049000
5.216667	1	0.051500
5.233333	1	0.054625
5.250000	1	0.057625
5.266667	1	0.060500
5.283333	1	0.063625
5.300000	1	0.066250
5.316667	1	0.068625
5.333333	1	0.071250
5.350000	1	0.074000
5.366667	1	0.076875
5.383333	1	0.080375
5.400000	1	0.083375
5.416667	1	0.086500
5.433333	1	0.089750
5.450000	1	0.091875
5.466667	1	0.094750
5.483333	1	0.097750
5.500000	1	0.100625
5.516667	1	0.102750
5.533333	1	0.104875
5.550000	1	0.106875
5.566667	1	0.108500
5.583333	1	0.109750
5.600000	1	0.111500
5.616667	1	0.113000
5.633333	1	0.113750
5.650000	1	0.114000
5.666667	1	0.115500
5.683333	1	0.116500
5.700000	1	0.117250
5.716667	1	0.117875
5.733333	1	0.117875
5.750000	1	0.117125
5.766667	1	0.117000
5.783333	1	0.116750
5.800000	1	0.116250
5.816667	1	0.115625
5.833333	1	0.114750
5.850000	1	0.113625
5.866667	1	0.112500
5.883333	1	0.110750
5.900000	1	0.109125
5.916667	1	0.107250
5.933333	1	0.106000
5.950000	1	0.104875
5.966667	1	0.102875
5.983333	1	0.101000
6.000000	1	0.099250
6.016667	1	0.097750
6.033333	1	0.096000
6.050000	1	0.094750
6.066667	1	0.092750
6.083333	1	0.091375
6.100000	1	0.089125
6.116667	1	0.087375
6.133333	1	0.085375
6.150000	1	0.083500
6.166667	1	0.082000
6.183333	1	0.079625
6.200000	1	0.078625
6.216667	1	0.076750
6.233333	1	0.075125
6.250000	1	0.074500
6.266667	1	0.073250
6.283333	1	0.071875
6.300000	1	0.071500
6.316667	1	0.071125
6.333333	1	0.070375
6.350000	1	0.069875
6.366667	1	0.068875
6.383333	1	0.068125
6.400000	1	0.067500
6.416667	1	0.066750
6.433333	1	0.066250
6.450000	1	0.065875
6.466667	1	0.065000
6.483333	1	0.065000
6.500000	1	0.064625
6.516667	1	0.064500
6.533333	1	0.064500
6.550000	1	0.064875
6.566667	1	0.064875
6.583333	1	0.065500
6.600000	1	0.065750
6.616667	1	0.066750
6.633333	1	0.067000
6.650000	1	0.067875
6.666667	1	0.068125
6.683333	1	0.069000
6.700000	1	0.069750
6.716667	1	0.070375
6.733333	1	0.071625
6.750000	1	0.072375
6.766667	1	0.073500
6.783333	1	0.074625
6.800000	1	0.075500
6.816667	1	0.077000
6.833333	1	0.078250
6.850000	1	0.080125
6.866667	1	0.082250
6.883333	1	0.083625
6.900000	1	0.084750
6.916667	1	0.085250
6.933333	1	0.086750
6.950000	1	0.088500
6.966667	1	0.090250
6.983333	1	0.092000
7.000000	1	0.093250
7.016667	1	0.094000
7.033333	1	0.095875
7.050000	1	0.097625
7.066667	1	0.099125
7.083333	1	0.100000
7.100000	1	0.101500
7.116667	1	0.102625
7.133333	1	0.103875
7.150000	1	0.104875
7.166667	1	0.106250
7.183333	1	0.106500
7.200000	1	0.107625
7.216667	1	0.108250
7.233333	1	0.108500
7.250000	1	0.109000
7.266667	1	0.109125
7.283333	1	0.108875
7.300000	1	0.109250
7.316667	1	0.108625
7.333333	1	0.108750
7.350000	1	0.108000
7.366667	1	0.106875
7.383333	1	0.106625
7.400000	1	0.106125
7.416667	1	0.105250
7.433333	1	0.103875
7.450000	1	0.103000
7.466667	1	0.102500
7.483333	1	0.100875
7.500000	1	0.099625
7.516667	1	0.098125
7.533333	1	0.096625
7.550000	1	0.094625
7.566667	1	0.092875
7.583333	1	0.091125
7.600000	1	0.089375
7.616667	1	0.087750
7.633333	1	0.086125
7.650000	1	0.084000
7.666667	1	0.081875
7.683333	1	0.079625
7.700000	1	0.077250
7.716667	1	0.074875
7.733333	1	0.073000
7.750000	1	0.070625
7.766667	1	0.069000
7.783333	1	0.066750
7.800000	1	0.065000
7.816667	1	0.062750
7.833333	1	0.060250
7.850000	1	0.057750
7.866667	1	0.055500
7.883333	1	0.053375
7.900000	1	0.051000
7.916667	1	0.049250
7.933333	1	0.047375
7.950000	1	0.045750
7.966667	1	0.044000
7.983333	1	0.041750
8.000000	1	0.040000
8.016667	1	0.038125
8.033333	1	0.035875
8.050000	1	0.034375
8.066667	1	0.032500
8.083333	1	0.030875
8.100000	1	0.029125
8.116667	1	0.027875
8.133333	1	0.026125
8.150000	1	0.024750
8.166667	1	0.023375
8.183333	1	0.022250
8.200000	1	0.021500
8.216667	1	0.019875
8.233333	1	0.018750
8.250000	1	0.018250
8.266667	1	0.017625
8.283333	1	0.016750
8.300000	1	0.015750
8.316667	1	0.015250
8.333333	1	0.014875
8.350000	1	0.014125
8.366667	1	0.013500
8.383333	1	0.013750
8.400000	1	0.013875
8.416667	1	0.014375
8.433333	1	0.015000
8.450000	1	0.015500
8.466667	1	0.016250
8.483333	1	0.016500
8.500000	1	0.017250
8.516667	1	0.017750
8.533333	1	0.018125
8.550000	1	0.018750
8.566667	1	0.019375
8.583333	1	0.020125
8.600000	1	0.021625
8.616667	1	0.024000
8.633333	1	0.025250
8.650000	1	0.026750
8.666667	1	0.028250
8.683333	1	0.029250
8.700000	1	0.030750
8.716667	1	0.033250
8.733333	1	0.034500
8.750000	1	0.036375
8.766667	1	0.038250
8.783333	1	0.039625
8.800000	1	0.042375
8.816667	1	0.045000
8.833333	1	0.046375
8.850000	1	0.048625
8.866667	1	0.050500
8.883333	1	0.052250
8.900000	1	0.054125
8.916667	1	0.055875
8.933333	1	0.058125
8.950000	1	0.060250
8.966667	1	0.062250
8.983333	1	0.064625
9.000000	1	0.066625
9.016667	1	0.068500
9.033333	1	0.070125
9.050000	1	0.071750
9.066667	1	0.074000
9.083333	1	0.075625
9.100000	1	0.077500
9.116667	1	0.079875
9.133333	1	0.081375
9.150000	1	0.083000
9.166667	1	0.084875
9.183333	1	0.086875
9.200000	1	0.088250
9.216667	1	0.089750
9.233333	1	0.091375
9.250000	1	0.093125
9.266667	1	0.095000
9.283333	1	0.096250
9.300000	1	0.098000
9.316667	1	0.099500
9.333333	1	0.101000
9.350000	1	0.102500
9.366667	1	0.104250
9.383333	1	0.105375
9.400000	1	0.107000
9.416667	1	0.109125
9.433333	1	0.111500
9.450000	1	0.113875
9.466667	1	0.115875
9.483333	1	0.118625
9.500000	1	0.121500
9.516667	1	0.126125
9.533333	1	0.130500
9.550000	1	0.135375
9.566667	1	0.140625
9.583333	1	0.146625
9.600000	1	0.153625
9.616667	1	0.160750
9.633333	1	0.168125
9.650000	1	0.175875
9.666667	1	0.183375
9.683333	1	0.190500
9.700000	1	0.196625
9.716667	1	0.201250
9.733333	1	0.203625
9.750000	1	0.204250
9.766667	1	0.202125
9.783333	1	0.199250
9.800000	1	0.195875
9.816667	1	0.194125
9.833333	1	0.198750
9.850000	1	0.211500
9.866667	1	0.240125
9.883333	1	0.290375
9.900000	1	0.369750
9.916667	1	0.486250
9.933333	1	0.652000
9.950000	1	0.879875
9.966667	1	1.184875
9.983333	1	1.586250
10.000000	1	2.107750
10.016667	1	2.771125
10.033333	1	3.602250
10.050000	1	4.617875
10.066667	1	5.834125
10.083333	1	7.258125
10.100000	1	8.890125
10.116667	1	10.719500
10.133333	1	12.725625
10.150000	1	14.875750
10.166667	1	17.124125
10.183333	1	19.416250
10.200000	1	21.688125
10.216667	1	23.869375
10.233333	1	25.883250
10.250000	1	27.653875
10.266667	1	29.113000
10.283333	1	30.202375
10.300000	1	30.883875
10.316667	1	31.140125
10.333333	1	30.981375
10.350000	1	30.445125
10.366667	1	29.590250
10.383333	1	28.489250
10.400000	1	27.220500
10.416667	1	25.854125
10.433333	1	24.452750
10.450000	1	23.062625
10.466667	1	21.713125
10.483333	1	20.421750
10.500000	1	19.194250
10.516667	1	18.031875
10.533333	1	16.931750
10.550000	1	15.888000
10.566667	1	14.896250
10.583333	1	13.949500
10.600000	1	13.044500
10.616667	1	12.177375
10.633333	1	11.346500
10.650000	1	10.550875
10.666667	1	9.790000
10.683333	1	9.065375
10.700000	1	8.376500
10.716667	1	7.727125
10.733333	1	7.117500
10.750000	1	6.550000
10.766667	1	6.026250
10.783333	1	5.546875
10.800000	1	5.111000
10.816667	1	4.718000
10.833333	1	4.366000
10.850000	1	4.052000
10.866667	1	3.773875
10.883333	1	3.527000
10.900000	1	3.308875
10.916667	1	3.116250
10.933333	1	2.945125
10.950000	1	2.794125
10.966667	1	2.660000
10.983333	1	2.540000
11.000000	1	2.432750
11.016667	1	2.336875
11.033333	1	2.249875
11.050000	1	2.171375
11.066667	1	2.099125
11.083333	1	2.033125
11.100000	1	1.972500
11.116667	1	1.916250
11.133333	1	1.863250
11.150000	1	1.814250
11.166667	1	1.768875
11.183333	1	1.725500
11.200000	1	1.684750
11.216667	1	1.646125
11.233333	1	1.609625
11.250000	1	1.575500
11.266667	1	1.542625
11.283333	1	1.510750
11.300000	1	1.480875
11.316667	1	1.450875
11.333333	1	1.423250
11.350000	1	1.395750
11.366667	1	1.369875
11.383333	1	1.344625
11.400000	1	1.320375
11.416667	1	1.297000
11.433333	1	1.274500
11.450000	1	1.253750
11.466667	1	1.233875
11.483333	1	1.214750
11.500000	1	1.196375
11.516667	1	1.179375
11.533333	1	1.163375
11.550000	1	1.148750
11.566667	1	1.135500
11.583333	1	1.122875
11.600000	1	1.110875
11.616667	1	1.099625
11.633333	1	1.089375
11.650000	1	1.079875
11.666667	1	1.070750
11.683333	1	1.062000
11.700000	1	1.054500
11.716667	1	1.047625
11.733333	1	1.041125
11.750000	1	1.034375
11.766667	1	1.028375
11.783333	1	1.023000
11.800000	1	1.017750
11.816667	1	1.013000
11.833333	1	1.009000
11.850000	1	1.005250
11.866667	1	1.003125
11.883333	1	1.002000
11.900000	1	1.001625
11.916667	1	1.001750
11.933333	1	1.003750
11.950000	1	1.008250
11.966667	1	1.014375
11.983333	1	1.021625
12.000000	1	1.031750
12.016667	1	1.044875
12.033333	1	1.060625
12.050000	1	1.079000
12.066667	1	1.100625
12.083333	1	1.125625
12.100000	1	1.154750
12.116667	1	1.188875
12.133333	1	1.227875
12.150000	1	1.272375
12.166667	1	1.324000
12.183333	1	1.384250
12.200000	1	1.453250
12.216667	1	1.531875
12.233333	1	1.622000
12.250000	1	1.726125
12.266667	1	1.844750
12.283333	1	1.979500
12.300000	1	2.132250
12.316667	1	2.305000
12.333333	1	2.497750
12.350000	1	2.712375
12.366667	1	2.951000
12.383333	1	3.214125
12.400000	1	3.503375
12.416667	1	3.818000
12.433333	1	4.158125
12.450000	1	4.520750
12.466667	1	4.904750
12.483333	1	5.304875
12.500000	1	5.715250
12.516667	1	6.129875
12.533333	1	6.541250
12.550000	1	6.941500
12.566667	1	7.323000
12.583333	1	7.679375
12.600000	1	8.005625
12.616667	1	8.295750
12.633333	1	8.548250
12.650000	1	8.761625
12.666667	1	8.935125
12.683333	1	9.069750
12.700000	1	9.168125
12.716667	1	9.231750
12.733333	1	9.264500
12.750000	1	9.268875
12.766667	1	9.248375
12.783333	1	9.207500
12.800000	1	9.149375
12.816667	1	9.077000
12.833333	1	8.993750
12.850000	1	8.900625
12.866667	1	8.800375
12.883333	1	8.694750
12.900000	1	8.583875
12.916667	1	8.468375
12.933333	1	8.348625
12.950000	1	8.224625
12.966667	1	8.096875
12.983333	1	7.963500
13.000000	1	7.825250
13.016667	1	7.681375
13.033333	1	7.530000
13.050000	1	7.371125
13.066667	1	7.203500
13.083333	1	7.026250
13.100000	1	6.837625
13.116667	1	6.636625
13.133333	1	6.423375
13.150000	1	6.196000
13.166667	1	5.953500
13.183333	1	5.693750
13.200000	1	5.416250
13.216667	1	5.119250
13.233333	1	4.801750
13.250000	1	4.464250
13.266667	1	4.107875
13.283333	1	3.741000
13.300000	1	3.374000
13.316667	1	3.023250
13.333333	1	2.703750
13.350000	1	2.425000
13.366667	1	2.189250
13.383333	1	1.994250
13.400000	1	1.835000
13.416667	1	1.705000
13.433333	1	1.598375
13.450000	1	1.510250
13.466667	1	1.437000
13.483333	1	1.375000
13.500000	1	1.321875
13.516667	1	1.276500
13.533333	1	1.236375
13.550000	1	1.201500
13.566667	1	1.171250
13.583333	1	1.144250
13.600000	1	1.119500
13.616667	1	1.097750
13.633333	1	1.079125
13.650000	1	1.062875
13.666667	1	1.047125
13.683333	1	1.033375
13.700000	1	1.020125
13.716667	1	1.008625
13.733333	1	0.998125
13.750000	1	0.987125
13.766667	1	0.976625
13.783333	1	0.965250
13.800000	1	0.954375
13.816667	1	0.943500
13.833333	1	0.932500
13.850000	1	0.920250
13.866667	1	0.908125
13.883333	1	0.895750
13.900000	1	0.884000
13.916667	1	0.871750
13.933333	1	0.859500
13.950000	1	0.847750
13.966667	1	0.835750
13.983333	1	0.824250
14.000000	1	0.813375
14.016667	1	0.803250
14.033333	1	0.793750
14.050000	1	0.785500
14.066667	1	0.779000
14.083333	1	0.774125
14.100000	1	0.770375
14.116667	1	0.768625
14.133333	1	0.769500
14.150000	1	0.774000
14.166667	1	0.780750
14.183333	1	0.791625
14.200000	1	0.805750
14.216667	1	0.823875
14.233333	1	0.846625
14.250000	1	0.875000
14.266667	1	0.909000
14.283333	1	0.949750
14.300000	1	0.997625
14.316667	1	1.053625
14.333333	1	1.118750
14.350000	1	1.193375
14.366667	1	1.278125
14.383333	1	1.373750
14.400000	1	1.482000
14.416667	1	1.604000
14.433333	1	1.739875
14.450000	1	1.891500
14.466667	1	2.060000
14.483333	1	2.245750
14.500000	1	2.450250
14.516667	1	2.675375
14.533333	1	2.922500
14.550000	1	3.194750
14.566667	1	3.494000
14.583333	1	3.824250
14.600000	1	4.190375
14.616667	1	4.597625
14.633333	1	5.056375
14.650000	1	5.576250
14.666667	1	6.168625
14.683333	1	6.847750
14.700000	1	7.629250
14.716667	1	8.528250
14.733333	1	9.558625
14.750000	1	10.733125
14.766667	1	12.058125
14.783333	1	13.533750
14.800000	1	15.154125
14.816667	1	16.905125
14.833333	1	18.764625
14.850000	1	20.700125
14.866667	1	22.671250
14.883333	1	24.631625
14.900000	1	26.529750
14.916667	1	28.317125
14.933333	1	29.943625
14.950000	1	31.367250
14.966667	1	32.553875
14.983333	1	33.478125
15.000000	1	34.124875
15.016667	1	34.488875
15.033333	1	34.574625
15.050000	1	34.394375
15.066667	1	33.966750
15.083333	1	33.317250
15.100000	1	32.474875
15.116667	1	31.470375
15.133333	1	30.333875
15.150000	1	29.096125
15.166667	1	27.785500
15.183333	1	26.428250
15.200000	1	25.046250
15.216667	1	23.657250
15.233333	1	22.278250
15.250000	1	20.923000
15.266667	1	19.600750
15.283333	1	18.321750
15.300000	1	17.092000
15.316667	1	15.915625
15.333333	1	14.796375
15.350000	1	13.734625
15.366667	1	12.732500
15.383333	1	11.789625
15.400000	1	10.904625
15.416667	1	10.076750
15.433333	1	9.303500
15.450000	1	8.585125
15.466667	1	7.918625
15.483333	1	7.303125
15.500000	1	6.737750
15.516667	1	6.220000
15.533333	1	5.748500
15.550000	1	5.320125
15.566667	1	4.933625
15.583333	1	4.585500
15.600000	1	4.273125
15.616667	1	3.994125
15.633333	1	3.744750
15.650000	1	3.522250
15.666667	1	3.323500
15.683333	1	3.145375
15.700000	1	2.986000
15.716667	1	2.842875
15.733333	1	2.715250
15.750000	1	2.600125
15.766667	1	2.495250
15.783333	1	2.399750
15.800000	1	2.312250
15.816667	1	2.231375
15.833333	1	2.157625
15.850000	1	2.088125
15.866667	1	2.023375
15.883333	1	1.963000
15.900000	1	1.907250
15.916667	1	1.853500
15.933333	1	1.803375
15.950000	1	1.755750
15.966667	1	1.710125
15.983333	1	1.667250
16.000000	1	1.626625
16.016667	1	1.588375
16.033333	1	1.551125
16.050000	1	1.515750
16.066667	1	1.482625
16.083333	1	1.451250
16.100000	1	1.421750
16.116667	1	1.393500
16.133333	1	1.367125
16.150000	1	1.342000
16.166667	1	1.318875
16.183333	1	1.296875
16.200000	1	1.276125
16.216667	1	1.256875
16.233333	1	1.238500
16.250000	1	1.221500
16.266667	1	1.205875
16.283333	1	1.190500
16.300000	1	1.175625
16.316667	1	1.161750
16.333333	1	1.148250
16.350000	1	1.135375
16.366667	1	1.123625
16.383333	1	1.111875
16.400000	1	1.101000
16.416667	1	1.090500
16.433333	1	1.079875
16.450000	1	1.070250
16.466667	1	1.060750
16.483333	1	1.051875
16.500000	1	1.043625
16.516667	1	1.035500
16.533333	1	1.027875
16.550000	1	1.020625
16.566667	1	1.013875
16.583333	1	1.008250
16.600000	1	1.002125
16.616667	1	0.996875
16.633333	1	0.992500
16.650000	1	0.988500
16.666667	1	0.984750
16.683333	1	0.980875
16.700000	1	0.977375
16.716667	1	0.975000
16.733333	1	0.972250
16.750000	1	0.969875
16.766667	1	0.968000
16.783333	1	0.966500
16.800000	1	0.965500
16.816667	1	0.964875
16.833333	1	0.964125
16.850000	1	0.963625
16.866667	1	0.963000
16.883333	1	0.962500
16.900000	1	0.961250
16.916667	1	0.960750
16.933333	1	0.959500
16.950000	1	0.958125
16.966667	1	0.956625
16.983333	1	0.955750
17.000000	1	0.954625
17.016667	1	0.953375
17.033333	1	0.952625
17.050000	1	0.951375
17.066667	1	0.950625
17.083333	1	0.949000
17.100000	1	0.948000
17.116667	1	0.947000
17.133333	1	0.945625
17.150000	1	0.943375
17.166667	1	0.941250
17.183333	1	0.938000
17.200000	1	0.934750
17.216667	1	0.930625
17.233333	1	0.926250
17.250000	1	0.921625
17.266667	1	0.916500
17.283333	1	0.911250
17.300000	1	0.905375
17.316667	1	0.899000
17.333333	1	0.892625
17.350000	1	0.886000
17.366667	1	0.880375
17.383333	1	0.874125
17.400000	1	0.867500
17.416667	1	0.860625
17.433333	1	0.854625
17.450000	1	0.848750
17.466667	1	0.842750
17.483333	1	0.837750
17.500000	1	0.833625
17.516667	1	0.830625
17.533333	1	0.827500
17.550000	1	0.825250
17.566667	1	0.823125
17.583333	1	0.822250
17.600000	1	0.821625
17.616667	1	0.821750
17.633333	1	0.822500
17.650000	1	0.824750
17.666667	1	0.827000
17.683333	1	0.830625
17.700000	1	0.834375
17.716667	1	0.839625
17.733333	1	0.844375
17.750000	1	0.850500
17.766667	1	0.856375
17.783333	1	0.863250
17.800000	1	0.870375
17.816667	1	0.877375
17.833333	1	0.885375
17.850000	1	0.893250
17.866667	1	0.901250
17.883333	1	0.908625
17.900000	1	0.915375
17.916667	1	0.921625
17.933333	1	0.926750
17.950000	1	0.931750
17.966667	1	0.935500
17.983333	1	0.937750
18.000000	1	0.939000
18.016667	1	0.938750
18.033333	1	0.938000
18.050000	1	0.935500
18.066667	1	0.932375
18.083333	1	0.927625
18.100000	1	0.922375
18.116667	1	0.915750
18.133333	1	0.908000
18.150000	1	0.899375
18.166667	1	0.890000
18.183333	1	0.880125
18.200000	1	0.869750
18.216667	1	0.859375
18.233333	1	0.848375
18.250000	1	0.837000
18.266667	1	0.826250
18.283333	1	0.815500
18.300000	1	0.804375
18.316667	1	0.793375
18.333333	1	0.782875
18.350000	1	0.773125
18.366667	1	0.763250
18.383333	1	0.754000
18.400000	1	0.745375
18.416667	1	0.737875
18.433333	1	0.730500
18.450000	1	0.723500
18.466667	1	0.717250
18.483333	1	0.711500
18.500000	1	0.707000
18.516667	1	0.702375
18.533333	1	0.698000
18.550000	1	0.694500
18.566667	1	0.690750
18.583333	1	0.687750
18.600000	1	0.685125
18.616667	1	0.683500
18.633333	1	0.682125
18.650000	1	0.681125
18.666667	1	0.681375
18.683333	1	0.681875
18.700000	1	0.682250
18.716667	1	0.683500
18.733333	1	0.685625
18.750000	1	0.687750
18.766667	1	0.690375
18.783333	1	0.694000
18.800000	1	0.697500
18.816667	1	0.702500
18.833333	1	0.706875
18.850000	1	0.712375
18.866667	1	0.717875
18.883333	1	0.724375
18.900000	1	0.730875
18.916667	1	0.738000
18.933333	1	0.745875
18.950000	1	0.754250
18.966667	1	0.763125
18.983333	1	0.773500
19.000000	1	0.784625
19.016667	1	0.797125
19.033333	1	0.812000
19.050000	1	0.828250
19.066667	1	0.845375
19.083333	1	0.864375
19.100000	1	0.884625
19.116667	1	0.906375
19.133333	1	0.930250
19.150000	1	0.954625
19.166667	1	0.981000
19.183333	1	1.008500
19.200000	1	1.036125
19.216667	1	1.064500
19.233333	1	1.092375
19.250000	1	1.119375
19.266667	1	1.145250
19.283333	1	1.169500
19.300000	1	1.191750
19.316667	1	1.210625
19.333333	1	1.226875
19.350000	1	1.240500
19.366667	1	1.250625
19.383333	1	1.257625
19.400000	1	1.260375
19.416667	1	1.260250
19.433333	1	1.256250
19.450000	1	1.248625
19.466667	1	1.238125
19.483333	1	1.225375
19.500000	1	1.209625
19.516667	1	1.191250
19.533333	1	1.171625
19.550000	1	1.150625
19.566667	1	1.128125
19.583333	1	1.105000
19.600000	1	1.082000
19.616667	1	1.058000
19.633333	1	1.034500
19.650000	1	1.013000
19.666667	1	0.992000
19.683333	1	0.972750
19.700000	1	0.954500
19.716667	1	0.938750
19.733333	1	0.924875
19.750000	1	0.913125
19.766667	1	0.904250
19.783333	1	0.898125
19.800000	1	0.895000
19.816667	1	0.894375
19.833333	1	0.896000
19.850000	1	0.899750
19.866667	1	0.906000
19.883333	1	0.915750
19.900000	1	0.927500
19.916667	1	0.940750
19.933333	1	0.955875
19.950000	1	0.972375
19.966667	1	0.990125
19.983333	1	1.008750
20.000000	1	1.028250
20.016667	1	1.048875
20.033333	1	1.070375
20.050000	1	1.092250
20.066667	1	1.114750
20.083333	1	1.138000
20.100000	1	1.161500
20.116667	1	1.185875
20.133333	1	1.212000
20.150000	1	1.240000
20.166667	1	1.270250
20.183333	1	1.303500
20.200000	1	1.339500
20.216667	1	1.378625
20.233333	1	1.422000
20.250000	1	1.470125
20.266667	1	1.523250
20.283333	1	1.581625
20.300000	1	1.645000
20.316667	1	1.714875
20.333333	1	1.790000
20.350000	1	1.870000
20.366667	1	1.954750
20.383333	1	2.043000
20.400000	1	2.132750
20.416667	1	2.223375
20.433333	1	2.313250
20.450000	1	2.400875
20.466667	1	2.484000
20.483333	1	2.560625
20.500000	1	2.629000
20.516667	1	2.687500
20.533333	1	2.735000
20.550000	1	2.771000
20.566667	1	2.794625
20.583333	1	2.805000
20.600000	1	2.803125
20.616667	1	2.788750
20.633333	1	2.762375
20.650000	1	2.723500
20.666667	1	2.675375
20.683333	1	2.618125
20.700000	1	2.552750
20.716667	1	2.480625
20.733333	1	2.404625
20.750000	1	2.323625
20.766667	1	2.239750
20.783333	1	2.154000
20.800000	1	2.066875
20.816667	1	1.979875
20.833333	1	1.893250
20.850000	1	1.808375
20.866667	1	1.725500
20.883333	1	1.644625
20.900000	1	1.566375
20.916667	1	1.491375
20.933333	1	1.419500
20.950000	1	1.350500
20.966667	1	1.284375
20.983333	1	1.222500
21.000000	1	1.163000
21.016667	1	1.107000
21.033333	1	1.054375
21.050000	1	1.004125
21.066667	1	0.957375
21.083333	1	0.913125
21.100000	1	0.872375
21.116667	1	0.833875
21.133333	1	0.798125
21.150000	1	0.764500
21.166667	1	0.734250
21.183333	1	0.706000
21.200000	1	0.679625
21.216667	1	0.655500
21.233333	1	0.633625
21.250000	1	0.613375
21.266667	1	0.595125
21.283333	1	0.578250
21.300000	1	0.562625
21.316667	1	0.549000
21.333333	1	0.535875
21.350000	1	0.524500
21.366667	1	0.514750
21.383333	1	0.504625
21.400000	1	0.496375
21.416667	1	0.489625
21.433333	1	0.483000
21.450000	1	0.477500
21.466667	1	0.473000
21.483333	1	0.470625
21.500000	1	0.467750
21.516667	1	0.465875
21.533333	1	0.465500
21.550000	1	0.465500
21.566667	1	0.466375
21.583333	1	0.468625
21.600000	1	0.471125
21.616667	1	0.475000
21.633333	1	0.480000
21.650000	1	0.485875
21.666667	1	0.492875
21.683333	1	0.500625
21.700000	1	0.509000
21.716667	1	0.518875
21.733333	1	0.530000
21.750000	1	0.542875
21.766667	1	0.556500
21.783333	1	0.572125
21.800000	1	0.589375
21.816667	1	0.607875
21.833333	1	0.628375
21.850000	1	0.649750
21.866667	1	0.671625
21.883333	1	0.694625
21.900000	1	0.719750
21.916667	1	0.744500
21.933333	1	0.769750
21.950000	1	0.795500
21.966667	1	0.820500
21.983333	1	0.845000
22.000000	1	0.868250
22.016667	1	0.890125
22.033333	1	0.910000
22.050000	1	0.927625
22.066667	1	0.942500
22.083333	1	0.954625
22.100000	1	0.963750
22.116667	1	0.970500
22.133333	1	0.974000
22.150000	1	0.974125
22.166667	1	0.971500
22.183333	1	0.965750
22.200000	1	0.958000
22.216667	1	0.947500
22.233333	1	0.934625
22.250000	1	0.920000
22.266667	1	0.903500
22.283333	1	0.885750
22.300000	1	0.867000
22.316667	1	0.848000
22.333333	1	0.828250
22.350000	1	0.808375
22.366667	1	0.789000
22.383333	1	0.769750
22.400000	1	0.751875
22.416667	1	0.734375
22.433333	1	0.717000
22.450000	1	0.700375
22.466667	1	0.685250
22.483333	1	0.671125
22.500000	1	0.658125
22.516667	1	0.645625
22.533333	1	0.634250
22.550000	1	0.624375
22.566667	1	0.616250
22.583333	1	0.608000
22.600000	1	0.601125
22.616667	1	0.595000
22.633333	1	0.589375
22.650000	1	0.584375
22.666667	1	0.580625
22.683333	1	0.577000
22.700000	1	0.573750
22.716667	1	0.571250
22.733333	1	0.569000
22.750000	1	0.566750
22.766667	1	0.564625
22.783333	1	0.561875
22.800000	1	0.560000
22.816667	1	0.558750
22.833333	1	0.557000
22.850000	1	0.555375
22.866667	1	0.553250
22.883333	1	0.551375
22.900000	1	0.549500
22.916667	1	0.547625
22.933333	1	0.544875
22.950000	1	0.543000
22.966667	1	0.541000
22.983333	1	0.539000
23.000000	1	0.537375
23.016667	1	0.535500
23.033333	1	0.534625
23.050000	1	0.533625
23.066667	1	0.532625
23.083333	1	0.532875
23.100000	1	0.534125
23.116667	1	0.536250
23.133333	1	0.538125
23.150000	1	0.541875
23.166667	1	0.546125
23.183333	1	0.552000
23.200000	1	0.558750
23.216667	1	0.566750
23.233333	1	0.577000
23.250000	1	0.588125
23.266667	1	0.600625
23.283333	1	0.615125
23.300000	1	0.631250
23.316667	1	0.649625
23.333333	1	0.669875
23.350000	1	0.693000
23.366667	1	0.717500
23.383333	1	0.744500
23.400000	1	0.774375
23.416667	1	0.806625
23.433333	1	0.842500
23.450000	1	0.880500
23.466667	1	0.921625
23.483333	1	0.966625
23.500000	1	1.015375
23.516667	1	1.068000
23.533333	1	1.126000
23.550000	1	1.187625
23.566667	1	1.254500
23.583333	1	1.328250
23.600000	1	1.408000
23.616667	1	1.495250
23.633333	1	1.588625
23.650000	1	1.690375
23.666667	1	1.799625
23.683333	1	1.917125
23.700000	1	2.043125
23.716667	1	2.177000
23.733333	1	2.318375
23.750000	1	2.466375
23.766667	1	2.620625
23.783333	1	2.779750
23.800000	1	2.941625
23.816667	1	3.105125
23.833333	1	3.267250
23.850000	1	3.426250
23.866667	1	3.580250
23.883333	1	3.727000
23.900000	1	3.863500
23.916667	1	3.988125
23.933333	1	4.099750
23.950000	1	4.195500
23.966667	1	4.273875
23.983333	1	4.333875
24.000000	1	4.375125
24.016667	1	4.396875
24.033333	1	4.399875
24.050000	1	4.383750
24.066667	1	4.349250
24.083333	1	4.298125
24.100000	1	4.231000
24.116667	1	4.149375
24.133333	1	4.054750
24.150000	1	3.948875
24.166667	1	3.833375
24.183333	1	3.711000
24.200000	1	3.581750
24.216667	1	3.448750
24.233333	1	3.312750
24.250000	1	3.174750
24.266667	1	3.036750
24.283333	1	2.898750
24.300000	1	2.763625
24.316667	1	2.630750
24.333333	1	2.501125
24.350000	1	2.375500
24.366667	1	2.254750
24.383333	1	2.139125
24.400000	1	2.029500
24.416667	1	1.925750
24.433333	1	1.826625
24.450000	1	1.733750
24.466667	1	1.646000
24.483333	1	1.564250
24.500000	1	1.487375
24.516667	1	1.415875
24.533333	1	1.349000
24.550000	1	1.287375
24.566667	1	1.229750
24.583333	1	1.176125
24.600000	1	1.126500
24.616667	1	1.081000
24.633333	1	1.038875
24.650000	1	0.999125
24.666667	1	0.962625
24.683333	1	0.928625
24.700000	1	0.896500
24.716667	1	0.866375
24.733333	1	0.837625
24.750000	1	0.810500
24.766667	1	0.785000
24.783333	1	0.761625
24.800000	1	0.738500
24.816667	1	0.716125
24.833333	1	0.694250
24.850000	1	0.674000
24.866667	1	0.653500
24.883333	1	0.634000
24.900000	1	0.615250
24.916667	1	0.596625
24.933333	1	0.578750
24.950000	1	0.561750
24.966667	1	0.544875
24.983333	1	0.529625
25.000000	1	0.513625
25.016667	1	0.498500
25.033333	1	0.484000
25.050000	1	0.470000
25.066667	1	0.456500
25.083333	1	0.443375
25.100000	1	0.431125
25.116667	1	0.420250
25.133333	1	0.408500
25.150000	1	0.398000
25.166667	1	0.388500
25.183333	1	0.379625
25.200000	1	0.371375
25.216667	1	0.363875
25.233333	1	0.356500
25.250000	1	0.350500
25.266667	1	0.344250
25.283333	1	0.338500
25.300000	1	0.333875
25.316667	1	0.330000
25.333333	1	0.327000
25.350000	1	0.324000
25.366667	1	0.321250
25.383333	1	0.319250
25.400000	1	0.317000
25.416667	1	0.315125
25.433333	1	0.313625
25.450000	1	0.313125
25.466667	1	0.312125
25.483333	1	0.311500
25.500000	1	0.311375
25.516667	1	0.311750
25.533333	1	0.311750
25.550000	1	0.311375
25.566667	1	0.311875
25.583333	1	0.312000
25.600000	1	0.313125
25.616667	1	0.313625
25.633333	1	0.314375
25.650000	1	0.314750
25.666667	1	0.315375
25.683333	1	0.316375
25.700000	1	0.317500
25.716667	1	0.319375
25.733333	1	0.320750
25.750000	1	0.321875
25.766667	1	0.323125
25.783333	1	0.324625
25.800000	1	0.325875
25.816667	1	0.328125
25.833333	1	0.329875
25.850000	1	0.332000
25.866667	1	0.334375
25.883333	1	0.337375
25.900000	1	0.339875
25.916667	1	0.342125
25.933333	1	0.344875
25.950000	1	0.347875
25.966667	1	0.351000
25.983333	1	0.353625
26.000000	1	0.357000
26.016667	1	0.360250
26.033333	1	0.363500
26.050000	1	0.366375
26.066667	1	0.369125
26.083333	1	0.371750
26.100000	1	0.374875
26.116667	1	0.377625
26.133333	1	0.379375
26.150000	1	0.381750
26.166667	1	0.383500
26.183333	1	0.384875
26.200000	1	0.386375
26.216667	1	0.387250
26.233333	1	0.388250
26.250000	1	0.389125
26.266667	1	0.390250
26.283333	1	0.391250
26.300000	1	0.392125
26.316667	1	0.392625
26.333333	1	0.392750
26.350000	1	0.393625
26.366667	1	0.394375
26.383333	1	0.395125
26.400000	1	0.395125
26.416667	1	0.395750
26.433333	1	0.396500
26.450000	1	0.396750
26.466667	1	0.397250
26.483333	1	0.397375
26.500000	1	0.397750
26.516667	1	0.398250
26.533333	1	0.398750
26.550000	1	0.399000
26.566667	1	0.399625
26.583333	1	0.398875
26.600000	1	0.398500
26.616667	1	0.398125
26.633333	1	0.397500
26.650000	1	0.396250
26.666667	1	0.395250
26.683333	1	0.394625
26.700000	1	0.393625
26.716667	1	0.392125
26.733333	1	0.390500
26.750000	1	0.388500
26.766667	1	0.386500
26.783333	1	0.384625
26.800000	1	0.382875
26.816667	1	0.380250
26.833333	1	0.377750
26.850000	1	0.375750
26.866667	1	0.374125
26.883333	1	0.372125
26.900000	1	0.369750
26.916667	1	0.367875
26.933333	1	0.366250
26.950000	1	0.365500
26.966667	1	0.364625
26.983333	1	0.363875
27.000000	1	0.363625
27.016667	1	0.363000
27.033333	1	0.363875
27.050000	1	0.364875
27.066667	1	0.365875
27.083333	1	0.367500
27.100000	1	0.369250
27.116667	1	0.372125
27.133333	1	0.375500
27.150000	1	0.379500
27.166667	1	0.384000
27.183333	1	0.389375
27.200000	1	0.395500
27.216667	1	0.402500
27.233333	1	0.409375
27.250000	1	0.417250
27.266667	1	0.426125
27.283333	1	0.436875
27.300000	1	0.447750
27.316667	1	0.459375
27.333333	1	0.471875
27.350000	1	0.485000
27.366667	1	0.499625
27.383333	1	0.515125
27.400000	1	0.531375
27.416667	1	0.548625
27.433333	1	0.567000
27.450000	1	0.587250
27.466667	1	0.608500
27.483333	1	0.631125
27.500000	1	0.655625
27.516667	1	0.680375
27.533333	1	0.707250
27.550000	1	0.736250
27.566667	1	0.767375
27.583333	1	0.800250
27.600000	1	0.835750
27.616667	1	0.873500
27.633333	1	0.914125
27.650000	1	0.959500
27.666667	1	1.007375
27.683333	1	1.058125
27.700000	1	1.113500
27.716667	1	1.173250
27.733333	1	1.237250
27.750000	1	1.304625
27.766667	1	1.377000
27.783333	1	1.453625
27.800000	1	1.535250
27.816667	1	1.621000
27.833333	1	1.710625
27.850000	1	1.803500
27.866667	1	1.900375
27.883333	1	2.000000
27.900000	1	2.100750
27.916667	1	2.203625
27.933333	1	2.306375
27.950000	1	2.409625
27.966667	1	2.510500
27.983333	1	2.608375
28.000000	1	2.701750
28.016667	1	2.791625
28.033333	1	2.876000
28.050000	1	2.952500
28.066667	1	3.021125
28.083333	1	3.080625
28.100000	1	3.129625
28.116667	1	3.169625
28.133333	1	3.198250
28.150000	1	3.215500
28.166667	1	3.220125
28.183333	1	3.213625
28.200000	1	3.195875
28.216667	1	3.166375
28.233333	1	3.124875
28.250000	1	3.074000
28.266667	1	3.012500
28.283333	1	2.941625
28.300000	1	2.862250
28.316667	1	2.775625
28.333333	1	2.682375
28.350000	1	2.582250
28.366667	1	2.478000
28.383333	1	2.371500
28.400000	1	2.261250
28.416667	1	2.149125
28.433333	1	2.036000
28.450000	1	1.923000
28.466667	1	1.810000
28.483333	1	1.697875
28.500000	1	1.587375
28.516667	1	1.479375
28.533333	1	1.373250
28.550000	1	1.270750
28.566667	1	1.170875
28.583333	1	1.075000
28.600000	1	0.981750
28.616667	1	0.893125
28.633333	1	0.807500
28.650000	1	0.725625
28.666667	1	0.648000
28.683333	1	0.573625
28.700000	1	0.502500
28.716667	1	0.435250
28.733333	1	0.370750
28.750000	1	0.310125
28.766667	1	0.252625
28.783333	1	0.198125
28.800000	1	0.147500
28.816667	1	0.098625
28.833333	1	0.053625
28.850000	1	0.009875
28.866667	1	-0.030250
28.883333	1	-0.067500
28.900000	1	-0.101500
28.916667	1	-0.133875
28.933333	1	-0.162500
28.950000	1	-0.189125
28.966667	1	-0.213500
28.983333	1	-0.234750
29.000000	1	-0.254250
29.016667	1	-0.270625
29.033333	1	-0.284125
29.050000	1	-0.295250
29.066667	1	-0.303375
29.083333	1	-0.310250
29.100000	1	-0.314125
29.116667	1	-0.315625
29.133333	1	-0.315125
29.150000	1	-0.312750
29.166667	1	-0.308000
29.183333	1	-0.301375
29.200000	1	-0.292375
29.216667	1	-0.281750
29.233333	1	-0.269875
29.250000	1	-0.255750
29.266667	1	-0.240500
29.283333	1	-0.223875
29.300000	1	-0.206375
29.316667	1	-0.187625
29.333333	1	-0.168125
29.350000	1	-0.146875
29.366667	1	-0.126000
29.383333	1	-0.104000
29.400000	1	-0.081625
29.416667	1	-0.058750
29.433333	1	-0.036250
29.450000	1	-0.013375
29.466667	1	0.009375
29.483333	1	0.032375
29.500000	1	0.055000
29.516667	1	0.077750
29.533333	1	0.099375
29.550000	1	0.121000
29.566667	1	0.141375
29.583333	1	0.162125
29.600000	1	0.183000
29.616667	1	0.202500
29.633333	1	0.220625
29.650000	1	0.238375
29.666667	1	0.256000
29.683333	1	0.272250
29.700000	1	0.288125
29.716667	1	0.303125
29.733333	1	0.316625
29.750000	1	0.329125
29.766667	1	0.341250
29.783333	1	0.352250
29.800000	1	0.362375
29.816667	1	0.371750
29.833333	1	0.379625
29.850000	1	0.387875
29.866667	1	0.394875
29.883333	1	0.401375
29.900000	1	0.406875
29.916667	1	0.411750
29.933333	1	0.415625
29.950000	1	0.419375
29.966667	1	0.422125
29.983333	1	0.424500
30.000000	1	0.426625
30.016667	1	0.428875
30.033333	1	0.430625
30.050000	1	0.431500
30.066667	1	0.432375
30.083333	1	0.432875
30.100000	1	0.433250
30.116667	1	0.434000
30.133333	1	0.435000
30.150000	1	0.435000
30.166667	1	0.435250
30.183333	1	0.436000
30.200000	1	0.436375
30.216667	1	0.437125
30.233333	1	0.437625
30.250000	1	0.438500
30.266667	1	0.440250
30.283333	1	0.441625
30.300000	1	0.443625
30.316667	1	0.445500
30.333333	1	0.448500
30.350000	1	0.450750
30.366667	1	0.453500
30.383333	1	0.456500
30.400000	1	0.460500
30.416667	1	0.464375
30.433333	1	0.469000
30.450000	1	0.474250
30.466667	1	0.480625
30.483333	1	0.486875
30.500000	1	0.494125
30.516667	1	0.501625
30.533333	1	0.509625
30.550000	1	0.518625
30.566667	1	0.528000
30.583333	1	0.538750
30.600000	1	0.550125
30.616667	1	0.563000
30.633333	1	0.575750
30.650000	1	0.589250
30.666667	1	0.602750
30.683333	1	0.618125
30.700000	1	0.634250
30.716667	1	0.650375
30.733333	1	0.667125
30.750000	1	0.683750
30.766667	1	0.700750
30.783333	1	0.718375
30.800000	1	0.735125
30.816667	1	0.752500
30.833333	1	0.769375
30.850000	1	0.786000
30.866667	1	0.800875
30.883333	1	0.815125
30.900000	1	0.828875
30.916667	1	0.840875
30.933333	1	0.851125
30.950000	1	0.860500
30.966667	1	0.868125
30.983333	1	0.873375
31.000000	1	0.878375
31.016667	1	0.880750
31.033333	1	0.881000
31.050000	1	0.879125
31.066667	1	0.875250
31.083333	1	0.870375
31.100000	1	0.863375
31.116667	1	0.854125
31.133333	1	0.843500
31.150000	1	0.831875
31.166667	1	0.818000
31.183333	1	0.803375
31.200000	1	0.787375
31.216667	1	0.770000
31.233333	1	0.752375
31.250000	1	0.734000
31.266667	1	0.715375
31.283333	1	0.696250
31.300000	1	0.677375
31.316667	1	0.657875
31.333333	1	0.637875
31.350000	1	0.618125
31.366667	1	0.597875
31.383333	1	0.578875
31.400000	1	0.560625
31.416667	1	0.542375
31.433333	1	0.525000
31.450000	1	0.508125
31.466667	1	0.491250
31.483333	1	0.475500
31.500000	1	0.460375
31.516667	1	0.445375
31.533333	1	0.431750
31.550000	1	0.418750
31.566667	1	0.406625
31.583333	1	0.395000
31.600000	1	0.384000
31.616667	1	0.374000
31.633333	1	0.364500
31.650000	1	0.356125
31.666667	1	0.347875
31.683333	1	0.340000
31.700000	1	0.332875
31.716667	1	0.326875
31.733333	1	0.321500
31.750000	1	0.316250
31.766667	1	0.311875
31.783333	1	0.307625
31.800000	1	0.304125
31.816667	1	0.300875
31.833333	1	0.298875
31.850000	1	0.296875
31.866667	1	0.295125
31.883333	1	0.293750
31.900000	1	0.292750
31.916667	1	0.292250
31.933333	1	0.292000
31.950000	1	0.291750
31.966667	1	0.291500
31.983333	1	0.291500
32.000000	1	0.292375
32.016667	1	0.293375
32.033333	1	0.294625
32.050000	1	0.295750
32.066667	1	0.296500
32.083333	1	0.297500
32.100000	1	0.298375
32.116667	1	0.298875
32.133333	1	0.300125
32.150000	1	0.300250
32.166667	1	0.300625
32.183333	1	0.300625
32.200000	1	0.300750
32.216667	1	0.300250
32.233333	1	0.299000
32.250000	1	0.297625
32.266667	1	0.296375
32.283333	1	0.294875
32.300000	1	0.291625
32.316667	1	0.289125
32.333333	1	0.286250
32.350000	1	0.282750
32.366667	1	0.279625
32.383333	1	0.275875
32.400000	1	0.272250
32.416667	1	0.267875
32.433333	1	0.263500
32.450000	1	0.258250
32.466667	1	0.253375
32.483333	1	0.248875
32.500000	1	0.243375
32.516667	1	0.237750
32.533333	1	0.232375
32.550000	1	0.226250
32.566667	1	0.220000
32.583333	1	0.214500
32.600000	1	0.209000
32.616667	1	0.203375
32.633333	1	0.197750
32.650000	1	0.192500
32.666667	1	0.187000
32.683333	1	0.181125
32.700000	1	0.175500
32.716667	1	0.170500
32.733333	1	0.165750
32.750000	1	0.161250
32.766667	1	0.155750
32.783333	1	0.151500
32.800000	1	0.146875
32.816667	1	0.142125
32.833333	1	0.137750
32.850000	1	0.133250
32.866667	1	0.129500
32.883333	1	0.126000
32.900000	1	0.122000
32.916667	1	0.118500
32.933333	1	0.114875
32.950000	1	0.112250
32.966667	1	0.110125
32.983333	1	0.107375
33.000000	1	0.105125
33.016667	1	0.102250
33.033333	1	0.100500
33.050000	1	0.098875
33.066667	1	0.097125
33.083333	1	0.095125
33.100000	1	0.092625
33.116667	1	0.091375
33.133333	1	0.090250
33.150000	1	0.089000
33.166667	1	0.088500
33.183333	1	0.088000
33.200000	1	0.087500
33.216667	1	0.086500
33.233333	1	0.085625
33.250000	1	0.085375
33.266667	1	0.085250
33.283333	1	0.085000
33.300000	1	0.084500
33.316667	1	0.084125
33.333333	1	0.083875
33.350000	1	0.083875
33.366667	1	0.084500
33.383333	1	0.084875
33.400000	1	0.084750
33.416667	1	0.085125
33.433333	1	0.085375
33.450000	1	0.086375
33.466667	1	0.086500
33.483333	1	0.087500
33.500000	1	0.088500
33.516667	1	0.089750
33.533333	1	0.090750
33.550000	1	0.091625
33.566667	1	0.092750
33.583333	1	0.094125
33.600000	1	0.095500
33.616667	1	0.097250
33.633333	1	0.098500
33.650000	1	0.100625
33.666667	1	0.102375
33.683333	1	0.104375
33.700000	1	0.106875
33.716667	1	0.109750
33.733333	1	0.112750
33.750000	1	0.115625
33.766667	1	0.118625
33.783333	1	0.122750
33.800000	1	0.126375
33.816667	1	0.130125
33.833333	1	0.133750
33.850000	1	0.138875
33.866667	1	0.144125
33.883333	1	0.149500
33.900000	1	0.155250
33.916667	1	0.161000
33.933333	1	0.167125
33.950000	1	0.174000
33.966667	1	0.181500
33.983333	1	0.189000
34.000000	1	0.197250
34.016667	1	0.205375
34.033333	1	0.213750
34.050000	1	0.223625
34.066667	1	0.233875
34.083333	1	0.244750
34.100000	1	0.254875
34.116667	1	0.265875
34.133333	1	0.277500
34.150000	1	0.289125
34.166667	1	0.300875
34.183333	1	0.314000
34.200000	1	0.326125
34.216667	1	0.338375
34.233333	1	0.350875
34.250000	1	0.363250
34.266667	1	0.375000
34.283333	1	0.386625
34.300000	1	0.397875
34.316667	1	0.408375
34.333333	1	0.418500
34.350000	1	0.427875
34.366667	1	0.435875
34.383333	1	0.444000
34.400000	1	0.450375
34.416667	1	0.456000
34.433333	1	0.460875
34.450000	1	0.464250
34.466667	1	0.466750
34.483333	1	0.467750
34.500000	1	0.468125
34.516667	1	0.467500
34.533333	1	0.465375
34.550000	1	0.462500
34.566667	1	0.458250
34.583333	1	0.453500
34.600000	1	0.447500
34.616667	1	0.440250
34.633333	1	0.432875
34.650000	1	0.424875
34.666667	1	0.415875
34.683333	1	0.405750
34.700000	1	0.395625
34.716667	1	0.385250
34.733333	1	0.374500
34.750000	1	0.363250
34.766667	1	0.352750
34.783333	1	0.341250
34.800000	1	0.329500
34.816667	1	0.318375
34.833333	1	0.307500
34.850000	1	0.296750
34.866667	1	0.285625
34.883333	1	0.274250
34.900000	1	0.264250
34.916667	1	0.253875
34.933333	1	0.243500
34.950000	1	0.234000
34.966667	1	0.224500
34.983333	1	0.216000
35.000000	1	0.207375
35.016667	1	0.199375
35.033333	1	0.192000
35.050000	1	0.185250
35.066667	1	0.178625
35.083333	1	0.171875
35.100000	1	0.165500
35.116667	1	0.160125
35.133333	1	0.155500
35.150000	1	0.151125
35.166667	1	0.148000
35.183333	1	0.143875
35.200000	1	0.141750
35.216667	1	0.139000
35.233333	1	0.137125
35.250000	1	0.134875
35.266667	1	0.132875
35.283333	1	0.131250
35.300000	1	0.130375
35.316667	1	0.130000
35.333333	1	0.130625
35.350000	1	0.130500
35.366667	1	0.130875
35.383333	1	0.131750
35.400000	1	0.132750
35.416667	1	0.132875
35.433333	1	0.133875
35.450000	1	0.135250
35.466667	1	0.136625
35.483333	1	0.138375
35.500000	1	0.139375
35.516667	1	0.141500
35.533333	1	0.143250
35.550000	1	0.145250
35.566667	1	0.147000
35.583333	1	0.149250
35.600000	1	0.151375
35.616667	1	0.153625
35.633333	1	0.156125
35.650000	1	0.157875
35.666667	1	0.159500
35.683333	1	0.161375
35.700000	1	0.163250
35.716667	1	0.164500
35.733333	1	0.166875
35.750000	1	0.168375
35.766667	1	0.169625
35.783333	1	0.171625
35.800000	1	0.173000
35.816667	1	0.174875
35.833333	1	0.176250
35.850000	1	0.178125
35.866667	1	0.179875
35.883333	1	0.181625
35.900000	1	0.182375
35.916667	1	0.183625
35.933333	1	0.184500
35.950000	1	0.185875
35.966667	1	0.186875
35.983333	1	0.187250
36.000000	1	0.188500
36.016667	1	0.189625
36.033333	1	0.190375
36.050000	1	0.190875
36.066667	1	0.191250
36.083333	1	0.191000
36.100000	1	0.191750
36.116667	1	0.191750
36.133333	1	0.192250
36.150000	1	0.192500
36.166667	1	0.192750
36.183333	1	0.193125
36.200000	1	0.193125
36.216667	1	0.193375
36.233333	1	0.193625
36.250000	1	0.193875
36.266667	1	0.192875
36.283333	1	0.192875
36.300000	1	0.192250
36.316667	1	0.192375
36.333333	1	0.192250
36.350000	1	0.191875
36.366667	1	0.190250
36.383333	1	0.189250
36.400000	1	0.188000
36.416667	1	0.187375
36.433333	1	0.186000
36.450000	1	0.184625
36.466667	1	0.182500
36.483333	1	0.181250
36.500000	1	0.179625
36.516667	1	0.178250
36.533333	1	0.176500
36.550000	1	0.174625
36.566667	1	0.172625
36.583333	1	0.171000
36.600000	1	0.168625
36.616667	1	0.166750
36.633333	1	0.165250
36.650000	1	0.163375
36.666667	1	0.161500
36.683333	1	0.159750
36.700000	1	0.157750
36.716667	1	0.156000
36.733333	1	0.154375
36.750000	1	0.152625
36.766667	1	0.150625
36.783333	1	0.148750
36.800000	1	0.147375
36.816667	1	0.146125
36.833333	1	0.144625
36.850000	1	0.143000
36.866667	1	0.140750
36.883333	1	0.139625
36.900000	1	0.138125
36.916667	1	0.136875
36.933333	1	0.135500
36.950000	1	0.134125
36.966667	1	0.132000
36.983333	1	0.129750
37.000000	1	0.128125
37.016667	1	0.127125
37.033333	1	0.126250
37.050000	1	0.124750
37.066667	1	0.123000
37.083333	1	0.121500
37.100000	1	0.120000
37.116667	1	0.118000
37.133333	1	0.116250
37.150000	1	0.114375
37.166667	1	0.112750
37.183333	1	0.111375
37.200000	1	0.109625
37.216667	1	0.107625
37.233333	1	0.106000
37.250000	1	0.103875
37.266667	1	0.102500
37.283333	1	0.100125
37.300000	1	0.097625
37.316667	1	0.095875
37.333333	1	0.094375
37.350000	1	0.092500
37.366667	1	0.090500
37.383333	1	0.088125
37.400000	1	0.086125
37.416667	1	0.084750
37.433333	1	0.083500
37.450000	1	0.081125
37.466667	1	0.078750
37.483333	1	0.076375
37.500000	1	0.074875
37.516667	1	0.073250
37.533333	1	0.071375
37.550000	1	0.069750
37.566667	1	0.068125
37.583333	1	0.066250
37.600000	1	0.065125
37.616667	1	0.063375
37.633333	1	0.062500
37.650000	1	0.061250
37.666667	1	0.059875
37.683333	1	0.058125
37.700000	1	0.056625
37.716667	1	0.055875
37.733333	1	0.054250
37.750000	1	0.054000
37.766667	1	0.053125
37.783333	1	0.052875
37.800000	1	0.051875
37.816667	1	0.051375
37.833333	1	0.051250
37.850000	1	0.050875
37.866667	1	0.049750
37.883333	1	0.049750
37.900000	1	0.049250
37.916667	1	0.048500
37.933333	1	0.048125
37.950000	1	0.047750
37.966667	1	0.047500
37.983333	1	0.047375
38.000000	1	0.046875
38.016667	1	0.046750
38.033333	1	0.046875
38.050000	1	0.046750
38.066667	1	0.046500
38.083333	1	0.047000
38.100000	1	0.047375
38.116667	1	0.047625
38.133333	1	0.048375
38.150000	1	0.048375
38.166667	1	0.048375
38.183333	1	0.048750
38.200000	1	0.049125
38.216667	1	0.048875
38.233333	1	0.049125
38.250000	1	0.049875
38.266667	1	0.050500
38.283333	1	0.051125
38.300000	1	0.051500
38.316667	1	0.051250
38.333333	1	0.052000
38.350000	1	0.053000
38.366667	1	0.053125
38.383333	1	0.053125
38.400000	1	0.053750
38.416667	1	0.054250
38.433333	1	0.054625
38.450000	1	0.055125
38.466667	1	0.055375
38.483333	1	0.055625
38.500000	1	0.055625
38.516667	1	0.055500
38.533333	1	0.055875
38.550000	1	0.056250
38.566667	1	0.056500
38.583333	1	0.057000
38.600000	1	0.057250
38.616667	1	0.057750
38.633333	1	0.057875
38.650000	1	0.058500
38.666667	1	0.058125
38.683333	1	0.057250
38.700000	1	0.056750
38.716667	1	0.056875
38.733333	1	0.057500
38.750000	1	0.057250
38.766667	1	0.057250
38.783333	1	0.057250
38.800000	1	0.057375
38.816667	1	0.056875
38.833333	1	0.056125
38.850000	1	0.056250
38.866667	1	0.056250
38.883333	1	0.055625
38.900000	1	0.055375
38.916667	1	0.055375
38.933333	1	0.054875
38.950000	1	0.054125
38.966667	1	0.052875
38.983333	1	0.051375
39.000000	1	0.050875
39.016667	1	0.050500
39.033333	1	0.050125
39.050000	1	0.050250
39.066667	1	0.049500
39.083333	1	0.049000
39.100000	1	0.048375
39.116667	1	0.048125
39.133333	1	0.048000
39.150000	1	0.047500
39.166667	1	0.046500
39.183333	1	0.045500
39.200000	1	0.045000
39.216667	1	0.044125
39.233333	1	0.044000
39.250000	1	0.043000
39.266667	1	0.042875
39.283333	1	0.042625
39.300000	1	0.042000
39.316667	1	0.041750
39.333333	1	0.042375
39.350000	1	0.042125
39.366667	1	0.041625
39.383333	1	0.040875
39.400000	1	0.040750
39.416667	1	0.040500
39.433333	1	0.039875
39.450000	1	0.039625
39.466667	1	0.039875
39.483333	1	0.040000
39.500000	1	0.040125
39.516667	1	0.039625
39.533333	1	0.039375
39.550000	1	0.039375
39.566667	1	0.039875
39.583333	1	0.039750
39.600000	1	0.039875
39.616667	1	0.040375
39.633333	1	0.040875
39.650000	1	0.040500
39.666667	1	0.041250
39.683333	1	0.041875
39.700000	1	0.041625
39.716667	1	0.041875
39.733333	1	0.042375
39.750000	1	0.042625
39.766667	1	0.042500
39.783333	1	0.042500
39.800000	1	0.042375
39.816667	1	0.043000
39.833333	1	0.043625
39.850000	1	0.044375
39.866667	1	0.044500
39.883333	1	0.044500
39.900000	1	0.044625
39.916667	1	0.045500
39.933333	1	0.045625
39.950000	1	0.046750
39.966667	1	0.046875
39.983333	1	0.047125
40.000000	1	0.048125
