File Path	chrom://marshall/Chromeleon7/HPLC_Ultimate_3000/Users/markusar/20230531_CMO_stabTest _FP08_FP09.seq/837.smp/RI_1.channel/RI_1.chm
Channel	RI_1

Injection Information:
Data Vault	Chromeleon7
Injection	FP09__8_s3
Injection Number	79
Position	BE6
Comment	
Processing Method	
Instrument Method	run_25B_method
Type	Unknown
Status	Finished
Injection Date	03.06.2023
Injection Time	19:56:18
Injection Volume (µl)	20.000
Dilution Factor	1.0000
Weight	1.0000

Chromatogram Data Information:
Time Min. (min)	0.000000
Time Max. (min)	40.000000
Data Points	2401
Detector	RI
Generating Data System	Chromeleon 7.2.5.9507
Exporting Data System	Chromeleon 7.2.5.0
Operator	Instrument Controller
Signal Quantity	Refractive 
Signal Unit	µRIU
Signal Min.	-0.839375
Signal Max.	54.061875
Channel	RI_1
Driver Name	RID520Driver.dll
Channel Type	Evaluation
Min. Step (s)	1
Max. Step (s)	1
Average Step (s)	1

Signal Parameter Information:
Signal Info	

Chromatogram Data:
Time (min)	Step (s)	Value (µRIU)
0.000000	n.a.	-0.054000
0.016667	1	-0.054875
0.033333	1	-0.055875
0.050000	1	-0.056625
0.066667	1	-0.057500
0.083333	1	-0.058500
0.100000	1	-0.060375
0.116667	1	-0.061875
0.133333	1	-0.063000
0.150000	1	-0.063875
0.166667	1	-0.064500
0.183333	1	-0.065125
0.200000	1	-0.065625
0.216667	1	-0.067000
0.233333	1	-0.066750
0.250000	1	-0.067750
0.266667	1	-0.068750
0.283333	1	-0.070125
0.300000	1	-0.073375
0.316667	1	-0.077000
0.333333	1	-0.079125
0.350000	1	-0.079000
0.366667	1	-0.075500
0.383333	1	-0.071875
0.400000	1	-0.068000
0.416667	1	-0.065000
0.433333	1	-0.062375
0.450000	1	-0.060625
0.466667	1	-0.059250
0.483333	1	-0.059500
0.500000	1	-0.061125
0.516667	1	-0.063000
0.533333	1	-0.065125
0.550000	1	-0.067000
0.566667	1	-0.067625
0.583333	1	-0.067625
0.600000	1	-0.068250
0.616667	1	-0.069250
0.633333	1	-0.069750
0.650000	1	-0.070375
0.666667	1	-0.070375
0.683333	1	-0.070625
0.700000	1	-0.070500
0.716667	1	-0.071125
0.733333	1	-0.071375
0.750000	1	-0.071250
0.766667	1	-0.071250
0.783333	1	-0.071125
0.800000	1	-0.071125
0.816667	1	-0.070875
0.833333	1	-0.070875
0.850000	1	-0.071125
0.866667	1	-0.070875
0.883333	1	-0.071125
0.900000	1	-0.071000
0.916667	1	-0.071750
0.933333	1	-0.072125
0.950000	1	-0.072625
0.966667	1	-0.073125
0.983333	1	-0.073375
1.000000	1	-0.073750
1.016667	1	-0.074500
1.033333	1	-0.075375
1.050000	1	-0.075750
1.066667	1	-0.076375
1.083333	1	-0.077375
1.100000	1	-0.078375
1.116667	1	-0.079250
1.133333	1	-0.080500
1.150000	1	-0.081625
1.166667	1	-0.083000
1.183333	1	-0.084125
1.200000	1	-0.085000
1.216667	1	-0.086750
1.233333	1	-0.087750
1.250000	1	-0.089125
1.266667	1	-0.090875
1.283333	1	-0.092000
1.300000	1	-0.093125
1.316667	1	-0.094375
1.333333	1	-0.095750
1.350000	1	-0.097375
1.366667	1	-0.099000
1.383333	1	-0.099500
1.400000	1	-0.100125
1.416667	1	-0.101250
1.433333	1	-0.102125
1.450000	1	-0.102500
1.466667	1	-0.103250
1.483333	1	-0.104500
1.500000	1	-0.105500
1.516667	1	-0.106250
1.533333	1	-0.107625
1.550000	1	-0.108125
1.566667	1	-0.108875
1.583333	1	-0.109375
1.600000	1	-0.110250
1.616667	1	-0.110500
1.633333	1	-0.110625
1.650000	1	-0.110625
1.666667	1	-0.110625
1.683333	1	-0.110750
1.700000	1	-0.110625
1.716667	1	-0.111500
1.733333	1	-0.111375
1.750000	1	-0.111500
1.766667	1	-0.111125
1.783333	1	-0.110875
1.800000	1	-0.110375
1.816667	1	-0.109625
1.833333	1	-0.108625
1.850000	1	-0.108375
1.866667	1	-0.108000
1.883333	1	-0.106625
1.900000	1	-0.106125
1.916667	1	-0.105375
1.933333	1	-0.104500
1.950000	1	-0.103500
1.966667	1	-0.103250
1.983333	1	-0.102000
2.000000	1	-0.100875
2.016667	1	-0.099375
2.033333	1	-0.098250
2.050000	1	-0.097250
2.066667	1	-0.096750
2.083333	1	-0.095750
2.100000	1	-0.094750
2.116667	1	-0.093750
2.133333	1	-0.092500
2.150000	1	-0.091250
2.166667	1	-0.090125
2.183333	1	-0.089000
2.200000	1	-0.087750
2.216667	1	-0.086250
2.233333	1	-0.085125
2.250000	1	-0.083750
2.266667	1	-0.081875
2.283333	1	-0.080750
2.300000	1	-0.080000
2.316667	1	-0.078125
2.333333	1	-0.076750
2.350000	1	-0.075625
2.366667	1	-0.074125
2.383333	1	-0.072375
2.400000	1	-0.071125
2.416667	1	-0.069625
2.433333	1	-0.068375
2.450000	1	-0.066750
2.466667	1	-0.065875
2.483333	1	-0.064750
2.500000	1	-0.063625
2.516667	1	-0.062875
2.533333	1	-0.061625
2.550000	1	-0.060875
2.566667	1	-0.060375
2.583333	1	-0.059000
2.600000	1	-0.057875
2.616667	1	-0.057250
2.633333	1	-0.056375
2.650000	1	-0.056000
2.666667	1	-0.055750
2.683333	1	-0.055000
2.700000	1	-0.054875
2.716667	1	-0.054125
2.733333	1	-0.054375
2.750000	1	-0.053875
2.766667	1	-0.053750
2.783333	1	-0.053125
2.800000	1	-0.053625
2.816667	1	-0.054125
2.833333	1	-0.054500
2.850000	1	-0.054125
2.866667	1	-0.053875
2.883333	1	-0.054625
2.900000	1	-0.054875
2.916667	1	-0.055375
2.933333	1	-0.056375
2.950000	1	-0.057375
2.966667	1	-0.058125
2.983333	1	-0.059125
3.000000	1	-0.059625
3.016667	1	-0.060125
3.033333	1	-0.061500
3.050000	1	-0.062375
3.066667	1	-0.063250
3.083333	1	-0.064875
3.100000	1	-0.066125
3.116667	1	-0.067250
3.133333	1	-0.068125
3.150000	1	-0.068750
3.166667	1	-0.070000
3.183333	1	-0.071375
3.200000	1	-0.072000
3.216667	1	-0.073625
3.233333	1	-0.074750
3.250000	1	-0.075375
3.266667	1	-0.076000
3.283333	1	-0.077625
3.300000	1	-0.079500
3.316667	1	-0.080125
3.333333	1	-0.080750
3.350000	1	-0.081375
3.366667	1	-0.081750
3.383333	1	-0.082750
3.400000	1	-0.084000
3.416667	1	-0.084125
3.433333	1	-0.084250
3.450000	1	-0.085125
3.466667	1	-0.086125
3.483333	1	-0.086625
3.500000	1	-0.086750
3.516667	1	-0.087375
3.533333	1	-0.088000
3.550000	1	-0.087750
3.566667	1	-0.088250
3.583333	1	-0.088375
3.600000	1	-0.088500
3.616667	1	-0.089000
3.633333	1	-0.088875
3.650000	1	-0.088875
3.666667	1	-0.088875
3.683333	1	-0.089000
3.700000	1	-0.089125
3.716667	1	-0.088875
3.733333	1	-0.089125
3.750000	1	-0.089000
3.766667	1	-0.088500
3.783333	1	-0.088500
3.800000	1	-0.087750
3.816667	1	-0.087625
3.833333	1	-0.087125
3.850000	1	-0.087125
3.866667	1	-0.087000
3.883333	1	-0.086750
3.900000	1	-0.086000
3.916667	1	-0.086375
3.933333	1	-0.085250
3.950000	1	-0.085125
3.966667	1	-0.085000
3.983333	1	-0.084250
4.000000	1	-0.083125
4.016667	1	-0.082750
4.033333	1	-0.082750
4.050000	1	-0.083250
4.066667	1	-0.083500
4.083333	1	-0.082875
4.100000	1	-0.082250
4.116667	1	-0.081125
4.133333	1	-0.080625
4.150000	1	-0.080125
4.166667	1	-0.079375
4.183333	1	-0.078500
4.200000	1	-0.078500
4.216667	1	-0.077625
4.233333	1	-0.076875
4.250000	1	-0.075750
4.266667	1	-0.074500
4.283333	1	-0.073625
4.300000	1	-0.072875
4.316667	1	-0.072250
4.333333	1	-0.071875
4.350000	1	-0.071000
4.366667	1	-0.069750
4.383333	1	-0.068750
4.400000	1	-0.067750
4.416667	1	-0.066375
4.433333	1	-0.065125
4.450000	1	-0.064250
4.466667	1	-0.063125
4.483333	1	-0.061875
4.500000	1	-0.060625
4.516667	1	-0.058625
4.533333	1	-0.057375
4.550000	1	-0.055750
4.566667	1	-0.053750
4.583333	1	-0.051625
4.600000	1	-0.049125
4.616667	1	-0.047625
4.633333	1	-0.045875
4.650000	1	-0.043500
4.666667	1	-0.041875
4.683333	1	-0.040125
4.700000	1	-0.037500
4.716667	1	-0.035750
4.733333	1	-0.032875
4.750000	1	-0.030000
4.766667	1	-0.027500
4.783333	1	-0.025125
4.800000	1	-0.022375
4.816667	1	-0.020000
4.833333	1	-0.017375
4.850000	1	-0.014750
4.866667	1	-0.012500
4.883333	1	-0.010125
4.900000	1	-0.007625
4.916667	1	-0.005625
4.933333	1	-0.002375
4.950000	1	-0.000625
4.966667	1	0.001125
4.983333	1	0.003375
5.000000	1	0.005875
5.016667	1	0.007625
5.033333	1	0.009625
5.050000	1	0.011000
5.066667	1	0.012250
5.083333	1	0.013000
5.100000	1	0.013875
5.116667	1	0.015000
5.133333	1	0.016375
5.150000	1	0.017125
5.166667	1	0.017375
5.183333	1	0.017500
5.200000	1	0.017000
5.216667	1	0.017000
5.233333	1	0.017125
5.250000	1	0.016125
5.266667	1	0.015375
5.283333	1	0.014625
5.300000	1	0.013625
5.316667	1	0.013250
5.333333	1	0.011500
5.350000	1	0.010500
5.366667	1	0.009750
5.383333	1	0.007750
5.400000	1	0.006375
5.416667	1	0.004750
5.433333	1	0.003250
5.450000	1	0.002000
5.466667	1	0.000500
5.483333	1	-0.001000
5.500000	1	-0.002625
5.516667	1	-0.004125
5.533333	1	-0.005375
5.550000	1	-0.007125
5.566667	1	-0.008625
5.583333	1	-0.010250
5.600000	1	-0.011625
5.616667	1	-0.013000
5.633333	1	-0.014125
5.650000	1	-0.015375
5.666667	1	-0.016625
5.683333	1	-0.017125
5.700000	1	-0.017875
5.716667	1	-0.018875
5.733333	1	-0.019875
5.750000	1	-0.020000
5.766667	1	-0.020000
5.783333	1	-0.021125
5.800000	1	-0.021500
5.816667	1	-0.021750
5.833333	1	-0.021625
5.850000	1	-0.022375
5.866667	1	-0.022625
5.883333	1	-0.022750
5.900000	1	-0.022375
5.916667	1	-0.021875
5.933333	1	-0.021875
5.950000	1	-0.021500
5.966667	1	-0.020875
5.983333	1	-0.020000
6.000000	1	-0.019250
6.016667	1	-0.018625
6.033333	1	-0.017625
6.050000	1	-0.016500
6.066667	1	-0.015875
6.083333	1	-0.014875
6.100000	1	-0.014125
6.116667	1	-0.012875
6.133333	1	-0.011750
6.150000	1	-0.010000
6.166667	1	-0.008750
6.183333	1	-0.007125
6.200000	1	-0.005000
6.216667	1	-0.003500
6.233333	1	-0.002750
6.250000	1	-0.001375
6.266667	1	0.000375
6.283333	1	0.002000
6.300000	1	0.003375
6.316667	1	0.005750
6.333333	1	0.007500
6.350000	1	0.009750
6.366667	1	0.011500
6.383333	1	0.013125
6.400000	1	0.015125
6.416667	1	0.016500
6.433333	1	0.017625
6.450000	1	0.019000
6.466667	1	0.019875
6.483333	1	0.021250
6.500000	1	0.022500
6.516667	1	0.023875
6.533333	1	0.025125
6.550000	1	0.025750
6.566667	1	0.026125
6.583333	1	0.027375
6.600000	1	0.028375
6.616667	1	0.028875
6.633333	1	0.028625
6.650000	1	0.028750
6.666667	1	0.028375
6.683333	1	0.027375
6.700000	1	0.027000
6.716667	1	0.026250
6.733333	1	0.025000
6.750000	1	0.024375
6.766667	1	0.023000
6.783333	1	0.022125
6.800000	1	0.020125
6.816667	1	0.018250
6.833333	1	0.016375
6.850000	1	0.014250
6.866667	1	0.011500
6.883333	1	0.009500
6.900000	1	0.007000
6.916667	1	0.005125
6.933333	1	0.002375
6.950000	1	0.000000
6.966667	1	-0.002125
6.983333	1	-0.005250
7.000000	1	-0.008000
7.016667	1	-0.011250
7.033333	1	-0.014000
7.050000	1	-0.016625
7.066667	1	-0.019500
7.083333	1	-0.022375
7.100000	1	-0.024875
7.116667	1	-0.028000
7.133333	1	-0.031500
7.150000	1	-0.033500
7.166667	1	-0.035625
7.183333	1	-0.037625
7.200000	1	-0.039625
7.216667	1	-0.041750
7.233333	1	-0.044750
7.250000	1	-0.047250
7.266667	1	-0.049125
7.283333	1	-0.051250
7.300000	1	-0.053125
7.316667	1	-0.055375
7.333333	1	-0.057000
7.350000	1	-0.058500
7.366667	1	-0.059625
7.383333	1	-0.061125
7.400000	1	-0.062375
7.416667	1	-0.064125
7.433333	1	-0.065500
7.450000	1	-0.067125
7.466667	1	-0.067750
7.483333	1	-0.069250
7.500000	1	-0.070125
7.516667	1	-0.071125
7.533333	1	-0.071625
7.550000	1	-0.072875
7.566667	1	-0.073250
7.583333	1	-0.074250
7.600000	1	-0.074750
7.616667	1	-0.075500
7.633333	1	-0.076500
7.650000	1	-0.077000
7.666667	1	-0.077625
7.683333	1	-0.077875
7.700000	1	-0.078625
7.716667	1	-0.078875
7.733333	1	-0.078625
7.750000	1	-0.078750
7.766667	1	-0.079000
7.783333	1	-0.079375
7.800000	1	-0.079125
7.816667	1	-0.079375
7.833333	1	-0.079250
7.850000	1	-0.079125
7.866667	1	-0.079000
7.883333	1	-0.078625
7.900000	1	-0.078125
7.916667	1	-0.077625
7.933333	1	-0.077125
7.950000	1	-0.076500
7.966667	1	-0.075375
7.983333	1	-0.075500
8.000000	1	-0.074625
8.016667	1	-0.074500
8.033333	1	-0.073625
8.050000	1	-0.072625
8.066667	1	-0.071125
8.083333	1	-0.069750
8.100000	1	-0.068375
8.116667	1	-0.067375
8.133333	1	-0.066375
8.150000	1	-0.064750
8.166667	1	-0.063500
8.183333	1	-0.062125
8.200000	1	-0.061000
8.216667	1	-0.059250
8.233333	1	-0.057375
8.250000	1	-0.056125
8.266667	1	-0.054750
8.283333	1	-0.053125
8.300000	1	-0.050875
8.316667	1	-0.048875
8.333333	1	-0.047625
8.350000	1	-0.045750
8.366667	1	-0.044125
8.383333	1	-0.042375
8.400000	1	-0.040750
8.416667	1	-0.038375
8.433333	1	-0.036625
8.450000	1	-0.034625
8.466667	1	-0.034250
8.483333	1	-0.032000
8.500000	1	-0.030125
8.516667	1	-0.028000
8.533333	1	-0.025875
8.550000	1	-0.024000
8.566667	1	-0.022500
8.583333	1	-0.020750
8.600000	1	-0.019750
8.616667	1	-0.018500
8.633333	1	-0.017375
8.650000	1	-0.016500
8.666667	1	-0.015000
8.683333	1	-0.012750
8.700000	1	-0.011500
8.716667	1	-0.010375
8.733333	1	-0.009250
8.750000	1	-0.008125
8.766667	1	-0.007625
8.783333	1	-0.006625
8.800000	1	-0.005875
8.816667	1	-0.005250
8.833333	1	-0.005125
8.850000	1	-0.004375
8.866667	1	-0.003250
8.883333	1	-0.003250
8.900000	1	-0.002875
8.916667	1	-0.002000
8.933333	1	-0.001375
8.950000	1	-0.001625
8.966667	1	-0.001250
8.983333	1	-0.001750
9.000000	1	-0.001750
9.016667	1	-0.002375
9.033333	1	-0.003000
9.050000	1	-0.003500
9.066667	1	-0.004000
9.083333	1	-0.003625
9.100000	1	-0.004125
9.116667	1	-0.004625
9.133333	1	-0.005000
9.150000	1	-0.005375
9.166667	1	-0.005875
9.183333	1	-0.007000
9.200000	1	-0.007625
9.216667	1	-0.008750
9.233333	1	-0.009500
9.250000	1	-0.010375
9.266667	1	-0.010875
9.283333	1	-0.011000
9.300000	1	-0.011875
9.316667	1	-0.012500
9.333333	1	-0.013250
9.350000	1	-0.013875
9.366667	1	-0.014375
9.383333	1	-0.014250
9.400000	1	-0.015000
9.416667	1	-0.014500
9.433333	1	-0.014250
9.450000	1	-0.014000
9.466667	1	-0.012125
9.483333	1	-0.010625
9.500000	1	-0.007625
9.516667	1	-0.003625
9.533333	1	0.000750
9.550000	1	0.005625
9.566667	1	0.011000
9.583333	1	0.018125
9.600000	1	0.026500
9.616667	1	0.036375
9.633333	1	0.048375
9.650000	1	0.062250
9.666667	1	0.078125
9.683333	1	0.096125
9.700000	1	0.115750
9.716667	1	0.136250
9.733333	1	0.159125
9.750000	1	0.182000
9.766667	1	0.204000
9.783333	1	0.223250
9.800000	1	0.240125
9.816667	1	0.252125
9.833333	1	0.258500
9.850000	1	0.257125
9.866667	1	0.244250
9.883333	1	0.218375
9.900000	1	0.179250
9.916667	1	0.135750
9.933333	1	0.112000
9.950000	1	0.148375
9.966667	1	0.299375
9.983333	1	0.628250
10.000000	1	1.198000
10.016667	1	2.063375
10.033333	1	3.268750
10.050000	1	4.839625
10.066667	1	6.790625
10.083333	1	9.119375
10.100000	1	11.812375
10.116667	1	14.837500
10.133333	1	18.147250
10.150000	1	21.672625
10.166667	1	25.322250
10.183333	1	28.974625
10.200000	1	32.483500
10.216667	1	35.677000
10.233333	1	38.372250
10.250000	1	40.390625
10.266667	1	41.594375
10.283333	1	41.905500
10.300000	1	41.324625
10.316667	1	39.929625
10.333333	1	37.865625
10.350000	1	35.315250
10.366667	1	32.470125
10.383333	1	29.510125
10.400000	1	26.581125
10.416667	1	23.789750
10.433333	1	21.204625
10.450000	1	18.861375
10.466667	1	16.767000
10.483333	1	14.914750
10.500000	1	13.286375
10.516667	1	11.860250
10.533333	1	10.611250
10.550000	1	9.516125
10.566667	1	8.553750
10.583333	1	7.707500
10.600000	1	6.961750
10.616667	1	6.302875
10.633333	1	5.721750
10.650000	1	5.210000
10.666667	1	4.758875
10.683333	1	4.362500
10.700000	1	4.012125
10.716667	1	3.703125
10.733333	1	3.431375
10.750000	1	3.189000
10.766667	1	2.973750
10.783333	1	2.782250
10.800000	1	2.610750
10.816667	1	2.455250
10.833333	1	2.315250
10.850000	1	2.188625
10.866667	1	2.073750
10.883333	1	1.969375
10.900000	1	1.873750
10.916667	1	1.786000
10.933333	1	1.706250
10.950000	1	1.633375
10.966667	1	1.566625
10.983333	1	1.505125
11.000000	1	1.449375
11.016667	1	1.398000
11.033333	1	1.350125
11.050000	1	1.307000
11.066667	1	1.267625
11.083333	1	1.230625
11.100000	1	1.197125
11.116667	1	1.167250
11.133333	1	1.138625
11.150000	1	1.112875
11.166667	1	1.089125
11.183333	1	1.067625
11.200000	1	1.047500
11.216667	1	1.029000
11.233333	1	1.012000
11.250000	1	0.995750
11.266667	1	0.981250
11.283333	1	0.967625
11.300000	1	0.954250
11.316667	1	0.941875
11.333333	1	0.930000
11.350000	1	0.918375
11.366667	1	0.907500
11.383333	1	0.896000
11.400000	1	0.886875
11.416667	1	0.877625
11.433333	1	0.869125
11.450000	1	0.861375
11.466667	1	0.854375
11.483333	1	0.848250
11.500000	1	0.843500
11.516667	1	0.840375
11.533333	1	0.837375
11.550000	1	0.834875
11.566667	1	0.833375
11.583333	1	0.832375
11.600000	1	0.832500
11.616667	1	0.832625
11.633333	1	0.833500
11.650000	1	0.834625
11.666667	1	0.836250
11.683333	1	0.836750
11.700000	1	0.837875
11.716667	1	0.837875
11.733333	1	0.838250
11.750000	1	0.838125
11.766667	1	0.838000
11.783333	1	0.838125
11.800000	1	0.837875
11.816667	1	0.839000
11.833333	1	0.840125
11.850000	1	0.842125
11.866667	1	0.845000
11.883333	1	0.849750
11.900000	1	0.855625
11.916667	1	0.863375
11.933333	1	0.872875
11.950000	1	0.884375
11.966667	1	0.898750
11.983333	1	0.915875
12.000000	1	0.935500
12.016667	1	0.956875
12.033333	1	0.981875
12.050000	1	1.010875
12.066667	1	1.043375
12.083333	1	1.081125
12.100000	1	1.125875
12.116667	1	1.178750
12.133333	1	1.242625
12.150000	1	1.320375
12.166667	1	1.414250
12.183333	1	1.526375
12.200000	1	1.658250
12.216667	1	1.813000
12.233333	1	1.990875
12.250000	1	2.194000
12.266667	1	2.423875
12.283333	1	2.682000
12.300000	1	2.969500
12.316667	1	3.288125
12.333333	1	3.640125
12.350000	1	4.028000
12.366667	1	4.453625
12.383333	1	4.919875
12.400000	1	5.426625
12.416667	1	5.971625
12.433333	1	6.550250
12.450000	1	7.155375
12.466667	1	7.774750
12.483333	1	8.391750
12.500000	1	8.985000
12.516667	1	9.531625
12.533333	1	10.009375
12.550000	1	10.400875
12.566667	1	10.696250
12.583333	1	10.893250
12.600000	1	10.997000
12.616667	1	11.017375
12.633333	1	10.966625
12.650000	1	10.855875
12.666667	1	10.699000
12.683333	1	10.505250
12.700000	1	10.285750
12.716667	1	10.046875
12.733333	1	9.796500
12.750000	1	9.541375
12.766667	1	9.285375
12.783333	1	9.031000
12.800000	1	8.781125
12.816667	1	8.539000
12.833333	1	8.304000
12.850000	1	8.077125
12.866667	1	7.857750
12.883333	1	7.644125
12.900000	1	7.437375
12.916667	1	7.235375
12.933333	1	7.036000
12.950000	1	6.838250
12.966667	1	6.641500
12.983333	1	6.444625
13.000000	1	6.245500
13.016667	1	6.042500
13.033333	1	5.833500
13.050000	1	5.617125
13.066667	1	5.390625
13.083333	1	5.151375
13.100000	1	4.897750
13.116667	1	4.626500
13.133333	1	4.335125
13.150000	1	4.022250
13.166667	1	3.686500
13.183333	1	3.332375
13.200000	1	2.969625
13.216667	1	2.613125
13.233333	1	2.282875
13.250000	1	1.994250
13.266667	1	1.755000
13.283333	1	1.562500
13.300000	1	1.409500
13.316667	1	1.288250
13.333333	1	1.191000
13.350000	1	1.111875
13.366667	1	1.046375
13.383333	1	0.990875
13.400000	1	0.944125
13.416667	1	0.903625
13.433333	1	0.868250
13.450000	1	0.837625
13.466667	1	0.810375
13.483333	1	0.786875
13.500000	1	0.766125
13.516667	1	0.748875
13.533333	1	0.734125
13.550000	1	0.721250
13.566667	1	0.711750
13.583333	1	0.704250
13.600000	1	0.698250
13.616667	1	0.694500
13.633333	1	0.692125
13.650000	1	0.690875
13.666667	1	0.690625
13.683333	1	0.689875
13.700000	1	0.687875
13.716667	1	0.686500
13.733333	1	0.683750
13.750000	1	0.679625
13.766667	1	0.674375
13.783333	1	0.667750
13.800000	1	0.659375
13.816667	1	0.650625
13.833333	1	0.640750
13.850000	1	0.629750
13.866667	1	0.618250
13.883333	1	0.606250
13.900000	1	0.593250
13.916667	1	0.580500
13.933333	1	0.568375
13.950000	1	0.556375
13.966667	1	0.545125
13.983333	1	0.533625
14.000000	1	0.523625
14.016667	1	0.513875
14.033333	1	0.504875
14.050000	1	0.496875
14.066667	1	0.490250
14.083333	1	0.484375
14.100000	1	0.480000
14.116667	1	0.476125
14.133333	1	0.474000
14.150000	1	0.473125
14.166667	1	0.472875
14.183333	1	0.474375
14.200000	1	0.478500
14.216667	1	0.484750
14.233333	1	0.493250
14.250000	1	0.504125
14.266667	1	0.519125
14.283333	1	0.539250
14.300000	1	0.564250
14.316667	1	0.594375
14.333333	1	0.631500
14.350000	1	0.677500
14.366667	1	0.733625
14.383333	1	0.800125
14.400000	1	0.879250
14.416667	1	0.972625
14.433333	1	1.081625
14.450000	1	1.209875
14.466667	1	1.358250
14.483333	1	1.529250
14.500000	1	1.726875
14.516667	1	1.954375
14.533333	1	2.215625
14.550000	1	2.516375
14.566667	1	2.864250
14.583333	1	3.268500
14.600000	1	3.741250
14.616667	1	4.299375
14.633333	1	4.964375
14.650000	1	5.762500
14.666667	1	6.723750
14.683333	1	7.885000
14.700000	1	9.284125
14.716667	1	10.958625
14.733333	1	12.940000
14.750000	1	15.252000
14.766667	1	17.904125
14.783333	1	20.885000
14.800000	1	24.166375
14.816667	1	27.697000
14.833333	1	31.400625
14.850000	1	35.177125
14.866667	1	38.910000
14.883333	1	42.471125
14.900000	1	45.732250
14.916667	1	48.571375
14.933333	1	50.885875
14.950000	1	52.598375
14.966667	1	53.662500
14.983333	1	54.061875
15.000000	1	53.811625
15.016667	1	52.951375
15.033333	1	51.541875
15.050000	1	49.659750
15.066667	1	47.395000
15.083333	1	44.837875
15.100000	1	42.080375
15.116667	1	39.206125
15.133333	1	36.288750
15.150000	1	33.390375
15.166667	1	30.564625
15.183333	1	27.850750
15.200000	1	25.276375
15.216667	1	22.858750
15.233333	1	20.607625
15.250000	1	18.528500
15.266667	1	16.621125
15.283333	1	14.883125
15.300000	1	13.308125
15.316667	1	11.889125
15.333333	1	10.615000
15.350000	1	9.475875
15.366667	1	8.461500
15.383333	1	7.561000
15.400000	1	6.764500
15.416667	1	6.061500
15.433333	1	5.443250
15.450000	1	4.900375
15.466667	1	4.425375
15.483333	1	4.011750
15.500000	1	3.652875
15.516667	1	3.342625
15.533333	1	3.075625
15.550000	1	2.847500
15.566667	1	2.651375
15.583333	1	2.484125
15.600000	1	2.339875
15.616667	1	2.215625
15.633333	1	2.107250
15.650000	1	2.012000
15.666667	1	1.926750
15.683333	1	1.849000
15.700000	1	1.777000
15.716667	1	1.708500
15.733333	1	1.643625
15.750000	1	1.581500
15.766667	1	1.521375
15.783333	1	1.463000
15.800000	1	1.407375
15.816667	1	1.353875
15.833333	1	1.302625
15.850000	1	1.254250
15.866667	1	1.207625
15.883333	1	1.164125
15.900000	1	1.122500
15.916667	1	1.083500
15.933333	1	1.047375
15.950000	1	1.013500
15.966667	1	0.982250
15.983333	1	0.952750
16.000000	1	0.926375
16.016667	1	0.902375
16.033333	1	0.879500
16.050000	1	0.859125
16.066667	1	0.840500
16.083333	1	0.824000
16.100000	1	0.809875
16.116667	1	0.797375
16.133333	1	0.786750
16.150000	1	0.777250
16.166667	1	0.769375
16.183333	1	0.763250
16.200000	1	0.757500
16.216667	1	0.753000
16.233333	1	0.748750
16.250000	1	0.744625
16.266667	1	0.740625
16.283333	1	0.737125
16.300000	1	0.733375
16.316667	1	0.729250
16.333333	1	0.725125
16.350000	1	0.720375
16.366667	1	0.716250
16.383333	1	0.712375
16.400000	1	0.708250
16.416667	1	0.704875
16.433333	1	0.700750
16.450000	1	0.697750
16.466667	1	0.694875
16.483333	1	0.692875
16.500000	1	0.691875
16.516667	1	0.691875
16.533333	1	0.691625
16.550000	1	0.692250
16.566667	1	0.693625
16.583333	1	0.696625
16.600000	1	0.700000
16.616667	1	0.703750
16.633333	1	0.708000
16.650000	1	0.712875
16.666667	1	0.718125
16.683333	1	0.724000
16.700000	1	0.730375
16.716667	1	0.736500
16.733333	1	0.742500
16.750000	1	0.749000
16.766667	1	0.754875
16.783333	1	0.760125
16.800000	1	0.764750
16.816667	1	0.768250
16.833333	1	0.771500
16.850000	1	0.773000
16.866667	1	0.772625
16.883333	1	0.772375
16.900000	1	0.772625
16.916667	1	0.771750
16.933333	1	0.770375
16.950000	1	0.769250
16.966667	1	0.768125
16.983333	1	0.768000
17.000000	1	0.767750
17.016667	1	0.768750
17.033333	1	0.769625
17.050000	1	0.770750
17.066667	1	0.772125
17.083333	1	0.774000
17.100000	1	0.775000
17.116667	1	0.776000
17.133333	1	0.775000
17.150000	1	0.773875
17.166667	1	0.772000
17.183333	1	0.769750
17.200000	1	0.766375
17.216667	1	0.761750
17.233333	1	0.756375
17.250000	1	0.751375
17.266667	1	0.745750
17.283333	1	0.740375
17.300000	1	0.735125
17.316667	1	0.729500
17.333333	1	0.724625
17.350000	1	0.719875
17.366667	1	0.715625
17.383333	1	0.712000
17.400000	1	0.709750
17.416667	1	0.707750
17.433333	1	0.706625
17.450000	1	0.705500
17.466667	1	0.704875
17.483333	1	0.704875
17.500000	1	0.706000
17.516667	1	0.707875
17.533333	1	0.710000
17.550000	1	0.712875
17.566667	1	0.717125
17.583333	1	0.722250
17.600000	1	0.727500
17.616667	1	0.734750
17.633333	1	0.742000
17.650000	1	0.750250
17.666667	1	0.759625
17.683333	1	0.769875
17.700000	1	0.779625
17.716667	1	0.790500
17.733333	1	0.801625
17.750000	1	0.813625
17.766667	1	0.826750
17.783333	1	0.840000
17.800000	1	0.853250
17.816667	1	0.865375
17.833333	1	0.877125
17.850000	1	0.889125
17.866667	1	0.899875
17.883333	1	0.909125
17.900000	1	0.916500
17.916667	1	0.922375
17.933333	1	0.926500
17.950000	1	0.928500
17.966667	1	0.928500
17.983333	1	0.926500
18.000000	1	0.922375
18.016667	1	0.916250
18.033333	1	0.907125
18.050000	1	0.896750
18.066667	1	0.884625
18.083333	1	0.870625
18.100000	1	0.856125
18.116667	1	0.840375
18.133333	1	0.824000
18.150000	1	0.807125
18.166667	1	0.789875
18.183333	1	0.773125
18.200000	1	0.756125
18.216667	1	0.739750
18.233333	1	0.724375
18.250000	1	0.709375
18.266667	1	0.695750
18.283333	1	0.682750
18.300000	1	0.671875
18.316667	1	0.661625
18.333333	1	0.652750
18.350000	1	0.645375
18.366667	1	0.639000
18.383333	1	0.633625
18.400000	1	0.628625
18.416667	1	0.624875
18.433333	1	0.621500
18.450000	1	0.619500
18.466667	1	0.617625
18.483333	1	0.616500
18.500000	1	0.615375
18.516667	1	0.614875
18.533333	1	0.615000
18.550000	1	0.615500
18.566667	1	0.616125
18.583333	1	0.617125
18.600000	1	0.618875
18.616667	1	0.620875
18.633333	1	0.623250
18.650000	1	0.626375
18.666667	1	0.629000
18.683333	1	0.632500
18.700000	1	0.636250
18.716667	1	0.641125
18.733333	1	0.646750
18.750000	1	0.653125
18.766667	1	0.659750
18.783333	1	0.666625
18.800000	1	0.674250
18.816667	1	0.682125
18.833333	1	0.690500
18.850000	1	0.700000
18.866667	1	0.711000
18.883333	1	0.722375
18.900000	1	0.735500
18.916667	1	0.749625
18.933333	1	0.766125
18.950000	1	0.784250
18.966667	1	0.804750
18.983333	1	0.827625
19.000000	1	0.853000
19.016667	1	0.881500
19.033333	1	0.911625
19.050000	1	0.944125
19.066667	1	0.978375
19.083333	1	1.015125
19.100000	1	1.052125
19.116667	1	1.089625
19.133333	1	1.126500
19.150000	1	1.163125
19.166667	1	1.197250
19.183333	1	1.228750
19.200000	1	1.256125
19.216667	1	1.279000
19.233333	1	1.297375
19.250000	1	1.310125
19.266667	1	1.317250
19.283333	1	1.318625
19.300000	1	1.314000
19.316667	1	1.303250
19.333333	1	1.287500
19.350000	1	1.266250
19.366667	1	1.240000
19.383333	1	1.209750
19.400000	1	1.176125
19.416667	1	1.139625
19.433333	1	1.100750
19.450000	1	1.060250
19.466667	1	1.019375
19.483333	1	0.977625
19.500000	1	0.936125
19.516667	1	0.894750
19.533333	1	0.855500
19.550000	1	0.816875
19.566667	1	0.780625
19.583333	1	0.746000
19.600000	1	0.714250
19.616667	1	0.684500
19.633333	1	0.657500
19.650000	1	0.633250
19.666667	1	0.612875
19.683333	1	0.594750
19.700000	1	0.580250
19.716667	1	0.569500
19.733333	1	0.561500
19.750000	1	0.558000
19.766667	1	0.557375
19.783333	1	0.560500
19.800000	1	0.567500
19.816667	1	0.576750
19.833333	1	0.589250
19.850000	1	0.605500
19.866667	1	0.623750
19.883333	1	0.643375
19.900000	1	0.665250
19.916667	1	0.688250
19.933333	1	0.711750
19.950000	1	0.735500
19.966667	1	0.759125
19.983333	1	0.783000
20.000000	1	0.805375
20.016667	1	0.826500
20.033333	1	0.846375
20.050000	1	0.865500
20.066667	1	0.883500
20.083333	1	0.900250
20.100000	1	0.916375
20.116667	1	0.933500
20.133333	1	0.950625
20.150000	1	0.969500
20.166667	1	0.990500
20.183333	1	1.013625
20.200000	1	1.039875
20.216667	1	1.071000
20.233333	1	1.107625
20.250000	1	1.150000
20.266667	1	1.199875
20.283333	1	1.255875
20.300000	1	1.319000
20.316667	1	1.389375
20.333333	1	1.466375
20.350000	1	1.550500
20.366667	1	1.638625
20.383333	1	1.729250
20.400000	1	1.822125
20.416667	1	1.914000
20.433333	1	2.003250
20.450000	1	2.086125
20.466667	1	2.161500
20.483333	1	2.227875
20.500000	1	2.282625
20.516667	1	2.325250
20.533333	1	2.354375
20.550000	1	2.370500
20.566667	1	2.372500
20.583333	1	2.361750
20.600000	1	2.339375
20.616667	1	2.306625
20.633333	1	2.266125
20.650000	1	2.219125
20.666667	1	2.167875
20.683333	1	2.114875
20.700000	1	2.062500
20.716667	1	2.011875
20.733333	1	1.964750
20.750000	1	1.923125
20.766667	1	1.886375
20.783333	1	1.856500
20.800000	1	1.833250
20.816667	1	1.815125
20.833333	1	1.801500
20.850000	1	1.792375
20.866667	1	1.785750
20.883333	1	1.780000
20.900000	1	1.773625
20.916667	1	1.765625
20.933333	1	1.754500
20.950000	1	1.738875
20.966667	1	1.718500
20.983333	1	1.691250
21.000000	1	1.658000
21.016667	1	1.618625
21.033333	1	1.572625
21.050000	1	1.521875
21.066667	1	1.466000
21.083333	1	1.406750
21.100000	1	1.344625
21.116667	1	1.280125
21.133333	1	1.215375
21.150000	1	1.151250
21.166667	1	1.087125
21.183333	1	1.024250
21.200000	1	0.964125
21.216667	1	0.907250
21.233333	1	0.852250
21.250000	1	0.800375
21.266667	1	0.752625
21.283333	1	0.708625
21.300000	1	0.667500
21.316667	1	0.629625
21.333333	1	0.595375
21.350000	1	0.564125
21.366667	1	0.536000
21.383333	1	0.510125
21.400000	1	0.487000
21.416667	1	0.465875
21.433333	1	0.447625
21.450000	1	0.431625
21.466667	1	0.417125
21.483333	1	0.405250
21.500000	1	0.394375
21.516667	1	0.385375
21.533333	1	0.377750
21.550000	1	0.371500
21.566667	1	0.366000
21.583333	1	0.362000
21.600000	1	0.358500
21.616667	1	0.356750
21.633333	1	0.356250
21.650000	1	0.356750
21.666667	1	0.359625
21.683333	1	0.363625
21.700000	1	0.369625
21.716667	1	0.376875
21.733333	1	0.386125
21.750000	1	0.397875
21.766667	1	0.411875
21.783333	1	0.427875
21.800000	1	0.445750
21.816667	1	0.465250
21.833333	1	0.487625
21.850000	1	0.512125
21.866667	1	0.538250
21.883333	1	0.565750
21.900000	1	0.593750
21.916667	1	0.622625
21.933333	1	0.651125
21.950000	1	0.679000
21.966667	1	0.705875
21.983333	1	0.731375
22.000000	1	0.753625
22.016667	1	0.774125
22.033333	1	0.790625
22.050000	1	0.804000
22.066667	1	0.813875
22.083333	1	0.820000
22.100000	1	0.822125
22.116667	1	0.820000
22.133333	1	0.814000
22.150000	1	0.804750
22.166667	1	0.791875
22.183333	1	0.776750
22.200000	1	0.759625
22.216667	1	0.740625
22.233333	1	0.720000
22.250000	1	0.698875
22.266667	1	0.677000
22.283333	1	0.655000
22.300000	1	0.634125
22.316667	1	0.614125
22.333333	1	0.595500
22.350000	1	0.577625
22.366667	1	0.561125
22.383333	1	0.545125
22.400000	1	0.530625
22.416667	1	0.518000
22.433333	1	0.507500
22.450000	1	0.497875
22.466667	1	0.489500
22.483333	1	0.482750
22.500000	1	0.477875
22.516667	1	0.474000
22.533333	1	0.470250
22.550000	1	0.466750
22.566667	1	0.464250
22.583333	1	0.462500
22.600000	1	0.461125
22.616667	1	0.460750
22.633333	1	0.459875
22.650000	1	0.458125
22.666667	1	0.457125
22.683333	1	0.456625
22.700000	1	0.455375
22.716667	1	0.454500
22.733333	1	0.452875
22.750000	1	0.450625
22.766667	1	0.447875
22.783333	1	0.444750
22.800000	1	0.441375
22.816667	1	0.437375
22.833333	1	0.432375
22.850000	1	0.427000
22.866667	1	0.420625
22.883333	1	0.415000
22.900000	1	0.408375
22.916667	1	0.402250
22.933333	1	0.395375
22.950000	1	0.389125
22.966667	1	0.382125
22.983333	1	0.375125
23.000000	1	0.368625
23.016667	1	0.362750
23.033333	1	0.356875
23.050000	1	0.351250
23.066667	1	0.346750
23.083333	1	0.343000
23.100000	1	0.340000
23.116667	1	0.338750
23.133333	1	0.338625
23.150000	1	0.338500
23.166667	1	0.339250
23.183333	1	0.341250
23.200000	1	0.344625
23.216667	1	0.348875
23.233333	1	0.354625
23.250000	1	0.362500
23.266667	1	0.371500
23.283333	1	0.382375
23.300000	1	0.394375
23.316667	1	0.408500
23.333333	1	0.424875
23.350000	1	0.443000
23.366667	1	0.463875
23.383333	1	0.486625
23.400000	1	0.512500
23.416667	1	0.541625
23.433333	1	0.573500
23.450000	1	0.609625
23.466667	1	0.650375
23.483333	1	0.696375
23.500000	1	0.748500
23.516667	1	0.806250
23.533333	1	0.872000
23.550000	1	0.946375
23.566667	1	1.029875
23.583333	1	1.124000
23.600000	1	1.229250
23.616667	1	1.346000
23.633333	1	1.475000
23.650000	1	1.616500
23.666667	1	1.771125
23.683333	1	1.938000
23.700000	1	2.116500
23.716667	1	2.305125
23.733333	1	2.501875
23.750000	1	2.704250
23.766667	1	2.910000
23.783333	1	3.116000
23.800000	1	3.319000
23.816667	1	3.514750
23.833333	1	3.700375
23.850000	1	3.871125
23.866667	1	4.024875
23.883333	1	4.157750
23.900000	1	4.267125
23.916667	1	4.350750
23.933333	1	4.407500
23.950000	1	4.436500
23.966667	1	4.437125
23.983333	1	4.410750
24.000000	1	4.357750
24.016667	1	4.279625
24.033333	1	4.179375
24.050000	1	4.059625
24.066667	1	3.922750
24.083333	1	3.771750
24.100000	1	3.609375
24.116667	1	3.439625
24.133333	1	3.263750
24.150000	1	3.085375
24.166667	1	2.906500
24.183333	1	2.730250
24.200000	1	2.558875
24.216667	1	2.393375
24.233333	1	2.234500
24.250000	1	2.084250
24.266667	1	1.942500
24.283333	1	1.809875
24.300000	1	1.686750
24.316667	1	1.572625
24.333333	1	1.467250
24.350000	1	1.370625
24.366667	1	1.283625
24.383333	1	1.204000
24.400000	1	1.131250
24.416667	1	1.066250
24.433333	1	1.006125
24.450000	1	0.952500
24.466667	1	0.904000
24.483333	1	0.859750
24.500000	1	0.818750
24.516667	1	0.780625
24.533333	1	0.745625
24.550000	1	0.713500
24.566667	1	0.682625
24.583333	1	0.653000
24.600000	1	0.626000
24.616667	1	0.600125
24.633333	1	0.574750
24.650000	1	0.550375
24.666667	1	0.527250
24.683333	1	0.504750
24.700000	1	0.483250
24.716667	1	0.462125
24.733333	1	0.442000
24.750000	1	0.422500
24.766667	1	0.403500
24.783333	1	0.384000
24.800000	1	0.366250
24.816667	1	0.349500
24.833333	1	0.333750
24.850000	1	0.318375
24.866667	1	0.304625
24.883333	1	0.291625
24.900000	1	0.279750
24.916667	1	0.267750
24.933333	1	0.257000
24.950000	1	0.247250
24.966667	1	0.237875
24.983333	1	0.229250
25.000000	1	0.222000
25.016667	1	0.215750
25.033333	1	0.210625
25.050000	1	0.205375
25.066667	1	0.201125
25.083333	1	0.197875
25.100000	1	0.195000
25.116667	1	0.193125
25.133333	1	0.191250
25.150000	1	0.189500
25.166667	1	0.188750
25.183333	1	0.188375
25.200000	1	0.188625
25.216667	1	0.189125
25.233333	1	0.190250
25.250000	1	0.191625
25.266667	1	0.193250
25.283333	1	0.194875
25.300000	1	0.196875
25.316667	1	0.199250
25.333333	1	0.201750
25.350000	1	0.204000
25.366667	1	0.206250
25.383333	1	0.208875
25.400000	1	0.210000
25.416667	1	0.211875
25.433333	1	0.213250
25.450000	1	0.214750
25.466667	1	0.216375
25.483333	1	0.217875
25.500000	1	0.218875
25.516667	1	0.219625
25.533333	1	0.219375
25.550000	1	0.219500
25.566667	1	0.219625
25.583333	1	0.219750
25.600000	1	0.218875
25.616667	1	0.217750
25.633333	1	0.216500
25.650000	1	0.215875
25.666667	1	0.214500
25.683333	1	0.212500
25.700000	1	0.210875
25.716667	1	0.208375
25.733333	1	0.205375
25.750000	1	0.202250
25.766667	1	0.199750
25.783333	1	0.196125
25.800000	1	0.192125
25.816667	1	0.188250
25.833333	1	0.184125
25.850000	1	0.179875
25.866667	1	0.175750
25.883333	1	0.170125
25.900000	1	0.164250
25.916667	1	0.157750
25.933333	1	0.152000
25.950000	1	0.145625
25.966667	1	0.139000
25.983333	1	0.132125
26.000000	1	0.125500
26.016667	1	0.118625
26.033333	1	0.111375
26.050000	1	0.104500
26.066667	1	0.097500
26.083333	1	0.091250
26.100000	1	0.085125
26.116667	1	0.079125
26.133333	1	0.073250
26.150000	1	0.068625
26.166667	1	0.063375
26.183333	1	0.059750
26.200000	1	0.056625
26.216667	1	0.053625
26.233333	1	0.051250
26.250000	1	0.049875
26.266667	1	0.049125
26.283333	1	0.048500
26.300000	1	0.048250
26.316667	1	0.048375
26.333333	1	0.048750
26.350000	1	0.049625
26.366667	1	0.051000
26.383333	1	0.052125
26.400000	1	0.054125
26.416667	1	0.056125
26.433333	1	0.057875
26.450000	1	0.058750
26.466667	1	0.060750
26.483333	1	0.062375
26.500000	1	0.063250
26.516667	1	0.064500
26.533333	1	0.065375
26.550000	1	0.065875
26.566667	1	0.066875
26.583333	1	0.067500
26.600000	1	0.067875
26.616667	1	0.068875
26.633333	1	0.069875
26.650000	1	0.070500
26.666667	1	0.071250
26.683333	1	0.071375
26.700000	1	0.071750
26.716667	1	0.072500
26.733333	1	0.073625
26.750000	1	0.075000
26.766667	1	0.076625
26.783333	1	0.078750
26.800000	1	0.080250
26.816667	1	0.082750
26.833333	1	0.085875
26.850000	1	0.089125
26.866667	1	0.093000
26.883333	1	0.096750
26.900000	1	0.100500
26.916667	1	0.104500
26.933333	1	0.109125
26.950000	1	0.114625
26.966667	1	0.120500
26.983333	1	0.126625
27.000000	1	0.133250
27.016667	1	0.139875
27.033333	1	0.147375
27.050000	1	0.155000
27.066667	1	0.163500
27.083333	1	0.172250
27.100000	1	0.181500
27.116667	1	0.191000
27.133333	1	0.201250
27.150000	1	0.212375
27.166667	1	0.224375
27.183333	1	0.235875
27.200000	1	0.249125
27.216667	1	0.263000
27.233333	1	0.277125
27.250000	1	0.291875
27.266667	1	0.308250
27.283333	1	0.324875
27.300000	1	0.342625
27.316667	1	0.361125
27.333333	1	0.381000
27.350000	1	0.401250
27.366667	1	0.423375
27.383333	1	0.447250
27.400000	1	0.472500
27.416667	1	0.500375
27.433333	1	0.530250
27.450000	1	0.562500
27.466667	1	0.597250
27.483333	1	0.635875
27.500000	1	0.677500
27.516667	1	0.724000
27.533333	1	0.774375
27.550000	1	0.829750
27.566667	1	0.890375
27.583333	1	0.957250
27.600000	1	1.030000
27.616667	1	1.110500
27.633333	1	1.196625
27.650000	1	1.289750
27.666667	1	1.390000
27.683333	1	1.496500
27.700000	1	1.610500
27.716667	1	1.729875
27.733333	1	1.854000
27.750000	1	1.982625
27.766667	1	2.114125
27.783333	1	2.247875
27.800000	1	2.382750
27.816667	1	2.517125
27.833333	1	2.648875
27.850000	1	2.776375
27.866667	1	2.898125
27.883333	1	3.012375
27.900000	1	3.116125
27.916667	1	3.209125
27.933333	1	3.289250
27.950000	1	3.354875
27.966667	1	3.404125
27.983333	1	3.438250
28.000000	1	3.454750
28.016667	1	3.454125
28.033333	1	3.435750
28.050000	1	3.400125
28.066667	1	3.347375
28.083333	1	3.278250
28.100000	1	3.195375
28.116667	1	3.099125
28.133333	1	2.990500
28.150000	1	2.871500
28.166667	1	2.743375
28.183333	1	2.608875
28.200000	1	2.469250
28.216667	1	2.326375
28.233333	1	2.181500
28.250000	1	2.036125
28.266667	1	1.892000
28.283333	1	1.748375
28.300000	1	1.608500
28.316667	1	1.472750
28.333333	1	1.341375
28.350000	1	1.215625
28.366667	1	1.094375
28.383333	1	0.979750
28.400000	1	0.870500
28.416667	1	0.767000
28.433333	1	0.668875
28.450000	1	0.576000
28.466667	1	0.488000
28.483333	1	0.403500
28.500000	1	0.323625
28.516667	1	0.246500
28.533333	1	0.173875
28.550000	1	0.103500
28.566667	1	0.036000
28.583333	1	-0.028875
28.600000	1	-0.091125
28.616667	1	-0.151750
28.633333	1	-0.210875
28.650000	1	-0.267625
28.666667	1	-0.323000
28.683333	1	-0.376250
28.700000	1	-0.427750
28.716667	1	-0.477750
28.733333	1	-0.525125
28.750000	1	-0.569500
28.766667	1	-0.611625
28.783333	1	-0.650750
28.800000	1	-0.687375
28.816667	1	-0.719250
28.833333	1	-0.748250
28.850000	1	-0.774250
28.866667	1	-0.795375
28.883333	1	-0.813000
28.900000	1	-0.826375
28.916667	1	-0.835000
28.933333	1	-0.839375
28.950000	1	-0.839000
28.966667	1	-0.834875
28.983333	1	-0.826625
29.000000	1	-0.814375
29.016667	1	-0.797750
29.033333	1	-0.778000
29.050000	1	-0.754625
29.066667	1	-0.728125
29.083333	1	-0.698625
29.100000	1	-0.666250
29.116667	1	-0.632250
29.133333	1	-0.596250
29.150000	1	-0.558625
29.166667	1	-0.518750
29.183333	1	-0.478375
29.200000	1	-0.437000
29.216667	1	-0.395750
29.233333	1	-0.354125
29.250000	1	-0.312625
29.266667	1	-0.271750
29.283333	1	-0.231125
29.300000	1	-0.192375
29.316667	1	-0.154375
29.333333	1	-0.116875
29.350000	1	-0.080500
29.366667	1	-0.045250
29.383333	1	-0.012250
29.400000	1	0.019875
29.416667	1	0.050000
29.433333	1	0.077875
29.450000	1	0.103875
29.466667	1	0.128500
29.483333	1	0.151500
29.500000	1	0.171875
29.516667	1	0.190625
29.533333	1	0.208125
29.550000	1	0.224000
29.566667	1	0.237000
29.583333	1	0.249375
29.600000	1	0.260500
29.616667	1	0.269875
29.633333	1	0.277625
29.650000	1	0.284000
29.666667	1	0.288750
29.683333	1	0.292375
29.700000	1	0.295000
29.716667	1	0.296750
29.733333	1	0.297125
29.750000	1	0.296375
29.766667	1	0.295000
29.783333	1	0.293125
29.800000	1	0.291000
29.816667	1	0.287250
29.833333	1	0.284250
29.850000	1	0.281125
29.866667	1	0.277125
29.883333	1	0.273500
29.900000	1	0.269500
29.916667	1	0.265375
29.933333	1	0.261375
29.950000	1	0.257250
29.966667	1	0.254250
29.983333	1	0.250875
30.000000	1	0.248375
30.016667	1	0.245875
30.033333	1	0.243125
30.050000	1	0.240875
30.066667	1	0.239875
30.083333	1	0.239125
30.100000	1	0.238625
30.116667	1	0.239250
30.133333	1	0.240375
30.150000	1	0.241125
30.166667	1	0.243250
30.183333	1	0.246750
30.200000	1	0.250000
30.216667	1	0.254500
30.233333	1	0.259500
30.250000	1	0.265625
30.266667	1	0.272000
30.283333	1	0.279625
30.300000	1	0.288250
30.316667	1	0.298875
30.333333	1	0.310750
30.350000	1	0.323625
30.366667	1	0.337375
30.383333	1	0.352625
30.400000	1	0.369500
30.416667	1	0.387375
30.433333	1	0.407125
30.450000	1	0.428750
30.466667	1	0.451750
30.483333	1	0.476000
30.500000	1	0.501625
30.516667	1	0.528750
30.533333	1	0.556500
30.550000	1	0.585250
30.566667	1	0.613875
30.583333	1	0.643375
30.600000	1	0.673000
30.616667	1	0.702625
30.633333	1	0.731250
30.650000	1	0.758375
30.666667	1	0.784375
30.683333	1	0.808000
30.700000	1	0.829875
30.716667	1	0.849750
30.733333	1	0.866500
30.750000	1	0.881375
30.766667	1	0.893250
30.783333	1	0.901500
30.800000	1	0.906375
30.816667	1	0.907500
30.833333	1	0.904375
30.850000	1	0.898125
30.866667	1	0.889000
30.883333	1	0.876125
30.900000	1	0.859875
30.916667	1	0.841750
30.933333	1	0.821000
30.950000	1	0.797375
30.966667	1	0.772000
30.983333	1	0.745000
31.000000	1	0.716875
31.016667	1	0.687625
31.033333	1	0.657250
31.050000	1	0.625875
31.066667	1	0.594750
31.083333	1	0.564250
31.100000	1	0.533375
31.116667	1	0.503125
31.133333	1	0.473875
31.150000	1	0.445375
31.166667	1	0.417500
31.183333	1	0.391000
31.200000	1	0.365750
31.216667	1	0.342500
31.233333	1	0.319250
31.250000	1	0.297750
31.266667	1	0.278125
31.283333	1	0.260125
31.300000	1	0.243000
31.316667	1	0.226625
31.333333	1	0.212250
31.350000	1	0.198375
31.366667	1	0.185875
31.383333	1	0.175625
31.400000	1	0.166000
31.416667	1	0.156375
31.433333	1	0.148375
31.450000	1	0.140875
31.466667	1	0.134625
31.483333	1	0.128375
31.500000	1	0.123125
31.516667	1	0.119125
31.533333	1	0.115625
31.550000	1	0.112125
31.566667	1	0.109500
31.583333	1	0.108750
31.600000	1	0.108000
31.616667	1	0.107250
31.633333	1	0.106625
31.650000	1	0.106750
31.666667	1	0.107375
31.683333	1	0.108875
31.700000	1	0.110375
31.716667	1	0.112500
31.733333	1	0.115000
31.750000	1	0.117250
31.766667	1	0.120250
31.783333	1	0.124250
31.800000	1	0.127500
31.816667	1	0.130750
31.833333	1	0.134250
31.850000	1	0.138125
31.866667	1	0.141250
31.883333	1	0.144375
31.900000	1	0.147500
31.916667	1	0.149625
31.933333	1	0.152375
31.950000	1	0.154750
31.966667	1	0.157250
31.983333	1	0.158750
32.000000	1	0.159500
32.016667	1	0.159250
32.033333	1	0.159500
32.050000	1	0.158125
32.066667	1	0.156875
32.083333	1	0.155125
32.100000	1	0.152625
32.116667	1	0.150250
32.133333	1	0.147125
32.150000	1	0.143875
32.166667	1	0.139625
32.183333	1	0.135375
32.200000	1	0.131125
32.216667	1	0.126500
32.233333	1	0.121250
32.250000	1	0.116250
32.266667	1	0.110875
32.283333	1	0.105125
32.300000	1	0.100125
32.316667	1	0.095000
32.333333	1	0.089750
32.350000	1	0.084375
32.366667	1	0.079750
32.383333	1	0.076125
32.400000	1	0.072250
32.416667	1	0.068125
32.433333	1	0.063875
32.450000	1	0.060750
32.466667	1	0.057250
32.483333	1	0.054125
32.500000	1	0.052000
32.516667	1	0.049500
32.533333	1	0.046875
32.550000	1	0.044625
32.566667	1	0.042625
32.583333	1	0.040750
32.600000	1	0.038875
32.616667	1	0.037500
32.633333	1	0.035625
32.650000	1	0.033750
32.666667	1	0.032125
32.683333	1	0.030000
32.700000	1	0.027875
32.716667	1	0.026375
32.733333	1	0.024875
32.750000	1	0.023375
32.766667	1	0.021500
32.783333	1	0.019125
32.800000	1	0.016625
32.816667	1	0.014250
32.833333	1	0.011375
32.850000	1	0.008250
32.866667	1	0.005375
32.883333	1	0.002625
32.900000	1	0.000125
32.916667	1	-0.002500
32.933333	1	-0.005250
32.950000	1	-0.008125
32.966667	1	-0.011375
32.983333	1	-0.014250
33.000000	1	-0.016625
33.016667	1	-0.018875
33.033333	1	-0.021875
33.050000	1	-0.024125
33.066667	1	-0.027250
33.083333	1	-0.029750
33.100000	1	-0.032625
33.116667	1	-0.035125
33.133333	1	-0.037375
33.150000	1	-0.039750
33.166667	1	-0.042500
33.183333	1	-0.044375
33.200000	1	-0.047125
33.216667	1	-0.049500
33.233333	1	-0.052250
33.250000	1	-0.054000
33.266667	1	-0.056875
33.283333	1	-0.058750
33.300000	1	-0.061500
33.316667	1	-0.064000
33.333333	1	-0.066125
33.350000	1	-0.068625
33.366667	1	-0.070125
33.383333	1	-0.072125
33.400000	1	-0.074125
33.416667	1	-0.076125
33.433333	1	-0.078375
33.450000	1	-0.080875
33.466667	1	-0.083000
33.483333	1	-0.085000
33.500000	1	-0.086250
33.516667	1	-0.088250
33.533333	1	-0.089625
33.550000	1	-0.091625
33.566667	1	-0.092375
33.583333	1	-0.093500
33.600000	1	-0.094125
33.616667	1	-0.095375
33.633333	1	-0.096625
33.650000	1	-0.097625
33.666667	1	-0.098875
33.683333	1	-0.099875
33.700000	1	-0.100875
33.716667	1	-0.101000
33.733333	1	-0.101250
33.750000	1	-0.101125
33.766667	1	-0.101125
33.783333	1	-0.101250
33.800000	1	-0.101375
33.816667	1	-0.101375
33.833333	1	-0.101375
33.850000	1	-0.101125
33.866667	1	-0.100875
33.883333	1	-0.100125
33.900000	1	-0.098875
33.916667	1	-0.098000
33.933333	1	-0.097125
33.950000	1	-0.096125
33.966667	1	-0.095125
33.983333	1	-0.094000
34.000000	1	-0.093000
34.016667	1	-0.091625
34.033333	1	-0.090250
34.050000	1	-0.088875
34.066667	1	-0.087500
34.083333	1	-0.086125
34.100000	1	-0.084250
34.116667	1	-0.082750
34.133333	1	-0.081125
34.150000	1	-0.079250
34.166667	1	-0.077625
34.183333	1	-0.076375
34.200000	1	-0.074375
34.216667	1	-0.072125
34.233333	1	-0.070125
34.250000	1	-0.068500
34.266667	1	-0.066875
34.283333	1	-0.065500
34.300000	1	-0.064500
34.316667	1	-0.062750
34.333333	1	-0.061000
34.350000	1	-0.058625
34.366667	1	-0.057250
34.383333	1	-0.055625
34.400000	1	-0.054000
34.416667	1	-0.052500
34.433333	1	-0.050875
34.450000	1	-0.049625
34.466667	1	-0.048375
34.483333	1	-0.047125
34.500000	1	-0.046125
34.516667	1	-0.045000
34.533333	1	-0.044000
34.550000	1	-0.042875
34.566667	1	-0.041625
34.583333	1	-0.039875
34.600000	1	-0.039250
34.616667	1	-0.038250
34.633333	1	-0.036750
34.650000	1	-0.035000
34.666667	1	-0.034000
34.683333	1	-0.032375
34.700000	1	-0.031000
34.716667	1	-0.029375
34.733333	1	-0.027625
34.750000	1	-0.026125
34.766667	1	-0.024500
34.783333	1	-0.023250
34.800000	1	-0.021500
34.816667	1	-0.019000
34.833333	1	-0.017375
34.850000	1	-0.015500
34.866667	1	-0.013250
34.883333	1	-0.011250
34.900000	1	-0.008000
34.916667	1	-0.005875
34.933333	1	-0.003375
34.950000	1	-0.000750
34.966667	1	0.001625
34.983333	1	0.003625
35.000000	1	0.005750
35.016667	1	0.008375
35.033333	1	0.010875
35.050000	1	0.014000
35.066667	1	0.016625
35.083333	1	0.019500
35.100000	1	0.022875
35.116667	1	0.025375
35.133333	1	0.028500
35.150000	1	0.030875
35.166667	1	0.033375
35.183333	1	0.035250
35.200000	1	0.037750
35.216667	1	0.039375
35.233333	1	0.041625
35.250000	1	0.044000
35.266667	1	0.045250
35.283333	1	0.047000
35.300000	1	0.049875
35.316667	1	0.052125
35.333333	1	0.054375
35.350000	1	0.054875
35.366667	1	0.055625
35.383333	1	0.056250
35.400000	1	0.057375
35.416667	1	0.058000
35.433333	1	0.058125
35.450000	1	0.058875
35.466667	1	0.060000
35.483333	1	0.060375
35.500000	1	0.060375
35.516667	1	0.060125
35.533333	1	0.060875
35.550000	1	0.060125
35.566667	1	0.059375
35.583333	1	0.058750
35.600000	1	0.058375
35.616667	1	0.058000
35.633333	1	0.057125
35.650000	1	0.056875
35.666667	1	0.056500
35.683333	1	0.055875
35.700000	1	0.055500
35.716667	1	0.054000
35.733333	1	0.053125
35.750000	1	0.052625
35.766667	1	0.052000
35.783333	1	0.052250
35.800000	1	0.051250
35.816667	1	0.050250
35.833333	1	0.050000
35.850000	1	0.049375
35.866667	1	0.049125
35.883333	1	0.048750
35.900000	1	0.047625
35.916667	1	0.047625
35.933333	1	0.047250
35.950000	1	0.047125
35.966667	1	0.046000
35.983333	1	0.045375
36.000000	1	0.044375
36.016667	1	0.043250
36.033333	1	0.042750
36.050000	1	0.041875
36.066667	1	0.040750
36.083333	1	0.040000
36.100000	1	0.039500
36.116667	1	0.038125
36.133333	1	0.037000
36.150000	1	0.036125
36.166667	1	0.035000
36.183333	1	0.034000
36.200000	1	0.032250
36.216667	1	0.030250
36.233333	1	0.028875
36.250000	1	0.026875
36.266667	1	0.024625
36.283333	1	0.023125
36.300000	1	0.021250
36.316667	1	0.019125
36.333333	1	0.017375
36.350000	1	0.015500
36.366667	1	0.013125
36.383333	1	0.011250
36.400000	1	0.009125
36.416667	1	0.006750
36.433333	1	0.004750
36.450000	1	0.002625
36.466667	1	0.000625
36.483333	1	-0.001625
36.500000	1	-0.004375
36.516667	1	-0.006500
36.533333	1	-0.008875
36.550000	1	-0.011875
36.566667	1	-0.014500
36.583333	1	-0.017125
36.600000	1	-0.019875
36.616667	1	-0.023125
36.633333	1	-0.026250
36.650000	1	-0.028625
36.666667	1	-0.032000
36.683333	1	-0.035750
36.700000	1	-0.038500
36.716667	1	-0.041000
36.733333	1	-0.043875
36.750000	1	-0.047250
36.766667	1	-0.050375
36.783333	1	-0.053125
36.800000	1	-0.056750
36.816667	1	-0.060125
36.833333	1	-0.063625
36.850000	1	-0.067375
36.866667	1	-0.070500
36.883333	1	-0.073750
36.900000	1	-0.076750
36.916667	1	-0.079375
36.933333	1	-0.082500
36.950000	1	-0.085625
36.966667	1	-0.088500
36.983333	1	-0.090750
37.000000	1	-0.093250
37.016667	1	-0.096125
37.033333	1	-0.098375
37.050000	1	-0.100625
37.066667	1	-0.102750
37.083333	1	-0.104500
37.100000	1	-0.106625
37.116667	1	-0.108500
37.133333	1	-0.110000
37.150000	1	-0.111250
37.166667	1	-0.112125
37.183333	1	-0.113500
37.200000	1	-0.114875
37.216667	1	-0.116375
37.233333	1	-0.117500
37.250000	1	-0.117875
37.266667	1	-0.119125
37.283333	1	-0.119625
37.300000	1	-0.120625
37.316667	1	-0.121375
37.333333	1	-0.121750
37.350000	1	-0.121750
37.366667	1	-0.122625
37.383333	1	-0.122625
37.400000	1	-0.123000
37.416667	1	-0.123500
37.433333	1	-0.123875
37.450000	1	-0.124250
37.466667	1	-0.124500
37.483333	1	-0.124000
37.500000	1	-0.123750
37.516667	1	-0.123875
37.533333	1	-0.124000
37.550000	1	-0.123500
37.566667	1	-0.123250
37.583333	1	-0.123000
37.600000	1	-0.123000
37.616667	1	-0.122750
37.633333	1	-0.122875
37.650000	1	-0.122625
37.666667	1	-0.122375
37.683333	1	-0.122000
37.700000	1	-0.121125
37.716667	1	-0.121000
37.733333	1	-0.120625
37.750000	1	-0.120375
37.766667	1	-0.119875
37.783333	1	-0.119250
37.800000	1	-0.118625
37.816667	1	-0.118375
37.833333	1	-0.118000
37.850000	1	-0.117500
37.866667	1	-0.116750
37.883333	1	-0.116125
37.900000	1	-0.115625
37.916667	1	-0.115500
37.933333	1	-0.115375
37.950000	1	-0.114625
37.966667	1	-0.113875
37.983333	1	-0.113375
38.000000	1	-0.113125
38.016667	1	-0.112250
38.033333	1	-0.112000
38.050000	1	-0.111375
38.066667	1	-0.110750
38.083333	1	-0.110375
38.100000	1	-0.110375
38.116667	1	-0.110375
38.133333	1	-0.110250
38.150000	1	-0.110000
38.166667	1	-0.110250
38.183333	1	-0.109500
38.200000	1	-0.109250
38.216667	1	-0.109250
38.233333	1	-0.109250
38.250000	1	-0.109125
38.266667	1	-0.109375
38.283333	1	-0.109125
38.300000	1	-0.109375
38.316667	1	-0.109625
38.333333	1	-0.109375
38.350000	1	-0.109250
38.366667	1	-0.111000
38.383333	1	-0.111125
38.400000	1	-0.111375
38.416667	1	-0.111625
38.433333	1	-0.111750
38.450000	1	-0.112125
38.466667	1	-0.112875
38.483333	1	-0.113000
38.500000	1	-0.113375
38.516667	1	-0.114000
38.533333	1	-0.114750
38.550000	1	-0.114750
38.566667	1	-0.114625
38.583333	1	-0.114875
38.600000	1	-0.115500
38.616667	1	-0.115625
38.633333	1	-0.116250
38.650000	1	-0.116000
38.666667	1	-0.115875
38.683333	1	-0.116250
38.700000	1	-0.116250
38.716667	1	-0.116125
38.733333	1	-0.116125
38.750000	1	-0.116125
38.766667	1	-0.116000
38.783333	1	-0.116125
38.800000	1	-0.116000
38.816667	1	-0.115125
38.833333	1	-0.115000
38.850000	1	-0.114750
38.866667	1	-0.114500
38.883333	1	-0.114125
38.900000	1	-0.114375
38.916667	1	-0.114625
38.933333	1	-0.114250
38.950000	1	-0.113750
38.966667	1	-0.113750
38.983333	1	-0.113375
39.000000	1	-0.113625
39.016667	1	-0.113625
39.033333	1	-0.113750
39.050000	1	-0.114000
39.066667	1	-0.113500
39.083333	1	-0.112750
39.100000	1	-0.112625
39.116667	1	-0.112750
39.133333	1	-0.112250
39.150000	1	-0.112625
39.166667	1	-0.113000
39.183333	1	-0.112750
39.200000	1	-0.112875
39.216667	1	-0.112250
39.233333	1	-0.112625
39.250000	1	-0.112250
39.266667	1	-0.111875
39.283333	1	-0.111500
39.300000	1	-0.111250
39.316667	1	-0.111250
39.333333	1	-0.111250
39.350000	1	-0.111625
39.366667	1	-0.111375
39.383333	1	-0.110750
39.400000	1	-0.111000
39.416667	1	-0.110375
39.433333	1	-0.110375
39.450000	1	-0.110125
39.466667	1	-0.110000
39.483333	1	-0.109500
39.500000	1	-0.108250
39.516667	1	-0.107875
39.533333	1	-0.107750
39.550000	1	-0.107125
39.566667	1	-0.105875
39.583333	1	-0.104750
39.600000	1	-0.104375
39.616667	1	-0.103875
39.633333	1	-0.102875
39.650000	1	-0.101750
39.666667	1	-0.100750
39.683333	1	-0.099625
39.700000	1	-0.098625
39.716667	1	-0.098375
39.733333	1	-0.097750
39.750000	1	-0.097250
39.766667	1	-0.096500
39.783333	1	-0.095375
39.800000	1	-0.094375
39.816667	1	-0.093250
39.833333	1	-0.092250
39.850000	1	-0.090625
39.866667	1	-0.089250
39.883333	1	-0.088000
39.900000	1	-0.087875
39.916667	1	-0.086875
39.933333	1	-0.086250
39.950000	1	-0.085875
39.966667	1	-0.085500
39.983333	1	-0.084875
40.000000	1	-0.084000
