File Path	chrom://marshall/Chromeleon7/HPLC_Ultimate_3000/Users/markusar/20230616_CMO_FP13_14_15.seq/799.smp/RI_1.channel/RI_1.chm
Channel	RI_1

Injection Information:
Data Vault	Chromeleon7
Injection	FP14_8.2_s2
Injection Number	27
Position	BE8
Comment	
Processing Method	
Instrument Method	run_25B_method
Type	Unknown
Status	Finished
Injection Date	17.06.2023
Injection Time	10:13:53
Injection Volume (µl)	20.000
Dilution Factor	1.0000
Weight	1.0000

Chromatogram Data Information:
Time Min. (min)	0.000000
Time Max. (min)	40.000000
Data Points	2401
Detector	RI
Generating Data System	Chromeleon 7.2.5.9507
Exporting Data System	Chromeleon 7.2.5.0
Operator	Instrument Controller
Signal Quantity	Refractive 
Signal Unit	µRIU
Signal Min.	-0.393500
Signal Max.	42.420750
Channel	RI_1
Driver Name	RID520Driver.dll
Channel Type	Evaluation
Min. Step (s)	1
Max. Step (s)	1
Average Step (s)	1

Signal Parameter Information:
Signal Info	

Chromatogram Data:
Time (min)	Step (s)	Value (µRIU)
0.000000	n.a.	-0.011125
0.016667	1	-0.011750
0.033333	1	-0.013000
0.050000	1	-0.013875
0.066667	1	-0.015000
0.083333	1	-0.015875
0.100000	1	-0.016375
0.116667	1	-0.017625
0.133333	1	-0.019500
0.150000	1	-0.020500
0.166667	1	-0.021375
0.183333	1	-0.022500
0.200000	1	-0.023250
0.216667	1	-0.024625
0.233333	1	-0.026125
0.250000	1	-0.028000
0.266667	1	-0.028625
0.283333	1	-0.029750
0.300000	1	-0.030875
0.316667	1	-0.031750
0.333333	1	-0.033000
0.350000	1	-0.034750
0.366667	1	-0.035750
0.383333	1	-0.036750
0.400000	1	-0.038500
0.416667	1	-0.039250
0.433333	1	-0.042125
0.450000	1	-0.045375
0.466667	1	-0.048750
0.483333	1	-0.050875
0.500000	1	-0.050750
0.516667	1	-0.048875
0.533333	1	-0.046750
0.550000	1	-0.043750
0.566667	1	-0.042125
0.583333	1	-0.040250
0.600000	1	-0.038500
0.616667	1	-0.037125
0.633333	1	-0.036375
0.650000	1	-0.036375
0.666667	1	-0.037250
0.683333	1	-0.039500
0.700000	1	-0.041375
0.716667	1	-0.043500
0.733333	1	-0.045125
0.750000	1	-0.045875
0.766667	1	-0.047000
0.783333	1	-0.048125
0.800000	1	-0.048500
0.816667	1	-0.049125
0.833333	1	-0.050000
0.850000	1	-0.050250
0.866667	1	-0.050000
0.883333	1	-0.050250
0.900000	1	-0.049250
0.916667	1	-0.049125
0.933333	1	-0.049500
0.950000	1	-0.049375
0.966667	1	-0.048875
0.983333	1	-0.047625
1.000000	1	-0.047250
1.016667	1	-0.046875
1.033333	1	-0.046000
1.050000	1	-0.045625
1.066667	1	-0.044750
1.083333	1	-0.044250
1.100000	1	-0.043500
1.116667	1	-0.042625
1.133333	1	-0.041500
1.150000	1	-0.040500
1.166667	1	-0.040000
1.183333	1	-0.039625
1.200000	1	-0.039375
1.216667	1	-0.038000
1.233333	1	-0.038125
1.250000	1	-0.037375
1.266667	1	-0.036250
1.283333	1	-0.035625
1.300000	1	-0.034750
1.316667	1	-0.033750
1.333333	1	-0.032625
1.350000	1	-0.032250
1.366667	1	-0.031750
1.383333	1	-0.031750
1.400000	1	-0.031250
1.416667	1	-0.031250
1.433333	1	-0.031625
1.450000	1	-0.031500
1.466667	1	-0.030750
1.483333	1	-0.030500
1.500000	1	-0.030250
1.516667	1	-0.030500
1.533333	1	-0.030375
1.550000	1	-0.029875
1.566667	1	-0.030000
1.583333	1	-0.030250
1.600000	1	-0.030625
1.616667	1	-0.030875
1.633333	1	-0.031500
1.650000	1	-0.031125
1.666667	1	-0.031500
1.683333	1	-0.031875
1.700000	1	-0.032125
1.716667	1	-0.032000
1.733333	1	-0.032625
1.750000	1	-0.032625
1.766667	1	-0.033625
1.783333	1	-0.033750
1.800000	1	-0.034125
1.816667	1	-0.035500
1.833333	1	-0.035625
1.850000	1	-0.035750
1.866667	1	-0.036750
1.883333	1	-0.037125
1.900000	1	-0.037500
1.916667	1	-0.037625
1.933333	1	-0.037750
1.950000	1	-0.037625
1.966667	1	-0.037375
1.983333	1	-0.037250
2.000000	1	-0.037875
2.016667	1	-0.038250
2.033333	1	-0.037875
2.050000	1	-0.037750
2.066667	1	-0.037750
2.083333	1	-0.037625
2.100000	1	-0.036875
2.116667	1	-0.036625
2.133333	1	-0.036625
2.150000	1	-0.036875
2.166667	1	-0.036125
2.183333	1	-0.036125
2.200000	1	-0.035125
2.216667	1	-0.034375
2.233333	1	-0.034000
2.250000	1	-0.033125
2.266667	1	-0.033125
2.283333	1	-0.032750
2.300000	1	-0.032625
2.316667	1	-0.032375
2.333333	1	-0.032125
2.350000	1	-0.031125
2.366667	1	-0.030375
2.383333	1	-0.029875
2.400000	1	-0.028375
2.416667	1	-0.027750
2.433333	1	-0.027500
2.450000	1	-0.026875
2.466667	1	-0.025625
2.483333	1	-0.024625
2.500000	1	-0.023875
2.516667	1	-0.023875
2.533333	1	-0.023125
2.550000	1	-0.022500
2.566667	1	-0.022125
2.583333	1	-0.021125
2.600000	1	-0.020250
2.616667	1	-0.019250
2.633333	1	-0.018375
2.650000	1	-0.017500
2.666667	1	-0.017375
2.683333	1	-0.017375
2.700000	1	-0.016875
2.716667	1	-0.016000
2.733333	1	-0.015250
2.750000	1	-0.014875
2.766667	1	-0.014250
2.783333	1	-0.013875
2.800000	1	-0.013375
2.816667	1	-0.013000
2.833333	1	-0.012375
2.850000	1	-0.011375
2.866667	1	-0.010750
2.883333	1	-0.010500
2.900000	1	-0.010375
2.916667	1	-0.010250
2.933333	1	-0.009750
2.950000	1	-0.009500
2.966667	1	-0.008750
2.983333	1	-0.008500
3.000000	1	-0.008250
3.016667	1	-0.007875
3.033333	1	-0.007000
3.050000	1	-0.006750
3.066667	1	-0.006625
3.083333	1	-0.006125
3.100000	1	-0.005250
3.116667	1	-0.004500
3.133333	1	-0.004250
3.150000	1	-0.004000
3.166667	1	-0.004125
3.183333	1	-0.003750
3.200000	1	-0.003625
3.216667	1	-0.003000
3.233333	1	-0.003375
3.250000	1	-0.002875
3.266667	1	-0.003125
3.283333	1	-0.002250
3.300000	1	-0.001250
3.316667	1	-0.001000
3.333333	1	-0.001000
3.350000	1	-0.000500
3.366667	1	-0.000875
3.383333	1	-0.000375
3.400000	1	-0.000250
3.416667	1	0.000000
3.433333	1	-0.000625
3.450000	1	-0.000500
3.466667	1	-0.000625
3.483333	1	-0.000125
3.500000	1	-0.000625
3.516667	1	-0.000750
3.533333	1	-0.000750
3.550000	1	-0.000750
3.566667	1	-0.000750
3.583333	1	-0.000875
3.600000	1	-0.000750
3.616667	1	-0.000750
3.633333	1	-0.001125
3.650000	1	-0.001500
3.666667	1	-0.001500
3.683333	1	-0.001625
3.700000	1	-0.001500
3.716667	1	-0.002000
3.733333	1	-0.002250
3.750000	1	-0.002375
3.766667	1	-0.003000
3.783333	1	-0.002750
3.800000	1	-0.002250
3.816667	1	-0.002875
3.833333	1	-0.003875
3.850000	1	-0.004500
3.866667	1	-0.004250
3.883333	1	-0.005000
3.900000	1	-0.005250
3.916667	1	-0.005250
3.933333	1	-0.005375
3.950000	1	-0.005625
3.966667	1	-0.006000
3.983333	1	-0.005750
4.000000	1	-0.006125
4.016667	1	-0.006375
4.033333	1	-0.006500
4.050000	1	-0.007000
4.066667	1	-0.007125
4.083333	1	-0.006750
4.100000	1	-0.006500
4.116667	1	-0.006125
4.133333	1	-0.005875
4.150000	1	-0.005750
4.166667	1	-0.005375
4.183333	1	-0.005500
4.200000	1	-0.006000
4.216667	1	-0.005375
4.233333	1	-0.005000
4.250000	1	-0.004875
4.266667	1	-0.004500
4.283333	1	-0.004375
4.300000	1	-0.003750
4.316667	1	-0.003000
4.333333	1	-0.002000
4.350000	1	-0.001375
4.366667	1	-0.000750
4.383333	1	-0.000875
4.400000	1	-0.000250
4.416667	1	-0.000250
4.433333	1	0.000375
4.450000	1	0.001000
4.466667	1	0.001750
4.483333	1	0.001875
4.500000	1	0.002625
4.516667	1	0.002875
4.533333	1	0.003125
4.550000	1	0.003375
4.566667	1	0.003625
4.583333	1	0.003625
4.600000	1	0.004375
4.616667	1	0.004125
4.633333	1	0.004375
4.650000	1	0.004375
4.666667	1	0.004625
4.683333	1	0.004750
4.700000	1	0.004250
4.716667	1	0.004625
4.733333	1	0.004125
4.750000	1	0.004125
4.766667	1	0.003375
4.783333	1	0.003125
4.800000	1	0.003000
4.816667	1	0.003125
4.833333	1	0.002875
4.850000	1	0.002625
4.866667	1	0.002500
4.883333	1	0.002375
4.900000	1	0.001000
4.916667	1	0.001000
4.933333	1	0.000875
4.950000	1	0.000750
4.966667	1	0.001375
4.983333	1	0.001000
5.000000	1	0.000875
5.016667	1	0.000125
5.033333	1	0.000625
5.050000	1	0.000375
5.066667	1	0.000375
5.083333	1	0.001000
5.100000	1	0.001250
5.116667	1	0.002000
5.133333	1	0.002750
5.150000	1	0.002375
5.166667	1	0.002875
5.183333	1	0.003625
5.200000	1	0.004750
5.216667	1	0.005500
5.233333	1	0.006250
5.250000	1	0.006750
5.266667	1	0.007250
5.283333	1	0.008375
5.300000	1	0.009875
5.316667	1	0.011000
5.333333	1	0.012875
5.350000	1	0.014750
5.366667	1	0.015875
5.383333	1	0.017500
5.400000	1	0.019500
5.416667	1	0.020500
5.433333	1	0.021500
5.450000	1	0.023500
5.466667	1	0.025500
5.483333	1	0.027250
5.500000	1	0.028750
5.516667	1	0.030250
5.533333	1	0.031500
5.550000	1	0.033875
5.566667	1	0.034875
5.583333	1	0.036250
5.600000	1	0.037625
5.616667	1	0.039250
5.633333	1	0.040750
5.650000	1	0.041500
5.666667	1	0.042250
5.683333	1	0.043875
5.700000	1	0.044625
5.716667	1	0.045375
5.733333	1	0.046625
5.750000	1	0.046125
5.766667	1	0.046750
5.783333	1	0.046750
5.800000	1	0.047250
5.816667	1	0.046750
5.833333	1	0.047125
5.850000	1	0.047125
5.866667	1	0.047625
5.883333	1	0.047375
5.900000	1	0.047125
5.916667	1	0.046750
5.933333	1	0.046500
5.950000	1	0.045500
5.966667	1	0.044875
5.983333	1	0.044500
6.000000	1	0.043625
6.016667	1	0.042750
6.033333	1	0.041625
6.050000	1	0.040750
6.066667	1	0.039750
6.083333	1	0.038750
6.100000	1	0.037375
6.116667	1	0.036750
6.133333	1	0.035625
6.150000	1	0.034000
6.166667	1	0.032875
6.183333	1	0.031500
6.200000	1	0.031000
6.216667	1	0.030750
6.233333	1	0.029750
6.250000	1	0.029125
6.266667	1	0.028375
6.283333	1	0.028125
6.300000	1	0.027500
6.316667	1	0.026625
6.333333	1	0.026000
6.350000	1	0.025500
6.366667	1	0.025125
6.383333	1	0.025000
6.400000	1	0.024875
6.416667	1	0.025375
6.433333	1	0.024750
6.450000	1	0.025000
6.466667	1	0.025250
6.483333	1	0.025875
6.500000	1	0.026500
6.516667	1	0.027000
6.533333	1	0.027500
6.550000	1	0.027750
6.566667	1	0.029125
6.583333	1	0.029625
6.600000	1	0.030625
6.616667	1	0.031625
6.633333	1	0.032875
6.650000	1	0.033875
6.666667	1	0.035625
6.683333	1	0.036625
6.700000	1	0.038625
6.716667	1	0.040125
6.733333	1	0.042500
6.750000	1	0.044000
6.766667	1	0.045750
6.783333	1	0.047125
6.800000	1	0.048375
6.816667	1	0.050625
6.833333	1	0.052750
6.850000	1	0.054625
6.866667	1	0.056125
6.883333	1	0.058250
6.900000	1	0.060375
6.916667	1	0.063000
6.933333	1	0.064250
6.950000	1	0.065750
6.966667	1	0.067375
6.983333	1	0.069500
7.000000	1	0.071250
7.016667	1	0.072625
7.033333	1	0.074125
7.050000	1	0.075625
7.066667	1	0.077250
7.083333	1	0.078875
7.100000	1	0.080000
7.116667	1	0.081000
7.133333	1	0.081500
7.150000	1	0.081750
7.166667	1	0.083000
7.183333	1	0.083125
7.200000	1	0.084250
7.216667	1	0.084500
7.233333	1	0.085000
7.250000	1	0.085125
7.266667	1	0.085125
7.283333	1	0.084500
7.300000	1	0.085000
7.316667	1	0.084500
7.333333	1	0.084500
7.350000	1	0.083875
7.366667	1	0.083000
7.383333	1	0.082125
7.400000	1	0.081000
7.416667	1	0.079500
7.433333	1	0.078750
7.450000	1	0.077875
7.466667	1	0.077125
7.483333	1	0.076375
7.500000	1	0.075000
7.516667	1	0.073625
7.533333	1	0.072000
7.550000	1	0.070875
7.566667	1	0.069125
7.583333	1	0.067750
7.600000	1	0.066875
7.616667	1	0.065625
7.633333	1	0.064125
7.650000	1	0.062625
7.666667	1	0.061625
7.683333	1	0.059750
7.700000	1	0.058500
7.716667	1	0.057000
7.733333	1	0.055125
7.750000	1	0.053750
7.766667	1	0.051375
7.783333	1	0.050750
7.800000	1	0.049750
7.816667	1	0.048500
7.833333	1	0.047125
7.850000	1	0.045500
7.866667	1	0.043875
7.883333	1	0.042500
7.900000	1	0.040750
7.916667	1	0.039250
7.933333	1	0.037750
7.950000	1	0.036375
7.966667	1	0.035375
7.983333	1	0.034375
8.000000	1	0.032125
8.016667	1	0.031250
8.033333	1	0.029875
8.050000	1	0.028250
8.066667	1	0.027000
8.083333	1	0.026750
8.100000	1	0.025625
8.116667	1	0.024500
8.133333	1	0.023750
8.150000	1	0.022625
8.166667	1	0.021500
8.183333	1	0.021250
8.200000	1	0.020250
8.216667	1	0.019500
8.233333	1	0.018250
8.250000	1	0.018125
8.266667	1	0.017625
8.283333	1	0.017750
8.300000	1	0.017250
8.316667	1	0.016500
8.333333	1	0.016500
8.350000	1	0.017000
8.366667	1	0.016875
8.383333	1	0.017000
8.400000	1	0.017000
8.416667	1	0.016875
8.433333	1	0.016875
8.450000	1	0.016875
8.466667	1	0.017375
8.483333	1	0.018125
8.500000	1	0.018750
8.516667	1	0.018500
8.533333	1	0.018500
8.550000	1	0.019125
8.566667	1	0.019625
8.583333	1	0.020000
8.600000	1	0.021000
8.616667	1	0.021625
8.633333	1	0.021750
8.650000	1	0.022750
8.666667	1	0.023750
8.683333	1	0.024000
8.700000	1	0.023875
8.716667	1	0.025000
8.733333	1	0.026125
8.750000	1	0.026500
8.766667	1	0.027500
8.783333	1	0.028625
8.800000	1	0.029750
8.816667	1	0.030750
8.833333	1	0.031125
8.850000	1	0.032250
8.866667	1	0.033375
8.883333	1	0.034000
8.900000	1	0.034625
8.916667	1	0.035250
8.933333	1	0.035625
8.950000	1	0.036625
8.966667	1	0.037500
8.983333	1	0.038625
9.000000	1	0.039625
9.016667	1	0.040250
9.033333	1	0.040625
9.050000	1	0.041750
9.066667	1	0.042500
9.083333	1	0.043625
9.100000	1	0.044000
9.116667	1	0.045250
9.133333	1	0.046500
9.150000	1	0.047375
9.166667	1	0.048125
9.183333	1	0.049625
9.200000	1	0.050625
9.216667	1	0.051125
9.233333	1	0.052125
9.250000	1	0.052875
9.266667	1	0.054000
9.283333	1	0.055000
9.300000	1	0.056125
9.316667	1	0.057250
9.333333	1	0.058875
9.350000	1	0.060125
9.366667	1	0.061375
9.383333	1	0.063250
9.400000	1	0.065750
9.416667	1	0.068000
9.433333	1	0.070000
9.450000	1	0.072750
9.466667	1	0.075875
9.483333	1	0.079000
9.500000	1	0.082125
9.516667	1	0.086000
9.533333	1	0.091375
9.550000	1	0.096875
9.566667	1	0.102875
9.583333	1	0.109625
9.600000	1	0.117375
9.616667	1	0.125625
9.633333	1	0.134750
9.650000	1	0.144500
9.666667	1	0.154500
9.683333	1	0.163875
9.700000	1	0.172375
9.716667	1	0.180375
9.733333	1	0.186375
9.750000	1	0.190500
9.766667	1	0.192750
9.783333	1	0.193250
9.800000	1	0.192625
9.816667	1	0.193500
9.833333	1	0.198250
9.850000	1	0.212000
9.866667	1	0.239875
9.883333	1	0.287125
9.900000	1	0.361250
9.916667	1	0.472625
9.933333	1	0.631500
9.950000	1	0.853375
9.966667	1	1.154625
9.983333	1	1.558125
10.000000	1	2.089125
10.016667	1	2.772125
10.033333	1	3.630875
10.050000	1	4.684125
10.066667	1	5.944375
10.083333	1	7.417875
10.100000	1	9.100875
10.116667	1	10.977875
10.133333	1	13.025000
10.150000	1	15.202625
10.166667	1	17.465125
10.183333	1	19.751750
10.200000	1	21.997000
10.216667	1	24.129000
10.233333	1	26.073750
10.250000	1	27.758625
10.266667	1	29.122375
10.283333	1	30.114875
10.300000	1	30.705500
10.316667	1	30.886750
10.333333	1	30.676625
10.350000	1	30.115625
10.366667	1	29.262000
10.383333	1	28.185875
10.400000	1	26.957875
10.416667	1	25.642250
10.433333	1	24.293125
10.450000	1	22.952000
10.466667	1	21.644250
10.483333	1	20.387125
10.500000	1	19.186500
10.516667	1	18.042625
10.533333	1	16.955125
10.550000	1	15.919125
10.566667	1	14.931500
10.583333	1	13.987750
10.600000	1	13.084250
10.616667	1	12.218000
10.633333	1	11.387500
10.650000	1	10.592250
10.666667	1	9.832000
10.683333	1	9.107875
10.700000	1	8.420125
10.716667	1	7.770625
10.733333	1	7.159875
10.750000	1	6.591000
10.766667	1	6.065000
10.783333	1	5.581375
10.800000	1	5.141125
10.816667	1	4.743625
10.833333	1	4.386250
10.850000	1	4.067375
10.866667	1	3.784000
10.883333	1	3.532875
10.900000	1	3.310750
10.916667	1	3.114500
10.933333	1	2.940875
10.950000	1	2.786375
10.966667	1	2.649750
10.983333	1	2.527000
11.000000	1	2.418125
11.016667	1	2.320625
11.033333	1	2.231375
11.050000	1	2.152000
11.066667	1	2.079375
11.083333	1	2.012125
11.100000	1	1.950000
11.116667	1	1.892750
11.133333	1	1.839500
11.150000	1	1.790375
11.166667	1	1.743625
11.183333	1	1.700500
11.200000	1	1.659500
11.216667	1	1.620250
11.233333	1	1.583125
11.250000	1	1.547625
11.266667	1	1.513500
11.283333	1	1.481375
11.300000	1	1.450375
11.316667	1	1.420750
11.333333	1	1.392000
11.350000	1	1.364125
11.366667	1	1.337750
11.383333	1	1.312375
11.400000	1	1.288750
11.416667	1	1.265125
11.433333	1	1.243125
11.450000	1	1.222000
11.466667	1	1.201875
11.483333	1	1.182500
11.500000	1	1.164000
11.516667	1	1.147625
11.533333	1	1.132000
11.550000	1	1.117875
11.566667	1	1.103875
11.583333	1	1.091500
11.600000	1	1.079625
11.616667	1	1.068750
11.633333	1	1.058750
11.650000	1	1.049875
11.666667	1	1.041625
11.683333	1	1.033375
11.700000	1	1.025375
11.716667	1	1.018625
11.733333	1	1.012250
11.750000	1	1.005875
11.766667	1	1.000000
11.783333	1	0.993625
11.800000	1	0.988375
11.816667	1	0.984125
11.833333	1	0.980250
11.850000	1	0.976750
11.866667	1	0.974875
11.883333	1	0.972875
11.900000	1	0.972375
11.916667	1	0.973500
11.933333	1	0.976875
11.950000	1	0.980750
11.966667	1	0.986875
11.983333	1	0.994750
12.000000	1	1.004750
12.016667	1	1.016750
12.033333	1	1.031875
12.050000	1	1.050250
12.066667	1	1.071000
12.083333	1	1.095500
12.100000	1	1.124625
12.116667	1	1.157125
12.133333	1	1.195375
12.150000	1	1.240125
12.166667	1	1.291500
12.183333	1	1.350875
12.200000	1	1.420250
12.216667	1	1.499750
12.233333	1	1.591875
12.250000	1	1.697000
12.266667	1	1.817875
12.283333	1	1.955125
12.300000	1	2.111125
12.316667	1	2.286625
12.333333	1	2.483875
12.350000	1	2.703875
12.366667	1	2.947875
12.383333	1	3.217250
12.400000	1	3.512125
12.416667	1	3.832750
12.433333	1	4.177000
12.450000	1	4.543500
12.466667	1	4.928250
12.483333	1	5.326625
12.500000	1	5.732250
12.516667	1	6.138250
12.533333	1	6.537250
12.550000	1	6.921750
12.566667	1	7.284625
12.583333	1	7.619875
12.600000	1	7.921750
12.616667	1	8.187375
12.633333	1	8.415750
12.650000	1	8.605125
12.666667	1	8.756750
12.683333	1	8.871625
12.700000	1	8.952875
12.716667	1	9.003250
12.733333	1	9.026250
12.750000	1	9.025500
12.766667	1	9.003875
12.783333	1	8.964625
12.800000	1	8.911875
12.816667	1	8.848000
12.833333	1	8.775500
12.850000	1	8.695875
12.866667	1	8.610500
12.883333	1	8.521500
12.900000	1	8.428875
12.916667	1	8.332125
12.933333	1	8.232500
12.950000	1	8.128750
12.966667	1	8.021875
12.983333	1	7.909625
13.000000	1	7.792625
13.016667	1	7.670000
13.033333	1	7.540875
13.050000	1	7.405000
13.066667	1	7.260375
13.083333	1	7.106750
13.100000	1	6.942875
13.116667	1	6.768625
13.133333	1	6.582000
13.150000	1	6.382875
13.166667	1	6.169500
13.183333	1	5.941125
13.200000	1	5.695750
13.216667	1	5.433625
13.233333	1	5.153375
13.250000	1	4.851750
13.266667	1	4.529500
13.283333	1	4.187500
13.300000	1	3.828625
13.316667	1	3.461750
13.333333	1	3.099250
13.350000	1	2.757500
13.366667	1	2.450500
13.383333	1	2.185000
13.400000	1	1.962375
13.416667	1	1.778375
13.433333	1	1.629125
13.450000	1	1.507750
13.466667	1	1.408750
13.483333	1	1.326750
13.500000	1	1.259000
13.516667	1	1.202875
13.533333	1	1.154875
13.550000	1	1.113750
13.566667	1	1.078000
13.583333	1	1.047375
13.600000	1	1.020625
13.616667	1	0.997125
13.633333	1	0.976875
13.650000	1	0.958625
13.666667	1	0.942625
13.683333	1	0.928125
13.700000	1	0.914625
13.716667	1	0.902875
13.733333	1	0.890750
13.750000	1	0.878875
13.766667	1	0.867750
13.783333	1	0.856500
13.800000	1	0.845750
13.816667	1	0.834875
13.833333	1	0.823250
13.850000	1	0.810625
13.866667	1	0.798875
13.883333	1	0.787125
13.900000	1	0.774750
13.916667	1	0.762500
13.933333	1	0.751000
13.950000	1	0.739125
13.966667	1	0.727375
13.983333	1	0.716375
14.000000	1	0.706375
14.016667	1	0.696875
14.033333	1	0.689000
14.050000	1	0.682000
14.066667	1	0.676625
14.083333	1	0.673000
14.100000	1	0.670875
14.116667	1	0.671375
14.133333	1	0.675500
14.150000	1	0.681625
14.166667	1	0.691375
14.183333	1	0.705750
14.200000	1	0.724500
14.216667	1	0.748125
14.233333	1	0.776875
14.250000	1	0.812125
14.266667	1	0.854375
14.283333	1	0.905500
14.300000	1	0.966250
14.316667	1	1.037375
14.333333	1	1.119000
14.350000	1	1.212750
14.366667	1	1.320250
14.383333	1	1.442000
14.400000	1	1.579125
14.416667	1	1.734375
14.433333	1	1.907000
14.450000	1	2.099625
14.466667	1	2.314125
14.483333	1	2.551625
14.500000	1	2.813750
14.516667	1	3.102750
14.533333	1	3.422125
14.550000	1	3.773625
14.566667	1	4.162750
14.583333	1	4.593625
14.600000	1	5.073875
14.616667	1	5.612375
14.633333	1	6.221125
14.650000	1	6.914250
14.666667	1	7.708000
14.683333	1	8.618875
14.700000	1	9.666000
14.716667	1	10.866500
14.733333	1	12.235875
14.750000	1	13.786375
14.766667	1	15.522625
14.783333	1	17.438875
14.800000	1	19.521500
14.816667	1	21.749375
14.833333	1	24.088750
14.850000	1	26.495375
14.866667	1	28.915125
14.883333	1	31.291625
14.900000	1	33.562375
14.916667	1	35.666500
14.933333	1	37.551000
14.950000	1	39.169625
14.966667	1	40.484750
14.983333	1	41.471375
15.000000	1	42.117375
15.016667	1	42.420750
15.033333	1	42.391750
15.050000	1	42.047375
15.066667	1	41.414000
15.083333	1	40.524375
15.100000	1	39.411875
15.116667	1	38.115750
15.133333	1	36.672125
15.150000	1	35.117875
15.166667	1	33.487375
15.183333	1	31.811500
15.200000	1	30.115125
15.216667	1	28.419125
15.233333	1	26.742250
15.250000	1	25.098750
15.266667	1	23.500000
15.283333	1	21.955875
15.300000	1	20.473000
15.316667	1	19.056250
15.333333	1	17.708500
15.350000	1	16.431625
15.366667	1	15.226000
15.383333	1	14.090750
15.400000	1	13.025875
15.416667	1	12.027875
15.433333	1	11.096250
15.450000	1	10.228625
15.466667	1	9.423125
15.483333	1	8.679125
15.500000	1	7.995375
15.516667	1	7.368375
15.533333	1	6.795875
15.550000	1	6.274875
15.566667	1	5.803875
15.583333	1	5.379500
15.600000	1	4.997375
15.616667	1	4.654125
15.633333	1	4.347000
15.650000	1	4.072125
15.666667	1	3.826375
15.683333	1	3.606750
15.700000	1	3.409750
15.716667	1	3.233375
15.733333	1	3.073875
15.750000	1	2.930125
15.766667	1	2.800125
15.783333	1	2.682000
15.800000	1	2.573500
15.816667	1	2.474000
15.833333	1	2.383125
15.850000	1	2.298250
15.866667	1	2.219750
15.883333	1	2.146375
15.900000	1	2.077500
15.916667	1	2.012375
15.933333	1	1.952000
15.950000	1	1.894000
15.966667	1	1.839875
15.983333	1	1.789375
16.000000	1	1.741625
16.016667	1	1.695750
16.033333	1	1.652625
16.050000	1	1.611750
16.066667	1	1.573375
16.083333	1	1.536750
16.100000	1	1.502750
16.116667	1	1.470000
16.133333	1	1.439625
16.150000	1	1.410625
16.166667	1	1.383125
16.183333	1	1.357000
16.200000	1	1.332125
16.216667	1	1.309125
16.233333	1	1.286875
16.250000	1	1.265250
16.266667	1	1.245000
16.283333	1	1.226000
16.300000	1	1.207500
16.316667	1	1.189250
16.333333	1	1.172250
16.350000	1	1.155500
16.366667	1	1.139250
16.383333	1	1.123625
16.400000	1	1.108875
16.416667	1	1.095250
16.433333	1	1.081875
16.450000	1	1.069625
16.466667	1	1.057625
16.483333	1	1.046875
16.500000	1	1.036875
16.516667	1	1.027250
16.533333	1	1.017875
16.550000	1	1.009500
16.566667	1	1.000875
16.583333	1	0.994000
16.600000	1	0.988250
16.616667	1	0.982375
16.633333	1	0.976625
16.650000	1	0.971375
16.666667	1	0.967125
16.683333	1	0.963250
16.700000	1	0.959875
16.716667	1	0.957250
16.733333	1	0.954750
16.750000	1	0.952750
16.766667	1	0.951500
16.783333	1	0.949875
16.800000	1	0.949500
16.816667	1	0.949125
16.833333	1	0.949000
16.850000	1	0.949375
16.866667	1	0.950000
16.883333	1	0.949875
16.900000	1	0.949875
16.916667	1	0.951000
16.933333	1	0.950875
16.950000	1	0.950250
16.966667	1	0.950000
16.983333	1	0.949875
17.000000	1	0.949750
17.016667	1	0.949375
17.033333	1	0.949250
17.050000	1	0.948875
17.066667	1	0.948750
17.083333	1	0.948375
17.100000	1	0.948000
17.116667	1	0.947250
17.133333	1	0.946000
17.150000	1	0.944375
17.166667	1	0.942500
17.183333	1	0.939375
17.200000	1	0.936625
17.216667	1	0.932875
17.233333	1	0.928000
17.250000	1	0.923500
17.266667	1	0.918250
17.283333	1	0.912125
17.300000	1	0.904625
17.316667	1	0.897250
17.333333	1	0.889000
17.350000	1	0.880500
17.366667	1	0.872000
17.383333	1	0.863125
17.400000	1	0.855250
17.416667	1	0.847125
17.433333	1	0.838125
17.450000	1	0.830000
17.466667	1	0.822750
17.483333	1	0.815250
17.500000	1	0.808750
17.516667	1	0.802750
17.533333	1	0.797375
17.550000	1	0.793125
17.566667	1	0.789625
17.583333	1	0.787125
17.600000	1	0.785750
17.616667	1	0.784625
17.633333	1	0.784750
17.650000	1	0.786125
17.666667	1	0.788125
17.683333	1	0.791250
17.700000	1	0.794750
17.716667	1	0.799500
17.733333	1	0.803750
17.750000	1	0.809625
17.766667	1	0.815375
17.783333	1	0.822125
17.800000	1	0.828250
17.816667	1	0.835125
17.833333	1	0.841125
17.850000	1	0.847375
17.866667	1	0.853125
17.883333	1	0.858875
17.900000	1	0.863875
17.916667	1	0.867500
17.933333	1	0.871125
17.950000	1	0.873500
17.966667	1	0.874750
17.983333	1	0.874625
18.000000	1	0.874125
18.016667	1	0.872000
18.033333	1	0.869375
18.050000	1	0.866250
18.066667	1	0.861375
18.083333	1	0.855875
18.100000	1	0.850000
18.116667	1	0.843125
18.133333	1	0.835375
18.150000	1	0.827250
18.166667	1	0.819125
18.183333	1	0.810250
18.200000	1	0.801125
18.216667	1	0.791625
18.233333	1	0.781375
18.250000	1	0.771250
18.266667	1	0.761750
18.283333	1	0.752250
18.300000	1	0.743375
18.316667	1	0.734750
18.333333	1	0.725500
18.350000	1	0.716500
18.366667	1	0.707875
18.383333	1	0.700625
18.400000	1	0.693375
18.416667	1	0.687000
18.433333	1	0.680750
18.450000	1	0.675000
18.466667	1	0.669625
18.483333	1	0.664750
18.500000	1	0.660625
18.516667	1	0.657875
18.533333	1	0.654125
18.550000	1	0.650875
18.566667	1	0.648250
18.583333	1	0.646125
18.600000	1	0.644625
18.616667	1	0.643375
18.633333	1	0.642125
18.650000	1	0.642125
18.666667	1	0.642500
18.683333	1	0.643875
18.700000	1	0.645250
18.716667	1	0.647250
18.733333	1	0.650000
18.750000	1	0.653000
18.766667	1	0.656250
18.783333	1	0.660750
18.800000	1	0.664875
18.816667	1	0.669875
18.833333	1	0.675750
18.850000	1	0.681500
18.866667	1	0.687875
18.883333	1	0.694750
18.900000	1	0.702250
18.916667	1	0.710500
18.933333	1	0.719875
18.950000	1	0.729250
18.966667	1	0.739875
18.983333	1	0.751875
19.000000	1	0.765250
19.016667	1	0.779250
19.033333	1	0.794875
19.050000	1	0.812375
19.066667	1	0.831375
19.083333	1	0.852250
19.100000	1	0.874000
19.116667	1	0.897375
19.133333	1	0.922500
19.150000	1	0.949000
19.166667	1	0.976250
19.183333	1	1.003250
19.200000	1	1.031375
19.216667	1	1.059625
19.233333	1	1.086750
19.250000	1	1.112375
19.266667	1	1.136625
19.283333	1	1.159125
19.300000	1	1.178000
19.316667	1	1.195125
19.333333	1	1.208375
19.350000	1	1.218625
19.366667	1	1.225750
19.383333	1	1.228750
19.400000	1	1.228250
19.416667	1	1.224000
19.433333	1	1.216500
19.450000	1	1.205625
19.466667	1	1.192250
19.483333	1	1.176000
19.500000	1	1.156750
19.516667	1	1.135875
19.533333	1	1.113000
19.550000	1	1.089500
19.566667	1	1.065125
19.583333	1	1.039875
19.600000	1	1.014625
19.616667	1	0.989250
19.633333	1	0.965375
19.650000	1	0.941125
19.666667	1	0.919125
19.683333	1	0.898250
19.700000	1	0.878875
19.716667	1	0.861250
19.733333	1	0.845500
19.750000	1	0.831750
19.766667	1	0.820750
19.783333	1	0.812250
19.800000	1	0.805000
19.816667	1	0.800750
19.833333	1	0.797750
19.850000	1	0.797625
19.866667	1	0.799250
19.883333	1	0.802750
19.900000	1	0.807625
19.916667	1	0.813125
19.933333	1	0.819875
19.950000	1	0.827625
19.966667	1	0.835750
19.983333	1	0.844875
20.000000	1	0.854125
20.016667	1	0.863625
20.033333	1	0.873375
20.050000	1	0.883000
20.066667	1	0.892375
20.083333	1	0.901500
20.100000	1	0.911500
20.116667	1	0.921250
20.133333	1	0.931750
20.150000	1	0.942500
20.166667	1	0.953625
20.183333	1	0.966000
20.200000	1	0.978750
20.216667	1	0.992250
20.233333	1	1.007375
20.250000	1	1.023750
20.266667	1	1.041375
20.283333	1	1.060500
20.300000	1	1.081125
20.316667	1	1.102625
20.333333	1	1.124625
20.350000	1	1.148500
20.366667	1	1.172625
20.383333	1	1.197000
20.400000	1	1.220375
20.416667	1	1.243500
20.433333	1	1.265375
20.450000	1	1.285250
20.466667	1	1.303250
20.483333	1	1.318000
20.500000	1	1.328625
20.516667	1	1.336125
20.533333	1	1.340125
20.550000	1	1.340750
20.566667	1	1.337250
20.583333	1	1.329500
20.600000	1	1.318500
20.616667	1	1.303750
20.633333	1	1.285875
20.650000	1	1.265500
20.666667	1	1.242125
20.683333	1	1.217125
20.700000	1	1.190875
20.716667	1	1.164625
20.733333	1	1.137000
20.750000	1	1.108750
20.766667	1	1.081250
20.783333	1	1.053750
20.800000	1	1.026375
20.816667	1	1.000375
20.833333	1	0.975625
20.850000	1	0.951875
20.866667	1	0.929250
20.883333	1	0.908375
20.900000	1	0.887625
20.916667	1	0.867750
20.933333	1	0.849000
20.950000	1	0.831000
20.966667	1	0.813375
20.983333	1	0.797000
21.000000	1	0.780125
21.016667	1	0.763000
21.033333	1	0.745875
21.050000	1	0.730250
21.066667	1	0.713750
21.083333	1	0.697125
21.100000	1	0.681000
21.116667	1	0.664500
21.133333	1	0.647875
21.150000	1	0.631875
21.166667	1	0.615625
21.183333	1	0.600250
21.200000	1	0.584875
21.216667	1	0.569500
21.233333	1	0.555125
21.250000	1	0.541250
21.266667	1	0.528000
21.283333	1	0.514625
21.300000	1	0.502000
21.316667	1	0.489875
21.333333	1	0.478625
21.350000	1	0.468000
21.366667	1	0.457750
21.383333	1	0.448125
21.400000	1	0.439250
21.416667	1	0.431500
21.433333	1	0.424125
21.450000	1	0.417750
21.466667	1	0.411625
21.483333	1	0.406125
21.500000	1	0.400875
21.516667	1	0.397250
21.533333	1	0.393000
21.550000	1	0.389750
21.566667	1	0.387375
21.583333	1	0.385125
21.600000	1	0.383375
21.616667	1	0.382000
21.633333	1	0.380625
21.650000	1	0.380375
21.666667	1	0.380500
21.683333	1	0.379750
21.700000	1	0.380000
21.716667	1	0.381125
21.733333	1	0.382250
21.750000	1	0.384000
21.766667	1	0.385625
21.783333	1	0.388625
21.800000	1	0.391125
21.816667	1	0.394125
21.833333	1	0.397125
21.850000	1	0.401125
21.866667	1	0.405125
21.883333	1	0.409125
21.900000	1	0.414000
21.916667	1	0.418125
21.933333	1	0.422750
21.950000	1	0.427625
21.966667	1	0.432250
21.983333	1	0.437625
22.000000	1	0.441625
22.016667	1	0.444750
22.033333	1	0.448500
22.050000	1	0.451500
22.066667	1	0.454375
22.083333	1	0.455875
22.100000	1	0.456875
22.116667	1	0.457375
22.133333	1	0.457500
22.150000	1	0.456250
22.166667	1	0.455000
22.183333	1	0.453250
22.200000	1	0.450750
22.216667	1	0.448375
22.233333	1	0.444750
22.250000	1	0.441875
22.266667	1	0.438000
22.283333	1	0.434375
22.300000	1	0.430500
22.316667	1	0.426875
22.333333	1	0.423875
22.350000	1	0.421375
22.366667	1	0.419000
22.383333	1	0.416750
22.400000	1	0.415250
22.416667	1	0.413875
22.433333	1	0.413000
22.450000	1	0.411750
22.466667	1	0.411375
22.483333	1	0.412125
22.500000	1	0.412625
22.516667	1	0.413750
22.533333	1	0.416000
22.550000	1	0.418000
22.566667	1	0.419750
22.583333	1	0.422375
22.600000	1	0.425125
22.616667	1	0.428000
22.633333	1	0.430750
22.650000	1	0.433875
22.666667	1	0.437125
22.683333	1	0.440125
22.700000	1	0.443250
22.716667	1	0.445875
22.733333	1	0.448625
22.750000	1	0.451250
22.766667	1	0.453125
22.783333	1	0.454875
22.800000	1	0.456750
22.816667	1	0.458375
22.833333	1	0.459750
22.850000	1	0.459625
22.866667	1	0.459500
22.883333	1	0.459625
22.900000	1	0.459500
22.916667	1	0.459500
22.933333	1	0.458375
22.950000	1	0.457750
22.966667	1	0.457375
22.983333	1	0.456000
23.000000	1	0.455875
23.016667	1	0.455750
23.033333	1	0.455250
23.050000	1	0.455625
23.066667	1	0.456250
23.083333	1	0.456875
23.100000	1	0.458375
23.116667	1	0.460750
23.133333	1	0.464375
23.150000	1	0.468125
23.166667	1	0.472500
23.183333	1	0.478500
23.200000	1	0.485125
23.216667	1	0.493625
23.233333	1	0.503000
23.250000	1	0.513875
23.266667	1	0.526500
23.283333	1	0.539625
23.300000	1	0.555750
23.316667	1	0.572750
23.333333	1	0.591875
23.350000	1	0.613000
23.366667	1	0.635375
23.383333	1	0.660875
23.400000	1	0.688500
23.416667	1	0.718750
23.433333	1	0.751875
23.450000	1	0.787875
23.466667	1	0.826250
23.483333	1	0.868375
23.500000	1	0.913500
23.516667	1	0.962875
23.533333	1	1.017000
23.550000	1	1.075750
23.566667	1	1.139750
23.583333	1	1.209875
23.600000	1	1.285375
23.616667	1	1.367000
23.633333	1	1.455625
23.650000	1	1.551625
23.666667	1	1.654375
23.683333	1	1.764750
23.700000	1	1.882125
23.716667	1	2.006000
23.733333	1	2.136625
23.750000	1	2.272250
23.766667	1	2.412625
23.783333	1	2.556000
23.800000	1	2.700750
23.816667	1	2.844750
23.833333	1	2.985875
23.850000	1	3.123375
23.866667	1	3.254250
23.883333	1	3.376875
23.900000	1	3.490375
23.916667	1	3.591750
23.933333	1	3.679375
23.950000	1	3.752000
23.966667	1	3.808625
23.983333	1	3.848750
24.000000	1	3.871750
24.016667	1	3.877750
24.033333	1	3.866750
24.050000	1	3.839625
24.066667	1	3.798000
24.083333	1	3.741875
24.100000	1	3.672375
24.116667	1	3.591250
24.133333	1	3.499500
24.150000	1	3.399125
24.166667	1	3.291750
24.183333	1	3.178625
24.200000	1	3.061500
24.216667	1	2.941375
24.233333	1	2.820250
24.250000	1	2.698000
24.266667	1	2.576750
24.283333	1	2.456500
24.300000	1	2.338750
24.316667	1	2.223750
24.333333	1	2.112750
24.350000	1	2.005250
24.366667	1	1.903000
24.383333	1	1.805375
24.400000	1	1.712250
24.416667	1	1.624625
24.433333	1	1.541625
24.450000	1	1.464125
24.466667	1	1.391125
24.483333	1	1.323250
24.500000	1	1.259750
24.516667	1	1.201000
24.533333	1	1.146375
24.550000	1	1.095500
24.566667	1	1.048625
24.583333	1	1.005125
24.600000	1	0.964375
24.616667	1	0.926750
24.633333	1	0.892375
24.650000	1	0.859500
24.666667	1	0.829875
24.683333	1	0.801750
24.700000	1	0.774750
24.716667	1	0.750000
24.733333	1	0.726125
24.750000	1	0.703750
24.766667	1	0.682375
24.783333	1	0.661625
24.800000	1	0.641125
24.816667	1	0.621375
24.833333	1	0.602625
24.850000	1	0.584250
24.866667	1	0.565750
24.883333	1	0.548125
24.900000	1	0.531125
24.916667	1	0.515000
24.933333	1	0.498375
24.950000	1	0.482875
24.966667	1	0.467625
24.983333	1	0.453000
25.000000	1	0.438875
25.016667	1	0.424750
25.033333	1	0.410500
25.050000	1	0.398000
25.066667	1	0.385625
25.083333	1	0.373375
25.100000	1	0.362375
25.116667	1	0.351625
25.133333	1	0.341500
25.150000	1	0.332250
25.166667	1	0.324000
25.183333	1	0.315500
25.200000	1	0.307750
25.216667	1	0.300875
25.233333	1	0.293875
25.250000	1	0.288375
25.266667	1	0.283125
25.283333	1	0.278625
25.300000	1	0.274125
25.316667	1	0.271375
25.333333	1	0.268750
25.350000	1	0.265750
25.366667	1	0.263375
25.383333	1	0.261625
25.400000	1	0.260375
25.416667	1	0.259000
25.433333	1	0.258500
25.450000	1	0.258625
25.466667	1	0.257875
25.483333	1	0.258000
25.500000	1	0.257750
25.516667	1	0.258375
25.533333	1	0.259250
25.550000	1	0.259750
25.566667	1	0.261250
25.583333	1	0.261750
25.600000	1	0.262500
25.616667	1	0.263125
25.633333	1	0.264500
25.650000	1	0.265500
25.666667	1	0.266875
25.683333	1	0.267625
25.700000	1	0.268750
25.716667	1	0.270500
25.733333	1	0.271625
25.750000	1	0.273250
25.766667	1	0.274750
25.783333	1	0.275625
25.800000	1	0.276875
25.816667	1	0.277625
25.833333	1	0.278625
25.850000	1	0.280375
25.866667	1	0.281750
25.883333	1	0.283000
25.900000	1	0.284375
25.916667	1	0.285625
25.933333	1	0.286875
25.950000	1	0.288500
25.966667	1	0.290000
25.983333	1	0.291125
26.000000	1	0.292375
26.016667	1	0.293625
26.033333	1	0.294250
26.050000	1	0.294750
26.066667	1	0.295250
26.083333	1	0.295625
26.100000	1	0.296000
26.116667	1	0.296500
26.133333	1	0.297250
26.150000	1	0.297750
26.166667	1	0.298500
26.183333	1	0.298750
26.200000	1	0.298875
26.216667	1	0.299125
26.233333	1	0.299000
26.250000	1	0.299250
26.266667	1	0.299125
26.283333	1	0.299625
26.300000	1	0.299500
26.316667	1	0.300000
26.333333	1	0.300375
26.350000	1	0.300500
26.366667	1	0.301375
26.383333	1	0.301625
26.400000	1	0.301750
26.416667	1	0.302250
26.433333	1	0.303375
26.450000	1	0.303625
26.466667	1	0.303500
26.483333	1	0.303750
26.500000	1	0.304375
26.516667	1	0.304375
26.533333	1	0.304750
26.550000	1	0.304625
26.566667	1	0.304375
26.583333	1	0.304500
26.600000	1	0.304125
26.616667	1	0.303625
26.633333	1	0.302375
26.650000	1	0.302000
26.666667	1	0.300875
26.683333	1	0.300000
26.700000	1	0.297875
26.716667	1	0.297250
26.733333	1	0.295875
26.750000	1	0.293375
26.766667	1	0.291500
26.783333	1	0.289750
26.800000	1	0.287625
26.816667	1	0.286000
26.833333	1	0.283750
26.850000	1	0.281750
26.866667	1	0.280250
26.883333	1	0.278375
26.900000	1	0.277000
26.916667	1	0.275375
26.933333	1	0.274125
26.950000	1	0.273500
26.966667	1	0.273625
26.983333	1	0.273750
27.000000	1	0.274125
27.016667	1	0.274625
27.033333	1	0.275750
27.050000	1	0.277250
27.066667	1	0.279375
27.083333	1	0.281750
27.100000	1	0.285250
27.116667	1	0.289375
27.133333	1	0.293750
27.150000	1	0.298750
27.166667	1	0.304875
27.183333	1	0.311375
27.200000	1	0.319375
27.216667	1	0.326625
27.233333	1	0.335750
27.250000	1	0.345625
27.266667	1	0.355375
27.283333	1	0.367125
27.300000	1	0.379375
27.316667	1	0.392500
27.333333	1	0.406875
27.350000	1	0.421875
27.366667	1	0.438250
27.383333	1	0.455625
27.400000	1	0.474375
27.416667	1	0.493625
27.433333	1	0.514500
27.450000	1	0.536000
27.466667	1	0.558875
27.483333	1	0.582875
27.500000	1	0.609125
27.516667	1	0.636625
27.533333	1	0.666625
27.550000	1	0.698875
27.566667	1	0.733000
27.583333	1	0.769375
27.600000	1	0.808125
27.616667	1	0.849500
27.633333	1	0.894000
27.650000	1	0.941875
27.666667	1	0.993500
27.683333	1	1.049125
27.700000	1	1.109500
27.716667	1	1.173250
27.733333	1	1.241375
27.750000	1	1.314375
27.766667	1	1.392375
27.783333	1	1.474125
27.800000	1	1.561000
27.816667	1	1.650625
27.833333	1	1.743625
27.850000	1	1.840375
27.866667	1	1.940375
27.883333	1	2.041875
27.900000	1	2.145000
27.916667	1	2.248250
27.933333	1	2.351000
27.950000	1	2.451875
27.966667	1	2.550125
27.983333	1	2.643875
28.000000	1	2.733000
28.016667	1	2.817000
28.033333	1	2.893500
28.050000	1	2.962750
28.066667	1	3.022250
28.083333	1	3.072750
28.100000	1	3.112125
28.116667	1	3.141250
28.133333	1	3.157625
28.150000	1	3.163750
28.166667	1	3.157250
28.183333	1	3.139000
28.200000	1	3.108500
28.216667	1	3.067375
28.233333	1	3.015625
28.250000	1	2.953625
28.266667	1	2.882500
28.283333	1	2.803375
28.300000	1	2.716125
28.316667	1	2.622250
28.333333	1	2.523250
28.350000	1	2.419250
28.366667	1	2.310875
28.383333	1	2.200500
28.400000	1	2.088500
28.416667	1	1.974875
28.433333	1	1.862375
28.450000	1	1.749625
28.466667	1	1.638125
28.483333	1	1.528125
28.500000	1	1.420250
28.516667	1	1.315750
28.533333	1	1.213500
28.550000	1	1.114750
28.566667	1	1.019500
28.583333	1	0.927250
28.600000	1	0.838750
28.616667	1	0.754125
28.633333	1	0.674000
28.650000	1	0.596750
28.666667	1	0.523500
28.683333	1	0.452875
28.700000	1	0.386625
28.716667	1	0.323125
28.733333	1	0.262625
28.750000	1	0.205250
28.766667	1	0.150875
28.783333	1	0.099875
28.800000	1	0.051375
28.816667	1	0.005875
28.833333	1	-0.037750
28.850000	1	-0.078375
28.866667	1	-0.117000
28.883333	1	-0.152750
28.900000	1	-0.185625
28.916667	1	-0.216000
28.933333	1	-0.244750
28.950000	1	-0.271000
28.966667	1	-0.294125
28.983333	1	-0.315000
29.000000	1	-0.333375
29.016667	1	-0.349500
29.033333	1	-0.363000
29.050000	1	-0.374250
29.066667	1	-0.382750
29.083333	1	-0.388875
29.100000	1	-0.392250
29.116667	1	-0.393500
29.133333	1	-0.392875
29.150000	1	-0.390375
29.166667	1	-0.384875
29.183333	1	-0.377375
29.200000	1	-0.368375
29.216667	1	-0.357750
29.233333	1	-0.345250
29.250000	1	-0.330500
29.266667	1	-0.314875
29.283333	1	-0.297250
29.300000	1	-0.278625
29.316667	1	-0.259125
29.333333	1	-0.238500
29.350000	1	-0.217750
29.366667	1	-0.196500
29.383333	1	-0.174000
29.400000	1	-0.150250
29.416667	1	-0.126625
29.433333	1	-0.103375
29.450000	1	-0.079625
29.466667	1	-0.055875
29.483333	1	-0.032125
29.500000	1	-0.008750
29.516667	1	0.013875
29.533333	1	0.036500
29.550000	1	0.058625
29.566667	1	0.079875
29.583333	1	0.100875
29.600000	1	0.121250
29.616667	1	0.140750
29.633333	1	0.159375
29.650000	1	0.177750
29.666667	1	0.194250
29.683333	1	0.210500
29.700000	1	0.226125
29.716667	1	0.240375
29.733333	1	0.253875
29.750000	1	0.266000
29.766667	1	0.277625
29.783333	1	0.287875
29.800000	1	0.296750
29.816667	1	0.305125
29.833333	1	0.312625
29.850000	1	0.319000
29.866667	1	0.325375
29.883333	1	0.330750
29.900000	1	0.335375
29.916667	1	0.339250
29.933333	1	0.342250
29.950000	1	0.344875
29.966667	1	0.346875
29.983333	1	0.348250
30.000000	1	0.348250
30.016667	1	0.348000
30.033333	1	0.348500
30.050000	1	0.348375
30.066667	1	0.347750
30.083333	1	0.346750
30.100000	1	0.345500
30.116667	1	0.344500
30.133333	1	0.343625
30.150000	1	0.342625
30.166667	1	0.341750
30.183333	1	0.340000
30.200000	1	0.338375
30.216667	1	0.337500
30.233333	1	0.336250
30.250000	1	0.334875
30.266667	1	0.333625
30.283333	1	0.332500
30.300000	1	0.332125
30.316667	1	0.331875
30.333333	1	0.331125
30.350000	1	0.331125
30.366667	1	0.329375
30.383333	1	0.329500
30.400000	1	0.329500
30.416667	1	0.329125
30.433333	1	0.328750
30.450000	1	0.329500
30.466667	1	0.330375
30.483333	1	0.331875
30.500000	1	0.332625
30.516667	1	0.334875
30.533333	1	0.336125
30.550000	1	0.338250
30.566667	1	0.340125
30.583333	1	0.342750
30.600000	1	0.346125
30.616667	1	0.350250
30.633333	1	0.354375
30.650000	1	0.358625
30.666667	1	0.363250
30.683333	1	0.367750
30.700000	1	0.373125
30.716667	1	0.378375
30.733333	1	0.383875
30.750000	1	0.389000
30.766667	1	0.394875
30.783333	1	0.400500
30.800000	1	0.406625
30.816667	1	0.413000
30.833333	1	0.418875
30.850000	1	0.424625
30.866667	1	0.430375
30.883333	1	0.435375
30.900000	1	0.438875
30.916667	1	0.442875
30.933333	1	0.446750
30.950000	1	0.449000
30.966667	1	0.451750
30.983333	1	0.453375
31.000000	1	0.454000
31.016667	1	0.454000
31.033333	1	0.453625
31.050000	1	0.452750
31.066667	1	0.450875
31.083333	1	0.448125
31.100000	1	0.444750
31.116667	1	0.440375
31.133333	1	0.435500
31.150000	1	0.430625
31.166667	1	0.424125
31.183333	1	0.418125
31.200000	1	0.411500
31.216667	1	0.404625
31.233333	1	0.397250
31.250000	1	0.389500
31.266667	1	0.381500
31.283333	1	0.373375
31.300000	1	0.365500
31.316667	1	0.357000
31.333333	1	0.348750
31.350000	1	0.340125
31.366667	1	0.331250
31.383333	1	0.323250
31.400000	1	0.315375
31.416667	1	0.307625
31.433333	1	0.300250
31.450000	1	0.293125
31.466667	1	0.285875
31.483333	1	0.278500
31.500000	1	0.272000
31.516667	1	0.265750
31.533333	1	0.259625
31.550000	1	0.253750
31.566667	1	0.248875
31.583333	1	0.243875
31.600000	1	0.239250
31.616667	1	0.234375
31.633333	1	0.230375
31.650000	1	0.226750
31.666667	1	0.223625
31.683333	1	0.221125
31.700000	1	0.218875
31.716667	1	0.216375
31.733333	1	0.214750
31.750000	1	0.213375
31.766667	1	0.211875
31.783333	1	0.211000
31.800000	1	0.209875
31.816667	1	0.209375
31.833333	1	0.209500
31.850000	1	0.209875
31.866667	1	0.211250
31.883333	1	0.212750
31.900000	1	0.214375
31.916667	1	0.215375
31.933333	1	0.217000
31.950000	1	0.218000
31.966667	1	0.220250
31.983333	1	0.222250
32.000000	1	0.224500
32.016667	1	0.226375
32.033333	1	0.228375
32.050000	1	0.230750
32.066667	1	0.232750
32.083333	1	0.234375
32.100000	1	0.235875
32.116667	1	0.237625
32.133333	1	0.239250
32.150000	1	0.240375
32.166667	1	0.241250
32.183333	1	0.241750
32.200000	1	0.242500
32.216667	1	0.242750
32.233333	1	0.242250
32.250000	1	0.241875
32.266667	1	0.240875
32.283333	1	0.239125
32.300000	1	0.236875
32.316667	1	0.235250
32.333333	1	0.233000
32.350000	1	0.230125
32.366667	1	0.227750
32.383333	1	0.225375
32.400000	1	0.221750
32.416667	1	0.218375
32.433333	1	0.215125
32.450000	1	0.211125
32.466667	1	0.206750
32.483333	1	0.202625
32.500000	1	0.198750
32.516667	1	0.194125
32.533333	1	0.188750
32.550000	1	0.184000
32.566667	1	0.179250
32.583333	1	0.174500
32.600000	1	0.169500
32.616667	1	0.164250
32.633333	1	0.158875
32.650000	1	0.154125
32.666667	1	0.149375
32.683333	1	0.144375
32.700000	1	0.139125
32.716667	1	0.134375
32.733333	1	0.129500
32.750000	1	0.124375
32.766667	1	0.120125
32.783333	1	0.114750
32.800000	1	0.110125
32.816667	1	0.105000
32.833333	1	0.100375
32.850000	1	0.095875
32.866667	1	0.091625
32.883333	1	0.086875
32.900000	1	0.082375
32.916667	1	0.077875
32.933333	1	0.073625
32.950000	1	0.069625
32.966667	1	0.066375
32.983333	1	0.062375
33.000000	1	0.058375
33.016667	1	0.054625
33.033333	1	0.051500
33.050000	1	0.047750
33.066667	1	0.044875
33.083333	1	0.041625
33.100000	1	0.038125
33.116667	1	0.035750
33.133333	1	0.033125
33.150000	1	0.030875
33.166667	1	0.028250
33.183333	1	0.026000
33.200000	1	0.023250
33.216667	1	0.020875
33.233333	1	0.019500
33.250000	1	0.017625
33.266667	1	0.015875
33.283333	1	0.014375
33.300000	1	0.012250
33.316667	1	0.011000
33.333333	1	0.009750
33.350000	1	0.008875
33.366667	1	0.008125
33.383333	1	0.007750
33.400000	1	0.007500
33.416667	1	0.007500
33.433333	1	0.007625
33.450000	1	0.007875
33.466667	1	0.007875
33.483333	1	0.007625
33.500000	1	0.008250
33.516667	1	0.009000
33.533333	1	0.009500
33.550000	1	0.010250
33.566667	1	0.012250
33.583333	1	0.013125
33.600000	1	0.014750
33.616667	1	0.016250
33.633333	1	0.018500
33.650000	1	0.020500
33.666667	1	0.022625
33.683333	1	0.025250
33.700000	1	0.027625
33.716667	1	0.030750
33.733333	1	0.034125
33.750000	1	0.036875
33.766667	1	0.039500
33.783333	1	0.042875
33.800000	1	0.046500
33.816667	1	0.050750
33.833333	1	0.054125
33.850000	1	0.058750
33.866667	1	0.063375
33.883333	1	0.067875
33.900000	1	0.072625
33.916667	1	0.078125
33.933333	1	0.084125
33.950000	1	0.090125
33.966667	1	0.096875
33.983333	1	0.103375
34.000000	1	0.110250
34.016667	1	0.116750
34.033333	1	0.123875
34.050000	1	0.131750
34.066667	1	0.139625
34.083333	1	0.148000
34.100000	1	0.156250
34.116667	1	0.165500
34.133333	1	0.174500
34.150000	1	0.183375
34.166667	1	0.192125
34.183333	1	0.200625
34.200000	1	0.209750
34.216667	1	0.218875
34.233333	1	0.227875
34.250000	1	0.236250
34.266667	1	0.243875
34.283333	1	0.251500
34.300000	1	0.259250
34.316667	1	0.265625
34.333333	1	0.271750
34.350000	1	0.277750
34.366667	1	0.283125
34.383333	1	0.288125
34.400000	1	0.291375
34.416667	1	0.293875
34.433333	1	0.296500
34.450000	1	0.297875
34.466667	1	0.297875
34.483333	1	0.297500
34.500000	1	0.296000
34.516667	1	0.294000
34.533333	1	0.290875
34.550000	1	0.288750
34.566667	1	0.284250
34.583333	1	0.279625
34.600000	1	0.274875
34.616667	1	0.268500
34.633333	1	0.262500
34.650000	1	0.255500
34.666667	1	0.248125
34.683333	1	0.241375
34.700000	1	0.233875
34.716667	1	0.225875
34.733333	1	0.217250
34.750000	1	0.208875
34.766667	1	0.200875
34.783333	1	0.192625
34.800000	1	0.185000
34.816667	1	0.176875
34.833333	1	0.169250
34.850000	1	0.162125
34.866667	1	0.154750
34.883333	1	0.147250
34.900000	1	0.139625
34.916667	1	0.132625
34.933333	1	0.126125
34.950000	1	0.120250
34.966667	1	0.114250
34.983333	1	0.109250
35.000000	1	0.104125
35.016667	1	0.099375
35.033333	1	0.094875
35.050000	1	0.090750
35.066667	1	0.087125
35.083333	1	0.083625
35.100000	1	0.080625
35.116667	1	0.078250
35.133333	1	0.075500
35.150000	1	0.072875
35.166667	1	0.071000
35.183333	1	0.069500
35.200000	1	0.069000
35.216667	1	0.068625
35.233333	1	0.068000
35.250000	1	0.067125
35.266667	1	0.067000
35.283333	1	0.066750
35.300000	1	0.066750
35.316667	1	0.067125
35.333333	1	0.067250
35.350000	1	0.068625
35.366667	1	0.069500
35.383333	1	0.070375
35.400000	1	0.071750
35.416667	1	0.072500
35.433333	1	0.074125
35.450000	1	0.075000
35.466667	1	0.075875
35.483333	1	0.077500
35.500000	1	0.078750
35.516667	1	0.079625
35.533333	1	0.080875
35.550000	1	0.081750
35.566667	1	0.082750
35.583333	1	0.083000
35.600000	1	0.084125
35.616667	1	0.085500
35.633333	1	0.086250
35.650000	1	0.087250
35.666667	1	0.087875
35.683333	1	0.088250
35.700000	1	0.088875
35.716667	1	0.089125
35.733333	1	0.089625
35.750000	1	0.090125
35.766667	1	0.091000
35.783333	1	0.091250
35.800000	1	0.092250
35.816667	1	0.092625
35.833333	1	0.092500
35.850000	1	0.091875
35.866667	1	0.091875
35.883333	1	0.091875
35.900000	1	0.092625
35.916667	1	0.092875
35.933333	1	0.093000
35.950000	1	0.093750
35.966667	1	0.094500
35.983333	1	0.094625
36.000000	1	0.094875
36.016667	1	0.095250
36.033333	1	0.095125
36.050000	1	0.095750
36.066667	1	0.096250
36.083333	1	0.096750
36.100000	1	0.097500
36.116667	1	0.098000
36.133333	1	0.098750
36.150000	1	0.099125
36.166667	1	0.100250
36.183333	1	0.100625
36.200000	1	0.100375
36.216667	1	0.100625
36.233333	1	0.100625
36.250000	1	0.101375
36.266667	1	0.101000
36.283333	1	0.100875
36.300000	1	0.100875
36.316667	1	0.100125
36.333333	1	0.100875
36.350000	1	0.100625
36.366667	1	0.101000
36.383333	1	0.100750
36.400000	1	0.100000
36.416667	1	0.098875
36.433333	1	0.098875
36.450000	1	0.098250
36.466667	1	0.097750
36.483333	1	0.096750
36.500000	1	0.095500
36.516667	1	0.094750
36.533333	1	0.093750
36.550000	1	0.092625
36.566667	1	0.091500
36.583333	1	0.090625
36.600000	1	0.089375
36.616667	1	0.088750
36.633333	1	0.088375
36.650000	1	0.087750
36.666667	1	0.086375
36.683333	1	0.085500
36.700000	1	0.084000
36.716667	1	0.082500
36.733333	1	0.081750
36.750000	1	0.080250
36.766667	1	0.079000
36.783333	1	0.078125
36.800000	1	0.076875
36.816667	1	0.075750
36.833333	1	0.074875
36.850000	1	0.073000
36.866667	1	0.071625
36.883333	1	0.070250
36.900000	1	0.068875
36.916667	1	0.067125
36.933333	1	0.065750
36.950000	1	0.064750
36.966667	1	0.063500
36.983333	1	0.061875
37.000000	1	0.060500
37.016667	1	0.058500
37.033333	1	0.057125
37.050000	1	0.055500
37.066667	1	0.054000
37.083333	1	0.051875
37.100000	1	0.050250
37.116667	1	0.048125
37.133333	1	0.046875
37.150000	1	0.045625
37.166667	1	0.043625
37.183333	1	0.042250
37.200000	1	0.040000
37.216667	1	0.037625
37.233333	1	0.035750
37.250000	1	0.034375
37.266667	1	0.033000
37.283333	1	0.031375
37.300000	1	0.029250
37.316667	1	0.027250
37.333333	1	0.025500
37.350000	1	0.023750
37.366667	1	0.022375
37.383333	1	0.020500
37.400000	1	0.018625
37.416667	1	0.016875
37.433333	1	0.015000
37.450000	1	0.013875
37.466667	1	0.011875
37.483333	1	0.010250
37.500000	1	0.008250
37.516667	1	0.007125
37.533333	1	0.005500
37.550000	1	0.004500
37.566667	1	0.003250
37.583333	1	0.001625
37.600000	1	0.000500
37.616667	1	-0.000125
37.633333	1	-0.001375
37.650000	1	-0.002250
37.666667	1	-0.003750
37.683333	1	-0.005375
37.700000	1	-0.006000
37.716667	1	-0.006875
37.733333	1	-0.007375
37.750000	1	-0.008625
37.766667	1	-0.008500
37.783333	1	-0.009125
37.800000	1	-0.009250
37.816667	1	-0.010125
37.833333	1	-0.010125
37.850000	1	-0.010875
37.866667	1	-0.011625
37.883333	1	-0.012000
37.900000	1	-0.012375
37.916667	1	-0.012875
37.933333	1	-0.012750
37.950000	1	-0.013125
37.966667	1	-0.013375
37.983333	1	-0.014000
38.000000	1	-0.013625
38.016667	1	-0.013375
38.033333	1	-0.012750
38.050000	1	-0.012375
38.066667	1	-0.012375
38.083333	1	-0.012625
38.100000	1	-0.012375
38.116667	1	-0.012500
38.133333	1	-0.012000
38.150000	1	-0.012250
38.166667	1	-0.012125
38.183333	1	-0.011375
38.200000	1	-0.011500
38.216667	1	-0.011500
38.233333	1	-0.011000
38.250000	1	-0.011000
38.266667	1	-0.010375
38.283333	1	-0.010625
38.300000	1	-0.010875
38.316667	1	-0.010875
38.333333	1	-0.010750
38.350000	1	-0.010375
38.366667	1	-0.010000
38.383333	1	-0.009750
38.400000	1	-0.009875
38.416667	1	-0.009625
38.433333	1	-0.009250
38.450000	1	-0.009250
38.466667	1	-0.009125
38.483333	1	-0.008750
38.500000	1	-0.008875
38.516667	1	-0.008375
38.533333	1	-0.007750
38.550000	1	-0.008000
38.566667	1	-0.008125
38.583333	1	-0.008000
38.600000	1	-0.007375
38.616667	1	-0.007500
38.633333	1	-0.007500
38.650000	1	-0.007375
38.666667	1	-0.006875
38.683333	1	-0.006625
38.700000	1	-0.006625
38.716667	1	-0.006250
38.733333	1	-0.006375
38.750000	1	-0.006750
38.766667	1	-0.006500
38.783333	1	-0.006125
38.800000	1	-0.006250
38.816667	1	-0.006250
38.833333	1	-0.006500
38.850000	1	-0.006250
38.866667	1	-0.005625
38.883333	1	-0.005375
38.900000	1	-0.004875
38.916667	1	-0.004000
38.933333	1	-0.004000
38.950000	1	-0.003500
38.966667	1	-0.002750
38.983333	1	-0.002875
39.000000	1	-0.003750
39.016667	1	-0.003000
39.033333	1	-0.002500
39.050000	1	-0.001750
39.066667	1	-0.001500
39.083333	1	-0.001125
39.100000	1	-0.000750
39.116667	1	-0.000125
39.133333	1	0.000500
39.150000	1	0.001000
39.166667	1	0.001875
39.183333	1	0.002125
39.200000	1	0.002750
39.216667	1	0.003250
39.233333	1	0.003875
39.250000	1	0.004500
39.266667	1	0.004875
39.283333	1	0.005500
39.300000	1	0.006375
39.316667	1	0.007125
39.333333	1	0.007250
39.350000	1	0.007875
39.366667	1	0.008875
39.383333	1	0.009625
39.400000	1	0.009750
39.416667	1	0.010125
39.433333	1	0.011125
39.450000	1	0.010750
39.466667	1	0.010375
39.483333	1	0.010750
39.500000	1	0.011875
39.516667	1	0.012875
39.533333	1	0.013125
39.550000	1	0.013000
39.566667	1	0.013875
39.583333	1	0.013750
39.600000	1	0.014125
39.616667	1	0.014750
39.633333	1	0.015000
39.650000	1	0.015500
39.666667	1	0.015750
39.683333	1	0.017125
39.700000	1	0.017500
39.716667	1	0.018125
39.733333	1	0.018375
39.750000	1	0.018500
39.766667	1	0.019125
39.783333	1	0.019500
39.800000	1	0.020625
39.816667	1	0.021250
39.833333	1	0.021875
39.850000	1	0.022875
39.866667	1	0.023500
39.883333	1	0.024375
39.900000	1	0.024500
39.916667	1	0.025375
39.933333	1	0.025625
39.950000	1	0.026375
39.966667	1	0.027250
39.983333	1	0.027875
40.000000	1	0.028875
