File Path	chrom://marshall/Chromeleon7/HPLC_Ultimate_3000/Users/markusar/20230616_CMO_FP13_14_15.seq/144.smp/RI_1.channel/RI_1.chm
Channel	RI_1

Injection Information:
Data Vault	Chromeleon7
Injection	FP14_8.2_s4
Injection Number	29
Position	BE10
Comment	
Processing Method	
Instrument Method	run_25B_method
Type	Unknown
Status	Finished
Injection Date	17.06.2023
Injection Time	11:35:49
Injection Volume (µl)	20.000
Dilution Factor	1.0000
Weight	1.0000

Chromatogram Data Information:
Time Min. (min)	0.000000
Time Max. (min)	40.000000
Data Points	2401
Detector	RI
Generating Data System	Chromeleon 7.2.5.9507
Exporting Data System	Chromeleon 7.2.5.0
Operator	Instrument Controller
Signal Quantity	Refractive 
Signal Unit	µRIU
Signal Min.	-0.264625
Signal Max.	39.698750
Channel	RI_1
Driver Name	RID520Driver.dll
Channel Type	Evaluation
Min. Step (s)	1
Max. Step (s)	1
Average Step (s)	1

Signal Parameter Information:
Signal Info	

Chromatogram Data:
Time (min)	Step (s)	Value (µRIU)
0.000000	n.a.	-0.017500
0.016667	1	-0.017250
0.033333	1	-0.017125
0.050000	1	-0.017250
0.066667	1	-0.017000
0.083333	1	-0.016750
0.100000	1	-0.016500
0.116667	1	-0.016125
0.133333	1	-0.016000
0.150000	1	-0.015750
0.166667	1	-0.015375
0.183333	1	-0.015000
0.200000	1	-0.014375
0.216667	1	-0.014250
0.233333	1	-0.014375
0.250000	1	-0.013875
0.266667	1	-0.012750
0.283333	1	-0.011750
0.300000	1	-0.011500
0.316667	1	-0.011250
0.333333	1	-0.010125
0.350000	1	-0.009500
0.366667	1	-0.008500
0.383333	1	-0.007750
0.400000	1	-0.006875
0.416667	1	-0.006750
0.433333	1	-0.007375
0.450000	1	-0.008875
0.466667	1	-0.010000
0.483333	1	-0.010250
0.500000	1	-0.008625
0.516667	1	-0.006000
0.533333	1	-0.002750
0.550000	1	0.000375
0.566667	1	0.003500
0.583333	1	0.006125
0.600000	1	0.008250
0.616667	1	0.010750
0.633333	1	0.012125
0.650000	1	0.012125
0.666667	1	0.010875
0.683333	1	0.009000
0.700000	1	0.007125
0.716667	1	0.005125
0.733333	1	0.003250
0.750000	1	0.001875
0.766667	1	0.000125
0.783333	1	-0.001375
0.800000	1	-0.003250
0.816667	1	-0.004125
0.833333	1	-0.005500
0.850000	1	-0.006000
0.866667	1	-0.006750
0.883333	1	-0.007875
0.900000	1	-0.008625
0.916667	1	-0.009000
0.933333	1	-0.009625
0.950000	1	-0.010000
0.966667	1	-0.010875
0.983333	1	-0.011375
1.000000	1	-0.011750
1.016667	1	-0.012250
1.033333	1	-0.012750
1.050000	1	-0.013500
1.066667	1	-0.013375
1.083333	1	-0.013625
1.100000	1	-0.013750
1.116667	1	-0.014750
1.133333	1	-0.014625
1.150000	1	-0.014875
1.166667	1	-0.015000
1.183333	1	-0.015000
1.200000	1	-0.015000
1.216667	1	-0.015875
1.233333	1	-0.016750
1.250000	1	-0.016875
1.266667	1	-0.017125
1.283333	1	-0.017625
1.300000	1	-0.017875
1.316667	1	-0.018000
1.333333	1	-0.018500
1.350000	1	-0.018500
1.366667	1	-0.018375
1.383333	1	-0.018500
1.400000	1	-0.019000
1.416667	1	-0.019750
1.433333	1	-0.019875
1.450000	1	-0.020000
1.466667	1	-0.020500
1.483333	1	-0.020625
1.500000	1	-0.021250
1.516667	1	-0.021750
1.533333	1	-0.022500
1.550000	1	-0.023000
1.566667	1	-0.023875
1.583333	1	-0.024625
1.600000	1	-0.025750
1.616667	1	-0.026250
1.633333	1	-0.026625
1.650000	1	-0.027375
1.666667	1	-0.028125
1.683333	1	-0.028625
1.700000	1	-0.028750
1.716667	1	-0.028625
1.733333	1	-0.029625
1.750000	1	-0.030250
1.766667	1	-0.030750
1.783333	1	-0.031875
1.800000	1	-0.032875
1.816667	1	-0.033375
1.833333	1	-0.034250
1.850000	1	-0.034750
1.866667	1	-0.035500
1.883333	1	-0.036375
1.900000	1	-0.036625
1.916667	1	-0.037000
1.933333	1	-0.036750
1.950000	1	-0.037000
1.966667	1	-0.037500
1.983333	1	-0.037875
2.000000	1	-0.038375
2.016667	1	-0.038750
2.033333	1	-0.039000
2.050000	1	-0.039000
2.066667	1	-0.039500
2.083333	1	-0.039250
2.100000	1	-0.039250
2.116667	1	-0.039250
2.133333	1	-0.039125
2.150000	1	-0.039000
2.166667	1	-0.039125
2.183333	1	-0.038750
2.200000	1	-0.038500
2.216667	1	-0.038875
2.233333	1	-0.038625
2.250000	1	-0.037625
2.266667	1	-0.037000
2.283333	1	-0.036625
2.300000	1	-0.036250
2.316667	1	-0.035625
2.333333	1	-0.035375
2.350000	1	-0.035000
2.366667	1	-0.034000
2.383333	1	-0.033250
2.400000	1	-0.032875
2.416667	1	-0.033000
2.433333	1	-0.032125
2.450000	1	-0.032250
2.466667	1	-0.032250
2.483333	1	-0.031375
2.500000	1	-0.030250
2.516667	1	-0.030500
2.533333	1	-0.030000
2.550000	1	-0.028875
2.566667	1	-0.028250
2.583333	1	-0.027500
2.600000	1	-0.027375
2.616667	1	-0.027125
2.633333	1	-0.026625
2.650000	1	-0.025750
2.666667	1	-0.025625
2.683333	1	-0.025375
2.700000	1	-0.025625
2.716667	1	-0.025750
2.733333	1	-0.025125
2.750000	1	-0.024250
2.766667	1	-0.023625
2.783333	1	-0.022875
2.800000	1	-0.022750
2.816667	1	-0.022750
2.833333	1	-0.022750
2.850000	1	-0.022000
2.866667	1	-0.021250
2.883333	1	-0.020250
2.900000	1	-0.020000
2.916667	1	-0.019625
2.933333	1	-0.019375
2.950000	1	-0.019375
2.966667	1	-0.019250
2.983333	1	-0.018500
3.000000	1	-0.017750
3.016667	1	-0.017250
3.033333	1	-0.016375
3.050000	1	-0.015875
3.066667	1	-0.015250
3.083333	1	-0.014875
3.100000	1	-0.014000
3.116667	1	-0.013625
3.133333	1	-0.012625
3.150000	1	-0.012125
3.166667	1	-0.011125
3.183333	1	-0.010625
3.200000	1	-0.010250
3.216667	1	-0.009375
3.233333	1	-0.008500
3.250000	1	-0.007875
3.266667	1	-0.008250
3.283333	1	-0.008250
3.300000	1	-0.007625
3.316667	1	-0.007750
3.333333	1	-0.007250
3.350000	1	-0.006750
3.366667	1	-0.005875
3.383333	1	-0.006125
3.400000	1	-0.006000
3.416667	1	-0.005500
3.433333	1	-0.005500
3.450000	1	-0.005125
3.466667	1	-0.004750
3.483333	1	-0.004375
3.500000	1	-0.004625
3.516667	1	-0.004500
3.533333	1	-0.004500
3.550000	1	-0.005000
3.566667	1	-0.005000
3.583333	1	-0.005000
3.600000	1	-0.005000
3.616667	1	-0.004750
3.633333	1	-0.004000
3.650000	1	-0.004375
3.666667	1	-0.004500
3.683333	1	-0.004250
3.700000	1	-0.004000
3.716667	1	-0.003500
3.733333	1	-0.003625
3.750000	1	-0.003500
3.766667	1	-0.004375
3.783333	1	-0.005125
3.800000	1	-0.005125
3.816667	1	-0.005250
3.833333	1	-0.004750
3.850000	1	-0.004250
3.866667	1	-0.004625
3.883333	1	-0.004875
3.900000	1	-0.004875
3.916667	1	-0.004750
3.933333	1	-0.005125
3.950000	1	-0.005250
3.966667	1	-0.005250
3.983333	1	-0.005250
4.000000	1	-0.005625
4.016667	1	-0.005875
4.033333	1	-0.005875
4.050000	1	-0.006625
4.066667	1	-0.006500
4.083333	1	-0.007000
4.100000	1	-0.007250
4.116667	1	-0.007250
4.133333	1	-0.007250
4.150000	1	-0.007875
4.166667	1	-0.008250
4.183333	1	-0.008500
4.200000	1	-0.008625
4.216667	1	-0.008750
4.233333	1	-0.009500
4.250000	1	-0.009250
4.266667	1	-0.009750
4.283333	1	-0.010250
4.300000	1	-0.010250
4.316667	1	-0.010750
4.333333	1	-0.011000
4.350000	1	-0.011625
4.366667	1	-0.012125
4.383333	1	-0.012500
4.400000	1	-0.013750
4.416667	1	-0.014125
4.433333	1	-0.014250
4.450000	1	-0.014625
4.466667	1	-0.015750
4.483333	1	-0.015625
4.500000	1	-0.016250
4.516667	1	-0.017500
4.533333	1	-0.017375
4.550000	1	-0.018250
4.566667	1	-0.019500
4.583333	1	-0.020000
4.600000	1	-0.019875
4.616667	1	-0.020625
4.633333	1	-0.021125
4.650000	1	-0.021625
4.666667	1	-0.022375
4.683333	1	-0.021875
4.700000	1	-0.021875
4.716667	1	-0.022000
4.733333	1	-0.023125
4.750000	1	-0.024250
4.766667	1	-0.024250
4.783333	1	-0.024500
4.800000	1	-0.024125
4.816667	1	-0.024125
4.833333	1	-0.023750
4.850000	1	-0.023750
4.866667	1	-0.023625
4.883333	1	-0.023250
4.900000	1	-0.023000
4.916667	1	-0.022375
4.933333	1	-0.021250
4.950000	1	-0.020375
4.966667	1	-0.019250
4.983333	1	-0.018500
5.000000	1	-0.017375
5.016667	1	-0.016750
5.033333	1	-0.015375
5.050000	1	-0.013250
5.066667	1	-0.011875
5.083333	1	-0.011125
5.100000	1	-0.009750
5.116667	1	-0.008375
5.133333	1	-0.007125
5.150000	1	-0.006375
5.166667	1	-0.003875
5.183333	1	-0.001750
5.200000	1	0.000375
5.216667	1	0.002375
5.233333	1	0.004875
5.250000	1	0.007875
5.266667	1	0.010875
5.283333	1	0.013000
5.300000	1	0.015250
5.316667	1	0.017500
5.333333	1	0.020000
5.350000	1	0.022250
5.366667	1	0.025500
5.383333	1	0.028750
5.400000	1	0.031500
5.416667	1	0.034250
5.433333	1	0.036750
5.450000	1	0.038625
5.466667	1	0.040750
5.483333	1	0.043625
5.500000	1	0.046500
5.516667	1	0.048625
5.533333	1	0.051250
5.550000	1	0.053375
5.566667	1	0.056125
5.583333	1	0.058125
5.600000	1	0.060250
5.616667	1	0.062750
5.633333	1	0.063750
5.650000	1	0.065375
5.666667	1	0.066875
5.683333	1	0.068125
5.700000	1	0.069250
5.716667	1	0.070125
5.733333	1	0.070750
5.750000	1	0.071750
5.766667	1	0.072625
5.783333	1	0.072750
5.800000	1	0.073000
5.816667	1	0.072500
5.833333	1	0.072500
5.850000	1	0.072250
5.866667	1	0.071750
5.883333	1	0.071750
5.900000	1	0.070750
5.916667	1	0.069375
5.933333	1	0.068250
5.950000	1	0.067125
5.966667	1	0.066375
5.983333	1	0.065250
6.000000	1	0.064875
6.016667	1	0.063750
6.033333	1	0.063125
6.050000	1	0.061750
6.066667	1	0.061125
6.083333	1	0.060125
6.100000	1	0.058875
6.116667	1	0.058500
6.133333	1	0.057750
6.150000	1	0.056375
6.166667	1	0.055375
6.183333	1	0.054000
6.200000	1	0.053500
6.216667	1	0.053000
6.233333	1	0.052125
6.250000	1	0.051625
6.266667	1	0.051875
6.283333	1	0.051250
6.300000	1	0.051125
6.316667	1	0.050375
6.333333	1	0.050000
6.350000	1	0.050125
6.366667	1	0.049625
6.383333	1	0.049375
6.400000	1	0.049375
6.416667	1	0.049250
6.433333	1	0.049375
6.450000	1	0.049750
6.466667	1	0.050250
6.483333	1	0.050375
6.500000	1	0.051125
6.516667	1	0.051375
6.533333	1	0.051500
6.550000	1	0.052250
6.566667	1	0.053500
6.583333	1	0.054750
6.600000	1	0.055375
6.616667	1	0.057250
6.633333	1	0.058125
6.650000	1	0.059375
6.666667	1	0.060375
6.683333	1	0.061375
6.700000	1	0.063125
6.716667	1	0.063875
6.733333	1	0.065625
6.750000	1	0.067375
6.766667	1	0.069625
6.783333	1	0.071625
6.800000	1	0.072750
6.816667	1	0.074250
6.833333	1	0.076125
6.850000	1	0.078250
6.866667	1	0.080500
6.883333	1	0.082625
6.900000	1	0.084625
6.916667	1	0.086000
6.933333	1	0.088125
6.950000	1	0.090125
6.966667	1	0.091875
6.983333	1	0.093375
7.000000	1	0.095250
7.016667	1	0.097250
7.033333	1	0.098000
7.050000	1	0.099250
7.066667	1	0.100250
7.083333	1	0.101500
7.100000	1	0.102125
7.116667	1	0.102250
7.133333	1	0.102625
7.150000	1	0.102750
7.166667	1	0.102750
7.183333	1	0.102250
7.200000	1	0.101375
7.216667	1	0.100875
7.233333	1	0.100625
7.250000	1	0.100000
7.266667	1	0.099000
7.283333	1	0.097375
7.300000	1	0.096000
7.316667	1	0.093875
7.333333	1	0.091875
7.350000	1	0.089625
7.366667	1	0.087375
7.383333	1	0.085250
7.400000	1	0.083375
7.416667	1	0.080625
7.433333	1	0.078750
7.450000	1	0.076125
7.466667	1	0.074000
7.483333	1	0.071250
7.500000	1	0.068625
7.516667	1	0.065500
7.533333	1	0.063000
7.550000	1	0.059875
7.566667	1	0.057125
7.583333	1	0.053875
7.600000	1	0.051625
7.616667	1	0.049000
7.633333	1	0.047125
7.650000	1	0.044125
7.666667	1	0.041000
7.683333	1	0.038500
7.700000	1	0.035875
7.716667	1	0.033375
7.733333	1	0.030750
7.750000	1	0.029375
7.766667	1	0.027625
7.783333	1	0.025875
7.800000	1	0.023250
7.816667	1	0.021500
7.833333	1	0.019625
7.850000	1	0.017500
7.866667	1	0.016000
7.883333	1	0.014875
7.900000	1	0.012625
7.916667	1	0.011125
7.933333	1	0.010250
7.950000	1	0.008375
7.966667	1	0.006625
7.983333	1	0.006125
8.000000	1	0.004625
8.016667	1	0.003250
8.033333	1	0.002500
8.050000	1	0.002375
8.066667	1	0.001750
8.083333	1	0.000875
8.100000	1	0.000250
8.116667	1	-0.000375
8.133333	1	-0.000625
8.150000	1	-0.001750
8.166667	1	-0.001500
8.183333	1	-0.001625
8.200000	1	-0.001875
8.216667	1	-0.001375
8.233333	1	-0.001000
8.250000	1	-0.001000
8.266667	1	-0.001375
8.283333	1	-0.000500
8.300000	1	-0.000500
8.316667	1	-0.000625
8.333333	1	0.000000
8.350000	1	0.000125
8.366667	1	0.000625
8.383333	1	0.001125
8.400000	1	0.001375
8.416667	1	0.002000
8.433333	1	0.002375
8.450000	1	0.002875
8.466667	1	0.003250
8.483333	1	0.004250
8.500000	1	0.005125
8.516667	1	0.005500
8.533333	1	0.006625
8.550000	1	0.008375
8.566667	1	0.008875
8.583333	1	0.010125
8.600000	1	0.011000
8.616667	1	0.012250
8.633333	1	0.012875
8.650000	1	0.013500
8.666667	1	0.014500
8.683333	1	0.016250
8.700000	1	0.017250
8.716667	1	0.018125
8.733333	1	0.019500
8.750000	1	0.020750
8.766667	1	0.022125
8.783333	1	0.023750
8.800000	1	0.025625
8.816667	1	0.027250
8.833333	1	0.029125
8.850000	1	0.030625
8.866667	1	0.032000
8.883333	1	0.033375
8.900000	1	0.035250
8.916667	1	0.037500
8.933333	1	0.039500
8.950000	1	0.041375
8.966667	1	0.043250
8.983333	1	0.045500
9.000000	1	0.047250
9.016667	1	0.049250
9.033333	1	0.050500
9.050000	1	0.052875
9.066667	1	0.054500
9.083333	1	0.055625
9.100000	1	0.056625
9.116667	1	0.057625
9.133333	1	0.059250
9.150000	1	0.061000
9.166667	1	0.062875
9.183333	1	0.064875
9.200000	1	0.065625
9.216667	1	0.066500
9.233333	1	0.068000
9.250000	1	0.068875
9.266667	1	0.069875
9.283333	1	0.071125
9.300000	1	0.072750
9.316667	1	0.074000
9.333333	1	0.074250
9.350000	1	0.075375
9.366667	1	0.076500
9.383333	1	0.077250
9.400000	1	0.078875
9.416667	1	0.080250
9.433333	1	0.081750
9.450000	1	0.083875
9.466667	1	0.085875
9.483333	1	0.087750
9.500000	1	0.090625
9.516667	1	0.093875
9.533333	1	0.097875
9.550000	1	0.102750
9.566667	1	0.108125
9.583333	1	0.114750
9.600000	1	0.121250
9.616667	1	0.128625
9.633333	1	0.137375
9.650000	1	0.146125
9.666667	1	0.155125
9.683333	1	0.163625
9.700000	1	0.171250
9.716667	1	0.177875
9.733333	1	0.182625
9.750000	1	0.186000
9.766667	1	0.187375
9.783333	1	0.187125
9.800000	1	0.186000
9.816667	1	0.186375
9.833333	1	0.191125
9.850000	1	0.204500
9.866667	1	0.232125
9.883333	1	0.280500
9.900000	1	0.356750
9.916667	1	0.469750
9.933333	1	0.631000
9.950000	1	0.855500
9.966667	1	1.161625
9.983333	1	1.573125
10.000000	1	2.114375
10.016667	1	2.810875
10.033333	1	3.687625
10.050000	1	4.763000
10.066667	1	6.052000
10.083333	1	7.559500
10.100000	1	9.281875
10.116667	1	11.205125
10.133333	1	13.302500
10.150000	1	15.538375
10.166667	1	17.863750
10.183333	1	20.218250
10.200000	1	22.536500
10.216667	1	24.742375
10.233333	1	26.761500
10.250000	1	28.518250
10.266667	1	29.947625
10.283333	1	30.996375
10.300000	1	31.630125
10.316667	1	31.839875
10.333333	1	31.640750
10.350000	1	31.074500
10.366667	1	30.202500
10.383333	1	29.096375
10.400000	1	27.829875
10.416667	1	26.471375
10.433333	1	25.077750
10.450000	1	23.691625
10.466667	1	22.340625
10.483333	1	21.042625
10.500000	1	19.805125
10.516667	1	18.629125
10.533333	1	17.513375
10.550000	1	16.453250
10.566667	1	15.443125
10.583333	1	14.480375
10.600000	1	13.560750
10.616667	1	12.680375
10.633333	1	11.837125
10.650000	1	11.029750
10.666667	1	10.257000
10.683333	1	9.519875
10.700000	1	8.817875
10.716667	1	8.153125
10.733333	1	7.526250
10.750000	1	6.939375
10.766667	1	6.393250
10.783333	1	5.890125
10.800000	1	5.429125
10.816667	1	5.009625
10.833333	1	4.631500
10.850000	1	4.293375
10.866667	1	3.990875
10.883333	1	3.722500
10.900000	1	3.484000
10.916667	1	3.272375
10.933333	1	3.085500
10.950000	1	2.919625
10.966667	1	2.772125
10.983333	1	2.640875
11.000000	1	2.523750
11.016667	1	2.418125
11.033333	1	2.322500
11.050000	1	2.237000
11.066667	1	2.159250
11.083333	1	2.087250
11.100000	1	2.021125
11.116667	1	1.960375
11.133333	1	1.904125
11.150000	1	1.851375
11.166667	1	1.802000
11.183333	1	1.756500
11.200000	1	1.713625
11.216667	1	1.672875
11.233333	1	1.634750
11.250000	1	1.597625
11.266667	1	1.562750
11.283333	1	1.529750
11.300000	1	1.498000
11.316667	1	1.468125
11.333333	1	1.438000
11.350000	1	1.409625
11.366667	1	1.382625
11.383333	1	1.356500
11.400000	1	1.331000
11.416667	1	1.307375
11.433333	1	1.284125
11.450000	1	1.261875
11.466667	1	1.240750
11.483333	1	1.221125
11.500000	1	1.202375
11.516667	1	1.184875
11.533333	1	1.168125
11.550000	1	1.152375
11.566667	1	1.138875
11.583333	1	1.126000
11.600000	1	1.114375
11.616667	1	1.103125
11.633333	1	1.092375
11.650000	1	1.082375
11.666667	1	1.074125
11.683333	1	1.065250
11.700000	1	1.057500
11.716667	1	1.049750
11.733333	1	1.042750
11.750000	1	1.035875
11.766667	1	1.030250
11.783333	1	1.024000
11.800000	1	1.019500
11.816667	1	1.014875
11.833333	1	1.010750
11.850000	1	1.007000
11.866667	1	1.005000
11.883333	1	1.003875
11.900000	1	1.003500
11.916667	1	1.004750
11.933333	1	1.007250
11.950000	1	1.011375
11.966667	1	1.016875
11.983333	1	1.025125
12.000000	1	1.035125
12.016667	1	1.047000
12.033333	1	1.061875
12.050000	1	1.080000
12.066667	1	1.101375
12.083333	1	1.125500
12.100000	1	1.154500
12.116667	1	1.187500
12.133333	1	1.226625
12.150000	1	1.270875
12.166667	1	1.322500
12.183333	1	1.381375
12.200000	1	1.450625
12.216667	1	1.530375
12.233333	1	1.621875
12.250000	1	1.727125
12.266667	1	1.848500
12.283333	1	1.986000
12.300000	1	2.142250
12.316667	1	2.319000
12.333333	1	2.517125
12.350000	1	2.738000
12.366667	1	2.983250
12.383333	1	3.254000
12.400000	1	3.551875
12.416667	1	3.875875
12.433333	1	4.223375
12.450000	1	4.594375
12.466667	1	4.984375
12.483333	1	5.388500
12.500000	1	5.800125
12.516667	1	6.213750
12.533333	1	6.620750
12.550000	1	7.013500
12.566667	1	7.385000
12.583333	1	7.729125
12.600000	1	8.041000
12.616667	1	8.317125
12.633333	1	8.554875
12.650000	1	8.753750
12.666667	1	8.913750
12.683333	1	9.037750
12.700000	1	9.127125
12.716667	1	9.184625
12.733333	1	9.213875
12.750000	1	9.218000
12.766667	1	9.199875
12.783333	1	9.164125
12.800000	1	9.113250
12.816667	1	9.051000
12.833333	1	8.979500
12.850000	1	8.899625
12.866667	1	8.814250
12.883333	1	8.723750
12.900000	1	8.630625
12.916667	1	8.533500
12.933333	1	8.432875
12.950000	1	8.329000
12.966667	1	8.221750
12.983333	1	8.110375
13.000000	1	7.994625
13.016667	1	7.873625
13.033333	1	7.746875
13.050000	1	7.613625
13.066667	1	7.472375
13.083333	1	7.322250
13.100000	1	7.162625
13.116667	1	6.992625
13.133333	1	6.811750
13.150000	1	6.618250
13.166667	1	6.411125
13.183333	1	6.190000
13.200000	1	5.952625
13.216667	1	5.699125
13.233333	1	5.426875
13.250000	1	5.136250
13.266667	1	4.825875
13.283333	1	4.494250
13.300000	1	4.142250
13.316667	1	3.775125
13.333333	1	3.402500
13.350000	1	3.038625
13.366667	1	2.699375
13.383333	1	2.397375
13.400000	1	2.138875
13.416667	1	1.922875
13.433333	1	1.746500
13.450000	1	1.603375
13.466667	1	1.485750
13.483333	1	1.389875
13.500000	1	1.311125
13.516667	1	1.246375
13.533333	1	1.191750
13.550000	1	1.145625
13.566667	1	1.106500
13.583333	1	1.071875
13.600000	1	1.043375
13.616667	1	1.019000
13.633333	1	0.997250
13.650000	1	0.977875
13.666667	1	0.961000
13.683333	1	0.946250
13.700000	1	0.931875
13.716667	1	0.919250
13.733333	1	0.908000
13.750000	1	0.897000
13.766667	1	0.885625
13.783333	1	0.874625
13.800000	1	0.864000
13.816667	1	0.852500
13.833333	1	0.841625
13.850000	1	0.830750
13.866667	1	0.819375
13.883333	1	0.808375
13.900000	1	0.796250
13.916667	1	0.785500
13.933333	1	0.774375
13.950000	1	0.764000
13.966667	1	0.753375
13.983333	1	0.742625
14.000000	1	0.733375
14.016667	1	0.724875
14.033333	1	0.717375
14.050000	1	0.711375
14.066667	1	0.706875
14.083333	1	0.703250
14.100000	1	0.702000
14.116667	1	0.702875
14.133333	1	0.706375
14.150000	1	0.712625
14.166667	1	0.722500
14.183333	1	0.735875
14.200000	1	0.753250
14.216667	1	0.775500
14.233333	1	0.803250
14.250000	1	0.837000
14.266667	1	0.877750
14.283333	1	0.926000
14.300000	1	0.983125
14.316667	1	1.049375
14.333333	1	1.126000
14.350000	1	1.214250
14.366667	1	1.314500
14.383333	1	1.427375
14.400000	1	1.555500
14.416667	1	1.700625
14.433333	1	1.862250
14.450000	1	2.042625
14.466667	1	2.242500
14.483333	1	2.464375
14.500000	1	2.709500
14.516667	1	2.979625
14.533333	1	3.277750
14.550000	1	3.606750
14.566667	1	3.970875
14.583333	1	4.373875
14.600000	1	4.822875
14.616667	1	5.326875
14.633333	1	5.897625
14.650000	1	6.547750
14.666667	1	7.292000
14.683333	1	8.147750
14.700000	1	9.131000
14.716667	1	10.258750
14.733333	1	11.546375
14.750000	1	13.004000
14.766667	1	14.635750
14.783333	1	16.435500
14.800000	1	18.392125
14.816667	1	20.483125
14.833333	1	22.676000
14.850000	1	24.929625
14.866667	1	27.193750
14.883333	1	29.412375
14.900000	1	31.529375
14.916667	1	33.487500
14.933333	1	35.237750
14.950000	1	36.735625
14.966667	1	37.946875
14.983333	1	38.849750
15.000000	1	39.433625
15.016667	1	39.698750
15.033333	1	39.654375
15.050000	1	39.318000
15.066667	1	38.714875
15.083333	1	37.874875
15.100000	1	36.832500
15.116667	1	35.622000
15.133333	1	34.277875
15.150000	1	32.833375
15.166667	1	31.318625
15.183333	1	29.762500
15.200000	1	28.187375
15.216667	1	26.613750
15.233333	1	25.056750
15.250000	1	23.531500
15.266667	1	22.047000
15.283333	1	20.614000
15.300000	1	19.237875
15.316667	1	17.922875
15.333333	1	16.672125
15.350000	1	15.486375
15.366667	1	14.366500
15.383333	1	13.311875
15.400000	1	12.321625
15.416667	1	11.393875
15.433333	1	10.527375
15.450000	1	9.719625
15.466667	1	8.969125
15.483333	1	8.275000
15.500000	1	7.635375
15.516667	1	7.048750
15.533333	1	6.511875
15.550000	1	6.023625
15.566667	1	5.580875
15.583333	1	5.180875
15.600000	1	4.820375
15.616667	1	4.496375
15.633333	1	4.205625
15.650000	1	3.944625
15.666667	1	3.711750
15.683333	1	3.502750
15.700000	1	3.315250
15.716667	1	3.147000
15.733333	1	2.995250
15.750000	1	2.859000
15.766667	1	2.735375
15.783333	1	2.622875
15.800000	1	2.520750
15.816667	1	2.426000
15.833333	1	2.338875
15.850000	1	2.259000
15.866667	1	2.183875
15.883333	1	2.114625
15.900000	1	2.050000
15.916667	1	1.989125
15.933333	1	1.931750
15.950000	1	1.877875
15.966667	1	1.826125
15.983333	1	1.777375
16.000000	1	1.731750
16.016667	1	1.688750
16.033333	1	1.647875
16.050000	1	1.609500
16.066667	1	1.572250
16.083333	1	1.537500
16.100000	1	1.505625
16.116667	1	1.474750
16.133333	1	1.445625
16.150000	1	1.418250
16.166667	1	1.392625
16.183333	1	1.368125
16.200000	1	1.344500
16.216667	1	1.322125
16.233333	1	1.300750
16.250000	1	1.280375
16.266667	1	1.261875
16.283333	1	1.243750
16.300000	1	1.225875
16.316667	1	1.209875
16.333333	1	1.193625
16.350000	1	1.177875
16.366667	1	1.163500
16.383333	1	1.148750
16.400000	1	1.135250
16.416667	1	1.122125
16.433333	1	1.109125
16.450000	1	1.097375
16.466667	1	1.086625
16.483333	1	1.075750
16.500000	1	1.065625
16.516667	1	1.056500
16.533333	1	1.047875
16.550000	1	1.039000
16.566667	1	1.031625
16.583333	1	1.023750
16.600000	1	1.016750
16.616667	1	1.010500
16.633333	1	1.004875
16.650000	1	1.000125
16.666667	1	0.995500
16.683333	1	0.991000
16.700000	1	0.986625
16.716667	1	0.983500
16.733333	1	0.981125
16.750000	1	0.978375
16.766667	1	0.976625
16.783333	1	0.975000
16.800000	1	0.973625
16.816667	1	0.972875
16.833333	1	0.972750
16.850000	1	0.972125
16.866667	1	0.971875
16.883333	1	0.971125
16.900000	1	0.970500
16.916667	1	0.970375
16.933333	1	0.970000
16.950000	1	0.969000
16.966667	1	0.968750
16.983333	1	0.967375
17.000000	1	0.966375
17.016667	1	0.965625
17.033333	1	0.965875
17.050000	1	0.965000
17.066667	1	0.964125
17.083333	1	0.963000
17.100000	1	0.962375
17.116667	1	0.961750
17.133333	1	0.960250
17.150000	1	0.958125
17.166667	1	0.955250
17.183333	1	0.951875
17.200000	1	0.947750
17.216667	1	0.944125
17.233333	1	0.939000
17.250000	1	0.934000
17.266667	1	0.928250
17.283333	1	0.921375
17.300000	1	0.914000
17.316667	1	0.905750
17.333333	1	0.897750
17.350000	1	0.888750
17.366667	1	0.880500
17.383333	1	0.871625
17.400000	1	0.863125
17.416667	1	0.854625
17.433333	1	0.846750
17.450000	1	0.839000
17.466667	1	0.830250
17.483333	1	0.822750
17.500000	1	0.816875
17.516667	1	0.810625
17.533333	1	0.805500
17.550000	1	0.801500
17.566667	1	0.798000
17.583333	1	0.795750
17.600000	1	0.794375
17.616667	1	0.793750
17.633333	1	0.794875
17.650000	1	0.796750
17.666667	1	0.798875
17.683333	1	0.802500
17.700000	1	0.807750
17.716667	1	0.812500
17.733333	1	0.817500
17.750000	1	0.824125
17.766667	1	0.830875
17.783333	1	0.838125
17.800000	1	0.846000
17.816667	1	0.852875
17.833333	1	0.860375
17.850000	1	0.867625
17.866667	1	0.875000
17.883333	1	0.880875
17.900000	1	0.886625
17.916667	1	0.892000
17.933333	1	0.896125
17.950000	1	0.899625
17.966667	1	0.901750
17.983333	1	0.902875
18.000000	1	0.903500
18.016667	1	0.902625
18.033333	1	0.901125
18.050000	1	0.898000
18.066667	1	0.894125
18.083333	1	0.889250
18.100000	1	0.883625
18.116667	1	0.877250
18.133333	1	0.869750
18.150000	1	0.862625
18.166667	1	0.854250
18.183333	1	0.845625
18.200000	1	0.837000
18.216667	1	0.827375
18.233333	1	0.818250
18.250000	1	0.808250
18.266667	1	0.798625
18.283333	1	0.788625
18.300000	1	0.779250
18.316667	1	0.770750
18.333333	1	0.761875
18.350000	1	0.752875
18.366667	1	0.744750
18.383333	1	0.736500
18.400000	1	0.729625
18.416667	1	0.722375
18.433333	1	0.716250
18.450000	1	0.710125
18.466667	1	0.705125
18.483333	1	0.699875
18.500000	1	0.694500
18.516667	1	0.690000
18.533333	1	0.686250
18.550000	1	0.683000
18.566667	1	0.680500
18.583333	1	0.678125
18.600000	1	0.676125
18.616667	1	0.674375
18.633333	1	0.673500
18.650000	1	0.673375
18.666667	1	0.673750
18.683333	1	0.674250
18.700000	1	0.675375
18.716667	1	0.677375
18.733333	1	0.679500
18.750000	1	0.682375
18.766667	1	0.685625
18.783333	1	0.689375
18.800000	1	0.693250
18.816667	1	0.697625
18.833333	1	0.703125
18.850000	1	0.709375
18.866667	1	0.715875
18.883333	1	0.723000
18.900000	1	0.730375
18.916667	1	0.738750
18.933333	1	0.747750
18.950000	1	0.757625
18.966667	1	0.768750
18.983333	1	0.780500
19.000000	1	0.794250
19.016667	1	0.809250
19.033333	1	0.826000
19.050000	1	0.843875
19.066667	1	0.863250
19.083333	1	0.884250
19.100000	1	0.907500
19.116667	1	0.932500
19.133333	1	0.958375
19.150000	1	0.986250
19.166667	1	1.015000
19.183333	1	1.045375
19.200000	1	1.074500
19.216667	1	1.103625
19.233333	1	1.133000
19.250000	1	1.161000
19.266667	1	1.187500
19.283333	1	1.211750
19.300000	1	1.232875
19.316667	1	1.252125
19.333333	1	1.267250
19.350000	1	1.279000
19.366667	1	1.287125
19.383333	1	1.291750
19.400000	1	1.292125
19.416667	1	1.288750
19.433333	1	1.281875
19.450000	1	1.271875
19.466667	1	1.259000
19.483333	1	1.243375
19.500000	1	1.225000
19.516667	1	1.204375
19.533333	1	1.182000
19.550000	1	1.158625
19.566667	1	1.133875
19.583333	1	1.109250
19.600000	1	1.084125
19.616667	1	1.059250
19.633333	1	1.035500
19.650000	1	1.012750
19.666667	1	0.991250
19.683333	1	0.970750
19.700000	1	0.952125
19.716667	1	0.935000
19.733333	1	0.920500
19.750000	1	0.908375
19.766667	1	0.899125
19.783333	1	0.892000
19.800000	1	0.886875
19.816667	1	0.884875
19.833333	1	0.885000
19.850000	1	0.886750
19.866667	1	0.890250
19.883333	1	0.896375
19.900000	1	0.903875
19.916667	1	0.912875
19.933333	1	0.923000
19.950000	1	0.934125
19.966667	1	0.946375
19.983333	1	0.960000
20.000000	1	0.973500
20.016667	1	0.988250
20.033333	1	1.003000
20.050000	1	1.017500
20.066667	1	1.032750
20.083333	1	1.049000
20.100000	1	1.065500
20.116667	1	1.083250
20.133333	1	1.101500
20.150000	1	1.120250
20.166667	1	1.140875
20.183333	1	1.163375
20.200000	1	1.188250
20.216667	1	1.215250
20.233333	1	1.245875
20.250000	1	1.279000
20.266667	1	1.315250
20.283333	1	1.354625
20.300000	1	1.397375
20.316667	1	1.442875
20.333333	1	1.491500
20.350000	1	1.542250
20.366667	1	1.594875
20.383333	1	1.648500
20.400000	1	1.703125
20.416667	1	1.756250
20.433333	1	1.807125
20.450000	1	1.854125
20.466667	1	1.897250
20.483333	1	1.934250
20.500000	1	1.965375
20.516667	1	1.989750
20.533333	1	2.006625
20.550000	1	2.016375
20.566667	1	2.017875
20.583333	1	2.011375
20.600000	1	1.996625
20.616667	1	1.974500
20.633333	1	1.946000
20.650000	1	1.911000
20.666667	1	1.870500
20.683333	1	1.826125
20.700000	1	1.777125
20.716667	1	1.726250
20.733333	1	1.672000
20.750000	1	1.616125
20.766667	1	1.559875
20.783333	1	1.503875
20.800000	1	1.447375
20.816667	1	1.392000
20.833333	1	1.337500
20.850000	1	1.284125
20.866667	1	1.232875
20.883333	1	1.184000
20.900000	1	1.136250
20.916667	1	1.089875
20.933333	1	1.045375
20.950000	1	1.003250
20.966667	1	0.963500
20.983333	1	0.924625
21.000000	1	0.888250
21.016667	1	0.853000
21.033333	1	0.819375
21.050000	1	0.787875
21.066667	1	0.757750
21.083333	1	0.728875
21.100000	1	0.701750
21.116667	1	0.676375
21.133333	1	0.652625
21.150000	1	0.630125
21.166667	1	0.609000
21.183333	1	0.589125
21.200000	1	0.570750
21.216667	1	0.552875
21.233333	1	0.536250
21.250000	1	0.521500
21.266667	1	0.507625
21.283333	1	0.493875
21.300000	1	0.482250
21.316667	1	0.471125
21.333333	1	0.461000
21.350000	1	0.450875
21.366667	1	0.442375
21.383333	1	0.434875
21.400000	1	0.428375
21.416667	1	0.422375
21.433333	1	0.417250
21.450000	1	0.412625
21.466667	1	0.408750
21.483333	1	0.405750
21.500000	1	0.403250
21.516667	1	0.401500
21.533333	1	0.400500
21.550000	1	0.400500
21.566667	1	0.401000
21.583333	1	0.401750
21.600000	1	0.402500
21.616667	1	0.404125
21.633333	1	0.407125
21.650000	1	0.411125
21.666667	1	0.415125
21.683333	1	0.420000
21.700000	1	0.426125
21.716667	1	0.431875
21.733333	1	0.439000
21.750000	1	0.446250
21.766667	1	0.455125
21.783333	1	0.464875
21.800000	1	0.475500
21.816667	1	0.486250
21.833333	1	0.498625
21.850000	1	0.511375
21.866667	1	0.524625
21.883333	1	0.539000
21.900000	1	0.553750
21.916667	1	0.568375
21.933333	1	0.582375
21.950000	1	0.597000
21.966667	1	0.611125
21.983333	1	0.625125
22.000000	1	0.637250
22.016667	1	0.649000
22.033333	1	0.660125
22.050000	1	0.669125
22.066667	1	0.676000
22.083333	1	0.681625
22.100000	1	0.686250
22.116667	1	0.688750
22.133333	1	0.689625
22.150000	1	0.689000
22.166667	1	0.686250
22.183333	1	0.681875
22.200000	1	0.676250
22.216667	1	0.669750
22.233333	1	0.662375
22.250000	1	0.653750
22.266667	1	0.644500
22.283333	1	0.634500
22.300000	1	0.624000
22.316667	1	0.614000
22.333333	1	0.603750
22.350000	1	0.593750
22.366667	1	0.584000
22.383333	1	0.574375
22.400000	1	0.566000
22.416667	1	0.558000
22.433333	1	0.550625
22.450000	1	0.543500
22.466667	1	0.537000
22.483333	1	0.531250
22.500000	1	0.526875
22.516667	1	0.522250
22.533333	1	0.518750
22.550000	1	0.515375
22.566667	1	0.512750
22.583333	1	0.510500
22.600000	1	0.509125
22.616667	1	0.507625
22.633333	1	0.506500
22.650000	1	0.505875
22.666667	1	0.505625
22.683333	1	0.504875
22.700000	1	0.504625
22.716667	1	0.504250
22.733333	1	0.503625
22.750000	1	0.503500
22.766667	1	0.503500
22.783333	1	0.503375
22.800000	1	0.502375
22.816667	1	0.501625
22.833333	1	0.500375
22.850000	1	0.498250
22.866667	1	0.496750
22.883333	1	0.495000
22.900000	1	0.493000
22.916667	1	0.491250
22.933333	1	0.489500
22.950000	1	0.487875
22.966667	1	0.486375
22.983333	1	0.484750
23.000000	1	0.483250
23.016667	1	0.482500
23.033333	1	0.482125
23.050000	1	0.481375
23.066667	1	0.481750
23.083333	1	0.483125
23.100000	1	0.485125
23.116667	1	0.487500
23.133333	1	0.491375
23.150000	1	0.496125
23.166667	1	0.501625
23.183333	1	0.508250
23.200000	1	0.516500
23.216667	1	0.525750
23.233333	1	0.536750
23.250000	1	0.548875
23.266667	1	0.563000
23.283333	1	0.578500
23.300000	1	0.595625
23.316667	1	0.614750
23.333333	1	0.636625
23.350000	1	0.660875
23.366667	1	0.687000
23.383333	1	0.715000
23.400000	1	0.745875
23.416667	1	0.779250
23.433333	1	0.815375
23.450000	1	0.854500
23.466667	1	0.897875
23.483333	1	0.943875
23.500000	1	0.994750
23.516667	1	1.049125
23.533333	1	1.108625
23.550000	1	1.172625
23.566667	1	1.243125
23.583333	1	1.319500
23.600000	1	1.402125
23.616667	1	1.492875
23.633333	1	1.590000
23.650000	1	1.695375
23.666667	1	1.808250
23.683333	1	1.928500
23.700000	1	2.056625
23.716667	1	2.192750
23.733333	1	2.335750
23.750000	1	2.484250
23.766667	1	2.638000
23.783333	1	2.793875
23.800000	1	2.952250
23.816667	1	3.109250
23.833333	1	3.264375
23.850000	1	3.414375
23.866667	1	3.557375
23.883333	1	3.691250
23.900000	1	3.814625
23.916667	1	3.924625
23.933333	1	4.019750
23.950000	1	4.098000
23.966667	1	4.158500
23.983333	1	4.201125
24.000000	1	4.225375
24.016667	1	4.231750
24.033333	1	4.218750
24.050000	1	4.188250
24.066667	1	4.140250
24.083333	1	4.078250
24.100000	1	4.001750
24.116667	1	3.912000
24.133333	1	3.811375
24.150000	1	3.701500
24.166667	1	3.583875
24.183333	1	3.459125
24.200000	1	3.330000
24.216667	1	3.198375
24.233333	1	3.064875
24.250000	1	2.931125
24.266667	1	2.797625
24.283333	1	2.665625
24.300000	1	2.536625
24.316667	1	2.410875
24.333333	1	2.288375
24.350000	1	2.170375
24.366667	1	2.057000
24.383333	1	1.949375
24.400000	1	1.846125
24.416667	1	1.749000
24.433333	1	1.656125
24.450000	1	1.569750
24.466667	1	1.488875
24.483333	1	1.413250
24.500000	1	1.342375
24.516667	1	1.275875
24.533333	1	1.214500
24.550000	1	1.157500
24.566667	1	1.104625
24.583333	1	1.055750
24.600000	1	1.011250
24.616667	1	0.969250
24.633333	1	0.930625
24.650000	1	0.895000
24.666667	1	0.862125
24.683333	1	0.831000
24.700000	1	0.801875
24.716667	1	0.774625
24.733333	1	0.748875
24.750000	1	0.724500
24.766667	1	0.701875
24.783333	1	0.680125
24.800000	1	0.658875
24.816667	1	0.638750
24.833333	1	0.620125
24.850000	1	0.602250
24.866667	1	0.584000
24.883333	1	0.567000
24.900000	1	0.550625
24.916667	1	0.534500
24.933333	1	0.519125
24.950000	1	0.504125
24.966667	1	0.490375
24.983333	1	0.476000
25.000000	1	0.462500
25.016667	1	0.449875
25.033333	1	0.437125
25.050000	1	0.425250
25.066667	1	0.414500
25.083333	1	0.403625
25.100000	1	0.393000
25.116667	1	0.383250
25.133333	1	0.374750
25.150000	1	0.366500
25.166667	1	0.358625
25.183333	1	0.352375
25.200000	1	0.346125
25.216667	1	0.339875
25.233333	1	0.334500
25.250000	1	0.329875
25.266667	1	0.325500
25.283333	1	0.321125
25.300000	1	0.317250
25.316667	1	0.315000
25.333333	1	0.312750
25.350000	1	0.310125
25.366667	1	0.307750
25.383333	1	0.306250
25.400000	1	0.305250
25.416667	1	0.304375
25.433333	1	0.303875
25.450000	1	0.302750
25.466667	1	0.302000
25.483333	1	0.301875
25.500000	1	0.302125
25.516667	1	0.301750
25.533333	1	0.301750
25.550000	1	0.302375
25.566667	1	0.302625
25.583333	1	0.303125
25.600000	1	0.302875
25.616667	1	0.303375
25.633333	1	0.304250
25.650000	1	0.304625
25.666667	1	0.304625
25.683333	1	0.304875
25.700000	1	0.305000
25.716667	1	0.305500
25.733333	1	0.306250
25.750000	1	0.306875
25.766667	1	0.307000
25.783333	1	0.308000
25.800000	1	0.309875
25.816667	1	0.310625
25.833333	1	0.311375
25.850000	1	0.312750
25.866667	1	0.313500
25.883333	1	0.313875
25.900000	1	0.314750
25.916667	1	0.316000
25.933333	1	0.317500
25.950000	1	0.318375
25.966667	1	0.319875
25.983333	1	0.321625
26.000000	1	0.323500
26.016667	1	0.324500
26.033333	1	0.326000
26.050000	1	0.327625
26.066667	1	0.328875
26.083333	1	0.329625
26.100000	1	0.331000
26.116667	1	0.331875
26.133333	1	0.333375
26.150000	1	0.334125
26.166667	1	0.335000
26.183333	1	0.335500
26.200000	1	0.335250
26.216667	1	0.336250
26.233333	1	0.336500
26.250000	1	0.336875
26.266667	1	0.336375
26.283333	1	0.336250
26.300000	1	0.336875
26.316667	1	0.337375
26.333333	1	0.337750
26.350000	1	0.338250
26.366667	1	0.338250
26.383333	1	0.337875
26.400000	1	0.338250
26.416667	1	0.338375
26.433333	1	0.337625
26.450000	1	0.337750
26.466667	1	0.338500
26.483333	1	0.338625
26.500000	1	0.338500
26.516667	1	0.338125
26.533333	1	0.338250
26.550000	1	0.337625
26.566667	1	0.337250
26.583333	1	0.336625
26.600000	1	0.336000
26.616667	1	0.334500
26.633333	1	0.333125
26.650000	1	0.332000
26.666667	1	0.329250
26.683333	1	0.327000
26.700000	1	0.325000
26.716667	1	0.322625
26.733333	1	0.320000
26.750000	1	0.316875
26.766667	1	0.314000
26.783333	1	0.310875
26.800000	1	0.308625
26.816667	1	0.305000
26.833333	1	0.301875
26.850000	1	0.298625
26.866667	1	0.295625
26.883333	1	0.293000
26.900000	1	0.291125
26.916667	1	0.289250
26.933333	1	0.287500
26.950000	1	0.286125
26.966667	1	0.285500
26.983333	1	0.285000
27.000000	1	0.284875
27.016667	1	0.285250
27.033333	1	0.286750
27.050000	1	0.287625
27.066667	1	0.289500
27.083333	1	0.292375
27.100000	1	0.295875
27.116667	1	0.300125
27.133333	1	0.305500
27.150000	1	0.311375
27.166667	1	0.318000
27.183333	1	0.324875
27.200000	1	0.333000
27.216667	1	0.341625
27.233333	1	0.351125
27.250000	1	0.361250
27.266667	1	0.372625
27.283333	1	0.384875
27.300000	1	0.398625
27.316667	1	0.412875
27.333333	1	0.428625
27.350000	1	0.445250
27.366667	1	0.463250
27.383333	1	0.481625
27.400000	1	0.501250
27.416667	1	0.522375
27.433333	1	0.544500
27.450000	1	0.568000
27.466667	1	0.593000
27.483333	1	0.619250
27.500000	1	0.647250
27.516667	1	0.677375
27.533333	1	0.709375
27.550000	1	0.742625
27.566667	1	0.779250
27.583333	1	0.817625
27.600000	1	0.859500
27.616667	1	0.903250
27.633333	1	0.950500
27.650000	1	1.001125
27.666667	1	1.055500
27.683333	1	1.114000
27.700000	1	1.176500
27.716667	1	1.244125
27.733333	1	1.316125
27.750000	1	1.392250
27.766667	1	1.472500
27.783333	1	1.557750
27.800000	1	1.646875
27.816667	1	1.740250
27.833333	1	1.837500
27.850000	1	1.938250
27.866667	1	2.042250
27.883333	1	2.148000
27.900000	1	2.254875
27.916667	1	2.361125
27.933333	1	2.467750
27.950000	1	2.572750
27.966667	1	2.674375
27.983333	1	2.772500
28.000000	1	2.865125
28.016667	1	2.952375
28.033333	1	3.033000
28.050000	1	3.104250
28.066667	1	3.166625
28.083333	1	3.219125
28.100000	1	3.260875
28.116667	1	3.291375
28.133333	1	3.309125
28.150000	1	3.314875
28.166667	1	3.309625
28.183333	1	3.292125
28.200000	1	3.262625
28.216667	1	3.221375
28.233333	1	3.168875
28.250000	1	3.106375
28.266667	1	3.034500
28.283333	1	2.953625
28.300000	1	2.864250
28.316667	1	2.768250
28.333333	1	2.666500
28.350000	1	2.559750
28.366667	1	2.448875
28.383333	1	2.336000
28.400000	1	2.220875
28.416667	1	2.104875
28.433333	1	1.988500
28.450000	1	1.873000
28.466667	1	1.758000
28.483333	1	1.645625
28.500000	1	1.535125
28.516667	1	1.428000
28.533333	1	1.323375
28.550000	1	1.222750
28.566667	1	1.125625
28.583333	1	1.032125
28.600000	1	0.942625
28.616667	1	0.857375
28.633333	1	0.775625
28.650000	1	0.697875
28.666667	1	0.623375
28.683333	1	0.553500
28.700000	1	0.486250
28.716667	1	0.423500
28.733333	1	0.363875
28.750000	1	0.307250
28.766667	1	0.253625
28.783333	1	0.203500
28.800000	1	0.156375
28.816667	1	0.112000
28.833333	1	0.070625
28.850000	1	0.032250
28.866667	1	-0.003250
28.883333	1	-0.037500
28.900000	1	-0.068500
28.916667	1	-0.097500
28.933333	1	-0.123750
28.950000	1	-0.147875
28.966667	1	-0.170000
28.983333	1	-0.189875
29.000000	1	-0.206875
29.016667	1	-0.222000
29.033333	1	-0.234250
29.050000	1	-0.244625
29.066667	1	-0.252875
29.083333	1	-0.259125
29.100000	1	-0.262500
29.116667	1	-0.264625
29.133333	1	-0.264250
29.150000	1	-0.262000
29.166667	1	-0.258875
29.183333	1	-0.253125
29.200000	1	-0.245625
29.216667	1	-0.236250
29.233333	1	-0.225250
29.250000	1	-0.212750
29.266667	1	-0.198625
29.283333	1	-0.183625
29.300000	1	-0.168125
29.316667	1	-0.150875
29.333333	1	-0.132875
29.350000	1	-0.113750
29.366667	1	-0.093875
29.383333	1	-0.074000
29.400000	1	-0.053000
29.416667	1	-0.031500
29.433333	1	-0.010250
29.450000	1	0.010750
29.466667	1	0.032000
29.483333	1	0.053500
29.500000	1	0.074750
29.516667	1	0.095750
29.533333	1	0.116125
29.550000	1	0.135875
29.566667	1	0.155000
29.583333	1	0.173750
29.600000	1	0.192625
29.616667	1	0.210500
29.633333	1	0.227875
29.650000	1	0.244500
29.666667	1	0.260250
29.683333	1	0.274750
29.700000	1	0.288500
29.716667	1	0.301000
29.733333	1	0.312375
29.750000	1	0.323250
29.766667	1	0.333750
29.783333	1	0.343250
29.800000	1	0.351500
29.816667	1	0.358250
29.833333	1	0.364875
29.850000	1	0.371625
29.866667	1	0.376125
29.883333	1	0.380125
29.900000	1	0.383750
29.916667	1	0.386375
29.933333	1	0.387625
29.950000	1	0.389000
29.966667	1	0.389500
29.983333	1	0.389500
30.000000	1	0.389375
30.016667	1	0.388500
30.033333	1	0.387875
30.050000	1	0.386000
30.066667	1	0.384125
30.083333	1	0.383375
30.100000	1	0.381750
30.116667	1	0.379250
30.133333	1	0.377625
30.150000	1	0.375125
30.166667	1	0.372625
30.183333	1	0.370625
30.200000	1	0.368375
30.216667	1	0.365750
30.233333	1	0.363625
30.250000	1	0.361625
30.266667	1	0.359500
30.283333	1	0.358250
30.300000	1	0.355750
30.316667	1	0.353875
30.333333	1	0.352125
30.350000	1	0.350125
30.366667	1	0.348375
30.383333	1	0.346875
30.400000	1	0.345500
30.416667	1	0.344000
30.433333	1	0.343125
30.450000	1	0.342750
30.466667	1	0.342500
30.483333	1	0.342625
30.500000	1	0.342500
30.516667	1	0.343250
30.533333	1	0.343875
30.550000	1	0.344500
30.566667	1	0.345375
30.583333	1	0.346125
30.600000	1	0.347875
30.616667	1	0.349125
30.633333	1	0.351750
30.650000	1	0.354375
30.666667	1	0.357125
30.683333	1	0.360750
30.700000	1	0.364125
30.716667	1	0.367875
30.733333	1	0.372125
30.750000	1	0.375625
30.766667	1	0.380000
30.783333	1	0.384250
30.800000	1	0.389000
30.816667	1	0.393000
30.833333	1	0.396875
30.850000	1	0.400375
30.866667	1	0.403500
30.883333	1	0.407000
30.900000	1	0.410625
30.916667	1	0.413625
30.933333	1	0.415250
30.950000	1	0.416750
30.966667	1	0.417875
30.983333	1	0.418500
31.000000	1	0.418250
31.016667	1	0.417750
31.033333	1	0.416750
31.050000	1	0.414625
31.066667	1	0.412000
31.083333	1	0.408875
31.100000	1	0.405250
31.116667	1	0.401625
31.133333	1	0.396750
31.150000	1	0.391250
31.166667	1	0.385375
31.183333	1	0.379500
31.200000	1	0.373125
31.216667	1	0.366125
31.233333	1	0.359375
31.250000	1	0.352500
31.266667	1	0.344875
31.283333	1	0.337875
31.300000	1	0.330625
31.316667	1	0.323125
31.333333	1	0.316000
31.350000	1	0.308750
31.366667	1	0.301750
31.383333	1	0.295875
31.400000	1	0.288375
31.416667	1	0.282000
31.433333	1	0.276125
31.450000	1	0.270750
31.466667	1	0.265125
31.483333	1	0.259500
31.500000	1	0.254125
31.516667	1	0.248875
31.533333	1	0.244375
31.550000	1	0.240625
31.566667	1	0.236375
31.583333	1	0.233000
31.600000	1	0.229875
31.616667	1	0.226875
31.633333	1	0.224125
31.650000	1	0.221500
31.666667	1	0.219500
31.683333	1	0.217875
31.700000	1	0.217000
31.716667	1	0.216125
31.733333	1	0.215750
31.750000	1	0.215000
31.766667	1	0.214125
31.783333	1	0.214250
31.800000	1	0.214875
31.816667	1	0.215625
31.833333	1	0.216625
31.850000	1	0.217375
31.866667	1	0.218375
31.883333	1	0.219875
31.900000	1	0.221875
31.916667	1	0.223750
31.933333	1	0.225625
31.950000	1	0.227000
31.966667	1	0.228625
31.983333	1	0.230250
32.000000	1	0.232625
32.016667	1	0.234375
32.033333	1	0.236125
32.050000	1	0.238375
32.066667	1	0.239750
32.083333	1	0.241000
32.100000	1	0.242500
32.116667	1	0.243375
32.133333	1	0.243875
32.150000	1	0.244625
32.166667	1	0.245125
32.183333	1	0.244375
32.200000	1	0.243500
32.216667	1	0.243375
32.233333	1	0.242125
32.250000	1	0.240500
32.266667	1	0.238375
32.283333	1	0.235875
32.300000	1	0.233375
32.316667	1	0.230375
32.333333	1	0.227000
32.350000	1	0.223000
32.366667	1	0.218750
32.383333	1	0.214250
32.400000	1	0.210000
32.416667	1	0.205250
32.433333	1	0.199625
32.450000	1	0.194875
32.466667	1	0.189375
32.483333	1	0.183875
32.500000	1	0.178500
32.516667	1	0.172625
32.533333	1	0.167500
32.550000	1	0.161625
32.566667	1	0.155750
32.583333	1	0.149625
32.600000	1	0.143625
32.616667	1	0.137500
32.633333	1	0.132375
32.650000	1	0.127125
32.666667	1	0.122250
32.683333	1	0.116750
32.700000	1	0.111250
32.716667	1	0.106500
32.733333	1	0.101000
32.750000	1	0.097000
32.766667	1	0.092250
32.783333	1	0.088000
32.800000	1	0.083625
32.816667	1	0.079625
32.833333	1	0.075625
32.850000	1	0.072125
32.866667	1	0.068375
32.883333	1	0.065625
32.900000	1	0.061750
32.916667	1	0.059125
32.933333	1	0.057000
32.950000	1	0.054500
32.966667	1	0.052250
32.983333	1	0.050375
33.000000	1	0.048625
33.016667	1	0.047250
33.033333	1	0.045375
33.050000	1	0.043750
33.066667	1	0.042250
33.083333	1	0.041625
33.100000	1	0.041125
33.116667	1	0.040250
33.133333	1	0.039750
33.150000	1	0.039375
33.166667	1	0.039375
33.183333	1	0.039625
33.200000	1	0.039375
33.216667	1	0.039375
33.233333	1	0.039500
33.250000	1	0.039750
33.266667	1	0.039750
33.283333	1	0.040250
33.300000	1	0.040625
33.316667	1	0.042000
33.333333	1	0.042875
33.350000	1	0.043875
33.366667	1	0.045000
33.383333	1	0.046125
33.400000	1	0.046625
33.416667	1	0.047750
33.433333	1	0.049000
33.450000	1	0.050875
33.466667	1	0.052250
33.483333	1	0.054375
33.500000	1	0.056375
33.516667	1	0.058000
33.533333	1	0.058875
33.550000	1	0.060875
33.566667	1	0.063000
33.583333	1	0.065500
33.600000	1	0.067500
33.616667	1	0.070000
33.633333	1	0.072875
33.650000	1	0.075500
33.666667	1	0.078125
33.683333	1	0.080625
33.700000	1	0.083875
33.716667	1	0.086875
33.733333	1	0.090000
33.750000	1	0.093625
33.766667	1	0.097250
33.783333	1	0.100625
33.800000	1	0.105500
33.816667	1	0.109875
33.833333	1	0.114750
33.850000	1	0.120250
33.866667	1	0.125625
33.883333	1	0.130750
33.900000	1	0.136375
33.916667	1	0.142875
33.933333	1	0.149500
33.950000	1	0.156125
33.966667	1	0.163500
33.983333	1	0.171500
34.000000	1	0.180000
34.016667	1	0.188750
34.033333	1	0.197250
34.050000	1	0.206625
34.066667	1	0.216750
34.083333	1	0.226500
34.100000	1	0.236625
34.116667	1	0.247500
34.133333	1	0.257875
34.150000	1	0.268625
34.166667	1	0.280250
34.183333	1	0.291750
34.200000	1	0.302750
34.216667	1	0.314375
34.233333	1	0.325375
34.250000	1	0.336250
34.266667	1	0.346875
34.283333	1	0.356750
34.300000	1	0.365875
34.316667	1	0.375250
34.333333	1	0.383000
34.350000	1	0.390000
34.366667	1	0.396250
34.383333	1	0.401500
34.400000	1	0.405625
34.416667	1	0.409625
34.433333	1	0.412375
34.450000	1	0.414125
34.466667	1	0.414750
34.483333	1	0.414375
34.500000	1	0.412625
34.516667	1	0.410625
34.533333	1	0.407000
34.550000	1	0.402625
34.566667	1	0.397125
34.583333	1	0.390875
34.600000	1	0.383875
34.616667	1	0.376375
34.633333	1	0.368500
34.650000	1	0.360500
34.666667	1	0.351000
34.683333	1	0.340750
34.700000	1	0.331000
34.716667	1	0.320500
34.733333	1	0.309625
34.750000	1	0.299125
34.766667	1	0.288750
34.783333	1	0.277875
34.800000	1	0.267375
34.816667	1	0.257250
34.833333	1	0.247250
34.850000	1	0.237625
34.866667	1	0.227625
34.883333	1	0.217875
34.900000	1	0.208250
34.916667	1	0.199250
34.933333	1	0.190625
34.950000	1	0.182625
34.966667	1	0.175500
34.983333	1	0.168625
35.000000	1	0.162250
35.016667	1	0.156125
35.033333	1	0.149875
35.050000	1	0.144250
35.066667	1	0.139625
35.083333	1	0.135125
35.100000	1	0.131875
35.116667	1	0.128000
35.133333	1	0.124875
35.150000	1	0.122250
35.166667	1	0.119625
35.183333	1	0.117875
35.200000	1	0.116375
35.216667	1	0.114500
35.233333	1	0.113500
35.250000	1	0.112375
35.266667	1	0.111875
35.283333	1	0.111875
35.300000	1	0.112250
35.316667	1	0.112500
35.333333	1	0.113125
35.350000	1	0.114625
35.366667	1	0.115500
35.383333	1	0.117000
35.400000	1	0.118625
35.416667	1	0.120375
35.433333	1	0.121750
35.450000	1	0.123375
35.466667	1	0.125375
35.483333	1	0.127125
35.500000	1	0.128500
35.516667	1	0.130375
35.533333	1	0.132375
35.550000	1	0.133750
35.566667	1	0.134875
35.583333	1	0.136125
35.600000	1	0.137625
35.616667	1	0.139250
35.633333	1	0.140125
35.650000	1	0.141875
35.666667	1	0.143125
35.683333	1	0.144625
35.700000	1	0.145500
35.716667	1	0.145875
35.733333	1	0.147250
35.750000	1	0.148000
35.766667	1	0.148750
35.783333	1	0.149750
35.800000	1	0.150375
35.816667	1	0.150375
35.833333	1	0.151250
35.850000	1	0.151000
35.866667	1	0.150625
35.883333	1	0.150875
35.900000	1	0.151250
35.916667	1	0.151250
35.933333	1	0.151000
35.950000	1	0.151000
35.966667	1	0.151125
35.983333	1	0.151125
36.000000	1	0.150500
36.016667	1	0.150750
36.033333	1	0.151250
36.050000	1	0.150875
36.066667	1	0.150625
36.083333	1	0.150250
36.100000	1	0.149625
36.116667	1	0.149875
36.133333	1	0.149500
36.150000	1	0.149750
36.166667	1	0.148875
36.183333	1	0.148500
36.200000	1	0.147625
36.216667	1	0.147000
36.233333	1	0.146625
36.250000	1	0.145875
36.266667	1	0.145250
36.283333	1	0.144375
36.300000	1	0.143750
36.316667	1	0.143000
36.333333	1	0.142500
36.350000	1	0.141750
36.366667	1	0.141375
36.383333	1	0.140500
36.400000	1	0.139375
36.416667	1	0.138000
36.433333	1	0.136375
36.450000	1	0.135750
36.466667	1	0.134750
36.483333	1	0.133125
36.500000	1	0.131750
36.516667	1	0.130500
36.533333	1	0.129125
36.550000	1	0.128000
36.566667	1	0.127000
36.583333	1	0.125375
36.600000	1	0.124250
36.616667	1	0.123125
36.633333	1	0.121875
36.650000	1	0.121000
36.666667	1	0.119375
36.683333	1	0.117500
36.700000	1	0.116125
36.716667	1	0.114625
36.733333	1	0.113500
36.750000	1	0.111875
36.766667	1	0.110500
36.783333	1	0.109125
36.800000	1	0.107875
36.816667	1	0.106250
36.833333	1	0.104750
36.850000	1	0.103375
36.866667	1	0.102000
36.883333	1	0.100875
36.900000	1	0.098625
36.916667	1	0.097125
36.933333	1	0.094875
36.950000	1	0.094000
36.966667	1	0.092500
36.983333	1	0.091375
37.000000	1	0.090000
37.016667	1	0.088000
37.033333	1	0.086125
37.050000	1	0.084375
37.066667	1	0.081875
37.083333	1	0.080875
37.100000	1	0.079125
37.116667	1	0.077625
37.133333	1	0.075375
37.150000	1	0.072750
37.166667	1	0.070875
37.183333	1	0.068875
37.200000	1	0.067375
37.216667	1	0.065875
37.233333	1	0.064125
37.250000	1	0.062625
37.266667	1	0.060500
37.283333	1	0.058875
37.300000	1	0.057000
37.316667	1	0.055625
37.333333	1	0.054750
37.350000	1	0.053250
37.366667	1	0.051750
37.383333	1	0.050500
37.400000	1	0.049375
37.416667	1	0.048625
37.433333	1	0.047625
37.450000	1	0.045875
37.466667	1	0.045000
37.483333	1	0.044750
37.500000	1	0.044000
37.516667	1	0.044000
37.533333	1	0.043625
37.550000	1	0.043250
37.566667	1	0.042875
37.583333	1	0.042000
37.600000	1	0.041750
37.616667	1	0.041500
37.633333	1	0.040875
37.650000	1	0.040500
37.666667	1	0.040000
37.683333	1	0.040250
37.700000	1	0.040000
37.716667	1	0.039375
37.733333	1	0.038750
37.750000	1	0.038625
37.766667	1	0.038625
37.783333	1	0.038000
37.800000	1	0.038000
37.816667	1	0.037500
37.833333	1	0.036875
37.850000	1	0.035875
37.866667	1	0.035875
37.883333	1	0.035375
37.900000	1	0.034750
37.916667	1	0.034375
37.933333	1	0.033750
37.950000	1	0.032875
37.966667	1	0.032500
37.983333	1	0.032625
38.000000	1	0.032375
38.016667	1	0.031875
38.033333	1	0.031000
38.050000	1	0.029750
38.066667	1	0.029250
38.083333	1	0.028750
38.100000	1	0.027750
38.116667	1	0.027250
38.133333	1	0.026500
38.150000	1	0.025750
38.166667	1	0.024750
38.183333	1	0.024625
38.200000	1	0.024125
38.216667	1	0.023125
38.233333	1	0.022500
38.250000	1	0.022375
38.266667	1	0.021500
38.283333	1	0.020750
38.300000	1	0.020125
38.316667	1	0.019750
38.333333	1	0.019125
38.350000	1	0.017000
38.366667	1	0.016500
38.383333	1	0.015875
38.400000	1	0.014625
38.416667	1	0.012875
38.433333	1	0.012125
38.450000	1	0.011625
38.466667	1	0.011750
38.483333	1	0.011250
38.500000	1	0.010125
38.516667	1	0.009375
38.533333	1	0.008125
38.550000	1	0.007750
38.566667	1	0.006625
38.583333	1	0.005500
38.600000	1	0.004625
38.616667	1	0.003625
38.633333	1	0.002750
38.650000	1	0.001500
38.666667	1	0.000625
38.683333	1	-0.000250
38.700000	1	-0.001000
38.716667	1	-0.001125
38.733333	1	-0.001625
38.750000	1	-0.002125
38.766667	1	-0.002000
38.783333	1	-0.002750
38.800000	1	-0.003250
38.816667	1	-0.004000
38.833333	1	-0.005125
38.850000	1	-0.005500
38.866667	1	-0.006500
38.883333	1	-0.006750
38.900000	1	-0.006375
38.916667	1	-0.006625
38.933333	1	-0.007500
38.950000	1	-0.007500
38.966667	1	-0.007625
38.983333	1	-0.007750
39.000000	1	-0.007625
39.016667	1	-0.007625
39.033333	1	-0.007750
39.050000	1	-0.007625
39.066667	1	-0.007875
39.083333	1	-0.007000
39.100000	1	-0.007375
39.116667	1	-0.007125
39.133333	1	-0.006875
39.150000	1	-0.007000
39.166667	1	-0.006625
39.183333	1	-0.006625
39.200000	1	-0.006500
39.216667	1	-0.006125
39.233333	1	-0.005375
39.250000	1	-0.005125
39.266667	1	-0.005000
39.283333	1	-0.004375
39.300000	1	-0.003875
39.316667	1	-0.003375
39.333333	1	-0.002500
39.350000	1	-0.002125
39.366667	1	-0.001250
39.383333	1	-0.000750
39.400000	1	-0.000125
39.416667	1	0.000000
39.433333	1	0.000625
39.450000	1	0.000625
39.466667	1	0.001750
39.483333	1	0.002750
39.500000	1	0.003875
39.516667	1	0.004250
39.533333	1	0.005250
39.550000	1	0.005875
39.566667	1	0.006625
39.583333	1	0.007375
39.600000	1	0.008500
39.616667	1	0.009750
39.633333	1	0.011375
39.650000	1	0.012500
39.666667	1	0.013875
39.683333	1	0.014125
39.700000	1	0.014875
39.716667	1	0.016125
39.733333	1	0.016500
39.750000	1	0.018375
39.766667	1	0.019750
39.783333	1	0.020875
39.800000	1	0.021250
39.816667	1	0.022875
39.833333	1	0.024625
39.850000	1	0.026125
39.866667	1	0.027000
39.883333	1	0.028250
39.900000	1	0.029625
39.916667	1	0.030500
39.933333	1	0.032250
39.950000	1	0.033125
39.966667	1	0.033875
39.983333	1	0.034500
40.000000	1	0.036125
