File Path	chrom://marshall/Chromeleon7/HPLC_Ultimate_3000/Users/markusar/20230531_CMO_stabTest _FP08_FP09.seq/328.smp/RI_1.channel/RI_1.chm
Channel	RI_1

Injection Information:
Data Vault	Chromeleon7
Injection	FP09__8_s2
Injection Number	78
Position	BE5
Comment	
Processing Method	
Instrument Method	run_25B_method
Type	Unknown
Status	Finished
Injection Date	03.06.2023
Injection Time	19:15:19
Injection Volume (µl)	20.000
Dilution Factor	1.0000
Weight	1.0000

Chromatogram Data Information:
Time Min. (min)	0.000000
Time Max. (min)	40.000000
Data Points	2401
Detector	RI
Generating Data System	Chromeleon 7.2.5.9507
Exporting Data System	Chromeleon 7.2.5.0
Operator	Instrument Controller
Signal Quantity	Refractive 
Signal Unit	µRIU
Signal Min.	-0.926875
Signal Max.	56.178750
Channel	RI_1
Driver Name	RID520Driver.dll
Channel Type	Evaluation
Min. Step (s)	1
Max. Step (s)	1
Average Step (s)	1

Signal Parameter Information:
Signal Info	

Chromatogram Data:
Time (min)	Step (s)	Value (µRIU)
0.000000	n.a.	-0.031750
0.016667	1	-0.032375
0.033333	1	-0.031750
0.050000	1	-0.031750
0.066667	1	-0.031125
0.083333	1	-0.031000
0.100000	1	-0.031000
0.116667	1	-0.031250
0.133333	1	-0.032125
0.150000	1	-0.031750
0.166667	1	-0.031625
0.183333	1	-0.031000
0.200000	1	-0.031375
0.216667	1	-0.031125
0.233333	1	-0.031625
0.250000	1	-0.031500
0.266667	1	-0.031750
0.283333	1	-0.032875
0.300000	1	-0.036625
0.316667	1	-0.039750
0.333333	1	-0.041375
0.350000	1	-0.040750
0.366667	1	-0.037250
0.383333	1	-0.033125
0.400000	1	-0.029500
0.416667	1	-0.026500
0.433333	1	-0.024250
0.450000	1	-0.022625
0.466667	1	-0.021500
0.483333	1	-0.022000
0.500000	1	-0.023500
0.516667	1	-0.026500
0.533333	1	-0.029375
0.550000	1	-0.031750
0.566667	1	-0.033625
0.583333	1	-0.034875
0.600000	1	-0.036125
0.616667	1	-0.036750
0.633333	1	-0.037750
0.650000	1	-0.039375
0.666667	1	-0.039750
0.683333	1	-0.041000
0.700000	1	-0.042625
0.716667	1	-0.043375
0.733333	1	-0.044500
0.750000	1	-0.045500
0.766667	1	-0.045375
0.783333	1	-0.046250
0.800000	1	-0.047000
0.816667	1	-0.047250
0.833333	1	-0.047500
0.850000	1	-0.047625
0.866667	1	-0.048375
0.883333	1	-0.048750
0.900000	1	-0.048875
0.916667	1	-0.049750
0.933333	1	-0.049750
0.950000	1	-0.049875
0.966667	1	-0.049875
0.983333	1	-0.050500
1.000000	1	-0.050500
1.016667	1	-0.051125
1.033333	1	-0.051125
1.050000	1	-0.051125
1.066667	1	-0.051125
1.083333	1	-0.050875
1.100000	1	-0.051500
1.116667	1	-0.051625
1.133333	1	-0.051625
1.150000	1	-0.051625
1.166667	1	-0.051375
1.183333	1	-0.050750
1.200000	1	-0.050875
1.216667	1	-0.051250
1.233333	1	-0.051000
1.250000	1	-0.050625
1.266667	1	-0.050750
1.283333	1	-0.050875
1.300000	1	-0.051000
1.316667	1	-0.050625
1.333333	1	-0.050375
1.350000	1	-0.050375
1.366667	1	-0.049875
1.383333	1	-0.050250
1.400000	1	-0.049625
1.416667	1	-0.049250
1.433333	1	-0.049000
1.450000	1	-0.048250
1.466667	1	-0.047625
1.483333	1	-0.047375
1.500000	1	-0.047125
1.516667	1	-0.046750
1.533333	1	-0.046375
1.550000	1	-0.046500
1.566667	1	-0.046500
1.583333	1	-0.046875
1.600000	1	-0.047500
1.616667	1	-0.046875
1.633333	1	-0.046750
1.650000	1	-0.046500
1.666667	1	-0.046125
1.683333	1	-0.045625
1.700000	1	-0.046000
1.716667	1	-0.046000
1.733333	1	-0.046000
1.750000	1	-0.045875
1.766667	1	-0.046000
1.783333	1	-0.046250
1.800000	1	-0.045750
1.816667	1	-0.045250
1.833333	1	-0.044750
1.850000	1	-0.045000
1.866667	1	-0.044500
1.883333	1	-0.044250
1.900000	1	-0.044625
1.916667	1	-0.045125
1.933333	1	-0.044625
1.950000	1	-0.044500
1.966667	1	-0.044250
1.983333	1	-0.044125
2.000000	1	-0.044000
2.016667	1	-0.044125
2.033333	1	-0.044000
2.050000	1	-0.043750
2.066667	1	-0.043375
2.083333	1	-0.043125
2.100000	1	-0.043875
2.116667	1	-0.043625
2.133333	1	-0.043000
2.150000	1	-0.042625
2.166667	1	-0.042500
2.183333	1	-0.043000
2.200000	1	-0.042625
2.216667	1	-0.042250
2.233333	1	-0.042000
2.250000	1	-0.041500
2.266667	1	-0.041250
2.283333	1	-0.040875
2.300000	1	-0.040875
2.316667	1	-0.040375
2.333333	1	-0.039750
2.350000	1	-0.039125
2.366667	1	-0.038125
2.383333	1	-0.037875
2.400000	1	-0.037375
2.416667	1	-0.036500
2.433333	1	-0.035375
2.450000	1	-0.034500
2.466667	1	-0.034000
2.483333	1	-0.033000
2.500000	1	-0.032750
2.516667	1	-0.031500
2.533333	1	-0.030250
2.550000	1	-0.030125
2.566667	1	-0.029875
2.583333	1	-0.028375
2.600000	1	-0.027625
2.616667	1	-0.026375
2.633333	1	-0.025125
2.650000	1	-0.023875
2.666667	1	-0.023625
2.683333	1	-0.022125
2.700000	1	-0.021750
2.716667	1	-0.021500
2.733333	1	-0.021000
2.750000	1	-0.020375
2.766667	1	-0.019625
2.783333	1	-0.018375
2.800000	1	-0.017125
2.816667	1	-0.016000
2.833333	1	-0.015250
2.850000	1	-0.015000
2.866667	1	-0.014000
2.883333	1	-0.013750
2.900000	1	-0.012500
2.916667	1	-0.011750
2.933333	1	-0.011000
2.950000	1	-0.010125
2.966667	1	-0.008750
2.983333	1	-0.007750
3.000000	1	-0.007750
3.016667	1	-0.007625
3.033333	1	-0.006500
3.050000	1	-0.006250
3.066667	1	-0.005000
3.083333	1	-0.004500
3.100000	1	-0.004000
3.116667	1	-0.003250
3.133333	1	-0.002750
3.150000	1	-0.002625
3.166667	1	-0.002375
3.183333	1	-0.001625
3.200000	1	-0.001250
3.216667	1	-0.000625
3.233333	1	-0.000375
3.250000	1	-0.000250
3.266667	1	-0.000125
3.283333	1	0.000500
3.300000	1	0.000875
3.316667	1	0.001125
3.333333	1	0.001500
3.350000	1	0.001250
3.366667	1	0.001125
3.383333	1	0.001500
3.400000	1	0.001625
3.416667	1	0.001375
3.433333	1	0.001500
3.450000	1	0.001375
3.466667	1	0.000500
3.483333	1	0.000250
3.500000	1	0.000000
3.516667	1	-0.000375
3.533333	1	-0.001000
3.550000	1	-0.002250
3.566667	1	-0.002125
3.583333	1	-0.002625
3.600000	1	-0.003250
3.616667	1	-0.003500
3.633333	1	-0.004250
3.650000	1	-0.005250
3.666667	1	-0.006000
3.683333	1	-0.006625
3.700000	1	-0.008125
3.716667	1	-0.009250
3.733333	1	-0.010750
3.750000	1	-0.011375
3.766667	1	-0.012500
3.783333	1	-0.013500
3.800000	1	-0.014125
3.816667	1	-0.015250
3.833333	1	-0.016125
3.850000	1	-0.016750
3.866667	1	-0.017625
3.883333	1	-0.018875
3.900000	1	-0.019750
3.916667	1	-0.020750
3.933333	1	-0.021750
3.950000	1	-0.022250
3.966667	1	-0.022875
3.983333	1	-0.023250
4.000000	1	-0.023500
4.016667	1	-0.023750
4.033333	1	-0.024000
4.050000	1	-0.023875
4.066667	1	-0.025000
4.083333	1	-0.025375
4.100000	1	-0.025000
4.116667	1	-0.024750
4.133333	1	-0.025000
4.150000	1	-0.025250
4.166667	1	-0.024875
4.183333	1	-0.024875
4.200000	1	-0.023875
4.216667	1	-0.024125
4.233333	1	-0.023875
4.250000	1	-0.023500
4.266667	1	-0.023250
4.283333	1	-0.022375
4.300000	1	-0.021375
4.316667	1	-0.020500
4.333333	1	-0.019500
4.350000	1	-0.018875
4.366667	1	-0.017750
4.383333	1	-0.016625
4.400000	1	-0.015500
4.416667	1	-0.014250
4.433333	1	-0.013250
4.450000	1	-0.012250
4.466667	1	-0.011750
4.483333	1	-0.010500
4.500000	1	-0.008625
4.516667	1	-0.007625
4.533333	1	-0.006500
4.550000	1	-0.004500
4.566667	1	-0.002500
4.583333	1	-0.000875
4.600000	1	0.000375
4.616667	1	0.002000
4.633333	1	0.004000
4.650000	1	0.005500
4.666667	1	0.007250
4.683333	1	0.009000
4.700000	1	0.010625
4.716667	1	0.012500
4.733333	1	0.014625
4.750000	1	0.016125
4.766667	1	0.017750
4.783333	1	0.019875
4.800000	1	0.022000
4.816667	1	0.024250
4.833333	1	0.026000
4.850000	1	0.028250
4.866667	1	0.029750
4.883333	1	0.032000
4.900000	1	0.033500
4.916667	1	0.034875
4.933333	1	0.036750
4.950000	1	0.038250
4.966667	1	0.039875
4.983333	1	0.041250
5.000000	1	0.043000
5.016667	1	0.044625
5.033333	1	0.045750
5.050000	1	0.046250
5.066667	1	0.047125
5.083333	1	0.047500
5.100000	1	0.047625
5.116667	1	0.047750
5.133333	1	0.047500
5.150000	1	0.047625
5.166667	1	0.048000
5.183333	1	0.048375
5.200000	1	0.047750
5.216667	1	0.047250
5.233333	1	0.046125
5.250000	1	0.045375
5.266667	1	0.044125
5.283333	1	0.042875
5.300000	1	0.041250
5.316667	1	0.039625
5.333333	1	0.038375
5.350000	1	0.037375
5.366667	1	0.035375
5.383333	1	0.034000
5.400000	1	0.033000
5.416667	1	0.031375
5.433333	1	0.029375
5.450000	1	0.028000
5.466667	1	0.026625
5.483333	1	0.024625
5.500000	1	0.022750
5.516667	1	0.021375
5.533333	1	0.019625
5.550000	1	0.017625
5.566667	1	0.016000
5.583333	1	0.015000
5.600000	1	0.014625
5.616667	1	0.013250
5.633333	1	0.012375
5.650000	1	0.011875
5.666667	1	0.011625
5.683333	1	0.011125
5.700000	1	0.010625
5.716667	1	0.010125
5.733333	1	0.009875
5.750000	1	0.010000
5.766667	1	0.010000
5.783333	1	0.010250
5.800000	1	0.011125
5.816667	1	0.012000
5.833333	1	0.012875
5.850000	1	0.014250
5.866667	1	0.015125
5.883333	1	0.016375
5.900000	1	0.017625
5.916667	1	0.019500
5.933333	1	0.020750
5.950000	1	0.022250
5.966667	1	0.023625
5.983333	1	0.026000
6.000000	1	0.028250
6.016667	1	0.030000
6.033333	1	0.032000
6.050000	1	0.034250
6.066667	1	0.036500
6.083333	1	0.039000
6.100000	1	0.041250
6.116667	1	0.043500
6.133333	1	0.046375
6.150000	1	0.048875
6.166667	1	0.051875
6.183333	1	0.054750
6.200000	1	0.057750
6.216667	1	0.060875
6.233333	1	0.063875
6.250000	1	0.066250
6.266667	1	0.069625
6.283333	1	0.072125
6.300000	1	0.074875
6.316667	1	0.077625
6.333333	1	0.081375
6.350000	1	0.084375
6.366667	1	0.087250
6.383333	1	0.089875
6.400000	1	0.092125
6.416667	1	0.094875
6.433333	1	0.097250
6.450000	1	0.099000
6.466667	1	0.102000
6.483333	1	0.104625
6.500000	1	0.106625
6.516667	1	0.108500
6.533333	1	0.110750
6.550000	1	0.111750
6.566667	1	0.112875
6.583333	1	0.114000
6.600000	1	0.115250
6.616667	1	0.116750
6.633333	1	0.117125
6.650000	1	0.117000
6.666667	1	0.116750
6.683333	1	0.116250
6.700000	1	0.115125
6.716667	1	0.114625
6.733333	1	0.113750
6.750000	1	0.112875
6.766667	1	0.111000
6.783333	1	0.109500
6.800000	1	0.107750
6.816667	1	0.105875
6.833333	1	0.103625
6.850000	1	0.101125
6.866667	1	0.098875
6.883333	1	0.096125
6.900000	1	0.093375
6.916667	1	0.090875
6.933333	1	0.088375
6.950000	1	0.085750
6.966667	1	0.083375
6.983333	1	0.080375
7.000000	1	0.077625
7.016667	1	0.074750
7.033333	1	0.071875
7.050000	1	0.068250
7.066667	1	0.065000
7.083333	1	0.062375
7.100000	1	0.059500
7.116667	1	0.056875
7.133333	1	0.054000
7.150000	1	0.052000
7.166667	1	0.049375
7.183333	1	0.047500
7.200000	1	0.045375
7.216667	1	0.042625
7.233333	1	0.040625
7.250000	1	0.038250
7.266667	1	0.035500
7.283333	1	0.033625
7.300000	1	0.032250
7.316667	1	0.029750
7.333333	1	0.028125
7.350000	1	0.026625
7.366667	1	0.025125
7.383333	1	0.024125
7.400000	1	0.023000
7.416667	1	0.021375
7.433333	1	0.020625
7.450000	1	0.020250
7.466667	1	0.019000
7.483333	1	0.017500
7.500000	1	0.016750
7.516667	1	0.015750
7.533333	1	0.015250
7.550000	1	0.014875
7.566667	1	0.014500
7.583333	1	0.013625
7.600000	1	0.013125
7.616667	1	0.013000
7.633333	1	0.012250
7.650000	1	0.012000
7.666667	1	0.011750
7.683333	1	0.011500
7.700000	1	0.011750
7.716667	1	0.011875
7.733333	1	0.012500
7.750000	1	0.012625
7.766667	1	0.012500
7.783333	1	0.013250
7.800000	1	0.013000
7.816667	1	0.013875
7.833333	1	0.014875
7.850000	1	0.015375
7.866667	1	0.016250
7.883333	1	0.017625
7.900000	1	0.018750
7.916667	1	0.019500
7.933333	1	0.020625
7.950000	1	0.021375
7.966667	1	0.022625
7.983333	1	0.024250
8.000000	1	0.024875
8.016667	1	0.025875
8.033333	1	0.027500
8.050000	1	0.029250
8.066667	1	0.031750
8.083333	1	0.033500
8.100000	1	0.035250
8.116667	1	0.037250
8.133333	1	0.039125
8.150000	1	0.041750
8.166667	1	0.043125
8.183333	1	0.045750
8.200000	1	0.047875
8.216667	1	0.049625
8.233333	1	0.052250
8.250000	1	0.054500
8.266667	1	0.056500
8.283333	1	0.058625
8.300000	1	0.060750
8.316667	1	0.062625
8.333333	1	0.064500
8.350000	1	0.066750
8.366667	1	0.068250
8.383333	1	0.070375
8.400000	1	0.072125
8.416667	1	0.073250
8.433333	1	0.074125
8.450000	1	0.075625
8.466667	1	0.077250
8.483333	1	0.078375
8.500000	1	0.079625
8.516667	1	0.081250
8.533333	1	0.082375
8.550000	1	0.082875
8.566667	1	0.083375
8.583333	1	0.084625
8.600000	1	0.084750
8.616667	1	0.084625
8.633333	1	0.084875
8.650000	1	0.085125
8.666667	1	0.085375
8.683333	1	0.084625
8.700000	1	0.084250
8.716667	1	0.083500
8.733333	1	0.083375
8.750000	1	0.083250
8.766667	1	0.082375
8.783333	1	0.081000
8.800000	1	0.080250
8.816667	1	0.078875
8.833333	1	0.077500
8.850000	1	0.076125
8.866667	1	0.074875
8.883333	1	0.074000
8.900000	1	0.072750
8.916667	1	0.072000
8.933333	1	0.071125
8.950000	1	0.069875
8.966667	1	0.068375
8.983333	1	0.067250
9.000000	1	0.065750
9.016667	1	0.064750
9.033333	1	0.063000
9.050000	1	0.062250
9.066667	1	0.060375
9.083333	1	0.059125
9.100000	1	0.057625
9.116667	1	0.056500
9.133333	1	0.055875
9.150000	1	0.054875
9.166667	1	0.054750
9.183333	1	0.053500
9.200000	1	0.052750
9.216667	1	0.052375
9.233333	1	0.052250
9.250000	1	0.051750
9.266667	1	0.052000
9.283333	1	0.051750
9.300000	1	0.051500
9.316667	1	0.051000
9.333333	1	0.051625
9.350000	1	0.052000
9.366667	1	0.052625
9.383333	1	0.053375
9.400000	1	0.054875
9.416667	1	0.056500
9.433333	1	0.058375
9.450000	1	0.060500
9.466667	1	0.063500
9.483333	1	0.067125
9.500000	1	0.071375
9.516667	1	0.077625
9.533333	1	0.083625
9.550000	1	0.090625
9.566667	1	0.098125
9.583333	1	0.107375
9.600000	1	0.117125
9.616667	1	0.128750
9.633333	1	0.141625
9.650000	1	0.156250
9.666667	1	0.172500
9.683333	1	0.190500
9.700000	1	0.210250
9.716667	1	0.231375
9.733333	1	0.253875
9.750000	1	0.276625
9.766667	1	0.298250
9.783333	1	0.317750
9.800000	1	0.333750
9.816667	1	0.345750
9.833333	1	0.352250
9.850000	1	0.349875
9.866667	1	0.337375
9.883333	1	0.311500
9.900000	1	0.272375
9.916667	1	0.230750
9.933333	1	0.211375
9.950000	1	0.256375
9.966667	1	0.421375
9.983333	1	0.769875
10.000000	1	1.364375
10.016667	1	2.259250
10.033333	1	3.496625
10.050000	1	5.099000
10.066667	1	7.080500
10.083333	1	9.437000
10.100000	1	12.152125
10.116667	1	15.193125
10.133333	1	18.508375
10.150000	1	22.024750
10.166667	1	25.647125
10.183333	1	29.251375
10.200000	1	32.688250
10.216667	1	35.785125
10.233333	1	38.359000
10.250000	1	40.240250
10.266667	1	41.302250
10.283333	1	41.478375
10.300000	1	40.781875
10.316667	1	39.299625
10.333333	1	37.181000
10.350000	1	34.608125
10.366667	1	31.773250
10.383333	1	28.845750
10.400000	1	25.963375
10.416667	1	23.225500
10.433333	1	20.697375
10.450000	1	18.410125
10.466667	1	16.368750
10.483333	1	14.565250
10.500000	1	12.980875
10.516667	1	11.592625
10.533333	1	10.376875
10.550000	1	9.311875
10.566667	1	8.376625
10.583333	1	7.553375
10.600000	1	6.828125
10.616667	1	6.187750
10.633333	1	5.623000
10.650000	1	5.125625
10.666667	1	4.687125
10.683333	1	4.301750
10.700000	1	3.962375
10.716667	1	3.663125
10.733333	1	3.399250
10.750000	1	3.164500
10.766667	1	2.955750
10.783333	1	2.769625
10.800000	1	2.603000
10.816667	1	2.452625
10.833333	1	2.316500
10.850000	1	2.193625
10.866667	1	2.081875
10.883333	1	1.980375
10.900000	1	1.887500
10.916667	1	1.803625
10.933333	1	1.726250
10.950000	1	1.655375
10.966667	1	1.590125
10.983333	1	1.530625
11.000000	1	1.475875
11.016667	1	1.426125
11.033333	1	1.381125
11.050000	1	1.339625
11.066667	1	1.301750
11.083333	1	1.267625
11.100000	1	1.235375
11.116667	1	1.206750
11.133333	1	1.179625
11.150000	1	1.154375
11.166667	1	1.132250
11.183333	1	1.110875
11.200000	1	1.091625
11.216667	1	1.074375
11.233333	1	1.058500
11.250000	1	1.042500
11.266667	1	1.029250
11.283333	1	1.016875
11.300000	1	1.004750
11.316667	1	0.993000
11.333333	1	0.982375
11.350000	1	0.971250
11.366667	1	0.960250
11.383333	1	0.950500
11.400000	1	0.941625
11.416667	1	0.932125
11.433333	1	0.924375
11.450000	1	0.917375
11.466667	1	0.911125
11.483333	1	0.906375
11.500000	1	0.901750
11.516667	1	0.898500
11.533333	1	0.896125
11.550000	1	0.893625
11.566667	1	0.892375
11.583333	1	0.892250
11.600000	1	0.892250
11.616667	1	0.893250
11.633333	1	0.894375
11.650000	1	0.895500
11.666667	1	0.896375
11.683333	1	0.897250
11.700000	1	0.897500
11.716667	1	0.898000
11.733333	1	0.898750
11.750000	1	0.898625
11.766667	1	0.898750
11.783333	1	0.899375
11.800000	1	0.899375
11.816667	1	0.900125
11.833333	1	0.901250
11.850000	1	0.902250
11.866667	1	0.905250
11.883333	1	0.910125
11.900000	1	0.915375
11.916667	1	0.922625
11.933333	1	0.931875
11.950000	1	0.943750
11.966667	1	0.957375
11.983333	1	0.972875
12.000000	1	0.991625
12.016667	1	1.013375
12.033333	1	1.038250
12.050000	1	1.066125
12.066667	1	1.098625
12.083333	1	1.137250
12.100000	1	1.182625
12.116667	1	1.236625
12.133333	1	1.302375
12.150000	1	1.381500
12.166667	1	1.477875
12.183333	1	1.593000
12.200000	1	1.728875
12.216667	1	1.886750
12.233333	1	2.068750
12.250000	1	2.276125
12.266667	1	2.510875
12.283333	1	2.773000
12.300000	1	3.064375
12.316667	1	3.387250
12.333333	1	3.743750
12.350000	1	4.135500
12.366667	1	4.565625
12.383333	1	5.034875
12.400000	1	5.544250
12.416667	1	6.091125
12.433333	1	6.671000
12.450000	1	7.275000
12.466667	1	7.890625
12.483333	1	8.501750
12.500000	1	9.085375
12.516667	1	9.619750
12.533333	1	10.083375
12.550000	1	10.459625
12.566667	1	10.739375
12.583333	1	10.922750
12.600000	1	11.016375
12.616667	1	11.028750
12.633333	1	10.971625
12.650000	1	10.857625
12.666667	1	10.698250
12.683333	1	10.505250
12.700000	1	10.286875
12.716667	1	10.051875
12.733333	1	9.806000
12.750000	1	9.555000
12.766667	1	9.303375
12.783333	1	9.054500
12.800000	1	8.810875
12.816667	1	8.573625
12.833333	1	8.345000
12.850000	1	8.123750
12.866667	1	7.910000
12.883333	1	7.702125
12.900000	1	7.499375
12.916667	1	7.300875
12.933333	1	7.105250
12.950000	1	6.912500
12.966667	1	6.719625
12.983333	1	6.526125
13.000000	1	6.330000
13.016667	1	6.131375
13.033333	1	5.926375
13.050000	1	5.713750
13.066667	1	5.491750
13.083333	1	5.257250
13.100000	1	5.008125
13.116667	1	4.742250
13.133333	1	4.455875
13.150000	1	4.148750
13.166667	1	3.818000
13.183333	1	3.467000
13.200000	1	3.103625
13.216667	1	2.742250
13.233333	1	2.400500
13.250000	1	2.096625
13.266667	1	1.841625
13.283333	1	1.634375
13.300000	1	1.469625
13.316667	1	1.338875
13.333333	1	1.234875
13.350000	1	1.150000
13.366667	1	1.081250
13.383333	1	1.023250
13.400000	1	0.975625
13.416667	1	0.934250
13.433333	1	0.899375
13.450000	1	0.867750
13.466667	1	0.839875
13.483333	1	0.815625
13.500000	1	0.795125
13.516667	1	0.777875
13.533333	1	0.762625
13.550000	1	0.750375
13.566667	1	0.740750
13.583333	1	0.732750
13.600000	1	0.726875
13.616667	1	0.722750
13.633333	1	0.719750
13.650000	1	0.717875
13.666667	1	0.716500
13.683333	1	0.714875
13.700000	1	0.713000
13.716667	1	0.710125
13.733333	1	0.706125
13.750000	1	0.700750
13.766667	1	0.695250
13.783333	1	0.687750
13.800000	1	0.679625
13.816667	1	0.670750
13.833333	1	0.660250
13.850000	1	0.649000
13.866667	1	0.636625
13.883333	1	0.624875
13.900000	1	0.612375
13.916667	1	0.599375
13.933333	1	0.586875
13.950000	1	0.574875
13.966667	1	0.564000
13.983333	1	0.553500
14.000000	1	0.544125
14.016667	1	0.535000
14.033333	1	0.527000
14.050000	1	0.519250
14.066667	1	0.513500
14.083333	1	0.508750
14.100000	1	0.504875
14.116667	1	0.502500
14.133333	1	0.501875
14.150000	1	0.501875
14.166667	1	0.504375
14.183333	1	0.507250
14.200000	1	0.513000
14.216667	1	0.521125
14.233333	1	0.532000
14.250000	1	0.546375
14.266667	1	0.564750
14.283333	1	0.587750
14.300000	1	0.615375
14.316667	1	0.650125
14.333333	1	0.692500
14.350000	1	0.744375
14.366667	1	0.806000
14.383333	1	0.880125
14.400000	1	0.967000
14.416667	1	1.068500
14.433333	1	1.187750
14.450000	1	1.325625
14.466667	1	1.484750
14.483333	1	1.669125
14.500000	1	1.881250
14.516667	1	2.124000
14.533333	1	2.403500
14.550000	1	2.724500
14.566667	1	3.095750
14.583333	1	3.525750
14.600000	1	4.028250
14.616667	1	4.621625
14.633333	1	5.328875
14.650000	1	6.176875
14.666667	1	7.199125
14.683333	1	8.431875
14.700000	1	9.912375
14.716667	1	11.677250
14.733333	1	13.760375
14.750000	1	16.186500
14.766667	1	18.963875
14.783333	1	22.079250
14.800000	1	25.502750
14.816667	1	29.179500
14.833333	1	33.026625
14.850000	1	36.941625
14.866667	1	40.798000
14.883333	1	44.464500
14.900000	1	47.807375
14.916667	1	50.703625
14.933333	1	53.050875
14.950000	1	54.770625
14.966667	1	55.817625
14.983333	1	56.178750
15.000000	1	55.872125
15.016667	1	54.940375
15.033333	1	53.447125
15.050000	1	51.473625
15.066667	1	49.109125
15.083333	1	46.446750
15.100000	1	43.578375
15.116667	1	40.591875
15.133333	1	37.563250
15.150000	1	34.557750
15.166667	1	31.629500
15.183333	1	28.819875
15.200000	1	26.155250
15.216667	1	23.655000
15.233333	1	21.328250
15.250000	1	19.180750
15.266667	1	17.211500
15.283333	1	15.418250
15.300000	1	13.794625
15.316667	1	12.330500
15.333333	1	11.017000
15.350000	1	9.842500
15.366667	1	8.796500
15.383333	1	7.868625
15.400000	1	7.047750
15.416667	1	6.323125
15.433333	1	5.685375
15.450000	1	5.125875
15.466667	1	4.636625
15.483333	1	4.209750
15.500000	1	3.839250
15.516667	1	3.519000
15.533333	1	3.242750
15.550000	1	3.005375
15.566667	1	2.801750
15.583333	1	2.626750
15.600000	1	2.476625
15.616667	1	2.346125
15.633333	1	2.232375
15.650000	1	2.131875
15.666667	1	2.041250
15.683333	1	1.958125
15.700000	1	1.881000
15.716667	1	1.808500
15.733333	1	1.739375
15.750000	1	1.673250
15.766667	1	1.609375
15.783333	1	1.548125
15.800000	1	1.489500
15.816667	1	1.433000
15.833333	1	1.379500
15.850000	1	1.328125
15.866667	1	1.279500
15.883333	1	1.233625
15.900000	1	1.191125
15.916667	1	1.150625
15.933333	1	1.113125
15.950000	1	1.078125
15.966667	1	1.045625
15.983333	1	1.015250
16.000000	1	0.987125
16.016667	1	0.961000
16.033333	1	0.937375
16.050000	1	0.916750
16.066667	1	0.897500
16.083333	1	0.880750
16.100000	1	0.864875
16.116667	1	0.851250
16.133333	1	0.839875
16.150000	1	0.829625
16.166667	1	0.821000
16.183333	1	0.813625
16.200000	1	0.807375
16.216667	1	0.802625
16.233333	1	0.797000
16.250000	1	0.792125
16.266667	1	0.787375
16.283333	1	0.783250
16.300000	1	0.778750
16.316667	1	0.773500
16.333333	1	0.768250
16.350000	1	0.763750
16.366667	1	0.758875
16.383333	1	0.753750
16.400000	1	0.748875
16.416667	1	0.745000
16.433333	1	0.741125
16.450000	1	0.737750
16.466667	1	0.734375
16.483333	1	0.732000
16.500000	1	0.729625
16.516667	1	0.728250
16.533333	1	0.728125
16.550000	1	0.728875
16.566667	1	0.730375
16.583333	1	0.732375
16.600000	1	0.735625
16.616667	1	0.739000
16.633333	1	0.743375
16.650000	1	0.748750
16.666667	1	0.753500
16.683333	1	0.758875
16.700000	1	0.765000
16.716667	1	0.771250
16.733333	1	0.777375
16.750000	1	0.782375
16.766667	1	0.787625
16.783333	1	0.793000
16.800000	1	0.797125
16.816667	1	0.800000
16.833333	1	0.802125
16.850000	1	0.803000
16.866667	1	0.804000
16.883333	1	0.803125
16.900000	1	0.802000
16.916667	1	0.801000
16.933333	1	0.799625
16.950000	1	0.798125
16.966667	1	0.797375
16.983333	1	0.797625
17.000000	1	0.797375
17.016667	1	0.797500
17.033333	1	0.798875
17.050000	1	0.800375
17.066667	1	0.801000
17.083333	1	0.801500
17.100000	1	0.802125
17.116667	1	0.802250
17.133333	1	0.801625
17.150000	1	0.800750
17.166667	1	0.798625
17.183333	1	0.795625
17.200000	1	0.791875
17.216667	1	0.787625
17.233333	1	0.783125
17.250000	1	0.777625
17.266667	1	0.772000
17.283333	1	0.765625
17.300000	1	0.759625
17.316667	1	0.754375
17.333333	1	0.748750
17.350000	1	0.743500
17.366667	1	0.738625
17.383333	1	0.734625
17.400000	1	0.732000
17.416667	1	0.729375
17.433333	1	0.728000
17.450000	1	0.726750
17.466667	1	0.726000
17.483333	1	0.727125
17.500000	1	0.728625
17.516667	1	0.730500
17.533333	1	0.733875
17.550000	1	0.737750
17.566667	1	0.742250
17.583333	1	0.748000
17.600000	1	0.754875
17.616667	1	0.762500
17.633333	1	0.771250
17.650000	1	0.780750
17.666667	1	0.790375
17.683333	1	0.801000
17.700000	1	0.813000
17.716667	1	0.824750
17.733333	1	0.837000
17.750000	1	0.850000
17.766667	1	0.862625
17.783333	1	0.875750
17.800000	1	0.889000
17.816667	1	0.901000
17.833333	1	0.913125
17.850000	1	0.924250
17.866667	1	0.933750
17.883333	1	0.941625
17.900000	1	0.948750
17.916667	1	0.953500
17.933333	1	0.956750
17.950000	1	0.958125
17.966667	1	0.957125
17.983333	1	0.954750
18.000000	1	0.949750
18.016667	1	0.942375
18.033333	1	0.933875
18.050000	1	0.923500
18.066667	1	0.911875
18.083333	1	0.898000
18.100000	1	0.884000
18.116667	1	0.869000
18.133333	1	0.853375
18.150000	1	0.837500
18.166667	1	0.822000
18.183333	1	0.806250
18.200000	1	0.790625
18.216667	1	0.775875
18.233333	1	0.762000
18.250000	1	0.748750
18.266667	1	0.735625
18.283333	1	0.724000
18.300000	1	0.713875
18.316667	1	0.704375
18.333333	1	0.696000
18.350000	1	0.688375
18.366667	1	0.683500
18.383333	1	0.678750
18.400000	1	0.674750
18.416667	1	0.671125
18.433333	1	0.668125
18.450000	1	0.666000
18.466667	1	0.664875
18.483333	1	0.663375
18.500000	1	0.662500
18.516667	1	0.662750
18.533333	1	0.663250
18.550000	1	0.663750
18.566667	1	0.664875
18.583333	1	0.666000
18.600000	1	0.667125
18.616667	1	0.669500
18.633333	1	0.671625
18.650000	1	0.674375
18.666667	1	0.677125
18.683333	1	0.681250
18.700000	1	0.686625
18.716667	1	0.691500
18.733333	1	0.696625
18.750000	1	0.702625
18.766667	1	0.709750
18.783333	1	0.716750
18.800000	1	0.725250
18.816667	1	0.733500
18.833333	1	0.742375
18.850000	1	0.752000
18.866667	1	0.762750
18.883333	1	0.775000
18.900000	1	0.788250
18.916667	1	0.803375
18.933333	1	0.820375
18.950000	1	0.838875
18.966667	1	0.859750
18.983333	1	0.882500
19.000000	1	0.908250
19.016667	1	0.937000
19.033333	1	0.967375
19.050000	1	0.999750
19.066667	1	1.034250
19.083333	1	1.069875
19.100000	1	1.106875
19.116667	1	1.144375
19.133333	1	1.180500
19.150000	1	1.216375
19.166667	1	1.248875
19.183333	1	1.280250
19.200000	1	1.307500
19.216667	1	1.330000
19.233333	1	1.346750
19.250000	1	1.358750
19.266667	1	1.365500
19.283333	1	1.366500
19.300000	1	1.361500
19.316667	1	1.350250
19.333333	1	1.334375
19.350000	1	1.313000
19.366667	1	1.287000
19.383333	1	1.257000
19.400000	1	1.223875
19.416667	1	1.187375
19.433333	1	1.149000
19.450000	1	1.109000
19.466667	1	1.068375
19.483333	1	1.027375
19.500000	1	0.986500
19.516667	1	0.946375
19.533333	1	0.907750
19.550000	1	0.871000
19.566667	1	0.835375
19.583333	1	0.802375
19.600000	1	0.771125
19.616667	1	0.742250
19.633333	1	0.716375
19.650000	1	0.693500
19.666667	1	0.673875
19.683333	1	0.658000
19.700000	1	0.643750
19.716667	1	0.633125
19.733333	1	0.626250
19.750000	1	0.622750
19.766667	1	0.622500
19.783333	1	0.626375
19.800000	1	0.633000
19.816667	1	0.641750
19.833333	1	0.653625
19.850000	1	0.668375
19.866667	1	0.684750
19.883333	1	0.704250
19.900000	1	0.725000
19.916667	1	0.746625
19.933333	1	0.768250
19.950000	1	0.790875
19.966667	1	0.812750
19.983333	1	0.834875
20.000000	1	0.855250
20.016667	1	0.874000
20.033333	1	0.892500
20.050000	1	0.909125
20.066667	1	0.924125
20.083333	1	0.938500
20.100000	1	0.951625
20.116667	1	0.963875
20.133333	1	0.977000
20.150000	1	0.989875
20.166667	1	1.004375
20.183333	1	1.020500
20.200000	1	1.039250
20.216667	1	1.061750
20.233333	1	1.087000
20.250000	1	1.116625
20.266667	1	1.151875
20.283333	1	1.192125
20.300000	1	1.237500
20.316667	1	1.288125
20.333333	1	1.343375
20.350000	1	1.403500
20.366667	1	1.466375
20.383333	1	1.532250
20.400000	1	1.597500
20.416667	1	1.662750
20.433333	1	1.724875
20.450000	1	1.783250
20.466667	1	1.836125
20.483333	1	1.881625
20.500000	1	1.919125
20.516667	1	1.946750
20.533333	1	1.964000
20.550000	1	1.972250
20.566667	1	1.970750
20.583333	1	1.960875
20.600000	1	1.942125
20.616667	1	1.916500
20.633333	1	1.886125
20.650000	1	1.851625
20.666667	1	1.816250
20.683333	1	1.780250
20.700000	1	1.745875
20.716667	1	1.713875
20.733333	1	1.686375
20.750000	1	1.663875
20.766667	1	1.648000
20.783333	1	1.636375
20.800000	1	1.630125
20.816667	1	1.628375
20.833333	1	1.630750
20.850000	1	1.636125
20.866667	1	1.643250
20.883333	1	1.650875
20.900000	1	1.655875
20.916667	1	1.657375
20.933333	1	1.655875
20.950000	1	1.648875
20.966667	1	1.636000
20.983333	1	1.615875
21.000000	1	1.589125
21.016667	1	1.555000
21.033333	1	1.514750
21.050000	1	1.469125
21.066667	1	1.418500
21.083333	1	1.363875
21.100000	1	1.306125
21.116667	1	1.246750
21.133333	1	1.187250
21.150000	1	1.126250
21.166667	1	1.066125
21.183333	1	1.007750
21.200000	1	0.951250
21.216667	1	0.897625
21.233333	1	0.846375
21.250000	1	0.799125
21.266667	1	0.754500
21.283333	1	0.713500
21.300000	1	0.675250
21.316667	1	0.640500
21.333333	1	0.608625
21.350000	1	0.579750
21.366667	1	0.553750
21.383333	1	0.531000
21.400000	1	0.510625
21.416667	1	0.491875
21.433333	1	0.474875
21.450000	1	0.460500
21.466667	1	0.449000
21.483333	1	0.438375
21.500000	1	0.429125
21.516667	1	0.421375
21.533333	1	0.414750
21.550000	1	0.409500
21.566667	1	0.404625
21.583333	1	0.401125
21.600000	1	0.398250
21.616667	1	0.396375
21.633333	1	0.395625
21.650000	1	0.395875
21.666667	1	0.396625
21.683333	1	0.398875
21.700000	1	0.402250
21.716667	1	0.406500
21.733333	1	0.412875
21.750000	1	0.420000
21.766667	1	0.428750
21.783333	1	0.439375
21.800000	1	0.451125
21.816667	1	0.464750
21.833333	1	0.479250
21.850000	1	0.495500
21.866667	1	0.512500
21.883333	1	0.530625
21.900000	1	0.549375
21.916667	1	0.568750
21.933333	1	0.587250
21.950000	1	0.605625
21.966667	1	0.623250
21.983333	1	0.639750
22.000000	1	0.654250
22.016667	1	0.666625
22.033333	1	0.676750
22.050000	1	0.684875
22.066667	1	0.689875
22.083333	1	0.692125
22.100000	1	0.692625
22.116667	1	0.690375
22.133333	1	0.685875
22.150000	1	0.679000
22.166667	1	0.669250
22.183333	1	0.658500
22.200000	1	0.646125
22.216667	1	0.632500
22.233333	1	0.618750
22.250000	1	0.604125
22.266667	1	0.590750
22.283333	1	0.576625
22.300000	1	0.562875
22.316667	1	0.550250
22.333333	1	0.537875
22.350000	1	0.526500
22.366667	1	0.516875
22.383333	1	0.508250
22.400000	1	0.500500
22.416667	1	0.493375
22.433333	1	0.488375
22.450000	1	0.484000
22.466667	1	0.481125
22.483333	1	0.479000
22.500000	1	0.476750
22.516667	1	0.476375
22.533333	1	0.475125
22.550000	1	0.475250
22.566667	1	0.475750
22.583333	1	0.477500
22.600000	1	0.478500
22.616667	1	0.480125
22.633333	1	0.481250
22.650000	1	0.482250
22.666667	1	0.483125
22.683333	1	0.484625
22.700000	1	0.485250
22.716667	1	0.486000
22.733333	1	0.486125
22.750000	1	0.485750
22.766667	1	0.484500
22.783333	1	0.483250
22.800000	1	0.481250
22.816667	1	0.478875
22.833333	1	0.475125
22.850000	1	0.471750
22.866667	1	0.468000
22.883333	1	0.463500
22.900000	1	0.458875
22.916667	1	0.454250
22.933333	1	0.449750
22.950000	1	0.443875
22.966667	1	0.438625
22.983333	1	0.433250
23.000000	1	0.429125
23.016667	1	0.425000
23.033333	1	0.420875
23.050000	1	0.417875
23.066667	1	0.415000
23.083333	1	0.413000
23.100000	1	0.411625
23.116667	1	0.411500
23.133333	1	0.412125
23.150000	1	0.413125
23.166667	1	0.414625
23.183333	1	0.417625
23.200000	1	0.422000
23.216667	1	0.427875
23.233333	1	0.434375
23.250000	1	0.442625
23.266667	1	0.452000
23.283333	1	0.463000
23.300000	1	0.475750
23.316667	1	0.490875
23.333333	1	0.507375
23.350000	1	0.525625
23.366667	1	0.545750
23.383333	1	0.568500
23.400000	1	0.593750
23.416667	1	0.622500
23.433333	1	0.653875
23.450000	1	0.689000
23.466667	1	0.728375
23.483333	1	0.772625
23.500000	1	0.822750
23.516667	1	0.879500
23.533333	1	0.943625
23.550000	1	1.015375
23.566667	1	1.095625
23.583333	1	1.185625
23.600000	1	1.286375
23.616667	1	1.399000
23.633333	1	1.523125
23.650000	1	1.659000
23.666667	1	1.806875
23.683333	1	1.966625
23.700000	1	2.137125
23.716667	1	2.316500
23.733333	1	2.503625
23.750000	1	2.696625
23.766667	1	2.891875
23.783333	1	3.087000
23.800000	1	3.278875
23.816667	1	3.465000
23.833333	1	3.639375
23.850000	1	3.801000
23.866667	1	3.944750
23.883333	1	4.068500
23.900000	1	4.170125
23.916667	1	4.247125
23.933333	1	4.298500
23.950000	1	4.322375
23.966667	1	4.319500
23.983333	1	4.290250
24.000000	1	4.236625
24.016667	1	4.159250
24.033333	1	4.061000
24.050000	1	3.944000
24.066667	1	3.811000
24.083333	1	3.664875
24.100000	1	3.508375
24.116667	1	3.344250
24.133333	1	3.175375
24.150000	1	3.003125
24.166667	1	2.832750
24.183333	1	2.664000
24.200000	1	2.499625
24.216667	1	2.340625
24.233333	1	2.188750
24.250000	1	2.045000
24.266667	1	1.909500
24.283333	1	1.782875
24.300000	1	1.665000
24.316667	1	1.556000
24.333333	1	1.455375
24.350000	1	1.363750
24.366667	1	1.280000
24.383333	1	1.203750
24.400000	1	1.133750
24.416667	1	1.070625
24.433333	1	1.014375
24.450000	1	0.963000
24.466667	1	0.915750
24.483333	1	0.872500
24.500000	1	0.833375
24.516667	1	0.797125
24.533333	1	0.763375
24.550000	1	0.731000
24.566667	1	0.701125
24.583333	1	0.673250
24.600000	1	0.646250
24.616667	1	0.620625
24.633333	1	0.596125
24.650000	1	0.572500
24.666667	1	0.549375
24.683333	1	0.527500
24.700000	1	0.506750
24.716667	1	0.486500
24.733333	1	0.466875
24.750000	1	0.447875
24.766667	1	0.428500
24.783333	1	0.411000
24.800000	1	0.394375
24.816667	1	0.378500
24.833333	1	0.363875
24.850000	1	0.349125
24.866667	1	0.336250
24.883333	1	0.323500
24.900000	1	0.311750
24.916667	1	0.300875
24.933333	1	0.291375
24.950000	1	0.282625
24.966667	1	0.274750
24.983333	1	0.267125
25.000000	1	0.261125
25.016667	1	0.255500
25.033333	1	0.251250
25.050000	1	0.247750
25.066667	1	0.244750
25.083333	1	0.242375
25.100000	1	0.241000
25.116667	1	0.240250
25.133333	1	0.239625
25.150000	1	0.239750
25.166667	1	0.240500
25.183333	1	0.241250
25.200000	1	0.242125
25.216667	1	0.243750
25.233333	1	0.245625
25.250000	1	0.248375
25.266667	1	0.251125
25.283333	1	0.253375
25.300000	1	0.256000
25.316667	1	0.259125
25.333333	1	0.261750
25.350000	1	0.264875
25.366667	1	0.268250
25.383333	1	0.271000
25.400000	1	0.273375
25.416667	1	0.275750
25.433333	1	0.277750
25.450000	1	0.279375
25.466667	1	0.281375
25.483333	1	0.283125
25.500000	1	0.284625
25.516667	1	0.285875
25.533333	1	0.286250
25.550000	1	0.285875
25.566667	1	0.285750
25.583333	1	0.284875
25.600000	1	0.284250
25.616667	1	0.284000
25.633333	1	0.282875
25.650000	1	0.281375
25.666667	1	0.280000
25.683333	1	0.278000
25.700000	1	0.275750
25.716667	1	0.273000
25.733333	1	0.270000
25.750000	1	0.267125
25.766667	1	0.263500
25.783333	1	0.259250
25.800000	1	0.255625
25.816667	1	0.251500
25.833333	1	0.247375
25.850000	1	0.242250
25.866667	1	0.237500
25.883333	1	0.233000
25.900000	1	0.227250
25.916667	1	0.221375
25.933333	1	0.215000
25.950000	1	0.208125
25.966667	1	0.200750
25.983333	1	0.194500
26.000000	1	0.188250
26.016667	1	0.181375
26.033333	1	0.174875
26.050000	1	0.168000
26.066667	1	0.162250
26.083333	1	0.156500
26.100000	1	0.149500
26.116667	1	0.143750
26.133333	1	0.138375
26.150000	1	0.133750
26.166667	1	0.129625
26.183333	1	0.126125
26.200000	1	0.123125
26.216667	1	0.120375
26.233333	1	0.118625
26.250000	1	0.117000
26.266667	1	0.116500
26.283333	1	0.116250
26.300000	1	0.116125
26.316667	1	0.116875
26.333333	1	0.117625
26.350000	1	0.119125
26.366667	1	0.120625
26.383333	1	0.122500
26.400000	1	0.124250
26.416667	1	0.126250
26.433333	1	0.128125
26.450000	1	0.129125
26.466667	1	0.132000
26.483333	1	0.133375
26.500000	1	0.134500
26.516667	1	0.135875
26.533333	1	0.136375
26.550000	1	0.137250
26.566667	1	0.137500
26.583333	1	0.138250
26.600000	1	0.138625
26.616667	1	0.139125
26.633333	1	0.139125
26.650000	1	0.139000
26.666667	1	0.139000
26.683333	1	0.138750
26.700000	1	0.138750
26.716667	1	0.138375
26.733333	1	0.138250
26.750000	1	0.138500
26.766667	1	0.138500
26.783333	1	0.138625
26.800000	1	0.138625
26.816667	1	0.139750
26.833333	1	0.140750
26.850000	1	0.142000
26.866667	1	0.144000
26.883333	1	0.146125
26.900000	1	0.148000
26.916667	1	0.150625
26.933333	1	0.152875
26.950000	1	0.155875
26.966667	1	0.159125
26.983333	1	0.163250
27.000000	1	0.167125
27.016667	1	0.171875
27.033333	1	0.177000
27.050000	1	0.182625
27.066667	1	0.189625
27.083333	1	0.196250
27.100000	1	0.203875
27.116667	1	0.211125
27.133333	1	0.219625
27.150000	1	0.229125
27.166667	1	0.238750
27.183333	1	0.249250
27.200000	1	0.260375
27.216667	1	0.271500
27.233333	1	0.284625
27.250000	1	0.298125
27.266667	1	0.312500
27.283333	1	0.328000
27.300000	1	0.344750
27.316667	1	0.361875
27.333333	1	0.380250
27.350000	1	0.399875
27.366667	1	0.421375
27.383333	1	0.444375
27.400000	1	0.468875
27.416667	1	0.496250
27.433333	1	0.524625
27.450000	1	0.555875
27.466667	1	0.590250
27.483333	1	0.628750
27.500000	1	0.670125
27.516667	1	0.716125
27.533333	1	0.766625
27.550000	1	0.822125
27.566667	1	0.883125
27.583333	1	0.950000
27.600000	1	1.023000
27.616667	1	1.102500
27.633333	1	1.189250
27.650000	1	1.282750
27.666667	1	1.382375
27.683333	1	1.489750
27.700000	1	1.603000
27.716667	1	1.722125
27.733333	1	1.846750
27.750000	1	1.975500
27.766667	1	2.107875
27.783333	1	2.242125
27.800000	1	2.376875
27.816667	1	2.511250
27.833333	1	2.642250
27.850000	1	2.769625
27.866667	1	2.890875
27.883333	1	3.003500
27.900000	1	3.107250
27.916667	1	3.199875
27.933333	1	3.279375
27.950000	1	3.345125
27.966667	1	3.395125
27.983333	1	3.429750
28.000000	1	3.446750
28.016667	1	3.447125
28.033333	1	3.429500
28.050000	1	3.396000
28.066667	1	3.345500
28.083333	1	3.279000
28.100000	1	3.197250
28.116667	1	3.102500
28.133333	1	2.995875
28.150000	1	2.878875
28.166667	1	2.753125
28.183333	1	2.620875
28.200000	1	2.484125
28.216667	1	2.343375
28.233333	1	2.200125
28.250000	1	2.056000
28.266667	1	1.913375
28.283333	1	1.771875
28.300000	1	1.633875
28.316667	1	1.499250
28.333333	1	1.368875
28.350000	1	1.243750
28.366667	1	1.123375
28.383333	1	1.008625
28.400000	1	0.899375
28.416667	1	0.795750
28.433333	1	0.697250
28.450000	1	0.602625
28.466667	1	0.512250
28.483333	1	0.426000
28.500000	1	0.343875
28.516667	1	0.263625
28.533333	1	0.187125
28.550000	1	0.113500
28.566667	1	0.042125
28.583333	1	-0.026375
28.600000	1	-0.093750
28.616667	1	-0.158375
28.633333	1	-0.221375
28.650000	1	-0.284500
28.666667	1	-0.345250
28.683333	1	-0.403875
28.700000	1	-0.461125
28.716667	1	-0.515875
28.733333	1	-0.568000
28.750000	1	-0.617625
28.766667	1	-0.664250
28.783333	1	-0.708500
28.800000	1	-0.748750
28.816667	1	-0.785500
28.833333	1	-0.818375
28.850000	1	-0.848000
28.866667	1	-0.873250
28.883333	1	-0.893875
28.900000	1	-0.909250
28.916667	1	-0.920125
28.933333	1	-0.925875
28.950000	1	-0.926875
28.966667	1	-0.922750
28.983333	1	-0.914250
29.000000	1	-0.901875
29.016667	1	-0.884750
29.033333	1	-0.863000
29.050000	1	-0.837250
29.066667	1	-0.808625
29.083333	1	-0.777000
29.100000	1	-0.742125
29.116667	1	-0.704375
29.133333	1	-0.664875
29.150000	1	-0.623375
29.166667	1	-0.579375
29.183333	1	-0.535375
29.200000	1	-0.490125
29.216667	1	-0.444750
29.233333	1	-0.399250
29.250000	1	-0.353750
29.266667	1	-0.309750
29.283333	1	-0.265000
29.300000	1	-0.221750
29.316667	1	-0.179875
29.333333	1	-0.139625
29.350000	1	-0.100000
29.366667	1	-0.062750
29.383333	1	-0.026375
29.400000	1	0.008125
29.416667	1	0.041000
29.433333	1	0.071750
29.450000	1	0.100250
29.466667	1	0.126875
29.483333	1	0.152000
29.500000	1	0.175500
29.516667	1	0.196750
29.533333	1	0.216500
29.550000	1	0.234125
29.566667	1	0.250500
29.583333	1	0.264875
29.600000	1	0.277125
29.616667	1	0.288000
29.633333	1	0.297625
29.650000	1	0.305875
29.666667	1	0.312500
29.683333	1	0.317875
29.700000	1	0.321875
29.716667	1	0.324875
29.733333	1	0.326875
29.750000	1	0.327625
29.766667	1	0.328500
29.783333	1	0.328750
29.800000	1	0.328875
29.816667	1	0.327500
29.833333	1	0.325750
29.850000	1	0.324250
29.866667	1	0.322250
29.883333	1	0.320375
29.900000	1	0.318625
29.916667	1	0.316750
29.933333	1	0.314500
29.950000	1	0.312625
29.966667	1	0.311000
29.983333	1	0.309625
30.000000	1	0.308750
30.016667	1	0.308625
30.033333	1	0.308250
30.050000	1	0.308250
30.066667	1	0.307875
30.083333	1	0.308500
30.100000	1	0.310125
30.116667	1	0.312000
30.133333	1	0.313625
30.150000	1	0.316500
30.166667	1	0.320500
30.183333	1	0.324500
30.200000	1	0.329500
30.216667	1	0.335250
30.233333	1	0.341125
30.250000	1	0.348375
30.266667	1	0.356500
30.283333	1	0.365000
30.300000	1	0.374750
30.316667	1	0.386500
30.333333	1	0.398125
30.350000	1	0.411625
30.366667	1	0.426125
30.383333	1	0.442750
30.400000	1	0.460500
30.416667	1	0.479750
30.433333	1	0.500125
30.450000	1	0.522500
30.466667	1	0.546000
30.483333	1	0.571125
30.500000	1	0.597625
30.516667	1	0.625125
30.533333	1	0.653875
30.550000	1	0.683500
30.566667	1	0.713875
30.583333	1	0.744500
30.600000	1	0.775750
30.616667	1	0.805625
30.633333	1	0.834500
30.650000	1	0.862375
30.666667	1	0.889000
30.683333	1	0.914125
30.700000	1	0.936750
30.716667	1	0.957250
30.733333	1	0.974875
30.750000	1	0.989250
30.766667	1	1.000000
30.783333	1	1.007500
30.800000	1	1.011375
30.816667	1	1.011250
30.833333	1	1.007625
30.850000	1	1.001000
30.866667	1	0.990250
30.883333	1	0.975750
30.900000	1	0.958250
30.916667	1	0.938125
30.933333	1	0.915625
30.950000	1	0.890125
30.966667	1	0.863375
30.983333	1	0.834250
31.000000	1	0.804750
31.016667	1	0.772750
31.033333	1	0.741375
31.050000	1	0.708625
31.066667	1	0.675375
31.083333	1	0.643000
31.100000	1	0.610500
31.116667	1	0.579250
31.133333	1	0.548875
31.150000	1	0.519375
31.166667	1	0.491125
31.183333	1	0.464625
31.200000	1	0.439750
31.216667	1	0.415625
31.233333	1	0.392625
31.250000	1	0.371500
31.266667	1	0.351250
31.283333	1	0.333250
31.300000	1	0.316250
31.316667	1	0.300500
31.333333	1	0.286750
31.350000	1	0.273750
31.366667	1	0.262750
31.383333	1	0.252500
31.400000	1	0.243375
31.416667	1	0.235250
31.433333	1	0.227875
31.450000	1	0.221500
31.466667	1	0.215500
31.483333	1	0.211375
31.500000	1	0.207375
31.516667	1	0.203875
31.533333	1	0.200500
31.550000	1	0.198250
31.566667	1	0.197000
31.583333	1	0.196500
31.600000	1	0.195375
31.616667	1	0.195625
31.633333	1	0.196000
31.650000	1	0.195750
31.666667	1	0.196500
31.683333	1	0.198500
31.700000	1	0.200625
31.716667	1	0.203625
31.733333	1	0.205875
31.750000	1	0.208125
31.766667	1	0.210375
31.783333	1	0.213375
31.800000	1	0.217000
31.816667	1	0.220000
31.833333	1	0.223000
31.850000	1	0.225500
31.866667	1	0.228250
31.883333	1	0.230500
31.900000	1	0.232875
31.916667	1	0.235125
31.933333	1	0.236875
31.950000	1	0.238000
31.966667	1	0.239125
31.983333	1	0.239625
32.000000	1	0.239500
32.016667	1	0.238000
32.033333	1	0.236750
32.050000	1	0.234500
32.066667	1	0.232125
32.083333	1	0.229375
32.100000	1	0.225750
32.116667	1	0.221500
32.133333	1	0.216625
32.150000	1	0.211375
32.166667	1	0.206625
32.183333	1	0.201375
32.200000	1	0.195000
32.216667	1	0.189125
32.233333	1	0.183125
32.250000	1	0.176500
32.266667	1	0.169625
32.283333	1	0.163375
32.300000	1	0.156625
32.316667	1	0.150125
32.333333	1	0.143250
32.350000	1	0.136750
32.366667	1	0.130250
32.383333	1	0.124750
32.400000	1	0.119625
32.416667	1	0.114875
32.433333	1	0.109250
32.450000	1	0.104125
32.466667	1	0.100000
32.483333	1	0.096000
32.500000	1	0.091500
32.516667	1	0.087750
32.533333	1	0.084125
32.550000	1	0.080875
32.566667	1	0.077500
32.583333	1	0.074500
32.600000	1	0.072000
32.616667	1	0.069000
32.633333	1	0.066125
32.650000	1	0.062625
32.666667	1	0.059500
32.683333	1	0.056750
32.700000	1	0.054125
32.716667	1	0.050750
32.733333	1	0.048125
32.750000	1	0.044750
32.766667	1	0.041125
32.783333	1	0.038125
32.800000	1	0.035125
32.816667	1	0.031625
32.833333	1	0.027500
32.850000	1	0.023750
32.866667	1	0.020875
32.883333	1	0.017750
32.900000	1	0.014000
32.916667	1	0.010375
32.933333	1	0.006875
32.950000	1	0.003875
32.966667	1	0.000750
32.983333	1	-0.002375
33.000000	1	-0.005875
33.016667	1	-0.008750
33.033333	1	-0.011875
33.050000	1	-0.015625
33.066667	1	-0.018750
33.083333	1	-0.021750
33.100000	1	-0.024000
33.116667	1	-0.026875
33.133333	1	-0.028750
33.150000	1	-0.030875
33.166667	1	-0.033000
33.183333	1	-0.035125
33.200000	1	-0.036875
33.216667	1	-0.038250
33.233333	1	-0.040750
33.250000	1	-0.042625
33.266667	1	-0.044250
33.283333	1	-0.045625
33.300000	1	-0.046625
33.316667	1	-0.047875
33.333333	1	-0.049125
33.350000	1	-0.050500
33.366667	1	-0.051625
33.383333	1	-0.052875
33.400000	1	-0.053625
33.416667	1	-0.054250
33.433333	1	-0.054875
33.450000	1	-0.056000
33.466667	1	-0.056875
33.483333	1	-0.057750
33.500000	1	-0.057500
33.516667	1	-0.058125
33.533333	1	-0.058000
33.550000	1	-0.058250
33.566667	1	-0.058250
33.583333	1	-0.058000
33.600000	1	-0.057500
33.616667	1	-0.057125
33.633333	1	-0.056625
33.650000	1	-0.056000
33.666667	1	-0.055625
33.683333	1	-0.055000
33.700000	1	-0.054375
33.716667	1	-0.053000
33.733333	1	-0.052625
33.750000	1	-0.051000
33.766667	1	-0.049875
33.783333	1	-0.049625
33.800000	1	-0.048625
33.816667	1	-0.047875
33.833333	1	-0.046500
33.850000	1	-0.044625
33.866667	1	-0.042750
33.883333	1	-0.041500
33.900000	1	-0.040250
33.916667	1	-0.039125
33.933333	1	-0.037500
33.950000	1	-0.036000
33.966667	1	-0.035000
33.983333	1	-0.033750
34.000000	1	-0.031875
34.016667	1	-0.030500
34.033333	1	-0.028625
34.050000	1	-0.027250
34.066667	1	-0.025625
34.083333	1	-0.024750
34.100000	1	-0.023250
34.116667	1	-0.022000
34.133333	1	-0.020750
34.150000	1	-0.019125
34.166667	1	-0.017125
34.183333	1	-0.015375
34.200000	1	-0.013875
34.216667	1	-0.012375
34.233333	1	-0.011375
34.250000	1	-0.010000
34.266667	1	-0.009750
34.283333	1	-0.008500
34.300000	1	-0.007125
34.316667	1	-0.005625
34.333333	1	-0.005000
34.350000	1	-0.004000
34.366667	1	-0.003375
34.383333	1	-0.002250
34.400000	1	-0.001125
34.416667	1	-0.000250
34.433333	1	0.000000
34.450000	1	0.000375
34.466667	1	0.000250
34.483333	1	0.001125
34.500000	1	0.001875
34.516667	1	0.001875
34.533333	1	0.002500
34.550000	1	0.003250
34.566667	1	0.003750
34.583333	1	0.004375
34.600000	1	0.004625
34.616667	1	0.005125
34.633333	1	0.005500
34.650000	1	0.006375
34.666667	1	0.007500
34.683333	1	0.008125
34.700000	1	0.008500
34.716667	1	0.009375
34.733333	1	0.010500
34.750000	1	0.011625
34.766667	1	0.013750
34.783333	1	0.014875
34.800000	1	0.016250
34.816667	1	0.017500
34.833333	1	0.019000
34.850000	1	0.020500
34.866667	1	0.022750
34.883333	1	0.025125
34.900000	1	0.028125
34.916667	1	0.030250
34.933333	1	0.032500
34.950000	1	0.035125
34.966667	1	0.038375
34.983333	1	0.040875
35.000000	1	0.043250
35.016667	1	0.046000
35.033333	1	0.048375
35.050000	1	0.051250
35.066667	1	0.054000
35.083333	1	0.057000
35.100000	1	0.060000
35.116667	1	0.063375
35.133333	1	0.067375
35.150000	1	0.069875
35.166667	1	0.072375
35.183333	1	0.074500
35.200000	1	0.077375
35.216667	1	0.080000
35.233333	1	0.082250
35.250000	1	0.084625
35.266667	1	0.086375
35.283333	1	0.088875
35.300000	1	0.091250
35.316667	1	0.092875
35.333333	1	0.094750
35.350000	1	0.096375
35.366667	1	0.097875
35.383333	1	0.098625
35.400000	1	0.098500
35.416667	1	0.098625
35.433333	1	0.099000
35.450000	1	0.099625
35.466667	1	0.100375
35.483333	1	0.100375
35.500000	1	0.101000
35.516667	1	0.100500
35.533333	1	0.100000
35.550000	1	0.099750
35.566667	1	0.098875
35.583333	1	0.097125
35.600000	1	0.096125
35.616667	1	0.094375
35.633333	1	0.093000
35.650000	1	0.091000
35.666667	1	0.089625
35.683333	1	0.088125
35.700000	1	0.086500
35.716667	1	0.084625
35.733333	1	0.083000
35.750000	1	0.081625
35.766667	1	0.079750
35.783333	1	0.077875
35.800000	1	0.075875
35.816667	1	0.074000
35.833333	1	0.072125
35.850000	1	0.070875
35.866667	1	0.068625
35.883333	1	0.066875
35.900000	1	0.065250
35.916667	1	0.063875
35.933333	1	0.062500
35.950000	1	0.061750
35.966667	1	0.060000
35.983333	1	0.058125
36.000000	1	0.056750
36.016667	1	0.055250
36.033333	1	0.053625
36.050000	1	0.052125
36.066667	1	0.050875
36.083333	1	0.049750
36.100000	1	0.048875
36.116667	1	0.047375
36.133333	1	0.046125
36.150000	1	0.045000
36.166667	1	0.043750
36.183333	1	0.043125
36.200000	1	0.042000
36.216667	1	0.040875
36.233333	1	0.039750
36.250000	1	0.038625
36.266667	1	0.037875
36.283333	1	0.037125
36.300000	1	0.036875
36.316667	1	0.036375
36.333333	1	0.035500
36.350000	1	0.034625
36.366667	1	0.033625
36.383333	1	0.033250
36.400000	1	0.032500
36.416667	1	0.032000
36.433333	1	0.031500
36.450000	1	0.030500
36.466667	1	0.029625
36.483333	1	0.029500
36.500000	1	0.028125
36.516667	1	0.027000
36.533333	1	0.026000
36.550000	1	0.024750
36.566667	1	0.023625
36.583333	1	0.022250
36.600000	1	0.021375
36.616667	1	0.020125
36.633333	1	0.018125
36.650000	1	0.015125
36.666667	1	0.013375
36.683333	1	0.011375
36.700000	1	0.008875
36.716667	1	0.007125
36.733333	1	0.004750
36.750000	1	0.001750
36.766667	1	-0.001500
36.783333	1	-0.004375
36.800000	1	-0.006375
36.816667	1	-0.009750
36.833333	1	-0.012500
36.850000	1	-0.016250
36.866667	1	-0.019375
36.883333	1	-0.022250
36.900000	1	-0.024750
36.916667	1	-0.028125
36.933333	1	-0.030875
36.950000	1	-0.034000
36.966667	1	-0.037125
36.983333	1	-0.040250
37.000000	1	-0.043375
37.016667	1	-0.046500
37.033333	1	-0.049250
37.050000	1	-0.051750
37.066667	1	-0.054000
37.083333	1	-0.056625
37.100000	1	-0.058875
37.116667	1	-0.060500
37.133333	1	-0.062750
37.150000	1	-0.065000
37.166667	1	-0.067000
37.183333	1	-0.068375
37.200000	1	-0.070500
37.216667	1	-0.072375
37.233333	1	-0.074375
37.250000	1	-0.075875
37.266667	1	-0.077125
37.283333	1	-0.078125
37.300000	1	-0.078625
37.316667	1	-0.080000
37.333333	1	-0.081125
37.350000	1	-0.082000
37.366667	1	-0.083125
37.383333	1	-0.084500
37.400000	1	-0.085125
37.416667	1	-0.085875
37.433333	1	-0.085875
37.450000	1	-0.086250
37.466667	1	-0.086375
37.483333	1	-0.087125
37.500000	1	-0.086750
37.516667	1	-0.087250
37.533333	1	-0.087250
37.550000	1	-0.087750
37.566667	1	-0.088125
37.583333	1	-0.088625
37.600000	1	-0.088625
37.616667	1	-0.088000
37.633333	1	-0.087125
37.650000	1	-0.086875
37.666667	1	-0.086375
37.683333	1	-0.086500
37.700000	1	-0.086000
37.716667	1	-0.085500
37.733333	1	-0.084875
37.750000	1	-0.083500
37.766667	1	-0.082875
37.783333	1	-0.082500
37.800000	1	-0.080875
37.816667	1	-0.080375
37.833333	1	-0.079750
37.850000	1	-0.078500
37.866667	1	-0.077250
37.883333	1	-0.076875
37.900000	1	-0.075750
37.916667	1	-0.074750
37.933333	1	-0.073375
37.950000	1	-0.073000
37.966667	1	-0.071875
37.983333	1	-0.070250
38.000000	1	-0.069000
38.016667	1	-0.068125
38.033333	1	-0.067250
38.050000	1	-0.065875
38.066667	1	-0.064500
38.083333	1	-0.063125
38.100000	1	-0.062750
38.116667	1	-0.061625
38.133333	1	-0.060875
38.150000	1	-0.060125
38.166667	1	-0.059125
38.183333	1	-0.058375
38.200000	1	-0.057250
38.216667	1	-0.057250
38.233333	1	-0.056500
38.250000	1	-0.056125
38.266667	1	-0.055250
38.283333	1	-0.054875
38.300000	1	-0.054500
38.316667	1	-0.054250
38.333333	1	-0.054375
38.350000	1	-0.055000
38.366667	1	-0.054875
38.383333	1	-0.054750
38.400000	1	-0.054750
38.416667	1	-0.054500
38.433333	1	-0.055000
38.450000	1	-0.054750
38.466667	1	-0.055250
38.483333	1	-0.055375
38.500000	1	-0.055750
38.516667	1	-0.056250
38.533333	1	-0.056875
38.550000	1	-0.057000
38.566667	1	-0.058125
38.583333	1	-0.058625
38.600000	1	-0.060125
38.616667	1	-0.060750
38.633333	1	-0.061625
38.650000	1	-0.062125
38.666667	1	-0.062500
38.683333	1	-0.063500
38.700000	1	-0.065000
38.716667	1	-0.065875
38.733333	1	-0.067625
38.750000	1	-0.068875
38.766667	1	-0.070125
38.783333	1	-0.071375
38.800000	1	-0.072375
38.816667	1	-0.072750
38.833333	1	-0.074125
38.850000	1	-0.075875
38.866667	1	-0.076625
38.883333	1	-0.078000
38.900000	1	-0.078875
38.916667	1	-0.080375
38.933333	1	-0.081750
38.950000	1	-0.083125
38.966667	1	-0.084375
38.983333	1	-0.085375
39.000000	1	-0.086500
39.016667	1	-0.087750
39.033333	1	-0.088750
39.050000	1	-0.089750
39.066667	1	-0.090625
39.083333	1	-0.091250
39.100000	1	-0.092750
39.116667	1	-0.093625
39.133333	1	-0.094750
39.150000	1	-0.095625
39.166667	1	-0.096750
39.183333	1	-0.097875
39.200000	1	-0.098500
39.216667	1	-0.098375
39.233333	1	-0.098875
39.250000	1	-0.099125
39.266667	1	-0.099625
39.283333	1	-0.099625
39.300000	1	-0.099500
39.316667	1	-0.099000
39.333333	1	-0.098875
39.350000	1	-0.099125
39.366667	1	-0.099125
39.383333	1	-0.098875
39.400000	1	-0.098625
39.416667	1	-0.097500
39.433333	1	-0.097000
39.450000	1	-0.096000
39.466667	1	-0.095625
39.483333	1	-0.094875
39.500000	1	-0.093000
39.516667	1	-0.091500
39.533333	1	-0.090375
39.550000	1	-0.088750
39.566667	1	-0.087250
39.583333	1	-0.086125
39.600000	1	-0.084375
39.616667	1	-0.083500
39.633333	1	-0.082125
39.650000	1	-0.079875
39.666667	1	-0.077500
39.683333	1	-0.075625
39.700000	1	-0.073875
39.716667	1	-0.072875
39.733333	1	-0.070750
39.750000	1	-0.069125
39.766667	1	-0.067000
39.783333	1	-0.065250
39.800000	1	-0.063250
39.816667	1	-0.061500
39.833333	1	-0.059500
39.850000	1	-0.057125
39.866667	1	-0.054625
39.883333	1	-0.053000
39.900000	1	-0.051875
39.916667	1	-0.050750
39.933333	1	-0.049125
39.950000	1	-0.047375
39.966667	1	-0.046125
39.983333	1	-0.044875
40.000000	1	-0.043375
