File Path	chrom://marshall/Chromeleon7/HPLC_Ultimate_3000/Users/markusar/20230616_CMO_FP13_14_15.seq/988.smp/RI_1.channel/RI_1.chm
Channel	RI_1

Injection Information:
Data Vault	Chromeleon7
Injection	FP14_8_s3
Injection Number	11
Position	BD4
Comment	
Processing Method	
Instrument Method	run_25B_method
Type	Unknown
Status	Finished
Injection Date	16.06.2023
Injection Time	23:18:31
Injection Volume (µl)	20.000
Dilution Factor	1.0000
Weight	1.0000

Chromatogram Data Information:
Time Min. (min)	0.000000
Time Max. (min)	40.000000
Data Points	2401
Detector	RI
Generating Data System	Chromeleon 7.2.5.9507
Exporting Data System	Chromeleon 7.2.5.0
Operator	Instrument Controller
Signal Quantity	Refractive 
Signal Unit	µRIU
Signal Min.	-0.414375
Signal Max.	36.286750
Channel	RI_1
Driver Name	RID520Driver.dll
Channel Type	Evaluation
Min. Step (s)	1
Max. Step (s)	1
Average Step (s)	1

Signal Parameter Information:
Signal Info	

Chromatogram Data:
Time (min)	Step (s)	Value (µRIU)
0.000000	n.a.	-0.010750
0.016667	1	-0.011250
0.033333	1	-0.012125
0.050000	1	-0.012375
0.066667	1	-0.013125
0.083333	1	-0.013250
0.100000	1	-0.013625
0.116667	1	-0.014500
0.133333	1	-0.014875
0.150000	1	-0.016000
0.166667	1	-0.016500
0.183333	1	-0.017375
0.200000	1	-0.017500
0.216667	1	-0.017750
0.233333	1	-0.018125
0.250000	1	-0.018750
0.266667	1	-0.018875
0.283333	1	-0.019625
0.300000	1	-0.020750
0.316667	1	-0.020125
0.333333	1	-0.020125
0.350000	1	-0.020750
0.366667	1	-0.021375
0.383333	1	-0.021375
0.400000	1	-0.021500
0.416667	1	-0.022500
0.433333	1	-0.024125
0.450000	1	-0.027125
0.466667	1	-0.028750
0.483333	1	-0.029875
0.500000	1	-0.029375
0.516667	1	-0.028125
0.533333	1	-0.025500
0.550000	1	-0.023000
0.566667	1	-0.020750
0.583333	1	-0.019000
0.600000	1	-0.016750
0.616667	1	-0.015250
0.633333	1	-0.013875
0.650000	1	-0.014750
0.666667	1	-0.016500
0.683333	1	-0.018500
0.700000	1	-0.021000
0.716667	1	-0.023250
0.733333	1	-0.024750
0.750000	1	-0.026750
0.766667	1	-0.027375
0.783333	1	-0.028375
0.800000	1	-0.030500
0.816667	1	-0.032375
0.833333	1	-0.033500
0.850000	1	-0.034375
0.866667	1	-0.036000
0.883333	1	-0.036625
0.900000	1	-0.037000
0.916667	1	-0.037500
0.933333	1	-0.038250
0.950000	1	-0.038375
0.966667	1	-0.039125
0.983333	1	-0.039625
1.000000	1	-0.040125
1.016667	1	-0.040750
1.033333	1	-0.041250
1.050000	1	-0.041375
1.066667	1	-0.041000
1.083333	1	-0.041375
1.100000	1	-0.042125
1.116667	1	-0.042875
1.133333	1	-0.042500
1.150000	1	-0.042625
1.166667	1	-0.042875
1.183333	1	-0.043750
1.200000	1	-0.044500
1.216667	1	-0.044375
1.233333	1	-0.044000
1.250000	1	-0.044625
1.266667	1	-0.044750
1.283333	1	-0.045250
1.300000	1	-0.045000
1.316667	1	-0.045125
1.333333	1	-0.045000
1.350000	1	-0.045500
1.366667	1	-0.045500
1.383333	1	-0.045500
1.400000	1	-0.045000
1.416667	1	-0.045625
1.433333	1	-0.045500
1.450000	1	-0.045750
1.466667	1	-0.046000
1.483333	1	-0.046125
1.500000	1	-0.046000
1.516667	1	-0.045625
1.533333	1	-0.045500
1.550000	1	-0.045500
1.566667	1	-0.045125
1.583333	1	-0.045000
1.600000	1	-0.045125
1.616667	1	-0.044625
1.633333	1	-0.044500
1.650000	1	-0.044375
1.666667	1	-0.044000
1.683333	1	-0.043500
1.700000	1	-0.043250
1.716667	1	-0.043375
1.733333	1	-0.042750
1.750000	1	-0.042125
1.766667	1	-0.041500
1.783333	1	-0.040625
1.800000	1	-0.040500
1.816667	1	-0.040250
1.833333	1	-0.040250
1.850000	1	-0.040250
1.866667	1	-0.039250
1.883333	1	-0.039375
1.900000	1	-0.039500
1.916667	1	-0.038875
1.933333	1	-0.038625
1.950000	1	-0.038500
1.966667	1	-0.038375
1.983333	1	-0.038625
2.000000	1	-0.037875
2.016667	1	-0.038250
2.033333	1	-0.038250
2.050000	1	-0.038250
2.066667	1	-0.038250
2.083333	1	-0.038625
2.100000	1	-0.039125
2.116667	1	-0.039125
2.133333	1	-0.038875
2.150000	1	-0.039500
2.166667	1	-0.039500
2.183333	1	-0.039375
2.200000	1	-0.039500
2.216667	1	-0.039875
2.233333	1	-0.040375
2.250000	1	-0.041000
2.266667	1	-0.041375
2.283333	1	-0.041625
2.300000	1	-0.042250
2.316667	1	-0.042125
2.333333	1	-0.042000
2.350000	1	-0.042250
2.366667	1	-0.043000
2.383333	1	-0.043125
2.400000	1	-0.043000
2.416667	1	-0.043250
2.433333	1	-0.043375
2.450000	1	-0.043375
2.466667	1	-0.043750
2.483333	1	-0.044000
2.500000	1	-0.044375
2.516667	1	-0.044500
2.533333	1	-0.044375
2.550000	1	-0.044750
2.566667	1	-0.044750
2.583333	1	-0.045375
2.600000	1	-0.045625
2.616667	1	-0.045500
2.633333	1	-0.045375
2.650000	1	-0.045500
2.666667	1	-0.045375
2.683333	1	-0.044500
2.700000	1	-0.044125
2.716667	1	-0.044250
2.733333	1	-0.044000
2.750000	1	-0.043625
2.766667	1	-0.043250
2.783333	1	-0.042875
2.800000	1	-0.042750
2.816667	1	-0.042375
2.833333	1	-0.042375
2.850000	1	-0.042250
2.866667	1	-0.041625
2.883333	1	-0.040375
2.900000	1	-0.040125
2.916667	1	-0.039750
2.933333	1	-0.038875
2.950000	1	-0.038250
2.966667	1	-0.037875
2.983333	1	-0.037500
3.000000	1	-0.037125
3.016667	1	-0.036750
3.033333	1	-0.036125
3.050000	1	-0.035875
3.066667	1	-0.035625
3.083333	1	-0.034500
3.100000	1	-0.033500
3.116667	1	-0.033250
3.133333	1	-0.032500
3.150000	1	-0.032125
3.166667	1	-0.032125
3.183333	1	-0.031625
3.200000	1	-0.030875
3.216667	1	-0.030000
3.233333	1	-0.030375
3.250000	1	-0.029875
3.266667	1	-0.028250
3.283333	1	-0.027875
3.300000	1	-0.027000
3.316667	1	-0.027000
3.333333	1	-0.027125
3.350000	1	-0.027125
3.366667	1	-0.026875
3.383333	1	-0.027125
3.400000	1	-0.026125
3.416667	1	-0.025750
3.433333	1	-0.025250
3.450000	1	-0.024750
3.466667	1	-0.024625
3.483333	1	-0.024750
3.500000	1	-0.024250
3.516667	1	-0.024000
3.533333	1	-0.023625
3.550000	1	-0.023625
3.566667	1	-0.023750
3.583333	1	-0.024000
3.600000	1	-0.023750
3.616667	1	-0.023375
3.633333	1	-0.023500
3.650000	1	-0.023625
3.666667	1	-0.023250
3.683333	1	-0.023375
3.700000	1	-0.023375
3.716667	1	-0.023125
3.733333	1	-0.023125
3.750000	1	-0.023250
3.766667	1	-0.023125
3.783333	1	-0.023000
3.800000	1	-0.023500
3.816667	1	-0.023625
3.833333	1	-0.024000
3.850000	1	-0.024625
3.866667	1	-0.024750
3.883333	1	-0.025125
3.900000	1	-0.025250
3.916667	1	-0.026250
3.933333	1	-0.026500
3.950000	1	-0.027000
3.966667	1	-0.027875
3.983333	1	-0.028500
4.000000	1	-0.029125
4.016667	1	-0.029625
4.033333	1	-0.030125
4.050000	1	-0.031125
4.066667	1	-0.031625
4.083333	1	-0.032250
4.100000	1	-0.033750
4.116667	1	-0.034500
4.133333	1	-0.035125
4.150000	1	-0.036250
4.166667	1	-0.037000
4.183333	1	-0.037375
4.200000	1	-0.038375
4.216667	1	-0.039500
4.233333	1	-0.040125
4.250000	1	-0.040875
4.266667	1	-0.041875
4.283333	1	-0.041875
4.300000	1	-0.042125
4.316667	1	-0.042625
4.333333	1	-0.043750
4.350000	1	-0.044500
4.366667	1	-0.045000
4.383333	1	-0.045875
4.400000	1	-0.046125
4.416667	1	-0.046125
4.433333	1	-0.045750
4.450000	1	-0.045875
4.466667	1	-0.046375
4.483333	1	-0.046875
4.500000	1	-0.047375
4.516667	1	-0.047250
4.533333	1	-0.047000
4.550000	1	-0.046750
4.566667	1	-0.046375
4.583333	1	-0.046500
4.600000	1	-0.047000
4.616667	1	-0.046625
4.633333	1	-0.047000
4.650000	1	-0.046375
4.666667	1	-0.046375
4.683333	1	-0.046250
4.700000	1	-0.046000
4.716667	1	-0.046000
4.733333	1	-0.045625
4.750000	1	-0.045000
4.766667	1	-0.044375
4.783333	1	-0.044625
4.800000	1	-0.044375
4.816667	1	-0.043875
4.833333	1	-0.043500
4.850000	1	-0.043250
4.866667	1	-0.042625
4.883333	1	-0.041750
4.900000	1	-0.041625
4.916667	1	-0.041500
4.933333	1	-0.041125
4.950000	1	-0.040625
4.966667	1	-0.040625
4.983333	1	-0.040375
5.000000	1	-0.040000
5.016667	1	-0.039250
5.033333	1	-0.038875
5.050000	1	-0.038375
5.066667	1	-0.037375
5.083333	1	-0.036875
5.100000	1	-0.036125
5.116667	1	-0.034750
5.133333	1	-0.034250
5.150000	1	-0.033750
5.166667	1	-0.033375
5.183333	1	-0.032250
5.200000	1	-0.031125
5.216667	1	-0.030250
5.233333	1	-0.028625
5.250000	1	-0.027375
5.266667	1	-0.026500
5.283333	1	-0.024625
5.300000	1	-0.023500
5.316667	1	-0.021625
5.333333	1	-0.020125
5.350000	1	-0.018500
5.366667	1	-0.017000
5.383333	1	-0.015500
5.400000	1	-0.012750
5.416667	1	-0.010625
5.433333	1	-0.008625
5.450000	1	-0.007125
5.466667	1	-0.004625
5.483333	1	-0.002375
5.500000	1	0.000000
5.516667	1	0.001500
5.533333	1	0.003750
5.550000	1	0.005250
5.566667	1	0.006750
5.583333	1	0.008875
5.600000	1	0.011000
5.616667	1	0.013375
5.633333	1	0.014625
5.650000	1	0.016625
5.666667	1	0.018500
5.683333	1	0.020125
5.700000	1	0.021750
5.716667	1	0.023250
5.733333	1	0.024375
5.750000	1	0.025500
5.766667	1	0.027125
5.783333	1	0.027875
5.800000	1	0.028875
5.816667	1	0.030000
5.833333	1	0.031250
5.850000	1	0.031750
5.866667	1	0.031875
5.883333	1	0.032375
5.900000	1	0.033625
5.916667	1	0.034375
5.933333	1	0.035000
5.950000	1	0.035125
5.966667	1	0.035125
5.983333	1	0.035000
6.000000	1	0.035125
6.016667	1	0.035750
6.033333	1	0.035875
6.050000	1	0.036250
6.066667	1	0.036250
6.083333	1	0.036375
6.100000	1	0.036500
6.116667	1	0.037000
6.133333	1	0.036875
6.150000	1	0.037375
6.166667	1	0.038250
6.183333	1	0.038250
6.200000	1	0.038750
6.216667	1	0.038625
6.233333	1	0.039750
6.250000	1	0.040250
6.266667	1	0.041000
6.283333	1	0.041250
6.300000	1	0.041250
6.316667	1	0.042250
6.333333	1	0.043375
6.350000	1	0.043375
6.366667	1	0.044250
6.383333	1	0.045375
6.400000	1	0.045375
6.416667	1	0.046250
6.433333	1	0.047500
6.450000	1	0.048000
6.466667	1	0.048875
6.483333	1	0.050000
6.500000	1	0.051125
6.516667	1	0.052375
6.533333	1	0.052750
6.550000	1	0.054000
6.566667	1	0.055250
6.583333	1	0.057000
6.600000	1	0.058500
6.616667	1	0.060125
6.633333	1	0.061125
6.650000	1	0.062875
6.666667	1	0.065000
6.683333	1	0.066375
6.700000	1	0.068000
6.716667	1	0.069250
6.733333	1	0.071625
6.750000	1	0.073375
6.766667	1	0.075000
6.783333	1	0.076875
6.800000	1	0.078250
6.816667	1	0.080125
6.833333	1	0.081875
6.850000	1	0.083875
6.866667	1	0.086250
6.883333	1	0.088000
6.900000	1	0.089750
6.916667	1	0.091500
6.933333	1	0.093500
6.950000	1	0.095125
6.966667	1	0.096875
6.983333	1	0.098875
7.000000	1	0.100125
7.016667	1	0.101625
7.033333	1	0.102750
7.050000	1	0.103750
7.066667	1	0.104000
7.083333	1	0.104750
7.100000	1	0.105375
7.116667	1	0.106000
7.133333	1	0.106500
7.150000	1	0.106375
7.166667	1	0.106375
7.183333	1	0.105750
7.200000	1	0.105250
7.216667	1	0.103750
7.233333	1	0.103125
7.250000	1	0.102250
7.266667	1	0.101000
7.283333	1	0.099250
7.300000	1	0.097750
7.316667	1	0.096125
7.333333	1	0.094000
7.350000	1	0.092250
7.366667	1	0.090250
7.383333	1	0.088125
7.400000	1	0.085750
7.416667	1	0.083250
7.433333	1	0.081000
7.450000	1	0.078375
7.466667	1	0.075250
7.483333	1	0.072125
7.500000	1	0.069125
7.516667	1	0.066000
7.533333	1	0.063000
7.550000	1	0.059750
7.566667	1	0.056625
7.583333	1	0.053375
7.600000	1	0.050500
7.616667	1	0.047750
7.633333	1	0.045125
7.650000	1	0.042125
7.666667	1	0.038875
7.683333	1	0.035750
7.700000	1	0.032000
7.716667	1	0.028500
7.733333	1	0.025875
7.750000	1	0.023250
7.766667	1	0.020750
7.783333	1	0.018500
7.800000	1	0.016375
7.816667	1	0.014000
7.833333	1	0.011750
7.850000	1	0.009250
7.866667	1	0.007250
7.883333	1	0.005750
7.900000	1	0.004375
7.916667	1	0.002625
7.933333	1	0.001250
7.950000	1	-0.000125
7.966667	1	-0.001375
7.983333	1	-0.002250
8.000000	1	-0.004000
8.016667	1	-0.005375
8.033333	1	-0.006500
8.050000	1	-0.007125
8.066667	1	-0.007875
8.083333	1	-0.008375
8.100000	1	-0.009125
8.116667	1	-0.009875
8.133333	1	-0.010875
8.150000	1	-0.010875
8.166667	1	-0.011625
8.183333	1	-0.012625
8.200000	1	-0.012625
8.216667	1	-0.012500
8.233333	1	-0.012750
8.250000	1	-0.012000
8.266667	1	-0.012125
8.283333	1	-0.012625
8.300000	1	-0.012375
8.316667	1	-0.011875
8.333333	1	-0.011250
8.350000	1	-0.010625
8.366667	1	-0.010500
8.383333	1	-0.010375
8.400000	1	-0.010750
8.416667	1	-0.010500
8.433333	1	-0.009625
8.450000	1	-0.009125
8.466667	1	-0.009000
8.483333	1	-0.008250
8.500000	1	-0.007000
8.516667	1	-0.006500
8.533333	1	-0.005500
8.550000	1	-0.004250
8.566667	1	-0.003500
8.583333	1	-0.002625
8.600000	1	-0.002250
8.616667	1	-0.001250
8.633333	1	0.000125
8.650000	1	0.001125
8.666667	1	0.001875
8.683333	1	0.003250
8.700000	1	0.004625
8.716667	1	0.005625
8.733333	1	0.006125
8.750000	1	0.007250
8.766667	1	0.008625
8.783333	1	0.010125
8.800000	1	0.011125
8.816667	1	0.012625
8.833333	1	0.013500
8.850000	1	0.014375
8.866667	1	0.015875
8.883333	1	0.016750
8.900000	1	0.018125
8.916667	1	0.019500
8.933333	1	0.020875
8.950000	1	0.021750
8.966667	1	0.023625
8.983333	1	0.024375
9.000000	1	0.025375
9.016667	1	0.026750
9.033333	1	0.028250
9.050000	1	0.029375
9.066667	1	0.031000
9.083333	1	0.032125
9.100000	1	0.033625
9.116667	1	0.034125
9.133333	1	0.035500
9.150000	1	0.036500
9.166667	1	0.037750
9.183333	1	0.039625
9.200000	1	0.040500
9.216667	1	0.042375
9.233333	1	0.044375
9.250000	1	0.046125
9.266667	1	0.047125
9.283333	1	0.048625
9.300000	1	0.050000
9.316667	1	0.051250
9.333333	1	0.053125
9.350000	1	0.054875
9.366667	1	0.056500
9.383333	1	0.058375
9.400000	1	0.060375
9.416667	1	0.062625
9.433333	1	0.064750
9.450000	1	0.067625
9.466667	1	0.070250
9.483333	1	0.073500
9.500000	1	0.076750
9.516667	1	0.080500
9.533333	1	0.085000
9.550000	1	0.090375
9.566667	1	0.096375
9.583333	1	0.102375
9.600000	1	0.109750
9.616667	1	0.117125
9.633333	1	0.124875
9.650000	1	0.132750
9.666667	1	0.140500
9.683333	1	0.147500
9.700000	1	0.152750
9.716667	1	0.156625
9.733333	1	0.158875
9.750000	1	0.159125
9.766667	1	0.157750
9.783333	1	0.155125
9.800000	1	0.152375
9.816667	1	0.150625
9.833333	1	0.155375
9.850000	1	0.170125
9.866667	1	0.200625
9.883333	1	0.253125
9.900000	1	0.335375
9.916667	1	0.455500
9.933333	1	0.625875
9.950000	1	0.858625
9.966667	1	1.170250
9.983333	1	1.580000
10.000000	1	2.110500
10.016667	1	2.786000
10.033333	1	3.627875
10.050000	1	4.654750
10.066667	1	5.882625
10.083333	1	7.317375
10.100000	1	8.959000
10.116667	1	10.796500
10.133333	1	12.807875
10.150000	1	14.959500
10.166667	1	17.206875
10.183333	1	19.494750
10.200000	1	21.757375
10.216667	1	23.924125
10.233333	1	25.918125
10.250000	1	27.663750
10.266667	1	29.093625
10.283333	1	30.150250
10.300000	1	30.796250
10.316667	1	31.016875
10.333333	1	30.824625
10.350000	1	30.259250
10.366667	1	29.380875
10.383333	1	28.264125
10.400000	1	26.984500
10.416667	1	25.613625
10.433333	1	24.211250
10.450000	1	22.822875
10.466667	1	21.477625
10.483333	1	20.191375
10.500000	1	18.970375
10.516667	1	17.815500
10.533333	1	16.722000
10.550000	1	15.686000
10.566667	1	14.700375
10.583333	1	13.760375
10.600000	1	12.861875
10.616667	1	12.000875
10.633333	1	11.175375
10.650000	1	10.384625
10.666667	1	9.628875
10.683333	1	8.908625
10.700000	1	8.225125
10.716667	1	7.580375
10.733333	1	6.976250
10.750000	1	6.414125
10.766667	1	5.896000
10.783333	1	5.422750
10.800000	1	4.992625
10.816667	1	4.605625
10.833333	1	4.259250
10.850000	1	3.950375
10.866667	1	3.676125
10.883333	1	3.434000
10.900000	1	3.219875
10.916667	1	3.030750
10.933333	1	2.863250
10.950000	1	2.714500
10.966667	1	2.583625
10.983333	1	2.466250
11.000000	1	2.360625
11.016667	1	2.265875
11.033333	1	2.180750
11.050000	1	2.103625
11.066667	1	2.033750
11.083333	1	1.969375
11.100000	1	1.910375
11.116667	1	1.855250
11.133333	1	1.804250
11.150000	1	1.756000
11.166667	1	1.711250
11.183333	1	1.668625
11.200000	1	1.629125
11.216667	1	1.592250
11.233333	1	1.556250
11.250000	1	1.522375
11.266667	1	1.489500
11.283333	1	1.458375
11.300000	1	1.428750
11.316667	1	1.400500
11.333333	1	1.373125
11.350000	1	1.346875
11.366667	1	1.321125
11.383333	1	1.297125
11.400000	1	1.273875
11.416667	1	1.251250
11.433333	1	1.229125
11.450000	1	1.208875
11.466667	1	1.189500
11.483333	1	1.170750
11.500000	1	1.153625
11.516667	1	1.137625
11.533333	1	1.122250
11.550000	1	1.108500
11.566667	1	1.095125
11.583333	1	1.082750
11.600000	1	1.071375
11.616667	1	1.060625
11.633333	1	1.050500
11.650000	1	1.041375
11.666667	1	1.033125
11.683333	1	1.024875
11.700000	1	1.018250
11.716667	1	1.010625
11.733333	1	1.004500
11.750000	1	0.998625
11.766667	1	0.993250
11.783333	1	0.988000
11.800000	1	0.982625
11.816667	1	0.978250
11.833333	1	0.974250
11.850000	1	0.971250
11.866667	1	0.968875
11.883333	1	0.966875
11.900000	1	0.966750
11.916667	1	0.967625
11.933333	1	0.970000
11.950000	1	0.974000
11.966667	1	0.980125
11.983333	1	0.988875
12.000000	1	0.999000
12.016667	1	1.011625
12.033333	1	1.026500
12.050000	1	1.044750
12.066667	1	1.066875
12.083333	1	1.092750
12.100000	1	1.122625
12.116667	1	1.157625
12.133333	1	1.197250
12.150000	1	1.242500
12.166667	1	1.294500
12.183333	1	1.355250
12.200000	1	1.425000
12.216667	1	1.504375
12.233333	1	1.596125
12.250000	1	1.701250
12.266667	1	1.821250
12.283333	1	1.957375
12.300000	1	2.111625
12.316667	1	2.285500
12.333333	1	2.480250
12.350000	1	2.696625
12.366667	1	2.937000
12.383333	1	3.201875
12.400000	1	3.493000
12.416667	1	3.809750
12.433333	1	4.150625
12.450000	1	4.514875
12.466667	1	4.899500
12.483333	1	5.299750
12.500000	1	5.709875
12.516667	1	6.123500
12.533333	1	6.533625
12.550000	1	6.931125
12.566667	1	7.310250
12.583333	1	7.665000
12.600000	1	7.987875
12.616667	1	8.276875
12.633333	1	8.526875
12.650000	1	8.738000
12.666667	1	8.909750
12.683333	1	9.042875
12.700000	1	9.139625
12.716667	1	9.202125
12.733333	1	9.233250
12.750000	1	9.237250
12.766667	1	9.216375
12.783333	1	9.175500
12.800000	1	9.117000
12.816667	1	9.044750
12.833333	1	8.961250
12.850000	1	8.868375
12.866667	1	8.768875
12.883333	1	8.662875
12.900000	1	8.551875
12.916667	1	8.436250
12.933333	1	8.316500
12.950000	1	8.192000
12.966667	1	8.063625
12.983333	1	7.929375
13.000000	1	7.790250
13.016667	1	7.644500
13.033333	1	7.492000
13.050000	1	7.331375
13.066667	1	7.162875
13.083333	1	6.984250
13.100000	1	6.793750
13.116667	1	6.591000
13.133333	1	6.375375
13.150000	1	6.145500
13.166667	1	5.899625
13.183333	1	5.636375
13.200000	1	5.355250
13.216667	1	5.054500
13.233333	1	4.733000
13.250000	1	4.391375
13.266667	1	4.032500
13.283333	1	3.662375
13.300000	1	3.295250
13.316667	1	2.946500
13.333333	1	2.630375
13.350000	1	2.355750
13.366667	1	2.124500
13.383333	1	1.933375
13.400000	1	1.776750
13.416667	1	1.649000
13.433333	1	1.543500
13.450000	1	1.456375
13.466667	1	1.383250
13.483333	1	1.321375
13.500000	1	1.268375
13.516667	1	1.222125
13.533333	1	1.182125
13.550000	1	1.146500
13.566667	1	1.114875
13.583333	1	1.086250
13.600000	1	1.061375
13.616667	1	1.039500
13.633333	1	1.019375
13.650000	1	1.002125
13.666667	1	0.986625
13.683333	1	0.972125
13.700000	1	0.958250
13.716667	1	0.945250
13.733333	1	0.933750
13.750000	1	0.922125
13.766667	1	0.910875
13.783333	1	0.899500
13.800000	1	0.888125
13.816667	1	0.875625
13.833333	1	0.863000
13.850000	1	0.850500
13.866667	1	0.837375
13.883333	1	0.825125
13.900000	1	0.812375
13.916667	1	0.800250
13.933333	1	0.788375
13.950000	1	0.776250
13.966667	1	0.765000
13.983333	1	0.753750
14.000000	1	0.743625
14.016667	1	0.733875
14.033333	1	0.724750
14.050000	1	0.717375
14.066667	1	0.711125
14.083333	1	0.707500
14.100000	1	0.705375
14.116667	1	0.705500
14.133333	1	0.707875
14.150000	1	0.713375
14.166667	1	0.721625
14.183333	1	0.734250
14.200000	1	0.750500
14.216667	1	0.770750
14.233333	1	0.796375
14.250000	1	0.827750
14.266667	1	0.865500
14.283333	1	0.909750
14.300000	1	0.961875
14.316667	1	1.021875
14.333333	1	1.091750
14.350000	1	1.172000
14.366667	1	1.263625
14.383333	1	1.366000
14.400000	1	1.481375
14.416667	1	1.611375
14.433333	1	1.756250
14.450000	1	1.916875
14.466667	1	2.095125
14.483333	1	2.291875
14.500000	1	2.508875
14.516667	1	2.747500
14.533333	1	3.008625
14.550000	1	3.295875
14.566667	1	3.612125
14.583333	1	3.960625
14.600000	1	4.347125
14.616667	1	4.777000
14.633333	1	5.260375
14.650000	1	5.807750
14.666667	1	6.431500
14.683333	1	7.147875
14.700000	1	7.969500
14.716667	1	8.913625
14.733333	1	9.994375
14.750000	1	11.227125
14.766667	1	12.617375
14.783333	1	14.165875
14.800000	1	15.866500
14.816667	1	17.706125
14.833333	1	19.660000
14.850000	1	21.694125
14.866667	1	23.765375
14.883333	1	25.825625
14.900000	1	27.821875
14.916667	1	29.699375
14.933333	1	31.410000
14.950000	1	32.908375
14.966667	1	34.157125
14.983333	1	35.130375
15.000000	1	35.811875
15.016667	1	36.195375
15.033333	1	36.286750
15.050000	1	36.097250
15.066667	1	35.649250
15.083333	1	34.966125
15.100000	1	34.078750
15.116667	1	33.019500
15.133333	1	31.819875
15.150000	1	30.513500
15.166667	1	29.130750
15.183333	1	27.699625
15.200000	1	26.242125
15.216667	1	24.778625
15.233333	1	23.325500
15.250000	1	21.897375
15.266667	1	20.505375
15.283333	1	19.158500
15.300000	1	17.863625
15.316667	1	16.624875
15.333333	1	15.445625
15.350000	1	14.328500
15.366667	1	13.274000
15.383333	1	12.281750
15.400000	1	11.351125
15.416667	1	10.480125
15.433333	1	9.666875
15.450000	1	8.910625
15.466667	1	8.209500
15.483333	1	7.562875
15.500000	1	6.968125
15.516667	1	6.423875
15.533333	1	5.927875
15.550000	1	5.477750
15.566667	1	5.071750
15.583333	1	4.706750
15.600000	1	4.379000
15.616667	1	4.086000
15.633333	1	3.824125
15.650000	1	3.590250
15.666667	1	3.381625
15.683333	1	3.195500
15.700000	1	3.029250
15.716667	1	2.879875
15.733333	1	2.745750
15.750000	1	2.623625
15.766667	1	2.513625
15.783333	1	2.412750
15.800000	1	2.320500
15.816667	1	2.236125
15.833333	1	2.158125
15.850000	1	2.085875
15.866667	1	2.018750
15.883333	1	1.954875
15.900000	1	1.895750
15.916667	1	1.839625
15.933333	1	1.786625
15.950000	1	1.736375
15.966667	1	1.689500
15.983333	1	1.645375
16.000000	1	1.602750
16.016667	1	1.562125
16.033333	1	1.523875
16.050000	1	1.487875
16.066667	1	1.453750
16.083333	1	1.420875
16.100000	1	1.391000
16.116667	1	1.362250
16.133333	1	1.335625
16.150000	1	1.310000
16.166667	1	1.286000
16.183333	1	1.263750
16.200000	1	1.242375
16.216667	1	1.222500
16.233333	1	1.203875
16.250000	1	1.186250
16.266667	1	1.169250
16.283333	1	1.153750
16.300000	1	1.138750
16.316667	1	1.125125
16.333333	1	1.111500
16.350000	1	1.098875
16.366667	1	1.086125
16.383333	1	1.073875
16.400000	1	1.062375
16.416667	1	1.051250
16.433333	1	1.040875
16.450000	1	1.030625
16.466667	1	1.021875
16.483333	1	1.012875
16.500000	1	1.004625
16.516667	1	0.996250
16.533333	1	0.989375
16.550000	1	0.982750
16.566667	1	0.976500
16.583333	1	0.970000
16.600000	1	0.964625
16.616667	1	0.959875
16.633333	1	0.954875
16.650000	1	0.950875
16.666667	1	0.946875
16.683333	1	0.943625
16.700000	1	0.940250
16.716667	1	0.937500
16.733333	1	0.935125
16.750000	1	0.933250
16.766667	1	0.931500
16.783333	1	0.929750
16.800000	1	0.928750
16.816667	1	0.928000
16.833333	1	0.927250
16.850000	1	0.926625
16.866667	1	0.926500
16.883333	1	0.925875
16.900000	1	0.924750
16.916667	1	0.923625
16.933333	1	0.922000
16.950000	1	0.920625
16.966667	1	0.919000
16.983333	1	0.917875
17.000000	1	0.916375
17.016667	1	0.915500
17.033333	1	0.913750
17.050000	1	0.911625
17.066667	1	0.910625
17.083333	1	0.910000
17.100000	1	0.909125
17.116667	1	0.906750
17.133333	1	0.904750
17.150000	1	0.903000
17.166667	1	0.900750
17.183333	1	0.897750
17.200000	1	0.894625
17.216667	1	0.891250
17.233333	1	0.887125
17.250000	1	0.882000
17.266667	1	0.877125
17.283333	1	0.871625
17.300000	1	0.865625
17.316667	1	0.859750
17.333333	1	0.852375
17.350000	1	0.846625
17.366667	1	0.839375
17.383333	1	0.832750
17.400000	1	0.826000
17.416667	1	0.820000
17.433333	1	0.814000
17.450000	1	0.809000
17.466667	1	0.803375
17.483333	1	0.798500
17.500000	1	0.794000
17.516667	1	0.790250
17.533333	1	0.786875
17.550000	1	0.784750
17.566667	1	0.783250
17.583333	1	0.781875
17.600000	1	0.782375
17.616667	1	0.782500
17.633333	1	0.783500
17.650000	1	0.785250
17.666667	1	0.788250
17.683333	1	0.791750
17.700000	1	0.795625
17.716667	1	0.801000
17.733333	1	0.806625
17.750000	1	0.812625
17.766667	1	0.819375
17.783333	1	0.826500
17.800000	1	0.834125
17.816667	1	0.842000
17.833333	1	0.849750
17.850000	1	0.857875
17.866667	1	0.865625
17.883333	1	0.872750
17.900000	1	0.880625
17.916667	1	0.887000
17.933333	1	0.892375
17.950000	1	0.896625
17.966667	1	0.899750
17.983333	1	0.901750
18.000000	1	0.903000
18.016667	1	0.903125
18.033333	1	0.902500
18.050000	1	0.900375
18.066667	1	0.896500
18.083333	1	0.891250
18.100000	1	0.885250
18.116667	1	0.878750
18.133333	1	0.870750
18.150000	1	0.862625
18.166667	1	0.853750
18.183333	1	0.844125
18.200000	1	0.833375
18.216667	1	0.821875
18.233333	1	0.811125
18.250000	1	0.799875
18.266667	1	0.789125
18.283333	1	0.777125
18.300000	1	0.766000
18.316667	1	0.754750
18.333333	1	0.743375
18.350000	1	0.732750
18.366667	1	0.722500
18.383333	1	0.713125
18.400000	1	0.704125
18.416667	1	0.695375
18.433333	1	0.686875
18.450000	1	0.678750
18.466667	1	0.671375
18.483333	1	0.664750
18.500000	1	0.658125
18.516667	1	0.652500
18.533333	1	0.647125
18.550000	1	0.642500
18.566667	1	0.638750
18.583333	1	0.635250
18.600000	1	0.631625
18.616667	1	0.628125
18.633333	1	0.626750
18.650000	1	0.625000
18.666667	1	0.624125
18.683333	1	0.624125
18.700000	1	0.624375
18.716667	1	0.625125
18.733333	1	0.626125
18.750000	1	0.627875
18.766667	1	0.630375
18.783333	1	0.633500
18.800000	1	0.637000
18.816667	1	0.640750
18.833333	1	0.645250
18.850000	1	0.650375
18.866667	1	0.655875
18.883333	1	0.662125
18.900000	1	0.669250
18.916667	1	0.675875
18.933333	1	0.683750
18.950000	1	0.692500
18.966667	1	0.702500
18.983333	1	0.713375
19.000000	1	0.725250
19.016667	1	0.738250
19.033333	1	0.752625
19.050000	1	0.769375
19.066667	1	0.786875
19.083333	1	0.806375
19.100000	1	0.827750
19.116667	1	0.850625
19.133333	1	0.875125
19.150000	1	0.900375
19.166667	1	0.927250
19.183333	1	0.955750
19.200000	1	0.984125
19.216667	1	1.012750
19.233333	1	1.041250
19.250000	1	1.068875
19.266667	1	1.095125
19.283333	1	1.120500
19.300000	1	1.143500
19.316667	1	1.163375
19.333333	1	1.179875
19.350000	1	1.193875
19.366667	1	1.204750
19.383333	1	1.212375
19.400000	1	1.216000
19.416667	1	1.215625
19.433333	1	1.211250
19.450000	1	1.204500
19.466667	1	1.194375
19.483333	1	1.181625
19.500000	1	1.165750
19.516667	1	1.147750
19.533333	1	1.127750
19.550000	1	1.107500
19.566667	1	1.085250
19.583333	1	1.062000
19.600000	1	1.038750
19.616667	1	1.015125
19.633333	1	0.992750
19.650000	1	0.970500
19.666667	1	0.948875
19.683333	1	0.929250
19.700000	1	0.911250
19.716667	1	0.895000
19.733333	1	0.881000
19.750000	1	0.869750
19.766667	1	0.860500
19.783333	1	0.853500
19.800000	1	0.849000
19.816667	1	0.847125
19.833333	1	0.848000
19.850000	1	0.851125
19.866667	1	0.857125
19.883333	1	0.864875
19.900000	1	0.874750
19.916667	1	0.885625
19.933333	1	0.898750
19.950000	1	0.913750
19.966667	1	0.929625
19.983333	1	0.945875
20.000000	1	0.962875
20.016667	1	0.981000
20.033333	1	0.999375
20.050000	1	1.018250
20.066667	1	1.037875
20.083333	1	1.057875
20.100000	1	1.078125
20.116667	1	1.099125
20.133333	1	1.121625
20.150000	1	1.145375
20.166667	1	1.170125
20.183333	1	1.198500
20.200000	1	1.228500
20.216667	1	1.262000
20.233333	1	1.298375
20.250000	1	1.338125
20.266667	1	1.382375
20.283333	1	1.431875
20.300000	1	1.485250
20.316667	1	1.544000
20.333333	1	1.607000
20.350000	1	1.674625
20.366667	1	1.745750
20.383333	1	1.819375
20.400000	1	1.895125
20.416667	1	1.971250
20.433333	1	2.046500
20.450000	1	2.119750
20.466667	1	2.188250
20.483333	1	2.251000
20.500000	1	2.307250
20.516667	1	2.355125
20.533333	1	2.394125
20.550000	1	2.422500
20.566667	1	2.440750
20.583333	1	2.448375
20.600000	1	2.444250
20.616667	1	2.429750
20.633333	1	2.405250
20.650000	1	2.370750
20.666667	1	2.328000
20.683333	1	2.277625
20.700000	1	2.220625
20.716667	1	2.157875
20.733333	1	2.091375
20.750000	1	2.021750
20.766667	1	1.949750
20.783333	1	1.876125
20.800000	1	1.802125
20.816667	1	1.728500
20.833333	1	1.655000
20.850000	1	1.583375
20.866667	1	1.513500
20.883333	1	1.444875
20.900000	1	1.378750
20.916667	1	1.316125
20.933333	1	1.255375
20.950000	1	1.197000
20.966667	1	1.142000
20.983333	1	1.089250
21.000000	1	1.039625
21.016667	1	0.992750
21.033333	1	0.947750
21.050000	1	0.906250
21.066667	1	0.866625
21.083333	1	0.829750
21.100000	1	0.795250
21.116667	1	0.762500
21.133333	1	0.732250
21.150000	1	0.704375
21.166667	1	0.678250
21.183333	1	0.653375
21.200000	1	0.631250
21.216667	1	0.610250
21.233333	1	0.591375
21.250000	1	0.573500
21.266667	1	0.557625
21.283333	1	0.543250
21.300000	1	0.530125
21.316667	1	0.517375
21.333333	1	0.506250
21.350000	1	0.495875
21.366667	1	0.487125
21.383333	1	0.479125
21.400000	1	0.472000
21.416667	1	0.465500
21.433333	1	0.460000
21.450000	1	0.455500
21.466667	1	0.451500
21.483333	1	0.449375
21.500000	1	0.447375
21.516667	1	0.445750
21.533333	1	0.445625
21.550000	1	0.445750
21.566667	1	0.446500
21.583333	1	0.448250
21.600000	1	0.450625
21.616667	1	0.453750
21.633333	1	0.458625
21.650000	1	0.463750
21.666667	1	0.469500
21.683333	1	0.476250
21.700000	1	0.484250
21.716667	1	0.493000
21.733333	1	0.502625
21.750000	1	0.513375
21.766667	1	0.525000
21.783333	1	0.538125
21.800000	1	0.551875
21.816667	1	0.567500
21.833333	1	0.584125
21.850000	1	0.601875
21.866667	1	0.620000
21.883333	1	0.638875
21.900000	1	0.659000
21.916667	1	0.679125
21.933333	1	0.699625
21.950000	1	0.719125
21.966667	1	0.739000
21.983333	1	0.759000
22.000000	1	0.777125
22.016667	1	0.794375
22.033333	1	0.809750
22.050000	1	0.823375
22.066667	1	0.835125
22.083333	1	0.844625
22.100000	1	0.851875
22.116667	1	0.855750
22.133333	1	0.857125
22.150000	1	0.857250
22.166667	1	0.854000
22.183333	1	0.848375
22.200000	1	0.840625
22.216667	1	0.830875
22.233333	1	0.818625
22.250000	1	0.805125
22.266667	1	0.790750
22.283333	1	0.774500
22.300000	1	0.758750
22.316667	1	0.742000
22.333333	1	0.724875
22.350000	1	0.708000
22.366667	1	0.690875
22.383333	1	0.674875
22.400000	1	0.658500
22.416667	1	0.642625
22.433333	1	0.627625
22.450000	1	0.613375
22.466667	1	0.600000
22.483333	1	0.587375
22.500000	1	0.575625
22.516667	1	0.565000
22.533333	1	0.554625
22.550000	1	0.546125
22.566667	1	0.537750
22.583333	1	0.530500
22.600000	1	0.523875
22.616667	1	0.518250
22.633333	1	0.512875
22.650000	1	0.508250
22.666667	1	0.504375
22.683333	1	0.499875
22.700000	1	0.496000
22.716667	1	0.493250
22.733333	1	0.491250
22.750000	1	0.488750
22.766667	1	0.486000
22.783333	1	0.484500
22.800000	1	0.482500
22.816667	1	0.481125
22.833333	1	0.479375
22.850000	1	0.477500
22.866667	1	0.475750
22.883333	1	0.473125
22.900000	1	0.470625
22.916667	1	0.469250
22.933333	1	0.467250
22.950000	1	0.465375
22.966667	1	0.463750
22.983333	1	0.461375
23.000000	1	0.460000
23.016667	1	0.459500
23.033333	1	0.458250
23.050000	1	0.458625
23.066667	1	0.458875
23.083333	1	0.459875
23.100000	1	0.462250
23.116667	1	0.465000
23.133333	1	0.468250
23.150000	1	0.472750
23.166667	1	0.477625
23.183333	1	0.484375
23.200000	1	0.491750
23.216667	1	0.500250
23.233333	1	0.511000
23.250000	1	0.522375
23.266667	1	0.536000
23.283333	1	0.551000
23.300000	1	0.568625
23.316667	1	0.587000
23.333333	1	0.608125
23.350000	1	0.630875
23.366667	1	0.655875
23.383333	1	0.682875
23.400000	1	0.712375
23.416667	1	0.744375
23.433333	1	0.779000
23.450000	1	0.816125
23.466667	1	0.856750
23.483333	1	0.900750
23.500000	1	0.948125
23.516667	1	0.999500
23.533333	1	1.055250
23.550000	1	1.116125
23.566667	1	1.181875
23.583333	1	1.253250
23.600000	1	1.331625
23.616667	1	1.415625
23.633333	1	1.506250
23.650000	1	1.604875
23.666667	1	1.711125
23.683333	1	1.824875
23.700000	1	1.946375
23.716667	1	2.076000
23.733333	1	2.213250
23.750000	1	2.356625
23.766667	1	2.505875
23.783333	1	2.658750
23.800000	1	2.814625
23.816667	1	2.972000
23.833333	1	3.129375
23.850000	1	3.283250
23.866667	1	3.431750
23.883333	1	3.573500
23.900000	1	3.705750
23.916667	1	3.825875
23.933333	1	3.933000
23.950000	1	4.024500
23.966667	1	4.099875
23.983333	1	4.157625
24.000000	1	4.197250
24.016667	1	4.218250
24.033333	1	4.220250
24.050000	1	4.204125
24.066667	1	4.170000
24.083333	1	4.119625
24.100000	1	4.053750
24.116667	1	3.973375
24.133333	1	3.880875
24.150000	1	3.777500
24.166667	1	3.665375
24.183333	1	3.545625
24.200000	1	3.419750
24.216667	1	3.289500
24.233333	1	3.156750
24.250000	1	3.022250
24.266667	1	2.887875
24.283333	1	2.754625
24.300000	1	2.623000
24.316667	1	2.494875
24.333333	1	2.369375
24.350000	1	2.248000
24.366667	1	2.131500
24.383333	1	2.019625
24.400000	1	1.913000
24.416667	1	1.812000
24.433333	1	1.716125
24.450000	1	1.626625
24.466667	1	1.542375
24.483333	1	1.463125
24.500000	1	1.389125
24.516667	1	1.320750
24.533333	1	1.256500
24.550000	1	1.197625
24.566667	1	1.142875
24.583333	1	1.092125
24.600000	1	1.046000
24.616667	1	1.002375
24.633333	1	0.962500
24.650000	1	0.925250
24.666667	1	0.891250
24.683333	1	0.858875
24.700000	1	0.828750
24.716667	1	0.800625
24.733333	1	0.774375
24.750000	1	0.749750
24.766667	1	0.726000
24.783333	1	0.703625
24.800000	1	0.681750
24.816667	1	0.660625
24.833333	1	0.640250
24.850000	1	0.620875
24.866667	1	0.602500
24.883333	1	0.584500
24.900000	1	0.566625
24.916667	1	0.549000
24.933333	1	0.532125
24.950000	1	0.515625
24.966667	1	0.500375
24.983333	1	0.484750
25.000000	1	0.470125
25.016667	1	0.456000
25.033333	1	0.441375
25.050000	1	0.427125
25.066667	1	0.415250
25.083333	1	0.403500
25.100000	1	0.391125
25.116667	1	0.380000
25.133333	1	0.369750
25.150000	1	0.360000
25.166667	1	0.350625
25.183333	1	0.341375
25.200000	1	0.333500
25.216667	1	0.326000
25.233333	1	0.318375
25.250000	1	0.311125
25.266667	1	0.305000
25.283333	1	0.299250
25.300000	1	0.293375
25.316667	1	0.289000
25.333333	1	0.284875
25.350000	1	0.281125
25.366667	1	0.278000
25.383333	1	0.274875
25.400000	1	0.272750
25.416667	1	0.270000
25.433333	1	0.267625
25.450000	1	0.266125
25.466667	1	0.264750
25.483333	1	0.263625
25.500000	1	0.262375
25.516667	1	0.261750
25.533333	1	0.261500
25.550000	1	0.261125
25.566667	1	0.261500
25.583333	1	0.261500
25.600000	1	0.262000
25.616667	1	0.261750
25.633333	1	0.262250
25.650000	1	0.262500
25.666667	1	0.263250
25.683333	1	0.264000
25.700000	1	0.265250
25.716667	1	0.266375
25.733333	1	0.267000
25.750000	1	0.267875
25.766667	1	0.269750
25.783333	1	0.271875
25.800000	1	0.274000
25.816667	1	0.275750
25.833333	1	0.278125
25.850000	1	0.280625
25.866667	1	0.282875
25.883333	1	0.285375
25.900000	1	0.288000
25.916667	1	0.291000
25.933333	1	0.294000
25.950000	1	0.297625
25.966667	1	0.301250
25.983333	1	0.305375
26.000000	1	0.308000
26.016667	1	0.311250
26.033333	1	0.314750
26.050000	1	0.317500
26.066667	1	0.320750
26.083333	1	0.323500
26.100000	1	0.326000
26.116667	1	0.328625
26.133333	1	0.331000
26.150000	1	0.333250
26.166667	1	0.335375
26.183333	1	0.337250
26.200000	1	0.338750
26.216667	1	0.340500
26.233333	1	0.342000
26.250000	1	0.342625
26.266667	1	0.343500
26.283333	1	0.344625
26.300000	1	0.345375
26.316667	1	0.346625
26.333333	1	0.346875
26.350000	1	0.346875
26.366667	1	0.347250
26.383333	1	0.347250
26.400000	1	0.347500
26.416667	1	0.348250
26.433333	1	0.348875
26.450000	1	0.348875
26.466667	1	0.349125
26.483333	1	0.348875
26.500000	1	0.348875
26.516667	1	0.349375
26.533333	1	0.348750
26.550000	1	0.348375
26.566667	1	0.347875
26.583333	1	0.347375
26.600000	1	0.345875
26.616667	1	0.345000
26.633333	1	0.344375
26.650000	1	0.342875
26.666667	1	0.340750
26.683333	1	0.339000
26.700000	1	0.336250
26.716667	1	0.334250
26.733333	1	0.331375
26.750000	1	0.328625
26.766667	1	0.326375
26.783333	1	0.322750
26.800000	1	0.319375
26.816667	1	0.316875
26.833333	1	0.314000
26.850000	1	0.310625
26.866667	1	0.307625
26.883333	1	0.304125
26.900000	1	0.301125
26.916667	1	0.298875
26.933333	1	0.296000
26.950000	1	0.293375
26.966667	1	0.291125
26.983333	1	0.289250
27.000000	1	0.288000
27.016667	1	0.287000
27.033333	1	0.286875
27.050000	1	0.287375
27.066667	1	0.287875
27.083333	1	0.289500
27.100000	1	0.290500
27.116667	1	0.293000
27.133333	1	0.296000
27.150000	1	0.299375
27.166667	1	0.304000
27.183333	1	0.308125
27.200000	1	0.313375
27.216667	1	0.318625
27.233333	1	0.325375
27.250000	1	0.333000
27.266667	1	0.341750
27.283333	1	0.351125
27.300000	1	0.361875
27.316667	1	0.373625
27.333333	1	0.386250
27.350000	1	0.400125
27.366667	1	0.414875
27.383333	1	0.429875
27.400000	1	0.446375
27.416667	1	0.463750
27.433333	1	0.482000
27.450000	1	0.501375
27.466667	1	0.522375
27.483333	1	0.545125
27.500000	1	0.569125
27.516667	1	0.594625
27.533333	1	0.621875
27.550000	1	0.651000
27.566667	1	0.682750
27.583333	1	0.717000
27.600000	1	0.752875
27.616667	1	0.791500
27.633333	1	0.833000
27.650000	1	0.877750
27.666667	1	0.925625
27.683333	1	0.977000
27.700000	1	1.033750
27.716667	1	1.093625
27.733333	1	1.158250
27.750000	1	1.226625
27.766667	1	1.299625
27.783333	1	1.377125
27.800000	1	1.459500
27.816667	1	1.545875
27.833333	1	1.635875
27.850000	1	1.730625
27.866667	1	1.828250
27.883333	1	1.928500
27.900000	1	2.030750
27.916667	1	2.134250
27.933333	1	2.238125
27.950000	1	2.341375
27.966667	1	2.443250
27.983333	1	2.541750
28.000000	1	2.636875
28.016667	1	2.726625
28.033333	1	2.810750
28.050000	1	2.888500
28.066667	1	2.958375
28.083333	1	3.019125
28.100000	1	3.069875
28.116667	1	3.110625
28.133333	1	3.141000
28.150000	1	3.158750
28.166667	1	3.165625
28.183333	1	3.160250
28.200000	1	3.143625
28.216667	1	3.115250
28.233333	1	3.075250
28.250000	1	3.025250
28.266667	1	2.964500
28.283333	1	2.894500
28.300000	1	2.816125
28.316667	1	2.730500
28.333333	1	2.638125
28.350000	1	2.539750
28.366667	1	2.436375
28.383333	1	2.329625
28.400000	1	2.220250
28.416667	1	2.109000
28.433333	1	1.996125
28.450000	1	1.883125
28.466667	1	1.770625
28.483333	1	1.658500
28.500000	1	1.547125
28.516667	1	1.438875
28.533333	1	1.333000
28.550000	1	1.229625
28.566667	1	1.129750
28.583333	1	1.032875
28.600000	1	0.938875
28.616667	1	0.849000
28.633333	1	0.762500
28.650000	1	0.679625
28.666667	1	0.600000
28.683333	1	0.524125
28.700000	1	0.451250
28.716667	1	0.381375
28.733333	1	0.315625
28.750000	1	0.252500
28.766667	1	0.192625
28.783333	1	0.136000
28.800000	1	0.082500
28.816667	1	0.032000
28.833333	1	-0.016000
28.850000	1	-0.060875
28.866667	1	-0.103625
28.883333	1	-0.143125
28.900000	1	-0.180125
28.916667	1	-0.213750
28.933333	1	-0.245375
28.950000	1	-0.273875
28.966667	1	-0.299875
28.983333	1	-0.322875
29.000000	1	-0.343500
29.016667	1	-0.361250
29.033333	1	-0.376500
29.050000	1	-0.389500
29.066667	1	-0.399125
29.083333	1	-0.406125
29.100000	1	-0.411750
29.116667	1	-0.414000
29.133333	1	-0.414375
29.150000	1	-0.411875
29.166667	1	-0.407125
29.183333	1	-0.400250
29.200000	1	-0.391250
29.216667	1	-0.380125
29.233333	1	-0.367500
29.250000	1	-0.352750
29.266667	1	-0.336875
29.283333	1	-0.319250
29.300000	1	-0.300875
29.316667	1	-0.280875
29.333333	1	-0.259875
29.350000	1	-0.237625
29.366667	1	-0.214625
29.383333	1	-0.191500
29.400000	1	-0.167625
29.416667	1	-0.143750
29.433333	1	-0.118625
29.450000	1	-0.093625
29.466667	1	-0.068750
29.483333	1	-0.044375
29.500000	1	-0.020125
29.516667	1	0.004125
29.533333	1	0.029125
29.550000	1	0.053500
29.566667	1	0.076250
29.583333	1	0.098125
29.600000	1	0.120250
29.616667	1	0.142000
29.633333	1	0.162625
29.650000	1	0.182500
29.666667	1	0.201875
29.683333	1	0.219625
29.700000	1	0.237250
29.716667	1	0.253875
29.733333	1	0.268875
29.750000	1	0.282750
29.766667	1	0.296000
29.783333	1	0.308750
29.800000	1	0.320250
29.816667	1	0.331375
29.833333	1	0.341125
29.850000	1	0.350000
29.866667	1	0.358250
29.883333	1	0.366125
29.900000	1	0.373000
29.916667	1	0.379000
29.933333	1	0.384625
29.950000	1	0.388625
29.966667	1	0.392500
29.983333	1	0.395250
30.000000	1	0.398000
30.016667	1	0.401125
30.033333	1	0.402875
30.050000	1	0.404625
30.066667	1	0.406125
30.083333	1	0.407875
30.100000	1	0.409375
30.116667	1	0.410375
30.133333	1	0.411000
30.150000	1	0.412625
30.166667	1	0.413375
30.183333	1	0.414125
30.200000	1	0.414875
30.216667	1	0.416375
30.233333	1	0.417625
30.250000	1	0.419375
30.266667	1	0.421250
30.283333	1	0.422375
30.300000	1	0.423750
30.316667	1	0.426375
30.333333	1	0.429125
30.350000	1	0.431875
30.366667	1	0.435000
30.383333	1	0.438375
30.400000	1	0.442250
30.416667	1	0.446250
30.433333	1	0.451625
30.450000	1	0.456500
30.466667	1	0.462125
30.483333	1	0.468375
30.500000	1	0.475625
30.516667	1	0.483375
30.533333	1	0.491375
30.550000	1	0.500875
30.566667	1	0.510375
30.583333	1	0.520750
30.600000	1	0.531875
30.616667	1	0.544250
30.633333	1	0.557500
30.650000	1	0.570625
30.666667	1	0.585000
30.683333	1	0.600125
30.700000	1	0.616125
30.716667	1	0.632500
30.733333	1	0.649625
30.750000	1	0.666750
30.766667	1	0.684125
30.783333	1	0.701000
30.800000	1	0.719000
30.816667	1	0.735875
30.833333	1	0.752500
30.850000	1	0.769125
30.866667	1	0.785000
30.883333	1	0.799875
30.900000	1	0.813125
30.916667	1	0.825375
30.933333	1	0.836000
30.950000	1	0.845625
30.966667	1	0.852750
30.983333	1	0.858500
31.000000	1	0.862500
31.016667	1	0.864375
31.033333	1	0.864500
31.050000	1	0.862625
31.066667	1	0.859500
31.083333	1	0.853750
31.100000	1	0.847000
31.116667	1	0.837500
31.133333	1	0.827125
31.150000	1	0.814125
31.166667	1	0.800250
31.183333	1	0.786000
31.200000	1	0.769750
31.216667	1	0.752375
31.233333	1	0.734250
31.250000	1	0.715500
31.266667	1	0.695750
31.283333	1	0.676500
31.300000	1	0.656750
31.316667	1	0.636750
31.333333	1	0.616375
31.350000	1	0.597250
31.366667	1	0.577125
31.383333	1	0.557750
31.400000	1	0.538500
31.416667	1	0.520125
31.433333	1	0.501750
31.450000	1	0.484500
31.466667	1	0.467500
31.483333	1	0.451500
31.500000	1	0.435625
31.516667	1	0.421000
31.533333	1	0.406750
31.550000	1	0.394375
31.566667	1	0.381500
31.583333	1	0.370125
31.600000	1	0.359500
31.616667	1	0.348500
31.633333	1	0.338250
31.650000	1	0.329250
31.666667	1	0.321125
31.683333	1	0.313250
31.700000	1	0.305750
31.716667	1	0.299000
31.733333	1	0.293125
31.750000	1	0.286875
31.766667	1	0.281625
31.783333	1	0.276750
31.800000	1	0.272875
31.816667	1	0.269625
31.833333	1	0.267375
31.850000	1	0.264125
31.866667	1	0.261750
31.883333	1	0.259500
31.900000	1	0.258000
31.916667	1	0.256625
31.933333	1	0.255625
31.950000	1	0.255125
31.966667	1	0.254375
31.983333	1	0.254250
32.000000	1	0.254500
32.016667	1	0.254250
32.033333	1	0.254375
32.050000	1	0.255000
32.066667	1	0.254875
32.083333	1	0.255500
32.100000	1	0.255375
32.116667	1	0.255250
32.133333	1	0.255250
32.150000	1	0.254625
32.166667	1	0.254500
32.183333	1	0.254625
32.200000	1	0.254000
32.216667	1	0.253125
32.233333	1	0.252375
32.250000	1	0.250375
32.266667	1	0.248375
32.283333	1	0.246375
32.300000	1	0.243375
32.316667	1	0.240750
32.333333	1	0.237375
32.350000	1	0.234125
32.366667	1	0.230250
32.383333	1	0.226625
32.400000	1	0.222500
32.416667	1	0.217375
32.433333	1	0.213125
32.450000	1	0.208000
32.466667	1	0.202750
32.483333	1	0.197375
32.500000	1	0.192375
32.516667	1	0.186375
32.533333	1	0.180625
32.550000	1	0.175125
32.566667	1	0.169500
32.583333	1	0.164000
32.600000	1	0.158000
32.616667	1	0.152000
32.633333	1	0.146000
32.650000	1	0.140375
32.666667	1	0.134875
32.683333	1	0.129000
32.700000	1	0.123875
32.716667	1	0.118625
32.733333	1	0.113625
32.750000	1	0.108875
32.766667	1	0.104250
32.783333	1	0.099000
32.800000	1	0.094250
32.816667	1	0.089875
32.833333	1	0.085625
32.850000	1	0.081250
32.866667	1	0.077500
32.883333	1	0.073500
32.900000	1	0.069625
32.916667	1	0.065500
32.933333	1	0.062625
32.950000	1	0.059500
32.966667	1	0.057000
32.983333	1	0.054125
33.000000	1	0.051875
33.016667	1	0.049125
33.033333	1	0.046750
33.050000	1	0.044625
33.066667	1	0.043000
33.083333	1	0.041375
33.100000	1	0.040625
33.116667	1	0.039375
33.133333	1	0.037500
33.150000	1	0.036000
33.166667	1	0.035500
33.183333	1	0.035250
33.200000	1	0.034500
33.216667	1	0.034125
33.233333	1	0.034250
33.250000	1	0.033875
33.266667	1	0.033875
33.283333	1	0.033875
33.300000	1	0.033625
33.316667	1	0.034375
33.333333	1	0.034125
33.350000	1	0.034750
33.366667	1	0.035625
33.383333	1	0.036500
33.400000	1	0.037250
33.416667	1	0.038000
33.433333	1	0.039125
33.450000	1	0.039625
33.466667	1	0.041125
33.483333	1	0.042000
33.500000	1	0.042500
33.516667	1	0.043625
33.533333	1	0.044875
33.550000	1	0.046250
33.566667	1	0.047625
33.583333	1	0.048500
33.600000	1	0.049625
33.616667	1	0.051000
33.633333	1	0.052750
33.650000	1	0.054750
33.666667	1	0.056500
33.683333	1	0.058000
33.700000	1	0.060250
33.716667	1	0.061875
33.733333	1	0.064125
33.750000	1	0.066875
33.766667	1	0.068875
33.783333	1	0.071750
33.800000	1	0.074625
33.816667	1	0.078000
33.833333	1	0.081625
33.850000	1	0.085375
33.866667	1	0.089125
33.883333	1	0.093875
33.900000	1	0.098500
33.916667	1	0.103625
33.933333	1	0.108625
33.950000	1	0.114750
33.966667	1	0.121000
33.983333	1	0.127875
34.000000	1	0.135250
34.016667	1	0.143125
34.033333	1	0.151375
34.050000	1	0.160125
34.066667	1	0.169125
34.083333	1	0.178375
34.100000	1	0.187500
34.116667	1	0.197625
34.133333	1	0.208125
34.150000	1	0.219250
34.166667	1	0.230500
34.183333	1	0.242500
34.200000	1	0.254375
34.216667	1	0.266375
34.233333	1	0.278250
34.250000	1	0.289750
34.266667	1	0.301125
34.283333	1	0.312500
34.300000	1	0.323500
34.316667	1	0.334250
34.333333	1	0.343375
34.350000	1	0.352750
34.366667	1	0.361125
34.383333	1	0.369750
34.400000	1	0.376875
34.416667	1	0.383250
34.433333	1	0.388000
34.450000	1	0.392375
34.466667	1	0.396125
34.483333	1	0.398250
34.500000	1	0.398750
34.516667	1	0.398625
34.533333	1	0.398500
34.550000	1	0.397000
34.566667	1	0.394625
34.583333	1	0.390625
34.600000	1	0.386125
34.616667	1	0.380750
34.633333	1	0.375125
34.650000	1	0.368625
34.666667	1	0.361625
34.683333	1	0.354250
34.700000	1	0.345750
34.716667	1	0.336625
34.733333	1	0.327125
34.750000	1	0.317875
34.766667	1	0.308375
34.783333	1	0.298875
34.800000	1	0.289000
34.816667	1	0.279375
34.833333	1	0.269750
34.850000	1	0.260125
34.866667	1	0.250875
34.883333	1	0.241000
34.900000	1	0.231750
34.916667	1	0.223000
34.933333	1	0.214375
34.950000	1	0.205875
34.966667	1	0.198625
34.983333	1	0.192000
35.000000	1	0.185000
35.016667	1	0.177875
35.033333	1	0.171375
35.050000	1	0.165000
35.066667	1	0.159250
35.083333	1	0.154500
35.100000	1	0.149250
35.116667	1	0.144750
35.133333	1	0.140875
35.150000	1	0.137250
35.166667	1	0.133875
35.183333	1	0.130375
35.200000	1	0.128125
35.216667	1	0.125750
35.233333	1	0.124000
35.250000	1	0.122375
35.266667	1	0.121250
35.283333	1	0.120000
35.300000	1	0.119000
35.316667	1	0.118250
35.333333	1	0.118125
35.350000	1	0.118250
35.366667	1	0.117875
35.383333	1	0.118125
35.400000	1	0.118750
35.416667	1	0.119000
35.433333	1	0.119500
35.450000	1	0.120000
35.466667	1	0.120875
35.483333	1	0.121500
35.500000	1	0.122250
35.516667	1	0.123500
35.533333	1	0.124000
35.550000	1	0.125000
35.566667	1	0.125750
35.583333	1	0.126125
35.600000	1	0.127500
35.616667	1	0.128250
35.633333	1	0.128625
35.650000	1	0.129500
35.666667	1	0.130500
35.683333	1	0.130875
35.700000	1	0.132000
35.716667	1	0.132500
35.733333	1	0.133500
35.750000	1	0.133500
35.766667	1	0.133625
35.783333	1	0.134375
35.800000	1	0.134750
35.816667	1	0.135125
35.833333	1	0.135375
35.850000	1	0.135500
35.866667	1	0.136000
35.883333	1	0.135625
35.900000	1	0.136125
35.916667	1	0.135625
35.933333	1	0.135625
35.950000	1	0.135000
35.966667	1	0.135000
35.983333	1	0.134750
36.000000	1	0.134875
36.016667	1	0.135250
36.033333	1	0.134875
36.050000	1	0.134500
36.066667	1	0.134250
36.083333	1	0.134375
36.100000	1	0.133375
36.116667	1	0.133625
36.133333	1	0.133750
36.150000	1	0.133625
36.166667	1	0.133000
36.183333	1	0.133125
36.200000	1	0.133000
36.216667	1	0.132875
36.233333	1	0.132500
36.250000	1	0.132250
36.266667	1	0.132875
36.283333	1	0.133250
36.300000	1	0.133375
36.316667	1	0.132875
36.333333	1	0.132250
36.350000	1	0.132625
36.366667	1	0.132625
36.383333	1	0.131750
36.400000	1	0.131625
36.416667	1	0.132125
36.433333	1	0.132375
36.450000	1	0.131875
36.466667	1	0.131625
36.483333	1	0.130625
36.500000	1	0.130250
36.516667	1	0.130000
36.533333	1	0.129750
36.550000	1	0.129625
36.566667	1	0.129500
36.583333	1	0.128625
36.600000	1	0.128625
36.616667	1	0.128500
36.633333	1	0.128750
36.650000	1	0.127500
36.666667	1	0.127625
36.683333	1	0.127250
36.700000	1	0.126750
36.716667	1	0.126250
36.733333	1	0.126000
36.750000	1	0.125750
36.766667	1	0.124875
36.783333	1	0.124250
36.800000	1	0.123375
36.816667	1	0.122625
36.833333	1	0.122375
36.850000	1	0.121500
36.866667	1	0.120500
36.883333	1	0.119125
36.900000	1	0.118250
36.916667	1	0.116875
36.933333	1	0.115375
36.950000	1	0.114375
36.966667	1	0.113375
36.983333	1	0.111875
37.000000	1	0.109125
37.016667	1	0.107250
37.033333	1	0.105500
37.050000	1	0.103000
37.066667	1	0.100375
37.083333	1	0.097875
37.100000	1	0.095250
37.116667	1	0.092625
37.133333	1	0.090875
37.150000	1	0.088125
37.166667	1	0.085250
37.183333	1	0.082125
37.200000	1	0.079000
37.216667	1	0.075375
37.233333	1	0.072125
37.250000	1	0.069375
37.266667	1	0.065875
37.283333	1	0.063375
37.300000	1	0.060250
37.316667	1	0.057125
37.333333	1	0.054750
37.350000	1	0.051500
37.366667	1	0.048500
37.383333	1	0.045500
37.400000	1	0.043125
37.416667	1	0.040500
37.433333	1	0.036875
37.450000	1	0.034125
37.466667	1	0.031750
37.483333	1	0.029125
37.500000	1	0.026250
37.516667	1	0.024500
37.533333	1	0.021750
37.550000	1	0.019375
37.566667	1	0.016875
37.583333	1	0.015125
37.600000	1	0.012875
37.616667	1	0.011125
37.633333	1	0.010000
37.650000	1	0.008125
37.666667	1	0.006125
37.683333	1	0.004750
37.700000	1	0.003250
37.716667	1	0.002125
37.733333	1	0.001000
37.750000	1	-0.000375
37.766667	1	-0.001000
37.783333	1	-0.002125
37.800000	1	-0.003000
37.816667	1	-0.003250
37.833333	1	-0.003500
37.850000	1	-0.003750
37.866667	1	-0.004125
37.883333	1	-0.004500
37.900000	1	-0.005125
37.916667	1	-0.005000
37.933333	1	-0.004250
37.950000	1	-0.003625
37.966667	1	-0.003500
37.983333	1	-0.003000
38.000000	1	-0.001875
38.016667	1	-0.001250
38.033333	1	0.000125
38.050000	1	0.000125
38.066667	1	0.001250
38.083333	1	0.002500
38.100000	1	0.004125
38.116667	1	0.005750
38.133333	1	0.006875
38.150000	1	0.008500
38.166667	1	0.010625
38.183333	1	0.012750
38.200000	1	0.014250
38.216667	1	0.015375
38.233333	1	0.017250
38.250000	1	0.019250
38.266667	1	0.021375
38.283333	1	0.023000
38.300000	1	0.025125
38.316667	1	0.027125
38.333333	1	0.029250
38.350000	1	0.031125
38.366667	1	0.032250
38.383333	1	0.034125
38.400000	1	0.036500
38.416667	1	0.037500
38.433333	1	0.039125
38.450000	1	0.040375
38.466667	1	0.041250
38.483333	1	0.041875
38.500000	1	0.043250
38.516667	1	0.044250
38.533333	1	0.044875
38.550000	1	0.046000
38.566667	1	0.046250
38.583333	1	0.046875
38.600000	1	0.046875
38.616667	1	0.046625
38.633333	1	0.046000
38.650000	1	0.045625
38.666667	1	0.044750
38.683333	1	0.043875
38.700000	1	0.043125
38.716667	1	0.042500
38.733333	1	0.041375
38.750000	1	0.040000
38.766667	1	0.038500
38.783333	1	0.036750
38.800000	1	0.035375
38.816667	1	0.033625
38.833333	1	0.031750
38.850000	1	0.030125
38.866667	1	0.028875
38.883333	1	0.027125
38.900000	1	0.024750
38.916667	1	0.023250
38.933333	1	0.021000
38.950000	1	0.019375
38.966667	1	0.017125
38.983333	1	0.015000
39.000000	1	0.013000
39.016667	1	0.011500
39.033333	1	0.009625
39.050000	1	0.008250
39.066667	1	0.006375
39.083333	1	0.005250
39.100000	1	0.003875
39.116667	1	0.002250
39.133333	1	0.001500
39.150000	1	0.000250
39.166667	1	-0.001125
39.183333	1	-0.002125
39.200000	1	-0.003250
39.216667	1	-0.004750
39.233333	1	-0.006250
39.250000	1	-0.006500
39.266667	1	-0.007625
39.283333	1	-0.008375
39.300000	1	-0.009375
39.316667	1	-0.010250
39.333333	1	-0.011000
39.350000	1	-0.011875
39.366667	1	-0.013125
39.383333	1	-0.014250
39.400000	1	-0.014375
39.416667	1	-0.015000
39.433333	1	-0.015875
39.450000	1	-0.016250
39.466667	1	-0.017250
39.483333	1	-0.017875
39.500000	1	-0.018625
39.516667	1	-0.019000
39.533333	1	-0.019125
39.550000	1	-0.019250
39.566667	1	-0.019125
39.583333	1	-0.019375
39.600000	1	-0.019875
39.616667	1	-0.019750
39.633333	1	-0.020375
39.650000	1	-0.020750
39.666667	1	-0.021375
39.683333	1	-0.021000
39.700000	1	-0.021125
39.716667	1	-0.020250
39.733333	1	-0.019250
39.750000	1	-0.018625
39.766667	1	-0.018375
39.783333	1	-0.018500
39.800000	1	-0.018375
39.816667	1	-0.017750
39.833333	1	-0.017250
39.850000	1	-0.016750
39.866667	1	-0.016250
39.883333	1	-0.015875
39.900000	1	-0.015750
39.916667	1	-0.014875
39.933333	1	-0.013750
39.950000	1	-0.012875
39.966667	1	-0.011500
39.983333	1	-0.010375
40.000000	1	-0.009250
