File Path	chrom://marshall/Chromeleon7/HPLC_Ultimate_3000/Users/markusar/20230107.seq/541.smp/RI_1.channel/RI_1.chm
Channel	RI_1

Injection Information:
Data Vault	Chromeleon7
Injection	er1.2
Injection Number	3
Position	RA3
Comment	
Processing Method	
Instrument Method	std_method
Type	Unknown
Status	Finished
Injection Date	07.01.2023
Injection Time	17:15:59
Injection Volume (µl)	20.000
Dilution Factor	1.0000
Weight	1.0000

Chromatogram Data Information:
Time Min. (min)	0.000000
Time Max. (min)	40.000000
Data Points	2401
Detector	RI
Generating Data System	Chromeleon 7.2.5.9507
Exporting Data System	Chromeleon 7.2.5.0
Operator	Instrument Controller
Signal Quantity	Refractive 
Signal Unit	µRIU
Signal Min.	-0.146000
Signal Max.	112.053375
Channel	RI_1
Driver Name	RID520Driver.dll
Channel Type	Evaluation
Min. Step (s)	1
Max. Step (s)	1
Average Step (s)	1

Signal Parameter Information:
Signal Info	

Chromatogram Data:
Time (min)	Step (s)	Value (µRIU)
0.000000	n.a.	0.079250
0.016667	1	0.079000
0.033333	1	0.079625
0.050000	1	0.080375
0.066667	1	0.081500
0.083333	1	0.082125
0.100000	1	0.082250
0.116667	1	0.082625
0.133333	1	0.083125
0.150000	1	0.083125
0.166667	1	0.083250
0.183333	1	0.083000
0.200000	1	0.082625
0.216667	1	0.082000
0.233333	1	0.081625
0.250000	1	0.081750
0.266667	1	0.081250
0.283333	1	0.082000
0.300000	1	0.081000
0.316667	1	0.080750
0.333333	1	0.080375
0.350000	1	0.079250
0.366667	1	0.078625
0.383333	1	0.077125
0.400000	1	0.075875
0.416667	1	0.074750
0.433333	1	0.073250
0.450000	1	0.071750
0.466667	1	0.070500
0.483333	1	0.068875
0.500000	1	0.066625
0.516667	1	0.065375
0.533333	1	0.063125
0.550000	1	0.061125
0.566667	1	0.059750
0.583333	1	0.058500
0.600000	1	0.057250
0.616667	1	0.056250
0.633333	1	0.054625
0.650000	1	0.053625
0.666667	1	0.052375
0.683333	1	0.050875
0.700000	1	0.049125
0.716667	1	0.046875
0.733333	1	0.044750
0.750000	1	0.042000
0.766667	1	0.039375
0.783333	1	0.036000
0.800000	1	0.033250
0.816667	1	0.030250
0.833333	1	0.027875
0.850000	1	0.024500
0.866667	1	0.021000
0.883333	1	0.018625
0.900000	1	0.015625
0.916667	1	0.012500
0.933333	1	0.009500
0.950000	1	0.006625
0.966667	1	0.005000
0.983333	1	0.002625
1.000000	1	0.000500
1.016667	1	-0.002125
1.033333	1	-0.004250
1.050000	1	-0.006250
1.066667	1	-0.008625
1.083333	1	-0.010000
1.100000	1	-0.012625
1.116667	1	-0.014625
1.133333	1	-0.016125
1.150000	1	-0.017375
1.166667	1	-0.019000
1.183333	1	-0.020625
1.200000	1	-0.021875
1.216667	1	-0.022375
1.233333	1	-0.023375
1.250000	1	-0.024625
1.266667	1	-0.026000
1.283333	1	-0.026375
1.300000	1	-0.027750
1.316667	1	-0.028875
1.333333	1	-0.030250
1.350000	1	-0.031625
1.366667	1	-0.032750
1.383333	1	-0.034125
1.400000	1	-0.034875
1.416667	1	-0.035875
1.433333	1	-0.037000
1.450000	1	-0.038250
1.466667	1	-0.039250
1.483333	1	-0.040000
1.500000	1	-0.040750
1.516667	1	-0.041875
1.533333	1	-0.043625
1.550000	1	-0.044875
1.566667	1	-0.046250
1.583333	1	-0.047625
1.600000	1	-0.048375
1.616667	1	-0.049250
1.633333	1	-0.050375
1.650000	1	-0.051625
1.666667	1	-0.052875
1.683333	1	-0.053625
1.700000	1	-0.055000
1.716667	1	-0.055750
1.733333	1	-0.056875
1.750000	1	-0.058625
1.766667	1	-0.059625
1.783333	1	-0.060625
1.800000	1	-0.061250
1.816667	1	-0.062625
1.833333	1	-0.063875
1.850000	1	-0.065250
1.866667	1	-0.066500
1.883333	1	-0.066500
1.900000	1	-0.067625
1.916667	1	-0.068750
1.933333	1	-0.070500
1.950000	1	-0.071125
1.966667	1	-0.071875
1.983333	1	-0.072125
2.000000	1	-0.072875
2.016667	1	-0.073625
2.033333	1	-0.074000
2.050000	1	-0.074500
2.066667	1	-0.075250
2.083333	1	-0.075250
2.100000	1	-0.075500
2.116667	1	-0.075875
2.133333	1	-0.077000
2.150000	1	-0.076750
2.166667	1	-0.077000
2.183333	1	-0.078125
2.200000	1	-0.078875
2.216667	1	-0.080375
2.233333	1	-0.080625
2.250000	1	-0.080750
2.266667	1	-0.081125
2.283333	1	-0.081625
2.300000	1	-0.081375
2.316667	1	-0.082250
2.333333	1	-0.082625
2.350000	1	-0.083500
2.366667	1	-0.084375
2.383333	1	-0.085250
2.400000	1	-0.085000
2.416667	1	-0.085250
2.433333	1	-0.085875
2.450000	1	-0.085500
2.466667	1	-0.085500
2.483333	1	-0.085375
2.500000	1	-0.086000
2.516667	1	-0.085750
2.533333	1	-0.085500
2.550000	1	-0.085375
2.566667	1	-0.085000
2.583333	1	-0.085500
2.600000	1	-0.085500
2.616667	1	-0.085875
2.633333	1	-0.086125
2.650000	1	-0.085875
2.666667	1	-0.085000
2.683333	1	-0.084250
2.700000	1	-0.084625
2.716667	1	-0.084375
2.733333	1	-0.083500
2.750000	1	-0.083500
2.766667	1	-0.082750
2.783333	1	-0.082250
2.800000	1	-0.081625
2.816667	1	-0.080875
2.833333	1	-0.079875
2.850000	1	-0.079500
2.866667	1	-0.078750
2.883333	1	-0.077875
2.900000	1	-0.077000
2.916667	1	-0.075625
2.933333	1	-0.074750
2.950000	1	-0.074625
2.966667	1	-0.074625
2.983333	1	-0.073750
3.000000	1	-0.072625
3.016667	1	-0.071750
3.033333	1	-0.071125
3.050000	1	-0.069875
3.066667	1	-0.069125
3.083333	1	-0.068500
3.100000	1	-0.068250
3.116667	1	-0.066750
3.133333	1	-0.066125
3.150000	1	-0.065375
3.166667	1	-0.064375
3.183333	1	-0.063250
3.200000	1	-0.061750
3.216667	1	-0.060375
3.233333	1	-0.059500
3.250000	1	-0.058250
3.266667	1	-0.057500
3.283333	1	-0.056250
3.300000	1	-0.055375
3.316667	1	-0.054375
3.333333	1	-0.053125
3.350000	1	-0.052750
3.366667	1	-0.051250
3.383333	1	-0.050375
3.400000	1	-0.049250
3.416667	1	-0.048625
3.433333	1	-0.048250
3.450000	1	-0.046625
3.466667	1	-0.044625
3.483333	1	-0.043500
3.500000	1	-0.042375
3.516667	1	-0.041250
3.533333	1	-0.040875
3.550000	1	-0.040500
3.566667	1	-0.039500
3.583333	1	-0.039250
3.600000	1	-0.038625
3.616667	1	-0.037500
3.633333	1	-0.036500
3.650000	1	-0.035875
3.666667	1	-0.035375
3.683333	1	-0.035125
3.700000	1	-0.034375
3.716667	1	-0.033625
3.733333	1	-0.033000
3.750000	1	-0.032500
3.766667	1	-0.032000
3.783333	1	-0.031125
3.800000	1	-0.031125
3.816667	1	-0.030875
3.833333	1	-0.031250
3.850000	1	-0.030750
3.866667	1	-0.031000
3.883333	1	-0.029875
3.900000	1	-0.029500
3.916667	1	-0.029250
3.933333	1	-0.028750
3.950000	1	-0.029250
3.966667	1	-0.028500
3.983333	1	-0.028750
4.000000	1	-0.028750
4.016667	1	-0.029000
4.033333	1	-0.028625
4.050000	1	-0.028750
4.066667	1	-0.029125
4.083333	1	-0.029500
4.100000	1	-0.029625
4.116667	1	-0.028875
4.133333	1	-0.028500
4.150000	1	-0.028250
4.166667	1	-0.028375
4.183333	1	-0.028250
4.200000	1	-0.027625
4.216667	1	-0.026875
4.233333	1	-0.026375
4.250000	1	-0.026375
4.266667	1	-0.026500
4.283333	1	-0.026500
4.300000	1	-0.026500
4.316667	1	-0.026500
4.333333	1	-0.027125
4.350000	1	-0.027375
4.366667	1	-0.027625
4.383333	1	-0.027750
4.400000	1	-0.028000
4.416667	1	-0.028375
4.433333	1	-0.028500
4.450000	1	-0.029625
4.466667	1	-0.029625
4.483333	1	-0.029125
4.500000	1	-0.029625
4.516667	1	-0.029500
4.533333	1	-0.029750
4.550000	1	-0.029375
4.566667	1	-0.029875
4.583333	1	-0.030750
4.600000	1	-0.031000
4.616667	1	-0.031375
4.633333	1	-0.031750
4.650000	1	-0.031625
4.666667	1	-0.032625
4.683333	1	-0.033375
4.700000	1	-0.033625
4.716667	1	-0.033625
4.733333	1	-0.034000
4.750000	1	-0.033875
4.766667	1	-0.033500
4.783333	1	-0.034375
4.800000	1	-0.034875
4.816667	1	-0.034375
4.833333	1	-0.034875
4.850000	1	-0.035250
4.866667	1	-0.035625
4.883333	1	-0.035625
4.900000	1	-0.035375
4.916667	1	-0.035875
4.933333	1	-0.036500
4.950000	1	-0.037125
4.966667	1	-0.037000
4.983333	1	-0.037250
5.000000	1	-0.037625
5.016667	1	-0.038000
5.033333	1	-0.038000
5.050000	1	-0.037875
5.066667	1	-0.037375
5.083333	1	-0.038125
5.100000	1	-0.038250
5.116667	1	-0.039250
5.133333	1	-0.039875
5.150000	1	-0.040500
5.166667	1	-0.041000
5.183333	1	-0.040875
5.200000	1	-0.041500
5.216667	1	-0.041500
5.233333	1	-0.041625
5.250000	1	-0.042000
5.266667	1	-0.042500
5.283333	1	-0.043375
5.300000	1	-0.043875
5.316667	1	-0.044375
5.333333	1	-0.044500
5.350000	1	-0.044875
5.366667	1	-0.045500
5.383333	1	-0.045750
5.400000	1	-0.045750
5.416667	1	-0.046000
5.433333	1	-0.045750
5.450000	1	-0.046125
5.466667	1	-0.046125
5.483333	1	-0.045625
5.500000	1	-0.045000
5.516667	1	-0.045125
5.533333	1	-0.044625
5.550000	1	-0.044250
5.566667	1	-0.043375
5.583333	1	-0.043000
5.600000	1	-0.042750
5.616667	1	-0.042375
5.633333	1	-0.041750
5.650000	1	-0.040500
5.666667	1	-0.039750
5.683333	1	-0.039125
5.700000	1	-0.037875
5.716667	1	-0.036875
5.733333	1	-0.035375
5.750000	1	-0.035500
5.766667	1	-0.034375
5.783333	1	-0.033125
5.800000	1	-0.032000
5.816667	1	-0.030750
5.833333	1	-0.029625
5.850000	1	-0.028250
5.866667	1	-0.026875
5.883333	1	-0.025250
5.900000	1	-0.024500
5.916667	1	-0.023250
5.933333	1	-0.021875
5.950000	1	-0.020750
5.966667	1	-0.019750
5.983333	1	-0.018750
6.000000	1	-0.017125
6.016667	1	-0.016125
6.033333	1	-0.015250
6.050000	1	-0.014000
6.066667	1	-0.013000
6.083333	1	-0.012625
6.100000	1	-0.012000
6.116667	1	-0.011500
6.133333	1	-0.010750
6.150000	1	-0.010500
6.166667	1	-0.009125
6.183333	1	-0.008750
6.200000	1	-0.008125
6.216667	1	-0.007750
6.233333	1	-0.006875
6.250000	1	-0.006000
6.266667	1	-0.005500
6.283333	1	-0.004875
6.300000	1	-0.004625
6.316667	1	-0.004000
6.333333	1	-0.003000
6.350000	1	-0.002625
6.366667	1	-0.002000
6.383333	1	-0.001000
6.400000	1	-0.000375
6.416667	1	0.000250
6.433333	1	0.000375
6.450000	1	0.000750
6.466667	1	0.001375
6.483333	1	0.001625
6.500000	1	0.001500
6.516667	1	0.001875
6.533333	1	0.002250
6.550000	1	0.002250
6.566667	1	0.001750
6.583333	1	0.002125
6.600000	1	0.002375
6.616667	1	0.002500
6.633333	1	0.002000
6.650000	1	0.001250
6.666667	1	0.001250
6.683333	1	0.001000
6.700000	1	0.001000
6.716667	1	0.000250
6.733333	1	-0.000500
6.750000	1	-0.001000
6.766667	1	-0.001375
6.783333	1	-0.001875
6.800000	1	-0.003125
6.816667	1	-0.003250
6.833333	1	-0.004375
6.850000	1	-0.005250
6.866667	1	-0.006000
6.883333	1	-0.006625
6.900000	1	-0.007250
6.916667	1	-0.008125
6.933333	1	-0.008875
6.950000	1	-0.008875
6.966667	1	-0.009625
6.983333	1	-0.010625
7.000000	1	-0.011750
7.016667	1	-0.011875
7.033333	1	-0.012375
7.050000	1	-0.013125
7.066667	1	-0.013375
7.083333	1	-0.013625
7.100000	1	-0.014250
7.116667	1	-0.014000
7.133333	1	-0.014250
7.150000	1	-0.014625
7.166667	1	-0.014000
7.183333	1	-0.013000
7.200000	1	-0.012125
7.216667	1	-0.011625
7.233333	1	-0.011625
7.250000	1	-0.011125
7.266667	1	-0.010625
7.283333	1	-0.010000
7.300000	1	-0.009875
7.316667	1	-0.009250
7.333333	1	-0.008625
7.350000	1	-0.008000
7.366667	1	-0.007125
7.383333	1	-0.005875
7.400000	1	-0.005750
7.416667	1	-0.005250
7.433333	1	-0.004625
7.450000	1	-0.003875
7.466667	1	-0.004375
7.483333	1	-0.004625
7.500000	1	-0.004125
7.516667	1	-0.003375
7.533333	1	-0.003500
7.550000	1	-0.003375
7.566667	1	-0.002875
7.583333	1	-0.003500
7.600000	1	-0.003250
7.616667	1	-0.003500
7.633333	1	-0.003750
7.650000	1	-0.004125
7.666667	1	-0.004250
7.683333	1	-0.004750
7.700000	1	-0.004750
7.716667	1	-0.005125
7.733333	1	-0.005375
7.750000	1	-0.005375
7.766667	1	-0.006250
7.783333	1	-0.007250
7.800000	1	-0.008000
7.816667	1	-0.008750
7.833333	1	-0.009625
7.850000	1	-0.010500
7.866667	1	-0.011625
7.883333	1	-0.011875
7.900000	1	-0.013125
7.916667	1	-0.014125
7.933333	1	-0.015375
7.950000	1	-0.016875
7.966667	1	-0.018125
7.983333	1	-0.019375
8.000000	1	-0.020625
8.016667	1	-0.022750
8.033333	1	-0.024000
8.050000	1	-0.025375
8.066667	1	-0.027000
8.083333	1	-0.028125
8.100000	1	-0.030125
8.116667	1	-0.031750
8.133333	1	-0.034125
8.150000	1	-0.036000
8.166667	1	-0.037625
8.183333	1	-0.040250
8.200000	1	-0.042625
8.216667	1	-0.045250
8.233333	1	-0.047375
8.250000	1	-0.050125
8.266667	1	-0.052500
8.283333	1	-0.055125
8.300000	1	-0.057750
8.316667	1	-0.061125
8.333333	1	-0.063125
8.350000	1	-0.066125
8.366667	1	-0.068875
8.383333	1	-0.071125
8.400000	1	-0.073625
8.416667	1	-0.077125
8.433333	1	-0.079250
8.450000	1	-0.082250
8.466667	1	-0.084375
8.483333	1	-0.087750
8.500000	1	-0.091000
8.516667	1	-0.094125
8.533333	1	-0.096500
8.550000	1	-0.099375
8.566667	1	-0.102250
8.583333	1	-0.104625
8.600000	1	-0.107250
8.616667	1	-0.109750
8.633333	1	-0.111875
8.650000	1	-0.114625
8.666667	1	-0.117000
8.683333	1	-0.118875
8.700000	1	-0.121250
8.716667	1	-0.123625
8.733333	1	-0.125625
8.750000	1	-0.128125
8.766667	1	-0.129875
8.783333	1	-0.131875
8.800000	1	-0.133125
8.816667	1	-0.135125
8.833333	1	-0.136750
8.850000	1	-0.138125
8.866667	1	-0.138875
8.883333	1	-0.140125
8.900000	1	-0.141000
8.916667	1	-0.142500
8.933333	1	-0.143375
8.950000	1	-0.144250
8.966667	1	-0.144875
8.983333	1	-0.144750
9.000000	1	-0.145125
9.016667	1	-0.145500
9.033333	1	-0.145875
9.050000	1	-0.145875
9.066667	1	-0.146000
9.083333	1	-0.145875
9.100000	1	-0.145750
9.116667	1	-0.144875
9.133333	1	-0.144750
9.150000	1	-0.144625
9.166667	1	-0.143625
9.183333	1	-0.142875
9.200000	1	-0.141875
9.216667	1	-0.141125
9.233333	1	-0.139250
9.250000	1	-0.138250
9.266667	1	-0.137125
9.283333	1	-0.136125
9.300000	1	-0.135125
9.316667	1	-0.134125
9.333333	1	-0.133500
9.350000	1	-0.131875
9.366667	1	-0.130750
9.383333	1	-0.129125
9.400000	1	-0.127750
9.416667	1	-0.126000
9.433333	1	-0.124125
9.450000	1	-0.122625
9.466667	1	-0.120500
9.483333	1	-0.118500
9.500000	1	-0.115375
9.516667	1	-0.113000
9.533333	1	-0.111125
9.550000	1	-0.108625
9.566667	1	-0.105875
9.583333	1	-0.102125
9.600000	1	-0.098750
9.616667	1	-0.095375
9.633333	1	-0.090375
9.650000	1	-0.085750
9.666667	1	-0.080750
9.683333	1	-0.075125
9.700000	1	-0.068625
9.716667	1	-0.060625
9.733333	1	-0.050750
9.750000	1	-0.039625
9.766667	1	-0.027375
9.783333	1	-0.012125
9.800000	1	0.005250
9.816667	1	0.025625
9.833333	1	0.049750
9.850000	1	0.076000
9.866667	1	0.106625
9.883333	1	0.140250
9.900000	1	0.177375
9.916667	1	0.217375
9.933333	1	0.260250
9.950000	1	0.305375
9.966667	1	0.354000
9.983333	1	0.404250
10.000000	1	0.457375
10.016667	1	0.513875
10.033333	1	0.572125
10.050000	1	0.628250
10.066667	1	0.677000
10.083333	1	0.709875
10.100000	1	0.717875
10.116667	1	0.696500
10.133333	1	0.645500
10.150000	1	0.572125
10.166667	1	0.490625
10.183333	1	0.422000
10.200000	1	0.394875
10.216667	1	0.442000
10.233333	1	0.600875
10.250000	1	0.911875
10.266667	1	1.418875
10.283333	1	2.166375
10.300000	1	3.201375
10.316667	1	4.569875
10.333333	1	6.315875
10.350000	1	8.482125
10.366667	1	11.105750
10.383333	1	14.219500
10.400000	1	17.855250
10.416667	1	22.039625
10.433333	1	26.789000
10.450000	1	32.104375
10.466667	1	37.986500
10.483333	1	44.414875
10.500000	1	51.346000
10.516667	1	58.700500
10.533333	1	66.353625
10.550000	1	74.133500
10.566667	1	81.822625
10.583333	1	89.165750
10.600000	1	95.899000
10.616667	1	101.753750
10.633333	1	106.483250
10.650000	1	109.877875
10.666667	1	111.774625
10.683333	1	112.053375
10.700000	1	110.653875
10.716667	1	107.597500
10.733333	1	103.000250
10.750000	1	97.076375
10.766667	1	90.112750
10.783333	1	82.443375
10.800000	1	74.406875
10.816667	1	66.316250
10.833333	1	58.453375
10.850000	1	51.044500
10.866667	1	44.246500
10.883333	1	38.166250
10.900000	1	32.852125
10.916667	1	28.305000
10.933333	1	24.486500
10.950000	1	21.330875
10.966667	1	18.755000
10.983333	1	16.672625
11.000000	1	14.996500
11.016667	1	13.647000
11.033333	1	12.555750
11.050000	1	11.664125
11.066667	1	10.924875
11.083333	1	10.301000
11.100000	1	9.761375
11.116667	1	9.285000
11.133333	1	8.854375
11.150000	1	8.457000
11.166667	1	8.084500
11.183333	1	7.730125
11.200000	1	7.390875
11.216667	1	7.062375
11.233333	1	6.744875
11.250000	1	6.437625
11.266667	1	6.141250
11.283333	1	5.856500
11.300000	1	5.582625
11.316667	1	5.322000
11.333333	1	5.074625
11.350000	1	4.842250
11.366667	1	4.625625
11.383333	1	4.425750
11.400000	1	4.245000
11.416667	1	4.083375
11.433333	1	3.941000
11.450000	1	3.817875
11.466667	1	3.714000
11.483333	1	3.627000
11.500000	1	3.554250
11.516667	1	3.494000
11.533333	1	3.443250
11.550000	1	3.399625
11.566667	1	3.360125
11.583333	1	3.322375
11.600000	1	3.286875
11.616667	1	3.251125
11.633333	1	3.216625
11.650000	1	3.182250
11.666667	1	3.148250
11.683333	1	3.115500
11.700000	1	3.083500
11.716667	1	3.051875
11.733333	1	3.020375
11.750000	1	2.987875
11.766667	1	2.954875
11.783333	1	2.920500
11.800000	1	2.883875
11.816667	1	2.845750
11.833333	1	2.804875
11.850000	1	2.763625
11.866667	1	2.721000
11.883333	1	2.677750
11.900000	1	2.635125
11.916667	1	2.592375
11.933333	1	2.551000
11.950000	1	2.509375
11.966667	1	2.468875
11.983333	1	2.429000
12.000000	1	2.389375
12.016667	1	2.351125
12.033333	1	2.312750
12.050000	1	2.275125
12.066667	1	2.237375
12.083333	1	2.200000
12.100000	1	2.164375
12.116667	1	2.129500
12.133333	1	2.094750
12.150000	1	2.060875
12.166667	1	2.027750
12.183333	1	1.997125
12.200000	1	1.967375
12.216667	1	1.939875
12.233333	1	1.913375
12.250000	1	1.888625
12.266667	1	1.866500
12.283333	1	1.847125
12.300000	1	1.830250
12.316667	1	1.817250
12.333333	1	1.807500
12.350000	1	1.802125
12.366667	1	1.803250
12.383333	1	1.810625
12.400000	1	1.825750
12.416667	1	1.850750
12.433333	1	1.886750
12.450000	1	1.936250
12.466667	1	2.002250
12.483333	1	2.086625
12.500000	1	2.194000
12.516667	1	2.327875
12.533333	1	2.492000
12.550000	1	2.693250
12.566667	1	2.933625
12.583333	1	3.217500
12.600000	1	3.547875
12.616667	1	3.924375
12.633333	1	4.345000
12.650000	1	4.808000
12.666667	1	5.309750
12.683333	1	5.843125
12.700000	1	6.401750
12.716667	1	6.979625
12.733333	1	7.568750
12.750000	1	8.165500
12.766667	1	8.766375
12.783333	1	9.366750
12.800000	1	9.967250
12.816667	1	10.567750
12.833333	1	11.169125
12.850000	1	11.773750
12.866667	1	12.382750
12.883333	1	12.997750
12.900000	1	13.618875
12.916667	1	14.246375
12.933333	1	14.878125
12.950000	1	15.510875
12.966667	1	16.139250
12.983333	1	16.755250
13.000000	1	17.349750
13.016667	1	17.913750
13.033333	1	18.437750
13.050000	1	18.913625
13.066667	1	19.334000
13.083333	1	19.691625
13.100000	1	19.981250
13.116667	1	20.198000
13.133333	1	20.339500
13.150000	1	20.406125
13.166667	1	20.398625
13.183333	1	20.319875
13.200000	1	20.173625
13.216667	1	19.966000
13.233333	1	19.702125
13.250000	1	19.387375
13.266667	1	19.029000
13.283333	1	18.632500
13.300000	1	18.203750
13.316667	1	17.748250
13.333333	1	17.271250
13.350000	1	16.777750
13.366667	1	16.272000
13.383333	1	15.757000
13.400000	1	15.236750
13.416667	1	14.713125
13.433333	1	14.187875
13.450000	1	13.660625
13.466667	1	13.132875
13.483333	1	12.603875
13.500000	1	12.072125
13.516667	1	11.538375
13.533333	1	11.000750
13.550000	1	10.460375
13.566667	1	9.918000
13.583333	1	9.376375
13.600000	1	8.840250
13.616667	1	8.314625
13.633333	1	7.804875
13.650000	1	7.315500
13.666667	1	6.853500
13.683333	1	6.424000
13.700000	1	6.031500
13.716667	1	5.678250
13.733333	1	5.367875
13.750000	1	5.099250
13.766667	1	4.871625
13.783333	1	4.682500
13.800000	1	4.526500
13.816667	1	4.400000
13.833333	1	4.296375
13.850000	1	4.210875
13.866667	1	4.139125
13.883333	1	4.076750
13.900000	1	4.021500
13.916667	1	3.969750
13.933333	1	3.921375
13.950000	1	3.873750
13.966667	1	3.828750
13.983333	1	3.784375
14.000000	1	3.740625
14.016667	1	3.698000
14.033333	1	3.654625
14.050000	1	3.611000
14.066667	1	3.564625
14.083333	1	3.515625
14.100000	1	3.462375
14.116667	1	3.404500
14.133333	1	3.342375
14.150000	1	3.274500
14.166667	1	3.201625
14.183333	1	3.123500
14.200000	1	3.041500
14.216667	1	2.957250
14.233333	1	2.873000
14.250000	1	2.788875
14.266667	1	2.707250
14.283333	1	2.630750
14.300000	1	2.560875
14.316667	1	2.499875
14.333333	1	2.449500
14.350000	1	2.411625
14.366667	1	2.386125
14.383333	1	2.375875
14.400000	1	2.382125
14.416667	1	2.403875
14.433333	1	2.444375
14.450000	1	2.504000
14.466667	1	2.581625
14.483333	1	2.679250
14.500000	1	2.796500
14.516667	1	2.933500
14.533333	1	3.089750
14.550000	1	3.265875
14.566667	1	3.460750
14.583333	1	3.674375
14.600000	1	3.905250
14.616667	1	4.152875
14.633333	1	4.416625
14.650000	1	4.695625
14.666667	1	4.987125
14.683333	1	5.288750
14.700000	1	5.597875
14.716667	1	5.910625
14.733333	1	6.223250
14.750000	1	6.534375
14.766667	1	6.840500
14.783333	1	7.141875
14.800000	1	7.439250
14.816667	1	7.736875
14.833333	1	8.041375
14.850000	1	8.361625
14.866667	1	8.708125
14.883333	1	9.092875
14.900000	1	9.528750
14.916667	1	10.026375
14.933333	1	10.595375
14.950000	1	11.238750
14.966667	1	11.956750
14.983333	1	12.743000
15.000000	1	13.586125
15.016667	1	14.470000
15.033333	1	15.376500
15.050000	1	16.283750
15.066667	1	17.172625
15.083333	1	18.022500
15.100000	1	18.816375
15.116667	1	19.540750
15.133333	1	20.186625
15.150000	1	20.747750
15.166667	1	21.222000
15.183333	1	21.608125
15.200000	1	21.907000
15.216667	1	22.118250
15.233333	1	22.244125
15.250000	1	22.282500
15.266667	1	22.233000
15.283333	1	22.094500
15.300000	1	21.865500
15.316667	1	21.548250
15.333333	1	21.141375
15.350000	1	20.650000
15.366667	1	20.077125
15.383333	1	19.431500
15.400000	1	18.719500
15.416667	1	17.950125
15.433333	1	17.134875
15.450000	1	16.283625
15.466667	1	15.408250
15.483333	1	14.519750
15.500000	1	13.628625
15.516667	1	12.745875
15.533333	1	11.879500
15.550000	1	11.038000
15.566667	1	10.228750
15.583333	1	9.457375
15.600000	1	8.729250
15.616667	1	8.047500
15.633333	1	7.414500
15.650000	1	6.831875
15.666667	1	6.299125
15.683333	1	5.816375
15.700000	1	5.383625
15.716667	1	4.997125
15.733333	1	4.655750
15.750000	1	4.355500
15.766667	1	4.093375
15.783333	1	3.866125
15.800000	1	3.670375
15.816667	1	3.503375
15.833333	1	3.362875
15.850000	1	3.245750
15.866667	1	3.151875
15.883333	1	3.078250
15.900000	1	3.024250
15.916667	1	2.988625
15.933333	1	2.969625
15.950000	1	2.966500
15.966667	1	2.978375
15.983333	1	3.003625
16.000000	1	3.040000
16.016667	1	3.085250
16.033333	1	3.139000
16.050000	1	3.197750
16.066667	1	3.261500
16.083333	1	3.328875
16.100000	1	3.399375
16.116667	1	3.473875
16.133333	1	3.552875
16.150000	1	3.639625
16.166667	1	3.735250
16.183333	1	3.844750
16.200000	1	3.969000
16.216667	1	4.110875
16.233333	1	4.271625
16.250000	1	4.452375
16.266667	1	4.651625
16.283333	1	4.865250
16.300000	1	5.090750
16.316667	1	5.321875
16.333333	1	5.554750
16.350000	1	5.781375
16.366667	1	5.997125
16.383333	1	6.198250
16.400000	1	6.380875
16.416667	1	6.540625
16.433333	1	6.677250
16.450000	1	6.790375
16.466667	1	6.879625
16.483333	1	6.946250
16.500000	1	6.991125
16.516667	1	7.016500
16.533333	1	7.022000
16.550000	1	7.009750
16.566667	1	6.979500
16.583333	1	6.931875
16.600000	1	6.867875
16.616667	1	6.785750
16.633333	1	6.685875
16.650000	1	6.567750
16.666667	1	6.431250
16.683333	1	6.277875
16.700000	1	6.108250
16.716667	1	5.923875
16.733333	1	5.726625
16.750000	1	5.518625
16.766667	1	5.303000
16.783333	1	5.080750
16.800000	1	4.854750
16.816667	1	4.628375
16.833333	1	4.403250
16.850000	1	4.181750
16.866667	1	3.965875
16.883333	1	3.757250
16.900000	1	3.558750
16.916667	1	3.368375
16.933333	1	3.190000
16.950000	1	3.023000
16.966667	1	2.867750
16.983333	1	2.724625
17.000000	1	2.593125
17.016667	1	2.473125
17.033333	1	2.364250
17.050000	1	2.265750
17.066667	1	2.177750
17.083333	1	2.099000
17.100000	1	2.029250
17.116667	1	1.967375
17.133333	1	1.912250
17.150000	1	1.863875
17.166667	1	1.821750
17.183333	1	1.784250
17.200000	1	1.751750
17.216667	1	1.722750
17.233333	1	1.696625
17.250000	1	1.672750
17.266667	1	1.651500
17.283333	1	1.631875
17.300000	1	1.613125
17.316667	1	1.596125
17.333333	1	1.579625
17.350000	1	1.564250
17.366667	1	1.549000
17.383333	1	1.534500
17.400000	1	1.520625
17.416667	1	1.507250
17.433333	1	1.493500
17.450000	1	1.480250
17.466667	1	1.467875
17.483333	1	1.456000
17.500000	1	1.445375
17.516667	1	1.434500
17.533333	1	1.423375
17.550000	1	1.413250
17.566667	1	1.403250
17.583333	1	1.394000
17.600000	1	1.385500
17.616667	1	1.377375
17.633333	1	1.370375
17.650000	1	1.363750
17.666667	1	1.357500
17.683333	1	1.352625
17.700000	1	1.348625
17.716667	1	1.346125
17.733333	1	1.343875
17.750000	1	1.343625
17.766667	1	1.344125
17.783333	1	1.346500
17.800000	1	1.350625
17.816667	1	1.356750
17.833333	1	1.364625
17.850000	1	1.373875
17.866667	1	1.385000
17.883333	1	1.398625
17.900000	1	1.413750
17.916667	1	1.430250
17.933333	1	1.449125
17.950000	1	1.470000
17.966667	1	1.490875
17.983333	1	1.513750
18.000000	1	1.537625
18.016667	1	1.562125
18.033333	1	1.586500
18.050000	1	1.611500
18.066667	1	1.637000
18.083333	1	1.661875
18.100000	1	1.685375
18.116667	1	1.708875
18.133333	1	1.730500
18.150000	1	1.751875
18.166667	1	1.772250
18.183333	1	1.791375
18.200000	1	1.809125
18.216667	1	1.825375
18.233333	1	1.840125
18.250000	1	1.853375
18.266667	1	1.863750
18.283333	1	1.872500
18.300000	1	1.879000
18.316667	1	1.883750
18.333333	1	1.886125
18.350000	1	1.885500
18.366667	1	1.883125
18.383333	1	1.877625
18.400000	1	1.870500
18.416667	1	1.862375
18.433333	1	1.852000
18.450000	1	1.839875
18.466667	1	1.826375
18.483333	1	1.811625
18.500000	1	1.796250
18.516667	1	1.779500
18.533333	1	1.761875
18.550000	1	1.743375
18.566667	1	1.725125
18.583333	1	1.706250
18.600000	1	1.685750
18.616667	1	1.665875
18.633333	1	1.645125
18.650000	1	1.623625
18.666667	1	1.602375
18.683333	1	1.580750
18.700000	1	1.558250
18.716667	1	1.535375
18.733333	1	1.513125
18.750000	1	1.491875
18.766667	1	1.470000
18.783333	1	1.448500
18.800000	1	1.427125
18.816667	1	1.406625
18.833333	1	1.386625
18.850000	1	1.367250
18.866667	1	1.347750
18.883333	1	1.329250
18.900000	1	1.311000
18.916667	1	1.293500
18.933333	1	1.276875
18.950000	1	1.260250
18.966667	1	1.244125
18.983333	1	1.228500
19.000000	1	1.213500
19.016667	1	1.199750
19.033333	1	1.186375
19.050000	1	1.173375
19.066667	1	1.160875
19.083333	1	1.149625
19.100000	1	1.140125
19.116667	1	1.131875
19.133333	1	1.124875
19.150000	1	1.119625
19.166667	1	1.118250
19.183333	1	1.119125
19.200000	1	1.122750
19.216667	1	1.128375
19.233333	1	1.137875
19.250000	1	1.151000
19.266667	1	1.167250
19.283333	1	1.187125
19.300000	1	1.209500
19.316667	1	1.234625
19.333333	1	1.262750
19.350000	1	1.293000
19.366667	1	1.325250
19.383333	1	1.358750
19.400000	1	1.392750
19.416667	1	1.427875
19.433333	1	1.462750
19.450000	1	1.497000
19.466667	1	1.530375
19.483333	1	1.562625
19.500000	1	1.593125
19.516667	1	1.621500
19.533333	1	1.648500
19.550000	1	1.673375
19.566667	1	1.695750
19.583333	1	1.716000
19.600000	1	1.733250
19.616667	1	1.748375
19.633333	1	1.760625
19.650000	1	1.770250
19.666667	1	1.777375
19.683333	1	1.781750
19.700000	1	1.783500
19.716667	1	1.781375
19.733333	1	1.776625
19.750000	1	1.768250
19.766667	1	1.757625
19.783333	1	1.744875
19.800000	1	1.729875
19.816667	1	1.712000
19.833333	1	1.693125
19.850000	1	1.672750
19.866667	1	1.650750
19.883333	1	1.628250
19.900000	1	1.606250
19.916667	1	1.585500
19.933333	1	1.565625
19.950000	1	1.547250
19.966667	1	1.530625
19.983333	1	1.516250
20.000000	1	1.505500
20.016667	1	1.497000
20.033333	1	1.490750
20.050000	1	1.487250
20.066667	1	1.486000
20.083333	1	1.487000
20.100000	1	1.490500
20.116667	1	1.495250
20.133333	1	1.501750
20.150000	1	1.509375
20.166667	1	1.517250
20.183333	1	1.526000
20.200000	1	1.535875
20.216667	1	1.546125
20.233333	1	1.555500
20.250000	1	1.565750
20.266667	1	1.575750
20.283333	1	1.586000
20.300000	1	1.595250
20.316667	1	1.605625
20.333333	1	1.615125
20.350000	1	1.625375
20.366667	1	1.635375
20.383333	1	1.645750
20.400000	1	1.657875
20.416667	1	1.670750
20.433333	1	1.684625
20.450000	1	1.699500
20.466667	1	1.716250
20.483333	1	1.733375
20.500000	1	1.751750
20.516667	1	1.771500
20.533333	1	1.792500
20.550000	1	1.815125
20.566667	1	1.837000
20.583333	1	1.859875
20.600000	1	1.882500
20.616667	1	1.904500
20.633333	1	1.925125
20.650000	1	1.944875
20.666667	1	1.962625
20.683333	1	1.978875
20.700000	1	1.992875
20.716667	1	2.004625
20.733333	1	2.014875
20.750000	1	2.023500
20.766667	1	2.030250
20.783333	1	2.035625
20.800000	1	2.039125
20.816667	1	2.041625
20.833333	1	2.043375
20.850000	1	2.043250
20.866667	1	2.043375
20.883333	1	2.042375
20.900000	1	2.041250
20.916667	1	2.038500
20.933333	1	2.034625
20.950000	1	2.029125
20.966667	1	2.022500
20.983333	1	2.013750
21.000000	1	2.003375
21.016667	1	1.992250
21.033333	1	1.978500
21.050000	1	1.961875
21.066667	1	1.941875
21.083333	1	1.919875
21.100000	1	1.895875
21.116667	1	1.869625
21.133333	1	1.841125
21.150000	1	1.811250
21.166667	1	1.779875
21.183333	1	1.747250
21.200000	1	1.713000
21.216667	1	1.678375
21.233333	1	1.643875
21.250000	1	1.610000
21.266667	1	1.577000
21.283333	1	1.544875
21.300000	1	1.514375
21.316667	1	1.485000
21.333333	1	1.456625
21.350000	1	1.429750
21.366667	1	1.404500
21.383333	1	1.380000
21.400000	1	1.356750
21.416667	1	1.333875
21.433333	1	1.311125
21.450000	1	1.288875
21.466667	1	1.266250
21.483333	1	1.243875
21.500000	1	1.220500
21.516667	1	1.196625
21.533333	1	1.171875
21.550000	1	1.146750
21.566667	1	1.120125
21.583333	1	1.093500
21.600000	1	1.066750
21.616667	1	1.039250
21.633333	1	1.011500
21.650000	1	0.983750
21.666667	1	0.956125
21.683333	1	0.928250
21.700000	1	0.901250
21.716667	1	0.875875
21.733333	1	0.850625
21.750000	1	0.826250
21.766667	1	0.803125
21.783333	1	0.782000
21.800000	1	0.762000
21.816667	1	0.743625
21.833333	1	0.726500
21.850000	1	0.711375
21.866667	1	0.697125
21.883333	1	0.684125
21.900000	1	0.673750
21.916667	1	0.665500
21.933333	1	0.659125
21.950000	1	0.655000
21.966667	1	0.652125
21.983333	1	0.651625
22.000000	1	0.652875
22.016667	1	0.656875
22.033333	1	0.661875
22.050000	1	0.669125
22.066667	1	0.678625
22.083333	1	0.690000
22.100000	1	0.702250
22.116667	1	0.716000
22.133333	1	0.731375
22.150000	1	0.747875
22.166667	1	0.764250
22.183333	1	0.781750
22.200000	1	0.799375
22.216667	1	0.816125
22.233333	1	0.833250
22.250000	1	0.849750
22.266667	1	0.867375
22.283333	1	0.883375
22.300000	1	0.897875
22.316667	1	0.912250
22.333333	1	0.925375
22.350000	1	0.937000
22.366667	1	0.947750
22.383333	1	0.957750
22.400000	1	0.965625
22.416667	1	0.971875
22.433333	1	0.976250
22.450000	1	0.979625
22.466667	1	0.980500
22.483333	1	0.980125
22.500000	1	0.978250
22.516667	1	0.974250
22.533333	1	0.969625
22.550000	1	0.963000
22.566667	1	0.954500
22.583333	1	0.944375
22.600000	1	0.932625
22.616667	1	0.919375
22.633333	1	0.905750
22.650000	1	0.890875
22.666667	1	0.875750
22.683333	1	0.860000
22.700000	1	0.844000
22.716667	1	0.828375
22.733333	1	0.812500
22.750000	1	0.797750
22.766667	1	0.784000
22.783333	1	0.771250
22.800000	1	0.759375
22.816667	1	0.748625
22.833333	1	0.738875
22.850000	1	0.730500
22.866667	1	0.723125
22.883333	1	0.717000
22.900000	1	0.712125
22.916667	1	0.708500
22.933333	1	0.706375
22.950000	1	0.704625
22.966667	1	0.703250
22.983333	1	0.702375
23.000000	1	0.702375
23.016667	1	0.702625
23.033333	1	0.702000
23.050000	1	0.701875
23.066667	1	0.701750
23.083333	1	0.701875
23.100000	1	0.701125
23.116667	1	0.700500
23.133333	1	0.699375
23.150000	1	0.698250
23.166667	1	0.697000
23.183333	1	0.695500
23.200000	1	0.693625
23.216667	1	0.690750
23.233333	1	0.687250
23.250000	1	0.683125
23.266667	1	0.678250
23.283333	1	0.673125
23.300000	1	0.668875
23.316667	1	0.664125
23.333333	1	0.658500
23.350000	1	0.652125
23.366667	1	0.645000
23.383333	1	0.637875
23.400000	1	0.630500
23.416667	1	0.622750
23.433333	1	0.614750
23.450000	1	0.606375
23.466667	1	0.597500
23.483333	1	0.589125
23.500000	1	0.580250
23.516667	1	0.571875
23.533333	1	0.563125
23.550000	1	0.554000
23.566667	1	0.545250
23.583333	1	0.537250
23.600000	1	0.529000
23.616667	1	0.521125
23.633333	1	0.513750
23.650000	1	0.506625
23.666667	1	0.500250
23.683333	1	0.494375
23.700000	1	0.489250
23.716667	1	0.485375
23.733333	1	0.482000
23.750000	1	0.480750
23.766667	1	0.481375
23.783333	1	0.483125
23.800000	1	0.487375
23.816667	1	0.494250
23.833333	1	0.503375
23.850000	1	0.515750
23.866667	1	0.531125
23.883333	1	0.549875
23.900000	1	0.571500
23.916667	1	0.597250
23.933333	1	0.626375
23.950000	1	0.658625
23.966667	1	0.694375
23.983333	1	0.733125
24.000000	1	0.774250
24.016667	1	0.817875
24.033333	1	0.863500
24.050000	1	0.910375
24.066667	1	0.958000
24.083333	1	1.006875
24.100000	1	1.055500
24.116667	1	1.103375
24.133333	1	1.150875
24.150000	1	1.197625
24.166667	1	1.242375
24.183333	1	1.284875
24.200000	1	1.325750
24.216667	1	1.363750
24.233333	1	1.399750
24.250000	1	1.433125
24.266667	1	1.463375
24.283333	1	1.491625
24.300000	1	1.516625
24.316667	1	1.539250
24.333333	1	1.559000
24.350000	1	1.575500
24.366667	1	1.588125
24.383333	1	1.597750
24.400000	1	1.604500
24.416667	1	1.606875
24.433333	1	1.605500
24.450000	1	1.601500
24.466667	1	1.594000
24.483333	1	1.581625
24.500000	1	1.565625
24.516667	1	1.547125
24.533333	1	1.524750
24.550000	1	1.499500
24.566667	1	1.471125
24.583333	1	1.441000
24.600000	1	1.408500
24.616667	1	1.374000
24.633333	1	1.338000
24.650000	1	1.300500
24.666667	1	1.263750
24.683333	1	1.226625
24.700000	1	1.190000
24.716667	1	1.153500
24.733333	1	1.118625
24.750000	1	1.085125
24.766667	1	1.054125
24.783333	1	1.024625
24.800000	1	0.996250
24.816667	1	0.970625
24.833333	1	0.946125
24.850000	1	0.923875
24.866667	1	0.903500
24.883333	1	0.885125
24.900000	1	0.868750
24.916667	1	0.853375
24.933333	1	0.840250
24.950000	1	0.828750
24.966667	1	0.817250
24.983333	1	0.807500
25.000000	1	0.798750
25.016667	1	0.790875
25.033333	1	0.783000
25.050000	1	0.776125
25.066667	1	0.768500
25.083333	1	0.762000
25.100000	1	0.755625
25.116667	1	0.747750
25.133333	1	0.740250
25.150000	1	0.732625
25.166667	1	0.724000
25.183333	1	0.715125
25.200000	1	0.705000
25.216667	1	0.694500
25.233333	1	0.683625
25.250000	1	0.670875
25.266667	1	0.658250
25.283333	1	0.644625
25.300000	1	0.630750
25.316667	1	0.615625
25.333333	1	0.600625
25.350000	1	0.584625
25.366667	1	0.568875
25.383333	1	0.552750
25.400000	1	0.536500
25.416667	1	0.519500
25.433333	1	0.503000
25.450000	1	0.486875
25.466667	1	0.471125
25.483333	1	0.456500
25.500000	1	0.441625
25.516667	1	0.427000
25.533333	1	0.413750
25.550000	1	0.401625
25.566667	1	0.389875
25.583333	1	0.378625
25.600000	1	0.367875
25.616667	1	0.358375
25.633333	1	0.349500
25.650000	1	0.342625
25.666667	1	0.335875
25.683333	1	0.329875
25.700000	1	0.324500
25.716667	1	0.320500
25.733333	1	0.317125
25.750000	1	0.313750
25.766667	1	0.311125
25.783333	1	0.308875
25.800000	1	0.307500
25.816667	1	0.306375
25.833333	1	0.306625
25.850000	1	0.306500
25.866667	1	0.307625
25.883333	1	0.308625
25.900000	1	0.309625
25.916667	1	0.311500
25.933333	1	0.312625
25.950000	1	0.314250
25.966667	1	0.316625
25.983333	1	0.318750
26.000000	1	0.321125
26.016667	1	0.324125
26.033333	1	0.327375
26.050000	1	0.330000
26.066667	1	0.333250
26.083333	1	0.336375
26.100000	1	0.340000
26.116667	1	0.342625
26.133333	1	0.346375
26.150000	1	0.349000
26.166667	1	0.351625
26.183333	1	0.354375
26.200000	1	0.356250
26.216667	1	0.358875
26.233333	1	0.361500
26.250000	1	0.363500
26.266667	1	0.366000
26.283333	1	0.368125
26.300000	1	0.370375
26.316667	1	0.372750
26.333333	1	0.375250
26.350000	1	0.377750
26.366667	1	0.379375
26.383333	1	0.381000
26.400000	1	0.383500
26.416667	1	0.386250
26.433333	1	0.388625
26.450000	1	0.392250
26.466667	1	0.395750
26.483333	1	0.399250
26.500000	1	0.402875
26.516667	1	0.406750
26.533333	1	0.410750
26.550000	1	0.414750
26.566667	1	0.418750
26.583333	1	0.423250
26.600000	1	0.428125
26.616667	1	0.433125
26.633333	1	0.437250
26.650000	1	0.442000
26.666667	1	0.446750
26.683333	1	0.451500
26.700000	1	0.455375
26.716667	1	0.460125
26.733333	1	0.464250
26.750000	1	0.468125
26.766667	1	0.472000
26.783333	1	0.475125
26.800000	1	0.477625
26.816667	1	0.480375
26.833333	1	0.482125
26.850000	1	0.484375
26.866667	1	0.485750
26.883333	1	0.486750
26.900000	1	0.487000
26.916667	1	0.486625
26.933333	1	0.485625
26.950000	1	0.483750
26.966667	1	0.482250
26.983333	1	0.480125
27.000000	1	0.478375
27.016667	1	0.475625
27.033333	1	0.472625
27.050000	1	0.469125
27.066667	1	0.465875
27.083333	1	0.462625
27.100000	1	0.458750
27.116667	1	0.454875
27.133333	1	0.450750
27.150000	1	0.446000
27.166667	1	0.440375
27.183333	1	0.435500
27.200000	1	0.430250
27.216667	1	0.424500
27.233333	1	0.418875
27.250000	1	0.413125
27.266667	1	0.407000
27.283333	1	0.400375
27.300000	1	0.393625
27.316667	1	0.386500
27.333333	1	0.379375
27.350000	1	0.372000
27.366667	1	0.363875
27.383333	1	0.356000
27.400000	1	0.347875
27.416667	1	0.338875
27.433333	1	0.330125
27.450000	1	0.321250
27.466667	1	0.313125
27.483333	1	0.304625
27.500000	1	0.296250
27.516667	1	0.287625
27.533333	1	0.279375
27.550000	1	0.271500
27.566667	1	0.263250
27.583333	1	0.255000
27.600000	1	0.248000
27.616667	1	0.240750
27.633333	1	0.234625
27.650000	1	0.229125
27.666667	1	0.224000
27.683333	1	0.219625
27.700000	1	0.216250
27.716667	1	0.214250
27.733333	1	0.213875
27.750000	1	0.214875
27.766667	1	0.217625
27.783333	1	0.222750
27.800000	1	0.232000
27.816667	1	0.242750
27.833333	1	0.257750
27.850000	1	0.276375
27.866667	1	0.299250
27.883333	1	0.326125
27.900000	1	0.358750
27.916667	1	0.396125
27.933333	1	0.439750
27.950000	1	0.489125
27.966667	1	0.544750
27.983333	1	0.606625
28.000000	1	0.675250
28.016667	1	0.749375
28.033333	1	0.830250
28.050000	1	0.916500
28.066667	1	1.008125
28.083333	1	1.104375
28.100000	1	1.205750
28.116667	1	1.310250
28.133333	1	1.416750
28.150000	1	1.524625
28.166667	1	1.634000
28.183333	1	1.742750
28.200000	1	1.850500
28.216667	1	1.955750
28.233333	1	2.059000
28.250000	1	2.158125
28.266667	1	2.253000
28.283333	1	2.342750
28.300000	1	2.428375
28.316667	1	2.508250
28.333333	1	2.582000
28.350000	1	2.651375
28.366667	1	2.714000
28.383333	1	2.771000
28.400000	1	2.822750
28.416667	1	2.868500
28.433333	1	2.909250
28.450000	1	2.945375
28.466667	1	2.975750
28.483333	1	3.001875
28.500000	1	3.023500
28.516667	1	3.039625
28.533333	1	3.050750
28.550000	1	3.057500
28.566667	1	3.058375
28.583333	1	3.053625
28.600000	1	3.043500
28.616667	1	3.027500
28.633333	1	3.005000
28.650000	1	2.976875
28.666667	1	2.941750
28.683333	1	2.900250
28.700000	1	2.851500
28.716667	1	2.795125
28.733333	1	2.732250
28.750000	1	2.662250
28.766667	1	2.586000
28.783333	1	2.503375
28.800000	1	2.416000
28.816667	1	2.323125
28.833333	1	2.225750
28.850000	1	2.124750
28.866667	1	2.020125
28.883333	1	1.913500
28.900000	1	1.805000
28.916667	1	1.695750
28.933333	1	1.586250
28.950000	1	1.477375
28.966667	1	1.370375
28.983333	1	1.265500
29.000000	1	1.164500
29.016667	1	1.066500
29.033333	1	0.971625
29.050000	1	0.880750
29.066667	1	0.794750
29.083333	1	0.713250
29.100000	1	0.635875
29.116667	1	0.564125
29.133333	1	0.497000
29.150000	1	0.435125
29.166667	1	0.378000
29.183333	1	0.325000
29.200000	1	0.277125
29.216667	1	0.233125
29.233333	1	0.193375
29.250000	1	0.157875
29.266667	1	0.125375
29.283333	1	0.095750
29.300000	1	0.069500
29.316667	1	0.046125
29.333333	1	0.025375
29.350000	1	0.007125
29.366667	1	-0.008500
29.383333	1	-0.022000
29.400000	1	-0.033500
29.416667	1	-0.043500
29.433333	1	-0.051250
29.450000	1	-0.057750
29.466667	1	-0.062500
29.483333	1	-0.066000
29.500000	1	-0.068250
29.516667	1	-0.069000
29.533333	1	-0.068125
29.550000	1	-0.066125
29.566667	1	-0.062875
29.583333	1	-0.058375
29.600000	1	-0.053000
29.616667	1	-0.045875
29.633333	1	-0.037750
29.650000	1	-0.029125
29.666667	1	-0.019625
29.683333	1	-0.008625
29.700000	1	0.003000
29.716667	1	0.015125
29.733333	1	0.029000
29.750000	1	0.042500
29.766667	1	0.056750
29.783333	1	0.071375
29.800000	1	0.086000
29.816667	1	0.101625
29.833333	1	0.117750
29.850000	1	0.133375
29.866667	1	0.149250
29.883333	1	0.165500
29.900000	1	0.181875
29.916667	1	0.197875
29.933333	1	0.213500
29.950000	1	0.228875
29.966667	1	0.244250
29.983333	1	0.258625
30.000000	1	0.272625
30.016667	1	0.286625
30.033333	1	0.299500
30.050000	1	0.312625
30.066667	1	0.324375
30.083333	1	0.335500
30.100000	1	0.345625
30.116667	1	0.355250
30.133333	1	0.363750
30.150000	1	0.372500
30.166667	1	0.380875
30.183333	1	0.387750
30.200000	1	0.394375
30.216667	1	0.400750
30.233333	1	0.406000
30.250000	1	0.410625
30.266667	1	0.415125
30.283333	1	0.419250
30.300000	1	0.422250
30.316667	1	0.425000
30.333333	1	0.427125
30.350000	1	0.429000
30.366667	1	0.430625
30.383333	1	0.432375
30.400000	1	0.432375
30.416667	1	0.432125
30.433333	1	0.432375
30.450000	1	0.431625
30.466667	1	0.431250
30.483333	1	0.430250
30.500000	1	0.428250
30.516667	1	0.426500
30.533333	1	0.423625
30.550000	1	0.421250
30.566667	1	0.418625
30.583333	1	0.415625
30.600000	1	0.411625
30.616667	1	0.407875
30.633333	1	0.403000
30.650000	1	0.399125
30.666667	1	0.395500
30.683333	1	0.391250
30.700000	1	0.386625
30.716667	1	0.382625
30.733333	1	0.378125
30.750000	1	0.375000
30.766667	1	0.371125
30.783333	1	0.367750
30.800000	1	0.364250
30.816667	1	0.361000
30.833333	1	0.358500
30.850000	1	0.356000
30.866667	1	0.354000
30.883333	1	0.352750
30.900000	1	0.351500
30.916667	1	0.350750
30.933333	1	0.350875
30.950000	1	0.351125
30.966667	1	0.351250
30.983333	1	0.353125
31.000000	1	0.354500
31.016667	1	0.356250
31.033333	1	0.358625
31.050000	1	0.361000
31.066667	1	0.363500
31.083333	1	0.366250
31.100000	1	0.369375
31.116667	1	0.372500
31.133333	1	0.376000
31.150000	1	0.379250
31.166667	1	0.382750
31.183333	1	0.386875
31.200000	1	0.390875
31.216667	1	0.394750
31.233333	1	0.398250
31.250000	1	0.401875
31.266667	1	0.405625
31.283333	1	0.408625
31.300000	1	0.412375
31.316667	1	0.415625
31.333333	1	0.418500
31.350000	1	0.421750
31.366667	1	0.424375
31.383333	1	0.426750
31.400000	1	0.428625
31.416667	1	0.430500
31.433333	1	0.431875
31.450000	1	0.433875
31.466667	1	0.435000
31.483333	1	0.436250
31.500000	1	0.437500
31.516667	1	0.437500
31.533333	1	0.437750
31.550000	1	0.437375
31.566667	1	0.436875
31.583333	1	0.436125
31.600000	1	0.435000
31.616667	1	0.432875
31.633333	1	0.431500
31.650000	1	0.429375
31.666667	1	0.426875
31.683333	1	0.424250
31.700000	1	0.421250
31.716667	1	0.417875
31.733333	1	0.414500
31.750000	1	0.410875
31.766667	1	0.406625
31.783333	1	0.402750
31.800000	1	0.398500
31.816667	1	0.394375
31.833333	1	0.389625
31.850000	1	0.385875
31.866667	1	0.381750
31.883333	1	0.378750
31.900000	1	0.375125
31.916667	1	0.371625
31.933333	1	0.369250
31.950000	1	0.366750
31.966667	1	0.364875
31.983333	1	0.363250
32.000000	1	0.361750
32.016667	1	0.361875
32.033333	1	0.361875
32.050000	1	0.362125
32.066667	1	0.363500
32.083333	1	0.365250
32.100000	1	0.368750
32.116667	1	0.372125
32.133333	1	0.375750
32.150000	1	0.379875
32.166667	1	0.385250
32.183333	1	0.390500
32.200000	1	0.396875
32.216667	1	0.404000
32.233333	1	0.410875
32.250000	1	0.418750
32.266667	1	0.426375
32.283333	1	0.434625
32.300000	1	0.442750
32.316667	1	0.451375
32.333333	1	0.460125
32.350000	1	0.469750
32.366667	1	0.478500
32.383333	1	0.488250
32.400000	1	0.497375
32.416667	1	0.506500
32.433333	1	0.516250
32.450000	1	0.525000
32.466667	1	0.533875
32.483333	1	0.542750
32.500000	1	0.550875
32.516667	1	0.559000
32.533333	1	0.567000
32.550000	1	0.574875
32.566667	1	0.582000
32.583333	1	0.588625
32.600000	1	0.594500
32.616667	1	0.600500
32.633333	1	0.606000
32.650000	1	0.610875
32.666667	1	0.615125
32.683333	1	0.618625
32.700000	1	0.621500
32.716667	1	0.624375
32.733333	1	0.626375
32.750000	1	0.627750
32.766667	1	0.627500
32.783333	1	0.627875
32.800000	1	0.627750
32.816667	1	0.626250
32.833333	1	0.624500
32.850000	1	0.622000
32.866667	1	0.618750
32.883333	1	0.615250
32.900000	1	0.610625
32.916667	1	0.605125
32.933333	1	0.598750
32.950000	1	0.591625
32.966667	1	0.584250
32.983333	1	0.576375
33.000000	1	0.567875
33.016667	1	0.558250
33.033333	1	0.548375
33.050000	1	0.539250
33.066667	1	0.528625
33.083333	1	0.517000
33.100000	1	0.505625
33.116667	1	0.492875
33.133333	1	0.479625
33.150000	1	0.466500
33.166667	1	0.453375
33.183333	1	0.440125
33.200000	1	0.426625
33.216667	1	0.412250
33.233333	1	0.398500
33.250000	1	0.383875
33.266667	1	0.369000
33.283333	1	0.354500
33.300000	1	0.340125
33.316667	1	0.325250
33.333333	1	0.310500
33.350000	1	0.296500
33.366667	1	0.282000
33.383333	1	0.267750
33.400000	1	0.254500
33.416667	1	0.240750
33.433333	1	0.226625
33.450000	1	0.213875
33.466667	1	0.201250
33.483333	1	0.188500
33.500000	1	0.175875
33.516667	1	0.163875
33.533333	1	0.152750
33.550000	1	0.141875
33.566667	1	0.131250
33.583333	1	0.122000
33.600000	1	0.113125
33.616667	1	0.103750
33.633333	1	0.095625
33.650000	1	0.087625
33.666667	1	0.080625
33.683333	1	0.073250
33.700000	1	0.067125
33.716667	1	0.061125
33.733333	1	0.055375
33.750000	1	0.049250
33.766667	1	0.044500
33.783333	1	0.040375
33.800000	1	0.035375
33.816667	1	0.030750
33.833333	1	0.026750
33.850000	1	0.023875
33.866667	1	0.020750
33.883333	1	0.017625
33.900000	1	0.014625
33.916667	1	0.011750
33.933333	1	0.009750
33.950000	1	0.007500
33.966667	1	0.005750
33.983333	1	0.003875
34.000000	1	0.002500
34.016667	1	0.000750
34.033333	1	-0.001250
34.050000	1	-0.002125
34.066667	1	-0.003250
34.083333	1	-0.003625
34.100000	1	-0.004500
34.116667	1	-0.005250
34.133333	1	-0.005250
34.150000	1	-0.005375
34.166667	1	-0.005000
34.183333	1	-0.004500
34.200000	1	-0.004125
34.216667	1	-0.002625
34.233333	1	-0.001875
34.250000	1	-0.000750
34.266667	1	0.000625
34.283333	1	0.002250
34.300000	1	0.004750
34.316667	1	0.007625
34.333333	1	0.010375
34.350000	1	0.014000
34.366667	1	0.017250
34.383333	1	0.021250
34.400000	1	0.026125
34.416667	1	0.030375
34.433333	1	0.035625
34.450000	1	0.040875
34.466667	1	0.046750
34.483333	1	0.052125
34.500000	1	0.057875
34.516667	1	0.064500
34.533333	1	0.070500
34.550000	1	0.077500
34.566667	1	0.084000
34.583333	1	0.090500
34.600000	1	0.097625
34.616667	1	0.104625
34.633333	1	0.111250
34.650000	1	0.117250
34.666667	1	0.123000
34.683333	1	0.129250
34.700000	1	0.135375
34.716667	1	0.141500
34.733333	1	0.147250
34.750000	1	0.152125
34.766667	1	0.157750
34.783333	1	0.162750
34.800000	1	0.167625
34.816667	1	0.172250
34.833333	1	0.176500
34.850000	1	0.179875
34.866667	1	0.184250
34.883333	1	0.187500
34.900000	1	0.190375
34.916667	1	0.193000
34.933333	1	0.195750
34.950000	1	0.198625
34.966667	1	0.200750
34.983333	1	0.202750
35.000000	1	0.204375
35.016667	1	0.205500
35.033333	1	0.206000
35.050000	1	0.207000
35.066667	1	0.206500
35.083333	1	0.206125
35.100000	1	0.206000
35.116667	1	0.205375
35.133333	1	0.204500
35.150000	1	0.202625
35.166667	1	0.200375
35.183333	1	0.197875
35.200000	1	0.195000
35.216667	1	0.192250
35.233333	1	0.189250
35.250000	1	0.185625
35.266667	1	0.181375
35.283333	1	0.176875
35.300000	1	0.172500
35.316667	1	0.167375
35.333333	1	0.162125
35.350000	1	0.157125
35.366667	1	0.152125
35.383333	1	0.147000
35.400000	1	0.140750
35.416667	1	0.134500
35.433333	1	0.128375
35.450000	1	0.122500
35.466667	1	0.116500
35.483333	1	0.111125
35.500000	1	0.105500
35.516667	1	0.100250
35.533333	1	0.094500
35.550000	1	0.088875
35.566667	1	0.084000
35.583333	1	0.079000
35.600000	1	0.074375
35.616667	1	0.070250
35.633333	1	0.065875
35.650000	1	0.062375
35.666667	1	0.058750
35.683333	1	0.055875
35.700000	1	0.052875
35.716667	1	0.050125
35.733333	1	0.047750
35.750000	1	0.045000
35.766667	1	0.042875
35.783333	1	0.040750
35.800000	1	0.039500
35.816667	1	0.038625
35.833333	1	0.037500
35.850000	1	0.036125
35.866667	1	0.035125
35.883333	1	0.034500
35.900000	1	0.034375
35.916667	1	0.034500
35.933333	1	0.034625
35.950000	1	0.035000
35.966667	1	0.035625
35.983333	1	0.036250
36.000000	1	0.037250
36.016667	1	0.038375
36.033333	1	0.040000
36.050000	1	0.040875
36.066667	1	0.041625
36.083333	1	0.042875
36.100000	1	0.044625
36.116667	1	0.046875
36.133333	1	0.049500
36.150000	1	0.051375
36.166667	1	0.054125
36.183333	1	0.056500
36.200000	1	0.059375
36.216667	1	0.062125
36.233333	1	0.065125
36.250000	1	0.068375
36.266667	1	0.071875
36.283333	1	0.075250
36.300000	1	0.079250
36.316667	1	0.082875
36.333333	1	0.086500
36.350000	1	0.091000
36.366667	1	0.095000
36.383333	1	0.099375
36.400000	1	0.103250
36.416667	1	0.107375
36.433333	1	0.111375
36.450000	1	0.115500
36.466667	1	0.119375
36.483333	1	0.123375
36.500000	1	0.126875
36.516667	1	0.130750
36.533333	1	0.134500
36.550000	1	0.137500
36.566667	1	0.140750
36.583333	1	0.144125
36.600000	1	0.147625
36.616667	1	0.151375
36.633333	1	0.154375
36.650000	1	0.158375
36.666667	1	0.161500
36.683333	1	0.164250
36.700000	1	0.167125
36.716667	1	0.170000
36.733333	1	0.173750
36.750000	1	0.177125
36.766667	1	0.180125
36.783333	1	0.182125
36.800000	1	0.184375
36.816667	1	0.186750
36.833333	1	0.189250
36.850000	1	0.191500
36.866667	1	0.193875
36.883333	1	0.196250
36.900000	1	0.198750
36.916667	1	0.200500
36.933333	1	0.201875
36.950000	1	0.203875
36.966667	1	0.205000
36.983333	1	0.206125
37.000000	1	0.207250
37.016667	1	0.208375
37.033333	1	0.208625
37.050000	1	0.208875
37.066667	1	0.209125
37.083333	1	0.208875
37.100000	1	0.207875
37.116667	1	0.207125
37.133333	1	0.206125
37.150000	1	0.204125
37.166667	1	0.201625
37.183333	1	0.199125
37.200000	1	0.196625
37.216667	1	0.194000
37.233333	1	0.191250
37.250000	1	0.187250
37.266667	1	0.184375
37.283333	1	0.180375
37.300000	1	0.176250
37.316667	1	0.171375
37.333333	1	0.167500
37.350000	1	0.162750
37.366667	1	0.158500
37.383333	1	0.153750
37.400000	1	0.148375
37.416667	1	0.143625
37.433333	1	0.137875
37.450000	1	0.133000
37.466667	1	0.127250
37.483333	1	0.122000
37.500000	1	0.116875
37.516667	1	0.111375
37.533333	1	0.106125
37.550000	1	0.100500
37.566667	1	0.094625
37.583333	1	0.088625
37.600000	1	0.083500
37.616667	1	0.077750
37.633333	1	0.071750
37.650000	1	0.066000
37.666667	1	0.061250
37.683333	1	0.055125
37.700000	1	0.049250
37.716667	1	0.043625
37.733333	1	0.037875
37.750000	1	0.032250
37.766667	1	0.027125
37.783333	1	0.022250
37.800000	1	0.016500
37.816667	1	0.011375
37.833333	1	0.006625
37.850000	1	0.001500
37.866667	1	-0.003625
37.883333	1	-0.008625
37.900000	1	-0.013875
37.916667	1	-0.018250
37.933333	1	-0.022875
37.950000	1	-0.027625
37.966667	1	-0.032125
37.983333	1	-0.035500
38.000000	1	-0.039500
38.016667	1	-0.043500
38.033333	1	-0.047750
38.050000	1	-0.052000
38.066667	1	-0.055500
38.083333	1	-0.058875
38.100000	1	-0.061875
38.116667	1	-0.065000
38.133333	1	-0.067875
38.150000	1	-0.070500
38.166667	1	-0.072625
38.183333	1	-0.074875
38.200000	1	-0.076750
38.216667	1	-0.078375
38.233333	1	-0.079500
38.250000	1	-0.081625
38.266667	1	-0.082875
38.283333	1	-0.083875
38.300000	1	-0.085250
38.316667	1	-0.086250
38.333333	1	-0.087625
38.350000	1	-0.088500
38.366667	1	-0.089000
38.383333	1	-0.089875
38.400000	1	-0.090000
38.416667	1	-0.089875
38.433333	1	-0.090500
38.450000	1	-0.091125
38.466667	1	-0.090875
38.483333	1	-0.091375
38.500000	1	-0.090875
38.516667	1	-0.091375
38.533333	1	-0.091125
38.550000	1	-0.090625
38.566667	1	-0.090625
38.583333	1	-0.090375
38.600000	1	-0.090750
38.616667	1	-0.091125
38.633333	1	-0.091625
38.650000	1	-0.091125
38.666667	1	-0.090875
38.683333	1	-0.090875
38.700000	1	-0.090000
38.716667	1	-0.090250
38.733333	1	-0.090125
38.750000	1	-0.090000
38.766667	1	-0.089375
38.783333	1	-0.089500
38.800000	1	-0.089500
38.816667	1	-0.089500
38.833333	1	-0.089000
38.850000	1	-0.089375
38.866667	1	-0.089625
38.883333	1	-0.089875
38.900000	1	-0.089875
38.916667	1	-0.089375
38.933333	1	-0.088875
38.950000	1	-0.088625
38.966667	1	-0.089250
38.983333	1	-0.088875
39.000000	1	-0.090000
39.016667	1	-0.089875
39.033333	1	-0.089875
39.050000	1	-0.090125
39.066667	1	-0.090500
39.083333	1	-0.090000
39.100000	1	-0.089625
39.116667	1	-0.090000
39.133333	1	-0.090000
39.150000	1	-0.090000
39.166667	1	-0.089250
39.183333	1	-0.090000
39.200000	1	-0.089750
39.216667	1	-0.089625
39.233333	1	-0.089625
39.250000	1	-0.089625
39.266667	1	-0.089625
39.283333	1	-0.089625
39.300000	1	-0.089625
39.316667	1	-0.090500
39.333333	1	-0.089500
39.350000	1	-0.089625
39.366667	1	-0.088875
39.383333	1	-0.088875
39.400000	1	-0.089250
39.416667	1	-0.089125
39.433333	1	-0.089125
39.450000	1	-0.089000
39.466667	1	-0.088875
39.483333	1	-0.088625
39.500000	1	-0.088375
39.516667	1	-0.088125
39.533333	1	-0.088125
39.550000	1	-0.088000
39.566667	1	-0.088000
39.583333	1	-0.088375
39.600000	1	-0.087500
39.616667	1	-0.087375
39.633333	1	-0.087375
39.650000	1	-0.087000
39.666667	1	-0.086250
39.683333	1	-0.086000
39.700000	1	-0.085875
39.716667	1	-0.085500
39.733333	1	-0.084750
39.750000	1	-0.084250
39.766667	1	-0.083625
39.783333	1	-0.083250
39.800000	1	-0.082250
39.816667	1	-0.082375
39.833333	1	-0.082000
39.850000	1	-0.081250
39.866667	1	-0.081000
39.883333	1	-0.080000
39.900000	1	-0.079125
39.916667	1	-0.078750
39.933333	1	-0.078000
39.950000	1	-0.076625
39.966667	1	-0.075250
39.983333	1	-0.074750
40.000000	1	-0.073125
