File Path	chrom://marshall/Chromeleon7/HPLC_Ultimate_3000/Users/markusar/20230107.seq/829.smp/RI_1.channel/RI_1.chm
Channel	RI_1

Injection Information:
Data Vault	Chromeleon7
Injection	er1.3
Injection Number	4
Position	RA4
Comment	
Processing Method	
Instrument Method	std_method
Type	Unknown
Status	Finished
Injection Date	07.01.2023
Injection Time	17:56:57
Injection Volume (µl)	20.000
Dilution Factor	1.0000
Weight	1.0000

Chromatogram Data Information:
Time Min. (min)	0.000000
Time Max. (min)	40.000000
Data Points	2401
Detector	RI
Generating Data System	Chromeleon 7.2.5.9507
Exporting Data System	Chromeleon 7.2.5.0
Operator	Instrument Controller
Signal Quantity	Refractive 
Signal Unit	µRIU
Signal Min.	-0.135625
Signal Max.	111.847125
Channel	RI_1
Driver Name	RID520Driver.dll
Channel Type	Evaluation
Min. Step (s)	1
Max. Step (s)	1
Average Step (s)	1

Signal Parameter Information:
Signal Info	

Chromatogram Data:
Time (min)	Step (s)	Value (µRIU)
0.000000	n.a.	0.126500
0.016667	1	0.127500
0.033333	1	0.128875
0.050000	1	0.130375
0.066667	1	0.131750
0.083333	1	0.133125
0.100000	1	0.134000
0.116667	1	0.136125
0.133333	1	0.136625
0.150000	1	0.138000
0.166667	1	0.138500
0.183333	1	0.139000
0.200000	1	0.139750
0.216667	1	0.140500
0.233333	1	0.141250
0.250000	1	0.141750
0.266667	1	0.142000
0.283333	1	0.141625
0.300000	1	0.141500
0.316667	1	0.142000
0.333333	1	0.142375
0.350000	1	0.142000
0.366667	1	0.141625
0.383333	1	0.141375
0.400000	1	0.141000
0.416667	1	0.140250
0.433333	1	0.139125
0.450000	1	0.138375
0.466667	1	0.137000
0.483333	1	0.136500
0.500000	1	0.134875
0.516667	1	0.133125
0.533333	1	0.131875
0.550000	1	0.130750
0.566667	1	0.130250
0.583333	1	0.129125
0.600000	1	0.127875
0.616667	1	0.127375
0.633333	1	0.126500
0.650000	1	0.125875
0.666667	1	0.125250
0.683333	1	0.124375
0.700000	1	0.122750
0.716667	1	0.121250
0.733333	1	0.119875
0.750000	1	0.117125
0.766667	1	0.115000
0.783333	1	0.112500
0.800000	1	0.109500
0.816667	1	0.106625
0.833333	1	0.104250
0.850000	1	0.101125
0.866667	1	0.098750
0.883333	1	0.096125
0.900000	1	0.093750
0.916667	1	0.091000
0.933333	1	0.088125
0.950000	1	0.086000
0.966667	1	0.083500
0.983333	1	0.080875
1.000000	1	0.078750
1.016667	1	0.076125
1.033333	1	0.073375
1.050000	1	0.070375
1.066667	1	0.069000
1.083333	1	0.066750
1.100000	1	0.064375
1.116667	1	0.062500
1.133333	1	0.060125
1.150000	1	0.058125
1.166667	1	0.055375
1.183333	1	0.052875
1.200000	1	0.050750
1.216667	1	0.048500
1.233333	1	0.046375
1.250000	1	0.044000
1.266667	1	0.041125
1.283333	1	0.038750
1.300000	1	0.036625
1.316667	1	0.034250
1.333333	1	0.031875
1.350000	1	0.029250
1.366667	1	0.026250
1.383333	1	0.023375
1.400000	1	0.021375
1.416667	1	0.019125
1.433333	1	0.016500
1.450000	1	0.013500
1.466667	1	0.010750
1.483333	1	0.008750
1.500000	1	0.006625
1.516667	1	0.003625
1.533333	1	0.000750
1.550000	1	-0.002000
1.566667	1	-0.004375
1.583333	1	-0.007375
1.600000	1	-0.010000
1.616667	1	-0.013750
1.633333	1	-0.016000
1.650000	1	-0.018250
1.666667	1	-0.020750
1.683333	1	-0.023250
1.700000	1	-0.026000
1.716667	1	-0.028625
1.733333	1	-0.031250
1.750000	1	-0.034000
1.766667	1	-0.036750
1.783333	1	-0.040000
1.800000	1	-0.043250
1.816667	1	-0.046125
1.833333	1	-0.049250
1.850000	1	-0.051750
1.866667	1	-0.054875
1.883333	1	-0.057250
1.900000	1	-0.059625
1.916667	1	-0.062125
1.933333	1	-0.065125
1.950000	1	-0.067125
1.966667	1	-0.069500
1.983333	1	-0.071875
2.000000	1	-0.074375
2.016667	1	-0.077125
2.033333	1	-0.079250
2.050000	1	-0.081250
2.066667	1	-0.083000
2.083333	1	-0.085250
2.100000	1	-0.086750
2.116667	1	-0.088750
2.133333	1	-0.090500
2.150000	1	-0.092500
2.166667	1	-0.094000
2.183333	1	-0.096000
2.200000	1	-0.097375
2.216667	1	-0.099000
2.233333	1	-0.099875
2.250000	1	-0.100750
2.266667	1	-0.101625
2.283333	1	-0.103125
2.300000	1	-0.104875
2.316667	1	-0.105875
2.333333	1	-0.107000
2.350000	1	-0.108000
2.366667	1	-0.108875
2.383333	1	-0.109875
2.400000	1	-0.110750
2.416667	1	-0.111000
2.433333	1	-0.111375
2.450000	1	-0.111875
2.466667	1	-0.112250
2.483333	1	-0.112750
2.500000	1	-0.112875
2.516667	1	-0.112625
2.533333	1	-0.113375
2.550000	1	-0.113625
2.566667	1	-0.113875
2.583333	1	-0.113375
2.600000	1	-0.113250
2.616667	1	-0.113375
2.633333	1	-0.113125
2.650000	1	-0.112875
2.666667	1	-0.113250
2.683333	1	-0.113000
2.700000	1	-0.112375
2.716667	1	-0.112875
2.733333	1	-0.112375
2.750000	1	-0.112500
2.766667	1	-0.111125
2.783333	1	-0.111125
2.800000	1	-0.110875
2.816667	1	-0.110375
2.833333	1	-0.109875
2.850000	1	-0.109000
2.866667	1	-0.108500
2.883333	1	-0.108000
2.900000	1	-0.107375
2.916667	1	-0.107500
2.933333	1	-0.106750
2.950000	1	-0.106250
2.966667	1	-0.105500
2.983333	1	-0.104750
3.000000	1	-0.103875
3.016667	1	-0.102625
3.033333	1	-0.101125
3.050000	1	-0.100000
3.066667	1	-0.099125
3.083333	1	-0.098000
3.100000	1	-0.096375
3.116667	1	-0.095000
3.133333	1	-0.094125
3.150000	1	-0.092125
3.166667	1	-0.090875
3.183333	1	-0.089125
3.200000	1	-0.088125
3.216667	1	-0.087125
3.233333	1	-0.085000
3.250000	1	-0.083000
3.266667	1	-0.081125
3.283333	1	-0.079750
3.300000	1	-0.078500
3.316667	1	-0.077000
3.333333	1	-0.075875
3.350000	1	-0.074375
3.366667	1	-0.072875
3.383333	1	-0.071125
3.400000	1	-0.069875
3.416667	1	-0.068500
3.433333	1	-0.067000
3.450000	1	-0.065625
3.466667	1	-0.063375
3.483333	1	-0.061625
3.500000	1	-0.060875
3.516667	1	-0.059125
3.533333	1	-0.057625
3.550000	1	-0.055375
3.566667	1	-0.053875
3.583333	1	-0.052625
3.600000	1	-0.051375
3.616667	1	-0.048875
3.633333	1	-0.047375
3.650000	1	-0.045500
3.666667	1	-0.043750
3.683333	1	-0.042875
3.700000	1	-0.041500
3.716667	1	-0.039625
3.733333	1	-0.038125
3.750000	1	-0.036625
3.766667	1	-0.034875
3.783333	1	-0.034000
3.800000	1	-0.032250
3.816667	1	-0.031000
3.833333	1	-0.029625
3.850000	1	-0.028625
3.866667	1	-0.027125
3.883333	1	-0.025500
3.900000	1	-0.024625
3.916667	1	-0.023875
3.933333	1	-0.022250
3.950000	1	-0.021750
3.966667	1	-0.021125
3.983333	1	-0.020500
4.000000	1	-0.020375
4.016667	1	-0.019000
4.033333	1	-0.017750
4.050000	1	-0.017000
4.066667	1	-0.016625
4.083333	1	-0.016500
4.100000	1	-0.015500
4.116667	1	-0.014750
4.133333	1	-0.014125
4.150000	1	-0.013625
4.166667	1	-0.014000
4.183333	1	-0.014500
4.200000	1	-0.014250
4.216667	1	-0.014000
4.233333	1	-0.013750
4.250000	1	-0.014000
4.266667	1	-0.014375
4.283333	1	-0.015125
4.300000	1	-0.015625
4.316667	1	-0.016375
4.333333	1	-0.016875
4.350000	1	-0.017750
4.366667	1	-0.018500
4.383333	1	-0.019875
4.400000	1	-0.020875
4.416667	1	-0.021750
4.433333	1	-0.022750
4.450000	1	-0.023750
4.466667	1	-0.025125
4.483333	1	-0.026500
4.500000	1	-0.027000
4.516667	1	-0.028375
4.533333	1	-0.029875
4.550000	1	-0.031250
4.566667	1	-0.032625
4.583333	1	-0.034625
4.600000	1	-0.036125
4.616667	1	-0.037875
4.633333	1	-0.039625
4.650000	1	-0.041375
4.666667	1	-0.042500
4.683333	1	-0.044000
4.700000	1	-0.044875
4.716667	1	-0.046750
4.733333	1	-0.048625
4.750000	1	-0.050375
4.766667	1	-0.052250
4.783333	1	-0.053375
4.800000	1	-0.055000
4.816667	1	-0.056500
4.833333	1	-0.057500
4.850000	1	-0.059250
4.866667	1	-0.060500
4.883333	1	-0.061625
4.900000	1	-0.062500
4.916667	1	-0.063500
4.933333	1	-0.065000
4.950000	1	-0.066125
4.966667	1	-0.068000
4.983333	1	-0.068625
5.000000	1	-0.069125
5.016667	1	-0.070250
5.033333	1	-0.070500
5.050000	1	-0.071750
5.066667	1	-0.072375
5.083333	1	-0.073500
5.100000	1	-0.074625
5.116667	1	-0.075500
5.133333	1	-0.076625
5.150000	1	-0.077375
5.166667	1	-0.078000
5.183333	1	-0.078625
5.200000	1	-0.079750
5.216667	1	-0.080250
5.233333	1	-0.080750
5.250000	1	-0.081625
5.266667	1	-0.081875
5.283333	1	-0.082875
5.300000	1	-0.083250
5.316667	1	-0.083125
5.333333	1	-0.083375
5.350000	1	-0.083625
5.366667	1	-0.083750
5.383333	1	-0.083875
5.400000	1	-0.083625
5.416667	1	-0.083875
5.433333	1	-0.083750
5.450000	1	-0.083125
5.466667	1	-0.082875
5.483333	1	-0.082375
5.500000	1	-0.082625
5.516667	1	-0.082000
5.533333	1	-0.080750
5.550000	1	-0.079625
5.566667	1	-0.078375
5.583333	1	-0.077250
5.600000	1	-0.075625
5.616667	1	-0.074125
5.633333	1	-0.072500
5.650000	1	-0.071250
5.666667	1	-0.068875
5.683333	1	-0.066750
5.700000	1	-0.065375
5.716667	1	-0.063625
5.733333	1	-0.061875
5.750000	1	-0.060125
5.766667	1	-0.057625
5.783333	1	-0.055875
5.800000	1	-0.053000
5.816667	1	-0.051000
5.833333	1	-0.048875
5.850000	1	-0.046750
5.866667	1	-0.045250
5.883333	1	-0.043125
5.900000	1	-0.040875
5.916667	1	-0.038875
5.933333	1	-0.036375
5.950000	1	-0.034000
5.966667	1	-0.032250
5.983333	1	-0.030125
6.000000	1	-0.028500
6.016667	1	-0.027000
6.033333	1	-0.025250
6.050000	1	-0.023125
6.066667	1	-0.021125
6.083333	1	-0.018875
6.100000	1	-0.017250
6.116667	1	-0.016375
6.133333	1	-0.015375
6.150000	1	-0.014125
6.166667	1	-0.013000
6.183333	1	-0.011250
6.200000	1	-0.010250
6.216667	1	-0.009000
6.233333	1	-0.007875
6.250000	1	-0.007375
6.266667	1	-0.006125
6.283333	1	-0.005500
6.300000	1	-0.004750
6.316667	1	-0.004125
6.333333	1	-0.003625
6.350000	1	-0.002875
6.366667	1	-0.002500
6.383333	1	-0.002250
6.400000	1	-0.001625
6.416667	1	-0.001000
6.433333	1	-0.000500
6.450000	1	-0.001000
6.466667	1	-0.000750
6.483333	1	-0.000500
6.500000	1	0.000125
6.516667	1	-0.000250
6.533333	1	-0.000375
6.550000	1	-0.000750
6.566667	1	-0.001000
6.583333	1	-0.001000
6.600000	1	-0.001625
6.616667	1	-0.002250
6.633333	1	-0.003000
6.650000	1	-0.003875
6.666667	1	-0.004375
6.683333	1	-0.005875
6.700000	1	-0.007125
6.716667	1	-0.008125
6.733333	1	-0.009375
6.750000	1	-0.010500
6.766667	1	-0.012000
6.783333	1	-0.012750
6.800000	1	-0.013625
6.816667	1	-0.015500
6.833333	1	-0.016875
6.850000	1	-0.018125
6.866667	1	-0.019500
6.883333	1	-0.020375
6.900000	1	-0.021000
6.916667	1	-0.022375
6.933333	1	-0.024125
6.950000	1	-0.024750
6.966667	1	-0.026500
6.983333	1	-0.028125
7.000000	1	-0.029500
7.016667	1	-0.031000
7.033333	1	-0.031625
7.050000	1	-0.032125
7.066667	1	-0.032750
7.083333	1	-0.034125
7.100000	1	-0.035125
7.116667	1	-0.035625
7.133333	1	-0.036500
7.150000	1	-0.036750
7.166667	1	-0.037125
7.183333	1	-0.037125
7.200000	1	-0.036875
7.216667	1	-0.037125
7.233333	1	-0.036875
7.250000	1	-0.036875
7.266667	1	-0.036625
7.283333	1	-0.036000
7.300000	1	-0.036000
7.316667	1	-0.035500
7.333333	1	-0.035375
7.350000	1	-0.034375
7.366667	1	-0.033375
7.383333	1	-0.032250
7.400000	1	-0.030875
7.416667	1	-0.030375
7.433333	1	-0.029125
7.450000	1	-0.027875
7.466667	1	-0.027250
7.483333	1	-0.026250
7.500000	1	-0.025125
7.516667	1	-0.024000
7.533333	1	-0.023500
7.550000	1	-0.022000
7.566667	1	-0.021125
7.583333	1	-0.020375
7.600000	1	-0.020000
7.616667	1	-0.020250
7.633333	1	-0.018625
7.650000	1	-0.017625
7.666667	1	-0.017000
7.683333	1	-0.015750
7.700000	1	-0.015375
7.716667	1	-0.015375
7.733333	1	-0.015250
7.750000	1	-0.015000
7.766667	1	-0.015000
7.783333	1	-0.014625
7.800000	1	-0.013875
7.816667	1	-0.014000
7.833333	1	-0.014625
7.850000	1	-0.015125
7.866667	1	-0.015125
7.883333	1	-0.016125
7.900000	1	-0.016125
7.916667	1	-0.017125
7.933333	1	-0.017625
7.950000	1	-0.018375
7.966667	1	-0.018750
7.983333	1	-0.019250
8.000000	1	-0.019875
8.016667	1	-0.020250
8.033333	1	-0.021375
8.050000	1	-0.022500
8.066667	1	-0.024000
8.083333	1	-0.025625
8.100000	1	-0.027250
8.116667	1	-0.028875
8.133333	1	-0.030250
8.150000	1	-0.031875
8.166667	1	-0.034500
8.183333	1	-0.036375
8.200000	1	-0.038375
8.216667	1	-0.040250
8.233333	1	-0.042875
8.250000	1	-0.045125
8.266667	1	-0.048000
8.283333	1	-0.049250
8.300000	1	-0.051000
8.316667	1	-0.054250
8.333333	1	-0.056625
8.350000	1	-0.058875
8.366667	1	-0.061500
8.383333	1	-0.063875
8.400000	1	-0.066125
8.416667	1	-0.069625
8.433333	1	-0.072000
8.450000	1	-0.075000
8.466667	1	-0.077250
8.483333	1	-0.080500
8.500000	1	-0.083500
8.516667	1	-0.085875
8.533333	1	-0.088500
8.550000	1	-0.091250
8.566667	1	-0.094125
8.583333	1	-0.096250
8.600000	1	-0.098500
8.616667	1	-0.100875
8.633333	1	-0.103375
8.650000	1	-0.105625
8.666667	1	-0.108375
8.683333	1	-0.111250
8.700000	1	-0.112875
8.716667	1	-0.115000
8.733333	1	-0.116375
8.750000	1	-0.118500
8.766667	1	-0.120375
8.783333	1	-0.122000
8.800000	1	-0.123750
8.816667	1	-0.125000
8.833333	1	-0.126625
8.850000	1	-0.128625
8.866667	1	-0.129750
8.883333	1	-0.130500
8.900000	1	-0.131125
8.916667	1	-0.131875
8.933333	1	-0.132500
8.950000	1	-0.132625
8.966667	1	-0.133000
8.983333	1	-0.133625
9.000000	1	-0.134625
9.016667	1	-0.134250
9.033333	1	-0.134375
9.050000	1	-0.134375
9.066667	1	-0.134750
9.083333	1	-0.135625
9.100000	1	-0.135375
9.116667	1	-0.134875
9.133333	1	-0.135000
9.150000	1	-0.135000
9.166667	1	-0.134500
9.183333	1	-0.134000
9.200000	1	-0.133750
9.216667	1	-0.133750
9.233333	1	-0.133500
9.250000	1	-0.132750
9.266667	1	-0.132750
9.283333	1	-0.132000
9.300000	1	-0.130750
9.316667	1	-0.130000
9.333333	1	-0.129125
9.350000	1	-0.128375
9.366667	1	-0.127125
9.383333	1	-0.126125
9.400000	1	-0.125375
9.416667	1	-0.124375
9.433333	1	-0.122750
9.450000	1	-0.121125
9.466667	1	-0.120000
9.483333	1	-0.118500
9.500000	1	-0.115500
9.516667	1	-0.113000
9.533333	1	-0.111375
9.550000	1	-0.109375
9.566667	1	-0.106875
9.583333	1	-0.103250
9.600000	1	-0.099875
9.616667	1	-0.095750
9.633333	1	-0.091500
9.650000	1	-0.087000
9.666667	1	-0.082125
9.683333	1	-0.076125
9.700000	1	-0.069125
9.716667	1	-0.060875
9.733333	1	-0.050875
9.750000	1	-0.039750
9.766667	1	-0.027125
9.783333	1	-0.011875
9.800000	1	0.005500
9.816667	1	0.026000
9.833333	1	0.050375
9.850000	1	0.076875
9.866667	1	0.107875
9.883333	1	0.141875
9.900000	1	0.179125
9.916667	1	0.219125
9.933333	1	0.262375
9.950000	1	0.308125
9.966667	1	0.356000
9.983333	1	0.407500
10.000000	1	0.461250
10.016667	1	0.519375
10.033333	1	0.580000
10.050000	1	0.640625
10.066667	1	0.694375
10.083333	1	0.732875
10.100000	1	0.747750
10.116667	1	0.732750
10.133333	1	0.688250
10.150000	1	0.620875
10.166667	1	0.546500
10.183333	1	0.486125
10.200000	1	0.466250
10.216667	1	0.519750
10.233333	1	0.685250
10.250000	1	1.002500
10.266667	1	1.514500
10.283333	1	2.266750
10.300000	1	3.305750
10.316667	1	4.678750
10.333333	1	6.429625
10.350000	1	8.601125
10.366667	1	11.231500
10.383333	1	14.354375
10.400000	1	17.998750
10.416667	1	22.191000
10.433333	1	26.948875
10.450000	1	32.274625
10.466667	1	38.165000
10.483333	1	44.599625
10.500000	1	51.533750
10.516667	1	58.885000
10.533333	1	66.526500
10.550000	1	74.283000
10.566667	1	81.937250
10.583333	1	89.233750
10.600000	1	95.909875
10.616667	1	101.705625
10.633333	1	106.380500
10.650000	1	109.726750
10.666667	1	111.586750
10.683333	1	111.847125
10.700000	1	110.451000
10.716667	1	107.419500
10.733333	1	102.864750
10.750000	1	96.995000
10.766667	1	90.092250
10.783333	1	82.481875
10.800000	1	74.495250
10.816667	1	66.446625
10.833333	1	58.616500
10.850000	1	51.232875
10.866667	1	44.450750
10.883333	1	38.377125
10.900000	1	33.060750
10.916667	1	28.503750
10.933333	1	24.669750
10.950000	1	21.496000
10.966667	1	18.903750
10.983333	1	16.803875
11.000000	1	15.112125
11.016667	1	13.748375
11.033333	1	12.645375
11.050000	1	11.745000
11.066667	1	10.999625
11.083333	1	10.371375
11.100000	1	9.829625
11.116667	1	9.353125
11.133333	1	8.922375
11.150000	1	8.525000
11.166667	1	8.153250
11.183333	1	7.799500
11.200000	1	7.460750
11.216667	1	7.132750
11.233333	1	6.817000
11.250000	1	6.511750
11.266667	1	6.216875
11.283333	1	5.933875
11.300000	1	5.663125
11.316667	1	5.405125
11.333333	1	5.160500
11.350000	1	4.930625
11.366667	1	4.717000
11.383333	1	4.520000
11.400000	1	4.340250
11.416667	1	4.179875
11.433333	1	4.038500
11.450000	1	3.916250
11.466667	1	3.812500
11.483333	1	3.724875
11.500000	1	3.653000
11.516667	1	3.593125
11.533333	1	3.541875
11.550000	1	3.496750
11.566667	1	3.456250
11.583333	1	3.418250
11.600000	1	3.381625
11.616667	1	3.345500
11.633333	1	3.310250
11.650000	1	3.275750
11.666667	1	3.242500
11.683333	1	3.209750
11.700000	1	3.178250
11.716667	1	3.147500
11.733333	1	3.116125
11.750000	1	3.085000
11.766667	1	3.052875
11.783333	1	3.019375
11.800000	1	2.984000
11.816667	1	2.946750
11.833333	1	2.908375
11.850000	1	2.868375
11.866667	1	2.826875
11.883333	1	2.785500
11.900000	1	2.743875
11.916667	1	2.702250
11.933333	1	2.661000
11.950000	1	2.620875
11.966667	1	2.581875
11.983333	1	2.542625
12.000000	1	2.503750
12.016667	1	2.465500
12.033333	1	2.427375
12.050000	1	2.390375
12.066667	1	2.353125
12.083333	1	2.316500
12.100000	1	2.281000
12.116667	1	2.245250
12.133333	1	2.211000
12.150000	1	2.177000
12.166667	1	2.144625
12.183333	1	2.112750
12.200000	1	2.083250
12.216667	1	2.055000
12.233333	1	2.028250
12.250000	1	2.003875
12.266667	1	1.981000
12.283333	1	1.960875
12.300000	1	1.943625
12.316667	1	1.928625
12.333333	1	1.918500
12.350000	1	1.912625
12.366667	1	1.912250
12.383333	1	1.918750
12.400000	1	1.933625
12.416667	1	1.958125
12.433333	1	1.992375
12.450000	1	2.041125
12.466667	1	2.104750
12.483333	1	2.187750
12.500000	1	2.293625
12.516667	1	2.425750
12.533333	1	2.589375
12.550000	1	2.788125
12.566667	1	3.027500
12.583333	1	3.310875
12.600000	1	3.640125
12.616667	1	4.014500
12.633333	1	4.434500
12.650000	1	4.895375
12.666667	1	5.393500
12.683333	1	5.924000
12.700000	1	6.478625
12.716667	1	7.051625
12.733333	1	7.637250
12.750000	1	8.229375
12.766667	1	8.825375
12.783333	1	9.422250
12.800000	1	10.018500
12.816667	1	10.614250
12.833333	1	11.211125
12.850000	1	11.812125
12.866667	1	12.417250
12.883333	1	13.029375
12.900000	1	13.647125
12.916667	1	14.271625
12.933333	1	14.900125
12.950000	1	15.528750
12.966667	1	16.152625
12.983333	1	16.762125
13.000000	1	17.348875
13.016667	1	17.903125
13.033333	1	18.416000
13.050000	1	18.879500
13.066667	1	19.285750
13.083333	1	19.627875
13.100000	1	19.901250
13.116667	1	20.102750
13.133333	1	20.230750
13.150000	1	20.285125
13.166667	1	20.267875
13.183333	1	20.181250
13.200000	1	20.030375
13.216667	1	19.821000
13.233333	1	19.557750
13.250000	1	19.246250
13.266667	1	18.893125
13.283333	1	18.503000
13.300000	1	18.082125
13.316667	1	17.635375
13.333333	1	17.168375
13.350000	1	16.685875
13.366667	1	16.191125
13.383333	1	15.688500
13.400000	1	15.181000
13.416667	1	14.670125
13.433333	1	14.157750
13.450000	1	13.645125
13.466667	1	13.131750
13.483333	1	12.617250
13.500000	1	12.100875
13.516667	1	11.582125
13.533333	1	11.061250
13.550000	1	10.536250
13.566667	1	10.008000
13.583333	1	9.479250
13.600000	1	8.953375
13.616667	1	8.434250
13.633333	1	7.927750
13.650000	1	7.438125
13.666667	1	6.972125
13.683333	1	6.534250
13.700000	1	6.129000
13.716667	1	5.760375
13.733333	1	5.429500
13.750000	1	5.137375
13.766667	1	4.883125
13.783333	1	4.664500
13.800000	1	4.478250
13.816667	1	4.320125
13.833333	1	4.185250
13.850000	1	4.070250
13.866667	1	3.970750
13.883333	1	3.882500
13.900000	1	3.803375
13.916667	1	3.730125
13.933333	1	3.663000
13.950000	1	3.599875
13.966667	1	3.539625
13.983333	1	3.482375
14.000000	1	3.427625
14.016667	1	3.375375
14.033333	1	3.324500
14.050000	1	3.273875
14.066667	1	3.222875
14.083333	1	3.170875
14.100000	1	3.117125
14.116667	1	3.061375
14.133333	1	3.002625
14.150000	1	2.940000
14.166667	1	2.874125
14.183333	1	2.806000
14.200000	1	2.735750
14.216667	1	2.665625
14.233333	1	2.596125
14.250000	1	2.529625
14.266667	1	2.466000
14.283333	1	2.407375
14.300000	1	2.356125
14.316667	1	2.313375
14.333333	1	2.281375
14.350000	1	2.260125
14.366667	1	2.251875
14.383333	1	2.256875
14.400000	1	2.277500
14.416667	1	2.314250
14.433333	1	2.367000
14.450000	1	2.437625
14.466667	1	2.526750
14.483333	1	2.633500
14.500000	1	2.759375
14.516667	1	2.904625
14.533333	1	3.067875
14.550000	1	3.249875
14.566667	1	3.450125
14.583333	1	3.667250
14.600000	1	3.902000
14.616667	1	4.152500
14.633333	1	4.418750
14.650000	1	4.698000
14.666667	1	4.988875
14.683333	1	5.288500
14.700000	1	5.594000
14.716667	1	5.901250
14.733333	1	6.206750
14.750000	1	6.507250
14.766667	1	6.801375
14.783333	1	7.087375
14.800000	1	7.367625
14.816667	1	7.646125
14.833333	1	7.929375
14.850000	1	8.226500
14.866667	1	8.547125
14.883333	1	8.903375
14.900000	1	9.306875
14.916667	1	9.768625
14.933333	1	10.298250
14.950000	1	10.898500
14.966667	1	11.568375
14.983333	1	12.303250
15.000000	1	13.091625
15.016667	1	13.919000
15.033333	1	14.766125
15.050000	1	15.613875
15.066667	1	16.443875
15.083333	1	17.235625
15.100000	1	17.974375
15.116667	1	18.646875
15.133333	1	19.245625
15.150000	1	19.765750
15.166667	1	20.202875
15.183333	1	20.558125
15.200000	1	20.830625
15.216667	1	21.022125
15.233333	1	21.131250
15.250000	1	21.157875
15.266667	1	21.101875
15.283333	1	20.961625
15.300000	1	20.736125
15.316667	1	20.425000
15.333333	1	20.030500
15.350000	1	19.555250
15.366667	1	19.005125
15.383333	1	18.385750
15.400000	1	17.705500
15.416667	1	16.973750
15.433333	1	16.199250
15.450000	1	15.391750
15.466667	1	14.562875
15.483333	1	13.723500
15.500000	1	12.882250
15.516667	1	12.049125
15.533333	1	11.232250
15.550000	1	10.439875
15.566667	1	9.678250
15.583333	1	8.952875
15.600000	1	8.268750
15.616667	1	7.628375
15.633333	1	7.034125
15.650000	1	6.486875
15.666667	1	5.988375
15.683333	1	5.537125
15.700000	1	5.132250
15.716667	1	4.772375
15.733333	1	4.454125
15.750000	1	4.175500
15.766667	1	3.932375
15.783333	1	3.722500
15.800000	1	3.542000
15.816667	1	3.388500
15.833333	1	3.260125
15.850000	1	3.154375
15.866667	1	3.070250
15.883333	1	3.005000
15.900000	1	2.958250
15.916667	1	2.929000
15.933333	1	2.916375
15.950000	1	2.919250
15.966667	1	2.935750
15.983333	1	2.964125
16.000000	1	3.003625
16.016667	1	3.052250
16.033333	1	3.108125
16.050000	1	3.170125
16.066667	1	3.235250
16.083333	1	3.303750
16.100000	1	3.374500
16.116667	1	3.447875
16.133333	1	3.525250
16.150000	1	3.608250
16.166667	1	3.698000
16.183333	1	3.798375
16.200000	1	3.911250
16.216667	1	4.038875
16.233333	1	4.182125
16.250000	1	4.341250
16.266667	1	4.515250
16.283333	1	4.701500
16.300000	1	4.896625
16.316667	1	5.096625
16.333333	1	5.295750
16.350000	1	5.489750
16.366667	1	5.673000
16.383333	1	5.842500
16.400000	1	5.993500
16.416667	1	6.124750
16.433333	1	6.235000
16.450000	1	6.323625
16.466667	1	6.391125
16.483333	1	6.439000
16.500000	1	6.467500
16.516667	1	6.477875
16.533333	1	6.471500
16.550000	1	6.449250
16.566667	1	6.411250
16.583333	1	6.358375
16.600000	1	6.291000
16.616667	1	6.208250
16.633333	1	6.110500
16.650000	1	5.997250
16.666667	1	5.868750
16.683333	1	5.724875
16.700000	1	5.568750
16.716667	1	5.399625
16.733333	1	5.220250
16.750000	1	5.031250
16.766667	1	4.835000
16.783333	1	4.635375
16.800000	1	4.433375
16.816667	1	4.231250
16.833333	1	4.030875
16.850000	1	3.834500
16.866667	1	3.644500
16.883333	1	3.460750
16.900000	1	3.285250
16.916667	1	3.119125
16.933333	1	2.962000
16.950000	1	2.815875
16.966667	1	2.680000
16.983333	1	2.555250
17.000000	1	2.440750
17.016667	1	2.335625
17.033333	1	2.240625
17.050000	1	2.156500
17.066667	1	2.080250
17.083333	1	2.011750
17.100000	1	1.951375
17.116667	1	1.898500
17.133333	1	1.851125
17.150000	1	1.809625
17.166667	1	1.772375
17.183333	1	1.740000
17.200000	1	1.711500
17.216667	1	1.686250
17.233333	1	1.663250
17.250000	1	1.642875
17.266667	1	1.623750
17.283333	1	1.606250
17.300000	1	1.589250
17.316667	1	1.573625
17.333333	1	1.558625
17.350000	1	1.544125
17.366667	1	1.530000
17.383333	1	1.517000
17.400000	1	1.503875
17.416667	1	1.490625
17.433333	1	1.478500
17.450000	1	1.466750
17.466667	1	1.454625
17.483333	1	1.443375
17.500000	1	1.432125
17.516667	1	1.422250
17.533333	1	1.412375
17.550000	1	1.402625
17.566667	1	1.393625
17.583333	1	1.385250
17.600000	1	1.378250
17.616667	1	1.371625
17.633333	1	1.364750
17.650000	1	1.358625
17.666667	1	1.353375
17.683333	1	1.350000
17.700000	1	1.347375
17.716667	1	1.344625
17.733333	1	1.343750
17.750000	1	1.344500
17.766667	1	1.346250
17.783333	1	1.349625
17.800000	1	1.354125
17.816667	1	1.361000
17.833333	1	1.369750
17.850000	1	1.380375
17.866667	1	1.393250
17.883333	1	1.407375
17.900000	1	1.423875
17.916667	1	1.442125
17.933333	1	1.461625
17.950000	1	1.481875
17.966667	1	1.504625
17.983333	1	1.527750
18.000000	1	1.552625
18.016667	1	1.578000
18.033333	1	1.603625
18.050000	1	1.628625
18.066667	1	1.653750
18.083333	1	1.679375
18.100000	1	1.704500
18.116667	1	1.728250
18.133333	1	1.751625
18.150000	1	1.773750
18.166667	1	1.795000
18.183333	1	1.815375
18.200000	1	1.833750
18.216667	1	1.850125
18.233333	1	1.865375
18.250000	1	1.878625
18.266667	1	1.890375
18.283333	1	1.900125
18.300000	1	1.908000
18.316667	1	1.913125
18.333333	1	1.915250
18.350000	1	1.915750
18.366667	1	1.914625
18.383333	1	1.910250
18.400000	1	1.903625
18.416667	1	1.896125
18.433333	1	1.886875
18.450000	1	1.875875
18.466667	1	1.862750
18.483333	1	1.849500
18.500000	1	1.835000
18.516667	1	1.819125
18.533333	1	1.802125
18.550000	1	1.784500
18.566667	1	1.766750
18.583333	1	1.747500
18.600000	1	1.728125
18.616667	1	1.708250
18.633333	1	1.688250
18.650000	1	1.668000
18.666667	1	1.647250
18.683333	1	1.626125
18.700000	1	1.605250
18.716667	1	1.583750
18.733333	1	1.562375
18.750000	1	1.540750
18.766667	1	1.519250
18.783333	1	1.498125
18.800000	1	1.477500
18.816667	1	1.457000
18.833333	1	1.437250
18.850000	1	1.418500
18.866667	1	1.399625
18.883333	1	1.381500
18.900000	1	1.364000
18.916667	1	1.347000
18.933333	1	1.330375
18.950000	1	1.314875
18.966667	1	1.299000
18.983333	1	1.283625
19.000000	1	1.269500
19.016667	1	1.256125
19.033333	1	1.242750
19.050000	1	1.230625
19.066667	1	1.219250
19.083333	1	1.208750
19.100000	1	1.200250
19.116667	1	1.193250
19.133333	1	1.187250
19.150000	1	1.183250
19.166667	1	1.181500
19.183333	1	1.182875
19.200000	1	1.186625
19.216667	1	1.193625
19.233333	1	1.203500
19.250000	1	1.216375
19.266667	1	1.232750
19.283333	1	1.252500
19.300000	1	1.275500
19.316667	1	1.301375
19.333333	1	1.329750
19.350000	1	1.360000
19.366667	1	1.392125
19.383333	1	1.425875
19.400000	1	1.460625
19.416667	1	1.496000
19.433333	1	1.531625
19.450000	1	1.565125
19.466667	1	1.598000
19.483333	1	1.629250
19.500000	1	1.659750
19.516667	1	1.688000
19.533333	1	1.713750
19.550000	1	1.738125
19.566667	1	1.759875
19.583333	1	1.779375
19.600000	1	1.795875
19.616667	1	1.810750
19.633333	1	1.822500
19.650000	1	1.831625
19.666667	1	1.837875
19.683333	1	1.840750
19.700000	1	1.840375
19.716667	1	1.837750
19.733333	1	1.832375
19.750000	1	1.824250
19.766667	1	1.813125
19.783333	1	1.799500
19.800000	1	1.784375
19.816667	1	1.766625
19.833333	1	1.748125
19.850000	1	1.728125
19.866667	1	1.708125
19.883333	1	1.687875
19.900000	1	1.668250
19.916667	1	1.649875
19.933333	1	1.633750
19.950000	1	1.619375
19.966667	1	1.607875
19.983333	1	1.599875
20.000000	1	1.594500
20.016667	1	1.593375
20.033333	1	1.595250
20.050000	1	1.599125
20.066667	1	1.606375
20.083333	1	1.615125
20.100000	1	1.626875
20.116667	1	1.639250
20.133333	1	1.653375
20.150000	1	1.668500
20.166667	1	1.683500
20.183333	1	1.698875
20.200000	1	1.713375
20.216667	1	1.727625
20.233333	1	1.741250
20.250000	1	1.754125
20.266667	1	1.766500
20.283333	1	1.778500
20.300000	1	1.790000
20.316667	1	1.800875
20.333333	1	1.810500
20.350000	1	1.820000
20.366667	1	1.829875
20.383333	1	1.839625
20.400000	1	1.848875
20.416667	1	1.859000
20.433333	1	1.869625
20.450000	1	1.879875
20.466667	1	1.891000
20.483333	1	1.902875
20.500000	1	1.915625
20.516667	1	1.929000
20.533333	1	1.943500
20.550000	1	1.958500
20.566667	1	1.973625
20.583333	1	1.988875
20.600000	1	2.003375
20.616667	1	2.017375
20.633333	1	2.030500
20.650000	1	2.042500
20.666667	1	2.053250
20.683333	1	2.061875
20.700000	1	2.069250
20.716667	1	2.074750
20.733333	1	2.078625
20.750000	1	2.081625
20.766667	1	2.083125
20.783333	1	2.083625
20.800000	1	2.083250
20.816667	1	2.082250
20.833333	1	2.081125
20.850000	1	2.079125
20.866667	1	2.076750
20.883333	1	2.074250
20.900000	1	2.071000
20.916667	1	2.066750
20.933333	1	2.062125
20.950000	1	2.056500
20.966667	1	2.049625
20.983333	1	2.041500
21.000000	1	2.031250
21.016667	1	2.019250
21.033333	1	2.004875
21.050000	1	1.988250
21.066667	1	1.968250
21.083333	1	1.946750
21.100000	1	1.922625
21.116667	1	1.895875
21.133333	1	1.866750
21.150000	1	1.835500
21.166667	1	1.803250
21.183333	1	1.770250
21.200000	1	1.735125
21.216667	1	1.700000
21.233333	1	1.665500
21.250000	1	1.631125
21.266667	1	1.597125
21.283333	1	1.564375
21.300000	1	1.532750
21.316667	1	1.502375
21.333333	1	1.473875
21.350000	1	1.446625
21.366667	1	1.421000
21.383333	1	1.396625
21.400000	1	1.372625
21.416667	1	1.349375
21.433333	1	1.326875
21.450000	1	1.304125
21.466667	1	1.281500
21.483333	1	1.258250
21.500000	1	1.234625
21.516667	1	1.210125
21.533333	1	1.185250
21.550000	1	1.159250
21.566667	1	1.132750
21.583333	1	1.105375
21.600000	1	1.077750
21.616667	1	1.049875
21.633333	1	1.022125
21.650000	1	0.994625
21.666667	1	0.966625
21.683333	1	0.939000
21.700000	1	0.911875
21.716667	1	0.885500
21.733333	1	0.860250
21.750000	1	0.836750
21.766667	1	0.814875
21.783333	1	0.794000
21.800000	1	0.774500
21.816667	1	0.756125
21.833333	1	0.739875
21.850000	1	0.725000
21.866667	1	0.712625
21.883333	1	0.702125
21.900000	1	0.693875
21.916667	1	0.688625
21.933333	1	0.685250
21.950000	1	0.684625
21.966667	1	0.687000
21.983333	1	0.691750
22.000000	1	0.699750
22.016667	1	0.710875
22.033333	1	0.724625
22.050000	1	0.740750
22.066667	1	0.760375
22.083333	1	0.782250
22.100000	1	0.807000
22.116667	1	0.833375
22.133333	1	0.861875
22.150000	1	0.891625
22.166667	1	0.922500
22.183333	1	0.954750
22.200000	1	0.987000
22.216667	1	1.018250
22.233333	1	1.050125
22.250000	1	1.080625
22.266667	1	1.110375
22.283333	1	1.139000
22.300000	1	1.165625
22.316667	1	1.191875
22.333333	1	1.216125
22.350000	1	1.238125
22.366667	1	1.258000
22.383333	1	1.275875
22.400000	1	1.290875
22.416667	1	1.303125
22.433333	1	1.312375
22.450000	1	1.319250
22.466667	1	1.322625
22.483333	1	1.323000
22.500000	1	1.320500
22.516667	1	1.315000
22.533333	1	1.306625
22.550000	1	1.294375
22.566667	1	1.279000
22.583333	1	1.260000
22.600000	1	1.238875
22.616667	1	1.215500
22.633333	1	1.189875
22.650000	1	1.162000
22.666667	1	1.133625
22.683333	1	1.103875
22.700000	1	1.074250
22.716667	1	1.044000
22.733333	1	1.014500
22.750000	1	0.984625
22.766667	1	0.957125
22.783333	1	0.930125
22.800000	1	0.905625
22.816667	1	0.882625
22.833333	1	0.861625
22.850000	1	0.842000
22.866667	1	0.825000
22.883333	1	0.809750
22.900000	1	0.797000
22.916667	1	0.786250
22.933333	1	0.776125
22.950000	1	0.767375
22.966667	1	0.760250
22.983333	1	0.754750
23.000000	1	0.749875
23.016667	1	0.745625
23.033333	1	0.742000
23.050000	1	0.738875
23.066667	1	0.736000
23.083333	1	0.733500
23.100000	1	0.731500
23.116667	1	0.729250
23.133333	1	0.726375
23.150000	1	0.724250
23.166667	1	0.720750
23.183333	1	0.717500
23.200000	1	0.713250
23.216667	1	0.709250
23.233333	1	0.705375
23.250000	1	0.700375
23.266667	1	0.695125
23.283333	1	0.689375
23.300000	1	0.683375
23.316667	1	0.677000
23.333333	1	0.670500
23.350000	1	0.663625
23.366667	1	0.656500
23.383333	1	0.648500
23.400000	1	0.641000
23.416667	1	0.632500
23.433333	1	0.624000
23.450000	1	0.614750
23.466667	1	0.605625
23.483333	1	0.596375
23.500000	1	0.587625
23.516667	1	0.578125
23.533333	1	0.569250
23.550000	1	0.560250
23.566667	1	0.551625
23.583333	1	0.543500
23.600000	1	0.535125
23.616667	1	0.527250
23.633333	1	0.519625
23.650000	1	0.512125
23.666667	1	0.506625
23.683333	1	0.501500
23.700000	1	0.497500
23.716667	1	0.495250
23.733333	1	0.494500
23.750000	1	0.495750
23.766667	1	0.498500
23.783333	1	0.503625
23.800000	1	0.512250
23.816667	1	0.524625
23.833333	1	0.539250
23.850000	1	0.558625
23.866667	1	0.582125
23.883333	1	0.610000
23.900000	1	0.642625
23.916667	1	0.679875
23.933333	1	0.721875
23.950000	1	0.768875
23.966667	1	0.819875
23.983333	1	0.875875
24.000000	1	0.934750
24.016667	1	0.997750
24.033333	1	1.063750
24.050000	1	1.130375
24.066667	1	1.199375
24.083333	1	1.268500
24.100000	1	1.338375
24.116667	1	1.407875
24.133333	1	1.475875
24.150000	1	1.542375
24.166667	1	1.606250
24.183333	1	1.667375
24.200000	1	1.726250
24.216667	1	1.782000
24.233333	1	1.833750
24.250000	1	1.882375
24.266667	1	1.926125
24.283333	1	1.966875
24.300000	1	2.003500
24.316667	1	2.036250
24.333333	1	2.064125
24.350000	1	2.087750
24.366667	1	2.107000
24.383333	1	2.121250
24.400000	1	2.130250
24.416667	1	2.134000
24.433333	1	2.132500
24.450000	1	2.125500
24.466667	1	2.112750
24.483333	1	2.094500
24.500000	1	2.070500
24.516667	1	2.040875
24.533333	1	2.006625
24.550000	1	1.968125
24.566667	1	1.924875
24.583333	1	1.877625
24.600000	1	1.827125
24.616667	1	1.773625
24.633333	1	1.718625
24.650000	1	1.661875
24.666667	1	1.604125
24.683333	1	1.545625
24.700000	1	1.488375
24.716667	1	1.432500
24.733333	1	1.378000
24.750000	1	1.325375
24.766667	1	1.275125
24.783333	1	1.226750
24.800000	1	1.181875
24.816667	1	1.140125
24.833333	1	1.100875
24.850000	1	1.065250
24.866667	1	1.032625
24.883333	1	1.002750
24.900000	1	0.975375
24.916667	1	0.951125
24.933333	1	0.929375
24.950000	1	0.909375
24.966667	1	0.890875
24.983333	1	0.875125
25.000000	1	0.860875
25.016667	1	0.848500
25.033333	1	0.836750
25.050000	1	0.826000
25.066667	1	0.815500
25.083333	1	0.805875
25.100000	1	0.796250
25.116667	1	0.786625
25.133333	1	0.776750
25.150000	1	0.767875
25.166667	1	0.757875
25.183333	1	0.747750
25.200000	1	0.736500
25.216667	1	0.725250
25.233333	1	0.713000
25.250000	1	0.700250
25.266667	1	0.686625
25.283333	1	0.672750
25.300000	1	0.658375
25.316667	1	0.643875
25.333333	1	0.628125
25.350000	1	0.612000
25.366667	1	0.595375
25.383333	1	0.579000
25.400000	1	0.563000
25.416667	1	0.546750
25.433333	1	0.530500
25.450000	1	0.514250
25.466667	1	0.498875
25.483333	1	0.483750
25.500000	1	0.469500
25.516667	1	0.455875
25.533333	1	0.443250
25.550000	1	0.430375
25.566667	1	0.419125
25.583333	1	0.407750
25.600000	1	0.398500
25.616667	1	0.389375
25.633333	1	0.381500
25.650000	1	0.374250
25.666667	1	0.367750
25.683333	1	0.362125
25.700000	1	0.357875
25.716667	1	0.354000
25.733333	1	0.350375
25.750000	1	0.348125
25.766667	1	0.346875
25.783333	1	0.346000
25.800000	1	0.345125
25.816667	1	0.344500
25.833333	1	0.344625
25.850000	1	0.345750
25.866667	1	0.346875
25.883333	1	0.348125
25.900000	1	0.350375
25.916667	1	0.352375
25.933333	1	0.354875
25.950000	1	0.357125
25.966667	1	0.359500
25.983333	1	0.362375
26.000000	1	0.365625
26.016667	1	0.369000
26.033333	1	0.372000
26.050000	1	0.375625
26.066667	1	0.379125
26.083333	1	0.383000
26.100000	1	0.386125
26.116667	1	0.389125
26.133333	1	0.392125
26.150000	1	0.394750
26.166667	1	0.397875
26.183333	1	0.400625
26.200000	1	0.403000
26.216667	1	0.405875
26.233333	1	0.407500
26.250000	1	0.410000
26.266667	1	0.412625
26.283333	1	0.414500
26.300000	1	0.416875
26.316667	1	0.419500
26.333333	1	0.422125
26.350000	1	0.424000
26.366667	1	0.426000
26.383333	1	0.429000
26.400000	1	0.431250
26.416667	1	0.433375
26.433333	1	0.436125
26.450000	1	0.438750
26.466667	1	0.441500
26.483333	1	0.444625
26.500000	1	0.448250
26.516667	1	0.451875
26.533333	1	0.454875
26.550000	1	0.458375
26.566667	1	0.461625
26.583333	1	0.465750
26.600000	1	0.469875
26.616667	1	0.474250
26.633333	1	0.478250
26.650000	1	0.482125
26.666667	1	0.485750
26.683333	1	0.489250
26.700000	1	0.493125
26.716667	1	0.497250
26.733333	1	0.500625
26.750000	1	0.504125
26.766667	1	0.507500
26.783333	1	0.510125
26.800000	1	0.512750
26.816667	1	0.514750
26.833333	1	0.516625
26.850000	1	0.517625
26.866667	1	0.518750
26.883333	1	0.519000
26.900000	1	0.518375
26.916667	1	0.517625
26.933333	1	0.517000
26.950000	1	0.516750
26.966667	1	0.514750
26.983333	1	0.512500
27.000000	1	0.510625
27.016667	1	0.508125
27.033333	1	0.505250
27.050000	1	0.501500
27.066667	1	0.497500
27.083333	1	0.493875
27.100000	1	0.489750
27.116667	1	0.485375
27.133333	1	0.480250
27.150000	1	0.475375
27.166667	1	0.470000
27.183333	1	0.464125
27.200000	1	0.458250
27.216667	1	0.451625
27.233333	1	0.445125
27.250000	1	0.437875
27.266667	1	0.431000
27.283333	1	0.424500
27.300000	1	0.417000
27.316667	1	0.409875
27.333333	1	0.401625
27.350000	1	0.393250
27.366667	1	0.384750
27.383333	1	0.377250
27.400000	1	0.368750
27.416667	1	0.360125
27.433333	1	0.351375
27.450000	1	0.342750
27.466667	1	0.334375
27.483333	1	0.325500
27.500000	1	0.316875
27.516667	1	0.308125
27.533333	1	0.300625
27.550000	1	0.293125
27.566667	1	0.285750
27.583333	1	0.279250
27.600000	1	0.273000
27.616667	1	0.267625
27.633333	1	0.262250
27.650000	1	0.257500
27.666667	1	0.253250
27.683333	1	0.249875
27.700000	1	0.248000
27.716667	1	0.246750
27.733333	1	0.247750
27.750000	1	0.251000
27.766667	1	0.255000
27.783333	1	0.261625
27.800000	1	0.271000
27.816667	1	0.283875
27.833333	1	0.299875
27.850000	1	0.319250
27.866667	1	0.343125
27.883333	1	0.371875
27.900000	1	0.404875
27.916667	1	0.444000
27.933333	1	0.488625
27.950000	1	0.538875
27.966667	1	0.595625
27.983333	1	0.658625
28.000000	1	0.727500
28.016667	1	0.802875
28.033333	1	0.884375
28.050000	1	0.971500
28.066667	1	1.064250
28.083333	1	1.161625
28.100000	1	1.262875
28.116667	1	1.366750
28.133333	1	1.473500
28.150000	1	1.581625
28.166667	1	1.691000
28.183333	1	1.799125
28.200000	1	1.907375
28.216667	1	2.013250
28.233333	1	2.116125
28.250000	1	2.215250
28.266667	1	2.310875
28.283333	1	2.401875
28.300000	1	2.487625
28.316667	1	2.567250
28.333333	1	2.642125
28.350000	1	2.711500
28.366667	1	2.774250
28.383333	1	2.831875
28.400000	1	2.884875
28.416667	1	2.932000
28.433333	1	2.973375
28.450000	1	3.009500
28.466667	1	3.040875
28.483333	1	3.067250
28.500000	1	3.088625
28.516667	1	3.105625
28.533333	1	3.116625
28.550000	1	3.123250
28.566667	1	3.124000
28.583333	1	3.119875
28.600000	1	3.109250
28.616667	1	3.092750
28.633333	1	3.069750
28.650000	1	3.040875
28.666667	1	3.005500
28.683333	1	2.963250
28.700000	1	2.913875
28.716667	1	2.857500
28.733333	1	2.794000
28.750000	1	2.723500
28.766667	1	2.646875
28.783333	1	2.564125
28.800000	1	2.475625
28.816667	1	2.382125
28.833333	1	2.284000
28.850000	1	2.182250
28.866667	1	2.076750
28.883333	1	1.969500
28.900000	1	1.861250
28.916667	1	1.752250
28.933333	1	1.643000
28.950000	1	1.534250
28.966667	1	1.427500
28.983333	1	1.323000
29.000000	1	1.221125
29.016667	1	1.123375
29.033333	1	1.028750
29.050000	1	0.939000
29.066667	1	0.853500
29.083333	1	0.772000
29.100000	1	0.695125
29.116667	1	0.623750
29.133333	1	0.557250
29.150000	1	0.495750
29.166667	1	0.439500
29.183333	1	0.387625
29.200000	1	0.340000
29.216667	1	0.296875
29.233333	1	0.257125
29.250000	1	0.221500
29.266667	1	0.189500
29.283333	1	0.160375
29.300000	1	0.134500
29.316667	1	0.111250
29.333333	1	0.090625
29.350000	1	0.073125
29.366667	1	0.057625
29.383333	1	0.043375
29.400000	1	0.031375
29.416667	1	0.022375
29.433333	1	0.014125
29.450000	1	0.007500
29.466667	1	0.002500
29.483333	1	-0.000625
29.500000	1	-0.001875
29.516667	1	-0.002875
29.533333	1	-0.002375
29.550000	1	-0.001125
29.566667	1	0.001375
29.583333	1	0.005750
29.600000	1	0.010875
29.616667	1	0.017625
29.633333	1	0.024750
29.650000	1	0.033000
29.666667	1	0.042250
29.683333	1	0.052375
29.700000	1	0.063250
29.716667	1	0.074500
29.733333	1	0.086375
29.750000	1	0.099250
29.766667	1	0.113000
29.783333	1	0.126750
29.800000	1	0.141000
29.816667	1	0.155500
29.833333	1	0.169875
29.850000	1	0.185625
29.866667	1	0.201500
29.883333	1	0.216750
29.900000	1	0.232000
29.916667	1	0.246750
29.933333	1	0.261625
29.950000	1	0.275875
29.966667	1	0.289375
29.983333	1	0.302750
30.000000	1	0.316750
30.016667	1	0.329625
30.033333	1	0.342250
30.050000	1	0.354000
30.066667	1	0.365500
30.083333	1	0.376125
30.100000	1	0.386375
30.116667	1	0.396250
30.133333	1	0.405500
30.150000	1	0.413875
30.166667	1	0.421500
30.183333	1	0.428750
30.200000	1	0.435125
30.216667	1	0.441125
30.233333	1	0.446250
30.250000	1	0.451125
30.266667	1	0.456125
30.283333	1	0.460125
30.300000	1	0.464000
30.316667	1	0.467000
30.333333	1	0.469625
30.350000	1	0.471500
30.366667	1	0.473625
30.383333	1	0.475250
30.400000	1	0.476000
30.416667	1	0.476500
30.433333	1	0.476375
30.450000	1	0.476000
30.466667	1	0.476000
30.483333	1	0.475375
30.500000	1	0.474000
30.516667	1	0.472000
30.533333	1	0.470000
30.550000	1	0.467500
30.566667	1	0.464875
30.583333	1	0.462875
30.600000	1	0.459250
30.616667	1	0.455250
30.633333	1	0.452250
30.650000	1	0.449000
30.666667	1	0.445000
30.683333	1	0.441750
30.700000	1	0.438250
30.716667	1	0.434875
30.733333	1	0.431250
30.750000	1	0.427625
30.766667	1	0.424750
30.783333	1	0.422500
30.800000	1	0.419750
30.816667	1	0.418250
30.833333	1	0.417500
30.850000	1	0.416875
30.866667	1	0.416000
30.883333	1	0.415625
30.900000	1	0.415625
30.916667	1	0.416500
30.933333	1	0.418250
30.950000	1	0.420125
30.966667	1	0.422500
30.983333	1	0.424375
31.000000	1	0.427625
31.016667	1	0.430875
31.033333	1	0.435125
31.050000	1	0.439875
31.066667	1	0.445000
31.083333	1	0.450000
31.100000	1	0.454625
31.116667	1	0.460000
31.133333	1	0.465750
31.150000	1	0.470875
31.166667	1	0.476500
31.183333	1	0.481875
31.200000	1	0.487375
31.216667	1	0.491750
31.233333	1	0.496875
31.250000	1	0.501750
31.266667	1	0.506750
31.283333	1	0.511000
31.300000	1	0.515250
31.316667	1	0.520125
31.333333	1	0.523750
31.350000	1	0.527500
31.366667	1	0.531000
31.383333	1	0.534000
31.400000	1	0.537375
31.416667	1	0.540125
31.433333	1	0.542625
31.450000	1	0.545125
31.466667	1	0.546375
31.483333	1	0.547625
31.500000	1	0.548250
31.516667	1	0.548125
31.533333	1	0.548125
31.550000	1	0.547625
31.566667	1	0.546500
31.583333	1	0.545375
31.600000	1	0.543375
31.616667	1	0.541000
31.633333	1	0.537875
31.650000	1	0.534875
31.666667	1	0.531750
31.683333	1	0.527375
31.700000	1	0.523250
31.716667	1	0.518625
31.733333	1	0.513125
31.750000	1	0.507375
31.766667	1	0.501875
31.783333	1	0.496250
31.800000	1	0.490500
31.816667	1	0.484375
31.833333	1	0.477250
31.850000	1	0.471000
31.866667	1	0.464375
31.883333	1	0.458375
31.900000	1	0.452750
31.916667	1	0.448125
31.933333	1	0.443500
31.950000	1	0.438625
31.966667	1	0.435000
31.983333	1	0.431000
32.000000	1	0.428125
32.016667	1	0.425500
32.033333	1	0.423875
32.050000	1	0.423250
32.066667	1	0.423750
32.083333	1	0.424250
32.100000	1	0.425250
32.116667	1	0.426500
32.133333	1	0.428375
32.150000	1	0.431000
32.166667	1	0.434125
32.183333	1	0.438125
32.200000	1	0.442750
32.216667	1	0.448375
32.233333	1	0.454625
32.250000	1	0.461125
32.266667	1	0.468375
32.283333	1	0.476000
32.300000	1	0.483625
32.316667	1	0.491000
32.333333	1	0.499750
32.350000	1	0.507750
32.366667	1	0.515375
32.383333	1	0.523750
32.400000	1	0.532375
32.416667	1	0.541625
32.433333	1	0.550500
32.450000	1	0.558625
32.466667	1	0.567000
32.483333	1	0.575500
32.500000	1	0.584000
32.516667	1	0.591125
32.533333	1	0.598750
32.550000	1	0.605750
32.566667	1	0.612625
32.583333	1	0.618875
32.600000	1	0.624750
32.616667	1	0.630000
32.633333	1	0.635375
32.650000	1	0.639875
32.666667	1	0.643500
32.683333	1	0.646625
32.700000	1	0.649125
32.716667	1	0.651375
32.733333	1	0.652750
32.750000	1	0.653750
32.766667	1	0.654125
32.783333	1	0.653500
32.800000	1	0.652625
32.816667	1	0.651375
32.833333	1	0.649000
32.850000	1	0.646500
32.866667	1	0.643000
32.883333	1	0.638250
32.900000	1	0.633000
32.916667	1	0.626875
32.933333	1	0.619625
32.950000	1	0.612125
32.966667	1	0.604625
32.983333	1	0.596125
33.000000	1	0.587000
33.016667	1	0.577125
33.033333	1	0.566125
33.050000	1	0.556250
33.066667	1	0.544875
33.083333	1	0.533000
33.100000	1	0.520625
33.116667	1	0.507500
33.133333	1	0.494625
33.150000	1	0.481250
33.166667	1	0.467750
33.183333	1	0.454125
33.200000	1	0.440250
33.216667	1	0.426000
33.233333	1	0.411125
33.250000	1	0.396250
33.266667	1	0.380875
33.283333	1	0.365500
33.300000	1	0.350750
33.316667	1	0.335250
33.333333	1	0.320125
33.350000	1	0.305125
33.366667	1	0.290375
33.383333	1	0.275375
33.400000	1	0.260500
33.416667	1	0.246250
33.433333	1	0.232750
33.450000	1	0.218000
33.466667	1	0.204625
33.483333	1	0.191500
33.500000	1	0.178250
33.516667	1	0.166000
33.533333	1	0.154125
33.550000	1	0.142500
33.566667	1	0.131500
33.583333	1	0.121125
33.600000	1	0.110750
33.616667	1	0.101250
33.633333	1	0.092375
33.650000	1	0.083875
33.666667	1	0.077125
33.683333	1	0.070125
33.700000	1	0.063625
33.716667	1	0.056750
33.733333	1	0.051000
33.750000	1	0.046125
33.766667	1	0.041875
33.783333	1	0.037000
33.800000	1	0.033000
33.816667	1	0.029625
33.833333	1	0.026375
33.850000	1	0.023125
33.866667	1	0.020500
33.883333	1	0.018125
33.900000	1	0.016250
33.916667	1	0.013750
33.933333	1	0.012875
33.950000	1	0.011625
33.966667	1	0.010875
33.983333	1	0.009500
34.000000	1	0.008875
34.016667	1	0.008125
34.033333	1	0.007250
34.050000	1	0.007000
34.066667	1	0.006625
34.083333	1	0.006375
34.100000	1	0.007125
34.116667	1	0.007750
34.133333	1	0.008375
34.150000	1	0.009375
34.166667	1	0.010625
34.183333	1	0.012000
34.200000	1	0.013500
34.216667	1	0.015500
34.233333	1	0.016500
34.250000	1	0.018750
34.266667	1	0.022500
34.283333	1	0.025750
34.300000	1	0.029250
34.316667	1	0.033625
34.333333	1	0.038500
34.350000	1	0.043000
34.366667	1	0.048125
34.383333	1	0.053500
34.400000	1	0.059625
34.416667	1	0.065250
34.433333	1	0.072500
34.450000	1	0.079750
34.466667	1	0.087375
34.483333	1	0.094750
34.500000	1	0.102375
34.516667	1	0.110250
34.533333	1	0.117875
34.550000	1	0.125625
34.566667	1	0.133625
34.583333	1	0.142000
34.600000	1	0.150125
34.616667	1	0.157875
34.633333	1	0.164875
34.650000	1	0.173000
34.666667	1	0.180750
34.683333	1	0.187125
34.700000	1	0.193750
34.716667	1	0.200750
34.733333	1	0.207125
34.750000	1	0.212875
34.766667	1	0.218500
34.783333	1	0.223625
34.800000	1	0.228625
34.816667	1	0.232750
34.833333	1	0.237125
34.850000	1	0.240875
34.866667	1	0.244000
34.883333	1	0.246875
34.900000	1	0.249750
34.916667	1	0.252375
34.933333	1	0.254875
34.950000	1	0.256125
34.966667	1	0.257500
34.983333	1	0.258500
35.000000	1	0.258500
35.016667	1	0.259625
35.033333	1	0.259500
35.050000	1	0.259125
35.066667	1	0.257875
35.083333	1	0.256625
35.100000	1	0.254500
35.116667	1	0.252500
35.133333	1	0.250375
35.150000	1	0.247000
35.166667	1	0.243875
35.183333	1	0.239875
35.200000	1	0.235875
35.216667	1	0.232250
35.233333	1	0.227250
35.250000	1	0.221625
35.266667	1	0.215875
35.283333	1	0.210125
35.300000	1	0.203875
35.316667	1	0.196875
35.333333	1	0.190250
35.350000	1	0.183000
35.366667	1	0.176375
35.383333	1	0.169000
35.400000	1	0.161875
35.416667	1	0.154375
35.433333	1	0.147250
35.450000	1	0.140125
35.466667	1	0.132875
35.483333	1	0.125625
35.500000	1	0.120000
35.516667	1	0.113875
35.533333	1	0.107250
35.550000	1	0.101375
35.566667	1	0.095625
35.583333	1	0.090750
35.600000	1	0.085750
35.616667	1	0.081125
35.633333	1	0.077125
35.650000	1	0.073625
35.666667	1	0.069875
35.683333	1	0.066750
35.700000	1	0.063625
35.716667	1	0.061500
35.733333	1	0.058625
35.750000	1	0.057125
35.766667	1	0.055750
35.783333	1	0.054750
35.800000	1	0.053500
35.816667	1	0.052750
35.833333	1	0.052625
35.850000	1	0.052375
35.866667	1	0.052625
35.883333	1	0.053375
35.900000	1	0.053875
35.916667	1	0.054375
35.933333	1	0.055750
35.950000	1	0.057500
35.966667	1	0.059375
35.983333	1	0.061375
36.000000	1	0.063000
36.016667	1	0.064625
36.033333	1	0.066875
36.050000	1	0.069000
36.066667	1	0.072125
36.083333	1	0.074125
36.100000	1	0.076750
36.116667	1	0.078875
36.133333	1	0.081000
36.150000	1	0.084375
36.166667	1	0.087500
36.183333	1	0.090375
36.200000	1	0.094500
36.216667	1	0.097250
36.233333	1	0.100250
36.250000	1	0.103500
36.266667	1	0.107125
36.283333	1	0.110375
36.300000	1	0.113625
36.316667	1	0.116250
36.333333	1	0.120125
36.350000	1	0.123875
36.366667	1	0.127375
36.383333	1	0.131000
36.400000	1	0.135125
36.416667	1	0.139250
36.433333	1	0.142750
36.450000	1	0.146250
36.466667	1	0.148875
36.483333	1	0.153000
36.500000	1	0.156250
36.516667	1	0.160125
36.533333	1	0.163500
36.550000	1	0.167375
36.566667	1	0.170500
36.583333	1	0.174750
36.600000	1	0.178125
36.616667	1	0.181375
36.633333	1	0.185250
36.650000	1	0.188250
36.666667	1	0.191625
36.683333	1	0.194250
36.700000	1	0.197125
36.716667	1	0.200125
36.733333	1	0.203500
36.750000	1	0.206500
36.766667	1	0.209250
36.783333	1	0.211750
36.800000	1	0.214375
36.816667	1	0.216625
36.833333	1	0.219375
36.850000	1	0.221875
36.866667	1	0.223750
36.883333	1	0.226125
36.900000	1	0.227625
36.916667	1	0.228750
36.933333	1	0.230250
36.950000	1	0.231750
36.966667	1	0.233250
36.983333	1	0.234250
37.000000	1	0.235125
37.016667	1	0.236500
37.033333	1	0.237000
37.050000	1	0.237375
37.066667	1	0.237625
37.083333	1	0.237250
37.100000	1	0.236500
37.116667	1	0.236000
37.133333	1	0.235375
37.150000	1	0.234375
37.166667	1	0.233000
37.183333	1	0.231000
37.200000	1	0.228750
37.216667	1	0.226375
37.233333	1	0.224125
37.250000	1	0.221375
37.266667	1	0.218250
37.283333	1	0.215125
37.300000	1	0.211875
37.316667	1	0.208250
37.333333	1	0.204125
37.350000	1	0.200875
37.366667	1	0.196875
37.383333	1	0.192125
37.400000	1	0.186750
37.416667	1	0.182000
37.433333	1	0.176500
37.450000	1	0.171625
37.466667	1	0.166750
37.483333	1	0.161875
37.500000	1	0.156625
37.516667	1	0.151625
37.533333	1	0.146000
37.550000	1	0.140375
37.566667	1	0.135000
37.583333	1	0.129750
37.600000	1	0.124250
37.616667	1	0.118500
37.633333	1	0.112750
37.650000	1	0.106875
37.666667	1	0.101250
37.683333	1	0.095750
37.700000	1	0.090625
37.716667	1	0.085000
37.733333	1	0.079375
37.750000	1	0.073750
37.766667	1	0.067875
37.783333	1	0.062750
37.800000	1	0.057250
37.816667	1	0.052125
37.833333	1	0.047250
37.850000	1	0.042250
37.866667	1	0.037250
37.883333	1	0.032875
37.900000	1	0.028375
37.916667	1	0.023625
37.933333	1	0.018875
37.950000	1	0.014250
37.966667	1	0.009625
37.983333	1	0.006125
38.000000	1	0.003000
38.016667	1	-0.000625
38.033333	1	-0.004375
38.050000	1	-0.008000
38.066667	1	-0.011375
38.083333	1	-0.014375
38.100000	1	-0.017375
38.116667	1	-0.019875
38.133333	1	-0.021500
38.150000	1	-0.023750
38.166667	1	-0.025625
38.183333	1	-0.028125
38.200000	1	-0.030250
38.216667	1	-0.032500
38.233333	1	-0.034125
38.250000	1	-0.035625
38.266667	1	-0.036500
38.283333	1	-0.037500
38.300000	1	-0.037500
38.316667	1	-0.038875
38.333333	1	-0.039500
38.350000	1	-0.040125
38.366667	1	-0.040125
38.383333	1	-0.040250
38.400000	1	-0.039875
38.416667	1	-0.040125
38.433333	1	-0.039750
38.450000	1	-0.039875
38.466667	1	-0.039250
38.483333	1	-0.038250
38.500000	1	-0.037875
38.516667	1	-0.037125
38.533333	1	-0.036750
38.550000	1	-0.036625
38.566667	1	-0.036000
38.583333	1	-0.034500
38.600000	1	-0.033375
38.616667	1	-0.032875
38.633333	1	-0.031750
38.650000	1	-0.031375
38.666667	1	-0.030625
38.683333	1	-0.030375
38.700000	1	-0.029875
38.716667	1	-0.028875
38.733333	1	-0.027875
38.750000	1	-0.026625
38.766667	1	-0.025875
38.783333	1	-0.024500
38.800000	1	-0.024000
38.816667	1	-0.023250
38.833333	1	-0.022500
38.850000	1	-0.021875
38.866667	1	-0.021750
38.883333	1	-0.021000
38.900000	1	-0.019750
38.916667	1	-0.018750
38.933333	1	-0.017875
38.950000	1	-0.017125
38.966667	1	-0.016500
38.983333	1	-0.015750
39.000000	1	-0.015000
39.016667	1	-0.014875
39.033333	1	-0.014375
39.050000	1	-0.013375
39.066667	1	-0.012875
39.083333	1	-0.012375
39.100000	1	-0.011750
39.116667	1	-0.011125
39.133333	1	-0.010625
39.150000	1	-0.009750
39.166667	1	-0.009750
39.183333	1	-0.009500
39.200000	1	-0.010250
39.216667	1	-0.010000
39.233333	1	-0.010250
39.250000	1	-0.010750
39.266667	1	-0.010500
39.283333	1	-0.010000
39.300000	1	-0.010000
39.316667	1	-0.009625
39.333333	1	-0.009500
39.350000	1	-0.009000
39.366667	1	-0.009250
39.383333	1	-0.009000
39.400000	1	-0.009000
39.416667	1	-0.008750
39.433333	1	-0.008500
39.450000	1	-0.008125
39.466667	1	-0.008250
39.483333	1	-0.008250
39.500000	1	-0.008125
39.516667	1	-0.007625
39.533333	1	-0.008375
39.550000	1	-0.008375
39.566667	1	-0.008125
39.583333	1	-0.008500
39.600000	1	-0.008125
39.616667	1	-0.008375
39.633333	1	-0.008875
39.650000	1	-0.008625
39.666667	1	-0.008625
39.683333	1	-0.008500
39.700000	1	-0.009000
39.716667	1	-0.009375
39.733333	1	-0.009250
39.750000	1	-0.009250
39.766667	1	-0.009375
39.783333	1	-0.009750
39.800000	1	-0.010000
39.816667	1	-0.010125
39.833333	1	-0.010125
39.850000	1	-0.011000
39.866667	1	-0.011625
39.883333	1	-0.011625
39.900000	1	-0.011500
39.916667	1	-0.011750
39.933333	1	-0.012375
39.950000	1	-0.012500
39.966667	1	-0.012500
39.983333	1	-0.012000
40.000000	1	-0.012875
