File Path	chrom://marshall/Chromeleon7/HPLC_Ultimate_3000/Users/markusar/20230107.seq/657.smp/RI_1.channel/RI_1.chm
Channel	RI_1

Injection Information:
Data Vault	Chromeleon7
Injection	er2.2
Injection Number	7
Position	RA7
Comment	
Processing Method	
Instrument Method	std_method
Type	Unknown
Status	Finished
Injection Date	07.01.2023
Injection Time	19:59:53
Injection Volume (µl)	20.000
Dilution Factor	1.0000
Weight	1.0000

Chromatogram Data Information:
Time Min. (min)	0.000000
Time Max. (min)	40.000000
Data Points	2401
Detector	RI
Generating Data System	Chromeleon 7.2.5.9507
Exporting Data System	Chromeleon 7.2.5.0
Operator	Instrument Controller
Signal Quantity	Refractive 
Signal Unit	µRIU
Signal Min.	-0.090875
Signal Max.	111.122875
Channel	RI_1
Driver Name	RID520Driver.dll
Channel Type	Evaluation
Min. Step (s)	1
Max. Step (s)	1
Average Step (s)	1

Signal Parameter Information:
Signal Info	

Chromatogram Data:
Time (min)	Step (s)	Value (µRIU)
0.000000	n.a.	0.168125
0.016667	1	0.169750
0.033333	1	0.171750
0.050000	1	0.173750
0.066667	1	0.175750
0.083333	1	0.177375
0.100000	1	0.179000
0.116667	1	0.180375
0.133333	1	0.181500
0.150000	1	0.182000
0.166667	1	0.183000
0.183333	1	0.183250
0.200000	1	0.183875
0.216667	1	0.184250
0.233333	1	0.184125
0.250000	1	0.183625
0.266667	1	0.184250
0.283333	1	0.184250
0.300000	1	0.183375
0.316667	1	0.183250
0.333333	1	0.183250
0.350000	1	0.182750
0.366667	1	0.181625
0.383333	1	0.180625
0.400000	1	0.180250
0.416667	1	0.180000
0.433333	1	0.178750
0.450000	1	0.177375
0.466667	1	0.176500
0.483333	1	0.174500
0.500000	1	0.172750
0.516667	1	0.170500
0.533333	1	0.168625
0.550000	1	0.167750
0.566667	1	0.166250
0.583333	1	0.164500
0.600000	1	0.162875
0.616667	1	0.161500
0.633333	1	0.160375
0.650000	1	0.159750
0.666667	1	0.158750
0.683333	1	0.156875
0.700000	1	0.155125
0.716667	1	0.153375
0.733333	1	0.151875
0.750000	1	0.149125
0.766667	1	0.146875
0.783333	1	0.144250
0.800000	1	0.140625
0.816667	1	0.137375
0.833333	1	0.133875
0.850000	1	0.129750
0.866667	1	0.126750
0.883333	1	0.124000
0.900000	1	0.121125
0.916667	1	0.117625
0.933333	1	0.114875
0.950000	1	0.112375
0.966667	1	0.110125
0.983333	1	0.108125
1.000000	1	0.106125
1.016667	1	0.104125
1.033333	1	0.102000
1.050000	1	0.099625
1.066667	1	0.098000
1.083333	1	0.096000
1.100000	1	0.093875
1.116667	1	0.091750
1.133333	1	0.089875
1.150000	1	0.088000
1.166667	1	0.086750
1.183333	1	0.085125
1.200000	1	0.082875
1.216667	1	0.081375
1.233333	1	0.079250
1.250000	1	0.077250
1.266667	1	0.075250
1.283333	1	0.074625
1.300000	1	0.072750
1.316667	1	0.070750
1.333333	1	0.068625
1.350000	1	0.067375
1.366667	1	0.066000
1.383333	1	0.064375
1.400000	1	0.062375
1.416667	1	0.060125
1.433333	1	0.058500
1.450000	1	0.056750
1.466667	1	0.054875
1.483333	1	0.052875
1.500000	1	0.051375
1.516667	1	0.049625
1.533333	1	0.048750
1.550000	1	0.047250
1.566667	1	0.046250
1.583333	1	0.044000
1.600000	1	0.042625
1.616667	1	0.040625
1.633333	1	0.038375
1.650000	1	0.036875
1.666667	1	0.034375
1.683333	1	0.033000
1.700000	1	0.031750
1.716667	1	0.030000
1.733333	1	0.028000
1.750000	1	0.026125
1.766667	1	0.023875
1.783333	1	0.021750
1.800000	1	0.019375
1.816667	1	0.016750
1.833333	1	0.014375
1.850000	1	0.012500
1.866667	1	0.010625
1.883333	1	0.008500
1.900000	1	0.006125
1.916667	1	0.004000
1.933333	1	0.001875
1.950000	1	-0.000375
1.966667	1	-0.002875
1.983333	1	-0.005375
2.000000	1	-0.008625
2.016667	1	-0.010750
2.033333	1	-0.012750
2.050000	1	-0.015375
2.066667	1	-0.018375
2.083333	1	-0.020750
2.100000	1	-0.023500
2.116667	1	-0.025375
2.133333	1	-0.027250
2.150000	1	-0.029625
2.166667	1	-0.032125
2.183333	1	-0.033375
2.200000	1	-0.035250
2.216667	1	-0.037750
2.233333	1	-0.040125
2.250000	1	-0.041625
2.266667	1	-0.044125
2.283333	1	-0.046500
2.300000	1	-0.048375
2.316667	1	-0.050375
2.333333	1	-0.052250
2.350000	1	-0.054250
2.366667	1	-0.055875
2.383333	1	-0.058250
2.400000	1	-0.060000
2.416667	1	-0.061750
2.433333	1	-0.063625
2.450000	1	-0.064875
2.466667	1	-0.066625
2.483333	1	-0.068000
2.500000	1	-0.069500
2.516667	1	-0.071250
2.533333	1	-0.072625
2.550000	1	-0.073750
2.566667	1	-0.075875
2.583333	1	-0.076875
2.600000	1	-0.078250
2.616667	1	-0.079500
2.633333	1	-0.080875
2.650000	1	-0.081375
2.666667	1	-0.082375
2.683333	1	-0.082750
2.700000	1	-0.083500
2.716667	1	-0.084375
2.733333	1	-0.085000
2.750000	1	-0.085375
2.766667	1	-0.085625
2.783333	1	-0.086125
2.800000	1	-0.086125
2.816667	1	-0.086500
2.833333	1	-0.086750
2.850000	1	-0.086625
2.866667	1	-0.086125
2.883333	1	-0.086125
2.900000	1	-0.085875
2.916667	1	-0.085625
2.933333	1	-0.086125
2.950000	1	-0.085875
2.966667	1	-0.086125
2.983333	1	-0.085750
3.000000	1	-0.085250
3.016667	1	-0.084625
3.033333	1	-0.083750
3.050000	1	-0.082750
3.066667	1	-0.081375
3.083333	1	-0.080125
3.100000	1	-0.078875
3.116667	1	-0.077500
3.133333	1	-0.076625
3.150000	1	-0.074375
3.166667	1	-0.076625
3.183333	1	-0.072500
3.200000	1	-0.070125
3.216667	1	-0.067000
3.233333	1	-0.064750
3.250000	1	-0.062625
3.266667	1	-0.060125
3.283333	1	-0.057500
3.300000	1	-0.055250
3.316667	1	-0.052750
3.333333	1	-0.050000
3.350000	1	-0.047875
3.366667	1	-0.045125
3.383333	1	-0.043125
3.400000	1	-0.040500
3.416667	1	-0.037250
3.433333	1	-0.034625
3.450000	1	-0.032250
3.466667	1	-0.029500
3.483333	1	-0.026750
3.500000	1	-0.024375
3.516667	1	-0.021375
3.533333	1	-0.018500
3.550000	1	-0.016250
3.566667	1	-0.013875
3.583333	1	-0.010875
3.600000	1	-0.008375
3.616667	1	-0.005875
3.633333	1	-0.003125
3.650000	1	-0.000125
3.666667	1	0.002500
3.683333	1	0.004500
3.700000	1	0.006875
3.716667	1	0.009250
3.733333	1	0.011625
3.750000	1	0.013625
3.766667	1	0.016250
3.783333	1	0.018125
3.800000	1	0.020000
3.816667	1	0.023000
3.833333	1	0.025375
3.850000	1	0.027375
3.866667	1	0.029125
3.883333	1	0.030500
3.900000	1	0.032375
3.916667	1	0.034250
3.933333	1	0.035875
3.950000	1	0.037625
3.966667	1	0.039000
3.983333	1	0.040625
4.000000	1	0.041750
4.016667	1	0.043250
4.033333	1	0.044875
4.050000	1	0.045750
4.066667	1	0.047250
4.083333	1	0.047375
4.100000	1	0.048500
4.116667	1	0.050000
4.133333	1	0.051000
4.150000	1	0.051750
4.166667	1	0.052625
4.183333	1	0.053250
4.200000	1	0.053375
4.216667	1	0.054125
4.233333	1	0.054500
4.250000	1	0.054375
4.266667	1	0.054625
4.283333	1	0.055125
4.300000	1	0.054875
4.316667	1	0.055000
4.333333	1	0.055000
4.350000	1	0.054875
4.366667	1	0.054625
4.383333	1	0.053875
4.400000	1	0.053750
4.416667	1	0.053375
4.433333	1	0.053000
4.450000	1	0.053375
4.466667	1	0.052875
4.483333	1	0.052375
4.500000	1	0.051875
4.516667	1	0.051750
4.533333	1	0.050625
4.550000	1	0.049750
4.566667	1	0.049375
4.583333	1	0.048625
4.600000	1	0.048000
4.616667	1	0.047250
4.633333	1	0.046750
4.650000	1	0.046125
4.666667	1	0.045625
4.683333	1	0.044375
4.700000	1	0.043375
4.716667	1	0.042750
4.733333	1	0.042750
4.750000	1	0.041750
4.766667	1	0.040875
4.783333	1	0.040500
4.800000	1	0.040250
4.816667	1	0.040000
4.833333	1	0.040125
4.850000	1	0.039375
4.866667	1	0.039625
4.883333	1	0.039125
4.900000	1	0.039625
4.916667	1	0.039375
4.933333	1	0.038375
4.950000	1	0.038500
4.966667	1	0.038625
4.983333	1	0.038500
5.000000	1	0.038000
5.016667	1	0.038500
5.033333	1	0.038375
5.050000	1	0.037375
5.066667	1	0.037250
5.083333	1	0.037500
5.100000	1	0.037875
5.116667	1	0.037625
5.133333	1	0.037000
5.150000	1	0.036500
5.166667	1	0.036625
5.183333	1	0.036750
5.200000	1	0.037000
5.216667	1	0.036750
5.233333	1	0.036500
5.250000	1	0.036250
5.266667	1	0.036750
5.283333	1	0.036750
5.300000	1	0.036500
5.316667	1	0.036750
5.333333	1	0.036750
5.350000	1	0.037000
5.366667	1	0.037625
5.383333	1	0.037750
5.400000	1	0.038375
5.416667	1	0.039125
5.433333	1	0.039875
5.450000	1	0.040250
5.466667	1	0.041125
5.483333	1	0.042375
5.500000	1	0.043125
5.516667	1	0.044500
5.533333	1	0.045125
5.550000	1	0.046500
5.566667	1	0.047500
5.583333	1	0.049000
5.600000	1	0.050000
5.616667	1	0.051625
5.633333	1	0.053625
5.650000	1	0.054375
5.666667	1	0.055375
5.683333	1	0.056875
5.700000	1	0.058375
5.716667	1	0.059750
5.733333	1	0.061000
5.750000	1	0.062250
5.766667	1	0.063625
5.783333	1	0.064625
5.800000	1	0.066125
5.816667	1	0.068125
5.833333	1	0.069625
5.850000	1	0.071125
5.866667	1	0.072500
5.883333	1	0.074250
5.900000	1	0.075250
5.916667	1	0.076125
5.933333	1	0.077750
5.950000	1	0.079625
5.966667	1	0.080750
5.983333	1	0.082125
6.000000	1	0.083750
6.016667	1	0.086000
6.033333	1	0.088000
6.050000	1	0.089625
6.066667	1	0.091375
6.083333	1	0.093500
6.100000	1	0.094875
6.116667	1	0.096750
6.133333	1	0.098125
6.150000	1	0.100125
6.166667	1	0.101875
6.183333	1	0.104250
6.200000	1	0.105500
6.216667	1	0.107750
6.233333	1	0.109875
6.250000	1	0.111500
6.266667	1	0.113375
6.283333	1	0.114625
6.300000	1	0.116250
6.316667	1	0.117750
6.333333	1	0.120000
6.350000	1	0.122000
6.366667	1	0.124000
6.383333	1	0.125750
6.400000	1	0.127250
6.416667	1	0.128875
6.433333	1	0.130500
6.450000	1	0.132000
6.466667	1	0.133625
6.483333	1	0.135000
6.500000	1	0.136375
6.516667	1	0.138000
6.533333	1	0.139500
6.550000	1	0.141000
6.566667	1	0.142250
6.583333	1	0.143625
6.600000	1	0.144625
6.616667	1	0.145500
6.633333	1	0.146500
6.650000	1	0.146500
6.666667	1	0.147500
6.683333	1	0.148125
6.700000	1	0.148625
6.716667	1	0.149500
6.733333	1	0.149750
6.750000	1	0.150000
6.766667	1	0.150875
6.783333	1	0.151375
6.800000	1	0.151250
6.816667	1	0.151000
6.833333	1	0.150750
6.850000	1	0.150375
6.866667	1	0.149625
6.883333	1	0.149250
6.900000	1	0.149250
6.916667	1	0.149375
6.933333	1	0.149000
6.950000	1	0.148750
6.966667	1	0.148875
6.983333	1	0.148375
7.000000	1	0.148625
7.016667	1	0.148625
7.033333	1	0.148000
7.050000	1	0.146875
7.066667	1	0.146750
7.083333	1	0.146750
7.100000	1	0.146625
7.116667	1	0.146500
7.133333	1	0.146875
7.150000	1	0.147125
7.166667	1	0.147875
7.183333	1	0.148375
7.200000	1	0.149375
7.216667	1	0.149625
7.233333	1	0.149500
7.250000	1	0.149125
7.266667	1	0.149250
7.283333	1	0.149750
7.300000	1	0.150375
7.316667	1	0.150375
7.333333	1	0.151125
7.350000	1	0.152000
7.366667	1	0.153125
7.383333	1	0.153500
7.400000	1	0.154250
7.416667	1	0.154875
7.433333	1	0.155250
7.450000	1	0.156250
7.466667	1	0.156875
7.483333	1	0.156875
7.500000	1	0.157750
7.516667	1	0.158375
7.533333	1	0.158750
7.550000	1	0.159500
7.566667	1	0.159000
7.583333	1	0.159250
7.600000	1	0.159750
7.616667	1	0.159750
7.633333	1	0.160375
7.650000	1	0.160875
7.666667	1	0.161500
7.683333	1	0.161500
7.700000	1	0.161375
7.716667	1	0.161375
7.733333	1	0.161625
7.750000	1	0.161375
7.766667	1	0.161875
7.783333	1	0.162625
7.800000	1	0.163375
7.816667	1	0.164000
7.833333	1	0.165250
7.850000	1	0.165500
7.866667	1	0.165625
7.883333	1	0.165750
7.900000	1	0.166000
7.916667	1	0.166750
7.933333	1	0.166750
7.950000	1	0.167000
7.966667	1	0.168125
7.983333	1	0.168250
8.000000	1	0.168500
8.016667	1	0.168375
8.033333	1	0.168875
8.050000	1	0.168625
8.066667	1	0.168250
8.083333	1	0.168625
8.100000	1	0.168125
8.116667	1	0.167750
8.133333	1	0.167375
8.150000	1	0.167000
8.166667	1	0.166375
8.183333	1	0.165750
8.200000	1	0.164875
8.216667	1	0.164000
8.233333	1	0.163125
8.250000	1	0.162375
8.266667	1	0.161000
8.283333	1	0.159500
8.300000	1	0.158375
8.316667	1	0.157125
8.333333	1	0.155875
8.350000	1	0.154000
8.366667	1	0.152375
8.383333	1	0.150625
8.400000	1	0.149375
8.416667	1	0.148000
8.433333	1	0.146375
8.450000	1	0.144375
8.466667	1	0.142750
8.483333	1	0.140625
8.500000	1	0.138875
8.516667	1	0.137000
8.533333	1	0.135250
8.550000	1	0.133875
8.566667	1	0.131750
8.583333	1	0.130250
8.600000	1	0.128000
8.616667	1	0.126750
8.633333	1	0.124500
8.650000	1	0.122875
8.666667	1	0.120875
8.683333	1	0.119625
8.700000	1	0.118125
8.716667	1	0.116500
8.733333	1	0.116000
8.750000	1	0.114625
8.766667	1	0.113125
8.783333	1	0.112250
8.800000	1	0.112000
8.816667	1	0.112125
8.833333	1	0.111125
8.850000	1	0.111125
8.866667	1	0.110625
8.883333	1	0.110000
8.900000	1	0.109500
8.916667	1	0.109500
8.933333	1	0.109625
8.950000	1	0.110000
8.966667	1	0.110125
8.983333	1	0.110375
9.000000	1	0.110625
9.016667	1	0.111250
9.033333	1	0.111500
9.050000	1	0.112125
9.066667	1	0.112375
9.083333	1	0.112875
9.100000	1	0.113500
9.116667	1	0.114250
9.133333	1	0.115250
9.150000	1	0.116250
9.166667	1	0.116875
9.183333	1	0.117875
9.200000	1	0.119000
9.216667	1	0.120500
9.233333	1	0.121125
9.250000	1	0.122750
9.266667	1	0.124000
9.283333	1	0.125500
9.300000	1	0.126750
9.316667	1	0.127875
9.333333	1	0.130000
9.350000	1	0.131750
9.366667	1	0.133375
9.383333	1	0.135125
9.400000	1	0.136875
9.416667	1	0.139250
9.433333	1	0.141500
9.450000	1	0.143500
9.466667	1	0.146500
9.483333	1	0.150125
9.500000	1	0.153375
9.516667	1	0.156875
9.533333	1	0.160125
9.550000	1	0.164125
9.566667	1	0.168625
9.583333	1	0.173625
9.600000	1	0.178750
9.616667	1	0.184000
9.633333	1	0.189875
9.650000	1	0.196750
9.666667	1	0.202875
9.683333	1	0.209375
9.700000	1	0.218125
9.716667	1	0.228125
9.733333	1	0.239375
9.750000	1	0.251500
9.766667	1	0.266250
9.783333	1	0.283250
9.800000	1	0.302625
9.816667	1	0.324250
9.833333	1	0.350125
9.850000	1	0.378750
9.866667	1	0.410000
9.883333	1	0.445000
9.900000	1	0.483625
9.916667	1	0.524750
9.933333	1	0.568750
9.950000	1	0.614500
9.966667	1	0.664000
9.983333	1	0.717250
10.000000	1	0.773875
10.016667	1	0.835375
10.033333	1	0.899875
10.050000	1	0.962875
10.066667	1	1.017625
10.083333	1	1.054625
10.100000	1	1.066625
10.116667	1	1.049000
10.133333	1	1.004125
10.150000	1	0.942375
10.166667	1	0.880500
10.183333	1	0.842250
10.200000	1	0.857250
10.216667	1	0.960250
10.233333	1	1.190750
10.250000	1	1.589375
10.266667	1	2.201375
10.283333	1	3.071625
10.300000	1	4.247625
10.316667	1	5.775250
10.333333	1	7.698750
10.350000	1	10.057625
10.366667	1	12.888125
10.383333	1	16.222125
10.400000	1	20.090000
10.416667	1	24.512000
10.433333	1	29.498375
10.450000	1	35.042250
10.466667	1	41.134750
10.483333	1	47.739625
10.500000	1	54.794750
10.516667	1	62.193750
10.533333	1	69.787750
10.550000	1	77.386125
10.566667	1	84.760875
10.583333	1	91.664875
10.600000	1	97.852875
10.616667	1	103.082875
10.633333	1	107.144625
10.650000	1	109.866375
10.666667	1	111.122875
10.683333	1	110.826250
10.700000	1	108.944875
10.716667	1	105.517250
10.733333	1	100.671875
10.750000	1	94.617500
10.766667	1	87.640500
10.783333	1	80.048625
10.800000	1	72.158000
10.816667	1	64.267625
10.833333	1	56.641125
10.850000	1	49.482375
10.866667	1	42.934625
10.883333	1	37.090000
10.900000	1	31.987750
10.916667	1	27.623500
10.933333	1	23.954375
10.950000	1	20.916500
10.966667	1	18.432000
10.983333	1	16.416250
11.000000	1	14.788125
11.016667	1	13.474125
11.033333	1	12.409750
11.050000	1	11.538875
11.066667	1	10.816375
11.083333	1	10.208750
11.100000	1	9.684250
11.116667	1	9.223250
11.133333	1	8.808875
11.150000	1	8.428250
11.166667	1	8.073250
11.183333	1	7.737625
11.200000	1	7.415750
11.216667	1	7.106625
11.233333	1	6.809000
11.250000	1	6.521375
11.266667	1	6.244750
11.283333	1	5.979750
11.300000	1	5.726000
11.316667	1	5.488375
11.333333	1	5.258750
11.350000	1	5.043875
11.366667	1	4.844875
11.383333	1	4.661375
11.400000	1	4.495125
11.416667	1	4.347500
11.433333	1	4.217750
11.450000	1	4.106000
11.466667	1	4.011750
11.483333	1	3.933500
11.500000	1	3.867875
11.516667	1	3.813125
11.533333	1	3.765750
11.550000	1	3.724375
11.566667	1	3.686375
11.583333	1	3.650875
11.600000	1	3.616375
11.616667	1	3.582625
11.633333	1	3.549375
11.650000	1	3.517375
11.666667	1	3.485625
11.683333	1	3.454750
11.700000	1	3.425000
11.716667	1	3.395750
11.733333	1	3.366500
11.750000	1	3.336125
11.766667	1	3.304500
11.783333	1	3.270750
11.800000	1	3.235750
11.816667	1	3.199000
11.833333	1	3.160125
11.850000	1	3.120750
11.866667	1	3.080375
11.883333	1	3.039750
11.900000	1	2.999125
11.916667	1	2.959500
11.933333	1	2.921500
11.950000	1	2.883000
11.966667	1	2.846125
11.983333	1	2.809375
12.000000	1	2.773000
12.016667	1	2.736625
12.033333	1	2.701500
12.050000	1	2.667000
12.066667	1	2.632375
12.083333	1	2.599000
12.100000	1	2.565625
12.116667	1	2.532875
12.133333	1	2.500500
12.150000	1	2.469250
12.166667	1	2.438500
12.183333	1	2.409125
12.200000	1	2.381625
12.216667	1	2.355375
12.233333	1	2.330250
12.250000	1	2.307875
12.266667	1	2.287750
12.283333	1	2.269750
12.300000	1	2.255000
12.316667	1	2.242875
12.333333	1	2.235625
12.350000	1	2.233250
12.366667	1	2.237625
12.383333	1	2.248625
12.400000	1	2.267750
12.416667	1	2.297250
12.433333	1	2.338250
12.450000	1	2.394125
12.466667	1	2.467625
12.483333	1	2.562000
12.500000	1	2.680000
12.516667	1	2.826750
12.533333	1	3.007375
12.550000	1	3.225250
12.566667	1	3.484625
12.583333	1	3.789625
12.600000	1	4.139875
12.616667	1	4.535375
12.633333	1	4.974625
12.650000	1	5.453625
12.666667	1	5.968250
12.683333	1	6.510625
12.700000	1	7.076250
12.716667	1	7.657000
12.733333	1	8.247875
12.750000	1	8.843625
12.766667	1	9.442875
12.783333	1	10.042875
12.800000	1	10.642500
12.816667	1	11.242750
12.833333	1	11.844250
12.850000	1	12.449250
12.866667	1	13.059250
12.883333	1	13.674500
12.900000	1	14.295000
12.916667	1	14.918625
12.933333	1	15.541375
12.950000	1	16.157500
12.966667	1	16.758750
12.983333	1	17.336875
13.000000	1	17.881875
13.016667	1	18.385000
13.033333	1	18.839000
13.050000	1	19.237250
13.066667	1	19.573750
13.083333	1	19.845500
13.100000	1	20.047000
13.116667	1	20.177750
13.133333	1	20.239000
13.150000	1	20.232375
13.166667	1	20.160750
13.183333	1	20.028625
13.200000	1	19.839875
13.216667	1	19.601000
13.233333	1	19.317625
13.250000	1	18.994125
13.266667	1	18.636750
13.283333	1	18.249875
13.300000	1	17.840125
13.316667	1	17.410625
13.333333	1	16.966250
13.350000	1	16.511000
13.366667	1	16.048500
13.383333	1	15.582125
13.400000	1	15.113375
13.416667	1	14.645125
13.433333	1	14.178125
13.450000	1	13.712625
13.466667	1	13.248250
13.483333	1	12.784000
13.500000	1	12.317875
13.516667	1	11.850500
13.533333	1	11.379625
13.550000	1	10.903875
13.566667	1	10.421375
13.583333	1	9.934500
13.600000	1	9.444000
13.616667	1	8.954125
13.633333	1	8.469750
13.650000	1	7.998000
13.666667	1	7.544500
13.683333	1	7.115500
13.700000	1	6.716625
13.716667	1	6.352500
13.733333	1	6.027625
13.750000	1	5.742625
13.766667	1	5.497625
13.783333	1	5.289625
13.800000	1	5.114375
13.816667	1	4.969250
13.833333	1	4.847875
13.850000	1	4.745500
13.866667	1	4.658625
13.883333	1	4.582875
13.900000	1	4.515875
13.916667	1	4.454875
13.933333	1	4.398375
13.950000	1	4.346375
13.966667	1	4.298250
13.983333	1	4.252250
14.000000	1	4.208875
14.016667	1	4.166375
14.033333	1	4.125750
14.050000	1	4.084125
14.066667	1	4.040375
14.083333	1	3.993125
14.100000	1	3.942000
14.116667	1	3.884375
14.133333	1	3.821250
14.150000	1	3.750500
14.166667	1	3.672875
14.183333	1	3.589250
14.200000	1	3.500250
14.216667	1	3.408000
14.233333	1	3.315125
14.250000	1	3.221750
14.266667	1	3.131875
14.283333	1	3.046750
14.300000	1	2.968250
14.316667	1	2.899250
14.333333	1	2.841000
14.350000	1	2.797000
14.366667	1	2.766250
14.383333	1	2.752000
14.400000	1	2.754750
14.416667	1	2.775875
14.433333	1	2.815125
14.450000	1	2.875000
14.466667	1	2.954500
14.483333	1	3.054250
14.500000	1	3.174375
14.516667	1	3.315875
14.533333	1	3.477000
14.550000	1	3.657625
14.566667	1	3.857500
14.583333	1	4.074750
14.600000	1	4.309625
14.616667	1	4.560250
14.633333	1	4.826625
14.650000	1	5.106250
14.666667	1	5.396000
14.683333	1	5.692125
14.700000	1	5.993000
14.716667	1	6.294625
14.733333	1	6.593375
14.750000	1	6.888000
14.766667	1	7.177250
14.783333	1	7.463375
14.800000	1	7.748625
14.816667	1	8.039750
14.833333	1	8.344625
14.850000	1	8.675125
14.866667	1	9.042625
14.883333	1	9.459000
14.900000	1	9.936625
14.916667	1	10.487375
14.933333	1	11.114500
14.950000	1	11.820250
14.966667	1	12.600750
14.983333	1	13.446875
15.000000	1	14.344250
15.016667	1	15.275250
15.033333	1	16.220500
15.050000	1	17.158000
15.066667	1	18.069125
15.083333	1	18.935875
15.100000	1	19.741875
15.116667	1	20.476000
15.133333	1	21.132875
15.150000	1	21.707500
15.166667	1	22.197375
15.183333	1	22.602625
15.200000	1	22.922250
15.216667	1	23.156250
15.233333	1	23.303250
15.250000	1	23.359625
15.266667	1	23.323375
15.283333	1	23.189875
15.300000	1	22.957750
15.316667	1	22.623875
15.333333	1	22.190000
15.350000	1	21.658875
15.366667	1	21.036750
15.383333	1	20.332875
15.400000	1	19.557875
15.416667	1	18.723000
15.433333	1	17.840625
15.450000	1	16.924625
15.466667	1	15.986500
15.483333	1	15.039250
15.500000	1	14.095375
15.516667	1	13.165125
15.533333	1	12.256750
15.550000	1	11.379750
15.566667	1	10.541375
15.583333	1	9.747500
15.600000	1	9.001875
15.616667	1	8.306875
15.633333	1	7.664375
15.650000	1	7.075375
15.666667	1	6.540125
15.683333	1	6.057125
15.700000	1	5.623625
15.716667	1	5.239000
15.733333	1	4.898750
15.750000	1	4.599750
15.766667	1	4.339500
15.783333	1	4.114000
15.800000	1	3.920750
15.816667	1	3.755500
15.833333	1	3.617125
15.850000	1	3.502750
15.866667	1	3.411000
15.883333	1	3.340250
15.900000	1	3.289125
15.916667	1	3.256875
15.933333	1	3.241625
15.950000	1	3.242625
15.966667	1	3.258000
15.983333	1	3.284875
16.000000	1	3.322750
16.016667	1	3.369750
16.033333	1	3.423125
16.050000	1	3.481500
16.066667	1	3.543875
16.083333	1	3.609250
16.100000	1	3.677500
16.116667	1	3.750250
16.133333	1	3.827625
16.150000	1	3.911875
16.166667	1	4.005125
16.183333	1	4.110625
16.200000	1	4.229250
16.216667	1	4.364000
16.233333	1	4.514125
16.250000	1	4.680625
16.266667	1	4.860000
16.283333	1	5.050625
16.300000	1	5.248625
16.316667	1	5.448500
16.333333	1	5.644875
16.350000	1	5.833875
16.366667	1	6.009875
16.383333	1	6.170375
16.400000	1	6.312750
16.416667	1	6.434750
16.433333	1	6.537000
16.450000	1	6.617500
16.466667	1	6.678250
16.483333	1	6.719875
16.500000	1	6.743875
16.516667	1	6.750875
16.533333	1	6.741125
16.550000	1	6.715125
16.566667	1	6.673500
16.583333	1	6.617250
16.600000	1	6.544750
16.616667	1	6.456250
16.633333	1	6.352000
16.650000	1	6.231500
16.666667	1	6.095000
16.683333	1	5.943625
16.700000	1	5.778375
16.716667	1	5.601125
16.733333	1	5.413000
16.750000	1	5.217125
16.766667	1	5.015125
16.783333	1	4.809500
16.800000	1	4.602000
16.816667	1	4.395500
16.833333	1	4.191875
16.850000	1	3.992875
16.866667	1	3.800000
16.883333	1	3.614625
16.900000	1	3.438625
16.916667	1	3.272000
16.933333	1	3.115625
16.950000	1	2.969875
16.966667	1	2.835625
16.983333	1	2.711750
17.000000	1	2.597875
17.016667	1	2.495250
17.033333	1	2.401750
17.050000	1	2.317500
17.066667	1	2.242375
17.083333	1	2.175125
17.100000	1	2.115250
17.116667	1	2.062625
17.133333	1	2.015625
17.150000	1	1.973625
17.166667	1	1.936875
17.183333	1	1.903875
17.200000	1	1.875000
17.216667	1	1.848250
17.233333	1	1.824500
17.250000	1	1.802625
17.266667	1	1.782750
17.283333	1	1.763250
17.300000	1	1.745875
17.316667	1	1.728875
17.333333	1	1.712375
17.350000	1	1.696250
17.366667	1	1.680250
17.383333	1	1.665375
17.400000	1	1.650750
17.416667	1	1.636875
17.433333	1	1.623000
17.450000	1	1.610000
17.466667	1	1.597125
17.483333	1	1.585125
17.500000	1	1.573375
17.516667	1	1.561500
17.533333	1	1.549875
17.550000	1	1.538875
17.566667	1	1.528750
17.583333	1	1.518875
17.600000	1	1.510250
17.616667	1	1.502125
17.633333	1	1.493875
17.650000	1	1.486375
17.666667	1	1.480375
17.683333	1	1.475250
17.700000	1	1.471625
17.716667	1	1.467750
17.733333	1	1.465625
17.750000	1	1.465000
17.766667	1	1.465125
17.783333	1	1.467750
17.800000	1	1.471750
17.816667	1	1.477375
17.833333	1	1.485625
17.850000	1	1.495625
17.866667	1	1.507375
17.883333	1	1.521375
17.900000	1	1.537250
17.916667	1	1.554375
17.933333	1	1.573625
17.950000	1	1.593875
17.966667	1	1.615375
17.983333	1	1.638125
18.000000	1	1.661250
18.016667	1	1.685375
18.033333	1	1.709875
18.050000	1	1.734375
18.066667	1	1.758875
18.083333	1	1.783250
18.100000	1	1.807500
18.116667	1	1.829875
18.133333	1	1.851250
18.150000	1	1.872375
18.166667	1	1.892125
18.183333	1	1.910250
18.200000	1	1.927125
18.216667	1	1.942125
18.233333	1	1.956000
18.250000	1	1.967625
18.266667	1	1.977625
18.283333	1	1.985125
18.300000	1	1.989750
18.316667	1	1.992875
18.333333	1	1.993125
18.350000	1	1.991625
18.366667	1	1.987750
18.383333	1	1.981375
18.400000	1	1.973375
18.416667	1	1.963250
18.433333	1	1.950750
18.450000	1	1.937500
18.466667	1	1.923125
18.483333	1	1.907125
18.500000	1	1.890375
18.516667	1	1.872625
18.533333	1	1.853375
18.550000	1	1.834000
18.566667	1	1.814375
18.583333	1	1.793625
18.600000	1	1.773000
18.616667	1	1.751375
18.633333	1	1.729375
18.650000	1	1.706625
18.666667	1	1.684375
18.683333	1	1.661625
18.700000	1	1.638875
18.716667	1	1.615750
18.733333	1	1.592500
18.750000	1	1.569625
18.766667	1	1.547000
18.783333	1	1.524875
18.800000	1	1.502500
18.816667	1	1.480750
18.833333	1	1.459875
18.850000	1	1.438750
18.866667	1	1.419000
18.883333	1	1.400125
18.900000	1	1.380500
18.916667	1	1.362000
18.933333	1	1.344625
18.950000	1	1.327125
18.966667	1	1.310500
18.983333	1	1.294500
19.000000	1	1.278875
19.016667	1	1.263250
19.033333	1	1.249125
19.050000	1	1.235375
19.066667	1	1.223000
19.083333	1	1.211000
19.100000	1	1.201500
19.116667	1	1.192750
19.133333	1	1.187125
19.150000	1	1.182375
19.166667	1	1.181125
19.183333	1	1.182000
19.200000	1	1.186375
19.216667	1	1.193000
19.233333	1	1.204000
19.250000	1	1.217500
19.266667	1	1.235000
19.283333	1	1.254875
19.300000	1	1.277875
19.316667	1	1.303625
19.333333	1	1.331625
19.350000	1	1.361500
19.366667	1	1.393500
19.383333	1	1.426500
19.400000	1	1.460625
19.416667	1	1.494375
19.433333	1	1.528375
19.450000	1	1.561125
19.466667	1	1.593125
19.483333	1	1.623750
19.500000	1	1.653000
19.516667	1	1.681125
19.533333	1	1.706500
19.550000	1	1.729625
19.566667	1	1.750250
19.583333	1	1.769750
19.600000	1	1.786250
19.616667	1	1.800000
19.633333	1	1.810875
19.650000	1	1.819250
19.666667	1	1.825625
19.683333	1	1.828250
19.700000	1	1.828125
19.716667	1	1.825125
19.733333	1	1.818625
19.750000	1	1.809375
19.766667	1	1.796375
19.783333	1	1.781625
19.800000	1	1.763500
19.816667	1	1.743000
19.833333	1	1.720125
19.850000	1	1.695625
19.866667	1	1.669875
19.883333	1	1.642000
19.900000	1	1.613875
19.916667	1	1.585750
19.933333	1	1.557375
19.950000	1	1.530750
19.966667	1	1.504625
19.983333	1	1.479875
20.000000	1	1.456625
20.016667	1	1.435625
20.033333	1	1.416625
20.050000	1	1.400000
20.066667	1	1.385250
20.083333	1	1.373500
20.100000	1	1.362750
20.116667	1	1.354500
20.133333	1	1.347750
20.150000	1	1.342875
20.166667	1	1.340000
20.183333	1	1.338500
20.200000	1	1.338125
20.216667	1	1.339000
20.233333	1	1.341000
20.250000	1	1.344250
20.266667	1	1.348500
20.283333	1	1.354000
20.300000	1	1.360625
20.316667	1	1.368875
20.333333	1	1.377625
20.350000	1	1.388625
20.366667	1	1.401125
20.383333	1	1.414750
20.400000	1	1.430125
20.416667	1	1.448125
20.433333	1	1.468125
20.450000	1	1.490375
20.466667	1	1.515125
20.483333	1	1.542250
20.500000	1	1.571250
20.516667	1	1.601750
20.533333	1	1.633375
20.550000	1	1.666875
20.566667	1	1.700375
20.583333	1	1.734500
20.600000	1	1.768125
20.616667	1	1.801250
20.633333	1	1.832750
20.650000	1	1.862000
20.666667	1	1.890250
20.683333	1	1.915875
20.700000	1	1.939375
20.716667	1	1.960000
20.733333	1	1.978625
20.750000	1	1.994750
20.766667	1	2.009125
20.783333	1	2.022375
20.800000	1	2.033250
20.816667	1	2.042375
20.833333	1	2.049375
20.850000	1	2.055250
20.866667	1	2.059625
20.883333	1	2.062750
20.900000	1	2.064750
20.916667	1	2.064000
20.933333	1	2.062250
20.950000	1	2.058750
20.966667	1	2.053250
20.983333	1	2.044875
21.000000	1	2.034250
21.016667	1	2.021125
21.033333	1	2.005375
21.050000	1	1.987500
21.066667	1	1.966250
21.083333	1	1.942875
21.100000	1	1.916375
21.116667	1	1.887625
21.133333	1	1.857375
21.150000	1	1.825250
21.166667	1	1.792250
21.183333	1	1.758000
21.200000	1	1.723250
21.216667	1	1.688625
21.233333	1	1.654125
21.250000	1	1.621000
21.266667	1	1.587750
21.283333	1	1.556500
21.300000	1	1.526500
21.316667	1	1.498375
21.333333	1	1.471375
21.350000	1	1.445125
21.366667	1	1.420500
21.383333	1	1.397375
21.400000	1	1.375375
21.416667	1	1.353125
21.433333	1	1.331375
21.450000	1	1.309250
21.466667	1	1.286875
21.483333	1	1.263500
21.500000	1	1.239750
21.516667	1	1.215750
21.533333	1	1.190750
21.550000	1	1.164500
21.566667	1	1.138125
21.583333	1	1.110500
21.600000	1	1.082500
21.616667	1	1.055250
21.633333	1	1.027500
21.650000	1	0.999500
21.666667	1	0.972000
21.683333	1	0.944375
21.700000	1	0.918250
21.716667	1	0.892250
21.733333	1	0.868000
21.750000	1	0.844875
21.766667	1	0.822750
21.783333	1	0.801625
21.800000	1	0.781750
21.816667	1	0.763750
21.833333	1	0.747000
21.850000	1	0.731500
21.866667	1	0.717500
21.883333	1	0.705375
21.900000	1	0.694125
21.916667	1	0.684750
21.933333	1	0.676625
21.950000	1	0.669500
21.966667	1	0.664250
21.983333	1	0.659500
22.000000	1	0.656125
22.016667	1	0.654375
22.033333	1	0.654000
22.050000	1	0.654625
22.066667	1	0.656125
22.083333	1	0.659000
22.100000	1	0.662500
22.116667	1	0.665750
22.133333	1	0.670625
22.150000	1	0.675500
22.166667	1	0.682000
22.183333	1	0.687875
22.200000	1	0.693500
22.216667	1	0.699750
22.233333	1	0.705250
22.250000	1	0.711125
22.266667	1	0.716375
22.283333	1	0.721125
22.300000	1	0.725875
22.316667	1	0.730375
22.333333	1	0.734000
22.350000	1	0.738125
22.366667	1	0.741250
22.383333	1	0.743750
22.400000	1	0.745500
22.416667	1	0.746250
22.433333	1	0.747500
22.450000	1	0.747000
22.466667	1	0.745875
22.483333	1	0.745250
22.500000	1	0.743625
22.516667	1	0.741250
22.533333	1	0.738750
22.550000	1	0.735250
22.566667	1	0.731125
22.583333	1	0.726625
22.600000	1	0.722375
22.616667	1	0.717500
22.633333	1	0.712500
22.650000	1	0.707000
22.666667	1	0.701500
22.683333	1	0.696000
22.700000	1	0.691375
22.716667	1	0.686500
22.733333	1	0.682500
22.750000	1	0.678500
22.766667	1	0.675250
22.783333	1	0.672875
22.800000	1	0.671000
22.816667	1	0.669375
22.833333	1	0.668375
22.850000	1	0.668125
22.866667	1	0.668875
22.883333	1	0.669125
22.900000	1	0.670375
22.916667	1	0.672500
22.933333	1	0.674875
22.950000	1	0.676875
22.966667	1	0.679375
22.983333	1	0.681625
23.000000	1	0.683875
23.016667	1	0.685500
23.033333	1	0.687625
23.050000	1	0.689500
23.066667	1	0.690250
23.083333	1	0.691750
23.100000	1	0.691625
23.116667	1	0.691875
23.133333	1	0.691625
23.150000	1	0.692125
23.166667	1	0.690875
23.183333	1	0.689375
23.200000	1	0.686875
23.216667	1	0.684250
23.233333	1	0.680875
23.250000	1	0.677250
23.266667	1	0.672750
23.283333	1	0.667875
23.300000	1	0.662250
23.316667	1	0.657250
23.333333	1	0.651250
23.350000	1	0.645000
23.366667	1	0.638125
23.383333	1	0.630750
23.400000	1	0.623000
23.416667	1	0.614500
23.433333	1	0.606500
23.450000	1	0.598125
23.466667	1	0.589000
23.483333	1	0.580375
23.500000	1	0.571000
23.516667	1	0.561750
23.533333	1	0.553375
23.550000	1	0.544500
23.566667	1	0.536375
23.583333	1	0.527750
23.600000	1	0.519625
23.616667	1	0.511375
23.633333	1	0.503750
23.650000	1	0.496375
23.666667	1	0.490000
23.683333	1	0.484250
23.700000	1	0.479000
23.716667	1	0.474250
23.733333	1	0.470625
23.750000	1	0.468625
23.766667	1	0.467750
23.783333	1	0.468500
23.800000	1	0.470750
23.816667	1	0.474750
23.833333	1	0.481375
23.850000	1	0.489000
23.866667	1	0.498625
23.883333	1	0.510625
23.900000	1	0.525875
23.916667	1	0.543125
23.933333	1	0.562250
23.950000	1	0.584625
23.966667	1	0.609250
23.983333	1	0.635000
24.000000	1	0.663750
24.016667	1	0.693875
24.033333	1	0.724375
24.050000	1	0.756250
24.066667	1	0.789000
24.083333	1	0.821500
24.100000	1	0.854375
24.116667	1	0.886000
24.133333	1	0.918125
24.150000	1	0.949000
24.166667	1	0.978250
24.183333	1	1.006500
24.200000	1	1.034250
24.216667	1	1.059875
24.233333	1	1.083250
24.250000	1	1.105125
24.266667	1	1.125750
24.283333	1	1.144000
24.300000	1	1.160625
24.316667	1	1.175500
24.333333	1	1.188000
24.350000	1	1.198500
24.366667	1	1.206500
24.383333	1	1.213375
24.400000	1	1.217000
24.416667	1	1.218625
24.433333	1	1.217750
24.450000	1	1.213500
24.466667	1	1.207250
24.483333	1	1.198625
24.500000	1	1.188125
24.516667	1	1.175750
24.533333	1	1.160750
24.550000	1	1.143875
24.566667	1	1.125125
24.583333	1	1.106125
24.600000	1	1.085500
24.616667	1	1.064375
24.633333	1	1.041875
24.650000	1	1.019625
24.666667	1	0.997250
24.683333	1	0.975500
24.700000	1	0.954500
24.716667	1	0.934500
24.733333	1	0.915250
24.750000	1	0.896625
24.766667	1	0.878875
24.783333	1	0.862875
24.800000	1	0.847875
24.816667	1	0.833750
24.833333	1	0.821500
24.850000	1	0.810750
24.866667	1	0.801375
24.883333	1	0.791625
24.900000	1	0.783000
24.916667	1	0.775750
24.933333	1	0.769625
24.950000	1	0.763625
24.966667	1	0.759375
24.983333	1	0.754375
25.000000	1	0.749250
25.016667	1	0.744750
25.033333	1	0.740625
25.050000	1	0.736000
25.066667	1	0.731375
25.083333	1	0.726250
25.100000	1	0.721125
25.116667	1	0.715625
25.133333	1	0.708875
25.150000	1	0.702250
25.166667	1	0.694250
25.183333	1	0.685500
25.200000	1	0.675500
25.216667	1	0.665500
25.233333	1	0.654750
25.250000	1	0.643000
25.266667	1	0.630500
25.283333	1	0.616875
25.300000	1	0.602625
25.316667	1	0.587750
25.333333	1	0.573000
25.350000	1	0.557375
25.366667	1	0.541250
25.383333	1	0.525375
25.400000	1	0.509125
25.416667	1	0.492250
25.433333	1	0.477000
25.450000	1	0.461625
25.466667	1	0.446875
25.483333	1	0.432000
25.500000	1	0.417875
25.516667	1	0.404500
25.533333	1	0.392750
25.550000	1	0.381500
25.566667	1	0.370750
25.583333	1	0.361000
25.600000	1	0.351250
25.616667	1	0.341875
25.633333	1	0.334750
25.650000	1	0.327750
25.666667	1	0.321625
25.683333	1	0.315625
25.700000	1	0.311125
25.716667	1	0.307625
25.733333	1	0.304750
25.750000	1	0.301750
25.766667	1	0.299750
25.783333	1	0.299125
25.800000	1	0.298500
25.816667	1	0.297625
25.833333	1	0.297875
25.850000	1	0.299125
25.866667	1	0.300000
25.883333	1	0.301625
25.900000	1	0.303625
25.916667	1	0.306625
25.933333	1	0.309250
25.950000	1	0.311625
25.966667	1	0.313875
25.983333	1	0.317625
26.000000	1	0.321125
26.016667	1	0.324250
26.033333	1	0.328125
26.050000	1	0.331875
26.066667	1	0.335500
26.083333	1	0.339250
26.100000	1	0.343125
26.116667	1	0.347125
26.133333	1	0.349875
26.150000	1	0.354625
26.166667	1	0.358125
26.183333	1	0.361000
26.200000	1	0.364500
26.216667	1	0.367625
26.233333	1	0.370250
26.250000	1	0.373500
26.266667	1	0.376500
26.283333	1	0.379750
26.300000	1	0.383375
26.316667	1	0.387250
26.333333	1	0.390625
26.350000	1	0.393750
26.366667	1	0.397625
26.383333	1	0.401000
26.400000	1	0.404375
26.416667	1	0.407375
26.433333	1	0.411625
26.450000	1	0.415625
26.466667	1	0.420250
26.483333	1	0.425000
26.500000	1	0.429625
26.516667	1	0.434500
26.533333	1	0.439875
26.550000	1	0.444750
26.566667	1	0.449500
26.583333	1	0.454250
26.600000	1	0.458875
26.616667	1	0.464125
26.633333	1	0.469250
26.650000	1	0.474250
26.666667	1	0.478750
26.683333	1	0.483625
26.700000	1	0.489000
26.716667	1	0.493250
26.733333	1	0.497125
26.750000	1	0.500500
26.766667	1	0.503625
26.783333	1	0.506500
26.800000	1	0.508625
26.816667	1	0.510125
26.833333	1	0.511750
26.850000	1	0.513000
26.866667	1	0.513875
26.883333	1	0.514125
26.900000	1	0.514625
26.916667	1	0.514000
26.933333	1	0.513500
26.950000	1	0.512375
26.966667	1	0.510875
26.983333	1	0.508875
27.000000	1	0.506875
27.016667	1	0.504875
27.033333	1	0.501125
27.050000	1	0.497500
27.066667	1	0.494375
27.083333	1	0.491250
27.100000	1	0.487500
27.116667	1	0.483750
27.133333	1	0.479500
27.150000	1	0.474500
27.166667	1	0.469125
27.183333	1	0.464250
27.200000	1	0.458375
27.216667	1	0.452375
27.233333	1	0.446000
27.250000	1	0.438875
27.266667	1	0.432000
27.283333	1	0.424750
27.300000	1	0.416625
27.316667	1	0.408250
27.333333	1	0.400625
27.350000	1	0.393000
27.366667	1	0.384500
27.383333	1	0.375625
27.400000	1	0.365875
27.416667	1	0.356875
27.433333	1	0.347750
27.450000	1	0.338750
27.466667	1	0.329750
27.483333	1	0.320125
27.500000	1	0.310750
27.516667	1	0.302375
27.533333	1	0.294125
27.550000	1	0.286000
27.566667	1	0.277500
27.583333	1	0.269500
27.600000	1	0.262000
27.616667	1	0.254250
27.633333	1	0.247500
27.650000	1	0.241750
27.666667	1	0.236250
27.683333	1	0.232000
27.700000	1	0.229000
27.716667	1	0.227250
27.733333	1	0.227250
27.750000	1	0.228625
27.766667	1	0.232750
27.783333	1	0.238750
27.800000	1	0.248000
27.816667	1	0.260000
27.833333	1	0.276000
27.850000	1	0.295625
27.866667	1	0.320125
27.883333	1	0.349250
27.900000	1	0.383625
27.916667	1	0.424250
27.933333	1	0.470375
27.950000	1	0.522625
27.966667	1	0.580750
27.983333	1	0.644750
28.000000	1	0.714875
28.016667	1	0.792375
28.033333	1	0.874875
28.050000	1	0.963000
28.066667	1	1.056000
28.083333	1	1.154000
28.100000	1	1.255250
28.116667	1	1.359250
28.133333	1	1.465875
28.150000	1	1.573000
28.166667	1	1.680250
28.183333	1	1.787000
28.200000	1	1.892750
28.216667	1	1.996125
28.233333	1	2.095875
28.250000	1	2.193250
28.266667	1	2.285375
28.283333	1	2.373500
28.300000	1	2.455750
28.316667	1	2.534000
28.333333	1	2.606375
28.350000	1	2.673250
28.366667	1	2.735125
28.383333	1	2.791750
28.400000	1	2.842750
28.416667	1	2.888625
28.433333	1	2.930375
28.450000	1	2.967125
28.466667	1	2.999125
28.483333	1	3.025875
28.500000	1	3.048250
28.516667	1	3.065125
28.533333	1	3.077500
28.550000	1	3.084250
28.566667	1	3.085500
28.583333	1	3.081000
28.600000	1	3.071000
28.616667	1	3.053875
28.633333	1	3.030375
28.650000	1	3.000125
28.666667	1	2.963000
28.683333	1	2.918375
28.700000	1	2.866625
28.716667	1	2.807500
28.733333	1	2.741250
28.750000	1	2.668125
28.766667	1	2.588875
28.783333	1	2.503500
28.800000	1	2.411875
28.816667	1	2.315875
28.833333	1	2.215500
28.850000	1	2.111500
28.866667	1	2.004625
28.883333	1	1.895625
28.900000	1	1.785750
28.916667	1	1.675500
28.933333	1	1.566375
28.950000	1	1.458125
28.966667	1	1.352125
28.983333	1	1.248250
29.000000	1	1.148000
29.016667	1	1.050750
29.033333	1	0.958000
29.050000	1	0.869875
29.066667	1	0.786375
29.083333	1	0.707250
29.100000	1	0.632875
29.116667	1	0.563250
29.133333	1	0.498750
29.150000	1	0.438625
29.166667	1	0.383875
29.183333	1	0.333750
29.200000	1	0.287875
29.216667	1	0.246375
29.233333	1	0.208125
29.250000	1	0.174125
29.266667	1	0.143500
29.283333	1	0.115250
29.300000	1	0.089750
29.316667	1	0.068125
29.333333	1	0.048250
29.350000	1	0.030375
29.366667	1	0.014750
29.383333	1	0.002000
29.400000	1	-0.008750
29.416667	1	-0.017750
29.433333	1	-0.026000
29.450000	1	-0.030875
29.466667	1	-0.035250
29.483333	1	-0.038375
29.500000	1	-0.040625
29.516667	1	-0.040625
29.533333	1	-0.039875
29.550000	1	-0.037125
29.566667	1	-0.034625
29.583333	1	-0.029375
29.600000	1	-0.023500
29.616667	1	-0.016250
29.633333	1	-0.008125
29.650000	1	0.000375
29.666667	1	0.010125
29.683333	1	0.020375
29.700000	1	0.031250
29.716667	1	0.043875
29.733333	1	0.056750
29.750000	1	0.070125
29.766667	1	0.083500
29.783333	1	0.097875
29.800000	1	0.112500
29.816667	1	0.127125
29.833333	1	0.142000
29.850000	1	0.157625
29.866667	1	0.173250
29.883333	1	0.188125
29.900000	1	0.203250
29.916667	1	0.219375
29.933333	1	0.234000
29.950000	1	0.247875
29.966667	1	0.262250
29.983333	1	0.275625
30.000000	1	0.289625
30.016667	1	0.302250
30.033333	1	0.314750
30.050000	1	0.326500
30.066667	1	0.338250
30.083333	1	0.349125
30.100000	1	0.359875
30.116667	1	0.369625
30.133333	1	0.378000
30.150000	1	0.386250
30.166667	1	0.393750
30.183333	1	0.400500
30.200000	1	0.407750
30.216667	1	0.414000
30.233333	1	0.419250
30.250000	1	0.423875
30.266667	1	0.428500
30.283333	1	0.432500
30.300000	1	0.435750
30.316667	1	0.438750
30.333333	1	0.441500
30.350000	1	0.442750
30.366667	1	0.444500
30.383333	1	0.445875
30.400000	1	0.446125
30.416667	1	0.446750
30.433333	1	0.446625
30.450000	1	0.446625
30.466667	1	0.445875
30.483333	1	0.444625
30.500000	1	0.443625
30.516667	1	0.441875
30.533333	1	0.440125
30.550000	1	0.437625
30.566667	1	0.435250
30.583333	1	0.432750
30.600000	1	0.429750
30.616667	1	0.426250
30.633333	1	0.423125
30.650000	1	0.419125
30.666667	1	0.415625
30.683333	1	0.412375
30.700000	1	0.409625
30.716667	1	0.405875
30.733333	1	0.402750
30.750000	1	0.399875
30.766667	1	0.397000
30.783333	1	0.395125
30.800000	1	0.392375
30.816667	1	0.390375
30.833333	1	0.388625
30.850000	1	0.387250
30.866667	1	0.386000
30.883333	1	0.385000
30.900000	1	0.384625
30.916667	1	0.384375
30.933333	1	0.384500
30.950000	1	0.385625
30.966667	1	0.386500
30.983333	1	0.388000
31.000000	1	0.390375
31.016667	1	0.392125
31.033333	1	0.394375
31.050000	1	0.396750
31.066667	1	0.399375
31.083333	1	0.403000
31.100000	1	0.406000
31.116667	1	0.409500
31.133333	1	0.412500
31.150000	1	0.415250
31.166667	1	0.419375
31.183333	1	0.422375
31.200000	1	0.425625
31.216667	1	0.428750
31.233333	1	0.431875
31.250000	1	0.435625
31.266667	1	0.437750
31.283333	1	0.440500
31.300000	1	0.443625
31.316667	1	0.446000
31.333333	1	0.448500
31.350000	1	0.451250
31.366667	1	0.453375
31.383333	1	0.455375
31.400000	1	0.456750
31.416667	1	0.458750
31.433333	1	0.460000
31.450000	1	0.461250
31.466667	1	0.462125
31.483333	1	0.462875
31.500000	1	0.463250
31.516667	1	0.463625
31.533333	1	0.462875
31.550000	1	0.462375
31.566667	1	0.461875
31.583333	1	0.461375
31.600000	1	0.460000
31.616667	1	0.458125
31.633333	1	0.456625
31.650000	1	0.454125
31.666667	1	0.451250
31.683333	1	0.448375
31.700000	1	0.445375
31.716667	1	0.442000
31.733333	1	0.438875
31.750000	1	0.435500
31.766667	1	0.431625
31.783333	1	0.428500
31.800000	1	0.425250
31.816667	1	0.421375
31.833333	1	0.417500
31.850000	1	0.414500
31.866667	1	0.411625
31.883333	1	0.408375
31.900000	1	0.406125
31.916667	1	0.403125
31.933333	1	0.400500
31.950000	1	0.398625
31.966667	1	0.397500
31.983333	1	0.396375
32.000000	1	0.395250
32.016667	1	0.395625
32.033333	1	0.396500
32.050000	1	0.397375
32.066667	1	0.399125
32.083333	1	0.400250
32.100000	1	0.403000
32.116667	1	0.406125
32.133333	1	0.409750
32.150000	1	0.413625
32.166667	1	0.418500
32.183333	1	0.423875
32.200000	1	0.429500
32.216667	1	0.436250
32.233333	1	0.443000
32.250000	1	0.450000
32.266667	1	0.457000
32.283333	1	0.464125
32.300000	1	0.471250
32.316667	1	0.479500
32.333333	1	0.487125
32.350000	1	0.495125
32.366667	1	0.504125
32.383333	1	0.512250
32.400000	1	0.520125
32.416667	1	0.527875
32.433333	1	0.535875
32.450000	1	0.543250
32.466667	1	0.550875
32.483333	1	0.557750
32.500000	1	0.565000
32.516667	1	0.571500
32.533333	1	0.577375
32.550000	1	0.583000
32.566667	1	0.588750
32.583333	1	0.593750
32.600000	1	0.598625
32.616667	1	0.602625
32.633333	1	0.606625
32.650000	1	0.609875
32.666667	1	0.612500
32.683333	1	0.613875
32.700000	1	0.615000
32.716667	1	0.615625
32.733333	1	0.616375
32.750000	1	0.615625
32.766667	1	0.614625
32.783333	1	0.613125
32.800000	1	0.610750
32.816667	1	0.607750
32.833333	1	0.604000
32.850000	1	0.600000
32.866667	1	0.595500
32.883333	1	0.590000
32.900000	1	0.583375
32.916667	1	0.576500
32.933333	1	0.569000
32.950000	1	0.561750
32.966667	1	0.552875
32.983333	1	0.543500
33.000000	1	0.534375
33.016667	1	0.524000
33.033333	1	0.513375
33.050000	1	0.501750
33.066667	1	0.490375
33.083333	1	0.478000
33.100000	1	0.465125
33.116667	1	0.452375
33.133333	1	0.439375
33.150000	1	0.425875
33.166667	1	0.411250
33.183333	1	0.397500
33.200000	1	0.383750
33.216667	1	0.369250
33.233333	1	0.354625
33.250000	1	0.339000
33.266667	1	0.324125
33.283333	1	0.309000
33.300000	1	0.294500
33.316667	1	0.279875
33.333333	1	0.265375
33.350000	1	0.251375
33.366667	1	0.237500
33.383333	1	0.223250
33.400000	1	0.210250
33.416667	1	0.197000
33.433333	1	0.184500
33.450000	1	0.171125
33.466667	1	0.159250
33.483333	1	0.146875
33.500000	1	0.135750
33.516667	1	0.125250
33.533333	1	0.114875
33.550000	1	0.104750
33.566667	1	0.095250
33.583333	1	0.085625
33.600000	1	0.077250
33.616667	1	0.069000
33.633333	1	0.061750
33.650000	1	0.054250
33.666667	1	0.047125
33.683333	1	0.040750
33.700000	1	0.034250
33.716667	1	0.028250
33.733333	1	0.023000
33.750000	1	0.017375
33.766667	1	0.013125
33.783333	1	0.009000
33.800000	1	0.005000
33.816667	1	0.001875
33.833333	1	-0.001000
33.850000	1	-0.003625
33.866667	1	-0.006000
33.883333	1	-0.009375
33.900000	1	-0.012375
33.916667	1	-0.014375
33.933333	1	-0.015625
33.950000	1	-0.016875
33.966667	1	-0.017750
33.983333	1	-0.018625
34.000000	1	-0.019000
34.016667	1	-0.019875
34.033333	1	-0.020625
34.050000	1	-0.021625
34.066667	1	-0.021500
34.083333	1	-0.022125
34.100000	1	-0.021500
34.116667	1	-0.021125
34.133333	1	-0.021250
34.150000	1	-0.019750
34.166667	1	-0.018750
34.183333	1	-0.017125
34.200000	1	-0.015500
34.216667	1	-0.014000
34.233333	1	-0.012250
34.250000	1	-0.010000
34.266667	1	-0.007875
34.283333	1	-0.004625
34.300000	1	-0.000625
34.316667	1	0.003250
34.333333	1	0.007250
34.350000	1	0.012375
34.366667	1	0.017875
34.383333	1	0.023500
34.400000	1	0.029125
34.416667	1	0.034875
34.433333	1	0.041250
34.450000	1	0.047375
34.466667	1	0.054625
34.483333	1	0.062125
34.500000	1	0.069250
34.516667	1	0.077250
34.533333	1	0.085250
34.550000	1	0.092375
34.566667	1	0.100625
34.583333	1	0.109125
34.600000	1	0.116750
34.616667	1	0.125000
34.633333	1	0.133000
34.650000	1	0.140375
34.666667	1	0.147500
34.683333	1	0.154000
34.700000	1	0.161000
34.716667	1	0.168250
34.733333	1	0.175125
34.750000	1	0.181125
34.766667	1	0.187250
34.783333	1	0.193375
34.800000	1	0.198750
34.816667	1	0.204625
34.833333	1	0.209750
34.850000	1	0.214375
34.866667	1	0.218625
34.883333	1	0.222875
34.900000	1	0.225750
34.916667	1	0.228875
34.933333	1	0.231875
34.950000	1	0.234125
34.966667	1	0.236250
34.983333	1	0.238250
35.000000	1	0.238875
35.016667	1	0.240250
35.033333	1	0.240250
35.050000	1	0.241125
35.066667	1	0.240750
35.083333	1	0.240000
35.100000	1	0.239250
35.116667	1	0.237625
35.133333	1	0.235000
35.150000	1	0.232125
35.166667	1	0.228500
35.183333	1	0.224875
35.200000	1	0.221500
35.216667	1	0.217500
35.233333	1	0.212250
35.250000	1	0.207000
35.266667	1	0.201125
35.283333	1	0.194750
35.300000	1	0.188750
35.316667	1	0.182000
35.333333	1	0.175250
35.350000	1	0.168375
35.366667	1	0.161000
35.383333	1	0.154000
35.400000	1	0.146875
35.416667	1	0.140000
35.433333	1	0.133250
35.450000	1	0.125875
35.466667	1	0.118375
35.483333	1	0.111375
35.500000	1	0.104500
35.516667	1	0.097875
35.533333	1	0.092250
35.550000	1	0.086250
35.566667	1	0.080250
35.583333	1	0.075000
35.600000	1	0.070375
35.616667	1	0.065750
35.633333	1	0.061375
35.650000	1	0.057000
35.666667	1	0.053125
35.683333	1	0.049750
35.700000	1	0.046750
35.716667	1	0.044000
35.733333	1	0.042000
35.750000	1	0.040250
35.766667	1	0.038250
35.783333	1	0.036500
35.800000	1	0.034500
35.816667	1	0.033500
35.833333	1	0.032750
35.850000	1	0.031750
35.866667	1	0.030750
35.883333	1	0.030625
35.900000	1	0.031000
35.916667	1	0.030875
35.933333	1	0.031375
35.950000	1	0.031875
35.966667	1	0.032000
35.983333	1	0.032625
36.000000	1	0.033250
36.016667	1	0.033500
36.033333	1	0.034875
36.050000	1	0.036125
36.066667	1	0.037500
36.083333	1	0.039000
36.100000	1	0.040750
36.116667	1	0.042875
36.133333	1	0.044875
36.150000	1	0.047250
36.166667	1	0.049875
36.183333	1	0.051750
36.200000	1	0.054250
36.216667	1	0.056750
36.233333	1	0.059875
36.250000	1	0.062375
36.266667	1	0.065000
36.283333	1	0.068375
36.300000	1	0.072000
36.316667	1	0.074875
36.333333	1	0.078000
36.350000	1	0.081000
36.366667	1	0.085000
36.383333	1	0.088500
36.400000	1	0.091375
36.416667	1	0.094875
36.433333	1	0.098000
36.450000	1	0.101125
36.466667	1	0.104750
36.483333	1	0.107500
36.500000	1	0.110875
36.516667	1	0.114375
36.533333	1	0.117750
36.550000	1	0.120875
36.566667	1	0.123125
36.583333	1	0.126125
36.600000	1	0.129500
36.616667	1	0.132250
36.633333	1	0.134875
36.650000	1	0.137500
36.666667	1	0.139625
36.683333	1	0.142125
36.700000	1	0.144875
36.716667	1	0.148250
36.733333	1	0.150500
36.750000	1	0.152625
36.766667	1	0.154125
36.783333	1	0.156750
36.800000	1	0.159250
36.816667	1	0.161750
36.833333	1	0.164375
36.850000	1	0.166875
36.866667	1	0.168875
36.883333	1	0.171125
36.900000	1	0.173250
36.916667	1	0.175375
36.933333	1	0.177500
36.950000	1	0.179250
36.966667	1	0.181500
36.983333	1	0.183125
37.000000	1	0.184750
37.016667	1	0.185750
37.033333	1	0.187000
37.050000	1	0.187875
37.066667	1	0.188000
37.083333	1	0.187875
37.100000	1	0.188250
37.116667	1	0.188750
37.133333	1	0.188625
37.150000	1	0.187500
37.166667	1	0.186000
37.183333	1	0.184750
37.200000	1	0.182875
37.216667	1	0.180875
37.233333	1	0.178625
37.250000	1	0.175750
37.266667	1	0.173125
37.283333	1	0.170250
37.300000	1	0.167000
37.316667	1	0.163000
37.333333	1	0.159500
37.350000	1	0.155375
37.366667	1	0.151250
37.383333	1	0.147125
37.400000	1	0.141875
37.416667	1	0.138125
37.433333	1	0.133375
37.450000	1	0.128250
37.466667	1	0.123375
37.483333	1	0.117625
37.500000	1	0.113125
37.516667	1	0.108250
37.533333	1	0.102625
37.550000	1	0.097125
37.566667	1	0.091625
37.583333	1	0.086250
37.600000	1	0.081250
37.616667	1	0.075375
37.633333	1	0.070125
37.650000	1	0.064875
37.666667	1	0.059000
37.683333	1	0.053500
37.700000	1	0.048250
37.716667	1	0.042875
37.733333	1	0.037250
37.750000	1	0.032125
37.766667	1	0.026750
37.783333	1	0.021250
37.800000	1	0.016000
37.816667	1	0.010625
37.833333	1	0.005500
37.850000	1	0.000500
37.866667	1	-0.004375
37.883333	1	-0.008625
37.900000	1	-0.013375
37.916667	1	-0.017625
37.933333	1	-0.022500
37.950000	1	-0.027125
37.966667	1	-0.031750
37.983333	1	-0.036125
38.000000	1	-0.040500
38.016667	1	-0.044625
38.033333	1	-0.048750
38.050000	1	-0.052375
38.066667	1	-0.055375
38.083333	1	-0.058625
38.100000	1	-0.061625
38.116667	1	-0.064875
38.133333	1	-0.067875
38.150000	1	-0.070250
38.166667	1	-0.072125
38.183333	1	-0.074375
38.200000	1	-0.076750
38.216667	1	-0.078625
38.233333	1	-0.080375
38.250000	1	-0.082125
38.266667	1	-0.083750
38.283333	1	-0.085375
38.300000	1	-0.086625
38.316667	1	-0.087875
38.333333	1	-0.088500
38.350000	1	-0.089625
38.366667	1	-0.089875
38.383333	1	-0.090250
38.400000	1	-0.090625
38.416667	1	-0.090625
38.433333	1	-0.090750
38.450000	1	-0.090875
38.466667	1	-0.090500
38.483333	1	-0.089625
38.500000	1	-0.089250
38.516667	1	-0.088750
38.533333	1	-0.087500
38.550000	1	-0.086375
38.566667	1	-0.085750
38.583333	1	-0.084500
38.600000	1	-0.084250
38.616667	1	-0.082875
38.633333	1	-0.082375
38.650000	1	-0.081375
38.666667	1	-0.081125
38.683333	1	-0.080000
38.700000	1	-0.079000
38.716667	1	-0.078125
38.733333	1	-0.077875
38.750000	1	-0.077125
38.766667	1	-0.076500
38.783333	1	-0.075375
38.800000	1	-0.075000
38.816667	1	-0.074500
38.833333	1	-0.074500
38.850000	1	-0.074250
38.866667	1	-0.073625
38.883333	1	-0.073250
38.900000	1	-0.073125
38.916667	1	-0.072875
38.933333	1	-0.072750
38.950000	1	-0.073375
38.966667	1	-0.073500
38.983333	1	-0.074000
39.000000	1	-0.074250
39.016667	1	-0.074125
39.033333	1	-0.074125
39.050000	1	-0.074375
39.066667	1	-0.073875
39.083333	1	-0.073750
39.100000	1	-0.073875
39.116667	1	-0.074625
39.133333	1	-0.074625
39.150000	1	-0.074875
39.166667	1	-0.075625
39.183333	1	-0.076125
39.200000	1	-0.076625
39.216667	1	-0.077250
39.233333	1	-0.077500
39.250000	1	-0.077375
39.266667	1	-0.077250
39.283333	1	-0.077250
39.300000	1	-0.078125
39.316667	1	-0.078000
39.333333	1	-0.078500
39.350000	1	-0.078875
39.366667	1	-0.079875
39.383333	1	-0.080500
39.400000	1	-0.081000
39.416667	1	-0.081125
39.433333	1	-0.081500
39.450000	1	-0.082375
39.466667	1	-0.082500
39.483333	1	-0.082750
39.500000	1	-0.083250
39.516667	1	-0.083500
39.533333	1	-0.083750
39.550000	1	-0.084625
39.566667	1	-0.085125
39.583333	1	-0.086000
39.600000	1	-0.086500
39.616667	1	-0.086500
39.633333	1	-0.086500
39.650000	1	-0.087250
39.666667	1	-0.087250
39.683333	1	-0.087750
39.700000	1	-0.087625
39.716667	1	-0.088250
39.733333	1	-0.088500
39.750000	1	-0.088500
39.766667	1	-0.088625
39.783333	1	-0.088375
39.800000	1	-0.088875
39.816667	1	-0.089000
39.833333	1	-0.089125
39.850000	1	-0.088500
39.866667	1	-0.088250
39.883333	1	-0.087750
39.900000	1	-0.086750
39.916667	1	-0.085875
39.933333	1	-0.085500
39.950000	1	-0.085000
39.966667	1	-0.084000
39.983333	1	-0.083625
40.000000	1	-0.082000
