File Path	chrom://marshall/Chromeleon7/HPLC_Ultimate_3000/Users/markusar/20230107.seq/866.smp/RI_1.channel/RI_1.chm
Channel	RI_1

Injection Information:
Data Vault	Chromeleon7
Injection	er2.4
Injection Number	9
Position	RB1
Comment	
Processing Method	
Instrument Method	std_method
Type	Unknown
Status	Finished
Injection Date	07.01.2023
Injection Time	21:21:49
Injection Volume (µl)	20.000
Dilution Factor	1.0000
Weight	1.0000

Chromatogram Data Information:
Time Min. (min)	0.000000
Time Max. (min)	40.000000
Data Points	2401
Detector	RI
Generating Data System	Chromeleon 7.2.5.9507
Exporting Data System	Chromeleon 7.2.5.0
Operator	Instrument Controller
Signal Quantity	Refractive 
Signal Unit	µRIU
Signal Min.	-0.101250
Signal Max.	110.885875
Channel	RI_1
Driver Name	RID520Driver.dll
Channel Type	Evaluation
Min. Step (s)	1
Max. Step (s)	1
Average Step (s)	1

Signal Parameter Information:
Signal Info	

Chromatogram Data:
Time (min)	Step (s)	Value (µRIU)
0.000000	n.a.	0.141500
0.016667	1	0.143000
0.033333	1	0.145375
0.050000	1	0.147375
0.066667	1	0.149250
0.083333	1	0.151500
0.100000	1	0.153000
0.116667	1	0.154875
0.133333	1	0.156625
0.150000	1	0.158250
0.166667	1	0.159000
0.183333	1	0.160375
0.200000	1	0.161125
0.216667	1	0.161875
0.233333	1	0.162000
0.250000	1	0.163250
0.266667	1	0.163750
0.283333	1	0.164500
0.300000	1	0.165125
0.316667	1	0.165375
0.333333	1	0.165250
0.350000	1	0.164750
0.366667	1	0.165125
0.383333	1	0.165000
0.400000	1	0.164625
0.416667	1	0.164250
0.433333	1	0.163500
0.450000	1	0.163250
0.466667	1	0.161625
0.483333	1	0.160250
0.500000	1	0.158500
0.516667	1	0.157375
0.533333	1	0.155250
0.550000	1	0.153125
0.566667	1	0.151500
0.583333	1	0.150250
0.600000	1	0.149000
0.616667	1	0.148000
0.633333	1	0.147250
0.650000	1	0.146500
0.666667	1	0.145250
0.683333	1	0.143750
0.700000	1	0.141375
0.716667	1	0.139375
0.733333	1	0.137000
0.750000	1	0.135000
0.766667	1	0.132125
0.783333	1	0.128375
0.800000	1	0.125250
0.816667	1	0.121875
0.833333	1	0.118250
0.850000	1	0.114750
0.866667	1	0.111625
0.883333	1	0.108500
0.900000	1	0.104750
0.916667	1	0.101625
0.933333	1	0.098875
0.950000	1	0.095875
0.966667	1	0.092500
0.983333	1	0.089500
1.000000	1	0.087000
1.016667	1	0.084625
1.033333	1	0.081000
1.050000	1	0.078125
1.066667	1	0.075375
1.083333	1	0.072500
1.100000	1	0.069375
1.116667	1	0.066875
1.133333	1	0.064000
1.150000	1	0.061000
1.166667	1	0.058250
1.183333	1	0.055875
1.200000	1	0.053500
1.216667	1	0.050500
1.233333	1	0.048250
1.250000	1	0.045875
1.266667	1	0.043000
1.283333	1	0.040375
1.300000	1	0.037750
1.316667	1	0.034625
1.333333	1	0.032250
1.350000	1	0.030000
1.366667	1	0.027375
1.383333	1	0.025125
1.400000	1	0.023375
1.416667	1	0.020625
1.433333	1	0.018000
1.450000	1	0.014875
1.466667	1	0.012375
1.483333	1	0.010375
1.500000	1	0.007750
1.516667	1	0.005750
1.533333	1	0.003375
1.550000	1	0.000250
1.566667	1	-0.001875
1.583333	1	-0.004750
1.600000	1	-0.007500
1.616667	1	-0.009875
1.633333	1	-0.012000
1.650000	1	-0.014125
1.666667	1	-0.016000
1.683333	1	-0.018625
1.700000	1	-0.020875
1.716667	1	-0.023375
1.733333	1	-0.026000
1.750000	1	-0.027875
1.766667	1	-0.030125
1.783333	1	-0.032750
1.800000	1	-0.035000
1.816667	1	-0.037500
1.833333	1	-0.040000
1.850000	1	-0.041625
1.866667	1	-0.044375
1.883333	1	-0.047000
1.900000	1	-0.049500
1.916667	1	-0.051625
1.933333	1	-0.053875
1.950000	1	-0.055375
1.966667	1	-0.057375
1.983333	1	-0.059500
2.000000	1	-0.062000
2.016667	1	-0.064125
2.033333	1	-0.065875
2.050000	1	-0.067125
2.066667	1	-0.068500
2.083333	1	-0.070125
2.100000	1	-0.071500
2.116667	1	-0.073375
2.133333	1	-0.075250
2.150000	1	-0.077375
2.166667	1	-0.078875
2.183333	1	-0.080875
2.200000	1	-0.082000
2.216667	1	-0.083375
2.233333	1	-0.084750
2.250000	1	-0.085375
2.266667	1	-0.086500
2.283333	1	-0.087750
2.300000	1	-0.088500
2.316667	1	-0.089750
2.333333	1	-0.091000
2.350000	1	-0.091625
2.366667	1	-0.092875
2.383333	1	-0.094125
2.400000	1	-0.094625
2.416667	1	-0.095250
2.433333	1	-0.096250
2.450000	1	-0.097000
2.466667	1	-0.097750
2.483333	1	-0.098125
2.500000	1	-0.098875
2.516667	1	-0.099125
2.533333	1	-0.099625
2.550000	1	-0.099500
2.566667	1	-0.099500
2.583333	1	-0.099875
2.600000	1	-0.100250
2.616667	1	-0.100250
2.633333	1	-0.100500
2.650000	1	-0.100875
2.666667	1	-0.100875
2.683333	1	-0.101250
2.700000	1	-0.101250
2.716667	1	-0.101000
2.733333	1	-0.100875
2.750000	1	-0.101000
2.766667	1	-0.100625
2.783333	1	-0.100375
2.800000	1	-0.100125
2.816667	1	-0.099250
2.833333	1	-0.098750
2.850000	1	-0.098000
2.866667	1	-0.096875
2.883333	1	-0.096500
2.900000	1	-0.096000
2.916667	1	-0.095625
2.933333	1	-0.094750
2.950000	1	-0.093125
2.966667	1	-0.091750
2.983333	1	-0.091125
3.000000	1	-0.090250
3.016667	1	-0.089750
3.033333	1	-0.088625
3.050000	1	-0.087375
3.066667	1	-0.086875
3.083333	1	-0.085750
3.100000	1	-0.084750
3.116667	1	-0.082750
3.133333	1	-0.081750
3.150000	1	-0.080500
3.166667	1	-0.079750
3.183333	1	-0.079250
3.200000	1	-0.077250
3.216667	1	-0.075750
3.233333	1	-0.074750
3.250000	1	-0.073500
3.266667	1	-0.072000
3.283333	1	-0.070250
3.300000	1	-0.068375
3.316667	1	-0.066875
3.333333	1	-0.065500
3.350000	1	-0.064000
3.366667	1	-0.062500
3.383333	1	-0.061125
3.400000	1	-0.059500
3.416667	1	-0.057750
3.433333	1	-0.055875
3.450000	1	-0.054750
3.466667	1	-0.052875
3.483333	1	-0.051625
3.500000	1	-0.049750
3.516667	1	-0.048000
3.533333	1	-0.046250
3.550000	1	-0.044250
3.566667	1	-0.041750
3.583333	1	-0.039875
3.600000	1	-0.039125
3.616667	1	-0.037625
3.633333	1	-0.035250
3.650000	1	-0.033500
3.666667	1	-0.031625
3.683333	1	-0.029875
3.700000	1	-0.028750
3.716667	1	-0.026500
3.733333	1	-0.024750
3.750000	1	-0.023000
3.766667	1	-0.021625
3.783333	1	-0.020000
3.800000	1	-0.018625
3.816667	1	-0.017250
3.833333	1	-0.015750
3.850000	1	-0.013875
3.866667	1	-0.012125
3.883333	1	-0.011125
3.900000	1	-0.009750
3.916667	1	-0.007875
3.933333	1	-0.006125
3.950000	1	-0.004375
3.966667	1	-0.003375
3.983333	1	-0.002125
4.000000	1	-0.000875
4.016667	1	0.000000
4.033333	1	0.002000
4.050000	1	0.002500
4.066667	1	0.003125
4.083333	1	0.004125
4.100000	1	0.005125
4.116667	1	0.006375
4.133333	1	0.007250
4.150000	1	0.007875
4.166667	1	0.008625
4.183333	1	0.009500
4.200000	1	0.010375
4.216667	1	0.010375
4.233333	1	0.010875
4.250000	1	0.011375
4.266667	1	0.012000
4.283333	1	0.012500
4.300000	1	0.013000
4.316667	1	0.012250
4.333333	1	0.012250
4.350000	1	0.012375
4.366667	1	0.012250
4.383333	1	0.011875
4.400000	1	0.012000
4.416667	1	0.011750
4.433333	1	0.011125
4.450000	1	0.010500
4.466667	1	0.010375
4.483333	1	0.010625
4.500000	1	0.010250
4.516667	1	0.010250
4.533333	1	0.009625
4.550000	1	0.008375
4.566667	1	0.007875
4.583333	1	0.007500
4.600000	1	0.007125
4.616667	1	0.006875
4.633333	1	0.006000
4.650000	1	0.005500
4.666667	1	0.005000
4.683333	1	0.004625
4.700000	1	0.003750
4.716667	1	0.003125
4.733333	1	0.002000
4.750000	1	0.001125
4.766667	1	0.000000
4.783333	1	-0.000875
4.800000	1	-0.001625
4.816667	1	-0.002875
4.833333	1	-0.004375
4.850000	1	-0.005375
4.866667	1	-0.006000
4.883333	1	-0.007125
4.900000	1	-0.008250
4.916667	1	-0.009875
4.933333	1	-0.011250
4.950000	1	-0.012125
4.966667	1	-0.013250
4.983333	1	-0.014625
5.000000	1	-0.015500
5.016667	1	-0.016000
5.033333	1	-0.017000
5.050000	1	-0.017375
5.066667	1	-0.017875
5.083333	1	-0.018500
5.100000	1	-0.019500
5.116667	1	-0.020250
5.133333	1	-0.021125
5.150000	1	-0.022000
5.166667	1	-0.022125
5.183333	1	-0.022625
5.200000	1	-0.023250
5.216667	1	-0.023875
5.233333	1	-0.024375
5.250000	1	-0.024625
5.266667	1	-0.024625
5.283333	1	-0.024250
5.300000	1	-0.024875
5.316667	1	-0.024625
5.333333	1	-0.023500
5.350000	1	-0.023125
5.366667	1	-0.023000
5.383333	1	-0.021875
5.400000	1	-0.021250
5.416667	1	-0.020875
5.433333	1	-0.020875
5.450000	1	-0.019875
5.466667	1	-0.018750
5.483333	1	-0.018375
5.500000	1	-0.017250
5.516667	1	-0.016750
5.533333	1	-0.016125
5.550000	1	-0.015250
5.566667	1	-0.014500
5.583333	1	-0.012875
5.600000	1	-0.011000
5.616667	1	-0.008875
5.633333	1	-0.007375
5.650000	1	-0.004750
5.666667	1	-0.002875
5.683333	1	-0.001125
5.700000	1	0.000875
5.716667	1	0.003125
5.733333	1	0.005625
5.750000	1	0.008500
5.766667	1	0.011625
5.783333	1	0.014000
5.800000	1	0.015375
5.816667	1	0.018125
5.833333	1	0.020625
5.850000	1	0.023125
5.866667	1	0.025625
5.883333	1	0.028250
5.900000	1	0.030250
5.916667	1	0.032875
5.933333	1	0.034625
5.950000	1	0.037000
5.966667	1	0.039625
5.983333	1	0.042750
6.000000	1	0.045625
6.016667	1	0.048125
6.033333	1	0.050375
6.050000	1	0.052375
6.066667	1	0.054375
6.083333	1	0.056375
6.100000	1	0.058625
6.116667	1	0.061000
6.133333	1	0.062875
6.150000	1	0.064625
6.166667	1	0.067125
6.183333	1	0.069000
6.200000	1	0.071125
6.216667	1	0.073000
6.233333	1	0.075250
6.250000	1	0.077125
6.266667	1	0.078750
6.283333	1	0.080500
6.300000	1	0.082000
6.316667	1	0.084000
6.333333	1	0.086000
6.350000	1	0.087750
6.366667	1	0.089375
6.383333	1	0.090500
6.400000	1	0.092125
6.416667	1	0.093625
6.433333	1	0.095375
6.450000	1	0.096500
6.466667	1	0.097875
6.483333	1	0.098750
6.500000	1	0.099750
6.516667	1	0.100500
6.533333	1	0.101500
6.550000	1	0.102875
6.566667	1	0.103500
6.583333	1	0.103875
6.600000	1	0.104625
6.616667	1	0.105125
6.633333	1	0.105125
6.650000	1	0.104875
6.666667	1	0.105375
6.683333	1	0.105750
6.700000	1	0.105625
6.716667	1	0.105500
6.733333	1	0.105375
6.750000	1	0.105250
6.766667	1	0.105125
6.783333	1	0.105250
6.800000	1	0.105125
6.816667	1	0.105125
6.833333	1	0.104625
6.850000	1	0.104125
6.866667	1	0.103750
6.883333	1	0.103875
6.900000	1	0.103875
6.916667	1	0.103250
6.933333	1	0.103500
6.950000	1	0.103125
6.966667	1	0.103250
6.983333	1	0.103500
7.000000	1	0.103375
7.016667	1	0.104500
7.033333	1	0.104125
7.050000	1	0.104125
7.066667	1	0.104000
7.083333	1	0.104750
7.100000	1	0.105375
7.116667	1	0.105875
7.133333	1	0.105750
7.150000	1	0.106375
7.166667	1	0.107250
7.183333	1	0.108625
7.200000	1	0.109625
7.216667	1	0.110125
7.233333	1	0.110875
7.250000	1	0.111750
7.266667	1	0.112625
7.283333	1	0.113625
7.300000	1	0.114500
7.316667	1	0.115625
7.333333	1	0.117000
7.350000	1	0.117750
7.366667	1	0.119125
7.383333	1	0.120000
7.400000	1	0.121125
7.416667	1	0.122000
7.433333	1	0.123625
7.450000	1	0.125500
7.466667	1	0.125875
7.483333	1	0.127250
7.500000	1	0.128375
7.516667	1	0.129875
7.533333	1	0.130875
7.550000	1	0.131750
7.566667	1	0.132500
7.583333	1	0.133750
7.600000	1	0.134875
7.616667	1	0.136250
7.633333	1	0.137750
7.650000	1	0.139000
7.666667	1	0.140250
7.683333	1	0.141125
7.700000	1	0.141750
7.716667	1	0.143000
7.733333	1	0.143750
7.750000	1	0.144875
7.766667	1	0.145625
7.783333	1	0.146375
7.800000	1	0.146625
7.816667	1	0.147625
7.833333	1	0.148000
7.850000	1	0.148750
7.866667	1	0.149750
7.883333	1	0.150250
7.900000	1	0.151750
7.916667	1	0.152375
7.933333	1	0.153375
7.950000	1	0.153750
7.966667	1	0.154375
7.983333	1	0.154875
8.000000	1	0.155375
8.016667	1	0.155875
8.033333	1	0.155875
8.050000	1	0.155500
8.066667	1	0.155375
8.083333	1	0.154500
8.100000	1	0.154125
8.116667	1	0.154000
8.133333	1	0.153500
8.150000	1	0.153250
8.166667	1	0.152625
8.183333	1	0.151750
8.200000	1	0.151000
8.216667	1	0.150000
8.233333	1	0.148500
8.250000	1	0.147375
8.266667	1	0.145875
8.283333	1	0.144000
8.300000	1	0.142875
8.316667	1	0.142250
8.333333	1	0.140375
8.350000	1	0.138875
8.366667	1	0.137000
8.383333	1	0.135250
8.400000	1	0.134375
8.416667	1	0.133250
8.433333	1	0.132125
8.450000	1	0.130000
8.466667	1	0.129000
8.483333	1	0.127375
8.500000	1	0.125500
8.516667	1	0.123750
8.533333	1	0.123000
8.550000	1	0.121375
8.566667	1	0.120250
8.583333	1	0.119250
8.600000	1	0.117625
8.616667	1	0.116625
8.633333	1	0.115000
8.650000	1	0.114000
8.666667	1	0.113125
8.683333	1	0.111750
8.700000	1	0.110875
8.716667	1	0.110125
8.733333	1	0.109250
8.750000	1	0.109125
8.766667	1	0.109000
8.783333	1	0.108375
8.800000	1	0.107625
8.816667	1	0.107000
8.833333	1	0.106000
8.850000	1	0.105500
8.866667	1	0.104625
8.883333	1	0.104250
8.900000	1	0.104375
8.916667	1	0.104125
8.933333	1	0.103625
8.950000	1	0.103500
8.966667	1	0.103250
8.983333	1	0.103250
9.000000	1	0.103750
9.016667	1	0.104125
9.033333	1	0.104750
9.050000	1	0.104875
9.066667	1	0.105250
9.083333	1	0.105750
9.100000	1	0.106000
9.116667	1	0.106625
9.133333	1	0.107875
9.150000	1	0.107625
9.166667	1	0.108500
9.183333	1	0.109625
9.200000	1	0.110375
9.216667	1	0.111500
9.233333	1	0.113125
9.250000	1	0.113625
9.266667	1	0.114625
9.283333	1	0.116500
9.300000	1	0.118375
9.316667	1	0.120625
9.333333	1	0.122625
9.350000	1	0.124625
9.366667	1	0.126375
9.383333	1	0.129625
9.400000	1	0.132125
9.416667	1	0.135375
9.433333	1	0.138625
9.450000	1	0.141625
9.466667	1	0.145000
9.483333	1	0.148750
9.500000	1	0.153000
9.516667	1	0.156875
9.533333	1	0.160500
9.550000	1	0.165250
9.566667	1	0.170125
9.583333	1	0.174875
9.600000	1	0.179625
9.616667	1	0.185125
9.633333	1	0.191375
9.650000	1	0.197625
9.666667	1	0.204125
9.683333	1	0.211750
9.700000	1	0.219750
9.716667	1	0.228875
9.733333	1	0.239625
9.750000	1	0.251000
9.766667	1	0.264750
9.783333	1	0.280875
9.800000	1	0.299125
9.816667	1	0.319125
9.833333	1	0.343125
9.850000	1	0.370125
9.866667	1	0.400750
9.883333	1	0.434250
9.900000	1	0.471250
9.916667	1	0.510875
9.933333	1	0.552625
9.950000	1	0.597750
9.966667	1	0.645750
9.983333	1	0.697500
10.000000	1	0.754250
10.016667	1	0.816625
10.033333	1	0.882625
10.050000	1	0.950125
10.066667	1	1.011500
10.083333	1	1.059000
10.100000	1	1.083875
10.116667	1	1.081625
10.133333	1	1.052250
10.150000	1	1.004125
10.166667	1	0.952875
10.183333	1	0.921250
10.200000	1	0.935625
10.216667	1	1.031125
10.233333	1	1.243625
10.250000	1	1.615000
10.266667	1	2.188125
10.283333	1	3.008250
10.300000	1	4.121625
10.316667	1	5.574125
10.333333	1	7.409750
10.350000	1	9.671125
10.366667	1	12.395500
10.383333	1	15.614375
10.400000	1	19.358125
10.416667	1	23.649375
10.433333	1	28.501250
10.450000	1	33.909625
10.466667	1	39.867375
10.483333	1	46.339750
10.500000	1	53.270500
10.516667	1	60.563500
10.533333	1	68.078750
10.550000	1	75.635125
10.566667	1	83.018750
10.583333	1	89.989250
10.600000	1	96.306625
10.616667	1	101.735500
10.633333	1	106.062875
10.650000	1	109.112000
10.666667	1	110.751125
10.683333	1	110.885875
10.700000	1	109.467000
10.716667	1	106.511375
10.733333	1	102.109875
10.750000	1	96.442625
10.766667	1	89.766500
10.783333	1	82.378250
10.800000	1	74.586125
10.816667	1	66.693500
10.833333	1	58.973625
10.850000	1	51.648500
10.866667	1	44.877375
10.883333	1	38.769000
10.900000	1	33.380125
10.916667	1	28.722500
10.933333	1	24.769500
10.950000	1	21.466125
10.966667	1	18.742375
10.983333	1	16.517875
11.000000	1	14.712500
11.016667	1	13.251500
11.033333	1	12.068750
11.050000	1	11.105625
11.066667	1	10.313750
11.083333	1	9.652875
11.100000	1	9.091750
11.116667	1	8.606500
11.133333	1	8.177875
11.150000	1	7.790750
11.166667	1	7.436625
11.183333	1	7.107500
11.200000	1	6.798000
11.216667	1	6.503875
11.233333	1	6.224250
11.250000	1	5.957750
11.266667	1	5.703500
11.283333	1	5.461000
11.300000	1	5.230750
11.316667	1	5.012750
11.333333	1	4.807625
11.350000	1	4.614875
11.366667	1	4.435250
11.383333	1	4.269375
11.400000	1	4.117750
11.416667	1	3.980500
11.433333	1	3.858125
11.450000	1	3.750750
11.466667	1	3.657000
11.483333	1	3.575625
11.500000	1	3.505750
11.516667	1	3.445375
11.533333	1	3.391875
11.550000	1	3.344375
11.566667	1	3.301750
11.583333	1	3.262000
11.600000	1	3.225000
11.616667	1	3.190000
11.633333	1	3.157250
11.650000	1	3.127375
11.666667	1	3.099125
11.683333	1	3.072875
11.700000	1	3.048000
11.716667	1	3.025375
11.733333	1	3.003375
11.750000	1	2.982000
11.766667	1	2.960375
11.783333	1	2.938125
11.800000	1	2.915125
11.816667	1	2.891750
11.833333	1	2.867125
11.850000	1	2.841375
11.866667	1	2.816000
11.883333	1	2.790250
11.900000	1	2.764125
11.916667	1	2.738875
11.933333	1	2.713000
11.950000	1	2.687750
11.966667	1	2.662750
11.983333	1	2.637750
12.000000	1	2.613125
12.016667	1	2.588625
12.033333	1	2.564000
12.050000	1	2.538625
12.066667	1	2.512875
12.083333	1	2.487500
12.100000	1	2.461000
12.116667	1	2.435375
12.133333	1	2.409125
12.150000	1	2.382875
12.166667	1	2.357250
12.183333	1	2.332375
12.200000	1	2.307250
12.216667	1	2.283625
12.233333	1	2.259875
12.250000	1	2.239125
12.266667	1	2.219000
12.283333	1	2.201750
12.300000	1	2.186500
12.316667	1	2.174125
12.333333	1	2.166125
12.350000	1	2.162875
12.366667	1	2.164625
12.383333	1	2.173750
12.400000	1	2.190625
12.416667	1	2.217750
12.433333	1	2.256500
12.450000	1	2.309125
12.466667	1	2.378500
12.483333	1	2.467625
12.500000	1	2.581250
12.516667	1	2.722875
12.533333	1	2.896500
12.550000	1	3.106750
12.566667	1	3.359500
12.583333	1	3.655875
12.600000	1	3.998375
12.616667	1	4.386000
12.633333	1	4.817375
12.650000	1	5.289750
12.666667	1	5.797750
12.683333	1	6.336000
12.700000	1	6.897750
12.716667	1	7.475750
12.733333	1	8.064875
12.750000	1	8.660125
12.766667	1	9.258250
12.783333	1	9.857000
12.800000	1	10.456125
12.816667	1	11.055750
12.833333	1	11.657250
12.850000	1	12.261250
12.866667	1	12.870000
12.883333	1	13.484750
12.900000	1	14.103750
12.916667	1	14.724500
12.933333	1	15.342500
12.950000	1	15.951875
12.966667	1	16.543750
12.983333	1	17.109000
13.000000	1	17.638750
13.016667	1	18.124500
13.033333	1	18.559625
13.050000	1	18.937250
13.066667	1	19.252375
13.083333	1	19.502125
13.100000	1	19.684500
13.116667	1	19.798875
13.133333	1	19.847500
13.150000	1	19.832750
13.166667	1	19.757750
13.183333	1	19.626375
13.200000	1	19.444625
13.216667	1	19.216875
13.233333	1	18.948875
13.250000	1	18.645125
13.266667	1	18.310875
13.283333	1	17.949750
13.300000	1	17.566875
13.316667	1	17.166250
13.333333	1	16.751250
13.350000	1	16.326250
13.366667	1	15.894250
13.383333	1	15.456875
13.400000	1	15.017000
13.416667	1	14.577125
13.433333	1	14.137000
13.450000	1	13.698500
13.466667	1	13.259500
13.483333	1	12.819500
13.500000	1	12.378625
13.516667	1	11.935500
13.533333	1	11.487750
13.550000	1	11.034875
13.566667	1	10.574500
13.583333	1	10.108250
13.600000	1	9.636125
13.616667	1	9.161250
13.633333	1	8.687625
13.650000	1	8.222000
13.666667	1	7.769750
13.683333	1	7.335500
13.700000	1	6.928250
13.716667	1	6.552125
13.733333	1	6.211000
13.750000	1	5.906875
13.766667	1	5.640375
13.783333	1	5.410375
13.800000	1	5.214750
13.816667	1	5.049875
13.833333	1	4.910875
13.850000	1	4.792875
13.866667	1	4.692250
13.883333	1	4.605375
13.900000	1	4.528125
13.916667	1	4.459250
13.933333	1	4.397500
13.950000	1	4.341125
13.966667	1	4.289375
13.983333	1	4.241375
14.000000	1	4.196125
14.016667	1	4.153125
14.033333	1	4.111500
14.050000	1	4.069875
14.066667	1	4.027750
14.083333	1	3.982750
14.100000	1	3.933500
14.116667	1	3.878875
14.133333	1	3.818875
14.150000	1	3.751625
14.166667	1	3.678125
14.183333	1	3.598000
14.200000	1	3.513000
14.216667	1	3.424875
14.233333	1	3.334875
14.250000	1	3.244750
14.266667	1	3.156250
14.283333	1	3.072875
14.300000	1	2.996125
14.316667	1	2.927500
14.333333	1	2.869375
14.350000	1	2.824500
14.366667	1	2.793875
14.383333	1	2.778500
14.400000	1	2.779750
14.416667	1	2.799625
14.433333	1	2.837250
14.450000	1	2.893375
14.466667	1	2.969625
14.483333	1	3.066875
14.500000	1	3.184250
14.516667	1	3.321625
14.533333	1	3.479000
14.550000	1	3.655250
14.566667	1	3.849875
14.583333	1	4.063250
14.600000	1	4.294000
14.616667	1	4.540500
14.633333	1	4.801125
14.650000	1	5.073500
14.666667	1	5.355625
14.683333	1	5.644000
14.700000	1	5.935000
14.716667	1	6.225125
14.733333	1	6.512250
14.750000	1	6.794000
14.766667	1	7.069125
14.783333	1	7.340000
14.800000	1	7.609625
14.816667	1	7.885500
14.833333	1	8.174875
14.850000	1	8.489375
14.866667	1	8.840000
14.883333	1	9.240625
14.900000	1	9.703000
14.916667	1	10.238250
14.933333	1	10.851750
14.950000	1	11.545250
14.966667	1	12.316000
14.983333	1	13.154875
15.000000	1	14.048000
15.016667	1	14.978750
15.033333	1	15.927625
15.050000	1	16.872375
15.066667	1	17.794625
15.083333	1	18.674250
15.100000	1	19.496875
15.116667	1	20.250375
15.133333	1	20.928625
15.150000	1	21.525375
15.166667	1	22.039250
15.183333	1	22.468125
15.200000	1	22.813500
15.216667	1	23.073500
15.233333	1	23.245625
15.250000	1	23.329000
15.266667	1	23.320875
15.283333	1	23.216250
15.300000	1	23.011875
15.316667	1	22.706875
15.333333	1	22.299750
15.350000	1	21.792250
15.366667	1	21.190375
15.383333	1	20.504500
15.400000	1	19.742875
15.416667	1	18.918250
15.433333	1	18.042000
15.450000	1	17.126500
15.466667	1	16.185625
15.483333	1	15.232625
15.500000	1	14.279875
15.516667	1	13.339000
15.533333	1	12.420000
15.550000	1	11.530750
15.566667	1	10.680500
15.583333	1	9.874250
15.600000	1	9.116500
15.616667	1	8.410250
15.633333	1	7.757625
15.650000	1	7.159000
15.666667	1	6.614250
15.683333	1	6.123000
15.700000	1	5.682625
15.716667	1	5.290125
15.733333	1	4.943375
15.750000	1	4.639250
15.766667	1	4.375125
15.783333	1	4.146000
15.800000	1	3.948500
15.816667	1	3.780000
15.833333	1	3.638875
15.850000	1	3.521750
15.866667	1	3.428750
15.883333	1	3.356625
15.900000	1	3.305000
15.916667	1	3.271875
15.933333	1	3.256375
15.950000	1	3.257750
15.966667	1	3.272750
15.983333	1	3.300250
16.000000	1	3.338000
16.016667	1	3.385000
16.033333	1	3.438375
16.050000	1	3.494625
16.066667	1	3.552250
16.083333	1	3.608625
16.100000	1	3.663125
16.116667	1	3.713375
16.133333	1	3.758000
16.150000	1	3.797500
16.166667	1	3.831500
16.183333	1	3.859875
16.200000	1	3.882750
16.216667	1	3.901250
16.233333	1	3.915125
16.250000	1	3.925125
16.266667	1	3.930500
16.283333	1	3.930750
16.300000	1	3.926500
16.316667	1	3.916625
16.333333	1	3.900250
16.350000	1	3.876125
16.366667	1	3.846125
16.383333	1	3.808000
16.400000	1	3.762125
16.416667	1	3.708250
16.433333	1	3.647250
16.450000	1	3.579875
16.466667	1	3.507000
16.483333	1	3.429125
16.500000	1	3.347625
16.516667	1	3.263000
16.533333	1	3.176500
16.550000	1	3.088750
16.566667	1	3.001625
16.583333	1	2.915000
16.600000	1	2.830000
16.616667	1	2.747125
16.633333	1	2.666500
16.650000	1	2.588000
16.666667	1	2.513625
16.683333	1	2.442875
16.700000	1	2.375625
16.716667	1	2.311750
16.733333	1	2.253125
16.750000	1	2.198250
16.766667	1	2.147875
16.783333	1	2.100750
16.800000	1	2.058375
16.816667	1	2.019875
16.833333	1	1.985375
16.850000	1	1.953000
16.866667	1	1.925000
16.883333	1	1.899625
16.900000	1	1.877250
16.916667	1	1.857500
16.933333	1	1.839875
16.950000	1	1.824250
16.966667	1	1.809625
16.983333	1	1.797500
17.000000	1	1.787125
17.016667	1	1.776500
17.033333	1	1.767750
17.050000	1	1.760000
17.066667	1	1.752500
17.083333	1	1.746375
17.100000	1	1.741250
17.116667	1	1.735625
17.133333	1	1.730500
17.150000	1	1.725375
17.166667	1	1.721000
17.183333	1	1.716625
17.200000	1	1.711500
17.216667	1	1.706375
17.233333	1	1.701125
17.250000	1	1.694625
17.266667	1	1.687250
17.283333	1	1.680000
17.300000	1	1.672000
17.316667	1	1.663625
17.333333	1	1.654000
17.350000	1	1.644625
17.366667	1	1.634375
17.383333	1	1.624500
17.400000	1	1.613750
17.416667	1	1.602875
17.433333	1	1.592750
17.450000	1	1.582125
17.466667	1	1.571875
17.483333	1	1.561625
17.500000	1	1.551125
17.516667	1	1.542250
17.533333	1	1.532375
17.550000	1	1.523875
17.566667	1	1.514875
17.583333	1	1.506750
17.600000	1	1.498750
17.616667	1	1.491750
17.633333	1	1.485000
17.650000	1	1.478750
17.666667	1	1.473875
17.683333	1	1.470500
17.700000	1	1.467000
17.716667	1	1.464875
17.733333	1	1.462875
17.750000	1	1.463000
17.766667	1	1.464375
17.783333	1	1.467750
17.800000	1	1.472625
17.816667	1	1.478875
17.833333	1	1.487625
17.850000	1	1.497375
17.866667	1	1.508750
17.883333	1	1.523125
17.900000	1	1.538625
17.916667	1	1.556875
17.933333	1	1.576125
17.950000	1	1.596750
17.966667	1	1.619250
17.983333	1	1.642125
18.000000	1	1.666375
18.016667	1	1.691125
18.033333	1	1.715500
18.050000	1	1.740375
18.066667	1	1.765375
18.083333	1	1.789875
18.100000	1	1.813500
18.116667	1	1.836500
18.133333	1	1.859375
18.150000	1	1.881250
18.166667	1	1.901250
18.183333	1	1.920500
18.200000	1	1.937500
18.216667	1	1.953125
18.233333	1	1.967750
18.250000	1	1.980000
18.266667	1	1.990500
18.283333	1	1.998500
18.300000	1	2.004500
18.316667	1	2.008125
18.333333	1	2.009500
18.350000	1	2.008250
18.366667	1	2.004875
18.383333	1	1.999125
18.400000	1	1.991375
18.416667	1	1.981875
18.433333	1	1.971375
18.450000	1	1.959125
18.466667	1	1.945125
18.483333	1	1.929375
18.500000	1	1.913000
18.516667	1	1.896000
18.533333	1	1.877750
18.550000	1	1.859375
18.566667	1	1.840875
18.583333	1	1.820250
18.600000	1	1.800125
18.616667	1	1.779125
18.633333	1	1.758125
18.650000	1	1.736875
18.666667	1	1.715000
18.683333	1	1.693250
18.700000	1	1.671625
18.716667	1	1.649375
18.733333	1	1.627625
18.750000	1	1.605625
18.766667	1	1.584875
18.783333	1	1.563500
18.800000	1	1.542625
18.816667	1	1.522750
18.833333	1	1.503125
18.850000	1	1.483875
18.866667	1	1.465125
18.883333	1	1.447000
18.900000	1	1.429500
18.916667	1	1.412375
18.933333	1	1.396375
18.950000	1	1.381375
18.966667	1	1.365750
18.983333	1	1.351125
19.000000	1	1.336625
19.016667	1	1.322250
19.033333	1	1.309250
19.050000	1	1.296875
19.066667	1	1.285500
19.083333	1	1.275250
19.100000	1	1.266500
19.116667	1	1.258875
19.133333	1	1.253250
19.150000	1	1.249000
19.166667	1	1.247750
19.183333	1	1.248750
19.200000	1	1.253000
19.216667	1	1.260625
19.233333	1	1.271125
19.250000	1	1.285250
19.266667	1	1.302125
19.283333	1	1.322000
19.300000	1	1.345125
19.316667	1	1.370500
19.333333	1	1.398875
19.350000	1	1.429250
19.366667	1	1.461125
19.383333	1	1.494375
19.400000	1	1.527750
19.416667	1	1.561750
19.433333	1	1.595250
19.450000	1	1.627625
19.466667	1	1.660125
19.483333	1	1.691125
19.500000	1	1.721375
19.516667	1	1.749125
19.533333	1	1.774625
19.550000	1	1.798250
19.566667	1	1.819750
19.583333	1	1.839500
19.600000	1	1.855500
19.616667	1	1.869750
19.633333	1	1.881625
19.650000	1	1.889625
19.666667	1	1.895125
19.683333	1	1.898250
19.700000	1	1.897875
19.716667	1	1.894375
19.733333	1	1.887750
19.750000	1	1.877500
19.766667	1	1.864625
19.783333	1	1.849250
19.800000	1	1.830375
19.816667	1	1.809375
19.833333	1	1.785000
19.850000	1	1.759750
19.866667	1	1.732250
19.883333	1	1.703250
19.900000	1	1.674000
19.916667	1	1.644750
19.933333	1	1.614875
19.950000	1	1.585875
19.966667	1	1.558000
19.983333	1	1.531500
20.000000	1	1.507000
20.016667	1	1.484250
20.033333	1	1.464000
20.050000	1	1.445500
20.066667	1	1.429625
20.083333	1	1.415500
20.100000	1	1.404000
20.116667	1	1.394375
20.133333	1	1.386375
20.150000	1	1.381000
20.166667	1	1.377000
20.183333	1	1.374375
20.200000	1	1.372625
20.216667	1	1.372750
20.233333	1	1.374750
20.250000	1	1.377500
20.266667	1	1.380500
20.283333	1	1.385375
20.300000	1	1.391125
20.316667	1	1.398500
20.333333	1	1.407125
20.350000	1	1.417750
20.366667	1	1.429625
20.383333	1	1.443500
20.400000	1	1.459000
20.416667	1	1.476750
20.433333	1	1.497750
20.450000	1	1.520250
20.466667	1	1.545000
20.483333	1	1.572500
20.500000	1	1.601875
20.516667	1	1.633125
20.533333	1	1.665500
20.550000	1	1.699250
20.566667	1	1.734500
20.583333	1	1.769375
20.600000	1	1.804625
20.616667	1	1.838125
20.633333	1	1.872125
20.650000	1	1.903875
20.666667	1	1.933375
20.683333	1	1.960500
20.700000	1	1.985375
20.716667	1	2.008125
20.733333	1	2.028750
20.750000	1	2.046250
20.766667	1	2.062125
20.783333	1	2.076000
20.800000	1	2.088375
20.816667	1	2.098875
20.833333	1	2.107625
20.850000	1	2.114375
20.866667	1	2.119375
20.883333	1	2.123750
20.900000	1	2.126250
20.916667	1	2.126375
20.933333	1	2.124750
20.950000	1	2.120750
20.966667	1	2.114750
20.983333	1	2.107000
21.000000	1	2.096125
21.016667	1	2.082875
21.033333	1	2.066750
21.050000	1	2.047750
21.066667	1	2.025625
21.083333	1	2.000500
21.100000	1	1.973125
21.116667	1	1.943250
21.133333	1	1.911750
21.150000	1	1.878500
21.166667	1	1.843625
21.183333	1	1.807875
21.200000	1	1.772250
21.216667	1	1.735625
21.233333	1	1.699875
21.250000	1	1.664375
21.266667	1	1.629750
21.283333	1	1.596500
21.300000	1	1.564500
21.316667	1	1.534375
21.333333	1	1.505875
21.350000	1	1.478500
21.366667	1	1.452750
21.383333	1	1.428125
21.400000	1	1.404125
21.416667	1	1.380875
21.433333	1	1.358000
21.450000	1	1.334875
21.466667	1	1.311500
21.483333	1	1.287000
21.500000	1	1.262875
21.516667	1	1.237500
21.533333	1	1.210875
21.550000	1	1.184375
21.566667	1	1.156750
21.583333	1	1.128375
21.600000	1	1.100000
21.616667	1	1.070125
21.633333	1	1.040500
21.650000	1	1.011750
21.666667	1	0.983375
21.683333	1	0.955625
21.700000	1	0.928125
21.716667	1	0.901875
21.733333	1	0.876250
21.750000	1	0.852875
21.766667	1	0.829375
21.783333	1	0.807375
21.800000	1	0.787750
21.816667	1	0.769500
21.833333	1	0.752375
21.850000	1	0.736250
21.866667	1	0.721875
21.883333	1	0.708500
21.900000	1	0.696625
21.916667	1	0.686625
21.933333	1	0.677875
21.950000	1	0.670375
21.966667	1	0.664250
21.983333	1	0.659750
22.000000	1	0.656125
22.016667	1	0.654125
22.033333	1	0.653500
22.050000	1	0.653625
22.066667	1	0.654875
22.083333	1	0.657125
22.100000	1	0.660625
22.116667	1	0.664250
22.133333	1	0.668750
22.150000	1	0.673875
22.166667	1	0.679000
22.183333	1	0.685250
22.200000	1	0.691375
22.216667	1	0.696875
22.233333	1	0.702875
22.250000	1	0.708125
22.266667	1	0.713125
22.283333	1	0.717625
22.300000	1	0.722000
22.316667	1	0.726000
22.333333	1	0.729375
22.350000	1	0.732875
22.366667	1	0.735250
22.383333	1	0.737125
22.400000	1	0.739125
22.416667	1	0.740500
22.433333	1	0.741000
22.450000	1	0.740750
22.466667	1	0.740000
22.483333	1	0.739125
22.500000	1	0.737500
22.516667	1	0.734750
22.533333	1	0.731750
22.550000	1	0.728250
22.566667	1	0.724625
22.583333	1	0.720750
22.600000	1	0.716250
22.616667	1	0.711125
22.633333	1	0.706125
22.650000	1	0.701500
22.666667	1	0.695875
22.683333	1	0.691625
22.700000	1	0.687500
22.716667	1	0.682375
22.733333	1	0.678375
22.750000	1	0.675125
22.766667	1	0.672500
22.783333	1	0.670000
22.800000	1	0.668000
22.816667	1	0.667250
22.833333	1	0.667000
22.850000	1	0.667625
22.866667	1	0.668250
22.883333	1	0.670000
22.900000	1	0.672125
22.916667	1	0.674250
22.933333	1	0.677125
22.950000	1	0.679750
22.966667	1	0.682875
22.983333	1	0.685750
23.000000	1	0.688625
23.016667	1	0.691125
23.033333	1	0.693750
23.050000	1	0.695750
23.066667	1	0.697375
23.083333	1	0.698250
23.100000	1	0.699375
23.116667	1	0.700250
23.133333	1	0.701000
23.150000	1	0.700500
23.166667	1	0.699500
23.183333	1	0.699375
23.200000	1	0.698125
23.216667	1	0.696125
23.233333	1	0.693875
23.250000	1	0.691125
23.266667	1	0.687625
23.283333	1	0.683500
23.300000	1	0.678875
23.316667	1	0.674375
23.333333	1	0.668875
23.350000	1	0.662750
23.366667	1	0.656750
23.383333	1	0.650375
23.400000	1	0.643875
23.416667	1	0.636625
23.433333	1	0.628750
23.450000	1	0.621000
23.466667	1	0.612875
23.483333	1	0.604375
23.500000	1	0.597250
23.516667	1	0.589750
23.533333	1	0.581250
23.550000	1	0.573125
23.566667	1	0.566125
23.583333	1	0.558375
23.600000	1	0.550750
23.616667	1	0.543375
23.633333	1	0.537125
23.650000	1	0.531500
23.666667	1	0.525875
23.683333	1	0.520375
23.700000	1	0.516125
23.716667	1	0.513125
23.733333	1	0.511000
23.750000	1	0.510375
23.766667	1	0.511375
23.783333	1	0.513750
23.800000	1	0.517750
23.816667	1	0.524375
23.833333	1	0.533125
23.850000	1	0.545125
23.866667	1	0.559500
23.883333	1	0.576750
23.900000	1	0.597000
23.916667	1	0.620375
23.933333	1	0.646750
23.950000	1	0.675625
23.966667	1	0.707750
23.983333	1	0.742375
24.000000	1	0.779000
24.016667	1	0.818375
24.033333	1	0.859625
24.050000	1	0.901500
24.066667	1	0.944875
24.083333	1	0.988625
24.100000	1	1.032250
24.116667	1	1.075375
24.133333	1	1.118125
24.150000	1	1.159875
24.166667	1	1.200750
24.183333	1	1.239000
24.200000	1	1.276125
24.216667	1	1.311125
24.233333	1	1.343500
24.250000	1	1.374000
24.266667	1	1.402250
24.283333	1	1.428500
24.300000	1	1.452250
24.316667	1	1.473625
24.333333	1	1.492250
24.350000	1	1.507750
24.366667	1	1.520375
24.383333	1	1.529375
24.400000	1	1.535375
24.416667	1	1.538375
24.433333	1	1.538125
24.450000	1	1.533750
24.466667	1	1.525125
24.483333	1	1.514375
24.500000	1	1.500000
24.516667	1	1.483250
24.533333	1	1.462625
24.550000	1	1.439500
24.566667	1	1.413500
24.583333	1	1.385125
24.600000	1	1.355000
24.616667	1	1.324125
24.633333	1	1.292250
24.650000	1	1.259250
24.666667	1	1.225875
24.683333	1	1.193125
24.700000	1	1.161500
24.716667	1	1.130375
24.733333	1	1.101000
24.750000	1	1.072625
24.766667	1	1.045500
24.783333	1	1.020375
24.800000	1	0.997250
24.816667	1	0.975125
24.833333	1	0.955000
24.850000	1	0.936875
24.866667	1	0.920375
24.883333	1	0.906125
24.900000	1	0.893125
24.916667	1	0.881250
24.933333	1	0.871125
24.950000	1	0.861500
24.966667	1	0.852625
24.983333	1	0.845625
25.000000	1	0.839125
25.016667	1	0.831750
25.033333	1	0.825125
25.050000	1	0.819000
25.066667	1	0.813000
25.083333	1	0.806500
25.100000	1	0.799500
25.116667	1	0.792125
25.133333	1	0.784750
25.150000	1	0.777000
25.166667	1	0.768125
25.183333	1	0.758750
25.200000	1	0.748500
25.216667	1	0.736875
25.233333	1	0.724750
25.250000	1	0.712125
25.266667	1	0.698875
25.283333	1	0.684500
25.300000	1	0.669125
25.316667	1	0.653375
25.333333	1	0.637875
25.350000	1	0.621250
25.366667	1	0.605000
25.383333	1	0.588125
25.400000	1	0.571625
25.416667	1	0.555375
25.433333	1	0.538750
25.450000	1	0.522500
25.466667	1	0.506750
25.483333	1	0.491500
25.500000	1	0.476750
25.516667	1	0.462750
25.533333	1	0.448875
25.550000	1	0.436000
25.566667	1	0.423875
25.583333	1	0.412375
25.600000	1	0.402375
25.616667	1	0.392750
25.633333	1	0.384125
25.650000	1	0.376375
25.666667	1	0.369000
25.683333	1	0.362375
25.700000	1	0.357250
25.716667	1	0.352500
25.733333	1	0.348375
25.750000	1	0.344875
25.766667	1	0.341875
25.783333	1	0.338875
25.800000	1	0.337375
25.816667	1	0.336250
25.833333	1	0.335125
25.850000	1	0.334625
25.866667	1	0.334250
25.883333	1	0.335000
25.900000	1	0.335500
25.916667	1	0.336250
25.933333	1	0.337500
25.950000	1	0.339625
25.966667	1	0.340875
25.983333	1	0.343375
26.000000	1	0.346250
26.016667	1	0.348625
26.033333	1	0.351625
26.050000	1	0.354125
26.066667	1	0.356750
26.083333	1	0.359250
26.100000	1	0.362000
26.116667	1	0.364375
26.133333	1	0.367125
26.150000	1	0.369500
26.166667	1	0.371750
26.183333	1	0.374000
26.200000	1	0.376500
26.216667	1	0.379500
26.233333	1	0.382250
26.250000	1	0.384375
26.266667	1	0.387000
26.283333	1	0.389500
26.300000	1	0.392500
26.316667	1	0.394500
26.333333	1	0.396750
26.350000	1	0.399500
26.366667	1	0.402250
26.383333	1	0.405500
26.400000	1	0.408375
26.416667	1	0.411500
26.433333	1	0.414875
26.450000	1	0.418625
26.466667	1	0.422250
26.483333	1	0.426375
26.500000	1	0.430750
26.516667	1	0.434500
26.533333	1	0.438500
26.550000	1	0.443125
26.566667	1	0.447750
26.583333	1	0.452750
26.600000	1	0.457500
26.616667	1	0.462000
26.633333	1	0.466750
26.650000	1	0.471875
26.666667	1	0.477125
26.683333	1	0.481625
26.700000	1	0.485625
26.716667	1	0.490000
26.733333	1	0.494000
26.750000	1	0.497250
26.766667	1	0.501125
26.783333	1	0.504875
26.800000	1	0.507375
26.816667	1	0.510125
26.833333	1	0.513000
26.850000	1	0.514375
26.866667	1	0.515875
26.883333	1	0.516625
26.900000	1	0.517625
26.916667	1	0.517750
26.933333	1	0.517250
26.950000	1	0.517375
26.966667	1	0.517125
26.983333	1	0.515625
27.000000	1	0.514000
27.016667	1	0.511750
27.033333	1	0.509000
27.050000	1	0.506625
27.066667	1	0.504250
27.083333	1	0.501750
27.100000	1	0.498375
27.116667	1	0.495625
27.133333	1	0.492000
27.150000	1	0.488250
27.166667	1	0.484250
27.183333	1	0.480000
27.200000	1	0.475375
27.216667	1	0.469750
27.233333	1	0.463750
27.250000	1	0.457875
27.266667	1	0.451750
27.283333	1	0.445000
27.300000	1	0.438250
27.316667	1	0.432125
27.333333	1	0.425250
27.350000	1	0.418250
27.366667	1	0.411000
27.383333	1	0.402875
27.400000	1	0.394875
27.416667	1	0.386750
27.433333	1	0.378375
27.450000	1	0.370375
27.466667	1	0.362625
27.483333	1	0.354375
27.500000	1	0.346000
27.516667	1	0.337250
27.533333	1	0.329750
27.550000	1	0.323000
27.566667	1	0.316500
27.583333	1	0.309625
27.600000	1	0.303375
27.616667	1	0.297000
27.633333	1	0.291375
27.650000	1	0.286375
27.666667	1	0.282375
27.683333	1	0.278875
27.700000	1	0.277125
27.716667	1	0.276250
27.733333	1	0.277375
27.750000	1	0.279625
27.766667	1	0.283750
27.783333	1	0.290500
27.800000	1	0.300125
27.816667	1	0.312875
27.833333	1	0.329000
27.850000	1	0.349750
27.866667	1	0.374875
27.883333	1	0.403875
27.900000	1	0.439000
27.916667	1	0.479375
27.933333	1	0.524875
27.950000	1	0.577375
27.966667	1	0.635375
27.983333	1	0.700125
28.000000	1	0.770375
28.016667	1	0.847250
28.033333	1	0.929750
28.050000	1	1.017625
28.066667	1	1.110125
28.083333	1	1.207250
28.100000	1	1.308000
28.116667	1	1.411500
28.133333	1	1.516625
28.150000	1	1.623375
28.166667	1	1.730875
28.183333	1	1.837750
28.200000	1	1.943750
28.216667	1	2.047250
28.233333	1	2.148375
28.250000	1	2.246625
28.266667	1	2.340500
28.283333	1	2.429250
28.300000	1	2.513375
28.316667	1	2.592625
28.333333	1	2.666250
28.350000	1	2.734750
28.366667	1	2.797625
28.383333	1	2.855250
28.400000	1	2.908500
28.416667	1	2.955500
28.433333	1	2.997750
28.450000	1	3.035625
28.466667	1	3.068625
28.483333	1	3.096000
28.500000	1	3.119750
28.516667	1	3.137875
28.533333	1	3.150875
28.550000	1	3.158375
28.566667	1	3.159750
28.583333	1	3.155250
28.600000	1	3.144750
28.616667	1	3.127875
28.633333	1	3.104750
28.650000	1	3.074125
28.666667	1	3.037125
28.683333	1	2.993000
28.700000	1	2.940625
28.716667	1	2.881500
28.733333	1	2.814625
28.750000	1	2.741000
28.766667	1	2.660625
28.783333	1	2.573625
28.800000	1	2.481500
28.816667	1	2.384250
28.833333	1	2.283000
28.850000	1	2.177500
28.866667	1	2.069500
28.883333	1	1.959500
28.900000	1	1.848750
28.916667	1	1.737625
28.933333	1	1.626750
28.950000	1	1.517625
28.966667	1	1.410625
28.983333	1	1.306000
29.000000	1	1.205375
29.016667	1	1.107500
29.033333	1	1.014000
29.050000	1	0.925000
29.066667	1	0.840750
29.083333	1	0.762125
29.100000	1	0.688000
29.116667	1	0.617875
29.133333	1	0.553750
29.150000	1	0.494875
29.166667	1	0.441125
29.183333	1	0.391000
29.200000	1	0.345375
29.216667	1	0.303750
29.233333	1	0.266875
29.250000	1	0.234000
29.266667	1	0.203875
29.283333	1	0.177500
29.300000	1	0.153125
29.316667	1	0.132000
29.333333	1	0.112500
29.350000	1	0.095875
29.366667	1	0.082000
29.383333	1	0.069750
29.400000	1	0.059625
29.416667	1	0.051375
29.433333	1	0.044500
29.450000	1	0.038500
29.466667	1	0.034500
29.483333	1	0.032250
29.500000	1	0.031125
29.516667	1	0.031125
29.533333	1	0.032500
29.550000	1	0.034500
29.566667	1	0.037875
29.583333	1	0.042375
29.600000	1	0.048000
29.616667	1	0.053875
29.633333	1	0.060750
29.650000	1	0.069375
29.666667	1	0.078500
29.683333	1	0.088500
29.700000	1	0.100000
29.716667	1	0.110250
29.733333	1	0.121750
29.750000	1	0.135000
29.766667	1	0.148250
29.783333	1	0.161250
29.800000	1	0.174625
29.816667	1	0.188375
29.833333	1	0.202375
29.850000	1	0.216875
29.866667	1	0.231875
29.883333	1	0.247250
29.900000	1	0.261375
29.916667	1	0.275625
29.933333	1	0.288875
29.950000	1	0.302750
29.966667	1	0.316250
29.983333	1	0.328750
30.000000	1	0.340500
30.016667	1	0.352750
30.033333	1	0.365000
30.050000	1	0.376000
30.066667	1	0.386000
30.083333	1	0.395875
30.100000	1	0.404125
30.116667	1	0.412750
30.133333	1	0.421000
30.150000	1	0.427875
30.166667	1	0.434250
30.183333	1	0.440000
30.200000	1	0.445750
30.216667	1	0.450875
30.233333	1	0.455375
30.250000	1	0.460000
30.266667	1	0.463750
30.283333	1	0.467875
30.300000	1	0.471375
30.316667	1	0.473875
30.333333	1	0.476000
30.350000	1	0.477500
30.366667	1	0.479500
30.383333	1	0.480125
30.400000	1	0.480875
30.416667	1	0.481125
30.433333	1	0.480625
30.450000	1	0.479375
30.466667	1	0.478500
30.483333	1	0.477625
30.500000	1	0.476250
30.516667	1	0.475000
30.533333	1	0.473375
30.550000	1	0.470750
30.566667	1	0.468500
30.583333	1	0.465875
30.600000	1	0.463125
30.616667	1	0.459750
30.633333	1	0.456500
30.650000	1	0.452875
30.666667	1	0.449125
30.683333	1	0.447000
30.700000	1	0.442875
30.716667	1	0.439000
30.733333	1	0.435625
30.750000	1	0.433250
30.766667	1	0.429625
30.783333	1	0.427000
30.800000	1	0.424750
30.816667	1	0.423500
30.833333	1	0.422250
30.850000	1	0.421000
30.866667	1	0.419750
30.883333	1	0.419500
30.900000	1	0.420000
30.916667	1	0.420375
30.933333	1	0.420750
30.950000	1	0.421750
30.966667	1	0.423250
30.983333	1	0.425625
31.000000	1	0.428250
31.016667	1	0.430875
31.033333	1	0.433750
31.050000	1	0.437000
31.066667	1	0.440375
31.083333	1	0.443750
31.100000	1	0.446875
31.116667	1	0.451000
31.133333	1	0.454375
31.150000	1	0.457875
31.166667	1	0.461250
31.183333	1	0.465250
31.200000	1	0.468625
31.216667	1	0.472875
31.233333	1	0.476250
31.250000	1	0.479000
31.266667	1	0.482125
31.283333	1	0.485375
31.300000	1	0.488375
31.316667	1	0.491250
31.333333	1	0.493750
31.350000	1	0.496125
31.366667	1	0.498625
31.383333	1	0.500500
31.400000	1	0.502875
31.416667	1	0.505125
31.433333	1	0.507000
31.450000	1	0.508250
31.466667	1	0.509375
31.483333	1	0.510000
31.500000	1	0.510750
31.516667	1	0.511500
31.533333	1	0.511750
31.550000	1	0.510625
31.566667	1	0.510000
31.583333	1	0.509125
31.600000	1	0.508125
31.616667	1	0.506375
31.633333	1	0.504625
31.650000	1	0.502250
31.666667	1	0.499250
31.683333	1	0.495875
31.700000	1	0.493250
31.716667	1	0.489250
31.733333	1	0.485250
31.750000	1	0.481750
31.766667	1	0.477875
31.783333	1	0.474000
31.800000	1	0.469750
31.816667	1	0.465500
31.833333	1	0.461875
31.850000	1	0.458000
31.866667	1	0.454375
31.883333	1	0.450125
31.900000	1	0.446750
31.916667	1	0.443250
31.933333	1	0.441000
31.950000	1	0.438875
31.966667	1	0.437000
31.983333	1	0.435500
32.000000	1	0.434250
32.016667	1	0.433625
32.033333	1	0.433000
32.050000	1	0.433750
32.066667	1	0.435125
32.083333	1	0.436875
32.100000	1	0.439750
32.116667	1	0.443000
32.133333	1	0.447125
32.150000	1	0.451250
32.166667	1	0.456125
32.183333	1	0.461000
32.200000	1	0.466250
32.216667	1	0.472500
32.233333	1	0.479250
32.250000	1	0.486375
32.266667	1	0.493000
32.283333	1	0.500625
32.300000	1	0.508750
32.316667	1	0.516500
32.333333	1	0.524625
32.350000	1	0.533000
32.366667	1	0.541500
32.383333	1	0.548875
32.400000	1	0.556375
32.416667	1	0.563500
32.433333	1	0.571250
32.450000	1	0.578250
32.466667	1	0.585375
32.483333	1	0.591500
32.500000	1	0.597875
32.516667	1	0.603875
32.533333	1	0.608875
32.550000	1	0.614250
32.566667	1	0.619125
32.583333	1	0.623625
32.600000	1	0.627500
32.616667	1	0.631250
32.633333	1	0.633750
32.650000	1	0.635375
32.666667	1	0.637750
32.683333	1	0.638500
32.700000	1	0.638750
32.716667	1	0.638500
32.733333	1	0.637750
32.750000	1	0.635750
32.766667	1	0.633750
32.783333	1	0.630875
32.800000	1	0.628000
32.816667	1	0.624375
32.833333	1	0.620500
32.850000	1	0.615625
32.866667	1	0.609875
32.883333	1	0.603875
32.900000	1	0.596750
32.916667	1	0.589500
32.933333	1	0.581750
32.950000	1	0.573000
32.966667	1	0.563875
32.983333	1	0.554750
33.000000	1	0.544875
33.016667	1	0.534250
33.033333	1	0.523250
33.050000	1	0.511750
33.066667	1	0.500125
33.083333	1	0.487750
33.100000	1	0.474750
33.116667	1	0.461875
33.133333	1	0.449000
33.150000	1	0.435500
33.166667	1	0.422000
33.183333	1	0.408500
33.200000	1	0.394625
33.216667	1	0.381125
33.233333	1	0.367500
33.250000	1	0.352625
33.266667	1	0.338875
33.283333	1	0.324125
33.300000	1	0.310375
33.316667	1	0.296375
33.333333	1	0.282625
33.350000	1	0.268875
33.366667	1	0.256250
33.383333	1	0.243750
33.400000	1	0.230875
33.416667	1	0.218250
33.433333	1	0.205750
33.450000	1	0.194125
33.466667	1	0.182250
33.483333	1	0.170875
33.500000	1	0.160000
33.516667	1	0.150500
33.533333	1	0.140875
33.550000	1	0.131625
33.566667	1	0.123375
33.583333	1	0.115375
33.600000	1	0.107500
33.616667	1	0.100250
33.633333	1	0.093250
33.650000	1	0.086250
33.666667	1	0.080375
33.683333	1	0.075250
33.700000	1	0.070125
33.716667	1	0.065500
33.733333	1	0.060625
33.750000	1	0.057000
33.766667	1	0.053125
33.783333	1	0.049500
33.800000	1	0.047250
33.816667	1	0.044125
33.833333	1	0.041125
33.850000	1	0.039125
33.866667	1	0.036750
33.883333	1	0.034750
33.900000	1	0.033125
33.916667	1	0.031375
33.933333	1	0.029625
33.950000	1	0.029250
33.966667	1	0.028000
33.983333	1	0.026625
34.000000	1	0.025875
34.016667	1	0.025625
34.033333	1	0.025750
34.050000	1	0.025875
34.066667	1	0.026375
34.083333	1	0.027750
34.100000	1	0.029000
34.116667	1	0.030750
34.133333	1	0.032875
34.150000	1	0.036000
34.166667	1	0.040125
34.183333	1	0.043750
34.200000	1	0.049000
34.216667	1	0.054875
34.233333	1	0.061625
34.250000	1	0.069625
34.266667	1	0.078625
34.283333	1	0.087625
34.300000	1	0.097500
34.316667	1	0.110000
34.333333	1	0.122375
34.350000	1	0.136250
34.366667	1	0.151500
34.383333	1	0.167375
34.400000	1	0.184125
34.416667	1	0.202250
34.433333	1	0.221750
34.450000	1	0.240875
34.466667	1	0.261375
34.483333	1	0.282125
34.500000	1	0.303250
34.516667	1	0.325500
34.533333	1	0.347500
34.550000	1	0.369750
34.566667	1	0.392250
34.583333	1	0.414750
34.600000	1	0.437125
34.616667	1	0.459625
34.633333	1	0.480625
34.650000	1	0.501500
34.666667	1	0.522375
34.683333	1	0.541750
34.700000	1	0.561875
34.716667	1	0.580250
34.733333	1	0.597875
34.750000	1	0.614625
34.766667	1	0.631250
34.783333	1	0.645875
34.800000	1	0.660125
34.816667	1	0.673750
34.833333	1	0.686125
34.850000	1	0.697625
34.866667	1	0.709000
34.883333	1	0.718750
34.900000	1	0.727750
34.916667	1	0.736250
34.933333	1	0.743250
34.950000	1	0.749625
34.966667	1	0.754500
34.983333	1	0.758750
35.000000	1	0.761750
35.016667	1	0.763375
35.033333	1	0.764375
35.050000	1	0.764750
35.066667	1	0.763250
35.083333	1	0.760125
35.100000	1	0.756000
35.116667	1	0.750250
35.133333	1	0.743750
35.150000	1	0.735750
35.166667	1	0.726125
35.183333	1	0.715750
35.200000	1	0.703250
35.216667	1	0.690125
35.233333	1	0.674750
35.250000	1	0.658375
35.266667	1	0.641125
35.283333	1	0.623250
35.300000	1	0.604500
35.316667	1	0.584875
35.333333	1	0.564625
35.350000	1	0.543625
35.366667	1	0.522750
35.383333	1	0.501125
35.400000	1	0.478750
35.416667	1	0.457125
35.433333	1	0.434875
35.450000	1	0.413125
35.466667	1	0.391625
35.483333	1	0.370375
35.500000	1	0.349500
35.516667	1	0.329625
35.533333	1	0.310625
35.550000	1	0.292250
35.566667	1	0.274250
35.583333	1	0.257125
35.600000	1	0.240000
35.616667	1	0.224625
35.633333	1	0.210250
35.650000	1	0.196750
35.666667	1	0.184500
35.683333	1	0.172875
35.700000	1	0.162125
35.716667	1	0.152125
35.733333	1	0.142375
35.750000	1	0.134000
35.766667	1	0.127000
35.783333	1	0.120500
35.800000	1	0.114000
35.816667	1	0.108625
35.833333	1	0.104000
35.850000	1	0.099375
35.866667	1	0.095875
35.883333	1	0.092750
35.900000	1	0.090125
35.916667	1	0.088000
35.933333	1	0.086625
35.950000	1	0.085250
35.966667	1	0.084625
35.983333	1	0.083875
36.000000	1	0.083625
36.016667	1	0.083625
36.033333	1	0.083875
36.050000	1	0.084375
36.066667	1	0.085125
36.083333	1	0.086250
36.100000	1	0.086875
36.116667	1	0.088500
36.133333	1	0.090125
36.150000	1	0.092500
36.166667	1	0.094500
36.183333	1	0.097375
36.200000	1	0.099375
36.216667	1	0.101625
36.233333	1	0.104000
36.250000	1	0.106500
36.266667	1	0.109875
36.283333	1	0.112750
36.300000	1	0.116000
36.316667	1	0.118875
36.333333	1	0.122500
36.350000	1	0.126000
36.366667	1	0.130000
36.383333	1	0.133875
36.400000	1	0.138000
36.416667	1	0.142250
36.433333	1	0.145375
36.450000	1	0.148875
36.466667	1	0.152875
36.483333	1	0.156875
36.500000	1	0.160500
36.516667	1	0.163875
36.533333	1	0.167500
36.550000	1	0.171375
36.566667	1	0.175125
36.583333	1	0.178250
36.600000	1	0.181250
36.616667	1	0.184375
36.633333	1	0.187750
36.650000	1	0.191125
36.666667	1	0.194750
36.683333	1	0.197875
36.700000	1	0.201125
36.716667	1	0.204375
36.733333	1	0.206625
36.750000	1	0.209500
36.766667	1	0.212500
36.783333	1	0.214625
36.800000	1	0.216875
36.816667	1	0.219125
36.833333	1	0.222125
36.850000	1	0.224750
36.866667	1	0.226625
36.883333	1	0.228875
36.900000	1	0.231500
36.916667	1	0.234000
36.933333	1	0.236250
36.950000	1	0.238125
36.966667	1	0.240000
36.983333	1	0.242125
37.000000	1	0.243750
37.016667	1	0.245000
37.033333	1	0.246000
37.050000	1	0.246375
37.066667	1	0.247125
37.083333	1	0.247875
37.100000	1	0.248375
37.116667	1	0.248125
37.133333	1	0.248125
37.150000	1	0.248250
37.166667	1	0.247625
37.183333	1	0.246250
37.200000	1	0.244500
37.216667	1	0.243125
37.233333	1	0.240375
37.250000	1	0.238500
37.266667	1	0.235500
37.283333	1	0.232625
37.300000	1	0.229500
37.316667	1	0.226000
37.333333	1	0.222500
37.350000	1	0.219125
37.366667	1	0.214625
37.383333	1	0.210375
37.400000	1	0.206500
37.416667	1	0.201500
37.433333	1	0.196750
37.450000	1	0.191625
37.466667	1	0.186500
37.483333	1	0.181250
37.500000	1	0.176000
37.516667	1	0.170875
37.533333	1	0.165875
37.550000	1	0.160375
37.566667	1	0.155125
37.583333	1	0.149250
37.600000	1	0.143500
37.616667	1	0.137375
37.633333	1	0.131500
37.650000	1	0.126250
37.666667	1	0.120625
37.683333	1	0.114750
37.700000	1	0.108875
37.716667	1	0.102750
37.733333	1	0.097000
37.750000	1	0.091250
37.766667	1	0.085375
37.783333	1	0.079750
37.800000	1	0.073875
37.816667	1	0.068125
37.833333	1	0.062250
37.850000	1	0.057250
37.866667	1	0.052375
37.883333	1	0.047000
37.900000	1	0.041500
37.916667	1	0.037000
37.933333	1	0.031500
37.950000	1	0.027000
37.966667	1	0.022375
37.983333	1	0.017500
38.000000	1	0.012875
38.016667	1	0.008500
38.033333	1	0.004375
38.050000	1	0.000500
38.066667	1	-0.003375
38.083333	1	-0.006875
38.100000	1	-0.010875
38.116667	1	-0.014250
38.133333	1	-0.017000
38.150000	1	-0.020000
38.166667	1	-0.023000
38.183333	1	-0.025625
38.200000	1	-0.028250
38.216667	1	-0.030750
38.233333	1	-0.033250
38.250000	1	-0.035125
38.266667	1	-0.037125
38.283333	1	-0.039250
38.300000	1	-0.040625
38.316667	1	-0.042125
38.333333	1	-0.042750
38.350000	1	-0.043750
38.366667	1	-0.044875
38.383333	1	-0.045750
38.400000	1	-0.047000
38.416667	1	-0.046625
38.433333	1	-0.048250
38.450000	1	-0.049500
38.466667	1	-0.050250
38.483333	1	-0.050750
38.500000	1	-0.051250
38.516667	1	-0.050750
38.533333	1	-0.051250
38.550000	1	-0.051750
38.566667	1	-0.052375
38.583333	1	-0.052250
38.600000	1	-0.052750
38.616667	1	-0.052375
38.633333	1	-0.053125
38.650000	1	-0.053375
38.666667	1	-0.053375
38.683333	1	-0.053625
38.700000	1	-0.053250
38.716667	1	-0.053250
38.733333	1	-0.052750
38.750000	1	-0.052500
38.766667	1	-0.052250
38.783333	1	-0.052375
38.800000	1	-0.051500
38.816667	1	-0.051750
38.833333	1	-0.050375
38.850000	1	-0.050250
38.866667	1	-0.049875
38.883333	1	-0.049125
38.900000	1	-0.048875
38.916667	1	-0.048625
38.933333	1	-0.048500
38.950000	1	-0.048625
38.966667	1	-0.048750
38.983333	1	-0.048500
39.000000	1	-0.048875
39.016667	1	-0.048875
39.033333	1	-0.047500
39.050000	1	-0.047250
39.066667	1	-0.046375
39.083333	1	-0.045750
39.100000	1	-0.045000
39.116667	1	-0.044375
39.133333	1	-0.043875
39.150000	1	-0.043375
39.166667	1	-0.042875
39.183333	1	-0.042375
39.200000	1	-0.042250
39.216667	1	-0.041625
39.233333	1	-0.040500
39.250000	1	-0.039125
39.266667	1	-0.037875
39.283333	1	-0.037250
39.300000	1	-0.036750
39.316667	1	-0.035750
39.333333	1	-0.035125
39.350000	1	-0.034500
39.366667	1	-0.033875
39.383333	1	-0.032875
39.400000	1	-0.032250
39.416667	1	-0.030875
39.433333	1	-0.030375
39.450000	1	-0.030125
39.466667	1	-0.028500
39.483333	1	-0.027625
39.500000	1	-0.026500
39.516667	1	-0.024875
39.533333	1	-0.023750
39.550000	1	-0.024125
39.566667	1	-0.023875
39.583333	1	-0.023250
39.600000	1	-0.022250
39.616667	1	-0.021625
39.633333	1	-0.021000
39.650000	1	-0.020000
39.666667	1	-0.019125
39.683333	1	-0.018250
39.700000	1	-0.017375
39.716667	1	-0.017250
39.733333	1	-0.016375
39.750000	1	-0.016000
39.766667	1	-0.015375
39.783333	1	-0.014875
39.800000	1	-0.014250
39.816667	1	-0.013500
39.833333	1	-0.012750
39.850000	1	-0.012000
39.866667	1	-0.011250
39.883333	1	-0.010875
39.900000	1	-0.010375
39.916667	1	-0.009750
39.933333	1	-0.009625
39.950000	1	-0.008500
39.966667	1	-0.007500
39.983333	1	-0.006250
40.000000	1	-0.005750
