File Path	chrom://marshall/Chromeleon7/HPLC_Ultimate_3000/Users/markusar/20230113.seq/829.smp/RI_1.channel/RI_1.chm
Channel	RI_1

Injection Information:
Data Vault	Chromeleon7
Injection	er3.3
Injection Number	5
Position	GA5
Comment	
Processing Method	
Instrument Method	std_method
Type	Unknown
Status	Finished
Injection Date	13.01.2023
Injection Time	18:19:11
Injection Volume (µl)	20.000
Dilution Factor	1.0000
Weight	1.0000

Chromatogram Data Information:
Time Min. (min)	0.000000
Time Max. (min)	40.000000
Data Points	2401
Detector	RI
Generating Data System	Chromeleon 7.2.5.9507
Exporting Data System	Chromeleon 7.2.5.0
Operator	Instrument Controller
Signal Quantity	Refractive 
Signal Unit	µRIU
Signal Min.	-0.116125
Signal Max.	123.883750
Channel	RI_1
Driver Name	RID520Driver.dll
Channel Type	Evaluation
Min. Step (s)	1
Max. Step (s)	1
Average Step (s)	1

Signal Parameter Information:
Signal Info	

Chromatogram Data:
Time (min)	Step (s)	Value (µRIU)
0.000000	n.a.	0.109000
0.016667	1	0.112000
0.033333	1	0.114500
0.050000	1	0.117125
0.066667	1	0.119250
0.083333	1	0.121625
0.100000	1	0.123500
0.116667	1	0.125375
0.133333	1	0.127125
0.150000	1	0.128875
0.166667	1	0.130875
0.183333	1	0.132250
0.200000	1	0.134500
0.216667	1	0.136000
0.233333	1	0.137000
0.250000	1	0.138000
0.266667	1	0.139250
0.283333	1	0.139875
0.300000	1	0.140625
0.316667	1	0.140875
0.333333	1	0.141500
0.350000	1	0.142000
0.366667	1	0.142625
0.383333	1	0.142875
0.400000	1	0.143000
0.416667	1	0.143000
0.433333	1	0.143250
0.450000	1	0.143250
0.466667	1	0.143625
0.483333	1	0.143375
0.500000	1	0.142375
0.516667	1	0.142125
0.533333	1	0.141125
0.550000	1	0.140125
0.566667	1	0.139250
0.583333	1	0.138875
0.600000	1	0.137875
0.616667	1	0.136875
0.633333	1	0.135250
0.650000	1	0.133625
0.666667	1	0.132750
0.683333	1	0.130875
0.700000	1	0.130125
0.716667	1	0.129500
0.733333	1	0.128375
0.750000	1	0.127125
0.766667	1	0.126375
0.783333	1	0.126000
0.800000	1	0.125625
0.816667	1	0.125125
0.833333	1	0.124250
0.850000	1	0.122875
0.866667	1	0.121000
0.883333	1	0.119125
0.900000	1	0.117000
0.916667	1	0.114500
0.933333	1	0.111500
0.950000	1	0.109000
0.966667	1	0.106125
0.983333	1	0.104125
1.000000	1	0.102125
1.016667	1	0.099125
1.033333	1	0.096500
1.050000	1	0.094000
1.066667	1	0.092125
1.083333	1	0.090250
1.100000	1	0.088375
1.116667	1	0.085625
1.133333	1	0.084000
1.150000	1	0.082250
1.166667	1	0.080125
1.183333	1	0.078625
1.200000	1	0.076500
1.216667	1	0.075500
1.233333	1	0.074750
1.250000	1	0.073625
1.266667	1	0.071875
1.283333	1	0.070375
1.300000	1	0.068375
1.316667	1	0.067750
1.333333	1	0.067000
1.350000	1	0.065375
1.366667	1	0.063750
1.383333	1	0.062375
1.400000	1	0.060875
1.416667	1	0.059625
1.433333	1	0.058750
1.450000	1	0.057500
1.466667	1	0.056375
1.483333	1	0.054875
1.500000	1	0.054250
1.516667	1	0.052375
1.533333	1	0.051250
1.550000	1	0.050875
1.566667	1	0.050000
1.583333	1	0.048750
1.600000	1	0.047750
1.616667	1	0.046250
1.633333	1	0.045250
1.650000	1	0.044000
1.666667	1	0.043000
1.683333	1	0.042125
1.700000	1	0.041000
1.716667	1	0.040125
1.733333	1	0.039250
1.750000	1	0.037375
1.766667	1	0.036125
1.783333	1	0.034750
1.800000	1	0.033125
1.816667	1	0.031750
1.833333	1	0.030125
1.850000	1	0.028375
1.866667	1	0.026750
1.883333	1	0.025125
1.900000	1	0.023000
1.916667	1	0.021250
1.933333	1	0.018750
1.950000	1	0.016125
1.966667	1	0.014000
1.983333	1	0.011875
2.000000	1	0.008625
2.016667	1	0.006125
2.033333	1	0.003625
2.050000	1	0.001250
2.066667	1	-0.000625
2.083333	1	-0.003000
2.100000	1	-0.005000
2.116667	1	-0.007750
2.133333	1	-0.010625
2.150000	1	-0.012875
2.166667	1	-0.015500
2.183333	1	-0.018125
2.200000	1	-0.021125
2.216667	1	-0.023250
2.233333	1	-0.026000
2.250000	1	-0.029500
2.266667	1	-0.031750
2.283333	1	-0.034125
2.300000	1	-0.036375
2.316667	1	-0.039625
2.333333	1	-0.042375
2.350000	1	-0.045125
2.366667	1	-0.047250
2.383333	1	-0.049625
2.400000	1	-0.052250
2.416667	1	-0.054750
2.433333	1	-0.056500
2.450000	1	-0.059625
2.466667	1	-0.062000
2.483333	1	-0.064375
2.500000	1	-0.067000
2.516667	1	-0.069125
2.533333	1	-0.071500
2.550000	1	-0.073375
2.566667	1	-0.075625
2.583333	1	-0.077875
2.600000	1	-0.080125
2.616667	1	-0.082250
2.633333	1	-0.084375
2.650000	1	-0.086375
2.666667	1	-0.088375
2.683333	1	-0.089500
2.700000	1	-0.092125
2.716667	1	-0.093500
2.733333	1	-0.095125
2.750000	1	-0.096625
2.766667	1	-0.098625
2.783333	1	-0.099875
2.800000	1	-0.101625
2.816667	1	-0.102500
2.833333	1	-0.103750
2.850000	1	-0.105000
2.866667	1	-0.106375
2.883333	1	-0.107125
2.900000	1	-0.107875
2.916667	1	-0.108625
2.933333	1	-0.109375
2.950000	1	-0.109750
2.966667	1	-0.110000
2.983333	1	-0.110625
3.000000	1	-0.111000
3.016667	1	-0.111250
3.033333	1	-0.110625
3.050000	1	-0.109375
3.066667	1	-0.109250
3.083333	1	-0.108375
3.100000	1	-0.107125
3.116667	1	-0.106125
3.133333	1	-0.105625
3.150000	1	-0.104375
3.166667	1	-0.103500
3.183333	1	-0.102375
3.200000	1	-0.100875
3.216667	1	-0.099125
3.233333	1	-0.097875
3.250000	1	-0.096875
3.266667	1	-0.096500
3.283333	1	-0.094375
3.300000	1	-0.092875
3.316667	1	-0.091000
3.333333	1	-0.088750
3.350000	1	-0.087250
3.366667	1	-0.086500
3.383333	1	-0.085000
3.400000	1	-0.083250
3.416667	1	-0.081875
3.433333	1	-0.079625
3.450000	1	-0.077875
3.466667	1	-0.076375
3.483333	1	-0.075000
3.500000	1	-0.073375
3.516667	1	-0.071375
3.533333	1	-0.069375
3.550000	1	-0.067625
3.566667	1	-0.066000
3.583333	1	-0.063625
3.600000	1	-0.062000
3.616667	1	-0.060375
3.633333	1	-0.058250
3.650000	1	-0.056875
3.666667	1	-0.055125
3.683333	1	-0.053750
3.700000	1	-0.051875
3.716667	1	-0.050125
3.733333	1	-0.048625
3.750000	1	-0.046875
3.766667	1	-0.044875
3.783333	1	-0.042625
3.800000	1	-0.040625
3.816667	1	-0.039125
3.833333	1	-0.037625
3.850000	1	-0.035375
3.866667	1	-0.033375
3.883333	1	-0.031750
3.900000	1	-0.029875
3.916667	1	-0.028125
3.933333	1	-0.026500
3.950000	1	-0.025000
3.966667	1	-0.023500
3.983333	1	-0.022125
4.000000	1	-0.021125
4.016667	1	-0.019875
4.033333	1	-0.018125
4.050000	1	-0.016875
4.066667	1	-0.016125
4.083333	1	-0.014750
4.100000	1	-0.014250
4.116667	1	-0.012375
4.133333	1	-0.011625
4.150000	1	-0.010625
4.166667	1	-0.010250
4.183333	1	-0.009000
4.200000	1	-0.008000
4.216667	1	-0.007125
4.233333	1	-0.006500
4.250000	1	-0.004875
4.266667	1	-0.003750
4.283333	1	-0.002625
4.300000	1	-0.001125
4.316667	1	0.000000
4.333333	1	0.001000
4.350000	1	0.001125
4.366667	1	0.001625
4.383333	1	0.002625
4.400000	1	0.003125
4.416667	1	0.003375
4.433333	1	0.004250
4.450000	1	0.004625
4.466667	1	0.005250
4.483333	1	0.006250
4.500000	1	0.007625
4.516667	1	0.008125
4.533333	1	0.008625
4.550000	1	0.008625
4.566667	1	0.008500
4.583333	1	0.008375
4.600000	1	0.008875
4.616667	1	0.009250
4.633333	1	0.009500
4.650000	1	0.009750
4.666667	1	0.009625
4.683333	1	0.009625
4.700000	1	0.009625
4.716667	1	0.009375
4.733333	1	0.008875
4.750000	1	0.008125
4.766667	1	0.008000
4.783333	1	0.008250
4.800000	1	0.007375
4.816667	1	0.007125
4.833333	1	0.007375
4.850000	1	0.007125
4.866667	1	0.006750
4.883333	1	0.006250
4.900000	1	0.006000
4.916667	1	0.005750
4.933333	1	0.005125
4.950000	1	0.004500
4.966667	1	0.004125
4.983333	1	0.003000
5.000000	1	0.002875
5.016667	1	0.002250
5.033333	1	0.001250
5.050000	1	0.000000
5.066667	1	-0.000125
5.083333	1	-0.000500
5.100000	1	-0.000750
5.116667	1	-0.001750
5.133333	1	-0.002375
5.150000	1	-0.003250
5.166667	1	-0.003875
5.183333	1	-0.005750
5.200000	1	-0.006625
5.216667	1	-0.007750
5.233333	1	-0.008625
5.250000	1	-0.009625
5.266667	1	-0.010875
5.283333	1	-0.012125
5.300000	1	-0.012750
5.316667	1	-0.014375
5.333333	1	-0.015250
5.350000	1	-0.016625
5.366667	1	-0.018500
5.383333	1	-0.019750
5.400000	1	-0.021250
5.416667	1	-0.023125
5.433333	1	-0.024125
5.450000	1	-0.025125
5.466667	1	-0.026000
5.483333	1	-0.026375
5.500000	1	-0.027875
5.516667	1	-0.029000
5.533333	1	-0.029500
5.550000	1	-0.029875
5.566667	1	-0.031000
5.583333	1	-0.032125
5.600000	1	-0.032625
5.616667	1	-0.033125
5.633333	1	-0.034000
5.650000	1	-0.034750
5.666667	1	-0.035250
5.683333	1	-0.035500
5.700000	1	-0.035500
5.716667	1	-0.035750
5.733333	1	-0.035625
5.750000	1	-0.035750
5.766667	1	-0.035875
5.783333	1	-0.035750
5.800000	1	-0.036000
5.816667	1	-0.035250
5.833333	1	-0.035125
5.850000	1	-0.035375
5.866667	1	-0.035125
5.883333	1	-0.034625
5.900000	1	-0.033625
5.916667	1	-0.033500
5.933333	1	-0.032875
5.950000	1	-0.032125
5.966667	1	-0.031500
5.983333	1	-0.030750
6.000000	1	-0.029875
6.016667	1	-0.029000
6.033333	1	-0.028500
6.050000	1	-0.027500
6.066667	1	-0.026750
6.083333	1	-0.026125
6.100000	1	-0.025375
6.116667	1	-0.024750
6.133333	1	-0.023625
6.150000	1	-0.022750
6.166667	1	-0.023000
6.183333	1	-0.021125
6.200000	1	-0.020500
6.216667	1	-0.019000
6.233333	1	-0.018625
6.250000	1	-0.017625
6.266667	1	-0.017250
6.283333	1	-0.016625
6.300000	1	-0.015625
6.316667	1	-0.015250
6.333333	1	-0.014625
6.350000	1	-0.013750
6.366667	1	-0.012375
6.383333	1	-0.011875
6.400000	1	-0.011875
6.416667	1	-0.011750
6.433333	1	-0.011875
6.450000	1	-0.011000
6.466667	1	-0.010375
6.483333	1	-0.010125
6.500000	1	-0.009750
6.516667	1	-0.009375
6.533333	1	-0.009375
6.550000	1	-0.009625
6.566667	1	-0.008875
6.583333	1	-0.009000
6.600000	1	-0.009625
6.616667	1	-0.009750
6.633333	1	-0.009250
6.650000	1	-0.009875
6.666667	1	-0.009875
6.683333	1	-0.009875
6.700000	1	-0.010250
6.716667	1	-0.010500
6.733333	1	-0.011250
6.750000	1	-0.012750
6.766667	1	-0.013625
6.783333	1	-0.013875
6.800000	1	-0.015000
6.816667	1	-0.016375
6.833333	1	-0.018000
6.850000	1	-0.018750
6.866667	1	-0.019875
6.883333	1	-0.021000
6.900000	1	-0.021875
6.916667	1	-0.022500
6.933333	1	-0.024000
6.950000	1	-0.025500
6.966667	1	-0.026625
6.983333	1	-0.027500
7.000000	1	-0.027625
7.016667	1	-0.028875
7.033333	1	-0.030250
7.050000	1	-0.030500
7.066667	1	-0.031625
7.083333	1	-0.032500
7.100000	1	-0.033500
7.116667	1	-0.033750
7.133333	1	-0.034125
7.150000	1	-0.034375
7.166667	1	-0.034500
7.183333	1	-0.033750
7.200000	1	-0.033875
7.216667	1	-0.034875
7.233333	1	-0.034375
7.250000	1	-0.033625
7.266667	1	-0.033000
7.283333	1	-0.032750
7.300000	1	-0.032625
7.316667	1	-0.031500
7.333333	1	-0.030750
7.350000	1	-0.029875
7.366667	1	-0.029250
7.383333	1	-0.028500
7.400000	1	-0.026875
7.416667	1	-0.025375
7.433333	1	-0.023625
7.450000	1	-0.021875
7.466667	1	-0.020375
7.483333	1	-0.018750
7.500000	1	-0.017000
7.516667	1	-0.015125
7.533333	1	-0.013375
7.550000	1	-0.011500
7.566667	1	-0.009375
7.583333	1	-0.007625
7.600000	1	-0.005875
7.616667	1	-0.003625
7.633333	1	-0.002250
7.650000	1	-0.000625
7.666667	1	0.001000
7.683333	1	0.002875
7.700000	1	0.004250
7.716667	1	0.005625
7.733333	1	0.007000
7.750000	1	0.008875
7.766667	1	0.010375
7.783333	1	0.011000
7.800000	1	0.011500
7.816667	1	0.012625
7.833333	1	0.014000
7.850000	1	0.015000
7.866667	1	0.015375
7.883333	1	0.015750
7.900000	1	0.016875
7.916667	1	0.017625
7.933333	1	0.017875
7.950000	1	0.018500
7.966667	1	0.019500
7.983333	1	0.019875
8.000000	1	0.019875
8.016667	1	0.019250
8.033333	1	0.019750
8.050000	1	0.019625
8.066667	1	0.019750
8.083333	1	0.019125
8.100000	1	0.018250
8.116667	1	0.018375
8.133333	1	0.018000
8.150000	1	0.017125
8.166667	1	0.016375
8.183333	1	0.015000
8.200000	1	0.013625
8.216667	1	0.011875
8.233333	1	0.010000
8.250000	1	0.008375
8.266667	1	0.006875
8.283333	1	0.005250
8.300000	1	0.003250
8.316667	1	0.000625
8.333333	1	-0.001875
8.350000	1	-0.004500
8.366667	1	-0.006750
8.383333	1	-0.009000
8.400000	1	-0.011250
8.416667	1	-0.014500
8.433333	1	-0.016875
8.450000	1	-0.020000
8.466667	1	-0.022625
8.483333	1	-0.024750
8.500000	1	-0.027125
8.516667	1	-0.030000
8.533333	1	-0.032875
8.550000	1	-0.036000
8.566667	1	-0.038500
8.583333	1	-0.040625
8.600000	1	-0.043125
8.616667	1	-0.046375
8.633333	1	-0.049500
8.650000	1	-0.052375
8.666667	1	-0.055000
8.683333	1	-0.057250
8.700000	1	-0.059000
8.716667	1	-0.062000
8.733333	1	-0.065250
8.750000	1	-0.068125
8.766667	1	-0.069375
8.783333	1	-0.072500
8.800000	1	-0.075000
8.816667	1	-0.077250
8.833333	1	-0.079500
8.850000	1	-0.081500
8.866667	1	-0.083875
8.883333	1	-0.085875
8.900000	1	-0.087250
8.916667	1	-0.089750
8.933333	1	-0.092250
8.950000	1	-0.093875
8.966667	1	-0.096125
8.983333	1	-0.097750
9.000000	1	-0.099250
9.016667	1	-0.101250
9.033333	1	-0.102625
9.050000	1	-0.104000
9.066667	1	-0.105500
9.083333	1	-0.107000
9.100000	1	-0.108250
9.116667	1	-0.109375
9.133333	1	-0.110750
9.150000	1	-0.111125
9.166667	1	-0.112000
9.183333	1	-0.112375
9.200000	1	-0.113000
9.216667	1	-0.113875
9.233333	1	-0.114625
9.250000	1	-0.114250
9.266667	1	-0.114500
9.283333	1	-0.115500
9.300000	1	-0.115750
9.316667	1	-0.116125
9.333333	1	-0.115375
9.350000	1	-0.114500
9.366667	1	-0.114000
9.383333	1	-0.113375
9.400000	1	-0.112375
9.416667	1	-0.112500
9.433333	1	-0.111500
9.450000	1	-0.110250
9.466667	1	-0.108625
9.483333	1	-0.107250
9.500000	1	-0.106125
9.516667	1	-0.105125
9.533333	1	-0.103375
9.550000	1	-0.101750
9.566667	1	-0.099875
9.583333	1	-0.097875
9.600000	1	-0.095750
9.616667	1	-0.093000
9.633333	1	-0.090375
9.650000	1	-0.088250
9.666667	1	-0.085375
9.683333	1	-0.082500
9.700000	1	-0.079500
9.716667	1	-0.076125
9.733333	1	-0.072250
9.750000	1	-0.067500
9.766667	1	-0.062250
9.783333	1	-0.057250
9.800000	1	-0.051125
9.816667	1	-0.045250
9.833333	1	-0.038375
9.850000	1	-0.030375
9.866667	1	-0.021500
9.883333	1	-0.011625
9.900000	1	-0.000500
9.916667	1	0.012375
9.933333	1	0.027000
9.950000	1	0.044125
9.966667	1	0.063625
9.983333	1	0.085375
10.000000	1	0.110250
10.016667	1	0.137750
10.033333	1	0.168500
10.050000	1	0.202375
10.066667	1	0.239125
10.083333	1	0.278375
10.100000	1	0.322500
10.116667	1	0.370250
10.133333	1	0.422375
10.150000	1	0.479375
10.166667	1	0.541000
10.183333	1	0.604750
10.200000	1	0.667750
10.216667	1	0.724250
10.233333	1	0.769500
10.250000	1	0.797250
10.266667	1	0.804875
10.283333	1	0.792750
10.300000	1	0.768500
10.316667	1	0.744750
10.333333	1	0.740375
10.350000	1	0.782375
10.366667	1	0.902000
10.383333	1	1.135750
10.400000	1	1.524000
10.416667	1	2.110750
10.433333	1	2.940250
10.450000	1	4.057875
10.466667	1	5.507875
10.483333	1	7.336500
10.500000	1	9.586375
10.516667	1	12.297500
10.533333	1	15.506125
10.550000	1	19.243875
10.566667	1	23.535750
10.583333	1	28.399875
10.600000	1	33.846625
10.616667	1	39.875375
10.633333	1	46.469375
10.650000	1	53.595125
10.666667	1	61.203375
10.683333	1	69.205125
10.700000	1	77.472375
10.716667	1	85.823250
10.733333	1	94.027625
10.750000	1	101.812625
10.766667	1	108.871750
10.783333	1	114.888375
10.800000	1	119.559750
10.816667	1	122.622625
10.833333	1	123.883750
10.850000	1	123.247875
10.866667	1	120.722750
10.883333	1	116.428375
10.900000	1	110.580875
10.916667	1	103.473750
10.933333	1	95.451625
10.950000	1	86.876875
10.966667	1	78.103000
10.983333	1	69.443250
11.000000	1	61.158375
11.016667	1	53.443750
11.033333	1	46.437250
11.050000	1	40.208250
11.066667	1	34.776875
11.083333	1	30.121625
11.100000	1	26.193750
11.116667	1	22.924125
11.133333	1	20.232875
11.150000	1	18.035625
11.166667	1	16.250750
11.183333	1	14.803250
11.200000	1	13.626000
11.216667	1	12.660625
11.233333	1	11.859750
11.250000	1	11.183375
11.266667	1	10.600000
11.283333	1	10.084625
11.300000	1	9.617625
11.316667	1	9.185750
11.333333	1	8.781375
11.350000	1	8.396625
11.366667	1	8.028000
11.383333	1	7.672625
11.400000	1	7.330000
11.416667	1	7.000000
11.433333	1	6.683000
11.450000	1	6.379750
11.466667	1	6.090000
11.483333	1	5.815500
11.500000	1	5.554875
11.516667	1	5.310375
11.533333	1	5.082125
11.550000	1	4.870875
11.566667	1	4.677875
11.583333	1	4.503625
11.600000	1	4.346750
11.616667	1	4.208375
11.633333	1	4.086500
11.650000	1	3.980750
11.666667	1	3.889000
11.683333	1	3.809875
11.700000	1	3.742250
11.716667	1	3.683375
11.733333	1	3.630750
11.750000	1	3.584500
11.766667	1	3.543000
11.783333	1	3.505250
11.800000	1	3.470250
11.816667	1	3.436625
11.833333	1	3.404000
11.850000	1	3.372000
11.866667	1	3.341000
11.883333	1	3.308625
11.900000	1	3.275625
11.916667	1	3.241875
11.933333	1	3.206750
11.950000	1	3.170250
11.966667	1	3.133500
11.983333	1	3.096000
12.000000	1	3.056375
12.016667	1	3.017250
12.033333	1	2.978750
12.050000	1	2.939750
12.066667	1	2.901500
12.083333	1	2.864000
12.100000	1	2.826500
12.116667	1	2.789250
12.133333	1	2.751250
12.150000	1	2.714000
12.166667	1	2.675375
12.183333	1	2.637250
12.200000	1	2.598750
12.216667	1	2.559750
12.233333	1	2.520125
12.250000	1	2.480750
12.266667	1	2.441750
12.283333	1	2.403625
12.300000	1	2.365000
12.316667	1	2.327375
12.333333	1	2.291625
12.350000	1	2.256625
12.366667	1	2.222750
12.383333	1	2.191125
12.400000	1	2.161500
12.416667	1	2.132875
12.433333	1	2.106750
12.450000	1	2.084000
12.466667	1	2.063750
12.483333	1	2.047625
12.500000	1	2.035375
12.516667	1	2.028500
12.533333	1	2.027500
12.550000	1	2.032875
12.566667	1	2.047250
12.583333	1	2.072375
12.600000	1	2.109125
12.616667	1	2.160750
12.633333	1	2.230125
12.650000	1	2.320125
12.666667	1	2.434000
12.683333	1	2.576000
12.700000	1	2.751125
12.716667	1	2.963375
12.733333	1	3.215500
12.750000	1	3.511375
12.766667	1	3.852875
12.783333	1	4.239500
12.800000	1	4.671000
12.816667	1	5.144750
12.833333	1	5.657750
12.850000	1	6.206125
12.866667	1	6.784250
12.883333	1	7.389000
12.900000	1	8.013000
12.916667	1	8.653625
12.933333	1	9.305625
12.950000	1	9.965125
12.966667	1	10.627875
12.983333	1	11.292250
13.000000	1	11.955875
13.016667	1	12.615500
13.033333	1	13.271000
13.050000	1	13.921750
13.066667	1	14.568125
13.083333	1	15.209000
13.100000	1	15.843125
13.116667	1	16.471625
13.133333	1	17.092250
13.150000	1	17.704000
13.166667	1	18.304625
13.183333	1	18.887375
13.200000	1	19.446125
13.216667	1	19.969625
13.233333	1	20.446250
13.250000	1	20.867625
13.266667	1	21.224500
13.283333	1	21.509875
13.300000	1	21.718500
13.316667	1	21.845250
13.333333	1	21.889250
13.350000	1	21.851125
13.366667	1	21.732500
13.383333	1	21.538250
13.400000	1	21.275500
13.416667	1	20.949250
13.433333	1	20.566750
13.450000	1	20.136375
13.466667	1	19.665875
13.483333	1	19.162875
13.500000	1	18.634375
13.516667	1	18.086750
13.533333	1	17.525875
13.550000	1	16.958875
13.566667	1	16.390125
13.583333	1	15.825500
13.600000	1	15.268375
13.616667	1	14.721875
13.633333	1	14.187375
13.650000	1	13.666875
13.666667	1	13.161125
13.683333	1	12.669875
13.700000	1	12.192375
13.716667	1	11.728875
13.733333	1	11.277750
13.750000	1	10.838750
13.766667	1	10.410375
13.783333	1	9.993375
13.800000	1	9.586250
13.816667	1	9.190000
13.833333	1	8.803500
13.850000	1	8.427875
13.866667	1	8.064375
13.883333	1	7.715125
13.900000	1	7.382375
13.916667	1	7.067750
13.933333	1	6.773000
13.950000	1	6.499625
13.966667	1	6.248250
13.983333	1	6.018250
14.000000	1	5.809625
14.016667	1	5.620625
14.033333	1	5.452750
14.050000	1	5.303750
14.066667	1	5.172125
14.083333	1	5.056375
14.100000	1	4.955125
14.116667	1	4.866375
14.133333	1	4.788875
14.150000	1	4.720125
14.166667	1	4.658375
14.183333	1	4.600625
14.200000	1	4.543750
14.216667	1	4.485125
14.233333	1	4.423000
14.250000	1	4.357375
14.266667	1	4.284250
14.283333	1	4.204375
14.300000	1	4.117125
14.316667	1	4.022625
14.333333	1	3.921875
14.350000	1	3.815125
14.366667	1	3.704625
14.383333	1	3.592250
14.400000	1	3.480375
14.416667	1	3.369125
14.433333	1	3.261875
14.450000	1	3.161125
14.466667	1	3.067250
14.483333	1	2.983625
14.500000	1	2.911250
14.516667	1	2.851875
14.533333	1	2.807125
14.550000	1	2.778750
14.566667	1	2.767000
14.583333	1	2.773625
14.600000	1	2.798875
14.616667	1	2.843500
14.633333	1	2.909000
14.650000	1	2.995000
14.666667	1	3.100750
14.683333	1	3.228000
14.700000	1	3.376000
14.716667	1	3.544375
14.733333	1	3.732375
14.750000	1	3.940250
14.766667	1	4.166375
14.783333	1	4.411000
14.800000	1	4.671750
14.816667	1	4.947125
14.833333	1	5.234375
14.850000	1	5.530375
14.866667	1	5.830500
14.883333	1	6.130000
14.900000	1	6.425125
14.916667	1	6.711125
14.933333	1	6.990500
14.950000	1	7.263000
14.966667	1	7.531125
14.983333	1	7.801625
15.000000	1	8.081625
15.016667	1	8.382500
15.033333	1	8.714000
15.050000	1	9.088500
15.066667	1	9.518250
15.083333	1	10.013500
15.100000	1	10.580625
15.116667	1	11.226125
15.133333	1	11.949250
15.150000	1	12.746500
15.166667	1	13.608750
15.183333	1	14.523000
15.200000	1	15.476875
15.216667	1	16.455750
15.233333	1	17.443875
15.250000	1	18.426375
15.266667	1	19.386375
15.283333	1	20.308875
15.300000	1	21.181875
15.316667	1	21.990750
15.333333	1	22.723875
15.350000	1	23.368875
15.366667	1	23.914625
15.383333	1	24.350625
15.400000	1	24.669250
15.416667	1	24.862000
15.433333	1	24.924875
15.450000	1	24.853000
15.466667	1	24.645250
15.483333	1	24.303625
15.500000	1	23.834250
15.516667	1	23.245500
15.533333	1	22.548625
15.550000	1	21.757250
15.566667	1	20.887500
15.583333	1	19.954875
15.600000	1	18.976000
15.616667	1	17.964750
15.633333	1	16.936750
15.650000	1	15.905500
15.666667	1	14.883125
15.683333	1	13.881000
15.700000	1	12.908500
15.716667	1	11.974125
15.733333	1	11.083625
15.750000	1	10.242500
15.766667	1	9.454500
15.783333	1	8.722250
15.800000	1	8.045500
15.816667	1	7.425000
15.833333	1	6.859750
15.850000	1	6.348250
15.866667	1	5.888375
15.883333	1	5.477875
15.900000	1	5.114250
15.916667	1	4.793875
15.933333	1	4.514250
15.950000	1	4.272500
15.966667	1	4.065375
15.983333	1	3.890625
16.000000	1	3.745125
16.016667	1	3.626000
16.033333	1	3.531250
16.050000	1	3.459375
16.066667	1	3.408250
16.083333	1	3.376500
16.100000	1	3.362125
16.116667	1	3.363000
16.133333	1	3.377750
16.150000	1	3.405000
16.166667	1	3.442500
16.183333	1	3.488375
16.200000	1	3.541750
16.216667	1	3.601000
16.233333	1	3.664625
16.250000	1	3.731125
16.266667	1	3.800625
16.283333	1	3.873250
16.300000	1	3.948500
16.316667	1	4.026125
16.333333	1	4.107625
16.350000	1	4.191625
16.366667	1	4.279875
16.383333	1	4.372250
16.400000	1	4.469125
16.416667	1	4.569125
16.433333	1	4.672000
16.450000	1	4.775500
16.466667	1	4.878500
16.483333	1	4.978750
16.500000	1	5.074750
16.516667	1	5.164250
16.533333	1	5.245375
16.550000	1	5.317875
16.566667	1	5.379250
16.583333	1	5.429250
16.600000	1	5.467625
16.616667	1	5.493500
16.633333	1	5.507000
16.650000	1	5.507875
16.666667	1	5.496000
16.683333	1	5.471125
16.700000	1	5.432375
16.716667	1	5.380500
16.733333	1	5.315500
16.750000	1	5.237625
16.766667	1	5.147125
16.783333	1	5.044000
16.800000	1	4.929500
16.816667	1	4.805250
16.833333	1	4.670500
16.850000	1	4.528500
16.866667	1	4.380500
16.883333	1	4.228000
16.900000	1	4.073000
16.916667	1	3.917375
16.933333	1	3.763125
16.950000	1	3.611750
16.966667	1	3.464625
16.983333	1	3.322875
17.000000	1	3.186750
17.016667	1	3.057250
17.033333	1	2.935375
17.050000	1	2.820875
17.066667	1	2.713625
17.083333	1	2.614500
17.100000	1	2.522750
17.116667	1	2.439750
17.133333	1	2.363750
17.150000	1	2.294500
17.166667	1	2.231375
17.183333	1	2.174125
17.200000	1	2.123250
17.216667	1	2.076750
17.233333	1	2.034000
17.250000	1	1.995750
17.266667	1	1.961125
17.283333	1	1.930375
17.300000	1	1.901750
17.316667	1	1.875125
17.333333	1	1.851250
17.350000	1	1.829750
17.366667	1	1.810000
17.383333	1	1.791000
17.400000	1	1.773000
17.416667	1	1.755875
17.433333	1	1.739875
17.450000	1	1.724875
17.466667	1	1.711125
17.483333	1	1.697500
17.500000	1	1.684250
17.516667	1	1.671625
17.533333	1	1.659375
17.550000	1	1.647000
17.566667	1	1.636250
17.583333	1	1.624750
17.600000	1	1.613875
17.616667	1	1.603375
17.633333	1	1.592250
17.650000	1	1.581375
17.666667	1	1.571125
17.683333	1	1.560750
17.700000	1	1.550625
17.716667	1	1.540625
17.733333	1	1.530875
17.750000	1	1.521625
17.766667	1	1.512875
17.783333	1	1.504250
17.800000	1	1.496125
17.816667	1	1.488125
17.833333	1	1.481000
17.850000	1	1.474500
17.866667	1	1.469750
17.883333	1	1.466875
17.900000	1	1.465500
17.916667	1	1.465375
17.933333	1	1.467125
17.950000	1	1.469875
17.966667	1	1.475375
17.983333	1	1.482750
18.000000	1	1.492250
18.016667	1	1.504250
18.033333	1	1.518625
18.050000	1	1.534625
18.066667	1	1.553000
18.083333	1	1.574125
18.100000	1	1.596750
18.116667	1	1.620875
18.133333	1	1.646500
18.150000	1	1.673500
18.166667	1	1.701250
18.183333	1	1.730125
18.200000	1	1.759750
18.216667	1	1.789875
18.233333	1	1.820000
18.250000	1	1.850125
18.266667	1	1.880500
18.283333	1	1.909750
18.300000	1	1.937375
18.316667	1	1.965250
18.333333	1	1.990875
18.350000	1	2.014500
18.366667	1	2.036875
18.383333	1	2.057125
18.400000	1	2.075500
18.416667	1	2.091250
18.433333	1	2.104250
18.450000	1	2.115000
18.466667	1	2.122875
18.483333	1	2.128125
18.500000	1	2.130875
18.516667	1	2.130500
18.533333	1	2.128250
18.550000	1	2.123125
18.566667	1	2.115750
18.583333	1	2.105125
18.600000	1	2.093375
18.616667	1	2.079500
18.633333	1	2.064375
18.650000	1	2.047625
18.666667	1	2.028875
18.683333	1	2.009750
18.700000	1	1.989000
18.716667	1	1.968000
18.733333	1	1.946500
18.750000	1	1.923625
18.766667	1	1.900125
18.783333	1	1.876500
18.800000	1	1.852500
18.816667	1	1.828125
18.833333	1	1.803250
18.850000	1	1.778500
18.866667	1	1.753500
18.883333	1	1.728500
18.900000	1	1.704250
18.916667	1	1.679875
18.933333	1	1.655375
18.950000	1	1.631500
18.966667	1	1.607625
18.983333	1	1.584625
19.000000	1	1.562000
19.016667	1	1.540250
19.033333	1	1.519375
19.050000	1	1.499250
19.066667	1	1.479375
19.083333	1	1.460000
19.100000	1	1.441125
19.116667	1	1.422500
19.133333	1	1.405250
19.150000	1	1.387625
19.166667	1	1.371625
19.183333	1	1.356375
19.200000	1	1.341375
19.216667	1	1.328000
19.233333	1	1.315625
19.250000	1	1.304375
19.266667	1	1.294625
19.283333	1	1.287000
19.300000	1	1.281125
19.316667	1	1.277125
19.333333	1	1.275750
19.350000	1	1.277000
19.366667	1	1.281750
19.383333	1	1.289250
19.400000	1	1.299625
19.416667	1	1.314000
19.433333	1	1.331500
19.450000	1	1.351875
19.466667	1	1.376250
19.483333	1	1.403125
19.500000	1	1.433125
19.516667	1	1.464875
19.533333	1	1.499250
19.550000	1	1.535750
19.566667	1	1.573750
19.583333	1	1.612500
19.600000	1	1.651875
19.616667	1	1.692000
19.633333	1	1.731875
19.650000	1	1.770625
19.666667	1	1.809375
19.683333	1	1.847000
19.700000	1	1.882625
19.716667	1	1.916125
19.733333	1	1.946875
19.750000	1	1.975625
19.766667	1	2.000875
19.783333	1	2.023625
19.800000	1	2.041750
19.816667	1	2.056500
19.833333	1	2.066250
19.850000	1	2.072250
19.866667	1	2.074000
19.883333	1	2.071125
19.900000	1	2.063125
19.916667	1	2.050375
19.933333	1	2.033125
19.950000	1	2.012000
19.966667	1	1.987250
19.983333	1	1.958750
20.000000	1	1.927125
20.016667	1	1.893125
20.033333	1	1.857875
20.050000	1	1.820375
20.066667	1	1.782875
20.083333	1	1.744375
20.100000	1	1.706375
20.116667	1	1.669625
20.133333	1	1.634875
20.150000	1	1.602125
20.166667	1	1.571125
20.183333	1	1.542750
20.200000	1	1.518125
20.216667	1	1.496375
20.233333	1	1.478375
20.250000	1	1.463250
20.266667	1	1.452000
20.283333	1	1.443875
20.300000	1	1.438625
20.316667	1	1.436875
20.333333	1	1.437625
20.350000	1	1.440375
20.366667	1	1.445500
20.383333	1	1.452500
20.400000	1	1.461375
20.416667	1	1.471875
20.433333	1	1.483625
20.450000	1	1.496875
20.466667	1	1.510875
20.483333	1	1.526625
20.500000	1	1.543750
20.516667	1	1.562250
20.533333	1	1.582875
20.550000	1	1.605250
20.566667	1	1.630875
20.583333	1	1.658250
20.600000	1	1.689625
20.616667	1	1.725125
20.633333	1	1.764875
20.650000	1	1.808750
20.666667	1	1.857250
20.683333	1	1.909750
20.700000	1	1.967000
20.716667	1	2.028500
20.733333	1	2.093250
20.750000	1	2.162375
20.766667	1	2.233625
20.783333	1	2.307125
20.800000	1	2.380875
20.816667	1	2.456250
20.833333	1	2.531000
20.850000	1	2.604375
20.866667	1	2.675750
20.883333	1	2.745250
20.900000	1	2.811250
20.916667	1	2.874000
20.933333	1	2.932375
20.950000	1	2.985375
20.966667	1	3.033125
20.983333	1	3.075875
21.000000	1	3.112250
21.016667	1	3.141875
21.033333	1	3.164875
21.050000	1	3.180250
21.066667	1	3.187750
21.083333	1	3.187375
21.100000	1	3.179000
21.116667	1	3.162875
21.133333	1	3.139500
21.150000	1	3.107750
21.166667	1	3.068625
21.183333	1	3.022750
21.200000	1	2.970125
21.216667	1	2.912875
21.233333	1	2.850500
21.250000	1	2.784375
21.266667	1	2.715000
21.283333	1	2.644125
21.300000	1	2.571000
21.316667	1	2.498500
21.333333	1	2.425875
21.350000	1	2.354000
21.366667	1	2.283500
21.383333	1	2.215250
21.400000	1	2.149875
21.416667	1	2.087375
21.433333	1	2.027750
21.450000	1	1.971500
21.466667	1	1.917875
21.483333	1	1.867875
21.500000	1	1.820000
21.516667	1	1.774625
21.533333	1	1.732000
21.550000	1	1.691000
21.566667	1	1.651250
21.583333	1	1.613125
21.600000	1	1.575375
21.616667	1	1.538750
21.633333	1	1.502250
21.650000	1	1.465625
21.666667	1	1.429375
21.683333	1	1.392125
21.700000	1	1.356500
21.716667	1	1.321000
21.733333	1	1.284625
21.750000	1	1.248500
21.766667	1	1.212125
21.783333	1	1.176750
21.800000	1	1.142125
21.816667	1	1.107750
21.833333	1	1.074750
21.850000	1	1.042625
21.866667	1	1.012500
21.883333	1	0.983750
21.900000	1	0.955250
21.916667	1	0.929125
21.933333	1	0.904125
21.950000	1	0.881875
21.966667	1	0.859875
21.983333	1	0.840500
22.000000	1	0.822500
22.016667	1	0.805875
22.033333	1	0.790625
22.050000	1	0.776875
22.066667	1	0.765250
22.083333	1	0.754125
22.100000	1	0.744750
22.116667	1	0.736500
22.133333	1	0.730625
22.150000	1	0.725375
22.166667	1	0.721750
22.183333	1	0.719625
22.200000	1	0.719000
22.216667	1	0.718875
22.233333	1	0.720000
22.250000	1	0.722375
22.266667	1	0.725375
22.283333	1	0.729000
22.300000	1	0.733750
22.316667	1	0.739500
22.333333	1	0.744500
22.350000	1	0.750750
22.366667	1	0.757000
22.383333	1	0.763625
22.400000	1	0.770625
22.416667	1	0.777375
22.433333	1	0.783750
22.450000	1	0.790000
22.466667	1	0.796000
22.483333	1	0.801625
22.500000	1	0.806500
22.516667	1	0.811000
22.533333	1	0.815000
22.550000	1	0.818125
22.566667	1	0.820125
22.583333	1	0.821500
22.600000	1	0.822250
22.616667	1	0.822125
22.633333	1	0.820750
22.650000	1	0.818875
22.666667	1	0.816375
22.683333	1	0.813625
22.700000	1	0.809500
22.716667	1	0.805500
22.733333	1	0.801000
22.750000	1	0.795750
22.766667	1	0.790625
22.783333	1	0.785000
22.800000	1	0.778625
22.816667	1	0.773250
22.833333	1	0.767625
22.850000	1	0.762000
22.866667	1	0.757625
22.883333	1	0.754000
22.900000	1	0.751250
22.916667	1	0.748500
22.933333	1	0.746500
22.950000	1	0.745250
22.966667	1	0.744625
22.983333	1	0.745125
23.000000	1	0.746375
23.016667	1	0.748750
23.033333	1	0.751125
23.050000	1	0.754250
23.066667	1	0.758000
23.083333	1	0.762875
23.100000	1	0.767625
23.116667	1	0.772500
23.133333	1	0.777000
23.150000	1	0.781750
23.166667	1	0.786625
23.183333	1	0.790625
23.200000	1	0.794875
23.216667	1	0.799000
23.233333	1	0.802375
23.250000	1	0.804750
23.266667	1	0.807250
23.283333	1	0.809000
23.300000	1	0.809625
23.316667	1	0.809750
23.333333	1	0.809125
23.350000	1	0.808125
23.366667	1	0.806375
23.383333	1	0.803375
23.400000	1	0.800000
23.416667	1	0.795875
23.433333	1	0.791125
23.450000	1	0.786000
23.466667	1	0.779750
23.483333	1	0.772500
23.500000	1	0.766000
23.516667	1	0.758500
23.533333	1	0.750500
23.550000	1	0.742500
23.566667	1	0.733500
23.583333	1	0.724625
23.600000	1	0.715875
23.616667	1	0.706375
23.633333	1	0.697375
23.650000	1	0.687500
23.666667	1	0.678125
23.683333	1	0.668375
23.700000	1	0.659750
23.716667	1	0.650875
23.733333	1	0.642375
23.750000	1	0.634250
23.766667	1	0.626625
23.783333	1	0.619500
23.800000	1	0.612625
23.816667	1	0.606375
23.833333	1	0.600375
23.850000	1	0.595875
23.866667	1	0.592000
23.883333	1	0.589125
23.900000	1	0.587750
23.916667	1	0.587875
23.933333	1	0.589250
23.950000	1	0.592375
23.966667	1	0.598375
23.983333	1	0.607250
24.000000	1	0.618500
24.016667	1	0.632500
24.033333	1	0.650250
24.050000	1	0.670375
24.066667	1	0.694500
24.083333	1	0.722375
24.100000	1	0.753625
24.116667	1	0.789000
24.133333	1	0.827500
24.150000	1	0.868750
24.166667	1	0.913625
24.183333	1	0.961500
24.200000	1	1.011250
24.216667	1	1.064000
24.233333	1	1.117500
24.250000	1	1.172375
24.266667	1	1.228500
24.283333	1	1.284375
24.300000	1	1.340000
24.316667	1	1.394500
24.333333	1	1.447875
24.350000	1	1.499875
24.366667	1	1.549875
24.383333	1	1.598375
24.400000	1	1.643875
24.416667	1	1.685750
24.433333	1	1.724375
24.450000	1	1.759125
24.466667	1	1.789625
24.483333	1	1.816625
24.500000	1	1.839000
24.516667	1	1.856875
24.533333	1	1.869250
24.550000	1	1.877625
24.566667	1	1.881125
24.583333	1	1.878500
24.600000	1	1.870625
24.616667	1	1.858250
24.633333	1	1.840875
24.650000	1	1.819750
24.666667	1	1.794375
24.683333	1	1.765375
24.700000	1	1.733250
24.716667	1	1.698000
24.733333	1	1.660125
24.750000	1	1.621375
24.766667	1	1.581250
24.783333	1	1.540000
24.800000	1	1.498625
24.816667	1	1.458000
24.833333	1	1.418625
24.850000	1	1.380625
24.866667	1	1.345125
24.883333	1	1.311000
24.900000	1	1.279125
24.916667	1	1.249375
24.933333	1	1.222125
24.950000	1	1.196750
24.966667	1	1.175000
24.983333	1	1.155500
25.000000	1	1.138625
25.016667	1	1.123625
25.033333	1	1.111000
25.050000	1	1.100750
25.066667	1	1.092000
25.083333	1	1.084625
25.100000	1	1.078250
25.116667	1	1.072750
25.133333	1	1.067625
25.150000	1	1.062875
25.166667	1	1.058500
25.183333	1	1.054500
25.200000	1	1.049500
25.216667	1	1.044250
25.233333	1	1.037875
25.250000	1	1.031250
25.266667	1	1.024625
25.283333	1	1.016125
25.300000	1	1.006250
25.316667	1	0.994875
25.333333	1	0.982750
25.350000	1	0.969500
25.366667	1	0.955250
25.383333	1	0.940000
25.400000	1	0.923750
25.416667	1	0.905375
25.433333	1	0.886625
25.450000	1	0.867875
25.466667	1	0.847500
25.483333	1	0.827250
25.500000	1	0.806875
25.516667	1	0.785875
25.533333	1	0.764750
25.550000	1	0.744000
25.566667	1	0.723375
25.583333	1	0.703000
25.600000	1	0.683875
25.616667	1	0.664500
25.633333	1	0.646250
25.650000	1	0.628000
25.666667	1	0.611125
25.683333	1	0.595625
25.700000	1	0.580750
25.716667	1	0.567000
25.733333	1	0.555250
25.750000	1	0.543375
25.766667	1	0.533250
25.783333	1	0.524000
25.800000	1	0.515500
25.816667	1	0.508500
25.833333	1	0.502500
25.850000	1	0.497125
25.866667	1	0.493125
25.883333	1	0.489750
25.900000	1	0.487000
25.916667	1	0.485500
25.933333	1	0.484375
25.950000	1	0.482750
25.966667	1	0.482000
25.983333	1	0.483000
26.000000	1	0.484000
26.016667	1	0.485625
26.033333	1	0.487250
26.050000	1	0.489375
26.066667	1	0.491625
26.083333	1	0.494875
26.100000	1	0.497750
26.116667	1	0.501125
26.133333	1	0.504375
26.150000	1	0.506875
26.166667	1	0.510250
26.183333	1	0.513250
26.200000	1	0.516750
26.216667	1	0.519875
26.233333	1	0.523375
26.250000	1	0.527000
26.266667	1	0.530500
26.283333	1	0.533750
26.300000	1	0.537125
26.316667	1	0.539875
26.333333	1	0.542750
26.350000	1	0.545250
26.366667	1	0.548500
26.383333	1	0.550625
26.400000	1	0.553125
26.416667	1	0.555375
26.433333	1	0.557375
26.450000	1	0.559500
26.466667	1	0.562500
26.483333	1	0.564625
26.500000	1	0.567375
26.516667	1	0.570250
26.533333	1	0.572875
26.550000	1	0.575500
26.566667	1	0.578000
26.583333	1	0.581000
26.600000	1	0.584500
26.616667	1	0.587875
26.633333	1	0.591250
26.650000	1	0.595000
26.666667	1	0.598500
26.683333	1	0.602125
26.700000	1	0.605750
26.716667	1	0.610125
26.733333	1	0.613625
26.750000	1	0.618125
26.766667	1	0.622750
26.783333	1	0.627000
26.800000	1	0.631250
26.816667	1	0.635000
26.833333	1	0.638875
26.850000	1	0.643500
26.866667	1	0.647750
26.883333	1	0.651375
26.900000	1	0.655375
26.916667	1	0.659375
26.933333	1	0.661750
26.950000	1	0.665000
26.966667	1	0.667625
26.983333	1	0.669500
27.000000	1	0.671250
27.016667	1	0.673000
27.033333	1	0.674375
27.050000	1	0.675000
27.066667	1	0.676000
27.083333	1	0.675750
27.100000	1	0.674875
27.116667	1	0.674125
27.133333	1	0.673375
27.150000	1	0.671750
27.166667	1	0.669625
27.183333	1	0.666875
27.200000	1	0.664875
27.216667	1	0.661875
27.233333	1	0.658125
27.250000	1	0.655375
27.266667	1	0.651500
27.283333	1	0.647625
27.300000	1	0.643625
27.316667	1	0.639000
27.333333	1	0.633625
27.350000	1	0.628125
27.366667	1	0.622000
27.383333	1	0.616500
27.400000	1	0.609875
27.416667	1	0.603625
27.433333	1	0.597500
27.450000	1	0.590500
27.466667	1	0.583250
27.483333	1	0.575375
27.500000	1	0.567750
27.516667	1	0.559750
27.533333	1	0.551375
27.550000	1	0.543250
27.566667	1	0.535125
27.583333	1	0.526875
27.600000	1	0.518625
27.616667	1	0.510125
27.633333	1	0.501125
27.650000	1	0.492375
27.666667	1	0.484125
27.683333	1	0.476000
27.700000	1	0.469000
27.716667	1	0.460750
27.733333	1	0.452500
27.750000	1	0.445250
27.766667	1	0.437875
27.783333	1	0.430875
27.800000	1	0.424750
27.816667	1	0.419250
27.833333	1	0.414500
27.850000	1	0.410375
27.866667	1	0.407250
27.883333	1	0.406250
27.900000	1	0.406625
27.916667	1	0.408625
27.933333	1	0.412750
27.950000	1	0.420750
27.966667	1	0.431250
27.983333	1	0.444625
28.000000	1	0.461875
28.016667	1	0.483750
28.033333	1	0.510375
28.050000	1	0.542000
28.066667	1	0.578375
28.083333	1	0.622000
28.100000	1	0.671250
28.116667	1	0.726250
28.133333	1	0.788750
28.150000	1	0.857500
28.166667	1	0.933250
28.183333	1	1.015250
28.200000	1	1.104000
28.216667	1	1.198750
28.233333	1	1.299500
28.250000	1	1.405500
28.266667	1	1.515250
28.283333	1	1.629000
28.300000	1	1.746250
28.316667	1	1.866625
28.333333	1	1.988375
28.350000	1	2.111250
28.366667	1	2.233625
28.383333	1	2.354375
28.400000	1	2.474000
28.416667	1	2.591625
28.433333	1	2.705250
28.450000	1	2.814500
28.466667	1	2.920000
28.483333	1	3.021750
28.500000	1	3.118250
28.516667	1	3.208000
28.533333	1	3.292375
28.550000	1	3.370250
28.566667	1	3.442125
28.583333	1	3.507625
28.600000	1	3.565500
28.616667	1	3.616000
28.633333	1	3.659250
28.650000	1	3.694875
28.666667	1	3.721500
28.683333	1	3.740875
28.700000	1	3.752000
28.716667	1	3.754750
28.733333	1	3.747125
28.750000	1	3.731750
28.766667	1	3.706375
28.783333	1	3.672000
28.800000	1	3.627875
28.816667	1	3.574500
28.833333	1	3.511625
28.850000	1	3.440000
28.866667	1	3.359500
28.883333	1	3.270875
28.900000	1	3.173375
28.916667	1	3.068875
28.933333	1	2.958000
28.950000	1	2.841500
28.966667	1	2.720875
28.983333	1	2.596375
29.000000	1	2.469375
29.016667	1	2.340875
29.033333	1	2.210875
29.050000	1	2.081875
29.066667	1	1.953750
29.083333	1	1.827125
29.100000	1	1.703125
29.116667	1	1.583125
29.133333	1	1.466375
29.150000	1	1.354500
29.166667	1	1.247875
29.183333	1	1.146250
29.200000	1	1.049625
29.216667	1	0.959875
29.233333	1	0.875875
29.250000	1	0.797625
29.266667	1	0.724875
29.283333	1	0.657625
29.300000	1	0.596375
29.316667	1	0.540000
29.333333	1	0.488375
29.350000	1	0.441375
29.366667	1	0.399250
29.383333	1	0.362125
29.400000	1	0.328375
29.416667	1	0.298625
29.433333	1	0.272250
29.450000	1	0.249500
29.466667	1	0.229000
29.483333	1	0.211625
29.500000	1	0.196000
29.516667	1	0.183250
29.533333	1	0.172000
29.550000	1	0.163375
29.566667	1	0.156125
29.583333	1	0.150750
29.600000	1	0.145750
29.616667	1	0.143000
29.633333	1	0.141625
29.650000	1	0.141375
29.666667	1	0.142625
29.683333	1	0.144625
29.700000	1	0.148000
29.716667	1	0.152000
29.733333	1	0.156625
29.750000	1	0.162000
29.766667	1	0.168625
29.783333	1	0.175875
29.800000	1	0.184750
29.816667	1	0.193625
29.833333	1	0.203250
29.850000	1	0.214125
29.866667	1	0.224875
29.883333	1	0.236750
29.900000	1	0.248750
29.916667	1	0.261250
29.933333	1	0.274375
29.950000	1	0.287750
29.966667	1	0.301250
29.983333	1	0.314250
30.000000	1	0.328750
30.016667	1	0.343125
30.033333	1	0.357375
30.050000	1	0.372000
30.066667	1	0.386000
30.083333	1	0.400750
30.100000	1	0.414500
30.116667	1	0.427625
30.133333	1	0.440500
30.150000	1	0.453000
30.166667	1	0.465625
30.183333	1	0.477250
30.200000	1	0.488875
30.216667	1	0.500000
30.233333	1	0.510125
30.250000	1	0.520250
30.266667	1	0.529625
30.283333	1	0.538500
30.300000	1	0.546750
30.316667	1	0.554625
30.333333	1	0.561625
30.350000	1	0.568000
30.366667	1	0.573000
30.383333	1	0.578125
30.400000	1	0.582875
30.416667	1	0.587000
30.433333	1	0.590375
30.450000	1	0.594125
30.466667	1	0.596500
30.483333	1	0.598500
30.500000	1	0.600250
30.516667	1	0.600875
30.533333	1	0.601000
30.550000	1	0.601000
30.566667	1	0.600375
30.583333	1	0.599500
30.600000	1	0.598875
30.616667	1	0.597875
30.633333	1	0.596000
30.650000	1	0.592625
30.666667	1	0.590375
30.683333	1	0.587000
30.700000	1	0.584000
30.716667	1	0.580250
30.733333	1	0.576125
30.750000	1	0.572125
30.766667	1	0.568625
30.783333	1	0.564375
30.800000	1	0.559750
30.816667	1	0.555500
30.833333	1	0.552000
30.850000	1	0.548000
30.866667	1	0.544750
30.883333	1	0.541000
30.900000	1	0.538125
30.916667	1	0.535250
30.933333	1	0.532250
30.950000	1	0.530500
30.966667	1	0.529250
30.983333	1	0.527875
31.000000	1	0.527250
31.016667	1	0.527125
31.033333	1	0.527500
31.050000	1	0.528750
31.066667	1	0.530875
31.083333	1	0.533000
31.100000	1	0.536500
31.116667	1	0.539375
31.133333	1	0.543000
31.150000	1	0.546875
31.166667	1	0.552000
31.183333	1	0.557375
31.200000	1	0.563125
31.216667	1	0.569625
31.233333	1	0.576125
31.250000	1	0.582875
31.266667	1	0.589625
31.283333	1	0.596875
31.300000	1	0.604250
31.316667	1	0.611625
31.333333	1	0.619625
31.350000	1	0.626875
31.366667	1	0.634375
31.383333	1	0.641500
31.400000	1	0.649000
31.416667	1	0.656125
31.433333	1	0.663625
31.450000	1	0.670375
31.466667	1	0.676625
31.483333	1	0.683000
31.500000	1	0.689250
31.516667	1	0.695750
31.533333	1	0.701125
31.550000	1	0.706750
31.566667	1	0.711875
31.583333	1	0.715875
31.600000	1	0.719375
31.616667	1	0.723250
31.633333	1	0.726625
31.650000	1	0.728250
31.666667	1	0.729500
31.683333	1	0.730500
31.700000	1	0.730625
31.716667	1	0.730125
31.733333	1	0.730250
31.750000	1	0.729250
31.766667	1	0.726875
31.783333	1	0.724125
31.800000	1	0.720875
31.816667	1	0.716875
31.833333	1	0.712375
31.850000	1	0.707625
31.866667	1	0.702625
31.883333	1	0.696750
31.900000	1	0.690625
31.916667	1	0.683750
31.933333	1	0.677125
31.950000	1	0.669875
31.966667	1	0.662625
31.983333	1	0.655500
32.000000	1	0.649125
32.016667	1	0.642500
32.033333	1	0.636875
32.050000	1	0.630125
32.066667	1	0.624125
32.083333	1	0.619250
32.100000	1	0.614125
32.116667	1	0.610000
32.133333	1	0.605875
32.150000	1	0.602500
32.166667	1	0.600375
32.183333	1	0.599250
32.200000	1	0.597875
32.216667	1	0.597625
32.233333	1	0.598125
32.250000	1	0.599875
32.266667	1	0.602000
32.283333	1	0.605000
32.300000	1	0.608625
32.316667	1	0.612750
32.333333	1	0.617500
32.350000	1	0.622500
32.366667	1	0.628375
32.383333	1	0.635625
32.400000	1	0.643625
32.416667	1	0.651250
32.433333	1	0.659625
32.450000	1	0.668375
32.466667	1	0.678000
32.483333	1	0.687125
32.500000	1	0.697250
32.516667	1	0.706500
32.533333	1	0.716375
32.550000	1	0.726375
32.566667	1	0.736000
32.583333	1	0.745375
32.600000	1	0.754750
32.616667	1	0.764250
32.633333	1	0.773625
32.650000	1	0.782375
32.666667	1	0.790750
32.683333	1	0.798875
32.700000	1	0.806250
32.716667	1	0.813625
32.733333	1	0.820500
32.750000	1	0.827125
32.766667	1	0.833250
32.783333	1	0.838625
32.800000	1	0.843625
32.816667	1	0.847875
32.833333	1	0.851750
32.850000	1	0.854500
32.866667	1	0.856250
32.883333	1	0.856875
32.900000	1	0.856250
32.916667	1	0.855375
32.933333	1	0.853625
32.950000	1	0.851500
32.966667	1	0.848125
32.983333	1	0.843750
33.000000	1	0.838250
33.016667	1	0.832125
33.033333	1	0.825625
33.050000	1	0.817750
33.066667	1	0.809500
33.083333	1	0.800750
33.100000	1	0.790375
33.116667	1	0.779625
33.133333	1	0.767500
33.150000	1	0.754125
33.166667	1	0.740750
33.183333	1	0.727625
33.200000	1	0.714125
33.216667	1	0.700000
33.233333	1	0.685000
33.250000	1	0.668875
33.266667	1	0.651875
33.283333	1	0.635875
33.300000	1	0.619125
33.316667	1	0.602000
33.333333	1	0.585250
33.350000	1	0.568750
33.366667	1	0.551875
33.383333	1	0.534875
33.400000	1	0.517750
33.416667	1	0.500625
33.433333	1	0.484250
33.450000	1	0.467375
33.466667	1	0.451625
33.483333	1	0.435500
33.500000	1	0.419875
33.516667	1	0.405125
33.533333	1	0.390250
33.550000	1	0.376375
33.566667	1	0.361875
33.583333	1	0.348625
33.600000	1	0.335125
33.616667	1	0.322125
33.633333	1	0.309875
33.650000	1	0.298625
33.666667	1	0.287375
33.683333	1	0.276625
33.700000	1	0.266625
33.716667	1	0.257250
33.733333	1	0.248125
33.750000	1	0.238875
33.766667	1	0.231250
33.783333	1	0.223750
33.800000	1	0.216375
33.816667	1	0.209875
33.833333	1	0.204250
33.850000	1	0.197875
33.866667	1	0.192875
33.883333	1	0.187250
33.900000	1	0.182125
33.916667	1	0.177250
33.933333	1	0.173000
33.950000	1	0.169250
33.966667	1	0.165375
33.983333	1	0.161500
34.000000	1	0.157875
34.016667	1	0.154000
34.033333	1	0.151375
34.050000	1	0.149125
34.066667	1	0.147125
34.083333	1	0.144750
34.100000	1	0.142250
34.116667	1	0.140875
34.133333	1	0.138875
34.150000	1	0.136750
34.166667	1	0.135875
34.183333	1	0.134875
34.200000	1	0.134000
34.216667	1	0.133125
34.233333	1	0.132500
34.250000	1	0.132000
34.266667	1	0.131375
34.283333	1	0.131625
34.300000	1	0.132875
34.316667	1	0.133875
34.333333	1	0.135375
34.350000	1	0.137375
34.366667	1	0.139625
34.383333	1	0.142875
34.400000	1	0.147125
34.416667	1	0.151250
34.433333	1	0.156125
34.450000	1	0.161500
34.466667	1	0.168375
34.483333	1	0.175500
34.500000	1	0.183250
34.516667	1	0.192375
34.533333	1	0.202750
34.550000	1	0.213750
34.566667	1	0.225250
34.583333	1	0.237125
34.600000	1	0.250500
34.616667	1	0.264500
34.633333	1	0.279125
34.650000	1	0.293750
34.666667	1	0.309500
34.683333	1	0.326375
34.700000	1	0.342750
34.716667	1	0.359000
34.733333	1	0.375750
34.750000	1	0.393125
34.766667	1	0.410250
34.783333	1	0.427625
34.800000	1	0.444750
34.816667	1	0.461625
34.833333	1	0.478500
34.850000	1	0.494625
34.866667	1	0.510250
34.883333	1	0.526375
34.900000	1	0.540625
34.916667	1	0.555000
34.933333	1	0.568625
34.950000	1	0.580875
34.966667	1	0.593250
34.983333	1	0.604875
35.000000	1	0.615125
35.016667	1	0.624875
35.033333	1	0.634000
35.050000	1	0.642375
35.066667	1	0.649375
35.083333	1	0.655250
35.100000	1	0.660000
35.116667	1	0.664375
35.133333	1	0.667750
35.150000	1	0.669750
35.166667	1	0.670500
35.183333	1	0.670750
35.200000	1	0.669875
35.216667	1	0.667375
35.233333	1	0.663500
35.250000	1	0.658875
35.266667	1	0.653625
35.283333	1	0.646875
35.300000	1	0.638250
35.316667	1	0.629375
35.333333	1	0.618875
35.350000	1	0.607625
35.366667	1	0.594625
35.383333	1	0.581625
35.400000	1	0.567250
35.416667	1	0.552125
35.433333	1	0.536500
35.450000	1	0.520250
35.466667	1	0.503875
35.483333	1	0.486625
35.500000	1	0.469000
35.516667	1	0.451375
35.533333	1	0.432500
35.550000	1	0.414250
35.566667	1	0.396250
35.583333	1	0.379125
35.600000	1	0.361375
35.616667	1	0.344750
35.633333	1	0.327875
35.650000	1	0.311500
35.666667	1	0.296000
35.683333	1	0.280875
35.700000	1	0.266375
35.716667	1	0.252875
35.733333	1	0.240000
35.750000	1	0.228125
35.766667	1	0.216250
35.783333	1	0.205250
35.800000	1	0.195750
35.816667	1	0.187125
35.833333	1	0.178750
35.850000	1	0.171500
35.866667	1	0.165125
35.883333	1	0.159000
35.900000	1	0.154125
35.916667	1	0.149375
35.933333	1	0.145625
35.950000	1	0.142250
35.966667	1	0.138875
35.983333	1	0.136250
36.000000	1	0.133625
36.016667	1	0.132250
36.033333	1	0.131375
36.050000	1	0.130375
36.066667	1	0.130000
36.083333	1	0.129625
36.100000	1	0.130625
36.116667	1	0.130375
36.133333	1	0.132125
36.150000	1	0.132375
36.166667	1	0.133500
36.183333	1	0.135500
36.200000	1	0.137250
36.216667	1	0.138750
36.233333	1	0.140625
36.250000	1	0.143000
36.266667	1	0.144750
36.283333	1	0.146500
36.300000	1	0.148625
36.316667	1	0.151500
36.333333	1	0.154625
36.350000	1	0.157750
36.366667	1	0.160625
36.383333	1	0.163000
36.400000	1	0.165875
36.416667	1	0.168375
36.433333	1	0.171375
36.450000	1	0.174625
36.466667	1	0.178250
36.483333	1	0.181125
36.500000	1	0.184000
36.516667	1	0.187125
36.533333	1	0.190375
36.550000	1	0.193500
36.566667	1	0.197125
36.583333	1	0.200500
36.600000	1	0.203875
36.616667	1	0.207250
36.633333	1	0.210750
36.650000	1	0.213750
36.666667	1	0.216750
36.683333	1	0.219875
36.700000	1	0.222500
36.716667	1	0.225500
36.733333	1	0.227875
36.750000	1	0.231250
36.766667	1	0.234875
36.783333	1	0.237000
36.800000	1	0.239750
36.816667	1	0.242250
36.833333	1	0.245125
36.850000	1	0.247375
36.866667	1	0.249875
36.883333	1	0.252375
36.900000	1	0.254875
36.916667	1	0.257000
36.933333	1	0.259000
36.950000	1	0.261250
36.966667	1	0.263125
36.983333	1	0.265625
37.000000	1	0.267500
37.016667	1	0.269125
37.033333	1	0.271125
37.050000	1	0.272500
37.066667	1	0.274250
37.083333	1	0.275625
37.100000	1	0.276125
37.116667	1	0.277500
37.133333	1	0.278250
37.150000	1	0.279000
37.166667	1	0.279125
37.183333	1	0.279625
37.200000	1	0.279500
37.216667	1	0.279625
37.233333	1	0.279375
37.250000	1	0.279000
37.266667	1	0.277750
37.283333	1	0.276625
37.300000	1	0.275250
37.316667	1	0.273500
37.333333	1	0.272000
37.350000	1	0.269500
37.366667	1	0.266750
37.383333	1	0.263875
37.400000	1	0.261250
37.416667	1	0.257750
37.433333	1	0.254125
37.450000	1	0.250000
37.466667	1	0.246250
37.483333	1	0.242000
37.500000	1	0.238250
37.516667	1	0.234375
37.533333	1	0.230250
37.550000	1	0.226000
37.566667	1	0.221375
37.583333	1	0.216750
37.600000	1	0.211500
37.616667	1	0.206375
37.633333	1	0.200625
37.650000	1	0.194500
37.666667	1	0.189250
37.683333	1	0.183875
37.700000	1	0.179000
37.716667	1	0.173250
37.733333	1	0.167500
37.750000	1	0.161500
37.766667	1	0.156250
37.783333	1	0.150625
37.800000	1	0.145500
37.816667	1	0.139500
37.833333	1	0.133000
37.850000	1	0.126500
37.866667	1	0.120875
37.883333	1	0.114875
37.900000	1	0.109375
37.916667	1	0.104375
37.933333	1	0.098375
37.950000	1	0.092625
37.966667	1	0.086500
37.983333	1	0.080500
38.000000	1	0.075500
38.016667	1	0.070250
38.033333	1	0.064875
38.050000	1	0.059750
38.066667	1	0.054625
38.083333	1	0.050250
38.100000	1	0.045250
38.116667	1	0.039875
38.133333	1	0.035125
38.150000	1	0.030750
38.166667	1	0.026625
38.183333	1	0.022000
38.200000	1	0.018250
38.216667	1	0.014375
38.233333	1	0.010250
38.250000	1	0.005875
38.266667	1	0.002500
38.283333	1	0.000000
38.300000	1	-0.003250
38.316667	1	-0.006250
38.333333	1	-0.010250
38.350000	1	-0.013750
38.366667	1	-0.016125
38.383333	1	-0.018875
38.400000	1	-0.020750
38.416667	1	-0.023875
38.433333	1	-0.026250
38.450000	1	-0.028250
38.466667	1	-0.030250
38.483333	1	-0.031875
38.500000	1	-0.033375
38.516667	1	-0.034500
38.533333	1	-0.035625
38.550000	1	-0.036500
38.566667	1	-0.037625
38.583333	1	-0.038750
38.600000	1	-0.039500
38.616667	1	-0.040250
38.633333	1	-0.040875
38.650000	1	-0.041875
38.666667	1	-0.041875
38.683333	1	-0.042375
38.700000	1	-0.042625
38.716667	1	-0.042250
38.733333	1	-0.041750
38.750000	1	-0.042000
38.766667	1	-0.042125
38.783333	1	-0.042250
38.800000	1	-0.042500
38.816667	1	-0.041750
38.833333	1	-0.041750
38.850000	1	-0.041125
38.866667	1	-0.040500
38.883333	1	-0.040875
38.900000	1	-0.040500
38.916667	1	-0.039875
38.933333	1	-0.038625
38.950000	1	-0.038375
38.966667	1	-0.038125
38.983333	1	-0.038125
39.000000	1	-0.037625
39.016667	1	-0.037875
39.033333	1	-0.037875
39.050000	1	-0.038375
39.066667	1	-0.038750
39.083333	1	-0.039250
39.100000	1	-0.039250
39.116667	1	-0.040000
39.133333	1	-0.040125
39.150000	1	-0.040125
39.166667	1	-0.040875
39.183333	1	-0.041000
39.200000	1	-0.041375
39.216667	1	-0.041625
39.233333	1	-0.041875
39.250000	1	-0.042125
39.266667	1	-0.042875
39.283333	1	-0.042625
39.300000	1	-0.042750
39.316667	1	-0.043250
39.333333	1	-0.042875
39.350000	1	-0.042875
39.366667	1	-0.043000
39.383333	1	-0.042250
39.400000	1	-0.042125
39.416667	1	-0.042250
39.433333	1	-0.042000
39.450000	1	-0.041250
39.466667	1	-0.041500
39.483333	1	-0.041125
39.500000	1	-0.041000
39.516667	1	-0.040625
39.533333	1	-0.040375
39.550000	1	-0.040125
39.566667	1	-0.040000
39.583333	1	-0.040000
39.600000	1	-0.039500
39.616667	1	-0.039125
39.633333	1	-0.038750
39.650000	1	-0.039000
39.666667	1	-0.038375
39.683333	1	-0.038250
39.700000	1	-0.037750
39.716667	1	-0.037125
39.733333	1	-0.036500
39.750000	1	-0.036375
39.766667	1	-0.036500
39.783333	1	-0.036500
39.800000	1	-0.036625
39.816667	1	-0.036125
39.833333	1	-0.036375
39.850000	1	-0.036000
39.866667	1	-0.035625
39.883333	1	-0.035125
39.900000	1	-0.035000
39.916667	1	-0.035000
39.933333	1	-0.034625
39.950000	1	-0.034125
39.966667	1	-0.033000
39.983333	1	-0.033000
40.000000	1	-0.032375
