File Path	chrom://marshall/Chromeleon7/HPLC_Ultimate_3000/Users/markusar/20230113.seq/254.smp/RI_1.channel/RI_1.chm
Channel	RI_1

Injection Information:
Data Vault	Chromeleon7
Injection	er4.1
Injection Number	7
Position	GA7
Comment	
Processing Method	
Instrument Method	std_method
Type	Unknown
Status	Finished
Injection Date	13.01.2023
Injection Time	19:41:08
Injection Volume (µl)	20.000
Dilution Factor	1.0000
Weight	1.0000

Chromatogram Data Information:
Time Min. (min)	0.000000
Time Max. (min)	40.000000
Data Points	2401
Detector	RI
Generating Data System	Chromeleon 7.2.5.9507
Exporting Data System	Chromeleon 7.2.5.0
Operator	Instrument Controller
Signal Quantity	Refractive 
Signal Unit	µRIU
Signal Min.	-0.088750
Signal Max.	110.999250
Channel	RI_1
Driver Name	RID520Driver.dll
Channel Type	Evaluation
Min. Step (s)	1
Max. Step (s)	1
Average Step (s)	1

Signal Parameter Information:
Signal Info	

Chromatogram Data:
Time (min)	Step (s)	Value (µRIU)
0.000000	n.a.	0.135625
0.016667	1	0.140250
0.033333	1	0.144000
0.050000	1	0.148000
0.066667	1	0.151750
0.083333	1	0.155750
0.100000	1	0.159750
0.116667	1	0.164125
0.133333	1	0.168000
0.150000	1	0.171500
0.166667	1	0.176000
0.183333	1	0.179875
0.200000	1	0.183750
0.216667	1	0.187625
0.233333	1	0.191250
0.250000	1	0.194875
0.266667	1	0.197625
0.283333	1	0.201000
0.300000	1	0.204000
0.316667	1	0.207000
0.333333	1	0.209500
0.350000	1	0.212250
0.366667	1	0.214750
0.383333	1	0.217000
0.400000	1	0.219125
0.416667	1	0.220875
0.433333	1	0.222375
0.450000	1	0.224375
0.466667	1	0.226500
0.483333	1	0.228125
0.500000	1	0.229875
0.516667	1	0.230875
0.533333	1	0.231375
0.550000	1	0.231625
0.566667	1	0.231875
0.583333	1	0.232375
0.600000	1	0.231750
0.616667	1	0.231625
0.633333	1	0.231750
0.650000	1	0.230875
0.666667	1	0.230500
0.683333	1	0.230125
0.700000	1	0.229750
0.716667	1	0.229500
0.733333	1	0.229250
0.750000	1	0.229875
0.766667	1	0.230500
0.783333	1	0.230250
0.800000	1	0.230500
0.816667	1	0.230625
0.833333	1	0.229625
0.850000	1	0.228375
0.866667	1	0.228125
0.883333	1	0.226625
0.900000	1	0.224500
0.916667	1	0.223000
0.933333	1	0.220250
0.950000	1	0.217625
0.966667	1	0.214875
0.983333	1	0.212375
1.000000	1	0.209500
1.016667	1	0.206125
1.033333	1	0.203000
1.050000	1	0.200625
1.066667	1	0.196750
1.083333	1	0.193375
1.100000	1	0.190625
1.116667	1	0.187250
1.133333	1	0.183875
1.150000	1	0.181250
1.166667	1	0.178500
1.183333	1	0.174875
1.200000	1	0.171250
1.216667	1	0.168500
1.233333	1	0.165000
1.250000	1	0.161750
1.266667	1	0.158750
1.283333	1	0.155250
1.300000	1	0.152625
1.316667	1	0.149000
1.333333	1	0.145375
1.350000	1	0.142500
1.366667	1	0.139125
1.383333	1	0.135875
1.400000	1	0.132250
1.416667	1	0.129250
1.433333	1	0.126125
1.450000	1	0.123125
1.466667	1	0.119750
1.483333	1	0.117500
1.500000	1	0.114625
1.516667	1	0.111750
1.533333	1	0.109125
1.550000	1	0.106500
1.566667	1	0.103875
1.583333	1	0.100875
1.600000	1	0.098250
1.616667	1	0.096125
1.633333	1	0.094000
1.650000	1	0.091500
1.666667	1	0.089625
1.683333	1	0.087125
1.700000	1	0.084750
1.716667	1	0.082625
1.733333	1	0.080125
1.750000	1	0.077375
1.766667	1	0.075125
1.783333	1	0.072875
1.800000	1	0.071000
1.816667	1	0.069375
1.833333	1	0.066875
1.850000	1	0.064750
1.866667	1	0.062625
1.883333	1	0.060375
1.900000	1	0.057875
1.916667	1	0.054875
1.933333	1	0.052250
1.950000	1	0.049375
1.966667	1	0.046625
1.983333	1	0.044125
2.000000	1	0.041125
2.016667	1	0.038750
2.033333	1	0.036750
2.050000	1	0.033750
2.066667	1	0.031375
2.083333	1	0.029125
2.100000	1	0.026250
2.116667	1	0.024125
2.133333	1	0.021875
2.150000	1	0.018875
2.166667	1	0.016375
2.183333	1	0.014500
2.200000	1	0.012000
2.216667	1	0.009625
2.233333	1	0.007250
2.250000	1	0.004875
2.266667	1	0.002250
2.283333	1	-0.000125
2.300000	1	-0.002625
2.316667	1	-0.005375
2.333333	1	-0.007625
2.350000	1	-0.010250
2.366667	1	-0.012500
2.383333	1	-0.015000
2.400000	1	-0.017250
2.416667	1	-0.019875
2.433333	1	-0.021875
2.450000	1	-0.024000
2.466667	1	-0.026500
2.483333	1	-0.028500
2.500000	1	-0.030750
2.516667	1	-0.033375
2.533333	1	-0.036125
2.550000	1	-0.038375
2.566667	1	-0.040375
2.583333	1	-0.042375
2.600000	1	-0.045500
2.616667	1	-0.047750
2.633333	1	-0.050125
2.650000	1	-0.052875
2.666667	1	-0.055125
2.683333	1	-0.057625
2.700000	1	-0.060375
2.716667	1	-0.062125
2.733333	1	-0.064125
2.750000	1	-0.066000
2.766667	1	-0.068375
2.783333	1	-0.070625
2.800000	1	-0.072750
2.816667	1	-0.074375
2.833333	1	-0.075750
2.850000	1	-0.077125
2.866667	1	-0.079125
2.883333	1	-0.080000
2.900000	1	-0.081375
2.916667	1	-0.082250
2.933333	1	-0.083125
2.950000	1	-0.084750
2.966667	1	-0.086125
2.983333	1	-0.087000
3.000000	1	-0.087500
3.016667	1	-0.087875
3.033333	1	-0.088000
3.050000	1	-0.088125
3.066667	1	-0.087750
3.083333	1	-0.088750
3.100000	1	-0.088250
3.116667	1	-0.087625
3.133333	1	-0.087250
3.150000	1	-0.086250
3.166667	1	-0.086500
3.183333	1	-0.085500
3.200000	1	-0.084250
3.216667	1	-0.083625
3.233333	1	-0.082500
3.250000	1	-0.081250
3.266667	1	-0.080000
3.283333	1	-0.078000
3.300000	1	-0.075750
3.316667	1	-0.073500
3.333333	1	-0.071250
3.350000	1	-0.069750
3.366667	1	-0.067375
3.383333	1	-0.065000
3.400000	1	-0.062375
3.416667	1	-0.060500
3.433333	1	-0.058000
3.450000	1	-0.055000
3.466667	1	-0.052500
3.483333	1	-0.049750
3.500000	1	-0.047125
3.516667	1	-0.043875
3.533333	1	-0.041125
3.550000	1	-0.037750
3.566667	1	-0.034625
3.583333	1	-0.031750
3.600000	1	-0.029375
3.616667	1	-0.025625
3.633333	1	-0.022625
3.650000	1	-0.019375
3.666667	1	-0.015375
3.683333	1	-0.012625
3.700000	1	-0.009250
3.716667	1	-0.006750
3.733333	1	-0.004000
3.750000	1	-0.001125
3.766667	1	0.002125
3.783333	1	0.004875
3.800000	1	0.007500
3.816667	1	0.009875
3.833333	1	0.012875
3.850000	1	0.015500
3.866667	1	0.018250
3.883333	1	0.020750
3.900000	1	0.023750
3.916667	1	0.025375
3.933333	1	0.027500
3.950000	1	0.029375
3.966667	1	0.031000
3.983333	1	0.032750
4.000000	1	0.034875
4.016667	1	0.037250
4.033333	1	0.039000
4.050000	1	0.040500
4.066667	1	0.041500
4.083333	1	0.043250
4.100000	1	0.044875
4.116667	1	0.046250
4.133333	1	0.047500
4.150000	1	0.049250
4.166667	1	0.050375
4.183333	1	0.051625
4.200000	1	0.052875
4.216667	1	0.053625
4.233333	1	0.054125
4.250000	1	0.055000
4.266667	1	0.056000
4.283333	1	0.056000
4.300000	1	0.057125
4.316667	1	0.057625
4.333333	1	0.058000
4.350000	1	0.057750
4.366667	1	0.058375
4.383333	1	0.058375
4.400000	1	0.058375
4.416667	1	0.058250
4.433333	1	0.058500
4.450000	1	0.058250
4.466667	1	0.058500
4.483333	1	0.058875
4.500000	1	0.058250
4.516667	1	0.058000
4.533333	1	0.057375
4.550000	1	0.056250
4.566667	1	0.055750
4.583333	1	0.054875
4.600000	1	0.054000
4.616667	1	0.053500
4.633333	1	0.052250
4.650000	1	0.052000
4.666667	1	0.051125
4.683333	1	0.050250
4.700000	1	0.049625
4.716667	1	0.049000
4.733333	1	0.048375
4.750000	1	0.048250
4.766667	1	0.047250
4.783333	1	0.046750
4.800000	1	0.046500
4.816667	1	0.045625
4.833333	1	0.045625
4.850000	1	0.044750
4.866667	1	0.043625
4.883333	1	0.042250
4.900000	1	0.041000
4.916667	1	0.040250
4.933333	1	0.039250
4.950000	1	0.038750
4.966667	1	0.038125
4.983333	1	0.037500
5.000000	1	0.036250
5.016667	1	0.035500
5.033333	1	0.034750
5.050000	1	0.033500
5.066667	1	0.033000
5.083333	1	0.031875
5.100000	1	0.031250
5.116667	1	0.030875
5.133333	1	0.030625
5.150000	1	0.029875
5.166667	1	0.029125
5.183333	1	0.028875
5.200000	1	0.028625
5.216667	1	0.028250
5.233333	1	0.028500
5.250000	1	0.028000
5.266667	1	0.027375
5.283333	1	0.027375
5.300000	1	0.027500
5.316667	1	0.027625
5.333333	1	0.028000
5.350000	1	0.028000
5.366667	1	0.028125
5.383333	1	0.028500
5.400000	1	0.029000
5.416667	1	0.029750
5.433333	1	0.029875
5.450000	1	0.030375
5.466667	1	0.030875
5.483333	1	0.031125
5.500000	1	0.032000
5.516667	1	0.033125
5.533333	1	0.034125
5.550000	1	0.035000
5.566667	1	0.035625
5.583333	1	0.036750
5.600000	1	0.037750
5.616667	1	0.039375
5.633333	1	0.040500
5.650000	1	0.041750
5.666667	1	0.042750
5.683333	1	0.043875
5.700000	1	0.045750
5.716667	1	0.047500
5.733333	1	0.049125
5.750000	1	0.050500
5.766667	1	0.052375
5.783333	1	0.054500
5.800000	1	0.056375
5.816667	1	0.057875
5.833333	1	0.060000
5.850000	1	0.062000
5.866667	1	0.064875
5.883333	1	0.067625
5.900000	1	0.070125
5.916667	1	0.072125
5.933333	1	0.075000
5.950000	1	0.077250
5.966667	1	0.079875
5.983333	1	0.082125
6.000000	1	0.084875
6.016667	1	0.087625
6.033333	1	0.090125
6.050000	1	0.093125
6.066667	1	0.095750
6.083333	1	0.098500
6.100000	1	0.101750
6.116667	1	0.104375
6.133333	1	0.107750
6.150000	1	0.111000
6.166667	1	0.114500
6.183333	1	0.117375
6.200000	1	0.121250
6.216667	1	0.124375
6.233333	1	0.127375
6.250000	1	0.131750
6.266667	1	0.135375
6.283333	1	0.138250
6.300000	1	0.141125
6.316667	1	0.144375
6.333333	1	0.147375
6.350000	1	0.150375
6.366667	1	0.153625
6.383333	1	0.156875
6.400000	1	0.160125
6.416667	1	0.163250
6.433333	1	0.165750
6.450000	1	0.168125
6.466667	1	0.170875
6.483333	1	0.173125
6.500000	1	0.175625
6.516667	1	0.177875
6.533333	1	0.179875
6.550000	1	0.181625
6.566667	1	0.183500
6.583333	1	0.185250
6.600000	1	0.186625
6.616667	1	0.188375
6.633333	1	0.189875
6.650000	1	0.190750
6.666667	1	0.191500
6.683333	1	0.193125
6.700000	1	0.193750
6.716667	1	0.195000
6.733333	1	0.195875
6.750000	1	0.196875
6.766667	1	0.198250
6.783333	1	0.198250
6.800000	1	0.198375
6.816667	1	0.198875
6.833333	1	0.198750
6.850000	1	0.199250
6.866667	1	0.199500
6.883333	1	0.200500
6.900000	1	0.201375
6.916667	1	0.201625
6.933333	1	0.202125
6.950000	1	0.202625
6.966667	1	0.203000
6.983333	1	0.203375
7.000000	1	0.203625
7.016667	1	0.204750
7.033333	1	0.204875
7.050000	1	0.205750
7.066667	1	0.206000
7.083333	1	0.206125
7.100000	1	0.206250
7.116667	1	0.207000
7.133333	1	0.207250
7.150000	1	0.207875
7.166667	1	0.208250
7.183333	1	0.209125
7.200000	1	0.209250
7.216667	1	0.209625
7.233333	1	0.209875
7.250000	1	0.210500
7.266667	1	0.211500
7.283333	1	0.212250
7.300000	1	0.212875
7.316667	1	0.212875
7.333333	1	0.213625
7.350000	1	0.214125
7.366667	1	0.215250
7.383333	1	0.215625
7.400000	1	0.216000
7.416667	1	0.216875
7.433333	1	0.217625
7.450000	1	0.218750
7.466667	1	0.219625
7.483333	1	0.220375
7.500000	1	0.220625
7.516667	1	0.221125
7.533333	1	0.222125
7.550000	1	0.223375
7.566667	1	0.224000
7.583333	1	0.225125
7.600000	1	0.226000
7.616667	1	0.227125
7.633333	1	0.227875
7.650000	1	0.228625
7.666667	1	0.229750
7.683333	1	0.229750
7.700000	1	0.230250
7.716667	1	0.231000
7.733333	1	0.231750
7.750000	1	0.232000
7.766667	1	0.233125
7.783333	1	0.234000
7.800000	1	0.234500
7.816667	1	0.234875
7.833333	1	0.235500
7.850000	1	0.235875
7.866667	1	0.235750
7.883333	1	0.236125
7.900000	1	0.236375
7.916667	1	0.236625
7.933333	1	0.236750
7.950000	1	0.236625
7.966667	1	0.236500
7.983333	1	0.235875
8.000000	1	0.235750
8.016667	1	0.234625
8.033333	1	0.234375
8.050000	1	0.233875
8.066667	1	0.233375
8.083333	1	0.232250
8.100000	1	0.231500
8.116667	1	0.230250
8.133333	1	0.228500
8.150000	1	0.227500
8.166667	1	0.226500
8.183333	1	0.225125
8.200000	1	0.223250
8.216667	1	0.221750
8.233333	1	0.219875
8.250000	1	0.218250
8.266667	1	0.216875
8.283333	1	0.214750
8.300000	1	0.212875
8.316667	1	0.211125
8.333333	1	0.208750
8.350000	1	0.205875
8.366667	1	0.203750
8.383333	1	0.202125
8.400000	1	0.199625
8.416667	1	0.197625
8.433333	1	0.195000
8.450000	1	0.192875
8.466667	1	0.190500
8.483333	1	0.188000
8.500000	1	0.185250
8.516667	1	0.183375
8.533333	1	0.181000
8.550000	1	0.178500
8.566667	1	0.176250
8.583333	1	0.173750
8.600000	1	0.171750
8.616667	1	0.169250
8.633333	1	0.167125
8.650000	1	0.164500
8.666667	1	0.161875
8.683333	1	0.159750
8.700000	1	0.157750
8.716667	1	0.155625
8.733333	1	0.152750
8.750000	1	0.150750
8.766667	1	0.149250
8.783333	1	0.146875
8.800000	1	0.144875
8.816667	1	0.143125
8.833333	1	0.141000
8.850000	1	0.138750
8.866667	1	0.137000
8.883333	1	0.135375
8.900000	1	0.134000
8.916667	1	0.133250
8.933333	1	0.131625
8.950000	1	0.130500
8.966667	1	0.129250
8.983333	1	0.128000
9.000000	1	0.127250
9.016667	1	0.127125
9.033333	1	0.126375
9.050000	1	0.125625
9.066667	1	0.124875
9.083333	1	0.124500
9.100000	1	0.124750
9.116667	1	0.125250
9.133333	1	0.125375
9.150000	1	0.125500
9.166667	1	0.125625
9.183333	1	0.125500
9.200000	1	0.126000
9.216667	1	0.126750
9.233333	1	0.127125
9.250000	1	0.127625
9.266667	1	0.127625
9.283333	1	0.128625
9.300000	1	0.129875
9.316667	1	0.130375
9.333333	1	0.130875
9.350000	1	0.132000
9.366667	1	0.133375
9.383333	1	0.135000
9.400000	1	0.136625
9.416667	1	0.138875
9.433333	1	0.140250
9.450000	1	0.141750
9.466667	1	0.143875
9.483333	1	0.146250
9.500000	1	0.148500
9.516667	1	0.151000
9.533333	1	0.153875
9.550000	1	0.156625
9.566667	1	0.159375
9.583333	1	0.162625
9.600000	1	0.165750
9.616667	1	0.169375
9.633333	1	0.172750
9.650000	1	0.176375
9.666667	1	0.179625
9.683333	1	0.183875
9.700000	1	0.188125
9.716667	1	0.193500
9.733333	1	0.197625
9.750000	1	0.203000
9.766667	1	0.208000
9.783333	1	0.213875
9.800000	1	0.219375
9.816667	1	0.226125
9.833333	1	0.233250
9.850000	1	0.241500
9.866667	1	0.249875
9.883333	1	0.259750
9.900000	1	0.270750
9.916667	1	0.283500
9.933333	1	0.297125
9.950000	1	0.312375
9.966667	1	0.330000
9.983333	1	0.350500
10.000000	1	0.373125
10.016667	1	0.398375
10.033333	1	0.426125
10.050000	1	0.456875
10.066667	1	0.490250
10.083333	1	0.526250
10.100000	1	0.564750
10.116667	1	0.607750
10.133333	1	0.654625
10.150000	1	0.705250
10.166667	1	0.760125
10.183333	1	0.818500
10.200000	1	0.877375
10.216667	1	0.932250
10.233333	1	0.977375
10.250000	1	1.008000
10.266667	1	1.019250
10.283333	1	1.009750
10.300000	1	0.984250
10.316667	1	0.952750
10.333333	1	0.931500
10.350000	1	0.942875
10.366667	1	1.016250
10.383333	1	1.184625
10.400000	1	1.487750
10.416667	1	1.967500
10.433333	1	2.666875
10.450000	1	3.631125
10.466667	1	4.905125
10.483333	1	6.534750
10.500000	1	8.564000
10.516667	1	11.035000
10.533333	1	13.985625
10.550000	1	17.448375
10.566667	1	21.449375
10.583333	1	26.007000
10.600000	1	31.129500
10.616667	1	36.814250
10.633333	1	43.040125
10.650000	1	49.760750
10.666667	1	56.910250
10.683333	1	64.383375
10.700000	1	72.034875
10.716667	1	79.671625
10.733333	1	87.058625
10.750000	1	93.928250
10.766667	1	99.994125
10.783333	1	104.968375
10.800000	1	108.587375
10.816667	1	110.642625
10.833333	1	110.999250
10.850000	1	109.626250
10.866667	1	106.588375
10.883333	1	102.047125
10.900000	1	96.239375
10.916667	1	89.456625
10.933333	1	82.018125
10.950000	1	74.242250
10.966667	1	66.427500
10.983333	1	58.832125
11.000000	1	51.660875
11.016667	1	45.062625
11.033333	1	39.133250
11.050000	1	33.915625
11.066667	1	29.408250
11.083333	1	25.580250
11.100000	1	22.377125
11.116667	1	19.731375
11.133333	1	17.567625
11.150000	1	15.813000
11.166667	1	14.393250
11.183333	1	13.247500
11.200000	1	12.316750
11.216667	1	11.553500
11.233333	1	10.917250
11.250000	1	10.376125
11.266667	1	9.905000
11.283333	1	9.482875
11.300000	1	9.096500
11.316667	1	8.734250
11.333333	1	8.389000
11.350000	1	8.056000
11.366667	1	7.732750
11.383333	1	7.417625
11.400000	1	7.110375
11.416667	1	6.812875
11.433333	1	6.524500
11.450000	1	6.246500
11.466667	1	5.979375
11.483333	1	5.725875
11.500000	1	5.484875
11.516667	1	5.258375
11.533333	1	5.046250
11.550000	1	4.850750
11.566667	1	4.672250
11.583333	1	4.509875
11.600000	1	4.364875
11.616667	1	4.237500
11.633333	1	4.127125
11.650000	1	4.031500
11.666667	1	3.950375
11.683333	1	3.881500
11.700000	1	3.823875
11.716667	1	3.774625
11.733333	1	3.732000
11.750000	1	3.695250
11.766667	1	3.661875
11.783333	1	3.632375
11.800000	1	3.605000
11.816667	1	3.578375
11.833333	1	3.552000
11.850000	1	3.526750
11.866667	1	3.499750
11.883333	1	3.471750
11.900000	1	3.441875
11.916667	1	3.411125
11.933333	1	3.378000
11.950000	1	3.342875
11.966667	1	3.305875
11.983333	1	3.267250
12.000000	1	3.228750
12.016667	1	3.188875
12.033333	1	3.149000
12.050000	1	3.108375
12.066667	1	3.068375
12.083333	1	3.028500
12.100000	1	2.988875
12.116667	1	2.948750
12.133333	1	2.908375
12.150000	1	2.868625
12.166667	1	2.828500
12.183333	1	2.787750
12.200000	1	2.746500
12.216667	1	2.705000
12.233333	1	2.664000
12.250000	1	2.623250
12.266667	1	2.582500
12.283333	1	2.542500
12.300000	1	2.504000
12.316667	1	2.465875
12.333333	1	2.429000
12.350000	1	2.394000
12.366667	1	2.360500
12.383333	1	2.328875
12.400000	1	2.299250
12.416667	1	2.271500
12.433333	1	2.246250
12.450000	1	2.224000
12.466667	1	2.204500
12.483333	1	2.188000
12.500000	1	2.175625
12.516667	1	2.168375
12.533333	1	2.166125
12.550000	1	2.171750
12.566667	1	2.184500
12.583333	1	2.207375
12.600000	1	2.241750
12.616667	1	2.290125
12.633333	1	2.353375
12.650000	1	2.436250
12.666667	1	2.542000
12.683333	1	2.674000
12.700000	1	2.836250
12.716667	1	3.032625
12.733333	1	3.266250
12.750000	1	3.541000
12.766667	1	3.857125
12.783333	1	4.217000
12.800000	1	4.619250
12.816667	1	5.062500
12.833333	1	5.543250
12.850000	1	6.058000
12.866667	1	6.603750
12.883333	1	7.175375
12.900000	1	7.767500
12.916667	1	8.376750
12.933333	1	8.999250
12.950000	1	9.630000
12.966667	1	10.268000
12.983333	1	10.909250
13.000000	1	11.550875
13.016667	1	12.192250
13.033333	1	12.831875
13.050000	1	13.468500
13.066667	1	14.103750
13.083333	1	14.736625
13.100000	1	15.365000
13.116667	1	15.988375
13.133333	1	16.604375
13.150000	1	17.207500
13.166667	1	17.789625
13.183333	1	18.341625
13.200000	1	18.851500
13.216667	1	19.309750
13.233333	1	19.707000
13.250000	1	20.037250
13.266667	1	20.293750
13.283333	1	20.472625
13.300000	1	20.571000
13.316667	1	20.589125
13.333333	1	20.527750
13.350000	1	20.391125
13.366667	1	20.183000
13.383333	1	19.908875
13.400000	1	19.576250
13.416667	1	19.191875
13.433333	1	18.763125
13.450000	1	18.296750
13.466667	1	17.799875
13.483333	1	17.279000
13.500000	1	16.739750
13.516667	1	16.187875
13.533333	1	15.629500
13.550000	1	15.069375
13.566667	1	14.512375
13.583333	1	13.962375
13.600000	1	13.423000
13.616667	1	12.896750
13.633333	1	12.386125
13.650000	1	11.890125
13.666667	1	11.409500
13.683333	1	10.944625
13.700000	1	10.494000
13.716667	1	10.056500
13.733333	1	9.632250
13.750000	1	9.219750
13.766667	1	8.818375
13.783333	1	8.427625
13.800000	1	8.048375
13.816667	1	7.682625
13.833333	1	7.331250
13.850000	1	6.997125
13.866667	1	6.682750
13.883333	1	6.389375
13.900000	1	6.120625
13.916667	1	5.877125
13.933333	1	5.657750
13.950000	1	5.463375
13.966667	1	5.292750
13.983333	1	5.144000
14.000000	1	5.016125
14.016667	1	4.906000
14.033333	1	4.812375
14.050000	1	4.732625
14.066667	1	4.664875
14.083333	1	4.608250
14.100000	1	4.561250
14.116667	1	4.520500
14.133333	1	4.485250
14.150000	1	4.453875
14.166667	1	4.423375
14.183333	1	4.391500
14.200000	1	4.356500
14.216667	1	4.317375
14.233333	1	4.272000
14.250000	1	4.218500
14.266667	1	4.157500
14.283333	1	4.088375
14.300000	1	4.010750
14.316667	1	3.925750
14.333333	1	3.834000
14.350000	1	3.736500
14.366667	1	3.635250
14.383333	1	3.533125
14.400000	1	3.430750
14.416667	1	3.332000
14.433333	1	3.237250
14.450000	1	3.148625
14.466667	1	3.068125
14.483333	1	2.997375
14.500000	1	2.938625
14.516667	1	2.892125
14.533333	1	2.860250
14.550000	1	2.844375
14.566667	1	2.845125
14.583333	1	2.863250
14.600000	1	2.900125
14.616667	1	2.955500
14.633333	1	3.031375
14.650000	1	3.125875
14.666667	1	3.241500
14.683333	1	3.376625
14.700000	1	3.532500
14.716667	1	3.708125
14.733333	1	3.903375
14.750000	1	4.116625
14.766667	1	4.348500
14.783333	1	4.596750
14.800000	1	4.861500
14.816667	1	5.140500
14.833333	1	5.430375
14.850000	1	5.729375
14.866667	1	6.031250
14.883333	1	6.332000
14.900000	1	6.626750
14.916667	1	6.912625
14.933333	1	7.187000
14.950000	1	7.451750
14.966667	1	7.708500
14.983333	1	7.961000
15.000000	1	8.216750
15.016667	1	8.484250
15.033333	1	8.773375
15.050000	1	9.095750
15.066667	1	9.461750
15.083333	1	9.881125
15.100000	1	10.362125
15.116667	1	10.910125
15.133333	1	11.525250
15.150000	1	12.206625
15.166667	1	12.948000
15.183333	1	13.739875
15.200000	1	14.569375
15.216667	1	15.424125
15.233333	1	16.290000
15.250000	1	17.154125
15.266667	1	18.000750
15.283333	1	18.816250
15.300000	1	19.588125
15.316667	1	20.304375
15.333333	1	20.953625
15.350000	1	21.525375
15.366667	1	22.009375
15.383333	1	22.396125
15.400000	1	22.678125
15.416667	1	22.848250
15.433333	1	22.901875
15.450000	1	22.835000
15.466667	1	22.646500
15.483333	1	22.338375
15.500000	1	21.913875
15.516667	1	21.381750
15.533333	1	20.752000
15.550000	1	20.036625
15.566667	1	19.250500
15.583333	1	18.407125
15.600000	1	17.520250
15.616667	1	16.604000
15.633333	1	15.672750
15.650000	1	14.736750
15.666667	1	13.807750
15.683333	1	12.896625
15.700000	1	12.011625
15.716667	1	11.160625
15.733333	1	10.348625
15.750000	1	9.580875
15.766667	1	8.860500
15.783333	1	8.190125
15.800000	1	7.570000
15.816667	1	7.000250
15.833333	1	6.480500
15.850000	1	6.009875
15.866667	1	5.585250
15.883333	1	5.207000
15.900000	1	4.870875
15.916667	1	4.574500
15.933333	1	4.314750
15.950000	1	4.089250
15.966667	1	3.895750
15.983333	1	3.731375
16.000000	1	3.593125
16.016667	1	3.479125
16.033333	1	3.387500
16.050000	1	3.316000
16.066667	1	3.263875
16.083333	1	3.228750
16.100000	1	3.208625
16.116667	1	3.202625
16.133333	1	3.210500
16.150000	1	3.229000
16.166667	1	3.257375
16.183333	1	3.294000
16.200000	1	3.338000
16.216667	1	3.388500
16.233333	1	3.444750
16.250000	1	3.506250
16.266667	1	3.574500
16.283333	1	3.649125
16.300000	1	3.731250
16.316667	1	3.823125
16.333333	1	3.926000
16.350000	1	4.041250
16.366667	1	4.170750
16.383333	1	4.315125
16.400000	1	4.475250
16.416667	1	4.650250
16.433333	1	4.839625
16.450000	1	5.040750
16.466667	1	5.251750
16.483333	1	5.469125
16.500000	1	5.688875
16.516667	1	5.907625
16.533333	1	6.122875
16.550000	1	6.330125
16.566667	1	6.526875
16.583333	1	6.709250
16.600000	1	6.876875
16.616667	1	7.026500
16.633333	1	7.158000
16.650000	1	7.268500
16.666667	1	7.357500
16.683333	1	7.422750
16.700000	1	7.463125
16.716667	1	7.477000
16.733333	1	7.464625
16.750000	1	7.424375
16.766667	1	7.356375
16.783333	1	7.260000
16.800000	1	7.137750
16.816667	1	6.989375
16.833333	1	6.817625
16.850000	1	6.625250
16.866667	1	6.415125
16.883333	1	6.189500
16.900000	1	5.953125
16.916667	1	5.708875
16.933333	1	5.459375
16.950000	1	5.209375
16.966667	1	4.960750
16.983333	1	4.716250
17.000000	1	4.477875
17.016667	1	4.247875
17.033333	1	4.027500
17.050000	1	3.817875
17.066667	1	3.619250
17.083333	1	3.433250
17.100000	1	3.260250
17.116667	1	3.099625
17.133333	1	2.951625
17.150000	1	2.816125
17.166667	1	2.692000
17.183333	1	2.579000
17.200000	1	2.476250
17.216667	1	2.383125
17.233333	1	2.298875
17.250000	1	2.222875
17.266667	1	2.154625
17.283333	1	2.093250
17.300000	1	2.038500
17.316667	1	1.988625
17.333333	1	1.943875
17.350000	1	1.902875
17.366667	1	1.866875
17.383333	1	1.834625
17.400000	1	1.804875
17.416667	1	1.778250
17.433333	1	1.753500
17.450000	1	1.730625
17.466667	1	1.709250
17.483333	1	1.689500
17.500000	1	1.671875
17.516667	1	1.655000
17.533333	1	1.639125
17.550000	1	1.624000
17.566667	1	1.609250
17.583333	1	1.596250
17.600000	1	1.583125
17.616667	1	1.570375
17.633333	1	1.558750
17.650000	1	1.546750
17.666667	1	1.535500
17.683333	1	1.525375
17.700000	1	1.514625
17.716667	1	1.504000
17.733333	1	1.494000
17.750000	1	1.484500
17.766667	1	1.474875
17.783333	1	1.466125
17.800000	1	1.458375
17.816667	1	1.451250
17.833333	1	1.444375
17.850000	1	1.438250
17.866667	1	1.432875
17.883333	1	1.429625
17.900000	1	1.427500
17.916667	1	1.426500
17.933333	1	1.427500
17.950000	1	1.429250
17.966667	1	1.433125
17.983333	1	1.439250
18.000000	1	1.446625
18.016667	1	1.455375
18.033333	1	1.467375
18.050000	1	1.481250
18.066667	1	1.497375
18.083333	1	1.514125
18.100000	1	1.534000
18.116667	1	1.554125
18.133333	1	1.576875
18.150000	1	1.600875
18.166667	1	1.626125
18.183333	1	1.652500
18.200000	1	1.678750
18.216667	1	1.705500
18.233333	1	1.732125
18.250000	1	1.758875
18.266667	1	1.785375
18.283333	1	1.811625
18.300000	1	1.836750
18.316667	1	1.861125
18.333333	1	1.883750
18.350000	1	1.904875
18.366667	1	1.925125
18.383333	1	1.943750
18.400000	1	1.960375
18.416667	1	1.975875
18.433333	1	1.987875
18.450000	1	1.997625
18.466667	1	2.005125
18.483333	1	2.010250
18.500000	1	2.012500
18.516667	1	2.012625
18.533333	1	2.009875
18.550000	1	2.005125
18.566667	1	1.998875
18.583333	1	1.989750
18.600000	1	1.978875
18.616667	1	1.966375
18.633333	1	1.951875
18.650000	1	1.936250
18.666667	1	1.920375
18.683333	1	1.902750
18.700000	1	1.884375
18.716667	1	1.865625
18.733333	1	1.845875
18.750000	1	1.825625
18.766667	1	1.804375
18.783333	1	1.782875
18.800000	1	1.761125
18.816667	1	1.739125
18.833333	1	1.717875
18.850000	1	1.695375
18.866667	1	1.673875
18.883333	1	1.652250
18.900000	1	1.630250
18.916667	1	1.608000
18.933333	1	1.586750
18.950000	1	1.565125
18.966667	1	1.544875
18.983333	1	1.524625
19.000000	1	1.504500
19.016667	1	1.485750
19.033333	1	1.467125
19.050000	1	1.449125
19.066667	1	1.432000
19.083333	1	1.414875
19.100000	1	1.398000
19.116667	1	1.382000
19.133333	1	1.367125
19.150000	1	1.352250
19.166667	1	1.338125
19.183333	1	1.324500
19.200000	1	1.311500
19.216667	1	1.299625
19.233333	1	1.289375
19.250000	1	1.279250
19.266667	1	1.271000
19.283333	1	1.264500
19.300000	1	1.259250
19.316667	1	1.256125
19.333333	1	1.255250
19.350000	1	1.256250
19.366667	1	1.260875
19.383333	1	1.267125
19.400000	1	1.276875
19.416667	1	1.288625
19.433333	1	1.303125
19.450000	1	1.320875
19.466667	1	1.341500
19.483333	1	1.364375
19.500000	1	1.390500
19.516667	1	1.418250
19.533333	1	1.447750
19.550000	1	1.479250
19.566667	1	1.512125
19.583333	1	1.545875
19.600000	1	1.579750
19.616667	1	1.614625
19.633333	1	1.648875
19.650000	1	1.683625
19.666667	1	1.717875
19.683333	1	1.750250
19.700000	1	1.781375
19.716667	1	1.810250
19.733333	1	1.837125
19.750000	1	1.862125
19.766667	1	1.883875
19.783333	1	1.903250
19.800000	1	1.919250
19.816667	1	1.931500
19.833333	1	1.939625
19.850000	1	1.944000
19.866667	1	1.944500
19.883333	1	1.941000
19.900000	1	1.933125
19.916667	1	1.921000
19.933333	1	1.904500
19.950000	1	1.885125
19.966667	1	1.861625
19.983333	1	1.835125
20.000000	1	1.805875
20.016667	1	1.774625
20.033333	1	1.740625
20.050000	1	1.706000
20.066667	1	1.669875
20.083333	1	1.633125
20.100000	1	1.598125
20.116667	1	1.563625
20.133333	1	1.530000
20.150000	1	1.498250
20.166667	1	1.468250
20.183333	1	1.440625
20.200000	1	1.416500
20.216667	1	1.394875
20.233333	1	1.375875
20.250000	1	1.359375
20.266667	1	1.346625
20.283333	1	1.337000
20.300000	1	1.330250
20.316667	1	1.326125
20.333333	1	1.324000
20.350000	1	1.324500
20.366667	1	1.327125
20.383333	1	1.330750
20.400000	1	1.336375
20.416667	1	1.343500
20.433333	1	1.351125
20.450000	1	1.360500
20.466667	1	1.370000
20.483333	1	1.380250
20.500000	1	1.391500
20.516667	1	1.402375
20.533333	1	1.414375
20.550000	1	1.427500
20.566667	1	1.441000
20.583333	1	1.455500
20.600000	1	1.471375
20.616667	1	1.488750
20.633333	1	1.507875
20.650000	1	1.527625
20.666667	1	1.549375
20.683333	1	1.573250
20.700000	1	1.598125
20.716667	1	1.624500
20.733333	1	1.652125
20.750000	1	1.681375
20.766667	1	1.712125
20.783333	1	1.742500
20.800000	1	1.773500
20.816667	1	1.805250
20.833333	1	1.836750
20.850000	1	1.868000
20.866667	1	1.897750
20.883333	1	1.926250
20.900000	1	1.953625
20.916667	1	1.978875
20.933333	1	2.002375
20.950000	1	2.023875
20.966667	1	2.043000
20.983333	1	2.060000
21.000000	1	2.073750
21.016667	1	2.085125
21.033333	1	2.093500
21.050000	1	2.099000
21.066667	1	2.100250
21.083333	1	2.098125
21.100000	1	2.091875
21.116667	1	2.082875
21.133333	1	2.070875
21.150000	1	2.056250
21.166667	1	2.038000
21.183333	1	2.016750
21.200000	1	1.993625
21.216667	1	1.968625
21.233333	1	1.941875
21.250000	1	1.912750
21.266667	1	1.882375
21.283333	1	1.851875
21.300000	1	1.820750
21.316667	1	1.789500
21.333333	1	1.758750
21.350000	1	1.728375
21.366667	1	1.698250
21.383333	1	1.669500
21.400000	1	1.641125
21.416667	1	1.614125
21.433333	1	1.588000
21.450000	1	1.563125
21.466667	1	1.539375
21.483333	1	1.516125
21.500000	1	1.494375
21.516667	1	1.473125
21.533333	1	1.452500
21.550000	1	1.431750
21.566667	1	1.410500
21.583333	1	1.388125
21.600000	1	1.366125
21.616667	1	1.343750
21.633333	1	1.319625
21.650000	1	1.294875
21.666667	1	1.269750
21.683333	1	1.242875
21.700000	1	1.215875
21.716667	1	1.187875
21.733333	1	1.159750
21.750000	1	1.131000
21.766667	1	1.101875
21.783333	1	1.073000
21.800000	1	1.044000
21.816667	1	1.015000
21.833333	1	0.987000
21.850000	1	0.959625
21.866667	1	0.933000
21.883333	1	0.907375
21.900000	1	0.883250
21.916667	1	0.860625
21.933333	1	0.838875
21.950000	1	0.818250
21.966667	1	0.799500
21.983333	1	0.782000
22.000000	1	0.765625
22.016667	1	0.750750
22.033333	1	0.736500
22.050000	1	0.724750
22.066667	1	0.714750
22.083333	1	0.705750
22.100000	1	0.698000
22.116667	1	0.690500
22.133333	1	0.684875
22.150000	1	0.680500
22.166667	1	0.677125
22.183333	1	0.675250
22.200000	1	0.675125
22.216667	1	0.675750
22.233333	1	0.676500
22.250000	1	0.678375
22.266667	1	0.681375
22.283333	1	0.685000
22.300000	1	0.690125
22.316667	1	0.695375
22.333333	1	0.701125
22.350000	1	0.707250
22.366667	1	0.714000
22.383333	1	0.720000
22.400000	1	0.726250
22.416667	1	0.731875
22.433333	1	0.737750
22.450000	1	0.744000
22.466667	1	0.749875
22.483333	1	0.754875
22.500000	1	0.759250
22.516667	1	0.763750
22.533333	1	0.766875
22.550000	1	0.770250
22.566667	1	0.771750
22.583333	1	0.773125
22.600000	1	0.774125
22.616667	1	0.774375
22.633333	1	0.773250
22.650000	1	0.771000
22.666667	1	0.768625
22.683333	1	0.766250
22.700000	1	0.763250
22.716667	1	0.758875
22.733333	1	0.754500
22.750000	1	0.749250
22.766667	1	0.743875
22.783333	1	0.738250
22.800000	1	0.732500
22.816667	1	0.727375
22.833333	1	0.721250
22.850000	1	0.715500
22.866667	1	0.711000
22.883333	1	0.706500
22.900000	1	0.702875
22.916667	1	0.700250
22.933333	1	0.697750
22.950000	1	0.696375
22.966667	1	0.695750
22.983333	1	0.696375
23.000000	1	0.697125
23.016667	1	0.697875
23.033333	1	0.699750
23.050000	1	0.702250
23.066667	1	0.704875
23.083333	1	0.708375
23.100000	1	0.712000
23.116667	1	0.715875
23.133333	1	0.720125
23.150000	1	0.724000
23.166667	1	0.727500
23.183333	1	0.730750
23.200000	1	0.733875
23.216667	1	0.737250
23.233333	1	0.739500
23.250000	1	0.741625
23.266667	1	0.743250
23.283333	1	0.744250
23.300000	1	0.744875
23.316667	1	0.745250
23.333333	1	0.745125
23.350000	1	0.744000
23.366667	1	0.741500
23.383333	1	0.737750
23.400000	1	0.734375
23.416667	1	0.730625
23.433333	1	0.725875
23.450000	1	0.720125
23.466667	1	0.714125
23.483333	1	0.707375
23.500000	1	0.700750
23.516667	1	0.693375
23.533333	1	0.685250
23.550000	1	0.676375
23.566667	1	0.668125
23.583333	1	0.658750
23.600000	1	0.649750
23.616667	1	0.640375
23.633333	1	0.631125
23.650000	1	0.622000
23.666667	1	0.613250
23.683333	1	0.603500
23.700000	1	0.594375
23.716667	1	0.585875
23.733333	1	0.577750
23.750000	1	0.569375
23.766667	1	0.561125
23.783333	1	0.553625
23.800000	1	0.545875
23.816667	1	0.539750
23.833333	1	0.533125
23.850000	1	0.526750
23.866667	1	0.521125
23.883333	1	0.516875
23.900000	1	0.513375
23.916667	1	0.510875
23.933333	1	0.508750
23.950000	1	0.508000
23.966667	1	0.509375
23.983333	1	0.512875
24.000000	1	0.516750
24.016667	1	0.523375
24.033333	1	0.532000
24.050000	1	0.542500
24.066667	1	0.555375
24.083333	1	0.570500
24.100000	1	0.587750
24.116667	1	0.607375
24.133333	1	0.629125
24.150000	1	0.653625
24.166667	1	0.679500
24.183333	1	0.707625
24.200000	1	0.736375
24.216667	1	0.766875
24.233333	1	0.798875
24.250000	1	0.831250
24.266667	1	0.865125
24.283333	1	0.897750
24.300000	1	0.931500
24.316667	1	0.964250
24.333333	1	0.997250
24.350000	1	1.028625
24.366667	1	1.059000
24.383333	1	1.087625
24.400000	1	1.114750
24.416667	1	1.140250
24.433333	1	1.163250
24.450000	1	1.183750
24.466667	1	1.202875
24.483333	1	1.219000
24.500000	1	1.232875
24.516667	1	1.243875
24.533333	1	1.251875
24.550000	1	1.257000
24.566667	1	1.259250
24.583333	1	1.257625
24.600000	1	1.254000
24.616667	1	1.247250
24.633333	1	1.237625
24.650000	1	1.225625
24.666667	1	1.210875
24.683333	1	1.194250
24.700000	1	1.175875
24.716667	1	1.155875
24.733333	1	1.134750
24.750000	1	1.113125
24.766667	1	1.090875
24.783333	1	1.069000
24.800000	1	1.046875
24.816667	1	1.025000
24.833333	1	1.004375
24.850000	1	0.983875
24.866667	1	0.965500
24.883333	1	0.948875
24.900000	1	0.933125
24.916667	1	0.920000
24.933333	1	0.907750
24.950000	1	0.896625
24.966667	1	0.887250
24.983333	1	0.879875
25.000000	1	0.874000
25.016667	1	0.869125
25.033333	1	0.865125
25.050000	1	0.863250
25.066667	1	0.861500
25.083333	1	0.860000
25.100000	1	0.859000
25.116667	1	0.858750
25.133333	1	0.858250
25.150000	1	0.857875
25.166667	1	0.856750
25.183333	1	0.855375
25.200000	1	0.852875
25.216667	1	0.850500
25.233333	1	0.848250
25.250000	1	0.843500
25.266667	1	0.838375
25.283333	1	0.832000
25.300000	1	0.824500
25.316667	1	0.816500
25.333333	1	0.807125
25.350000	1	0.796625
25.366667	1	0.784375
25.383333	1	0.770500
25.400000	1	0.756250
25.416667	1	0.741000
25.433333	1	0.725375
25.450000	1	0.707875
25.466667	1	0.690875
25.483333	1	0.673125
25.500000	1	0.655500
25.516667	1	0.636500
25.533333	1	0.617750
25.550000	1	0.599500
25.566667	1	0.581625
25.583333	1	0.564000
25.600000	1	0.546625
25.616667	1	0.529875
25.633333	1	0.514250
25.650000	1	0.499250
25.666667	1	0.484750
25.683333	1	0.470875
25.700000	1	0.457875
25.716667	1	0.445375
25.733333	1	0.434750
25.750000	1	0.425125
25.766667	1	0.416500
25.783333	1	0.409125
25.800000	1	0.402000
25.816667	1	0.396125
25.833333	1	0.391000
25.850000	1	0.387250
25.866667	1	0.384250
25.883333	1	0.381500
25.900000	1	0.379875
25.916667	1	0.378875
25.933333	1	0.377375
25.950000	1	0.376875
25.966667	1	0.377625
25.983333	1	0.378750
26.000000	1	0.380625
26.016667	1	0.382875
26.033333	1	0.384750
26.050000	1	0.386875
26.066667	1	0.389000
26.083333	1	0.392000
26.100000	1	0.394625
26.116667	1	0.398000
26.133333	1	0.400750
26.150000	1	0.404500
26.166667	1	0.407875
26.183333	1	0.411375
26.200000	1	0.415375
26.216667	1	0.418750
26.233333	1	0.422500
26.250000	1	0.426375
26.266667	1	0.429625
26.283333	1	0.432500
26.300000	1	0.435750
26.316667	1	0.439375
26.333333	1	0.443250
26.350000	1	0.447250
26.366667	1	0.450875
26.383333	1	0.453250
26.400000	1	0.456125
26.416667	1	0.459000
26.433333	1	0.462500
26.450000	1	0.465500
26.466667	1	0.468750
26.483333	1	0.471375
26.500000	1	0.474625
26.516667	1	0.477750
26.533333	1	0.480375
26.550000	1	0.483875
26.566667	1	0.487375
26.583333	1	0.490375
26.600000	1	0.493250
26.616667	1	0.496500
26.633333	1	0.499750
26.650000	1	0.502875
26.666667	1	0.506000
26.683333	1	0.510000
26.700000	1	0.513375
26.716667	1	0.517125
26.733333	1	0.521250
26.750000	1	0.525625
26.766667	1	0.529000
26.783333	1	0.533125
26.800000	1	0.537375
26.816667	1	0.541625
26.833333	1	0.545500
26.850000	1	0.548875
26.866667	1	0.553375
26.883333	1	0.557500
26.900000	1	0.561500
26.916667	1	0.565625
26.933333	1	0.569500
26.950000	1	0.572250
26.966667	1	0.574500
26.983333	1	0.577125
27.000000	1	0.579000
27.016667	1	0.580375
27.033333	1	0.582125
27.050000	1	0.583125
27.066667	1	0.583750
27.083333	1	0.584250
27.100000	1	0.583750
27.116667	1	0.582625
27.133333	1	0.581625
27.150000	1	0.579500
27.166667	1	0.577500
27.183333	1	0.576125
27.200000	1	0.573750
27.216667	1	0.570500
27.233333	1	0.566875
27.250000	1	0.562625
27.266667	1	0.558250
27.283333	1	0.553250
27.300000	1	0.548375
27.316667	1	0.543250
27.333333	1	0.537500
27.350000	1	0.532125
27.366667	1	0.525500
27.383333	1	0.518625
27.400000	1	0.511750
27.416667	1	0.504875
27.433333	1	0.498250
27.450000	1	0.490750
27.466667	1	0.483500
27.483333	1	0.476625
27.500000	1	0.469125
27.516667	1	0.461625
27.533333	1	0.453375
27.550000	1	0.445625
27.566667	1	0.437250
27.583333	1	0.429250
27.600000	1	0.421625
27.616667	1	0.414000
27.633333	1	0.405750
27.650000	1	0.397625
27.666667	1	0.389750
27.683333	1	0.381875
27.700000	1	0.374875
27.716667	1	0.367500
27.733333	1	0.360875
27.750000	1	0.354125
27.766667	1	0.347875
27.783333	1	0.341375
27.800000	1	0.335250
27.816667	1	0.329750
27.833333	1	0.325375
27.850000	1	0.321625
27.866667	1	0.318875
27.883333	1	0.317125
27.900000	1	0.317000
27.916667	1	0.318750
27.933333	1	0.322750
27.950000	1	0.328750
27.966667	1	0.337875
27.983333	1	0.349000
28.000000	1	0.364625
28.016667	1	0.383875
28.033333	1	0.407625
28.050000	1	0.435750
28.066667	1	0.468750
28.083333	1	0.506500
28.100000	1	0.550500
28.116667	1	0.600250
28.133333	1	0.655750
28.150000	1	0.717625
28.166667	1	0.785000
28.183333	1	0.858625
28.200000	1	0.937875
28.216667	1	1.022125
28.233333	1	1.111500
28.250000	1	1.206000
28.266667	1	1.304000
28.283333	1	1.406500
28.300000	1	1.511625
28.316667	1	1.619125
28.333333	1	1.727875
28.350000	1	1.836875
28.366667	1	1.945625
28.383333	1	2.053500
28.400000	1	2.160875
28.416667	1	2.265875
28.433333	1	2.367375
28.450000	1	2.466125
28.466667	1	2.561625
28.483333	1	2.652375
28.500000	1	2.738875
28.516667	1	2.820500
28.533333	1	2.896875
28.550000	1	2.967625
28.566667	1	3.033625
28.583333	1	3.092750
28.600000	1	3.145500
28.616667	1	3.192125
28.633333	1	3.231500
28.650000	1	3.264250
28.666667	1	3.289250
28.683333	1	3.307625
28.700000	1	3.318625
28.716667	1	3.321250
28.733333	1	3.315875
28.750000	1	3.301500
28.766667	1	3.279125
28.783333	1	3.248000
28.800000	1	3.208750
28.816667	1	3.161125
28.833333	1	3.104875
28.850000	1	3.040375
28.866667	1	2.967750
28.883333	1	2.888125
28.900000	1	2.801625
28.916667	1	2.709125
28.933333	1	2.610500
28.950000	1	2.507500
28.966667	1	2.400500
28.983333	1	2.290125
29.000000	1	2.178000
29.016667	1	2.065000
29.033333	1	1.951250
29.050000	1	1.837625
29.066667	1	1.724625
29.083333	1	1.614000
29.100000	1	1.506000
29.116667	1	1.400375
29.133333	1	1.297875
29.150000	1	1.200500
29.166667	1	1.107375
29.183333	1	1.018250
29.200000	1	0.934375
29.216667	1	0.855125
29.233333	1	0.781500
29.250000	1	0.712750
29.266667	1	0.648500
29.283333	1	0.588875
29.300000	1	0.534625
29.316667	1	0.484125
29.333333	1	0.437625
29.350000	1	0.395750
29.366667	1	0.357750
29.383333	1	0.323000
29.400000	1	0.291375
29.416667	1	0.263250
29.433333	1	0.238125
29.450000	1	0.215750
29.466667	1	0.195500
29.483333	1	0.177625
29.500000	1	0.162250
29.516667	1	0.148750
29.533333	1	0.136500
29.550000	1	0.126375
29.566667	1	0.117750
29.583333	1	0.111250
29.600000	1	0.105375
29.616667	1	0.100625
29.633333	1	0.097750
29.650000	1	0.095875
29.666667	1	0.095375
29.683333	1	0.096500
29.700000	1	0.098375
29.716667	1	0.100875
29.733333	1	0.104000
29.750000	1	0.108625
29.766667	1	0.113625
29.783333	1	0.119625
29.800000	1	0.127500
29.816667	1	0.135500
29.833333	1	0.144875
29.850000	1	0.154125
29.866667	1	0.164375
29.883333	1	0.175125
29.900000	1	0.186750
29.916667	1	0.199000
29.933333	1	0.210875
29.950000	1	0.224000
29.966667	1	0.237125
29.983333	1	0.250750
30.000000	1	0.265250
30.016667	1	0.278875
30.033333	1	0.292750
30.050000	1	0.307625
30.066667	1	0.321875
30.083333	1	0.335125
30.100000	1	0.348375
30.116667	1	0.361875
30.133333	1	0.374000
30.150000	1	0.386500
30.166667	1	0.398750
30.183333	1	0.410250
30.200000	1	0.421500
30.216667	1	0.432000
30.233333	1	0.442000
30.250000	1	0.451375
30.266667	1	0.460375
30.283333	1	0.468875
30.300000	1	0.477375
30.316667	1	0.485000
30.333333	1	0.492000
30.350000	1	0.497875
30.366667	1	0.502500
30.383333	1	0.508000
30.400000	1	0.512250
30.416667	1	0.516750
30.433333	1	0.519875
30.450000	1	0.522875
30.466667	1	0.525375
30.483333	1	0.526875
30.500000	1	0.528500
30.516667	1	0.530250
30.533333	1	0.531000
30.550000	1	0.530875
30.566667	1	0.529875
30.583333	1	0.528500
30.600000	1	0.528125
30.616667	1	0.526625
30.633333	1	0.525625
30.650000	1	0.523750
30.666667	1	0.521125
30.683333	1	0.518125
30.700000	1	0.515625
30.716667	1	0.512250
30.733333	1	0.508500
30.750000	1	0.504750
30.766667	1	0.501750
30.783333	1	0.498000
30.800000	1	0.493875
30.816667	1	0.490375
30.833333	1	0.486625
30.850000	1	0.483625
30.866667	1	0.480250
30.883333	1	0.476750
30.900000	1	0.473625
30.916667	1	0.471000
30.933333	1	0.467750
30.950000	1	0.465125
30.966667	1	0.463125
30.983333	1	0.461250
31.000000	1	0.459875
31.016667	1	0.458875
31.033333	1	0.458250
31.050000	1	0.458125
31.066667	1	0.458750
31.083333	1	0.459625
31.100000	1	0.460875
31.116667	1	0.463125
31.133333	1	0.465625
31.150000	1	0.468625
31.166667	1	0.472750
31.183333	1	0.476375
31.200000	1	0.480625
31.216667	1	0.485125
31.233333	1	0.490750
31.250000	1	0.495000
31.266667	1	0.501250
31.283333	1	0.507250
31.300000	1	0.513125
31.316667	1	0.519125
31.333333	1	0.525250
31.350000	1	0.531250
31.366667	1	0.538375
31.383333	1	0.544875
31.400000	1	0.551000
31.416667	1	0.557500
31.433333	1	0.564000
31.450000	1	0.570125
31.466667	1	0.576500
31.483333	1	0.582750
31.500000	1	0.588375
31.516667	1	0.593750
31.533333	1	0.598500
31.550000	1	0.603375
31.566667	1	0.607500
31.583333	1	0.611500
31.600000	1	0.614875
31.616667	1	0.618125
31.633333	1	0.620750
31.650000	1	0.622625
31.666667	1	0.623250
31.683333	1	0.624375
31.700000	1	0.624750
31.716667	1	0.624250
31.733333	1	0.622500
31.750000	1	0.620750
31.766667	1	0.618375
31.783333	1	0.615750
31.800000	1	0.612375
31.816667	1	0.609000
31.833333	1	0.604500
31.850000	1	0.599750
31.866667	1	0.594250
31.883333	1	0.588875
31.900000	1	0.583000
31.916667	1	0.576625
31.933333	1	0.569750
31.950000	1	0.563000
31.966667	1	0.556500
31.983333	1	0.550250
32.000000	1	0.543125
32.016667	1	0.536625
32.033333	1	0.530500
32.050000	1	0.524625
32.066667	1	0.519500
32.083333	1	0.514125
32.100000	1	0.509375
32.116667	1	0.505250
32.133333	1	0.501250
32.150000	1	0.497375
32.166667	1	0.494625
32.183333	1	0.492875
32.200000	1	0.490875
32.216667	1	0.490250
32.233333	1	0.489375
32.250000	1	0.489625
32.266667	1	0.490250
32.283333	1	0.491625
32.300000	1	0.494250
32.316667	1	0.497000
32.333333	1	0.500000
32.350000	1	0.503750
32.366667	1	0.508125
32.383333	1	0.513250
32.400000	1	0.519000
32.416667	1	0.525375
32.433333	1	0.531500
32.450000	1	0.538125
32.466667	1	0.545000
32.483333	1	0.552750
32.500000	1	0.560375
32.516667	1	0.568250
32.533333	1	0.576250
32.550000	1	0.584375
32.566667	1	0.592500
32.583333	1	0.601250
32.600000	1	0.609000
32.616667	1	0.617250
32.633333	1	0.625500
32.650000	1	0.633750
32.666667	1	0.641125
32.683333	1	0.647875
32.700000	1	0.654750
32.716667	1	0.661125
32.733333	1	0.667500
32.750000	1	0.673250
32.766667	1	0.678750
32.783333	1	0.683250
32.800000	1	0.688125
32.816667	1	0.692875
32.833333	1	0.696125
32.850000	1	0.698250
32.866667	1	0.699625
32.883333	1	0.700875
32.900000	1	0.701375
32.916667	1	0.701125
32.933333	1	0.700000
32.950000	1	0.698500
32.966667	1	0.696750
32.983333	1	0.694125
33.000000	1	0.689625
33.016667	1	0.684375
33.033333	1	0.679625
33.050000	1	0.672500
33.066667	1	0.665125
33.083333	1	0.656875
33.100000	1	0.648500
33.116667	1	0.639500
33.133333	1	0.629375
33.150000	1	0.618500
33.166667	1	0.607500
33.183333	1	0.595125
33.200000	1	0.582750
33.216667	1	0.569375
33.233333	1	0.556250
33.250000	1	0.542000
33.266667	1	0.528375
33.283333	1	0.514000
33.300000	1	0.499250
33.316667	1	0.483625
33.333333	1	0.467875
33.350000	1	0.452625
33.366667	1	0.437375
33.383333	1	0.421500
33.400000	1	0.405875
33.416667	1	0.390000
33.433333	1	0.374000
33.450000	1	0.358375
33.466667	1	0.343625
33.483333	1	0.328500
33.500000	1	0.313250
33.516667	1	0.299250
33.533333	1	0.285000
33.550000	1	0.271125
33.566667	1	0.257500
33.583333	1	0.244875
33.600000	1	0.231125
33.616667	1	0.218500
33.633333	1	0.206375
33.650000	1	0.195125
33.666667	1	0.184000
33.683333	1	0.173375
33.700000	1	0.162875
33.716667	1	0.153250
33.733333	1	0.143875
33.750000	1	0.135250
33.766667	1	0.127125
33.783333	1	0.119375
33.800000	1	0.112375
33.816667	1	0.105500
33.833333	1	0.099000
33.850000	1	0.093125
33.866667	1	0.087625
33.883333	1	0.082375
33.900000	1	0.077000
33.916667	1	0.072500
33.933333	1	0.067875
33.950000	1	0.063625
33.966667	1	0.060000
33.983333	1	0.056250
34.000000	1	0.052875
34.016667	1	0.050375
34.033333	1	0.047125
34.050000	1	0.044625
34.066667	1	0.042375
34.083333	1	0.040125
34.100000	1	0.037375
34.116667	1	0.035250
34.133333	1	0.033750
34.150000	1	0.032625
34.166667	1	0.030750
34.183333	1	0.029000
34.200000	1	0.027625
34.216667	1	0.026875
34.233333	1	0.026125
34.250000	1	0.025250
34.266667	1	0.024750
34.283333	1	0.024375
34.300000	1	0.024500
34.316667	1	0.024500
34.333333	1	0.025000
34.350000	1	0.025750
34.366667	1	0.025750
34.383333	1	0.026875
34.400000	1	0.028000
34.416667	1	0.029250
34.433333	1	0.030125
34.450000	1	0.031750
34.466667	1	0.033375
34.483333	1	0.035750
34.500000	1	0.037375
34.516667	1	0.040000
34.533333	1	0.042750
34.550000	1	0.046500
34.566667	1	0.049750
34.583333	1	0.054125
34.600000	1	0.058375
34.616667	1	0.062750
34.633333	1	0.067125
34.650000	1	0.071875
34.666667	1	0.077250
34.683333	1	0.083125
34.700000	1	0.089000
34.716667	1	0.094500
34.733333	1	0.100625
34.750000	1	0.106625
34.766667	1	0.113125
34.783333	1	0.119500
34.800000	1	0.126500
34.816667	1	0.132750
34.833333	1	0.138750
34.850000	1	0.144875
34.866667	1	0.151375
34.883333	1	0.157625
34.900000	1	0.163375
34.916667	1	0.169375
34.933333	1	0.174625
34.950000	1	0.179875
34.966667	1	0.184875
34.983333	1	0.189500
35.000000	1	0.194125
35.016667	1	0.198625
35.033333	1	0.203625
35.050000	1	0.207375
35.066667	1	0.210750
35.083333	1	0.213250
35.100000	1	0.215875
35.116667	1	0.217750
35.133333	1	0.220000
35.150000	1	0.221375
35.166667	1	0.222250
35.183333	1	0.222875
35.200000	1	0.223250
35.216667	1	0.224000
35.233333	1	0.223250
35.250000	1	0.222250
35.266667	1	0.220625
35.283333	1	0.218250
35.300000	1	0.216125
35.316667	1	0.213250
35.333333	1	0.210500
35.350000	1	0.207375
35.366667	1	0.205125
35.383333	1	0.201750
35.400000	1	0.197875
35.416667	1	0.193750
35.433333	1	0.189250
35.450000	1	0.184500
35.466667	1	0.179625
35.483333	1	0.174625
35.500000	1	0.170250
35.516667	1	0.165250
35.533333	1	0.159875
35.550000	1	0.155125
35.566667	1	0.150625
35.583333	1	0.145875
35.600000	1	0.140625
35.616667	1	0.135875
35.633333	1	0.131500
35.650000	1	0.126375
35.666667	1	0.122625
35.683333	1	0.119125
35.700000	1	0.115000
35.716667	1	0.111125
35.733333	1	0.108000
35.750000	1	0.104875
35.766667	1	0.102125
35.783333	1	0.099875
35.800000	1	0.098375
35.816667	1	0.097125
35.833333	1	0.095375
35.850000	1	0.094375
35.866667	1	0.093625
35.883333	1	0.092875
35.900000	1	0.092875
35.916667	1	0.092875
35.933333	1	0.093375
35.950000	1	0.093500
35.966667	1	0.094250
35.983333	1	0.095000
36.000000	1	0.096000
36.016667	1	0.097625
36.033333	1	0.098875
36.050000	1	0.100125
36.066667	1	0.101625
36.083333	1	0.103875
36.100000	1	0.105375
36.116667	1	0.107625
36.133333	1	0.109875
36.150000	1	0.112375
36.166667	1	0.114625
36.183333	1	0.116750
36.200000	1	0.118750
36.216667	1	0.121750
36.233333	1	0.124750
36.250000	1	0.127750
36.266667	1	0.130125
36.283333	1	0.132750
36.300000	1	0.135625
36.316667	1	0.138500
36.333333	1	0.141000
36.350000	1	0.143375
36.366667	1	0.146625
36.383333	1	0.149125
36.400000	1	0.152250
36.416667	1	0.155375
36.433333	1	0.158875
36.450000	1	0.161750
36.466667	1	0.164500
36.483333	1	0.167250
36.500000	1	0.170250
36.516667	1	0.174125
36.533333	1	0.177125
36.550000	1	0.180750
36.566667	1	0.182750
36.583333	1	0.185875
36.600000	1	0.188875
36.616667	1	0.192125
36.633333	1	0.194375
36.650000	1	0.197250
36.666667	1	0.199875
36.683333	1	0.202250
36.700000	1	0.205125
36.716667	1	0.208250
36.733333	1	0.210625
36.750000	1	0.213000
36.766667	1	0.214875
36.783333	1	0.216750
36.800000	1	0.219500
36.816667	1	0.221125
36.833333	1	0.222875
36.850000	1	0.224750
36.866667	1	0.226875
36.883333	1	0.228375
36.900000	1	0.230000
36.916667	1	0.231625
36.933333	1	0.233500
36.950000	1	0.235250
36.966667	1	0.237000
36.983333	1	0.238625
37.000000	1	0.240000
37.016667	1	0.241500
37.033333	1	0.243000
37.050000	1	0.244125
37.066667	1	0.245625
37.083333	1	0.246875
37.100000	1	0.248375
37.116667	1	0.249375
37.133333	1	0.250500
37.150000	1	0.250625
37.166667	1	0.251375
37.183333	1	0.251375
37.200000	1	0.251125
37.216667	1	0.251125
37.233333	1	0.250875
37.250000	1	0.250500
37.266667	1	0.249625
37.283333	1	0.249250
37.300000	1	0.247875
37.316667	1	0.246625
37.333333	1	0.245375
37.350000	1	0.244000
37.366667	1	0.241500
37.383333	1	0.239500
37.400000	1	0.237000
37.416667	1	0.234000
37.433333	1	0.231000
37.450000	1	0.227875
37.466667	1	0.223500
37.483333	1	0.219625
37.500000	1	0.215750
37.516667	1	0.212375
37.533333	1	0.208375
37.550000	1	0.204625
37.566667	1	0.200375
37.583333	1	0.195750
37.600000	1	0.191500
37.616667	1	0.186625
37.633333	1	0.182500
37.650000	1	0.177625
37.666667	1	0.173250
37.683333	1	0.167875
37.700000	1	0.163250
37.716667	1	0.157875
37.733333	1	0.152875
37.750000	1	0.147875
37.766667	1	0.142125
37.783333	1	0.137625
37.800000	1	0.133250
37.816667	1	0.128500
37.833333	1	0.123125
37.850000	1	0.119000
37.866667	1	0.114000
37.883333	1	0.109125
37.900000	1	0.104125
37.916667	1	0.099500
37.933333	1	0.095500
37.950000	1	0.091125
37.966667	1	0.086625
37.983333	1	0.082750
38.000000	1	0.078500
38.016667	1	0.074250
38.033333	1	0.069875
38.050000	1	0.066375
38.066667	1	0.062375
38.083333	1	0.058250
38.100000	1	0.054250
38.116667	1	0.051125
38.133333	1	0.047375
38.150000	1	0.044125
38.166667	1	0.041250
38.183333	1	0.037750
38.200000	1	0.035000
38.216667	1	0.032500
38.233333	1	0.029375
38.250000	1	0.026875
38.266667	1	0.024500
38.283333	1	0.022250
38.300000	1	0.019750
38.316667	1	0.017500
38.333333	1	0.016125
38.350000	1	0.014250
38.366667	1	0.013000
38.383333	1	0.011625
38.400000	1	0.010625
38.416667	1	0.009250
38.433333	1	0.008500
38.450000	1	0.007500
38.466667	1	0.007125
38.483333	1	0.006375
38.500000	1	0.006375
38.516667	1	0.006000
38.533333	1	0.005500
38.550000	1	0.005750
38.566667	1	0.006250
38.583333	1	0.006000
38.600000	1	0.006500
38.616667	1	0.007000
38.633333	1	0.007750
38.650000	1	0.007875
38.666667	1	0.007750
38.683333	1	0.007375
38.700000	1	0.007625
38.716667	1	0.007875
38.733333	1	0.008000
38.750000	1	0.008125
38.766667	1	0.008500
38.783333	1	0.008875
38.800000	1	0.009000
38.816667	1	0.008875
38.833333	1	0.008375
38.850000	1	0.007875
38.866667	1	0.007375
38.883333	1	0.007625
38.900000	1	0.007625
38.916667	1	0.007750
38.933333	1	0.007500
38.950000	1	0.007500
38.966667	1	0.006625
38.983333	1	0.006875
39.000000	1	0.006875
39.016667	1	0.006750
39.033333	1	0.006375
39.050000	1	0.006500
39.066667	1	0.006375
39.083333	1	0.006000
39.100000	1	0.006500
39.116667	1	0.006875
39.133333	1	0.006625
39.150000	1	0.006500
39.166667	1	0.006375
39.183333	1	0.006875
39.200000	1	0.007125
39.216667	1	0.007000
39.233333	1	0.006875
39.250000	1	0.007500
39.266667	1	0.008500
39.283333	1	0.008750
39.300000	1	0.009375
39.316667	1	0.009375
39.333333	1	0.010250
39.350000	1	0.010625
39.366667	1	0.011250
39.383333	1	0.012000
39.400000	1	0.012875
39.416667	1	0.013125
39.433333	1	0.013375
39.450000	1	0.013750
39.466667	1	0.013875
39.483333	1	0.014125
39.500000	1	0.015125
39.516667	1	0.015750
39.533333	1	0.017125
39.550000	1	0.018125
39.566667	1	0.018875
39.583333	1	0.018875
39.600000	1	0.019500
39.616667	1	0.020250
39.633333	1	0.021500
39.650000	1	0.022250
39.666667	1	0.023125
39.683333	1	0.023750
39.700000	1	0.024500
39.716667	1	0.024625
39.733333	1	0.025625
39.750000	1	0.026250
39.766667	1	0.026625
39.783333	1	0.027500
39.800000	1	0.028250
39.816667	1	0.029500
39.833333	1	0.029125
39.850000	1	0.029250
39.866667	1	0.029625
39.883333	1	0.029750
39.900000	1	0.030125
39.916667	1	0.030250
39.933333	1	0.030125
39.950000	1	0.030250
39.966667	1	0.030125
39.983333	1	0.030000
40.000000	1	0.029875
