File Path	chrom://990-75db15j/XVault/Ultimate_3000/1256/20230531_CMO_stabTest _FP08_FP09.seq/343.smp/RI_1.channel/RI_1.chm
Channel	RI_1

Injection Information:
Data Vault	XVault
Injection	FP09_1_s3
Injection Number	57
Position	BB9
Comment	
Processing Method	
Instrument Method	run_25B_method
Type	Unknown
Status	Finished
Injection Date	03.06.2023
Injection Time	03:58:58
Injection Volume (µl)	20.000
Dilution Factor	1.0000
Weight	1.0000

Chromatogram Data Information:
Time Min. (min)	0.000000
Time Max. (min)	40.000000
Data Points	2401
Detector	RI
Generating Data System	Chromeleon 7.2.5.9507
Exporting Data System	Chromeleon 7.2.5.0
Operator	Instrument Controller
Signal Quantity	Refractive 
Signal Unit	µRIU
Signal Min.	-0.629500
Signal Max.	59.998625
Channel	RI_1
Driver Name	RID520Driver.dll
Channel Type	Evaluation
Min. Step (s)	1
Max. Step (s)	1
Average Step (s)	1

Signal Parameter Information:
Signal Info	

Chromatogram Data:
Time (min)	Step (s)	Value (µRIU)
0.000000	n.a.	-0.076375
0.016667	1	-0.076500
0.033333	1	-0.077125
0.050000	1	-0.077125
0.066667	1	-0.077125
0.083333	1	-0.076875
0.100000	1	-0.076875
0.116667	1	-0.076625
0.133333	1	-0.076375
0.150000	1	-0.075750
0.166667	1	-0.074875
0.183333	1	-0.074125
0.200000	1	-0.074125
0.216667	1	-0.072625
0.233333	1	-0.071000
0.250000	1	-0.069500
0.266667	1	-0.068375
0.283333	1	-0.068625
0.300000	1	-0.070500
0.316667	1	-0.073250
0.333333	1	-0.073750
0.350000	1	-0.071500
0.366667	1	-0.066875
0.383333	1	-0.061000
0.400000	1	-0.055625
0.416667	1	-0.050750
0.433333	1	-0.047250
0.450000	1	-0.044250
0.466667	1	-0.041000
0.483333	1	-0.039750
0.500000	1	-0.040250
0.516667	1	-0.041000
0.533333	1	-0.042875
0.550000	1	-0.044125
0.566667	1	-0.044250
0.583333	1	-0.045000
0.600000	1	-0.045625
0.616667	1	-0.045875
0.633333	1	-0.045875
0.650000	1	-0.046375
0.666667	1	-0.045875
0.683333	1	-0.045875
0.700000	1	-0.046000
0.716667	1	-0.046375
0.733333	1	-0.046375
0.750000	1	-0.046625
0.766667	1	-0.047625
0.783333	1	-0.047875
0.800000	1	-0.048375
0.816667	1	-0.048375
0.833333	1	-0.048375
0.850000	1	-0.048875
0.866667	1	-0.049000
0.883333	1	-0.049000
0.900000	1	-0.049625
0.916667	1	-0.050000
0.933333	1	-0.050125
0.950000	1	-0.050500
0.966667	1	-0.051375
0.983333	1	-0.052250
1.000000	1	-0.052875
1.016667	1	-0.053625
1.033333	1	-0.054125
1.050000	1	-0.055125
1.066667	1	-0.056125
1.083333	1	-0.057125
1.100000	1	-0.057375
1.116667	1	-0.057750
1.133333	1	-0.058125
1.150000	1	-0.059125
1.166667	1	-0.059625
1.183333	1	-0.060625
1.200000	1	-0.061125
1.216667	1	-0.061750
1.233333	1	-0.061875
1.250000	1	-0.061875
1.266667	1	-0.062000
1.283333	1	-0.062750
1.300000	1	-0.062750
1.316667	1	-0.062500
1.333333	1	-0.062875
1.350000	1	-0.062625
1.366667	1	-0.062875
1.383333	1	-0.063250
1.400000	1	-0.062500
1.416667	1	-0.061875
1.433333	1	-0.061875
1.450000	1	-0.061625
1.466667	1	-0.061125
1.483333	1	-0.060625
1.500000	1	-0.060500
1.516667	1	-0.059500
1.533333	1	-0.059625
1.550000	1	-0.060000
1.566667	1	-0.060250
1.583333	1	-0.059625
1.600000	1	-0.059750
1.616667	1	-0.059875
1.633333	1	-0.059625
1.650000	1	-0.059500
1.666667	1	-0.059750
1.683333	1	-0.060125
1.700000	1	-0.060125
1.716667	1	-0.061000
1.733333	1	-0.061375
1.750000	1	-0.061750
1.766667	1	-0.062000
1.783333	1	-0.063250
1.800000	1	-0.064250
1.816667	1	-0.065250
1.833333	1	-0.065500
1.850000	1	-0.066250
1.866667	1	-0.067000
1.883333	1	-0.067750
1.900000	1	-0.067750
1.916667	1	-0.068750
1.933333	1	-0.069750
1.950000	1	-0.070000
1.966667	1	-0.070500
1.983333	1	-0.071125
2.000000	1	-0.071500
2.016667	1	-0.071750
2.033333	1	-0.071750
2.050000	1	-0.071625
2.066667	1	-0.071500
2.083333	1	-0.071750
2.100000	1	-0.072625
2.116667	1	-0.072875
2.133333	1	-0.072250
2.150000	1	-0.072000
2.166667	1	-0.072625
2.183333	1	-0.072750
2.200000	1	-0.073000
2.216667	1	-0.072875
2.233333	1	-0.072750
2.250000	1	-0.072375
2.266667	1	-0.072750
2.283333	1	-0.073250
2.300000	1	-0.073875
2.316667	1	-0.074000
2.333333	1	-0.074750
2.350000	1	-0.075500
2.366667	1	-0.075625
2.383333	1	-0.075625
2.400000	1	-0.076125
2.416667	1	-0.076750
2.433333	1	-0.076500
2.450000	1	-0.077250
2.466667	1	-0.077500
2.483333	1	-0.077500
2.500000	1	-0.077750
2.516667	1	-0.077250
2.533333	1	-0.076875
2.550000	1	-0.076625
2.566667	1	-0.076000
2.583333	1	-0.075625
2.600000	1	-0.075500
2.616667	1	-0.074875
2.633333	1	-0.074375
2.650000	1	-0.074000
2.666667	1	-0.073000
2.683333	1	-0.072125
2.700000	1	-0.071500
2.716667	1	-0.071250
2.733333	1	-0.070375
2.750000	1	-0.069500
2.766667	1	-0.068750
2.783333	1	-0.068000
2.800000	1	-0.066750
2.816667	1	-0.066000
2.833333	1	-0.065125
2.850000	1	-0.064000
2.866667	1	-0.063375
2.883333	1	-0.062375
2.900000	1	-0.062250
2.916667	1	-0.061125
2.933333	1	-0.060250
2.950000	1	-0.059625
2.966667	1	-0.058875
2.983333	1	-0.058125
3.000000	1	-0.056750
3.016667	1	-0.056125
3.033333	1	-0.055250
3.050000	1	-0.054625
3.066667	1	-0.054250
3.083333	1	-0.053250
3.100000	1	-0.053000
3.116667	1	-0.051750
3.133333	1	-0.051125
3.150000	1	-0.050750
3.166667	1	-0.049625
3.183333	1	-0.048750
3.200000	1	-0.047625
3.216667	1	-0.047000
3.233333	1	-0.046375
3.250000	1	-0.045625
3.266667	1	-0.045000
3.283333	1	-0.044250
3.300000	1	-0.043500
3.316667	1	-0.043750
3.333333	1	-0.042875
3.350000	1	-0.042250
3.366667	1	-0.042125
3.383333	1	-0.042000
3.400000	1	-0.042125
3.416667	1	-0.041750
3.433333	1	-0.040875
3.450000	1	-0.040875
3.466667	1	-0.040750
3.483333	1	-0.041250
3.500000	1	-0.041625
3.516667	1	-0.041250
3.533333	1	-0.041875
3.550000	1	-0.042500
3.566667	1	-0.042625
3.583333	1	-0.042000
3.600000	1	-0.041750
3.616667	1	-0.041625
3.633333	1	-0.041750
3.650000	1	-0.041750
3.666667	1	-0.042125
3.683333	1	-0.042000
3.700000	1	-0.042250
3.716667	1	-0.042375
3.733333	1	-0.041875
3.750000	1	-0.041625
3.766667	1	-0.041125
3.783333	1	-0.040875
3.800000	1	-0.041125
3.816667	1	-0.040875
3.833333	1	-0.040375
3.850000	1	-0.040375
3.866667	1	-0.040375
3.883333	1	-0.040750
3.900000	1	-0.040125
3.916667	1	-0.040875
3.933333	1	-0.040500
3.950000	1	-0.040250
3.966667	1	-0.040875
3.983333	1	-0.041250
4.000000	1	-0.042000
4.016667	1	-0.042125
4.033333	1	-0.042375
4.050000	1	-0.042875
4.066667	1	-0.043750
4.083333	1	-0.044375
4.100000	1	-0.045000
4.116667	1	-0.046000
4.133333	1	-0.046625
4.150000	1	-0.047000
4.166667	1	-0.047750
4.183333	1	-0.048375
4.200000	1	-0.048125
4.216667	1	-0.049000
4.233333	1	-0.050125
4.250000	1	-0.050750
4.266667	1	-0.051000
4.283333	1	-0.051625
4.300000	1	-0.052250
4.316667	1	-0.052500
4.333333	1	-0.052750
4.350000	1	-0.052625
4.366667	1	-0.052750
4.383333	1	-0.053125
4.400000	1	-0.052750
4.416667	1	-0.052375
4.433333	1	-0.052500
4.450000	1	-0.052125
4.466667	1	-0.052250
4.483333	1	-0.052250
4.500000	1	-0.051500
4.516667	1	-0.051250
4.533333	1	-0.050625
4.550000	1	-0.050750
4.566667	1	-0.049125
4.583333	1	-0.048125
4.600000	1	-0.047625
4.616667	1	-0.047125
4.633333	1	-0.046000
4.650000	1	-0.044625
4.666667	1	-0.042875
4.683333	1	-0.041375
4.700000	1	-0.039875
4.716667	1	-0.038125
4.733333	1	-0.035875
4.750000	1	-0.034625
4.766667	1	-0.032625
4.783333	1	-0.030500
4.800000	1	-0.028375
4.816667	1	-0.027000
4.833333	1	-0.024500
4.850000	1	-0.021375
4.866667	1	-0.019250
4.883333	1	-0.016500
4.900000	1	-0.014125
4.916667	1	-0.012000
4.933333	1	-0.009875
4.950000	1	-0.007375
4.966667	1	-0.005375
4.983333	1	-0.001875
5.000000	1	-0.000125
5.016667	1	0.001500
5.033333	1	0.003250
5.050000	1	0.005375
5.066667	1	0.006750
5.083333	1	0.007875
5.100000	1	0.009125
5.116667	1	0.010375
5.133333	1	0.012000
5.150000	1	0.013000
5.166667	1	0.013750
5.183333	1	0.014625
5.200000	1	0.015125
5.216667	1	0.015750
5.233333	1	0.016625
5.250000	1	0.017375
5.266667	1	0.017625
5.283333	1	0.017000
5.300000	1	0.017000
5.316667	1	0.016500
5.333333	1	0.016125
5.350000	1	0.014875
5.366667	1	0.014125
5.383333	1	0.013250
5.400000	1	0.012625
5.416667	1	0.011375
5.433333	1	0.010125
5.450000	1	0.009250
5.466667	1	0.007750
5.483333	1	0.005875
5.500000	1	0.003875
5.516667	1	0.002250
5.533333	1	0.000375
5.550000	1	-0.000625
5.566667	1	-0.002875
5.583333	1	-0.004500
5.600000	1	-0.006250
5.616667	1	-0.007875
5.633333	1	-0.009750
5.650000	1	-0.011625
5.666667	1	-0.013750
5.683333	1	-0.015750
5.700000	1	-0.017250
5.716667	1	-0.018500
5.733333	1	-0.020000
5.750000	1	-0.020875
5.766667	1	-0.021625
5.783333	1	-0.022500
5.800000	1	-0.023125
5.816667	1	-0.024625
5.833333	1	-0.025500
5.850000	1	-0.025875
5.866667	1	-0.026250
5.883333	1	-0.027250
5.900000	1	-0.027375
5.916667	1	-0.027625
5.933333	1	-0.027875
5.950000	1	-0.027875
5.966667	1	-0.028000
5.983333	1	-0.027500
6.000000	1	-0.027500
6.016667	1	-0.027375
6.033333	1	-0.027000
6.050000	1	-0.026875
6.066667	1	-0.026500
6.083333	1	-0.025625
6.100000	1	-0.024375
6.116667	1	-0.023625
6.133333	1	-0.022250
6.150000	1	-0.020250
6.166667	1	-0.019000
6.183333	1	-0.017125
6.200000	1	-0.015750
6.216667	1	-0.013750
6.233333	1	-0.012000
6.250000	1	-0.010375
6.266667	1	-0.008250
6.283333	1	-0.005750
6.300000	1	-0.003375
6.316667	1	-0.001000
6.333333	1	0.001375
6.350000	1	0.004375
6.366667	1	0.007875
6.383333	1	0.010375
6.400000	1	0.013000
6.416667	1	0.016250
6.433333	1	0.018500
6.450000	1	0.022125
6.466667	1	0.026000
6.483333	1	0.029625
6.500000	1	0.032750
6.516667	1	0.036500
6.533333	1	0.039625
6.550000	1	0.042750
6.566667	1	0.045875
6.583333	1	0.048375
6.600000	1	0.050625
6.616667	1	0.053250
6.633333	1	0.055625
6.650000	1	0.058000
6.666667	1	0.059750
6.683333	1	0.061125
6.700000	1	0.062625
6.716667	1	0.064000
6.733333	1	0.065375
6.750000	1	0.066250
6.766667	1	0.067375
6.783333	1	0.067500
6.800000	1	0.067875
6.816667	1	0.067750
6.833333	1	0.067375
6.850000	1	0.066625
6.866667	1	0.066125
6.883333	1	0.064875
6.900000	1	0.064125
6.916667	1	0.063125
6.933333	1	0.061875
6.950000	1	0.059875
6.966667	1	0.058250
6.983333	1	0.056000
7.000000	1	0.054250
7.016667	1	0.052000
7.033333	1	0.049750
7.050000	1	0.047125
7.066667	1	0.044375
7.083333	1	0.041625
7.100000	1	0.039375
7.116667	1	0.036500
7.133333	1	0.033500
7.150000	1	0.031125
7.166667	1	0.028500
7.183333	1	0.025875
7.200000	1	0.023625
7.216667	1	0.021250
7.233333	1	0.017125
7.250000	1	0.014000
7.266667	1	0.011000
7.283333	1	0.008750
7.300000	1	0.005625
7.316667	1	0.003625
7.333333	1	0.001375
7.350000	1	-0.001375
7.366667	1	-0.004000
7.383333	1	-0.007250
7.400000	1	-0.009500
7.416667	1	-0.012250
7.433333	1	-0.014750
7.450000	1	-0.016875
7.466667	1	-0.019750
7.483333	1	-0.022125
7.500000	1	-0.023875
7.516667	1	-0.025375
7.533333	1	-0.027500
7.550000	1	-0.029125
7.566667	1	-0.031375
7.583333	1	-0.033000
7.600000	1	-0.034125
7.616667	1	-0.035875
7.633333	1	-0.037500
7.650000	1	-0.038875
7.666667	1	-0.040375
7.683333	1	-0.041125
7.700000	1	-0.041625
7.716667	1	-0.041750
7.733333	1	-0.042125
7.750000	1	-0.042250
7.766667	1	-0.042875
7.783333	1	-0.042375
7.800000	1	-0.042375
7.816667	1	-0.041875
7.833333	1	-0.042125
7.850000	1	-0.042000
7.866667	1	-0.041250
7.883333	1	-0.040375
7.900000	1	-0.039625
7.916667	1	-0.039625
7.933333	1	-0.038250
7.950000	1	-0.036500
7.966667	1	-0.035125
7.983333	1	-0.034000
8.000000	1	-0.033625
8.016667	1	-0.032375
8.033333	1	-0.030875
8.050000	1	-0.030125
8.066667	1	-0.028375
8.083333	1	-0.026625
8.100000	1	-0.024750
8.116667	1	-0.023125
8.133333	1	-0.021375
8.150000	1	-0.019750
8.166667	1	-0.018125
8.183333	1	-0.017000
8.200000	1	-0.015250
8.216667	1	-0.013625
8.233333	1	-0.012125
8.250000	1	-0.011250
8.266667	1	-0.009000
8.283333	1	-0.007250
8.300000	1	-0.005750
8.316667	1	-0.004125
8.333333	1	-0.002750
8.350000	1	-0.001000
8.366667	1	0.000000
8.383333	1	0.001500
8.400000	1	0.002250
8.416667	1	0.003625
8.433333	1	0.004750
8.450000	1	0.006500
8.466667	1	0.007375
8.483333	1	0.009250
8.500000	1	0.010500
8.516667	1	0.012125
8.533333	1	0.013750
8.550000	1	0.014750
8.566667	1	0.016125
8.583333	1	0.017375
8.600000	1	0.018375
8.616667	1	0.019500
8.633333	1	0.020875
8.650000	1	0.022625
8.666667	1	0.024250
8.683333	1	0.026000
8.700000	1	0.027125
8.716667	1	0.029375
8.733333	1	0.031000
8.750000	1	0.032375
8.766667	1	0.034000
8.783333	1	0.035750
8.800000	1	0.037625
8.816667	1	0.039250
8.833333	1	0.040875
8.850000	1	0.042500
8.866667	1	0.043750
8.883333	1	0.045125
8.900000	1	0.046250
8.916667	1	0.047875
8.933333	1	0.049375
8.950000	1	0.050125
8.966667	1	0.050625
8.983333	1	0.051125
9.000000	1	0.052500
9.016667	1	0.052750
9.033333	1	0.054125
9.050000	1	0.054250
9.066667	1	0.054250
9.083333	1	0.054750
9.100000	1	0.055250
9.116667	1	0.055250
9.133333	1	0.055750
9.150000	1	0.056875
9.166667	1	0.057250
9.183333	1	0.057625
9.200000	1	0.057250
9.216667	1	0.057125
9.233333	1	0.057125
9.250000	1	0.057750
9.266667	1	0.057625
9.283333	1	0.058375
9.300000	1	0.058750
9.316667	1	0.059625
9.333333	1	0.060250
9.350000	1	0.060875
9.366667	1	0.061000
9.383333	1	0.061500
9.400000	1	0.061875
9.416667	1	0.063125
9.433333	1	0.064000
9.450000	1	0.065250
9.466667	1	0.067375
9.483333	1	0.069875
9.500000	1	0.073250
9.516667	1	0.076500
9.533333	1	0.081250
9.550000	1	0.086750
9.566667	1	0.093500
9.583333	1	0.101625
9.600000	1	0.111125
9.616667	1	0.121750
9.633333	1	0.134500
9.650000	1	0.149125
9.666667	1	0.165875
9.683333	1	0.185250
9.700000	1	0.206125
9.716667	1	0.229125
9.733333	1	0.252125
9.750000	1	0.276375
9.766667	1	0.297625
9.783333	1	0.316000
9.800000	1	0.331750
9.816667	1	0.341875
9.833333	1	0.347250
9.850000	1	0.345375
9.866667	1	0.335000
9.883333	1	0.313125
9.900000	1	0.284000
9.916667	1	0.260875
9.933333	1	0.271000
9.950000	1	0.359750
9.966667	1	0.584875
9.983333	1	1.011125
10.000000	1	1.700750
10.016667	1	2.708250
10.033333	1	4.074875
10.050000	1	5.826000
10.066667	1	7.973375
10.083333	1	10.517750
10.100000	1	13.445000
10.116667	1	16.724625
10.133333	1	20.310750
10.150000	1	24.136500
10.166667	1	28.110375
10.183333	1	32.113000
10.200000	1	35.994750
10.216667	1	39.572375
10.233333	1	42.644875
10.250000	1	45.004875
10.266667	1	46.477250
10.283333	1	46.945125
10.300000	1	46.376625
10.316667	1	44.835750
10.333333	1	42.474000
10.350000	1	39.500000
10.366667	1	36.150375
10.383333	1	32.649250
10.400000	1	29.183375
10.416667	1	25.892500
10.433333	1	22.866375
10.450000	1	20.150250
10.466667	1	17.751875
10.483333	1	15.658750
10.500000	1	13.842750
10.516667	1	12.271375
10.533333	1	10.911250
10.550000	1	9.730250
10.566667	1	8.702875
10.583333	1	7.806125
10.600000	1	7.020875
10.616667	1	6.333875
10.633333	1	5.733500
10.650000	1	5.209875
10.666667	1	4.753875
10.683333	1	4.357250
10.700000	1	4.011750
10.716667	1	3.710250
10.733333	1	3.446750
10.750000	1	3.215625
10.766667	1	3.011500
10.783333	1	2.830875
10.800000	1	2.669625
10.816667	1	2.524500
10.833333	1	2.393750
10.850000	1	2.275625
10.866667	1	2.168625
10.883333	1	2.071125
10.900000	1	1.981750
10.916667	1	1.899500
10.933333	1	1.824750
10.950000	1	1.755375
10.966667	1	1.692125
10.983333	1	1.633875
11.000000	1	1.579375
11.016667	1	1.529250
11.033333	1	1.482750
11.050000	1	1.439250
11.066667	1	1.399125
11.083333	1	1.362000
11.100000	1	1.327250
11.116667	1	1.294875
11.133333	1	1.264625
11.150000	1	1.237000
11.166667	1	1.209250
11.183333	1	1.184125
11.200000	1	1.160375
11.216667	1	1.138750
11.233333	1	1.118000
11.250000	1	1.098750
11.266667	1	1.080375
11.283333	1	1.062500
11.300000	1	1.045500
11.316667	1	1.029750
11.333333	1	1.014625
11.350000	1	0.999500
11.366667	1	0.986000
11.383333	1	0.973000
11.400000	1	0.961250
11.416667	1	0.951000
11.433333	1	0.941375
11.450000	1	0.932625
11.466667	1	0.925500
11.483333	1	0.919000
11.500000	1	0.914250
11.516667	1	0.910125
11.533333	1	0.907500
11.550000	1	0.905750
11.566667	1	0.904875
11.583333	1	0.904250
11.600000	1	0.905250
11.616667	1	0.906750
11.633333	1	0.907500
11.650000	1	0.908500
11.666667	1	0.910125
11.683333	1	0.911500
11.700000	1	0.912500
11.716667	1	0.913625
11.733333	1	0.914250
11.750000	1	0.914375
11.766667	1	0.913625
11.783333	1	0.914125
11.800000	1	0.914875
11.816667	1	0.916250
11.833333	1	0.918625
11.850000	1	0.921250
11.866667	1	0.925125
11.883333	1	0.930875
11.900000	1	0.937875
11.916667	1	0.946875
11.933333	1	0.957625
11.950000	1	0.971250
11.966667	1	0.986875
11.983333	1	1.005625
12.000000	1	1.027250
12.016667	1	1.051125
12.033333	1	1.078625
12.050000	1	1.111000
12.066667	1	1.148125
12.083333	1	1.191250
12.100000	1	1.242000
12.116667	1	1.301875
12.133333	1	1.373875
12.150000	1	1.460125
12.166667	1	1.563125
12.183333	1	1.685125
12.200000	1	1.828375
12.216667	1	1.994375
12.233333	1	2.185250
12.250000	1	2.402000
12.266667	1	2.646375
12.283333	1	2.919875
12.300000	1	3.223625
12.316667	1	3.560750
12.333333	1	3.934125
12.350000	1	4.345875
12.366667	1	4.799000
12.383333	1	5.296625
12.400000	1	5.837250
12.416667	1	6.419750
12.433333	1	7.039375
12.450000	1	7.687625
12.466667	1	8.353125
12.483333	1	9.017500
12.500000	1	9.659625
12.516667	1	10.256625
12.533333	1	10.783500
12.550000	1	11.219625
12.566667	1	11.553125
12.583333	1	11.778875
12.600000	1	11.898875
12.616667	1	11.925750
12.633333	1	11.872875
12.650000	1	11.754375
12.666667	1	11.584375
12.683333	1	11.375500
12.700000	1	11.137750
12.716667	1	10.880250
12.733333	1	10.612875
12.750000	1	10.339875
12.766667	1	10.065625
12.783333	1	9.793625
12.800000	1	9.526625
12.816667	1	9.266500
12.833333	1	9.014625
12.850000	1	8.770875
12.866667	1	8.534000
12.883333	1	8.303250
12.900000	1	8.079000
12.916667	1	7.859375
12.933333	1	7.643875
12.950000	1	7.430125
12.966667	1	7.217875
12.983333	1	7.004125
13.000000	1	6.788125
13.016667	1	6.567750
13.033333	1	6.341375
13.050000	1	6.106875
13.066667	1	5.861125
13.083333	1	5.604750
13.100000	1	5.332625
13.116667	1	5.041625
13.133333	1	4.729750
13.150000	1	4.394625
13.166667	1	4.035625
13.183333	1	3.656500
13.200000	1	3.268500
13.216667	1	2.888000
13.233333	1	2.534250
13.250000	1	2.224625
13.266667	1	1.966625
13.283333	1	1.760000
13.300000	1	1.595500
13.316667	1	1.464500
13.333333	1	1.359875
13.350000	1	1.274500
13.366667	1	1.203750
13.383333	1	1.144750
13.400000	1	1.094500
13.416667	1	1.051625
13.433333	1	1.014250
13.450000	1	0.981375
13.466667	1	0.952500
13.483333	1	0.927625
13.500000	1	0.905500
13.516667	1	0.886375
13.533333	1	0.870875
13.550000	1	0.857500
13.566667	1	0.847125
13.583333	1	0.839750
13.600000	1	0.833875
13.616667	1	0.829125
13.633333	1	0.826000
13.650000	1	0.824875
13.666667	1	0.823375
13.683333	1	0.822125
13.700000	1	0.819625
13.716667	1	0.815875
13.733333	1	0.811000
13.750000	1	0.805250
13.766667	1	0.797875
13.783333	1	0.789375
13.800000	1	0.778625
13.816667	1	0.766875
13.833333	1	0.754250
13.850000	1	0.741625
13.866667	1	0.727750
13.883333	1	0.713125
13.900000	1	0.698000
13.916667	1	0.683125
13.933333	1	0.668500
13.950000	1	0.654875
13.966667	1	0.640875
13.983333	1	0.628250
14.000000	1	0.616750
14.016667	1	0.606000
14.033333	1	0.596125
14.050000	1	0.587875
14.066667	1	0.580875
14.083333	1	0.574875
14.100000	1	0.570500
14.116667	1	0.567375
14.133333	1	0.565625
14.150000	1	0.565750
14.166667	1	0.567500
14.183333	1	0.572125
14.200000	1	0.578500
14.216667	1	0.587500
14.233333	1	0.600625
14.250000	1	0.617625
14.266667	1	0.639750
14.283333	1	0.667000
14.300000	1	0.700625
14.316667	1	0.741875
14.333333	1	0.792875
14.350000	1	0.854625
14.366667	1	0.928125
14.383333	1	1.014000
14.400000	1	1.115750
14.416667	1	1.234000
14.433333	1	1.371875
14.450000	1	1.530625
14.466667	1	1.712625
14.483333	1	1.921875
14.500000	1	2.160250
14.516667	1	2.433500
14.533333	1	2.745875
14.550000	1	3.103875
14.566667	1	3.516375
14.583333	1	3.993375
14.600000	1	4.550250
14.616667	1	5.206375
14.633333	1	5.987625
14.650000	1	6.923125
14.666667	1	8.049125
14.683333	1	9.404500
14.700000	1	11.030500
14.716667	1	12.966625
14.733333	1	15.247750
14.750000	1	17.897500
14.766667	1	20.923125
14.783333	1	24.308750
14.800000	1	28.015750
14.816667	1	31.978875
14.833333	1	36.107625
14.850000	1	40.285875
14.866667	1	44.380125
14.883333	1	48.245875
14.900000	1	51.739875
14.916667	1	54.731375
14.933333	1	57.114500
14.950000	1	58.811000
14.966667	1	59.775750
14.983333	1	59.998625
15.000000	1	59.503375
15.016667	1	58.338750
15.033333	1	56.578500
15.050000	1	54.312625
15.066667	1	51.640125
15.083333	1	48.666125
15.100000	1	45.493500
15.116667	1	42.213250
15.133333	1	38.906375
15.150000	1	35.640750
15.166667	1	32.474000
15.183333	1	29.447625
15.200000	1	26.591375
15.216667	1	23.922125
15.233333	1	21.450750
15.250000	1	19.181500
15.266667	1	17.112375
15.283333	1	15.239375
15.300000	1	13.554000
15.316667	1	12.045125
15.333333	1	10.700250
15.350000	1	9.507000
15.366667	1	8.454000
15.383333	1	7.527750
15.400000	1	6.714500
15.416667	1	6.002625
15.433333	1	5.382375
15.450000	1	4.843125
15.466667	1	4.376750
15.483333	1	3.974625
15.500000	1	3.630250
15.516667	1	3.336375
15.533333	1	3.086000
15.550000	1	2.873750
15.566667	1	2.692875
15.583333	1	2.540125
15.600000	1	2.409625
15.616667	1	2.296875
15.633333	1	2.198875
15.650000	1	2.111875
15.666667	1	2.032875
15.683333	1	1.959625
15.700000	1	1.890375
15.716667	1	1.824500
15.733333	1	1.760375
15.750000	1	1.698375
15.766667	1	1.637625
15.783333	1	1.579125
15.800000	1	1.521625
15.816667	1	1.466125
15.833333	1	1.413125
15.850000	1	1.362875
15.866667	1	1.314875
15.883333	1	1.269500
15.900000	1	1.227375
15.916667	1	1.187500
15.933333	1	1.150750
15.950000	1	1.116375
15.966667	1	1.083625
15.983333	1	1.054625
16.000000	1	1.028250
16.016667	1	1.003625
16.033333	1	0.982500
16.050000	1	0.962750
16.066667	1	0.945500
16.083333	1	0.930125
16.100000	1	0.916750
16.116667	1	0.906000
16.133333	1	0.896000
16.150000	1	0.888000
16.166667	1	0.882000
16.183333	1	0.876250
16.200000	1	0.871250
16.216667	1	0.866875
16.233333	1	0.864000
16.250000	1	0.861375
16.266667	1	0.858125
16.283333	1	0.854625
16.300000	1	0.851125
16.316667	1	0.847250
16.333333	1	0.842625
16.350000	1	0.838375
16.366667	1	0.833750
16.383333	1	0.829375
16.400000	1	0.824750
16.416667	1	0.820875
16.433333	1	0.817500
16.450000	1	0.815375
16.466667	1	0.812625
16.483333	1	0.811000
16.500000	1	0.809250
16.516667	1	0.808625
16.533333	1	0.809625
16.550000	1	0.810125
16.566667	1	0.811625
16.583333	1	0.814000
16.600000	1	0.818375
16.616667	1	0.823000
16.633333	1	0.827375
16.650000	1	0.832875
16.666667	1	0.839125
16.683333	1	0.844875
16.700000	1	0.851500
16.716667	1	0.858125
16.733333	1	0.864625
16.750000	1	0.871375
16.766667	1	0.878625
16.783333	1	0.884750
16.800000	1	0.889125
16.816667	1	0.893375
16.833333	1	0.897000
16.850000	1	0.898750
16.866667	1	0.900250
16.883333	1	0.900625
16.900000	1	0.900750
16.916667	1	0.900875
16.933333	1	0.900875
16.950000	1	0.900375
16.966667	1	0.900000
16.983333	1	0.899875
17.000000	1	0.900875
17.016667	1	0.902000
17.033333	1	0.903500
17.050000	1	0.905000
17.066667	1	0.907000
17.083333	1	0.908375
17.100000	1	0.909125
17.116667	1	0.909500
17.133333	1	0.909500
17.150000	1	0.907625
17.166667	1	0.905375
17.183333	1	0.902250
17.200000	1	0.897000
17.216667	1	0.890375
17.233333	1	0.882375
17.250000	1	0.874125
17.266667	1	0.865625
17.283333	1	0.855500
17.300000	1	0.845375
17.316667	1	0.835125
17.333333	1	0.824875
17.350000	1	0.814375
17.366667	1	0.804625
17.383333	1	0.795625
17.400000	1	0.787125
17.416667	1	0.778875
17.433333	1	0.771500
17.450000	1	0.765000
17.466667	1	0.759750
17.483333	1	0.756500
17.500000	1	0.754875
17.516667	1	0.754625
17.533333	1	0.755875
17.550000	1	0.758375
17.566667	1	0.762250
17.583333	1	0.769125
17.600000	1	0.777500
17.616667	1	0.786125
17.633333	1	0.797125
17.650000	1	0.808375
17.666667	1	0.820750
17.683333	1	0.834250
17.700000	1	0.848125
17.716667	1	0.863000
17.733333	1	0.878000
17.750000	1	0.892875
17.766667	1	0.908000
17.783333	1	0.922250
17.800000	1	0.936125
17.816667	1	0.948375
17.833333	1	0.959250
17.850000	1	0.969125
17.866667	1	0.977500
17.883333	1	0.984375
17.900000	1	0.988250
17.916667	1	0.991000
17.933333	1	0.990375
17.950000	1	0.988625
17.966667	1	0.985000
17.983333	1	0.979875
18.000000	1	0.972000
18.016667	1	0.963250
18.033333	1	0.953250
18.050000	1	0.942750
18.066667	1	0.930500
18.083333	1	0.917625
18.100000	1	0.903875
18.116667	1	0.890375
18.133333	1	0.876625
18.150000	1	0.863125
18.166667	1	0.849875
18.183333	1	0.837250
18.200000	1	0.825625
18.216667	1	0.813875
18.233333	1	0.803375
18.250000	1	0.792500
18.266667	1	0.784000
18.283333	1	0.775125
18.300000	1	0.768125
18.316667	1	0.761625
18.333333	1	0.756375
18.350000	1	0.752000
18.366667	1	0.748625
18.383333	1	0.746250
18.400000	1	0.744375
18.416667	1	0.743750
18.433333	1	0.743375
18.450000	1	0.742750
18.466667	1	0.742875
18.483333	1	0.743250
18.500000	1	0.744250
18.516667	1	0.745250
18.533333	1	0.746500
18.550000	1	0.747750
18.566667	1	0.750125
18.583333	1	0.751500
18.600000	1	0.753625
18.616667	1	0.755750
18.633333	1	0.758625
18.650000	1	0.762375
18.666667	1	0.766000
18.683333	1	0.770250
18.700000	1	0.774750
18.716667	1	0.779500
18.733333	1	0.785000
18.750000	1	0.792000
18.766667	1	0.798500
18.783333	1	0.806000
18.800000	1	0.814500
18.816667	1	0.823250
18.833333	1	0.831875
18.850000	1	0.842000
18.866667	1	0.852375
18.883333	1	0.864250
18.900000	1	0.877875
18.916667	1	0.893625
18.933333	1	0.911000
18.950000	1	0.929625
18.966667	1	0.950750
18.983333	1	0.974750
19.000000	1	1.001875
19.016667	1	1.031375
19.033333	1	1.064000
19.050000	1	1.099125
19.066667	1	1.136375
19.083333	1	1.175500
19.100000	1	1.216500
19.116667	1	1.258000
19.133333	1	1.299625
19.150000	1	1.339625
19.166667	1	1.378750
19.183333	1	1.415000
19.200000	1	1.447625
19.216667	1	1.475375
19.233333	1	1.498625
19.250000	1	1.516375
19.266667	1	1.527500
19.283333	1	1.531875
19.300000	1	1.529750
19.316667	1	1.521875
19.333333	1	1.506750
19.350000	1	1.485875
19.366667	1	1.459625
19.383333	1	1.428750
19.400000	1	1.393750
19.416667	1	1.354750
19.433333	1	1.313000
19.450000	1	1.268875
19.466667	1	1.223000
19.483333	1	1.176875
19.500000	1	1.130500
19.516667	1	1.085375
19.533333	1	1.041625
19.550000	1	0.999125
19.566667	1	0.958750
19.583333	1	0.920250
19.600000	1	0.884250
19.616667	1	0.851625
19.633333	1	0.821875
19.650000	1	0.795875
19.666667	1	0.772500
19.683333	1	0.752250
19.700000	1	0.736500
19.716667	1	0.724125
19.733333	1	0.715875
19.750000	1	0.710750
19.766667	1	0.709250
19.783333	1	0.711000
19.800000	1	0.717250
19.816667	1	0.725625
19.833333	1	0.737125
19.850000	1	0.750875
19.866667	1	0.767500
19.883333	1	0.785500
19.900000	1	0.805000
19.916667	1	0.825000
19.933333	1	0.845500
19.950000	1	0.866250
19.966667	1	0.885375
19.983333	1	0.904125
20.000000	1	0.920750
20.016667	1	0.936375
20.033333	1	0.949625
20.050000	1	0.961750
20.066667	1	0.972000
20.083333	1	0.981250
20.100000	1	0.988875
20.116667	1	0.995500
20.133333	1	1.000750
20.150000	1	1.005500
20.166667	1	1.010250
20.183333	1	1.016125
20.200000	1	1.022000
20.216667	1	1.028500
20.233333	1	1.037250
20.250000	1	1.048375
20.266667	1	1.061375
20.283333	1	1.077250
20.300000	1	1.095250
20.316667	1	1.115375
20.333333	1	1.138250
20.350000	1	1.162750
20.366667	1	1.189000
20.383333	1	1.215375
20.400000	1	1.241875
20.416667	1	1.268000
20.433333	1	1.293250
20.450000	1	1.315750
20.466667	1	1.336625
20.483333	1	1.353125
20.500000	1	1.366875
20.516667	1	1.375875
20.533333	1	1.382125
20.550000	1	1.384375
20.566667	1	1.383375
20.583333	1	1.379375
20.600000	1	1.372875
20.616667	1	1.365875
20.633333	1	1.358250
20.650000	1	1.351750
20.666667	1	1.347250
20.683333	1	1.345625
20.700000	1	1.349000
20.716667	1	1.357500
20.733333	1	1.371750
20.750000	1	1.391625
20.766667	1	1.418750
20.783333	1	1.451750
20.800000	1	1.490000
20.816667	1	1.532625
20.833333	1	1.578375
20.850000	1	1.625625
20.866667	1	1.673375
20.883333	1	1.718375
20.900000	1	1.759875
20.916667	1	1.795500
20.933333	1	1.823875
20.950000	1	1.843250
20.966667	1	1.852625
20.983333	1	1.851375
21.000000	1	1.839375
21.016667	1	1.817375
21.033333	1	1.784750
21.050000	1	1.743000
21.066667	1	1.693375
21.083333	1	1.636625
21.100000	1	1.574125
21.116667	1	1.507625
21.133333	1	1.437875
21.150000	1	1.367375
21.166667	1	1.295875
21.183333	1	1.225000
21.200000	1	1.156625
21.216667	1	1.090125
21.233333	1	1.027250
21.250000	1	0.967250
21.266667	1	0.912125
21.283333	1	0.860125
21.300000	1	0.813125
21.316667	1	0.768875
21.333333	1	0.729375
21.350000	1	0.693625
21.366667	1	0.661500
21.383333	1	0.632250
21.400000	1	0.606375
21.416667	1	0.583625
21.433333	1	0.563500
21.450000	1	0.546125
21.466667	1	0.531125
21.483333	1	0.517250
21.500000	1	0.505875
21.516667	1	0.496000
21.533333	1	0.487250
21.550000	1	0.480375
21.566667	1	0.473875
21.583333	1	0.467625
21.600000	1	0.462500
21.616667	1	0.457750
21.633333	1	0.454125
21.650000	1	0.451250
21.666667	1	0.448625
21.683333	1	0.446250
21.700000	1	0.445250
21.716667	1	0.444250
21.733333	1	0.444000
21.750000	1	0.443750
21.766667	1	0.443750
21.783333	1	0.444875
21.800000	1	0.446750
21.816667	1	0.449000
21.833333	1	0.452000
21.850000	1	0.455375
21.866667	1	0.458750
21.883333	1	0.462875
21.900000	1	0.467375
21.916667	1	0.472500
21.933333	1	0.477000
21.950000	1	0.482000
21.966667	1	0.486500
21.983333	1	0.490375
22.000000	1	0.494125
22.016667	1	0.497250
22.033333	1	0.500000
22.050000	1	0.501875
22.066667	1	0.502250
22.083333	1	0.502250
22.100000	1	0.501750
22.116667	1	0.500250
22.133333	1	0.498125
22.150000	1	0.495500
22.166667	1	0.491875
22.183333	1	0.488500
22.200000	1	0.485000
22.216667	1	0.480625
22.233333	1	0.477000
22.250000	1	0.472750
22.266667	1	0.468875
22.283333	1	0.466000
22.300000	1	0.464000
22.316667	1	0.462625
22.333333	1	0.461500
22.350000	1	0.461125
22.366667	1	0.461375
22.383333	1	0.462625
22.400000	1	0.464375
22.416667	1	0.466750
22.433333	1	0.470000
22.450000	1	0.473375
22.466667	1	0.477500
22.483333	1	0.481750
22.500000	1	0.486125
22.516667	1	0.490500
22.533333	1	0.495625
22.550000	1	0.500750
22.566667	1	0.506750
22.583333	1	0.511125
22.600000	1	0.516125
22.616667	1	0.520375
22.633333	1	0.524750
22.650000	1	0.528625
22.666667	1	0.532500
22.683333	1	0.536125
22.700000	1	0.539375
22.716667	1	0.541375
22.733333	1	0.542875
22.750000	1	0.544000
22.766667	1	0.543875
22.783333	1	0.543000
22.800000	1	0.541375
22.816667	1	0.539125
22.833333	1	0.536750
22.850000	1	0.534125
22.866667	1	0.530250
22.883333	1	0.526000
22.900000	1	0.521375
22.916667	1	0.516750
22.933333	1	0.512250
22.950000	1	0.507000
22.966667	1	0.501500
22.983333	1	0.495500
23.000000	1	0.490375
23.016667	1	0.486000
23.033333	1	0.481625
23.050000	1	0.477625
23.066667	1	0.474875
23.083333	1	0.472625
23.100000	1	0.471250
23.116667	1	0.471125
23.133333	1	0.471625
23.150000	1	0.473375
23.166667	1	0.476250
23.183333	1	0.480375
23.200000	1	0.485500
23.216667	1	0.492375
23.233333	1	0.501500
23.250000	1	0.512000
23.266667	1	0.523750
23.283333	1	0.536750
23.300000	1	0.552500
23.316667	1	0.568750
23.333333	1	0.588000
23.350000	1	0.609750
23.366667	1	0.633375
23.383333	1	0.659625
23.400000	1	0.689250
23.416667	1	0.722625
23.433333	1	0.759250
23.450000	1	0.800250
23.466667	1	0.844875
23.483333	1	0.895125
23.500000	1	0.951750
23.516667	1	1.014625
23.533333	1	1.085375
23.550000	1	1.164875
23.566667	1	1.254625
23.583333	1	1.355000
23.600000	1	1.467250
23.616667	1	1.591375
23.633333	1	1.728250
23.650000	1	1.878125
23.666667	1	2.041500
23.683333	1	2.217750
23.700000	1	2.406250
23.716667	1	2.605375
23.733333	1	2.813250
23.750000	1	3.026750
23.766667	1	3.242875
23.783333	1	3.460375
23.800000	1	3.674375
23.816667	1	3.880375
23.833333	1	4.075250
23.850000	1	4.254375
23.866667	1	4.414500
23.883333	1	4.551750
23.900000	1	4.663875
23.916667	1	4.749250
23.933333	1	4.805125
23.950000	1	4.830500
23.966667	1	4.825875
23.983333	1	4.792125
24.000000	1	4.729875
24.016667	1	4.641250
24.033333	1	4.529125
24.050000	1	4.396000
24.066667	1	4.244625
24.083333	1	4.078000
24.100000	1	3.900000
24.116667	1	3.713125
24.133333	1	3.520375
24.150000	1	3.326375
24.166667	1	3.132375
24.183333	1	2.941625
24.200000	1	2.755750
24.216667	1	2.576250
24.233333	1	2.405125
24.250000	1	2.244125
24.266667	1	2.092500
24.283333	1	1.950625
24.300000	1	1.819250
24.316667	1	1.698500
24.333333	1	1.588000
24.350000	1	1.486875
24.366667	1	1.395500
24.383333	1	1.313125
24.400000	1	1.238750
24.416667	1	1.172000
24.433333	1	1.112250
24.450000	1	1.058750
24.466667	1	1.010500
24.483333	1	0.966500
24.500000	1	0.927125
24.516667	1	0.890500
24.533333	1	0.857125
24.550000	1	0.825375
24.566667	1	0.795500
24.583333	1	0.767375
24.600000	1	0.740750
24.616667	1	0.715500
24.633333	1	0.690875
24.650000	1	0.667125
24.666667	1	0.644125
24.683333	1	0.621625
24.700000	1	0.599000
24.716667	1	0.577500
24.733333	1	0.556375
24.750000	1	0.535250
24.766667	1	0.515500
24.783333	1	0.496250
24.800000	1	0.477375
24.816667	1	0.459125
24.833333	1	0.441750
24.850000	1	0.426000
24.866667	1	0.410125
24.883333	1	0.395750
24.900000	1	0.380750
24.916667	1	0.368000
24.933333	1	0.355875
24.950000	1	0.345375
24.966667	1	0.336000
24.983333	1	0.326875
25.000000	1	0.318625
25.016667	1	0.311500
25.033333	1	0.305625
25.050000	1	0.300375
25.066667	1	0.296125
25.083333	1	0.293125
25.100000	1	0.290500
25.116667	1	0.289625
25.133333	1	0.288875
25.150000	1	0.288875
25.166667	1	0.288750
25.183333	1	0.289250
25.200000	1	0.290250
25.216667	1	0.292000
25.233333	1	0.293875
25.250000	1	0.296375
25.266667	1	0.299625
25.283333	1	0.302625
25.300000	1	0.306125
25.316667	1	0.309625
25.333333	1	0.313750
25.350000	1	0.317125
25.366667	1	0.320250
25.383333	1	0.323750
25.400000	1	0.327000
25.416667	1	0.329875
25.433333	1	0.333000
25.450000	1	0.335375
25.466667	1	0.338250
25.483333	1	0.340750
25.500000	1	0.342625
25.516667	1	0.344500
25.533333	1	0.345875
25.550000	1	0.346250
25.566667	1	0.347250
25.583333	1	0.346875
25.600000	1	0.347000
25.616667	1	0.346875
25.633333	1	0.346250
25.650000	1	0.345250
25.666667	1	0.343125
25.683333	1	0.341250
25.700000	1	0.338875
25.716667	1	0.336875
25.733333	1	0.334750
25.750000	1	0.332250
25.766667	1	0.329500
25.783333	1	0.326875
25.800000	1	0.322625
25.816667	1	0.319625
25.833333	1	0.315000
25.850000	1	0.310000
25.866667	1	0.304875
25.883333	1	0.299875
25.900000	1	0.294500
25.916667	1	0.288875
25.933333	1	0.283125
25.950000	1	0.276750
25.966667	1	0.270125
25.983333	1	0.262750
26.000000	1	0.255875
26.016667	1	0.248125
26.033333	1	0.241000
26.050000	1	0.233875
26.066667	1	0.226625
26.083333	1	0.219250
26.100000	1	0.212500
26.116667	1	0.206500
26.133333	1	0.200500
26.150000	1	0.194625
26.166667	1	0.188875
26.183333	1	0.184500
26.200000	1	0.180500
26.216667	1	0.177625
26.233333	1	0.175500
26.250000	1	0.174125
26.266667	1	0.173500
26.283333	1	0.173375
26.300000	1	0.173375
26.316667	1	0.174875
26.333333	1	0.176000
26.350000	1	0.178375
26.366667	1	0.179750
26.383333	1	0.182625
26.400000	1	0.185250
26.416667	1	0.188000
26.433333	1	0.190625
26.450000	1	0.194125
26.466667	1	0.196250
26.483333	1	0.198875
26.500000	1	0.201125
26.516667	1	0.202875
26.533333	1	0.205000
26.550000	1	0.206750
26.566667	1	0.208500
26.583333	1	0.209500
26.600000	1	0.210500
26.616667	1	0.210625
26.633333	1	0.211000
26.650000	1	0.211125
26.666667	1	0.211000
26.683333	1	0.210750
26.700000	1	0.211125
26.716667	1	0.211000
26.733333	1	0.211000
26.750000	1	0.211875
26.766667	1	0.212250
26.783333	1	0.212875
26.800000	1	0.213125
26.816667	1	0.213875
26.833333	1	0.215125
26.850000	1	0.216500
26.866667	1	0.219250
26.883333	1	0.220625
26.900000	1	0.222875
26.916667	1	0.225625
26.933333	1	0.228875
26.950000	1	0.232375
26.966667	1	0.236125
26.983333	1	0.240500
27.000000	1	0.245250
27.016667	1	0.250250
27.033333	1	0.256750
27.050000	1	0.263625
27.066667	1	0.270750
27.083333	1	0.277750
27.100000	1	0.285875
27.116667	1	0.295250
27.133333	1	0.304750
27.150000	1	0.314625
27.166667	1	0.325375
27.183333	1	0.337000
27.200000	1	0.349250
27.216667	1	0.362375
27.233333	1	0.375875
27.250000	1	0.390750
27.266667	1	0.406625
27.283333	1	0.424125
27.300000	1	0.442250
27.316667	1	0.461750
27.333333	1	0.481625
27.350000	1	0.503875
27.366667	1	0.527250
27.383333	1	0.551375
27.400000	1	0.578250
27.416667	1	0.606375
27.433333	1	0.637250
27.450000	1	0.669375
27.466667	1	0.705375
27.483333	1	0.744750
27.500000	1	0.787625
27.516667	1	0.834500
27.533333	1	0.885375
27.550000	1	0.941750
27.566667	1	1.003500
27.583333	1	1.071125
27.600000	1	1.144875
27.616667	1	1.226000
27.633333	1	1.313750
27.650000	1	1.409500
27.666667	1	1.513125
27.683333	1	1.623625
27.700000	1	1.741375
27.716667	1	1.866875
27.733333	1	1.998250
27.750000	1	2.136000
27.766667	1	2.278625
27.783333	1	2.424125
27.800000	1	2.572375
27.816667	1	2.721375
27.833333	1	2.870375
27.850000	1	3.016625
27.866667	1	3.159125
27.883333	1	3.296000
27.900000	1	3.424000
27.916667	1	3.541625
27.933333	1	3.646875
27.950000	1	3.738875
27.966667	1	3.814500
27.983333	1	3.873625
28.000000	1	3.914750
28.016667	1	3.937125
28.033333	1	3.940250
28.050000	1	3.923375
28.066667	1	3.887750
28.083333	1	3.833000
28.100000	1	3.760250
28.116667	1	3.670125
28.133333	1	3.565875
28.150000	1	3.447750
28.166667	1	3.317250
28.183333	1	3.176375
28.200000	1	3.027500
28.216667	1	2.872125
28.233333	1	2.713375
28.250000	1	2.551375
28.266667	1	2.388875
28.283333	1	2.226750
28.300000	1	2.066125
28.316667	1	1.909625
28.333333	1	1.757500
28.350000	1	1.612000
28.366667	1	1.471625
28.383333	1	1.338250
28.400000	1	1.210875
28.416667	1	1.090500
28.433333	1	0.976875
28.450000	1	0.869750
28.466667	1	0.768750
28.483333	1	0.673375
28.500000	1	0.583875
28.516667	1	0.498750
28.533333	1	0.418750
28.550000	1	0.343375
28.566667	1	0.271000
28.583333	1	0.202500
28.600000	1	0.137250
28.616667	1	0.075125
28.633333	1	0.015125
28.650000	1	-0.042500
28.666667	1	-0.098000
28.683333	1	-0.151375
28.700000	1	-0.202000
28.716667	1	-0.251375
28.733333	1	-0.297625
28.750000	1	-0.341500
28.766667	1	-0.383375
28.783333	1	-0.422625
28.800000	1	-0.458750
28.816667	1	-0.492000
28.833333	1	-0.521500
28.850000	1	-0.548375
28.866667	1	-0.571375
28.883333	1	-0.590750
28.900000	1	-0.605875
28.916667	1	-0.617500
28.933333	1	-0.625375
28.950000	1	-0.629250
28.966667	1	-0.629500
28.983333	1	-0.625375
29.000000	1	-0.617625
29.016667	1	-0.605750
29.033333	1	-0.590500
29.050000	1	-0.572000
29.066667	1	-0.549750
29.083333	1	-0.525375
29.100000	1	-0.498500
29.116667	1	-0.467625
29.133333	1	-0.435625
29.150000	1	-0.402250
29.166667	1	-0.366875
29.183333	1	-0.330250
29.200000	1	-0.292750
29.216667	1	-0.255000
29.233333	1	-0.216875
29.250000	1	-0.178375
29.266667	1	-0.139875
29.283333	1	-0.101625
29.300000	1	-0.063000
29.316667	1	-0.025875
29.333333	1	0.010375
29.350000	1	0.046500
29.366667	1	0.081625
29.383333	1	0.114500
29.400000	1	0.146375
29.416667	1	0.176750
29.433333	1	0.206000
29.450000	1	0.233250
29.466667	1	0.260250
29.483333	1	0.285250
29.500000	1	0.308250
29.516667	1	0.330000
29.533333	1	0.350000
29.550000	1	0.367250
29.566667	1	0.384500
29.583333	1	0.399375
29.600000	1	0.412750
29.616667	1	0.424750
29.633333	1	0.435375
29.650000	1	0.444375
29.666667	1	0.451875
29.683333	1	0.458125
29.700000	1	0.462750
29.716667	1	0.466125
29.733333	1	0.468750
29.750000	1	0.470625
29.766667	1	0.470875
29.783333	1	0.470500
29.800000	1	0.469375
29.816667	1	0.467875
29.833333	1	0.464875
29.850000	1	0.461625
29.866667	1	0.458125
29.883333	1	0.454250
29.900000	1	0.450250
29.916667	1	0.446125
29.933333	1	0.442125
29.950000	1	0.437375
29.966667	1	0.432625
29.983333	1	0.428000
30.000000	1	0.422750
30.016667	1	0.417875
30.033333	1	0.413750
30.050000	1	0.409250
30.066667	1	0.405875
30.083333	1	0.402375
30.100000	1	0.399500
30.116667	1	0.396500
30.133333	1	0.393875
30.150000	1	0.391250
30.166667	1	0.389250
30.183333	1	0.387375
30.200000	1	0.386000
30.216667	1	0.384375
30.233333	1	0.382500
30.250000	1	0.381875
30.266667	1	0.381500
30.283333	1	0.381250
30.300000	1	0.380625
30.316667	1	0.381875
30.333333	1	0.382875
30.350000	1	0.384125
30.366667	1	0.385125
30.383333	1	0.386750
30.400000	1	0.389500
30.416667	1	0.391875
30.433333	1	0.394875
30.450000	1	0.397750
30.466667	1	0.401500
30.483333	1	0.405875
30.500000	1	0.410125
30.516667	1	0.415500
30.533333	1	0.421125
30.550000	1	0.426750
30.566667	1	0.433625
30.583333	1	0.440000
30.600000	1	0.447250
30.616667	1	0.454375
30.633333	1	0.460875
30.650000	1	0.467625
30.666667	1	0.473625
30.683333	1	0.480125
30.700000	1	0.485750
30.716667	1	0.491000
30.733333	1	0.495000
30.750000	1	0.499125
30.766667	1	0.502125
30.783333	1	0.504000
30.800000	1	0.504750
30.816667	1	0.504000
30.833333	1	0.502250
30.850000	1	0.498125
30.866667	1	0.494125
30.883333	1	0.489000
30.900000	1	0.483125
30.916667	1	0.474625
30.933333	1	0.466750
30.950000	1	0.456750
30.966667	1	0.446500
30.983333	1	0.435375
31.000000	1	0.423500
31.016667	1	0.411750
31.033333	1	0.399500
31.050000	1	0.386625
31.066667	1	0.373500
31.083333	1	0.360375
31.100000	1	0.347750
31.116667	1	0.335500
31.133333	1	0.323000
31.150000	1	0.311125
31.166667	1	0.299500
31.183333	1	0.288750
31.200000	1	0.278250
31.216667	1	0.268375
31.233333	1	0.259000
31.250000	1	0.250750
31.266667	1	0.242000
31.283333	1	0.235250
31.300000	1	0.228125
31.316667	1	0.221625
31.333333	1	0.216750
31.350000	1	0.212250
31.366667	1	0.208000
31.383333	1	0.204625
31.400000	1	0.202250
31.416667	1	0.200375
31.433333	1	0.198500
31.450000	1	0.197500
31.466667	1	0.197500
31.483333	1	0.197250
31.500000	1	0.198000
31.516667	1	0.198125
31.533333	1	0.199750
31.550000	1	0.202000
31.566667	1	0.204125
31.583333	1	0.206000
31.600000	1	0.209125
31.616667	1	0.212250
31.633333	1	0.215125
31.650000	1	0.218375
31.666667	1	0.222000
31.683333	1	0.226250
31.700000	1	0.230250
31.716667	1	0.234875
31.733333	1	0.240125
31.750000	1	0.244375
31.766667	1	0.249250
31.783333	1	0.254000
31.800000	1	0.259000
31.816667	1	0.264000
31.833333	1	0.268875
31.850000	1	0.273500
31.866667	1	0.278625
31.883333	1	0.283000
31.900000	1	0.287750
31.916667	1	0.292000
31.933333	1	0.295250
31.950000	1	0.298375
31.966667	1	0.301000
31.983333	1	0.303750
32.000000	1	0.306000
32.016667	1	0.308000
32.033333	1	0.309250
32.050000	1	0.309625
32.066667	1	0.309125
32.083333	1	0.308500
32.100000	1	0.307000
32.116667	1	0.304750
32.133333	1	0.302125
32.150000	1	0.298750
32.166667	1	0.295750
32.183333	1	0.291250
32.200000	1	0.285875
32.216667	1	0.280375
32.233333	1	0.274375
32.250000	1	0.267625
32.266667	1	0.261125
32.283333	1	0.253625
32.300000	1	0.246250
32.316667	1	0.238750
32.333333	1	0.231375
32.350000	1	0.223750
32.366667	1	0.215750
32.383333	1	0.208500
32.400000	1	0.201125
32.416667	1	0.194250
32.433333	1	0.187125
32.450000	1	0.180000
32.466667	1	0.173875
32.483333	1	0.167500
32.500000	1	0.161875
32.516667	1	0.155875
32.533333	1	0.150250
32.550000	1	0.144750
32.566667	1	0.139125
32.583333	1	0.134000
32.600000	1	0.128875
32.616667	1	0.124375
32.633333	1	0.119375
32.650000	1	0.115250
32.666667	1	0.110750
32.683333	1	0.106250
32.700000	1	0.101625
32.716667	1	0.097375
32.733333	1	0.092750
32.750000	1	0.088750
32.766667	1	0.085375
32.783333	1	0.081625
32.800000	1	0.078000
32.816667	1	0.074375
32.833333	1	0.070875
32.850000	1	0.067000
32.866667	1	0.063750
32.883333	1	0.059750
32.900000	1	0.057125
32.916667	1	0.054750
32.933333	1	0.051875
32.950000	1	0.049125
32.966667	1	0.047125
32.983333	1	0.044875
33.000000	1	0.043125
33.016667	1	0.041500
33.033333	1	0.039625
33.050000	1	0.038000
33.066667	1	0.036625
33.083333	1	0.036250
33.100000	1	0.035125
33.116667	1	0.034375
33.133333	1	0.034125
33.150000	1	0.033875
33.166667	1	0.033000
33.183333	1	0.032875
33.200000	1	0.032875
33.216667	1	0.032875
33.233333	1	0.032375
33.250000	1	0.032375
33.266667	1	0.033125
33.283333	1	0.033750
33.300000	1	0.035000
33.316667	1	0.035750
33.333333	1	0.036375
33.350000	1	0.037875
33.366667	1	0.039625
33.383333	1	0.041625
33.400000	1	0.042375
33.416667	1	0.044250
33.433333	1	0.046125
33.450000	1	0.048750
33.466667	1	0.051000
33.483333	1	0.052750
33.500000	1	0.056375
33.516667	1	0.059375
33.533333	1	0.062500
33.550000	1	0.065500
33.566667	1	0.069875
33.583333	1	0.073625
33.600000	1	0.078250
33.616667	1	0.083000
33.633333	1	0.087625
33.650000	1	0.092625
33.666667	1	0.098375
33.683333	1	0.104375
33.700000	1	0.110750
33.716667	1	0.117875
33.733333	1	0.125125
33.750000	1	0.133750
33.766667	1	0.142875
33.783333	1	0.152375
33.800000	1	0.162375
33.816667	1	0.173875
33.833333	1	0.185375
33.850000	1	0.198625
33.866667	1	0.212250
33.883333	1	0.226875
33.900000	1	0.243250
33.916667	1	0.260750
33.933333	1	0.278625
33.950000	1	0.298000
33.966667	1	0.318250
33.983333	1	0.340375
34.000000	1	0.363000
34.016667	1	0.386750
34.033333	1	0.411875
34.050000	1	0.437250
34.066667	1	0.464125
34.083333	1	0.491375
34.100000	1	0.518750
34.116667	1	0.546000
34.133333	1	0.574125
34.150000	1	0.602500
34.166667	1	0.629750
34.183333	1	0.656750
34.200000	1	0.681875
34.216667	1	0.706750
34.233333	1	0.730250
34.250000	1	0.751875
34.266667	1	0.771625
34.283333	1	0.789125
34.300000	1	0.805000
34.316667	1	0.817625
34.333333	1	0.828250
34.350000	1	0.835750
34.366667	1	0.840500
34.383333	1	0.842000
34.400000	1	0.841250
34.416667	1	0.838000
34.433333	1	0.832875
34.450000	1	0.824000
34.466667	1	0.813500
34.483333	1	0.799875
34.500000	1	0.784750
34.516667	1	0.768125
34.533333	1	0.749625
34.550000	1	0.729125
34.566667	1	0.707750
34.583333	1	0.684625
34.600000	1	0.660875
34.616667	1	0.636500
34.633333	1	0.611000
34.650000	1	0.586375
34.666667	1	0.561250
34.683333	1	0.537125
34.700000	1	0.512750
34.716667	1	0.488750
34.733333	1	0.465875
34.750000	1	0.443750
34.766667	1	0.422250
34.783333	1	0.401125
34.800000	1	0.381500
34.816667	1	0.363125
34.833333	1	0.345500
34.850000	1	0.329750
34.866667	1	0.314625
34.883333	1	0.300500
34.900000	1	0.288000
34.916667	1	0.275875
34.933333	1	0.265375
34.950000	1	0.255875
34.966667	1	0.247125
34.983333	1	0.238875
35.000000	1	0.232125
35.016667	1	0.226250
35.033333	1	0.220750
35.050000	1	0.215875
35.066667	1	0.211500
35.083333	1	0.207625
35.100000	1	0.204500
35.116667	1	0.202500
35.133333	1	0.201000
35.150000	1	0.199500
35.166667	1	0.198875
35.183333	1	0.197250
35.200000	1	0.196375
35.216667	1	0.196125
35.233333	1	0.195000
35.250000	1	0.194875
35.266667	1	0.194875
35.283333	1	0.195375
35.300000	1	0.195500
35.316667	1	0.195500
35.333333	1	0.195750
35.350000	1	0.196000
35.366667	1	0.196125
35.383333	1	0.195875
35.400000	1	0.195500
35.416667	1	0.194625
35.433333	1	0.194125
35.450000	1	0.193500
35.466667	1	0.192500
35.483333	1	0.191875
35.500000	1	0.190625
35.516667	1	0.189125
35.533333	1	0.188000
35.550000	1	0.186375
35.566667	1	0.185000
35.583333	1	0.183375
35.600000	1	0.182000
35.616667	1	0.180500
35.633333	1	0.179250
35.650000	1	0.176875
35.666667	1	0.176000
35.683333	1	0.175000
35.700000	1	0.173375
35.716667	1	0.172125
35.733333	1	0.170875
35.750000	1	0.170000
35.766667	1	0.168125
35.783333	1	0.167000
35.800000	1	0.166000
35.816667	1	0.165250
35.833333	1	0.164125
35.850000	1	0.163000
35.866667	1	0.161625
35.883333	1	0.160500
35.900000	1	0.158875
35.916667	1	0.158000
35.933333	1	0.157625
35.950000	1	0.156125
35.966667	1	0.155500
35.983333	1	0.154125
36.000000	1	0.152750
36.016667	1	0.151000
36.033333	1	0.150125
36.050000	1	0.149000
36.066667	1	0.147500
36.083333	1	0.146375
36.100000	1	0.144750
36.116667	1	0.143500
36.133333	1	0.141750
36.150000	1	0.140625
36.166667	1	0.138625
36.183333	1	0.137000
36.200000	1	0.135125
36.216667	1	0.133125
36.233333	1	0.131000
36.250000	1	0.128875
36.266667	1	0.126500
36.283333	1	0.125250
36.300000	1	0.123625
36.316667	1	0.121750
36.333333	1	0.119000
36.350000	1	0.117125
36.366667	1	0.115500
36.383333	1	0.113125
36.400000	1	0.111500
36.416667	1	0.109500
36.433333	1	0.108000
36.450000	1	0.106125
36.466667	1	0.104000
36.483333	1	0.102125
36.500000	1	0.100625
36.516667	1	0.098250
36.533333	1	0.096375
36.550000	1	0.093500
36.566667	1	0.091500
36.583333	1	0.089250
36.600000	1	0.087125
36.616667	1	0.085250
36.633333	1	0.082500
36.650000	1	0.080375
36.666667	1	0.077625
36.683333	1	0.075625
36.700000	1	0.072875
36.716667	1	0.070500
36.733333	1	0.068375
36.750000	1	0.065625
36.766667	1	0.062375
36.783333	1	0.059875
36.800000	1	0.055750
36.816667	1	0.052625
36.833333	1	0.049500
36.850000	1	0.046625
36.866667	1	0.043125
36.883333	1	0.040000
36.900000	1	0.037250
36.916667	1	0.035000
36.933333	1	0.031500
36.950000	1	0.028625
36.966667	1	0.024625
36.983333	1	0.021500
37.000000	1	0.018500
37.016667	1	0.016000
37.033333	1	0.012750
37.050000	1	0.010000
37.066667	1	0.007250
37.083333	1	0.004750
37.100000	1	0.002625
37.116667	1	0.000000
37.133333	1	-0.002125
37.150000	1	-0.004875
37.166667	1	-0.006750
37.183333	1	-0.009000
37.200000	1	-0.010750
37.216667	1	-0.012375
37.233333	1	-0.013750
37.250000	1	-0.015625
37.266667	1	-0.017375
37.283333	1	-0.018875
37.300000	1	-0.020125
37.316667	1	-0.021375
37.333333	1	-0.022250
37.350000	1	-0.023375
37.366667	1	-0.025000
37.383333	1	-0.025625
37.400000	1	-0.026000
37.416667	1	-0.026500
37.433333	1	-0.027875
37.450000	1	-0.028125
37.466667	1	-0.029125
37.483333	1	-0.029125
37.500000	1	-0.029125
37.516667	1	-0.028875
37.533333	1	-0.029250
37.550000	1	-0.029375
37.566667	1	-0.029625
37.583333	1	-0.029500
37.600000	1	-0.030125
37.616667	1	-0.029875
37.633333	1	-0.029875
37.650000	1	-0.029500
37.666667	1	-0.029000
37.683333	1	-0.028375
37.700000	1	-0.027500
37.716667	1	-0.027250
37.733333	1	-0.026625
37.750000	1	-0.026500
37.766667	1	-0.025500
37.783333	1	-0.024500
37.800000	1	-0.023875
37.816667	1	-0.023875
37.833333	1	-0.023000
37.850000	1	-0.022250
37.866667	1	-0.021125
37.883333	1	-0.020500
37.900000	1	-0.019125
37.916667	1	-0.018000
37.933333	1	-0.017500
37.950000	1	-0.016500
37.966667	1	-0.015750
37.983333	1	-0.014750
38.000000	1	-0.013875
38.016667	1	-0.013125
38.033333	1	-0.013000
38.050000	1	-0.012375
38.066667	1	-0.011875
38.083333	1	-0.010875
38.100000	1	-0.011000
38.116667	1	-0.010750
38.133333	1	-0.010250
38.150000	1	-0.009500
38.166667	1	-0.010250
38.183333	1	-0.010000
38.200000	1	-0.010125
38.216667	1	-0.009500
38.233333	1	-0.009375
38.250000	1	-0.008875
38.266667	1	-0.008875
38.283333	1	-0.009000
38.300000	1	-0.009125
38.316667	1	-0.009125
38.333333	1	-0.009125
38.350000	1	-0.009375
38.366667	1	-0.009000
38.383333	1	-0.008875
38.400000	1	-0.008625
38.416667	1	-0.008125
38.433333	1	-0.008000
38.450000	1	-0.007375
38.466667	1	-0.007250
38.483333	1	-0.006500
38.500000	1	-0.005500
38.516667	1	-0.005000
38.533333	1	-0.004750
38.550000	1	-0.004500
38.566667	1	-0.004125
38.583333	1	-0.004000
38.600000	1	-0.004500
38.616667	1	-0.004750
38.633333	1	-0.004375
38.650000	1	-0.004750
38.666667	1	-0.004625
38.683333	1	-0.004875
38.700000	1	-0.004750
38.716667	1	-0.004875
38.733333	1	-0.004375
38.750000	1	-0.004250
38.766667	1	-0.004375
38.783333	1	-0.005625
38.800000	1	-0.005000
38.816667	1	-0.004750
38.833333	1	-0.005125
38.850000	1	-0.004875
38.866667	1	-0.004500
38.883333	1	-0.004875
38.900000	1	-0.004500
38.916667	1	-0.004375
38.933333	1	-0.004875
38.950000	1	-0.004125
38.966667	1	-0.004375
38.983333	1	-0.004750
39.000000	1	-0.005000
39.016667	1	-0.004875
39.033333	1	-0.006000
39.050000	1	-0.005750
39.066667	1	-0.006250
39.083333	1	-0.006250
39.100000	1	-0.006875
39.116667	1	-0.007750
39.133333	1	-0.008625
39.150000	1	-0.008875
39.166667	1	-0.009250
39.183333	1	-0.010500
39.200000	1	-0.010875
39.216667	1	-0.011750
39.233333	1	-0.012750
39.250000	1	-0.013375
39.266667	1	-0.014125
39.283333	1	-0.014750
39.300000	1	-0.015000
39.316667	1	-0.015500
39.333333	1	-0.016375
39.350000	1	-0.016625
39.366667	1	-0.017500
39.383333	1	-0.017375
39.400000	1	-0.017000
39.416667	1	-0.017375
39.433333	1	-0.017750
39.450000	1	-0.018625
39.466667	1	-0.018375
39.483333	1	-0.017375
39.500000	1	-0.017250
39.516667	1	-0.017250
39.533333	1	-0.016500
39.550000	1	-0.015750
39.566667	1	-0.015500
39.583333	1	-0.014750
39.600000	1	-0.014125
39.616667	1	-0.012875
39.633333	1	-0.012375
39.650000	1	-0.012000
39.666667	1	-0.011500
39.683333	1	-0.010000
39.700000	1	-0.008875
39.716667	1	-0.008125
39.733333	1	-0.007375
39.750000	1	-0.006750
39.766667	1	-0.006125
39.783333	1	-0.005750
39.800000	1	-0.004000
39.816667	1	-0.003375
39.833333	1	-0.002750
39.850000	1	-0.002375
39.866667	1	-0.001375
39.883333	1	-0.000500
39.900000	1	0.000375
39.916667	1	0.001750
39.933333	1	0.002125
39.950000	1	0.002250
39.966667	1	0.003250
39.983333	1	0.003875
40.000000	1	0.004750
