File Path	chrom://marshall/Chromeleon7/HPLC_Ultimate_3000/Users/markusar/20230610_CMO_FP11_FP12.seq/402.smp/RI_1.channel/RI_1.chm
Channel	RI_1

Injection Information:
Data Vault	Chromeleon7
Injection	FP11_1_S2
Injection Number	12
Position	BA11
Comment	
Processing Method	
Instrument Method	run_25B_method
Type	Unknown
Status	Finished
Injection Date	11.06.2023
Injection Time	02:14:30
Injection Volume (µl)	20.000
Dilution Factor	1.0000
Weight	1.0000

Chromatogram Data Information:
Time Min. (min)	0.000000
Time Max. (min)	40.000000
Data Points	2401
Detector	RI
Generating Data System	Chromeleon 7.2.5.9507
Exporting Data System	Chromeleon 7.2.5.0
Operator	Instrument Controller
Signal Quantity	Refractive 
Signal Unit	µRIU
Signal Min.	-0.848125
Signal Max.	50.816250
Channel	RI_1
Driver Name	RID520Driver.dll
Channel Type	Evaluation
Min. Step (s)	1
Max. Step (s)	1
Average Step (s)	1

Signal Parameter Information:
Signal Info	

Chromatogram Data:
Time (min)	Step (s)	Value (µRIU)
0.000000	n.a.	-0.014625
0.016667	1	-0.015750
0.033333	1	-0.017000
0.050000	1	-0.017750
0.066667	1	-0.017750
0.083333	1	-0.018750
0.100000	1	-0.019875
0.116667	1	-0.020750
0.133333	1	-0.021500
0.150000	1	-0.022625
0.166667	1	-0.023875
0.183333	1	-0.024500
0.200000	1	-0.025625
0.216667	1	-0.026500
0.233333	1	-0.028625
0.250000	1	-0.029750
0.266667	1	-0.030375
0.283333	1	-0.031000
0.300000	1	-0.032625
0.316667	1	-0.035125
0.333333	1	-0.038500
0.350000	1	-0.043375
0.366667	1	-0.048125
0.383333	1	-0.050250
0.400000	1	-0.049500
0.416667	1	-0.047000
0.433333	1	-0.044875
0.450000	1	-0.043000
0.466667	1	-0.041625
0.483333	1	-0.041125
0.500000	1	-0.040750
0.516667	1	-0.040250
0.533333	1	-0.040500
0.550000	1	-0.042125
0.566667	1	-0.044625
0.583333	1	-0.048250
0.600000	1	-0.052500
0.616667	1	-0.056125
0.633333	1	-0.059375
0.650000	1	-0.061500
0.666667	1	-0.063000
0.683333	1	-0.064625
0.700000	1	-0.066500
0.716667	1	-0.068000
0.733333	1	-0.069750
0.750000	1	-0.070875
0.766667	1	-0.071625
0.783333	1	-0.072500
0.800000	1	-0.073500
0.816667	1	-0.074500
0.833333	1	-0.075125
0.850000	1	-0.075500
0.866667	1	-0.075750
0.883333	1	-0.076125
0.900000	1	-0.076250
0.916667	1	-0.076250
0.933333	1	-0.075625
0.950000	1	-0.076125
0.966667	1	-0.076375
0.983333	1	-0.076625
1.000000	1	-0.077000
1.016667	1	-0.077375
1.033333	1	-0.077125
1.050000	1	-0.076500
1.066667	1	-0.075625
1.083333	1	-0.074875
1.100000	1	-0.074625
1.116667	1	-0.074000
1.133333	1	-0.073750
1.150000	1	-0.073125
1.166667	1	-0.072375
1.183333	1	-0.071375
1.200000	1	-0.069875
1.216667	1	-0.069125
1.233333	1	-0.068750
1.250000	1	-0.068000
1.266667	1	-0.067250
1.283333	1	-0.065875
1.300000	1	-0.065125
1.316667	1	-0.063625
1.333333	1	-0.062375
1.350000	1	-0.061875
1.366667	1	-0.060500
1.383333	1	-0.059875
1.400000	1	-0.058250
1.416667	1	-0.057250
1.433333	1	-0.056250
1.450000	1	-0.054875
1.466667	1	-0.053875
1.483333	1	-0.053625
1.500000	1	-0.052625
1.516667	1	-0.051250
1.533333	1	-0.050375
1.550000	1	-0.049125
1.566667	1	-0.048750
1.583333	1	-0.048375
1.600000	1	-0.048000
1.616667	1	-0.047750
1.633333	1	-0.047125
1.650000	1	-0.047000
1.666667	1	-0.047125
1.683333	1	-0.045875
1.700000	1	-0.045500
1.716667	1	-0.045125
1.733333	1	-0.044750
1.750000	1	-0.044250
1.766667	1	-0.044000
1.783333	1	-0.043500
1.800000	1	-0.044125
1.816667	1	-0.044000
1.833333	1	-0.044125
1.850000	1	-0.044375
1.866667	1	-0.044250
1.883333	1	-0.044000
1.900000	1	-0.043875
1.916667	1	-0.043750
1.933333	1	-0.043125
1.950000	1	-0.044000
1.966667	1	-0.044250
1.983333	1	-0.044250
2.000000	1	-0.043750
2.016667	1	-0.044500
2.033333	1	-0.045000
2.050000	1	-0.045250
2.066667	1	-0.044875
2.083333	1	-0.045875
2.100000	1	-0.046250
2.116667	1	-0.046125
2.133333	1	-0.046500
2.150000	1	-0.046500
2.166667	1	-0.046500
2.183333	1	-0.046625
2.200000	1	-0.047125
2.216667	1	-0.047750
2.233333	1	-0.048125
2.250000	1	-0.048625
2.266667	1	-0.048875
2.283333	1	-0.048875
2.300000	1	-0.049375
2.316667	1	-0.049625
2.333333	1	-0.049875
2.350000	1	-0.050375
2.366667	1	-0.050625
2.383333	1	-0.050625
2.400000	1	-0.050625
2.416667	1	-0.050625
2.433333	1	-0.050375
2.450000	1	-0.050750
2.466667	1	-0.051000
2.483333	1	-0.051125
2.500000	1	-0.050375
2.516667	1	-0.050250
2.533333	1	-0.049375
2.550000	1	-0.049125
2.566667	1	-0.048375
2.583333	1	-0.048125
2.600000	1	-0.047125
2.616667	1	-0.046125
2.633333	1	-0.045500
2.650000	1	-0.044875
2.666667	1	-0.043875
2.683333	1	-0.043375
2.700000	1	-0.042375
2.716667	1	-0.041375
2.733333	1	-0.040000
2.750000	1	-0.039625
2.766667	1	-0.039000
2.783333	1	-0.038000
2.800000	1	-0.037500
2.816667	1	-0.036625
2.833333	1	-0.035750
2.850000	1	-0.034500
2.866667	1	-0.033625
2.883333	1	-0.033000
2.900000	1	-0.032625
2.916667	1	-0.032000
2.933333	1	-0.031500
2.950000	1	-0.030000
2.966667	1	-0.029750
2.983333	1	-0.029250
3.000000	1	-0.029250
3.016667	1	-0.028375
3.033333	1	-0.028000
3.050000	1	-0.027625
3.066667	1	-0.027000
3.083333	1	-0.027000
3.100000	1	-0.026875
3.116667	1	-0.027000
3.133333	1	-0.027125
3.150000	1	-0.027250
3.166667	1	-0.027625
3.183333	1	-0.027750
3.200000	1	-0.027500
3.216667	1	-0.027750
3.233333	1	-0.028125
3.250000	1	-0.028625
3.266667	1	-0.028750
3.283333	1	-0.029625
3.300000	1	-0.030500
3.316667	1	-0.030875
3.333333	1	-0.031250
3.350000	1	-0.032000
3.366667	1	-0.032750
3.383333	1	-0.033125
3.400000	1	-0.033625
3.416667	1	-0.034750
3.433333	1	-0.035750
3.450000	1	-0.036625
3.466667	1	-0.037125
3.483333	1	-0.037625
3.500000	1	-0.038625
3.516667	1	-0.040125
3.533333	1	-0.040875
3.550000	1	-0.041750
3.566667	1	-0.042250
3.583333	1	-0.042500
3.600000	1	-0.043625
3.616667	1	-0.044000
3.633333	1	-0.044375
3.650000	1	-0.044875
3.666667	1	-0.045625
3.683333	1	-0.045875
3.700000	1	-0.046875
3.716667	1	-0.048000
3.733333	1	-0.047875
3.750000	1	-0.048375
3.766667	1	-0.048625
3.783333	1	-0.048875
3.800000	1	-0.049000
3.816667	1	-0.049250
3.833333	1	-0.049125
3.850000	1	-0.049750
3.866667	1	-0.050250
3.883333	1	-0.050875
3.900000	1	-0.051125
3.916667	1	-0.051250
3.933333	1	-0.051375
3.950000	1	-0.051375
3.966667	1	-0.051375
3.983333	1	-0.051500
4.000000	1	-0.051125
4.016667	1	-0.050750
4.033333	1	-0.051000
4.050000	1	-0.050875
4.066667	1	-0.050750
4.083333	1	-0.051125
4.100000	1	-0.050500
4.116667	1	-0.050375
4.133333	1	-0.050375
4.150000	1	-0.049625
4.166667	1	-0.049125
4.183333	1	-0.049125
4.200000	1	-0.048500
4.216667	1	-0.048000
4.233333	1	-0.048000
4.250000	1	-0.047750
4.266667	1	-0.046875
4.283333	1	-0.046500
4.300000	1	-0.045750
4.316667	1	-0.045375
4.333333	1	-0.044625
4.350000	1	-0.043625
4.366667	1	-0.043125
4.383333	1	-0.041875
4.400000	1	-0.041125
4.416667	1	-0.040500
4.433333	1	-0.039625
4.450000	1	-0.038375
4.466667	1	-0.037500
4.483333	1	-0.036500
4.500000	1	-0.035125
4.516667	1	-0.034375
4.533333	1	-0.032875
4.550000	1	-0.032375
4.566667	1	-0.031250
4.583333	1	-0.029750
4.600000	1	-0.029000
4.616667	1	-0.027250
4.633333	1	-0.026375
4.650000	1	-0.024250
4.666667	1	-0.023375
4.683333	1	-0.022750
4.700000	1	-0.021000
4.716667	1	-0.019750
4.733333	1	-0.018500
4.750000	1	-0.017000
4.766667	1	-0.015750
4.783333	1	-0.014625
4.800000	1	-0.013875
4.816667	1	-0.012625
4.833333	1	-0.011250
4.850000	1	-0.010125
4.866667	1	-0.008750
4.883333	1	-0.007500
4.900000	1	-0.006250
4.916667	1	-0.004375
4.933333	1	-0.002875
4.950000	1	-0.001500
4.966667	1	0.000125
4.983333	1	0.001000
5.000000	1	0.001625
5.016667	1	0.003375
5.033333	1	0.004000
5.050000	1	0.005375
5.066667	1	0.006125
5.083333	1	0.007125
5.100000	1	0.008875
5.116667	1	0.010125
5.133333	1	0.011000
5.150000	1	0.011875
5.166667	1	0.012875
5.183333	1	0.013375
5.200000	1	0.014125
5.216667	1	0.014875
5.233333	1	0.014625
5.250000	1	0.015250
5.266667	1	0.016250
5.283333	1	0.016125
5.300000	1	0.015500
5.316667	1	0.015250
5.333333	1	0.015625
5.350000	1	0.015375
5.366667	1	0.014500
5.383333	1	0.014000
5.400000	1	0.013875
5.416667	1	0.014000
5.433333	1	0.013375
5.450000	1	0.012000
5.466667	1	0.011500
5.483333	1	0.010250
5.500000	1	0.008875
5.516667	1	0.008000
5.533333	1	0.007750
5.550000	1	0.007125
5.566667	1	0.006125
5.583333	1	0.005250
5.600000	1	0.004125
5.616667	1	0.002875
5.633333	1	0.002250
5.650000	1	0.001250
5.666667	1	0.001000
5.683333	1	0.000000
5.700000	1	0.000125
5.716667	1	-0.000250
5.733333	1	0.000000
5.750000	1	-0.000125
5.766667	1	-0.000125
5.783333	1	-0.000875
5.800000	1	-0.001000
5.816667	1	-0.000875
5.833333	1	-0.000250
5.850000	1	-0.000125
5.866667	1	0.000250
5.883333	1	0.000625
5.900000	1	0.001375
5.916667	1	0.001625
5.933333	1	0.002875
5.950000	1	0.003250
5.966667	1	0.004375
5.983333	1	0.005000
6.000000	1	0.006125
6.016667	1	0.007000
6.033333	1	0.008875
6.050000	1	0.010250
6.066667	1	0.011750
6.083333	1	0.013125
6.100000	1	0.014875
6.116667	1	0.016375
6.133333	1	0.017625
6.150000	1	0.018750
6.166667	1	0.021125
6.183333	1	0.022875
6.200000	1	0.024875
6.216667	1	0.027250
6.233333	1	0.028750
6.250000	1	0.030625
6.266667	1	0.032375
6.283333	1	0.034125
6.300000	1	0.035875
6.316667	1	0.037250
6.333333	1	0.038750
6.350000	1	0.040375
6.366667	1	0.042000
6.383333	1	0.043375
6.400000	1	0.045000
6.416667	1	0.046500
6.433333	1	0.048000
6.450000	1	0.050000
6.466667	1	0.051500
6.483333	1	0.053000
6.500000	1	0.054625
6.516667	1	0.056125
6.533333	1	0.057375
6.550000	1	0.058875
6.566667	1	0.060625
6.583333	1	0.062375
6.600000	1	0.063625
6.616667	1	0.064625
6.633333	1	0.065625
6.650000	1	0.066750
6.666667	1	0.068625
6.683333	1	0.069250
6.700000	1	0.070625
6.716667	1	0.071375
6.733333	1	0.072125
6.750000	1	0.072625
6.766667	1	0.072875
6.783333	1	0.073875
6.800000	1	0.074250
6.816667	1	0.075250
6.833333	1	0.075125
6.850000	1	0.074875
6.866667	1	0.074750
6.883333	1	0.074125
6.900000	1	0.073625
6.916667	1	0.072875
6.933333	1	0.072375
6.950000	1	0.071250
6.966667	1	0.070375
6.983333	1	0.069125
7.000000	1	0.067875
7.016667	1	0.066250
7.033333	1	0.064625
7.050000	1	0.062250
7.066667	1	0.059875
7.083333	1	0.058625
7.100000	1	0.056625
7.116667	1	0.055000
7.133333	1	0.052500
7.150000	1	0.050125
7.166667	1	0.047750
7.183333	1	0.045125
7.200000	1	0.042125
7.216667	1	0.039625
7.233333	1	0.037250
7.250000	1	0.034625
7.266667	1	0.031500
7.283333	1	0.029250
7.300000	1	0.026375
7.316667	1	0.023875
7.333333	1	0.021125
7.350000	1	0.019125
7.366667	1	0.017000
7.383333	1	0.014500
7.400000	1	0.012375
7.416667	1	0.009625
7.433333	1	0.007750
7.450000	1	0.006125
7.466667	1	0.004250
7.483333	1	0.002750
7.500000	1	0.000750
7.516667	1	-0.000375
7.533333	1	-0.001750
7.550000	1	-0.003000
7.566667	1	-0.004500
7.583333	1	-0.005875
7.600000	1	-0.006750
7.616667	1	-0.007125
7.633333	1	-0.008750
7.650000	1	-0.009000
7.666667	1	-0.009000
7.683333	1	-0.010250
7.700000	1	-0.010500
7.716667	1	-0.010625
7.733333	1	-0.010000
7.750000	1	-0.009750
7.766667	1	-0.009750
7.783333	1	-0.010125
7.800000	1	-0.010000
7.816667	1	-0.009625
7.833333	1	-0.009750
7.850000	1	-0.009625
7.866667	1	-0.009250
7.883333	1	-0.008625
7.900000	1	-0.008375
7.916667	1	-0.007625
7.933333	1	-0.006750
7.950000	1	-0.005875
7.966667	1	-0.005250
7.983333	1	-0.004500
8.000000	1	-0.003375
8.016667	1	-0.003125
8.033333	1	-0.001875
8.050000	1	-0.000875
8.066667	1	0.000875
8.083333	1	0.002375
8.100000	1	0.003125
8.116667	1	0.004500
8.133333	1	0.005500
8.150000	1	0.007125
8.166667	1	0.008375
8.183333	1	0.010375
8.200000	1	0.012250
8.216667	1	0.014000
8.233333	1	0.015500
8.250000	1	0.017125
8.266667	1	0.019250
8.283333	1	0.021250
8.300000	1	0.023125
8.316667	1	0.025500
8.333333	1	0.027625
8.350000	1	0.030125
8.366667	1	0.031875
8.383333	1	0.034125
8.400000	1	0.035750
8.416667	1	0.037250
8.433333	1	0.039625
8.450000	1	0.041875
8.466667	1	0.043750
8.483333	1	0.045375
8.500000	1	0.047250
8.516667	1	0.049375
8.533333	1	0.051500
8.550000	1	0.053875
8.566667	1	0.055500
8.583333	1	0.056750
8.600000	1	0.058125
8.616667	1	0.060000
8.633333	1	0.060875
8.650000	1	0.061750
8.666667	1	0.062875
8.683333	1	0.063875
8.700000	1	0.064125
8.716667	1	0.065250
8.733333	1	0.065875
8.750000	1	0.065875
8.766667	1	0.066750
8.783333	1	0.067875
8.800000	1	0.068250
8.816667	1	0.068250
8.833333	1	0.067750
8.850000	1	0.067375
8.866667	1	0.067625
8.883333	1	0.067375
8.900000	1	0.067625
8.916667	1	0.066750
8.933333	1	0.066500
8.950000	1	0.066125
8.966667	1	0.065500
8.983333	1	0.064750
9.000000	1	0.064125
9.016667	1	0.063000
9.033333	1	0.062000
9.050000	1	0.061625
9.066667	1	0.060750
9.083333	1	0.060500
9.100000	1	0.060250
9.116667	1	0.059250
9.133333	1	0.058125
9.150000	1	0.057250
9.166667	1	0.057125
9.183333	1	0.056625
9.200000	1	0.056000
9.216667	1	0.055125
9.233333	1	0.054375
9.250000	1	0.054000
9.266667	1	0.053750
9.283333	1	0.053125
9.300000	1	0.053375
9.316667	1	0.053125
9.333333	1	0.053375
9.350000	1	0.053125
9.366667	1	0.053375
9.383333	1	0.053000
9.400000	1	0.053250
9.416667	1	0.053000
9.433333	1	0.053125
9.450000	1	0.054250
9.466667	1	0.054625
9.483333	1	0.055875
9.500000	1	0.057750
9.516667	1	0.059250
9.533333	1	0.061750
9.550000	1	0.064625
9.566667	1	0.067625
9.583333	1	0.071625
9.600000	1	0.075500
9.616667	1	0.081500
9.633333	1	0.089000
9.650000	1	0.097500
9.666667	1	0.106750
9.683333	1	0.118375
9.700000	1	0.132125
9.716667	1	0.147625
9.733333	1	0.165500
9.750000	1	0.186375
9.766667	1	0.210250
9.783333	1	0.237500
9.800000	1	0.269000
9.816667	1	0.305250
9.833333	1	0.344500
9.850000	1	0.383625
9.866667	1	0.419750
9.883333	1	0.448125
9.900000	1	0.467875
9.916667	1	0.480500
9.933333	1	0.496500
9.950000	1	0.534875
9.966667	1	0.623500
9.983333	1	0.791625
10.000000	1	1.074625
10.016667	1	1.503125
10.033333	1	2.103375
10.050000	1	2.896875
10.066667	1	3.897250
10.083333	1	5.113875
10.100000	1	6.549750
10.116667	1	8.201625
10.133333	1	10.058250
10.150000	1	12.099625
10.166667	1	14.299125
10.183333	1	16.621250
10.200000	1	19.030000
10.216667	1	21.487000
10.233333	1	23.953125
10.250000	1	26.389125
10.266667	1	28.754000
10.283333	1	31.005125
10.300000	1	33.086500
10.316667	1	34.924125
10.333333	1	36.422125
10.350000	1	37.465000
10.366667	1	37.931500
10.383333	1	37.717750
10.400000	1	36.767875
10.416667	1	35.097750
10.433333	1	32.807125
10.450000	1	30.069625
10.466667	1	27.090375
10.483333	1	24.069750
10.500000	1	21.170000
10.516667	1	18.497875
10.533333	1	16.103875
10.550000	1	13.997125
10.566667	1	12.162000
10.583333	1	10.571625
10.600000	1	9.197750
10.616667	1	8.014625
10.633333	1	7.001000
10.650000	1	6.139625
10.666667	1	5.412125
10.683333	1	4.801875
10.700000	1	4.292625
10.716667	1	3.868250
10.733333	1	3.515250
10.750000	1	3.219750
10.766667	1	2.971500
10.783333	1	2.760125
10.800000	1	2.579000
10.816667	1	2.422000
10.833333	1	2.284250
10.850000	1	2.162750
10.866667	1	2.053875
10.883333	1	1.955125
10.900000	1	1.866875
10.916667	1	1.786625
10.933333	1	1.713375
10.950000	1	1.645500
10.966667	1	1.583750
10.983333	1	1.526375
11.000000	1	1.472375
11.016667	1	1.422250
11.033333	1	1.376250
11.050000	1	1.332750
11.066667	1	1.292500
11.083333	1	1.254875
11.100000	1	1.219250
11.116667	1	1.186250
11.133333	1	1.155500
11.150000	1	1.126000
11.166667	1	1.099250
11.183333	1	1.073875
11.200000	1	1.050250
11.216667	1	1.027750
11.233333	1	1.007125
11.250000	1	0.987875
11.266667	1	0.969750
11.283333	1	0.953000
11.300000	1	0.937500
11.316667	1	0.924250
11.333333	1	0.911375
11.350000	1	0.899750
11.366667	1	0.889625
11.383333	1	0.880000
11.400000	1	0.871375
11.416667	1	0.863750
11.433333	1	0.857375
11.450000	1	0.851875
11.466667	1	0.847875
11.483333	1	0.844625
11.500000	1	0.841875
11.516667	1	0.839625
11.533333	1	0.838625
11.550000	1	0.838250
11.566667	1	0.838000
11.583333	1	0.838750
11.600000	1	0.839625
11.616667	1	0.840875
11.633333	1	0.842500
11.650000	1	0.844625
11.666667	1	0.847500
11.683333	1	0.850000
11.700000	1	0.852875
11.716667	1	0.856375
11.733333	1	0.859000
11.750000	1	0.861875
11.766667	1	0.864750
11.783333	1	0.866875
11.800000	1	0.869125
11.816667	1	0.870875
11.833333	1	0.873000
11.850000	1	0.875125
11.866667	1	0.877625
11.883333	1	0.879500
11.900000	1	0.881250
11.916667	1	0.884375
11.933333	1	0.886625
11.950000	1	0.890000
11.966667	1	0.894000
11.983333	1	0.898500
12.000000	1	0.905000
12.016667	1	0.911750
12.033333	1	0.921000
12.050000	1	0.932000
12.066667	1	0.946625
12.083333	1	0.964875
12.100000	1	0.989250
12.116667	1	1.020375
12.133333	1	1.060500
12.150000	1	1.109625
12.166667	1	1.171875
12.183333	1	1.248000
12.200000	1	1.340250
12.216667	1	1.450875
12.233333	1	1.580125
12.250000	1	1.730625
12.266667	1	1.904250
12.283333	1	2.102875
12.300000	1	2.328250
12.316667	1	2.582250
12.333333	1	2.865875
12.350000	1	3.181375
12.366667	1	3.529125
12.383333	1	3.909250
12.400000	1	4.323250
12.416667	1	4.769750
12.433333	1	5.245875
12.450000	1	5.750125
12.466667	1	6.280625
12.483333	1	6.833375
12.500000	1	7.402500
12.516667	1	7.981500
12.533333	1	8.560375
12.550000	1	9.128625
12.566667	1	9.675625
12.583333	1	10.189750
12.600000	1	10.662125
12.616667	1	11.086500
12.633333	1	11.457375
12.650000	1	11.774500
12.666667	1	12.037875
12.683333	1	12.247625
12.700000	1	12.402375
12.716667	1	12.503750
12.733333	1	12.553000
12.750000	1	12.550125
12.766667	1	12.493875
12.783333	1	12.383375
12.800000	1	12.218250
12.816667	1	11.999250
12.833333	1	11.730125
12.850000	1	11.419250
12.866667	1	11.074500
12.883333	1	10.704000
12.900000	1	10.312500
12.916667	1	9.900875
12.933333	1	9.466250
12.950000	1	9.006750
12.966667	1	8.523000
12.983333	1	8.017125
13.000000	1	7.494375
13.016667	1	6.958500
13.033333	1	6.411375
13.050000	1	5.852250
13.066667	1	5.281250
13.083333	1	4.699500
13.100000	1	4.119250
13.116667	1	3.564250
13.133333	1	3.059875
13.150000	1	2.630125
13.166667	1	2.281000
13.183333	1	2.006500
13.200000	1	1.792875
13.216667	1	1.627750
13.233333	1	1.498125
13.250000	1	1.394250
13.266667	1	1.309375
13.283333	1	1.238500
13.300000	1	1.178625
13.316667	1	1.126375
13.333333	1	1.080500
13.350000	1	1.039375
13.366667	1	1.001875
13.383333	1	0.968375
13.400000	1	0.937125
13.416667	1	0.909250
13.433333	1	0.883000
13.450000	1	0.858625
13.466667	1	0.836125
13.483333	1	0.815250
13.500000	1	0.796250
13.516667	1	0.778875
13.533333	1	0.763250
13.550000	1	0.749500
13.566667	1	0.737375
13.583333	1	0.726750
13.600000	1	0.716750
13.616667	1	0.709250
13.633333	1	0.702875
13.650000	1	0.697250
13.666667	1	0.692875
13.683333	1	0.689875
13.700000	1	0.688750
13.716667	1	0.687500
13.733333	1	0.686125
13.750000	1	0.686250
13.766667	1	0.686375
13.783333	1	0.686625
13.800000	1	0.686500
13.816667	1	0.685250
13.833333	1	0.683000
13.850000	1	0.679000
13.866667	1	0.673750
13.883333	1	0.667125
13.900000	1	0.658500
13.916667	1	0.648625
13.933333	1	0.637500
13.950000	1	0.625250
13.966667	1	0.612375
13.983333	1	0.598375
14.000000	1	0.584000
14.016667	1	0.570500
14.033333	1	0.557750
14.050000	1	0.545250
14.066667	1	0.533500
14.083333	1	0.523000
14.100000	1	0.513875
14.116667	1	0.504500
14.133333	1	0.496500
14.150000	1	0.489500
14.166667	1	0.483750
14.183333	1	0.478750
14.200000	1	0.474500
14.216667	1	0.472250
14.233333	1	0.470875
14.250000	1	0.471375
14.266667	1	0.473125
14.283333	1	0.476875
14.300000	1	0.482375
14.316667	1	0.490000
14.333333	1	0.500125
14.350000	1	0.512625
14.366667	1	0.529000
14.383333	1	0.548125
14.400000	1	0.571625
14.416667	1	0.600875
14.433333	1	0.635375
14.450000	1	0.675750
14.466667	1	0.725750
14.483333	1	0.784500
14.500000	1	0.855125
14.516667	1	0.941250
14.533333	1	1.046500
14.550000	1	1.175375
14.566667	1	1.335125
14.583333	1	1.533000
14.600000	1	1.779875
14.616667	1	2.087875
14.633333	1	2.473500
14.650000	1	2.954750
14.666667	1	3.550625
14.683333	1	4.282000
14.700000	1	5.169375
14.716667	1	6.230000
14.733333	1	7.480875
14.750000	1	8.934125
14.766667	1	10.598875
14.783333	1	12.473000
14.800000	1	14.551875
14.816667	1	16.825750
14.833333	1	19.277250
14.850000	1	21.884875
14.866667	1	24.619500
14.883333	1	27.447250
14.900000	1	30.327750
14.916667	1	33.216250
14.933333	1	36.064625
14.950000	1	38.822375
14.966667	1	41.434000
14.983333	1	43.839000
15.000000	1	45.978875
15.016667	1	47.794000
15.033333	1	49.230500
15.050000	1	50.235875
15.066667	1	50.773375
15.083333	1	50.816250
15.100000	1	50.357875
15.116667	1	49.411125
15.133333	1	48.005500
15.150000	1	46.186750
15.166667	1	44.017000
15.183333	1	41.567500
15.200000	1	38.910250
15.216667	1	36.119625
15.233333	1	33.262750
15.250000	1	30.405375
15.266667	1	27.605250
15.283333	1	24.910375
15.300000	1	22.358875
15.316667	1	19.977375
15.333333	1	17.782250
15.350000	1	15.781125
15.366667	1	13.974750
15.383333	1	12.358500
15.400000	1	10.921250
15.416667	1	9.652250
15.433333	1	8.536750
15.450000	1	7.561250
15.466667	1	6.710125
15.483333	1	5.970625
15.500000	1	5.330500
15.516667	1	4.778750
15.533333	1	4.303000
15.550000	1	3.893000
15.566667	1	3.541500
15.583333	1	3.239000
15.600000	1	2.978875
15.616667	1	2.756000
15.633333	1	2.564625
15.650000	1	2.399750
15.666667	1	2.258000
15.683333	1	2.135625
15.700000	1	2.030125
15.716667	1	1.938625
15.733333	1	1.859000
15.750000	1	1.788125
15.766667	1	1.724625
15.783333	1	1.667250
15.800000	1	1.613875
15.816667	1	1.563875
15.833333	1	1.515375
15.850000	1	1.468625
15.866667	1	1.422750
15.883333	1	1.377500
15.900000	1	1.332875
15.916667	1	1.288750
15.933333	1	1.246375
15.950000	1	1.205625
15.966667	1	1.166875
15.983333	1	1.129375
16.000000	1	1.094125
16.016667	1	1.060750
16.033333	1	1.029875
16.050000	1	0.999875
16.066667	1	0.972500
16.083333	1	0.947250
16.100000	1	0.924250
16.116667	1	0.902625
16.133333	1	0.883625
16.150000	1	0.866125
16.166667	1	0.850875
16.183333	1	0.837125
16.200000	1	0.824875
16.216667	1	0.815000
16.233333	1	0.806250
16.250000	1	0.797750
16.266667	1	0.791000
16.283333	1	0.784500
16.300000	1	0.780000
16.316667	1	0.776250
16.333333	1	0.772125
16.350000	1	0.769125
16.366667	1	0.767500
16.383333	1	0.765375
16.400000	1	0.763500
16.416667	1	0.761875
16.433333	1	0.759375
16.450000	1	0.757250
16.466667	1	0.754875
16.483333	1	0.752250
16.500000	1	0.749875
16.516667	1	0.747500
16.533333	1	0.745375
16.550000	1	0.744250
16.566667	1	0.742625
16.583333	1	0.741875
16.600000	1	0.741375
16.616667	1	0.741375
16.633333	1	0.742125
16.650000	1	0.743000
16.666667	1	0.743875
16.683333	1	0.745625
16.700000	1	0.748000
16.716667	1	0.750750
16.733333	1	0.754125
16.750000	1	0.757875
16.766667	1	0.762125
16.783333	1	0.765875
16.800000	1	0.769750
16.816667	1	0.773750
16.833333	1	0.777375
16.850000	1	0.781375
16.866667	1	0.784250
16.883333	1	0.787375
16.900000	1	0.790375
16.916667	1	0.793125
16.933333	1	0.794875
16.950000	1	0.797000
16.966667	1	0.798750
16.983333	1	0.799500
17.000000	1	0.799750
17.016667	1	0.799375
17.033333	1	0.799000
17.050000	1	0.798125
17.066667	1	0.796500
17.083333	1	0.794375
17.100000	1	0.792250
17.116667	1	0.789625
17.133333	1	0.787750
17.150000	1	0.785875
17.166667	1	0.783500
17.183333	1	0.780750
17.200000	1	0.778750
17.216667	1	0.776000
17.233333	1	0.772875
17.250000	1	0.769500
17.266667	1	0.765250
17.283333	1	0.760125
17.300000	1	0.754375
17.316667	1	0.748500
17.333333	1	0.742000
17.350000	1	0.734625
17.366667	1	0.726625
17.383333	1	0.718750
17.400000	1	0.710500
17.416667	1	0.702125
17.433333	1	0.693875
17.450000	1	0.685125
17.466667	1	0.676625
17.483333	1	0.669500
17.500000	1	0.662875
17.516667	1	0.656875
17.533333	1	0.651250
17.550000	1	0.646875
17.566667	1	0.644375
17.583333	1	0.642875
17.600000	1	0.642500
17.616667	1	0.643875
17.633333	1	0.646125
17.650000	1	0.650000
17.666667	1	0.655125
17.683333	1	0.660875
17.700000	1	0.668625
17.716667	1	0.676875
17.733333	1	0.687000
17.750000	1	0.697375
17.766667	1	0.708750
17.783333	1	0.720875
17.800000	1	0.733625
17.816667	1	0.746625
17.833333	1	0.759000
17.850000	1	0.771625
17.866667	1	0.784375
17.883333	1	0.796000
17.900000	1	0.806875
17.916667	1	0.816625
17.933333	1	0.825250
17.950000	1	0.834375
17.966667	1	0.841125
17.983333	1	0.846500
18.000000	1	0.850375
18.016667	1	0.852375
18.033333	1	0.852750
18.050000	1	0.852375
18.066667	1	0.849750
18.083333	1	0.845125
18.100000	1	0.839375
18.116667	1	0.832750
18.133333	1	0.824625
18.150000	1	0.815625
18.166667	1	0.805875
18.183333	1	0.795375
18.200000	1	0.784625
18.216667	1	0.773750
18.233333	1	0.762500
18.250000	1	0.751375
18.266667	1	0.739750
18.283333	1	0.729000
18.300000	1	0.718625
18.316667	1	0.708500
18.333333	1	0.699375
18.350000	1	0.690625
18.366667	1	0.682750
18.383333	1	0.676125
18.400000	1	0.670125
18.416667	1	0.664875
18.433333	1	0.660000
18.450000	1	0.655250
18.466667	1	0.651375
18.483333	1	0.648250
18.500000	1	0.646125
18.516667	1	0.644000
18.533333	1	0.643375
18.550000	1	0.643000
18.566667	1	0.643375
18.583333	1	0.643375
18.600000	1	0.644250
18.616667	1	0.645875
18.633333	1	0.646625
18.650000	1	0.647625
18.666667	1	0.649500
18.683333	1	0.651500
18.700000	1	0.653875
18.716667	1	0.656250
18.733333	1	0.658875
18.750000	1	0.661875
18.766667	1	0.665500
18.783333	1	0.670000
18.800000	1	0.673875
18.816667	1	0.678750
18.833333	1	0.684375
18.850000	1	0.690125
18.866667	1	0.696625
18.883333	1	0.704625
18.900000	1	0.713625
18.916667	1	0.723625
18.933333	1	0.734750
18.950000	1	0.746375
18.966667	1	0.760500
18.983333	1	0.775750
19.000000	1	0.792125
19.016667	1	0.810250
19.033333	1	0.830000
19.050000	1	0.851125
19.066667	1	0.874375
19.083333	1	0.899125
19.100000	1	0.925875
19.116667	1	0.953625
19.133333	1	0.982000
19.150000	1	1.012625
19.166667	1	1.043875
19.183333	1	1.075000
19.200000	1	1.107250
19.216667	1	1.139625
19.233333	1	1.170125
19.250000	1	1.199875
19.266667	1	1.228125
19.283333	1	1.253750
19.300000	1	1.277000
19.316667	1	1.297125
19.333333	1	1.313500
19.350000	1	1.325625
19.366667	1	1.333625
19.383333	1	1.336875
19.400000	1	1.335375
19.416667	1	1.328500
19.433333	1	1.317500
19.450000	1	1.301375
19.466667	1	1.280250
19.483333	1	1.256625
19.500000	1	1.228750
19.516667	1	1.197625
19.533333	1	1.164250
19.550000	1	1.127875
19.566667	1	1.090500
19.583333	1	1.052375
19.600000	1	1.013875
19.616667	1	0.975250
19.633333	1	0.936625
19.650000	1	0.898875
19.666667	1	0.863125
19.683333	1	0.829125
19.700000	1	0.797625
19.716667	1	0.768375
19.733333	1	0.742250
19.750000	1	0.719375
19.766667	1	0.699125
19.783333	1	0.681125
19.800000	1	0.666625
19.816667	1	0.654875
19.833333	1	0.646750
19.850000	1	0.640875
19.866667	1	0.637875
19.883333	1	0.637750
19.900000	1	0.639875
19.916667	1	0.645250
19.933333	1	0.652125
19.950000	1	0.660500
19.966667	1	0.670750
19.983333	1	0.683125
20.000000	1	0.696125
20.016667	1	0.709750
20.033333	1	0.724500
20.050000	1	0.739750
20.066667	1	0.755125
20.083333	1	0.770125
20.100000	1	0.785375
20.116667	1	0.799750
20.133333	1	0.814000
20.150000	1	0.827125
20.166667	1	0.839750
20.183333	1	0.850500
20.200000	1	0.861625
20.216667	1	0.871625
20.233333	1	0.881500
20.250000	1	0.891125
20.266667	1	0.900250
20.283333	1	0.909625
20.300000	1	0.919375
20.316667	1	0.929875
20.333333	1	0.940375
20.350000	1	0.951125
20.366667	1	0.962750
20.383333	1	0.974625
20.400000	1	0.988000
20.416667	1	1.002125
20.433333	1	1.016375
20.450000	1	1.031875
20.466667	1	1.048000
20.483333	1	1.063750
20.500000	1	1.079750
20.516667	1	1.095750
20.533333	1	1.111125
20.550000	1	1.125500
20.566667	1	1.139250
20.583333	1	1.152375
20.600000	1	1.164000
20.616667	1	1.173625
20.633333	1	1.181750
20.650000	1	1.189125
20.666667	1	1.194125
20.683333	1	1.198875
20.700000	1	1.202375
20.716667	1	1.205875
20.733333	1	1.208000
20.750000	1	1.211250
20.766667	1	1.214000
20.783333	1	1.218625
20.800000	1	1.223875
20.816667	1	1.230750
20.833333	1	1.238875
20.850000	1	1.249625
20.866667	1	1.262250
20.883333	1	1.276375
20.900000	1	1.293000
20.916667	1	1.311250
20.933333	1	1.330750
20.950000	1	1.350750
20.966667	1	1.370250
20.983333	1	1.388875
21.000000	1	1.405500
21.016667	1	1.420000
21.033333	1	1.430750
21.050000	1	1.437250
21.066667	1	1.439750
21.083333	1	1.436375
21.100000	1	1.427500
21.116667	1	1.411875
21.133333	1	1.390375
21.150000	1	1.363750
21.166667	1	1.330875
21.183333	1	1.293000
21.200000	1	1.251875
21.216667	1	1.205875
21.233333	1	1.157875
21.250000	1	1.108125
21.266667	1	1.057625
21.283333	1	1.006250
21.300000	1	0.955625
21.316667	1	0.906250
21.333333	1	0.857625
21.350000	1	0.812125
21.366667	1	0.768875
21.383333	1	0.728500
21.400000	1	0.690500
21.416667	1	0.655125
21.433333	1	0.623250
21.450000	1	0.594375
21.466667	1	0.567625
21.483333	1	0.544125
21.500000	1	0.523500
21.516667	1	0.504375
21.533333	1	0.487625
21.550000	1	0.472250
21.566667	1	0.459250
21.583333	1	0.448000
21.600000	1	0.438500
21.616667	1	0.429625
21.633333	1	0.421375
21.650000	1	0.415000
21.666667	1	0.407750
21.683333	1	0.401750
21.700000	1	0.397625
21.716667	1	0.393000
21.733333	1	0.388875
21.750000	1	0.386125
21.766667	1	0.383125
21.783333	1	0.380000
21.800000	1	0.377750
21.816667	1	0.375875
21.833333	1	0.374125
21.850000	1	0.372500
21.866667	1	0.371375
21.883333	1	0.370375
21.900000	1	0.368500
21.916667	1	0.367375
21.933333	1	0.367625
21.950000	1	0.368375
21.966667	1	0.368125
21.983333	1	0.368625
22.000000	1	0.368750
22.016667	1	0.369875
22.033333	1	0.370625
22.050000	1	0.371250
22.066667	1	0.372000
22.083333	1	0.372625
22.100000	1	0.373375
22.116667	1	0.373750
22.133333	1	0.374500
22.150000	1	0.375000
22.166667	1	0.375375
22.183333	1	0.375500
22.200000	1	0.374750
22.216667	1	0.374375
22.233333	1	0.373750
22.250000	1	0.373500
22.266667	1	0.372125
22.283333	1	0.371625
22.300000	1	0.370875
22.316667	1	0.369625
22.333333	1	0.368875
22.350000	1	0.368875
22.366667	1	0.368750
22.383333	1	0.368750
22.400000	1	0.369500
22.416667	1	0.370625
22.433333	1	0.371250
22.450000	1	0.373125
22.466667	1	0.375625
22.483333	1	0.378125
22.500000	1	0.381000
22.516667	1	0.385000
22.533333	1	0.388750
22.550000	1	0.393000
22.566667	1	0.397500
22.583333	1	0.401875
22.600000	1	0.406750
22.616667	1	0.411875
22.633333	1	0.416125
22.650000	1	0.421250
22.666667	1	0.425875
22.683333	1	0.430250
22.700000	1	0.435000
22.716667	1	0.439875
22.733333	1	0.444250
22.750000	1	0.447875
22.766667	1	0.451125
22.783333	1	0.453750
22.800000	1	0.456000
22.816667	1	0.457375
22.833333	1	0.457875
22.850000	1	0.458125
22.866667	1	0.458125
22.883333	1	0.457625
22.900000	1	0.456500
22.916667	1	0.455000
22.933333	1	0.452375
22.950000	1	0.449750
22.966667	1	0.446500
22.983333	1	0.441750
23.000000	1	0.437500
23.016667	1	0.432625
23.033333	1	0.428250
23.050000	1	0.423250
23.066667	1	0.418000
23.083333	1	0.412750
23.100000	1	0.407875
23.116667	1	0.403250
23.133333	1	0.399125
23.150000	1	0.394250
23.166667	1	0.390375
23.183333	1	0.386750
23.200000	1	0.383875
23.216667	1	0.381375
23.233333	1	0.379625
23.250000	1	0.378500
23.266667	1	0.378375
23.283333	1	0.378375
23.300000	1	0.379625
23.316667	1	0.382125
23.333333	1	0.385875
23.350000	1	0.391250
23.366667	1	0.398500
23.383333	1	0.406875
23.400000	1	0.417375
23.416667	1	0.430125
23.433333	1	0.446000
23.450000	1	0.463375
23.466667	1	0.484375
23.483333	1	0.510000
23.500000	1	0.538375
23.516667	1	0.572750
23.533333	1	0.611125
23.550000	1	0.654375
23.566667	1	0.704125
23.583333	1	0.760500
23.600000	1	0.824000
23.616667	1	0.895000
23.633333	1	0.972375
23.650000	1	1.057875
23.666667	1	1.151125
23.683333	1	1.252500
23.700000	1	1.362125
23.716667	1	1.479625
23.733333	1	1.604625
23.750000	1	1.737375
23.766667	1	1.876250
23.783333	1	2.021125
23.800000	1	2.171250
23.816667	1	2.326625
23.833333	1	2.484375
23.850000	1	2.644250
23.866667	1	2.804125
23.883333	1	2.962875
23.900000	1	3.118750
23.916667	1	3.269500
23.933333	1	3.412875
23.950000	1	3.547375
23.966667	1	3.670000
23.983333	1	3.779375
24.000000	1	3.873250
24.016667	1	3.949750
24.033333	1	4.007500
24.050000	1	4.045500
24.066667	1	4.063625
24.083333	1	4.061000
24.100000	1	4.037750
24.116667	1	3.994125
24.133333	1	3.930875
24.150000	1	3.849125
24.166667	1	3.751125
24.183333	1	3.638250
24.200000	1	3.512875
24.216667	1	3.376625
24.233333	1	3.232875
24.250000	1	3.083375
24.266667	1	2.930500
24.283333	1	2.775750
24.300000	1	2.621500
24.316667	1	2.469125
24.333333	1	2.319625
24.350000	1	2.175125
24.366667	1	2.037125
24.383333	1	1.906875
24.400000	1	1.783375
24.416667	1	1.667500
24.433333	1	1.560875
24.450000	1	1.461500
24.466667	1	1.371000
24.483333	1	1.288125
24.500000	1	1.212625
24.516667	1	1.144125
24.533333	1	1.081375
24.550000	1	1.024875
24.566667	1	0.973625
24.583333	1	0.928000
24.600000	1	0.886000
24.616667	1	0.848250
24.633333	1	0.813750
24.650000	1	0.781875
24.666667	1	0.752875
24.683333	1	0.725750
24.700000	1	0.700000
24.716667	1	0.675750
24.733333	1	0.652250
24.750000	1	0.630125
24.766667	1	0.609625
24.783333	1	0.588750
24.800000	1	0.569000
24.816667	1	0.549250
24.833333	1	0.530875
24.850000	1	0.512125
24.866667	1	0.494500
24.883333	1	0.477500
24.900000	1	0.460500
24.916667	1	0.444250
24.933333	1	0.428750
24.950000	1	0.414125
24.966667	1	0.399750
24.983333	1	0.386250
25.000000	1	0.373750
25.016667	1	0.361125
25.033333	1	0.350000
25.050000	1	0.340000
25.066667	1	0.330375
25.083333	1	0.321625
25.100000	1	0.314250
25.116667	1	0.307375
25.133333	1	0.300250
25.150000	1	0.294500
25.166667	1	0.289625
25.183333	1	0.285125
25.200000	1	0.281875
25.216667	1	0.278875
25.233333	1	0.276625
25.250000	1	0.275000
25.266667	1	0.273750
25.283333	1	0.273750
25.300000	1	0.273750
25.316667	1	0.274000
25.333333	1	0.274500
25.350000	1	0.275000
25.366667	1	0.276500
25.383333	1	0.278125
25.400000	1	0.280250
25.416667	1	0.282000
25.433333	1	0.283500
25.450000	1	0.285500
25.466667	1	0.287875
25.483333	1	0.290375
25.500000	1	0.292250
25.516667	1	0.294500
25.533333	1	0.297000
25.550000	1	0.298500
25.566667	1	0.300250
25.583333	1	0.301750
25.600000	1	0.303125
25.616667	1	0.304500
25.633333	1	0.305500
25.650000	1	0.306250
25.666667	1	0.306750
25.683333	1	0.306250
25.700000	1	0.306250
25.716667	1	0.306125
25.733333	1	0.305000
25.750000	1	0.304375
25.766667	1	0.303625
25.783333	1	0.302000
25.800000	1	0.301125
25.816667	1	0.300500
25.833333	1	0.298625
25.850000	1	0.296625
25.866667	1	0.295000
25.883333	1	0.294250
25.900000	1	0.292500
25.916667	1	0.290750
25.933333	1	0.288625
25.950000	1	0.286750
25.966667	1	0.285000
25.983333	1	0.283125
26.000000	1	0.281625
26.016667	1	0.280000
26.033333	1	0.278875
26.050000	1	0.277500
26.066667	1	0.276250
26.083333	1	0.274250
26.100000	1	0.272625
26.116667	1	0.272000
26.133333	1	0.271625
26.150000	1	0.270500
26.166667	1	0.270375
26.183333	1	0.269875
26.200000	1	0.270375
26.216667	1	0.270500
26.233333	1	0.270750
26.250000	1	0.271625
26.266667	1	0.272500
26.283333	1	0.273250
26.300000	1	0.274375
26.316667	1	0.276125
26.333333	1	0.277250
26.350000	1	0.277500
26.366667	1	0.278125
26.383333	1	0.279375
26.400000	1	0.279250
26.416667	1	0.279500
26.433333	1	0.279625
26.450000	1	0.279875
26.466667	1	0.280375
26.483333	1	0.279875
26.500000	1	0.278625
26.516667	1	0.276625
26.533333	1	0.274500
26.550000	1	0.272500
26.566667	1	0.269750
26.583333	1	0.266750
26.600000	1	0.263250
26.616667	1	0.259750
26.633333	1	0.255875
26.650000	1	0.251250
26.666667	1	0.246375
26.683333	1	0.241125
26.700000	1	0.236375
26.716667	1	0.230750
26.733333	1	0.224875
26.750000	1	0.218625
26.766667	1	0.212250
26.783333	1	0.206750
26.800000	1	0.201250
26.816667	1	0.195625
26.833333	1	0.189750
26.850000	1	0.184625
26.866667	1	0.179500
26.883333	1	0.174625
26.900000	1	0.169250
26.916667	1	0.164250
26.933333	1	0.160000
26.950000	1	0.156625
26.966667	1	0.153125
26.983333	1	0.149625
27.000000	1	0.146625
27.016667	1	0.143625
27.033333	1	0.142500
27.050000	1	0.141250
27.066667	1	0.140125
27.083333	1	0.140000
27.100000	1	0.139750
27.116667	1	0.139875
27.133333	1	0.140375
27.150000	1	0.142000
27.166667	1	0.144625
27.183333	1	0.146750
27.200000	1	0.150375
27.216667	1	0.154625
27.233333	1	0.158625
27.250000	1	0.163875
27.266667	1	0.170500
27.283333	1	0.177625
27.300000	1	0.185375
27.316667	1	0.194500
27.333333	1	0.204625
27.350000	1	0.216000
27.366667	1	0.229250
27.383333	1	0.244000
27.400000	1	0.260375
27.416667	1	0.278000
27.433333	1	0.298625
27.450000	1	0.321250
27.466667	1	0.347000
27.483333	1	0.375375
27.500000	1	0.406500
27.516667	1	0.441625
27.533333	1	0.479125
27.550000	1	0.521375
27.566667	1	0.568000
27.583333	1	0.618875
27.600000	1	0.674625
27.616667	1	0.734625
27.633333	1	0.799625
27.650000	1	0.869750
27.666667	1	0.945625
27.683333	1	1.026875
27.700000	1	1.112750
27.716667	1	1.204250
27.733333	1	1.300125
27.750000	1	1.400875
27.766667	1	1.506875
27.783333	1	1.617125
27.800000	1	1.730375
27.816667	1	1.847875
27.833333	1	1.967500
27.850000	1	2.089875
27.866667	1	2.213750
27.883333	1	2.338250
27.900000	1	2.462375
27.916667	1	2.586125
27.933333	1	2.706875
27.950000	1	2.824250
27.966667	1	2.938125
27.983333	1	3.045875
28.000000	1	3.147125
28.016667	1	3.240750
28.033333	1	3.325875
28.050000	1	3.400625
28.066667	1	3.464625
28.083333	1	3.516250
28.100000	1	3.555750
28.116667	1	3.580500
28.133333	1	3.591500
28.150000	1	3.588500
28.166667	1	3.570500
28.183333	1	3.537500
28.200000	1	3.490750
28.216667	1	3.430000
28.233333	1	3.356000
28.250000	1	3.269125
28.266667	1	3.170875
28.283333	1	3.061250
28.300000	1	2.942750
28.316667	1	2.817000
28.333333	1	2.684250
28.350000	1	2.546625
28.366667	1	2.405125
28.383333	1	2.262000
28.400000	1	2.118000
28.416667	1	1.973750
28.433333	1	1.831375
28.450000	1	1.691375
28.466667	1	1.553750
28.483333	1	1.419625
28.500000	1	1.288750
28.516667	1	1.162875
28.533333	1	1.041750
28.550000	1	0.925375
28.566667	1	0.814000
28.583333	1	0.708000
28.600000	1	0.606250
28.616667	1	0.508625
28.633333	1	0.415750
28.650000	1	0.327625
28.666667	1	0.242125
28.683333	1	0.160125
28.700000	1	0.081750
28.716667	1	0.006500
28.733333	1	-0.066125
28.750000	1	-0.135375
28.766667	1	-0.202125
28.783333	1	-0.265625
28.800000	1	-0.326250
28.816667	1	-0.383625
28.833333	1	-0.438250
28.850000	1	-0.491125
28.866667	1	-0.540125
28.883333	1	-0.586375
28.900000	1	-0.629625
28.916667	1	-0.669250
28.933333	1	-0.705500
28.950000	1	-0.737500
28.966667	1	-0.765250
28.983333	1	-0.789625
29.000000	1	-0.810125
29.016667	1	-0.824875
29.033333	1	-0.836750
29.050000	1	-0.844125
29.066667	1	-0.848125
29.083333	1	-0.847250
29.100000	1	-0.841875
29.116667	1	-0.832500
29.133333	1	-0.819250
29.150000	1	-0.801500
29.166667	1	-0.780875
29.183333	1	-0.756500
29.200000	1	-0.729250
29.216667	1	-0.699500
29.233333	1	-0.666125
29.250000	1	-0.630875
29.266667	1	-0.593875
29.283333	1	-0.555125
29.300000	1	-0.514750
29.316667	1	-0.474375
29.333333	1	-0.432375
29.350000	1	-0.390250
29.366667	1	-0.347375
29.383333	1	-0.304500
29.400000	1	-0.262250
29.416667	1	-0.219500
29.433333	1	-0.178375
29.450000	1	-0.138500
29.466667	1	-0.098875
29.483333	1	-0.061125
29.500000	1	-0.025000
29.516667	1	0.010125
29.533333	1	0.043875
29.550000	1	0.076125
29.566667	1	0.106875
29.583333	1	0.134875
29.600000	1	0.162500
29.616667	1	0.187500
29.633333	1	0.210875
29.650000	1	0.232500
29.666667	1	0.252500
29.683333	1	0.270875
29.700000	1	0.287750
29.716667	1	0.303125
29.733333	1	0.316750
29.750000	1	0.328750
29.766667	1	0.339250
29.783333	1	0.348875
29.800000	1	0.357250
29.816667	1	0.364250
29.833333	1	0.371250
29.850000	1	0.376625
29.866667	1	0.380625
29.883333	1	0.383500
29.900000	1	0.386500
29.916667	1	0.389000
29.933333	1	0.390625
29.950000	1	0.392125
29.966667	1	0.393625
29.983333	1	0.394750
30.000000	1	0.396125
30.016667	1	0.397125
30.033333	1	0.398500
30.050000	1	0.400625
30.066667	1	0.403250
30.083333	1	0.406750
30.100000	1	0.410625
30.116667	1	0.415500
30.133333	1	0.421750
30.150000	1	0.429375
30.166667	1	0.438500
30.183333	1	0.448500
30.200000	1	0.460625
30.216667	1	0.474875
30.233333	1	0.491250
30.250000	1	0.509750
30.266667	1	0.531250
30.283333	1	0.555375
30.300000	1	0.581875
30.316667	1	0.612375
30.333333	1	0.645750
30.350000	1	0.682750
30.366667	1	0.724000
30.383333	1	0.769375
30.400000	1	0.819750
30.416667	1	0.873750
30.433333	1	0.932125
30.450000	1	0.995500
30.466667	1	1.063500
30.483333	1	1.135875
30.500000	1	1.213375
30.516667	1	1.295875
30.533333	1	1.381875
30.550000	1	1.473250
30.566667	1	1.568125
30.583333	1	1.666750
30.600000	1	1.768500
30.616667	1	1.873875
30.633333	1	1.981625
30.650000	1	2.091250
30.666667	1	2.202125
30.683333	1	2.314000
30.700000	1	2.424250
30.716667	1	2.532875
30.733333	1	2.639875
30.750000	1	2.743750
30.766667	1	2.843500
30.783333	1	2.939000
30.800000	1	3.028375
30.816667	1	3.110750
30.833333	1	3.185250
30.850000	1	3.251000
30.866667	1	3.307000
30.883333	1	3.353250
30.900000	1	3.389000
30.916667	1	3.413000
30.933333	1	3.427125
30.950000	1	3.428500
30.966667	1	3.419250
30.983333	1	3.398125
31.000000	1	3.366500
31.016667	1	3.323375
31.033333	1	3.270000
31.050000	1	3.207125
31.066667	1	3.134875
31.083333	1	3.055000
31.100000	1	2.967375
31.116667	1	2.874000
31.133333	1	2.775750
31.150000	1	2.674125
31.166667	1	2.567625
31.183333	1	2.459000
31.200000	1	2.349125
31.216667	1	2.238500
31.233333	1	2.127750
31.250000	1	2.018500
31.266667	1	1.910750
31.283333	1	1.805750
31.300000	1	1.703000
31.316667	1	1.604125
31.333333	1	1.509250
31.350000	1	1.417500
31.366667	1	1.330250
31.383333	1	1.247125
31.400000	1	1.167750
31.416667	1	1.093750
31.433333	1	1.023750
31.450000	1	0.957750
31.466667	1	0.896250
31.483333	1	0.839000
31.500000	1	0.785750
31.516667	1	0.736500
31.533333	1	0.690750
31.550000	1	0.648500
31.566667	1	0.609875
31.583333	1	0.574125
31.600000	1	0.541625
31.616667	1	0.511125
31.633333	1	0.483750
31.650000	1	0.458875
31.666667	1	0.435875
31.683333	1	0.414625
31.700000	1	0.395625
31.716667	1	0.378250
31.733333	1	0.363500
31.750000	1	0.350375
31.766667	1	0.338250
31.783333	1	0.326500
31.800000	1	0.317125
31.816667	1	0.308875
31.833333	1	0.301250
31.850000	1	0.294625
31.866667	1	0.288375
31.883333	1	0.283375
31.900000	1	0.278625
31.916667	1	0.275250
31.933333	1	0.271750
31.950000	1	0.269375
31.966667	1	0.267000
31.983333	1	0.265625
32.000000	1	0.264625
32.016667	1	0.263000
32.033333	1	0.261625
32.050000	1	0.260375
32.066667	1	0.259500
32.083333	1	0.258375
32.100000	1	0.257000
32.116667	1	0.255125
32.133333	1	0.253375
32.150000	1	0.251375
32.166667	1	0.249000
32.183333	1	0.247375
32.200000	1	0.244375
32.216667	1	0.241000
32.233333	1	0.238250
32.250000	1	0.233875
32.266667	1	0.229625
32.283333	1	0.225125
32.300000	1	0.221125
32.316667	1	0.216000
32.333333	1	0.210500
32.350000	1	0.204500
32.366667	1	0.199000
32.383333	1	0.193250
32.400000	1	0.187125
32.416667	1	0.180375
32.433333	1	0.173625
32.450000	1	0.167625
32.466667	1	0.160750
32.483333	1	0.153750
32.500000	1	0.147375
32.516667	1	0.141375
32.533333	1	0.135375
32.550000	1	0.130000
32.566667	1	0.124250
32.583333	1	0.118625
32.600000	1	0.112875
32.616667	1	0.107375
32.633333	1	0.102750
32.650000	1	0.098750
32.666667	1	0.094625
32.683333	1	0.090250
32.700000	1	0.086500
32.716667	1	0.082750
32.733333	1	0.079250
32.750000	1	0.075875
32.766667	1	0.072750
32.783333	1	0.068750
32.800000	1	0.066250
32.816667	1	0.063875
32.833333	1	0.061875
32.850000	1	0.059875
32.866667	1	0.057625
32.883333	1	0.055625
32.900000	1	0.053250
32.916667	1	0.051125
32.933333	1	0.049375
32.950000	1	0.047875
32.966667	1	0.045750
32.983333	1	0.043875
33.000000	1	0.041875
33.016667	1	0.039625
33.033333	1	0.037750
33.050000	1	0.035125
33.066667	1	0.033375
33.083333	1	0.031250
33.100000	1	0.029875
33.116667	1	0.027875
33.133333	1	0.025875
33.150000	1	0.024125
33.166667	1	0.022375
33.183333	1	0.020250
33.200000	1	0.017875
33.216667	1	0.015250
33.233333	1	0.013625
33.250000	1	0.011500
33.266667	1	0.009125
33.283333	1	0.008125
33.300000	1	0.006250
33.316667	1	0.004250
33.333333	1	0.002625
33.350000	1	0.001125
33.366667	1	0.000375
33.383333	1	0.000000
33.400000	1	-0.001500
33.416667	1	-0.002625
33.433333	1	-0.003875
33.450000	1	-0.004500
33.466667	1	-0.005125
33.483333	1	-0.005875
33.500000	1	-0.006250
33.516667	1	-0.006500
33.533333	1	-0.006250
33.550000	1	-0.005500
33.566667	1	-0.005000
33.583333	1	-0.004625
33.600000	1	-0.003875
33.616667	1	-0.003625
33.633333	1	-0.002000
33.650000	1	-0.000250
33.666667	1	0.001625
33.683333	1	0.004000
33.700000	1	0.005875
33.716667	1	0.008125
33.733333	1	0.010875
33.750000	1	0.013500
33.766667	1	0.016375
33.783333	1	0.019875
33.800000	1	0.023750
33.816667	1	0.028000
33.833333	1	0.032500
33.850000	1	0.037375
33.866667	1	0.042250
33.883333	1	0.047875
33.900000	1	0.053875
33.916667	1	0.060625
33.933333	1	0.067375
33.950000	1	0.074375
33.966667	1	0.082500
33.983333	1	0.090750
34.000000	1	0.099250
34.016667	1	0.107625
34.033333	1	0.117000
34.050000	1	0.126375
34.066667	1	0.136000
34.083333	1	0.146250
34.100000	1	0.157000
34.116667	1	0.168125
34.133333	1	0.180375
34.150000	1	0.191625
34.166667	1	0.203250
34.183333	1	0.215000
34.200000	1	0.226625
34.216667	1	0.238250
34.233333	1	0.249875
34.250000	1	0.261375
34.266667	1	0.272500
34.283333	1	0.283125
34.300000	1	0.294750
34.316667	1	0.305500
34.333333	1	0.315250
34.350000	1	0.324500
34.366667	1	0.333500
34.383333	1	0.341625
34.400000	1	0.348750
34.416667	1	0.355500
34.433333	1	0.360250
34.450000	1	0.364875
34.466667	1	0.368750
34.483333	1	0.371750
34.500000	1	0.374375
34.516667	1	0.375250
34.533333	1	0.375250
34.550000	1	0.373875
34.566667	1	0.371750
34.583333	1	0.368625
34.600000	1	0.364625
34.616667	1	0.359750
34.633333	1	0.353375
34.650000	1	0.347000
34.666667	1	0.340250
34.683333	1	0.332375
34.700000	1	0.323750
34.716667	1	0.315375
34.733333	1	0.306250
34.750000	1	0.297750
34.766667	1	0.288625
34.783333	1	0.279125
34.800000	1	0.269125
34.816667	1	0.259375
34.833333	1	0.250125
34.850000	1	0.241125
34.866667	1	0.232500
34.883333	1	0.222750
34.900000	1	0.214125
34.916667	1	0.205250
34.933333	1	0.196875
34.950000	1	0.189375
34.966667	1	0.183125
34.983333	1	0.177250
35.000000	1	0.171000
35.016667	1	0.165250
35.033333	1	0.160250
35.050000	1	0.155750
35.066667	1	0.151625
35.083333	1	0.148125
35.100000	1	0.144875
35.116667	1	0.141625
35.133333	1	0.138000
35.150000	1	0.135625
35.166667	1	0.134125
35.183333	1	0.132875
35.200000	1	0.131875
35.216667	1	0.130500
35.233333	1	0.129625
35.250000	1	0.129000
35.266667	1	0.128750
35.283333	1	0.128500
35.300000	1	0.128625
35.316667	1	0.128375
35.333333	1	0.129500
35.350000	1	0.130000
35.366667	1	0.130625
35.383333	1	0.131125
35.400000	1	0.131500
35.416667	1	0.131750
35.433333	1	0.131375
35.450000	1	0.131375
35.466667	1	0.132875
35.483333	1	0.133125
35.500000	1	0.133375
35.516667	1	0.133375
35.533333	1	0.134250
35.550000	1	0.134125
35.566667	1	0.134500
35.583333	1	0.135000
35.600000	1	0.134875
35.616667	1	0.134750
35.633333	1	0.134000
35.650000	1	0.133750
35.666667	1	0.133500
35.683333	1	0.133375
35.700000	1	0.133625
35.716667	1	0.133625
35.733333	1	0.133500
35.750000	1	0.133000
35.766667	1	0.132250
35.783333	1	0.131625
35.800000	1	0.131000
35.816667	1	0.130375
35.833333	1	0.129625
35.850000	1	0.129250
35.866667	1	0.129000
35.883333	1	0.128125
35.900000	1	0.126875
35.916667	1	0.125750
35.933333	1	0.125250
35.950000	1	0.124875
35.966667	1	0.124250
35.983333	1	0.123500
36.000000	1	0.122500
36.016667	1	0.121625
36.033333	1	0.121125
36.050000	1	0.120625
36.066667	1	0.119750
36.083333	1	0.118750
36.100000	1	0.118375
36.116667	1	0.118125
36.133333	1	0.118125
36.150000	1	0.117375
36.166667	1	0.116875
36.183333	1	0.116250
36.200000	1	0.115125
36.216667	1	0.114750
36.233333	1	0.114625
36.250000	1	0.113750
36.266667	1	0.113250
36.283333	1	0.113500
36.300000	1	0.113000
36.316667	1	0.112875
36.333333	1	0.112000
36.350000	1	0.111750
36.366667	1	0.111375
36.383333	1	0.111375
36.400000	1	0.110125
36.416667	1	0.108875
36.433333	1	0.108500
36.450000	1	0.107625
36.466667	1	0.106875
36.483333	1	0.105625
36.500000	1	0.104500
36.516667	1	0.103250
36.533333	1	0.102125
36.550000	1	0.100750
36.566667	1	0.099625
36.583333	1	0.097750
36.600000	1	0.096875
36.616667	1	0.094375
36.633333	1	0.092875
36.650000	1	0.091750
36.666667	1	0.089750
36.683333	1	0.087250
36.700000	1	0.085375
36.716667	1	0.083875
36.733333	1	0.081125
36.750000	1	0.078750
36.766667	1	0.076500
36.783333	1	0.074375
36.800000	1	0.070750
36.816667	1	0.068375
36.833333	1	0.065250
36.850000	1	0.062000
36.866667	1	0.059875
36.883333	1	0.057375
36.900000	1	0.054375
36.916667	1	0.051500
36.933333	1	0.048250
36.950000	1	0.045375
36.966667	1	0.041625
36.983333	1	0.038500
37.000000	1	0.034875
37.016667	1	0.031875
37.033333	1	0.029125
37.050000	1	0.026125
37.066667	1	0.022750
37.083333	1	0.019375
37.100000	1	0.016125
37.116667	1	0.012500
37.133333	1	0.009750
37.150000	1	0.006750
37.166667	1	0.004375
37.183333	1	0.001375
37.200000	1	-0.002500
37.216667	1	-0.004750
37.233333	1	-0.008250
37.250000	1	-0.011250
37.266667	1	-0.013750
37.283333	1	-0.016500
37.300000	1	-0.019125
37.316667	1	-0.021375
37.333333	1	-0.023500
37.350000	1	-0.025875
37.366667	1	-0.028125
37.383333	1	-0.029625
37.400000	1	-0.031750
37.416667	1	-0.033500
37.433333	1	-0.034875
37.450000	1	-0.036750
37.466667	1	-0.037875
37.483333	1	-0.039750
37.500000	1	-0.040875
37.516667	1	-0.041875
37.533333	1	-0.043000
37.550000	1	-0.043125
37.566667	1	-0.044000
37.583333	1	-0.044375
37.600000	1	-0.045000
37.616667	1	-0.045000
37.633333	1	-0.044875
37.650000	1	-0.045125
37.666667	1	-0.045500
37.683333	1	-0.045250
37.700000	1	-0.044500
37.716667	1	-0.044500
37.733333	1	-0.044125
37.750000	1	-0.043250
37.766667	1	-0.042375
37.783333	1	-0.042500
37.800000	1	-0.042375
37.816667	1	-0.041375
37.833333	1	-0.040625
37.850000	1	-0.039250
37.866667	1	-0.038375
37.883333	1	-0.037125
37.900000	1	-0.036250
37.916667	1	-0.035750
37.933333	1	-0.034625
37.950000	1	-0.033625
37.966667	1	-0.032000
37.983333	1	-0.030750
38.000000	1	-0.030000
38.016667	1	-0.028250
38.033333	1	-0.027250
38.050000	1	-0.025875
38.066667	1	-0.025375
38.083333	1	-0.024125
38.100000	1	-0.022500
38.116667	1	-0.021375
38.133333	1	-0.019375
38.150000	1	-0.017875
38.166667	1	-0.016375
38.183333	1	-0.015500
38.200000	1	-0.013875
38.216667	1	-0.012625
38.233333	1	-0.011750
38.250000	1	-0.010125
38.266667	1	-0.009500
38.283333	1	-0.008500
38.300000	1	-0.007625
38.316667	1	-0.006375
38.333333	1	-0.005625
38.350000	1	-0.005000
38.366667	1	-0.003875
38.383333	1	-0.003500
38.400000	1	-0.003500
38.416667	1	-0.003000
38.433333	1	-0.002375
38.450000	1	-0.001625
38.466667	1	-0.000750
38.483333	1	-0.000125
38.500000	1	0.000375
38.516667	1	0.000625
38.533333	1	0.001250
38.550000	1	0.000875
38.566667	1	0.001000
38.583333	1	0.001250
38.600000	1	0.001000
38.616667	1	0.000875
38.633333	1	0.000625
38.650000	1	0.000250
38.666667	1	-0.000125
38.683333	1	-0.001250
38.700000	1	-0.001375
38.716667	1	-0.001375
38.733333	1	-0.001375
38.750000	1	-0.002875
38.766667	1	-0.003375
38.783333	1	-0.004250
38.800000	1	-0.005000
38.816667	1	-0.005625
38.833333	1	-0.006625
38.850000	1	-0.007500
38.866667	1	-0.008125
38.883333	1	-0.008250
38.900000	1	-0.008750
38.916667	1	-0.010000
38.933333	1	-0.011125
38.950000	1	-0.012000
38.966667	1	-0.013375
38.983333	1	-0.014125
39.000000	1	-0.014875
39.016667	1	-0.015500
39.033333	1	-0.016625
39.050000	1	-0.017625
39.066667	1	-0.018125
39.083333	1	-0.018875
39.100000	1	-0.020125
39.116667	1	-0.021125
39.133333	1	-0.021875
39.150000	1	-0.022750
39.166667	1	-0.023375
39.183333	1	-0.023625
39.200000	1	-0.024625
39.216667	1	-0.025125
39.233333	1	-0.025625
39.250000	1	-0.026125
39.266667	1	-0.026500
39.283333	1	-0.027000
39.300000	1	-0.027625
39.316667	1	-0.027750
39.333333	1	-0.027875
39.350000	1	-0.028375
39.366667	1	-0.029625
39.383333	1	-0.030000
39.400000	1	-0.029875
39.416667	1	-0.029750
39.433333	1	-0.029375
39.450000	1	-0.029750
39.466667	1	-0.029750
39.483333	1	-0.029375
39.500000	1	-0.029500
39.516667	1	-0.029875
39.533333	1	-0.029625
39.550000	1	-0.029500
39.566667	1	-0.030250
39.583333	1	-0.030250
39.600000	1	-0.029750
39.616667	1	-0.028875
39.633333	1	-0.028375
39.650000	1	-0.027125
39.666667	1	-0.026500
39.683333	1	-0.026625
39.700000	1	-0.025375
39.716667	1	-0.025000
39.733333	1	-0.024625
39.750000	1	-0.023750
39.766667	1	-0.023500
39.783333	1	-0.023125
39.800000	1	-0.022625
39.816667	1	-0.021500
39.833333	1	-0.020625
39.850000	1	-0.019625
39.866667	1	-0.018625
39.883333	1	-0.018250
39.900000	1	-0.017500
39.916667	1	-0.017000
39.933333	1	-0.016375
39.950000	1	-0.016250
39.966667	1	-0.015375
39.983333	1	-0.015000
40.000000	1	-0.014375
