File Path	chrom://marshall/Chromeleon7/HPLC_Ultimate_3000/Users/markusar/20221226.seq/547.smp/RI_1.channel/RI_1.chm
Channel	RI_1

Injection Information:
Data Vault	Chromeleon7
Injection	fp2.1
Injection Number	10
Position	RB2
Comment	
Processing Method	
Instrument Method	std_method
Type	Unknown
Status	Finished
Injection Date	26.12.2022
Injection Time	22:19:17
Injection Volume (µl)	20.000
Dilution Factor	1.0000
Weight	1.0000

Chromatogram Data Information:
Time Min. (min)	0.000000
Time Max. (min)	40.000000
Data Points	2401
Detector	RI
Generating Data System	Chromeleon 7.2.5.9507
Exporting Data System	Chromeleon 7.2.5.0
Operator	Instrument Controller
Signal Quantity	Refractive 
Signal Unit	µRIU
Signal Min.	-0.064500
Signal Max.	96.551125
Channel	RI_1
Driver Name	RID520Driver.dll
Channel Type	Evaluation
Min. Step (s)	1
Max. Step (s)	1
Average Step (s)	1

Signal Parameter Information:
Signal Info	

Chromatogram Data:
Time (min)	Step (s)	Value (µRIU)
0.000000	n.a.	0.107750
0.016667	1	0.108125
0.033333	1	0.108625
0.050000	1	0.108000
0.066667	1	0.108500
0.083333	1	0.108125
0.100000	1	0.108125
0.116667	1	0.107625
0.133333	1	0.107500
0.150000	1	0.107000
0.166667	1	0.106375
0.183333	1	0.105750
0.200000	1	0.105500
0.216667	1	0.105500
0.233333	1	0.104250
0.250000	1	0.102875
0.266667	1	0.100750
0.283333	1	0.097625
0.300000	1	0.092750
0.316667	1	0.089375
0.333333	1	0.088625
0.350000	1	0.091875
0.366667	1	0.095750
0.383333	1	0.098500
0.400000	1	0.099875
0.416667	1	0.100500
0.433333	1	0.100250
0.450000	1	0.099750
0.466667	1	0.097000
0.483333	1	0.092500
0.500000	1	0.087250
0.516667	1	0.082875
0.533333	1	0.079125
0.550000	1	0.076500
0.566667	1	0.074625
0.583333	1	0.072750
0.600000	1	0.071000
0.616667	1	0.069500
0.633333	1	0.068375
0.650000	1	0.066500
0.666667	1	0.064375
0.683333	1	0.063250
0.700000	1	0.062500
0.716667	1	0.061125
0.733333	1	0.060000
0.750000	1	0.058500
0.766667	1	0.057500
0.783333	1	0.056500
0.800000	1	0.055750
0.816667	1	0.054875
0.833333	1	0.053875
0.850000	1	0.053000
0.866667	1	0.051750
0.883333	1	0.050500
0.900000	1	0.049875
0.916667	1	0.049000
0.933333	1	0.047750
0.950000	1	0.046750
0.966667	1	0.045750
0.983333	1	0.045000
1.000000	1	0.044625
1.016667	1	0.044125
1.033333	1	0.043250
1.050000	1	0.042250
1.066667	1	0.041375
1.083333	1	0.039875
1.100000	1	0.038750
1.116667	1	0.037875
1.133333	1	0.036875
1.150000	1	0.036500
1.166667	1	0.035750
1.183333	1	0.035375
1.200000	1	0.034000
1.216667	1	0.033000
1.233333	1	0.032000
1.250000	1	0.030000
1.266667	1	0.029125
1.283333	1	0.027750
1.300000	1	0.026125
1.316667	1	0.024375
1.333333	1	0.023500
1.350000	1	0.022250
1.366667	1	0.021250
1.383333	1	0.020000
1.400000	1	0.018875
1.416667	1	0.017750
1.433333	1	0.016375
1.450000	1	0.014875
1.466667	1	0.013250
1.483333	1	0.011375
1.500000	1	0.008750
1.516667	1	0.008250
1.533333	1	0.006500
1.550000	1	0.004750
1.566667	1	0.003875
1.583333	1	0.002500
1.600000	1	0.001750
1.616667	1	0.000000
1.633333	1	-0.001500
1.650000	1	-0.003125
1.666667	1	-0.004875
1.683333	1	-0.006125
1.700000	1	-0.007750
1.716667	1	-0.008625
1.733333	1	-0.009875
1.750000	1	-0.011750
1.766667	1	-0.013125
1.783333	1	-0.015125
1.800000	1	-0.017500
1.816667	1	-0.019000
1.833333	1	-0.021125
1.850000	1	-0.023250
1.866667	1	-0.024875
1.883333	1	-0.026500
1.900000	1	-0.028250
1.916667	1	-0.030125
1.933333	1	-0.031875
1.950000	1	-0.033500
1.966667	1	-0.035375
1.983333	1	-0.037375
2.000000	1	-0.038625
2.016667	1	-0.040625
2.033333	1	-0.042375
2.050000	1	-0.044000
2.066667	1	-0.045250
2.083333	1	-0.047125
2.100000	1	-0.048375
2.116667	1	-0.049375
2.133333	1	-0.051000
2.150000	1	-0.052375
2.166667	1	-0.053250
2.183333	1	-0.054500
2.200000	1	-0.055375
2.216667	1	-0.056250
2.233333	1	-0.057625
2.250000	1	-0.058125
2.266667	1	-0.059375
2.283333	1	-0.060125
2.300000	1	-0.060750
2.316667	1	-0.061125
2.333333	1	-0.061625
2.350000	1	-0.062250
2.366667	1	-0.063000
2.383333	1	-0.063125
2.400000	1	-0.063625
2.416667	1	-0.063750
2.433333	1	-0.064125
2.450000	1	-0.064375
2.466667	1	-0.064500
2.483333	1	-0.064500
2.500000	1	-0.064375
2.516667	1	-0.064000
2.533333	1	-0.064000
2.550000	1	-0.064000
2.566667	1	-0.063875
2.583333	1	-0.063125
2.600000	1	-0.062875
2.616667	1	-0.062500
2.633333	1	-0.062625
2.650000	1	-0.062125
2.666667	1	-0.062250
2.683333	1	-0.061875
2.700000	1	-0.061250
2.716667	1	-0.060750
2.733333	1	-0.059875
2.750000	1	-0.058500
2.766667	1	-0.057625
2.783333	1	-0.057250
2.800000	1	-0.056375
2.816667	1	-0.056000
2.833333	1	-0.055250
2.850000	1	-0.054000
2.866667	1	-0.052500
2.883333	1	-0.051750
2.900000	1	-0.050875
2.916667	1	-0.049375
2.933333	1	-0.048750
2.950000	1	-0.048250
2.966667	1	-0.046875
2.983333	1	-0.045875
3.000000	1	-0.044375
3.016667	1	-0.043250
3.033333	1	-0.042875
3.050000	1	-0.041750
3.066667	1	-0.040875
3.083333	1	-0.039250
3.100000	1	-0.038250
3.116667	1	-0.037000
3.133333	1	-0.035375
3.150000	1	-0.034125
3.166667	1	-0.032375
3.183333	1	-0.031375
3.200000	1	-0.029625
3.216667	1	-0.028250
3.233333	1	-0.027125
3.250000	1	-0.026250
3.266667	1	-0.024750
3.283333	1	-0.023875
3.300000	1	-0.022250
3.316667	1	-0.020500
3.333333	1	-0.018625
3.350000	1	-0.017250
3.366667	1	-0.016250
3.383333	1	-0.014750
3.400000	1	-0.013625
3.416667	1	-0.012875
3.433333	1	-0.011250
3.450000	1	-0.010000
3.466667	1	-0.008875
3.483333	1	-0.007250
3.500000	1	-0.005750
3.516667	1	-0.004000
3.533333	1	-0.003000
3.550000	1	-0.001500
3.566667	1	0.000000
3.583333	1	0.001250
3.600000	1	0.001875
3.616667	1	0.003375
3.633333	1	0.004250
3.650000	1	0.005250
3.666667	1	0.006375
3.683333	1	0.007625
3.700000	1	0.008625
3.716667	1	0.009500
3.733333	1	0.011250
3.750000	1	0.012000
3.766667	1	0.012750
3.783333	1	0.014125
3.800000	1	0.014500
3.816667	1	0.015500
3.833333	1	0.016375
3.850000	1	0.017250
3.866667	1	0.018625
3.883333	1	0.019000
3.900000	1	0.019250
3.916667	1	0.020125
3.933333	1	0.020875
3.950000	1	0.021000
3.966667	1	0.021375
3.983333	1	0.022250
4.000000	1	0.022625
4.016667	1	0.023000
4.033333	1	0.023000
4.050000	1	0.023375
4.066667	1	0.023625
4.083333	1	0.023500
4.100000	1	0.023875
4.116667	1	0.023500
4.133333	1	0.023625
4.150000	1	0.023500
4.166667	1	0.023875
4.183333	1	0.023750
4.200000	1	0.023750
4.216667	1	0.023375
4.233333	1	0.022625
4.250000	1	0.022000
4.266667	1	0.021375
4.283333	1	0.020750
4.300000	1	0.021375
4.316667	1	0.021000
4.333333	1	0.020750
4.350000	1	0.020125
4.366667	1	0.019375
4.383333	1	0.019750
4.400000	1	0.019125
4.416667	1	0.019125
4.433333	1	0.018250
4.450000	1	0.018125
4.466667	1	0.017625
4.483333	1	0.017875
4.500000	1	0.017500
4.516667	1	0.017000
4.533333	1	0.016750
4.550000	1	0.016125
4.566667	1	0.016000
4.583333	1	0.016375
4.600000	1	0.015875
4.616667	1	0.015750
4.633333	1	0.015875
4.650000	1	0.015625
4.666667	1	0.015875
4.683333	1	0.015875
4.700000	1	0.015625
4.716667	1	0.015625
4.733333	1	0.015125
4.750000	1	0.015000
4.766667	1	0.015500
4.783333	1	0.015625
4.800000	1	0.015625
4.816667	1	0.015750
4.833333	1	0.015750
4.850000	1	0.016250
4.866667	1	0.016500
4.883333	1	0.017500
4.900000	1	0.017625
4.916667	1	0.017500
4.933333	1	0.017750
4.950000	1	0.018500
4.966667	1	0.018875
4.983333	1	0.018125
5.000000	1	0.018375
5.016667	1	0.019500
5.033333	1	0.020125
5.050000	1	0.020625
5.066667	1	0.021000
5.083333	1	0.021000
5.100000	1	0.021375
5.116667	1	0.021625
5.133333	1	0.022500
5.150000	1	0.023250
5.166667	1	0.023500
5.183333	1	0.024250
5.200000	1	0.024125
5.216667	1	0.024500
5.233333	1	0.025000
5.250000	1	0.026250
5.266667	1	0.026875
5.283333	1	0.027250
5.300000	1	0.027250
5.316667	1	0.027625
5.333333	1	0.028500
5.350000	1	0.029125
5.366667	1	0.029750
5.383333	1	0.030000
5.400000	1	0.030250
5.416667	1	0.030875
5.433333	1	0.031375
5.450000	1	0.032000
5.466667	1	0.032750
5.483333	1	0.033375
5.500000	1	0.034250
5.516667	1	0.034875
5.533333	1	0.036250
5.550000	1	0.036875
5.566667	1	0.037750
5.583333	1	0.038625
5.600000	1	0.039750
5.616667	1	0.040375
5.633333	1	0.040625
5.650000	1	0.041625
5.666667	1	0.042750
5.683333	1	0.044250
5.700000	1	0.044500
5.716667	1	0.045250
5.733333	1	0.045500
5.750000	1	0.045875
5.766667	1	0.047750
5.783333	1	0.048625
5.800000	1	0.049500
5.816667	1	0.050125
5.833333	1	0.051250
5.850000	1	0.051625
5.866667	1	0.052625
5.883333	1	0.053875
5.900000	1	0.054875
5.916667	1	0.055750
5.933333	1	0.057000
5.950000	1	0.058000
5.966667	1	0.059000
5.983333	1	0.060750
6.000000	1	0.061875
6.016667	1	0.063000
6.033333	1	0.063750
6.050000	1	0.064750
6.066667	1	0.066250
6.083333	1	0.067375
6.100000	1	0.068000
6.116667	1	0.068875
6.133333	1	0.069750
6.150000	1	0.070750
6.166667	1	0.071500
6.183333	1	0.071875
6.200000	1	0.073000
6.216667	1	0.074125
6.233333	1	0.074750
6.250000	1	0.075000
6.266667	1	0.075750
6.283333	1	0.076250
6.300000	1	0.076750
6.316667	1	0.076750
6.333333	1	0.077250
6.350000	1	0.077125
6.366667	1	0.077625
6.383333	1	0.077250
6.400000	1	0.077875
6.416667	1	0.078000
6.433333	1	0.078250
6.450000	1	0.078250
6.466667	1	0.078375
6.483333	1	0.078375
6.500000	1	0.078250
6.516667	1	0.078500
6.533333	1	0.078375
6.550000	1	0.077750
6.566667	1	0.077500
6.583333	1	0.077500
6.600000	1	0.077875
6.616667	1	0.078625
6.633333	1	0.078500
6.650000	1	0.078500
6.666667	1	0.078000
6.683333	1	0.078500
6.700000	1	0.079250
6.716667	1	0.079750
6.733333	1	0.079750
6.750000	1	0.079875
6.766667	1	0.079875
6.783333	1	0.080250
6.800000	1	0.080750
6.816667	1	0.081875
6.833333	1	0.082750
6.850000	1	0.083125
6.866667	1	0.083750
6.883333	1	0.084750
6.900000	1	0.085250
6.916667	1	0.086750
6.933333	1	0.087625
6.950000	1	0.088625
6.966667	1	0.089750
6.983333	1	0.090500
7.000000	1	0.091500
7.016667	1	0.093250
7.033333	1	0.093875
7.050000	1	0.095750
7.066667	1	0.097125
7.083333	1	0.098375
7.100000	1	0.100125
7.116667	1	0.101375
7.133333	1	0.103500
7.150000	1	0.105125
7.166667	1	0.106875
7.183333	1	0.108625
7.200000	1	0.110250
7.216667	1	0.112250
7.233333	1	0.114375
7.250000	1	0.115875
7.266667	1	0.118125
7.283333	1	0.120000
7.300000	1	0.121750
7.316667	1	0.123500
7.333333	1	0.126250
7.350000	1	0.128125
7.366667	1	0.129875
7.383333	1	0.131625
7.400000	1	0.133125
7.416667	1	0.134750
7.433333	1	0.136875
7.450000	1	0.139250
7.466667	1	0.141375
7.483333	1	0.142875
7.500000	1	0.144750
7.516667	1	0.146250
7.533333	1	0.147500
7.550000	1	0.148750
7.566667	1	0.150875
7.583333	1	0.151250
7.600000	1	0.152000
7.616667	1	0.153250
7.633333	1	0.154500
7.650000	1	0.155000
7.666667	1	0.155125
7.683333	1	0.155500
7.700000	1	0.156250
7.716667	1	0.156500
7.733333	1	0.156750
7.750000	1	0.157125
7.766667	1	0.157000
7.783333	1	0.156625
7.800000	1	0.156125
7.816667	1	0.156375
7.833333	1	0.155500
7.850000	1	0.155125
7.866667	1	0.154875
7.883333	1	0.154125
7.900000	1	0.153625
7.916667	1	0.153000
7.933333	1	0.152375
7.950000	1	0.150750
7.966667	1	0.150250
7.983333	1	0.148750
8.000000	1	0.146875
8.016667	1	0.145500
8.033333	1	0.144000
8.050000	1	0.143125
8.066667	1	0.141375
8.083333	1	0.139750
8.100000	1	0.138375
8.116667	1	0.136500
8.133333	1	0.134500
8.150000	1	0.132875
8.166667	1	0.131625
8.183333	1	0.130250
8.200000	1	0.128375
8.216667	1	0.127000
8.233333	1	0.125625
8.250000	1	0.124125
8.266667	1	0.122625
8.283333	1	0.121625
8.300000	1	0.120125
8.316667	1	0.119125
8.333333	1	0.117375
8.350000	1	0.115750
8.366667	1	0.114500
8.383333	1	0.112875
8.400000	1	0.111750
8.416667	1	0.110625
8.433333	1	0.109375
8.450000	1	0.108250
8.466667	1	0.107625
8.483333	1	0.106625
8.500000	1	0.106000
8.516667	1	0.105500
8.533333	1	0.104375
8.550000	1	0.103125
8.566667	1	0.102500
8.583333	1	0.102250
8.600000	1	0.101875
8.616667	1	0.101625
8.633333	1	0.101500
8.650000	1	0.100625
8.666667	1	0.100000
8.683333	1	0.099875
8.700000	1	0.100375
8.716667	1	0.101125
8.733333	1	0.101625
8.750000	1	0.101625
8.766667	1	0.101875
8.783333	1	0.103125
8.800000	1	0.103375
8.816667	1	0.104000
8.833333	1	0.105000
8.850000	1	0.105875
8.866667	1	0.107250
8.883333	1	0.108000
8.900000	1	0.109500
8.916667	1	0.110750
8.933333	1	0.111750
8.950000	1	0.112750
8.966667	1	0.114125
8.983333	1	0.115375
9.000000	1	0.117625
9.016667	1	0.119375
9.033333	1	0.121750
9.050000	1	0.124375
9.066667	1	0.126000
9.083333	1	0.127750
9.100000	1	0.130125
9.116667	1	0.132250
9.133333	1	0.134125
9.150000	1	0.136125
9.166667	1	0.138375
9.183333	1	0.140750
9.200000	1	0.143250
9.216667	1	0.145875
9.233333	1	0.149000
9.250000	1	0.152000
9.266667	1	0.154875
9.283333	1	0.158250
9.300000	1	0.161125
9.316667	1	0.164625
9.333333	1	0.168000
9.350000	1	0.171500
9.366667	1	0.175625
9.383333	1	0.180125
9.400000	1	0.184875
9.416667	1	0.189500
9.433333	1	0.195125
9.450000	1	0.201125
9.466667	1	0.207750
9.483333	1	0.215125
9.500000	1	0.223250
9.516667	1	0.233000
9.533333	1	0.243750
9.550000	1	0.256375
9.566667	1	0.270875
9.583333	1	0.286250
9.600000	1	0.304000
9.616667	1	0.325125
9.633333	1	0.348125
9.650000	1	0.374250
9.666667	1	0.402625
9.683333	1	0.434000
9.700000	1	0.468500
9.716667	1	0.506750
9.733333	1	0.549500
9.750000	1	0.597375
9.766667	1	0.649875
9.783333	1	0.703125
9.800000	1	0.748125
9.816667	1	0.772000
9.833333	1	0.760875
9.850000	1	0.709375
9.866667	1	0.626000
9.883333	1	0.541875
9.900000	1	0.506250
9.916667	1	0.577625
9.933333	1	0.815375
9.950000	1	1.273750
9.966667	1	2.000500
9.983333	1	3.029375
10.000000	1	4.392500
10.016667	1	6.116000
10.033333	1	8.216875
10.050000	1	10.705875
10.066667	1	13.594875
10.083333	1	16.883750
10.100000	1	20.564625
10.116667	1	24.618375
10.133333	1	29.015375
10.150000	1	33.714750
10.166667	1	38.669000
10.183333	1	43.823750
10.200000	1	49.121375
10.216667	1	54.501125
10.233333	1	59.901875
10.250000	1	65.257375
10.266667	1	70.505000
10.283333	1	75.563625
10.300000	1	80.342125
10.316667	1	84.728375
10.333333	1	88.600875
10.350000	1	91.830750
10.366667	1	94.296500
10.383333	1	95.895250
10.400000	1	96.551125
10.416667	1	96.216625
10.433333	1	94.872750
10.450000	1	92.530250
10.466667	1	89.217125
10.483333	1	84.987750
10.500000	1	79.922250
10.516667	1	74.125625
10.533333	1	67.730750
10.550000	1	60.911500
10.566667	1	53.900750
10.583333	1	46.978750
10.600000	1	40.447000
10.616667	1	34.564250
10.633333	1	29.489375
10.650000	1	25.259000
10.666667	1	21.820125
10.683333	1	19.069875
10.700000	1	16.890500
10.716667	1	15.172500
10.733333	1	13.818250
10.750000	1	12.748875
10.766667	1	11.901250
10.783333	1	11.227375
10.800000	1	10.687875
10.816667	1	10.252000
10.833333	1	9.895000
10.850000	1	9.595750
10.866667	1	9.335125
10.883333	1	9.097500
10.900000	1	8.870500
10.916667	1	8.644125
10.933333	1	8.408875
10.950000	1	8.158625
10.966667	1	7.890875
10.983333	1	7.601875
11.000000	1	7.294000
11.016667	1	6.969625
11.033333	1	6.634125
11.050000	1	6.292500
11.066667	1	5.955000
11.083333	1	5.628625
11.100000	1	5.320625
11.116667	1	5.035000
11.133333	1	4.775875
11.150000	1	4.543625
11.166667	1	4.339750
11.183333	1	4.162750
11.200000	1	4.009625
11.216667	1	3.878375
11.233333	1	3.767875
11.250000	1	3.676500
11.266667	1	3.600375
11.283333	1	3.537875
11.300000	1	3.488125
11.316667	1	3.449250
11.333333	1	3.421000
11.350000	1	3.401625
11.366667	1	3.389875
11.383333	1	3.384375
11.400000	1	3.383250
11.416667	1	3.383875
11.433333	1	3.384625
11.450000	1	3.383125
11.466667	1	3.377750
11.483333	1	3.366875
11.500000	1	3.348500
11.516667	1	3.322625
11.533333	1	3.290125
11.550000	1	3.249500
11.566667	1	3.204000
11.583333	1	3.154125
11.600000	1	3.100375
11.616667	1	3.043625
11.633333	1	2.985250
11.650000	1	2.926000
11.666667	1	2.866500
11.683333	1	2.808500
11.700000	1	2.751875
11.716667	1	2.697500
11.733333	1	2.646250
11.750000	1	2.597500
11.766667	1	2.551875
11.783333	1	2.509750
11.800000	1	2.470875
11.816667	1	2.434875
11.833333	1	2.402125
11.850000	1	2.372000
11.866667	1	2.343500
11.883333	1	2.316250
11.900000	1	2.290250
11.916667	1	2.263875
11.933333	1	2.237500
11.950000	1	2.210125
11.966667	1	2.183625
11.983333	1	2.157125
12.000000	1	2.131500
12.016667	1	2.107250
12.033333	1	2.083750
12.050000	1	2.063250
12.066667	1	2.046875
12.083333	1	2.035000
12.100000	1	2.030125
12.116667	1	2.033875
12.133333	1	2.046875
12.150000	1	2.071125
12.166667	1	2.108125
12.183333	1	2.159500
12.200000	1	2.227625
12.216667	1	2.314750
12.233333	1	2.423500
12.250000	1	2.556000
12.266667	1	2.716000
12.283333	1	2.906625
12.300000	1	3.129750
12.316667	1	3.388250
12.333333	1	3.682000
12.350000	1	4.012125
12.366667	1	4.377500
12.383333	1	4.777375
12.400000	1	5.208875
12.416667	1	5.668750
12.433333	1	6.157875
12.450000	1	6.674000
12.466667	1	7.215125
12.483333	1	7.779250
12.500000	1	8.365875
12.516667	1	8.971750
12.533333	1	9.594125
12.550000	1	10.230000
12.566667	1	10.872875
12.583333	1	11.518625
12.600000	1	12.159375
12.616667	1	12.788125
12.633333	1	13.398625
12.650000	1	13.983250
12.666667	1	14.535500
12.683333	1	15.048625
12.700000	1	15.517250
12.716667	1	15.936375
12.733333	1	16.301250
12.750000	1	16.611000
12.766667	1	16.862375
12.783333	1	17.055250
12.800000	1	17.191250
12.816667	1	17.272875
12.833333	1	17.302500
12.850000	1	17.285875
12.866667	1	17.227000
12.883333	1	17.131750
12.900000	1	17.005000
12.916667	1	16.851750
12.933333	1	16.677500
12.950000	1	16.484125
12.966667	1	16.275250
12.983333	1	16.050750
13.000000	1	15.812500
13.016667	1	15.562000
13.033333	1	15.299250
13.050000	1	15.027375
13.066667	1	14.748000
13.083333	1	14.462500
13.100000	1	14.173500
13.116667	1	13.882500
13.133333	1	13.591625
13.150000	1	13.303625
13.166667	1	13.020875
13.183333	1	12.742750
13.200000	1	12.472000
13.216667	1	12.208250
13.233333	1	11.952125
13.250000	1	11.703625
13.266667	1	11.463375
13.283333	1	11.229625
13.300000	1	11.002375
13.316667	1	10.780625
13.333333	1	10.563375
13.350000	1	10.351125
13.366667	1	10.142500
13.383333	1	9.937000
13.400000	1	9.734625
13.416667	1	9.533375
13.433333	1	9.333000
13.450000	1	9.132500
13.466667	1	8.928500
13.483333	1	8.718125
13.500000	1	8.499750
13.516667	1	8.270625
13.533333	1	8.027125
13.550000	1	7.767750
13.566667	1	7.490125
13.583333	1	7.194875
13.600000	1	6.882000
13.616667	1	6.551875
13.633333	1	6.209500
13.650000	1	5.860750
13.666667	1	5.520625
13.683333	1	5.204625
13.700000	1	4.927250
13.716667	1	4.696000
13.733333	1	4.509125
13.750000	1	4.361500
13.766667	1	4.244875
13.783333	1	4.152250
13.800000	1	4.077250
13.816667	1	4.016375
13.833333	1	3.966250
13.850000	1	3.924000
13.866667	1	3.887875
13.883333	1	3.854500
13.900000	1	3.823750
13.916667	1	3.795250
13.933333	1	3.766875
13.950000	1	3.737625
13.966667	1	3.706875
13.983333	1	3.673250
14.000000	1	3.637250
14.016667	1	3.600125
14.033333	1	3.561125
14.050000	1	3.521125
14.066667	1	3.482000
14.083333	1	3.444375
14.100000	1	3.410500
14.116667	1	3.382375
14.133333	1	3.361750
14.150000	1	3.349875
14.166667	1	3.347875
14.183333	1	3.357750
14.200000	1	3.380000
14.216667	1	3.415625
14.233333	1	3.464375
14.250000	1	3.525750
14.266667	1	3.599000
14.283333	1	3.682625
14.300000	1	3.776125
14.316667	1	3.877500
14.333333	1	3.984625
14.350000	1	4.095250
14.366667	1	4.207250
14.383333	1	4.318125
14.400000	1	4.425125
14.416667	1	4.526500
14.433333	1	4.620125
14.450000	1	4.704750
14.466667	1	4.782375
14.483333	1	4.853000
14.500000	1	4.921500
14.516667	1	4.992875
14.533333	1	5.075250
14.550000	1	5.176125
14.566667	1	5.303750
14.583333	1	5.465625
14.600000	1	5.670500
14.616667	1	5.927375
14.633333	1	6.240250
14.650000	1	6.610750
14.666667	1	7.040250
14.683333	1	7.526000
14.700000	1	8.061000
14.716667	1	8.638875
14.733333	1	9.252625
14.750000	1	9.894750
14.766667	1	10.559000
14.783333	1	11.242250
14.800000	1	11.943125
14.816667	1	12.662375
14.833333	1	13.400500
14.850000	1	14.158000
14.866667	1	14.933625
14.883333	1	15.722000
14.900000	1	16.516500
14.916667	1	17.305000
14.933333	1	18.075375
14.950000	1	18.810625
14.966667	1	19.492875
14.983333	1	20.105750
15.000000	1	20.633500
15.016667	1	21.063500
15.033333	1	21.382500
15.050000	1	21.580750
15.066667	1	21.649750
15.083333	1	21.583000
15.100000	1	21.376875
15.116667	1	21.033125
15.133333	1	20.554125
15.150000	1	19.946250
15.166667	1	19.219000
15.183333	1	18.388125
15.200000	1	17.474375
15.216667	1	16.502875
15.233333	1	15.497375
15.250000	1	14.480000
15.266667	1	13.467125
15.283333	1	12.474875
15.300000	1	11.514000
15.316667	1	10.596250
15.333333	1	9.729000
15.350000	1	8.919375
15.366667	1	8.171750
15.383333	1	7.487750
15.400000	1	6.868375
15.416667	1	6.311750
15.433333	1	5.815125
15.450000	1	5.376250
15.466667	1	4.990125
15.483333	1	4.652625
15.500000	1	4.360250
15.516667	1	4.108250
15.533333	1	3.892875
15.550000	1	3.711500
15.566667	1	3.560875
15.583333	1	3.438375
15.600000	1	3.341500
15.616667	1	3.266625
15.633333	1	3.212875
15.650000	1	3.177875
15.666667	1	3.157625
15.683333	1	3.151750
15.700000	1	3.157125
15.716667	1	3.171375
15.733333	1	3.193375
15.750000	1	3.220875
15.766667	1	3.254250
15.783333	1	3.291875
15.800000	1	3.334375
15.816667	1	3.382500
15.833333	1	3.436000
15.850000	1	3.498125
15.866667	1	3.569125
15.883333	1	3.651375
15.900000	1	3.747125
15.916667	1	3.855625
15.933333	1	3.979000
15.950000	1	4.115125
15.966667	1	4.261750
15.983333	1	4.418125
16.000000	1	4.580750
16.016667	1	4.746625
16.033333	1	4.912875
16.050000	1	5.077500
16.066667	1	5.238750
16.083333	1	5.396125
16.100000	1	5.549250
16.116667	1	5.698750
16.133333	1	5.846500
16.150000	1	5.991375
16.166667	1	6.134750
16.183333	1	6.276625
16.200000	1	6.415875
16.216667	1	6.550625
16.233333	1	6.680250
16.250000	1	6.801000
16.266667	1	6.909500
16.283333	1	7.003250
16.300000	1	7.080500
16.316667	1	7.138125
16.333333	1	7.174375
16.350000	1	7.187625
16.366667	1	7.175750
16.383333	1	7.138375
16.400000	1	7.073625
16.416667	1	6.981750
16.433333	1	6.861375
16.450000	1	6.713500
16.466667	1	6.538750
16.483333	1	6.339500
16.500000	1	6.117750
16.516667	1	5.876750
16.533333	1	5.620500
16.550000	1	5.354500
16.566667	1	5.082250
16.583333	1	4.808000
16.600000	1	4.535875
16.616667	1	4.271250
16.633333	1	4.016000
16.650000	1	3.772750
16.666667	1	3.545500
16.683333	1	3.335875
16.700000	1	3.142750
16.716667	1	2.968375
16.733333	1	2.811000
16.750000	1	2.670125
16.766667	1	2.545625
16.783333	1	2.436000
16.800000	1	2.340750
16.816667	1	2.256500
16.833333	1	2.182500
16.850000	1	2.117875
16.866667	1	2.061500
16.883333	1	2.011625
16.900000	1	1.967625
16.916667	1	1.927500
16.933333	1	1.892000
16.950000	1	1.859125
16.966667	1	1.828500
16.983333	1	1.800625
17.000000	1	1.774000
17.016667	1	1.748625
17.033333	1	1.724500
17.050000	1	1.701500
17.066667	1	1.680250
17.083333	1	1.660500
17.100000	1	1.642125
17.116667	1	1.624125
17.133333	1	1.607875
17.150000	1	1.592125
17.166667	1	1.577875
17.183333	1	1.564625
17.200000	1	1.551375
17.216667	1	1.539375
17.233333	1	1.527875
17.250000	1	1.517875
17.266667	1	1.508500
17.283333	1	1.499750
17.300000	1	1.491500
17.316667	1	1.483500
17.333333	1	1.476250
17.350000	1	1.469125
17.366667	1	1.462500
17.383333	1	1.457250
17.400000	1	1.452000
17.416667	1	1.447250
17.433333	1	1.442875
17.450000	1	1.439500
17.466667	1	1.436750
17.483333	1	1.434625
17.500000	1	1.434375
17.516667	1	1.435375
17.533333	1	1.437125
17.550000	1	1.440875
17.566667	1	1.446375
17.583333	1	1.453250
17.600000	1	1.461375
17.616667	1	1.470250
17.633333	1	1.481875
17.650000	1	1.494750
17.666667	1	1.508250
17.683333	1	1.523250
17.700000	1	1.539625
17.716667	1	1.557375
17.733333	1	1.575625
17.750000	1	1.594625
17.766667	1	1.614750
17.783333	1	1.635250
17.800000	1	1.657750
17.816667	1	1.679500
17.833333	1	1.702125
17.850000	1	1.725500
17.866667	1	1.748500
17.883333	1	1.772125
17.900000	1	1.795250
17.916667	1	1.817500
17.933333	1	1.838625
17.950000	1	1.858125
17.966667	1	1.877000
17.983333	1	1.894500
18.000000	1	1.910625
18.016667	1	1.925000
18.033333	1	1.937375
18.050000	1	1.948375
18.066667	1	1.957750
18.083333	1	1.965000
18.100000	1	1.969000
18.116667	1	1.971000
18.133333	1	1.971625
18.150000	1	1.969250
18.166667	1	1.965625
18.183333	1	1.959250
18.200000	1	1.951125
18.216667	1	1.941125
18.233333	1	1.929375
18.250000	1	1.915750
18.266667	1	1.900500
18.283333	1	1.884000
18.300000	1	1.866500
18.316667	1	1.847625
18.333333	1	1.827625
18.350000	1	1.806875
18.366667	1	1.785000
18.383333	1	1.762375
18.400000	1	1.740375
18.416667	1	1.717750
18.433333	1	1.694875
18.450000	1	1.672375
18.466667	1	1.650375
18.483333	1	1.628500
18.500000	1	1.607250
18.516667	1	1.585625
18.533333	1	1.563500
18.550000	1	1.542250
18.566667	1	1.522250
18.583333	1	1.502500
18.600000	1	1.483125
18.616667	1	1.464000
18.633333	1	1.446375
18.650000	1	1.428375
18.666667	1	1.411625
18.683333	1	1.395250
18.700000	1	1.379125
18.716667	1	1.363875
18.733333	1	1.349125
18.750000	1	1.335750
18.766667	1	1.322125
18.783333	1	1.310125
18.800000	1	1.299125
18.816667	1	1.288875
18.833333	1	1.279500
18.850000	1	1.272125
18.866667	1	1.266500
18.883333	1	1.262750
18.900000	1	1.260750
18.916667	1	1.260875
18.933333	1	1.262750
18.950000	1	1.266625
18.966667	1	1.273000
18.983333	1	1.280750
19.000000	1	1.291250
19.016667	1	1.302500
19.033333	1	1.315750
19.050000	1	1.330375
19.066667	1	1.347625
19.083333	1	1.364875
19.100000	1	1.383500
19.116667	1	1.403000
19.133333	1	1.424750
19.150000	1	1.446750
19.166667	1	1.470125
19.183333	1	1.494125
19.200000	1	1.519500
19.216667	1	1.545000
19.233333	1	1.571375
19.250000	1	1.599125
19.266667	1	1.626375
19.283333	1	1.653375
19.300000	1	1.680625
19.316667	1	1.707625
19.333333	1	1.734625
19.350000	1	1.759625
19.366667	1	1.783750
19.383333	1	1.806125
19.400000	1	1.826375
19.416667	1	1.844750
19.433333	1	1.861500
19.450000	1	1.874875
19.466667	1	1.887125
19.483333	1	1.895500
19.500000	1	1.900875
19.516667	1	1.902625
19.533333	1	1.901625
19.550000	1	1.896375
19.566667	1	1.887875
19.583333	1	1.876000
19.600000	1	1.860875
19.616667	1	1.843625
19.633333	1	1.823000
19.650000	1	1.799375
19.666667	1	1.773875
19.683333	1	1.747125
19.700000	1	1.718125
19.716667	1	1.688250
19.733333	1	1.657625
19.750000	1	1.626875
19.766667	1	1.595750
19.783333	1	1.565250
19.800000	1	1.535125
19.816667	1	1.506750
19.833333	1	1.479750
19.850000	1	1.455000
19.866667	1	1.432500
19.883333	1	1.412875
19.900000	1	1.395875
19.916667	1	1.381250
19.933333	1	1.369625
19.950000	1	1.361750
19.966667	1	1.358000
19.983333	1	1.358500
20.000000	1	1.362000
20.016667	1	1.369875
20.033333	1	1.381250
20.050000	1	1.397125
20.066667	1	1.417000
20.083333	1	1.441000
20.100000	1	1.468625
20.116667	1	1.501125
20.133333	1	1.537000
20.150000	1	1.576750
20.166667	1	1.620000
20.183333	1	1.666000
20.200000	1	1.715000
20.216667	1	1.765125
20.233333	1	1.815000
20.250000	1	1.866000
20.266667	1	1.916000
20.283333	1	1.965750
20.300000	1	2.012750
20.316667	1	2.059500
20.333333	1	2.104625
20.350000	1	2.148250
20.366667	1	2.190750
20.383333	1	2.234375
20.400000	1	2.277750
20.416667	1	2.322625
20.433333	1	2.368750
20.450000	1	2.417125
20.466667	1	2.467000
20.483333	1	2.519125
20.500000	1	2.572625
20.516667	1	2.628125
20.533333	1	2.683375
20.550000	1	2.740250
20.566667	1	2.797125
20.583333	1	2.851500
20.600000	1	2.904000
20.616667	1	2.955000
20.633333	1	3.001375
20.650000	1	3.043750
20.666667	1	3.081125
20.683333	1	3.112250
20.700000	1	3.135500
20.716667	1	3.151750
20.733333	1	3.159250
20.750000	1	3.157750
20.766667	1	3.146375
20.783333	1	3.124250
20.800000	1	3.092125
20.816667	1	3.050375
20.833333	1	2.998750
20.850000	1	2.938500
20.866667	1	2.871125
20.883333	1	2.796625
20.900000	1	2.717125
20.916667	1	2.635125
20.933333	1	2.551000
20.950000	1	2.465250
20.966667	1	2.381375
20.983333	1	2.299000
21.000000	1	2.218375
21.016667	1	2.142750
21.033333	1	2.071125
21.050000	1	2.004000
21.066667	1	1.942000
21.083333	1	1.884625
21.100000	1	1.831250
21.116667	1	1.782250
21.133333	1	1.736250
21.150000	1	1.694500
21.166667	1	1.655625
21.183333	1	1.618250
21.200000	1	1.582250
21.216667	1	1.548000
21.233333	1	1.514625
21.250000	1	1.480375
21.266667	1	1.446500
21.283333	1	1.411750
21.300000	1	1.376625
21.316667	1	1.341000
21.333333	1	1.304500
21.350000	1	1.267375
21.366667	1	1.229625
21.383333	1	1.192375
21.400000	1	1.155000
21.416667	1	1.118000
21.433333	1	1.081875
21.450000	1	1.046625
21.466667	1	1.012625
21.483333	1	0.980000
21.500000	1	0.949500
21.516667	1	0.920750
21.533333	1	0.893750
21.550000	1	0.869250
21.566667	1	0.846500
21.583333	1	0.827000
21.600000	1	0.808875
21.616667	1	0.792500
21.633333	1	0.778500
21.650000	1	0.766000
21.666667	1	0.756125
21.683333	1	0.747500
21.700000	1	0.740250
21.716667	1	0.734750
21.733333	1	0.730625
21.750000	1	0.727375
21.766667	1	0.724875
21.783333	1	0.723375
21.800000	1	0.722875
21.816667	1	0.723125
21.833333	1	0.724750
21.850000	1	0.726875
21.866667	1	0.728500
21.883333	1	0.731125
21.900000	1	0.734125
21.916667	1	0.737125
21.933333	1	0.740875
21.950000	1	0.744625
21.966667	1	0.748750
21.983333	1	0.753500
22.000000	1	0.758125
22.016667	1	0.763375
22.033333	1	0.768125
22.050000	1	0.773125
22.066667	1	0.778500
22.083333	1	0.783875
22.100000	1	0.788750
22.116667	1	0.793500
22.133333	1	0.797875
22.150000	1	0.801875
22.166667	1	0.805750
22.183333	1	0.808500
22.200000	1	0.811625
22.216667	1	0.813375
22.233333	1	0.814125
22.250000	1	0.814125
22.266667	1	0.813375
22.283333	1	0.811750
22.300000	1	0.809750
22.316667	1	0.806750
22.333333	1	0.802625
22.350000	1	0.797750
22.366667	1	0.792250
22.383333	1	0.786250
22.400000	1	0.780750
22.416667	1	0.774375
22.433333	1	0.767125
22.450000	1	0.760375
22.466667	1	0.753500
22.483333	1	0.746375
22.500000	1	0.740750
22.516667	1	0.735250
22.533333	1	0.729875
22.550000	1	0.724750
22.566667	1	0.720125
22.583333	1	0.716625
22.600000	1	0.714250
22.616667	1	0.712875
22.633333	1	0.711625
22.650000	1	0.711125
22.666667	1	0.711250
22.683333	1	0.711875
22.700000	1	0.713125
22.716667	1	0.715375
22.733333	1	0.717500
22.750000	1	0.719625
22.766667	1	0.722625
22.783333	1	0.725250
22.800000	1	0.728000
22.816667	1	0.731375
22.833333	1	0.734500
22.850000	1	0.737000
22.866667	1	0.739000
22.883333	1	0.740750
22.900000	1	0.742000
22.916667	1	0.743375
22.933333	1	0.744000
22.950000	1	0.744000
22.966667	1	0.743125
22.983333	1	0.742125
23.000000	1	0.740875
23.016667	1	0.738750
23.033333	1	0.735375
23.050000	1	0.732125
23.066667	1	0.728000
23.083333	1	0.723750
23.100000	1	0.718500
23.116667	1	0.712500
23.133333	1	0.706000
23.150000	1	0.698750
23.166667	1	0.691875
23.183333	1	0.685125
23.200000	1	0.678375
23.216667	1	0.670875
23.233333	1	0.662625
23.250000	1	0.654375
23.266667	1	0.646000
23.283333	1	0.637750
23.300000	1	0.630000
23.316667	1	0.622500
23.333333	1	0.615125
23.350000	1	0.607500
23.366667	1	0.600750
23.383333	1	0.595000
23.400000	1	0.590500
23.416667	1	0.587000
23.433333	1	0.584375
23.450000	1	0.582625
23.466667	1	0.582375
23.483333	1	0.583375
23.500000	1	0.586375
23.516667	1	0.591375
23.533333	1	0.597750
23.550000	1	0.607000
23.566667	1	0.618125
23.583333	1	0.629750
23.600000	1	0.643750
23.616667	1	0.660250
23.633333	1	0.676375
23.650000	1	0.695000
23.666667	1	0.715375
23.683333	1	0.736625
23.700000	1	0.758375
23.716667	1	0.780875
23.733333	1	0.804875
23.750000	1	0.829125
23.766667	1	0.854250
23.783333	1	0.880750
23.800000	1	0.907500
23.816667	1	0.935000
23.833333	1	0.964000
23.850000	1	0.994000
23.866667	1	1.024875
23.883333	1	1.055625
23.900000	1	1.087750
23.916667	1	1.120625
23.933333	1	1.153750
23.950000	1	1.188250
23.966667	1	1.222500
23.983333	1	1.256875
24.000000	1	1.291375
24.016667	1	1.324750
24.033333	1	1.356750
24.050000	1	1.387500
24.066667	1	1.417000
24.083333	1	1.444375
24.100000	1	1.469750
24.116667	1	1.492750
24.133333	1	1.511750
24.150000	1	1.528250
24.166667	1	1.541250
24.183333	1	1.550500
24.200000	1	1.555750
24.216667	1	1.556125
24.233333	1	1.553125
24.250000	1	1.545250
24.266667	1	1.533500
24.283333	1	1.518125
24.300000	1	1.498375
24.316667	1	1.474375
24.333333	1	1.447625
24.350000	1	1.417875
24.366667	1	1.385750
24.383333	1	1.351500
24.400000	1	1.315375
24.416667	1	1.278875
24.433333	1	1.242500
24.450000	1	1.205875
24.466667	1	1.170250
24.483333	1	1.135875
24.500000	1	1.102125
24.516667	1	1.071250
24.533333	1	1.042125
24.550000	1	1.016000
24.566667	1	0.991750
24.583333	1	0.969500
24.600000	1	0.950875
24.616667	1	0.934000
24.633333	1	0.919500
24.650000	1	0.908000
24.666667	1	0.898125
24.683333	1	0.890750
24.700000	1	0.885000
24.716667	1	0.880250
24.733333	1	0.876750
24.750000	1	0.873625
24.766667	1	0.871625
24.783333	1	0.870000
24.800000	1	0.868125
24.816667	1	0.866000
24.833333	1	0.863250
24.850000	1	0.860500
24.866667	1	0.857625
24.883333	1	0.853875
24.900000	1	0.848875
24.916667	1	0.842875
24.933333	1	0.836125
24.950000	1	0.828000
24.966667	1	0.818875
24.983333	1	0.808500
25.000000	1	0.797625
25.016667	1	0.784375
25.033333	1	0.771000
25.050000	1	0.756250
25.066667	1	0.741000
25.083333	1	0.724250
25.100000	1	0.708000
25.116667	1	0.691125
25.133333	1	0.673000
25.150000	1	0.655500
25.166667	1	0.637875
25.183333	1	0.620500
25.200000	1	0.603500
25.216667	1	0.587250
25.233333	1	0.570750
25.250000	1	0.555125
25.266667	1	0.539625
25.283333	1	0.524875
25.300000	1	0.512250
25.316667	1	0.500250
25.333333	1	0.488750
25.350000	1	0.478500
25.366667	1	0.469000
25.383333	1	0.460500
25.400000	1	0.452875
25.416667	1	0.446625
25.433333	1	0.441000
25.450000	1	0.436250
25.466667	1	0.431875
25.483333	1	0.428250
25.500000	1	0.425750
25.516667	1	0.423250
25.533333	1	0.422375
25.550000	1	0.421750
25.566667	1	0.421625
25.583333	1	0.422125
25.600000	1	0.422250
25.616667	1	0.423000
25.633333	1	0.424375
25.650000	1	0.425625
25.666667	1	0.427000
25.683333	1	0.429125
25.700000	1	0.431000
25.716667	1	0.433625
25.733333	1	0.436000
25.750000	1	0.439000
25.766667	1	0.441750
25.783333	1	0.444750
25.800000	1	0.447250
25.816667	1	0.449875
25.833333	1	0.452875
25.850000	1	0.455375
25.866667	1	0.458250
25.883333	1	0.461125
25.900000	1	0.464375
25.916667	1	0.466875
25.933333	1	0.469250
25.950000	1	0.472375
25.966667	1	0.475250
25.983333	1	0.478875
26.000000	1	0.482125
26.016667	1	0.485000
26.033333	1	0.487750
26.050000	1	0.491375
26.066667	1	0.493500
26.083333	1	0.497250
26.100000	1	0.500000
26.116667	1	0.503500
26.133333	1	0.507250
26.150000	1	0.511250
26.166667	1	0.514500
26.183333	1	0.518125
26.200000	1	0.521250
26.216667	1	0.525625
26.233333	1	0.529000
26.250000	1	0.533000
26.266667	1	0.536625
26.283333	1	0.540500
26.300000	1	0.544625
26.316667	1	0.548750
26.333333	1	0.551375
26.350000	1	0.555000
26.366667	1	0.559000
26.383333	1	0.562125
26.400000	1	0.565750
26.416667	1	0.568500
26.433333	1	0.571125
26.450000	1	0.574125
26.466667	1	0.576250
26.483333	1	0.578500
26.500000	1	0.579875
26.516667	1	0.581500
26.533333	1	0.583375
26.550000	1	0.584500
26.566667	1	0.585625
26.583333	1	0.586375
26.600000	1	0.586625
26.616667	1	0.587250
26.633333	1	0.587000
26.650000	1	0.586125
26.666667	1	0.585250
26.683333	1	0.584250
26.700000	1	0.581625
26.716667	1	0.579625
26.733333	1	0.577000
26.750000	1	0.574625
26.766667	1	0.571500
26.783333	1	0.567875
26.800000	1	0.564125
26.816667	1	0.559375
26.833333	1	0.555250
26.850000	1	0.549875
26.866667	1	0.543875
26.883333	1	0.538250
26.900000	1	0.531375
26.916667	1	0.524125
26.933333	1	0.516625
26.950000	1	0.508750
26.966667	1	0.501000
26.983333	1	0.493375
27.000000	1	0.485875
27.016667	1	0.477375
27.033333	1	0.468750
27.050000	1	0.460250
27.066667	1	0.452000
27.083333	1	0.443625
27.100000	1	0.434875
27.116667	1	0.427000
27.133333	1	0.419125
27.150000	1	0.411375
27.166667	1	0.403625
27.183333	1	0.396625
27.200000	1	0.389875
27.216667	1	0.383500
27.233333	1	0.377750
27.250000	1	0.372500
27.266667	1	0.368125
27.283333	1	0.364250
27.300000	1	0.361125
27.316667	1	0.358750
27.333333	1	0.357250
27.350000	1	0.356250
27.366667	1	0.356625
27.383333	1	0.358500
27.400000	1	0.361875
27.416667	1	0.367375
27.433333	1	0.374000
27.450000	1	0.382125
27.466667	1	0.391875
27.483333	1	0.404500
27.500000	1	0.419125
27.516667	1	0.437125
27.533333	1	0.457000
27.550000	1	0.479375
27.566667	1	0.505000
27.583333	1	0.533625
27.600000	1	0.565375
27.616667	1	0.600125
27.633333	1	0.638875
27.650000	1	0.679500
27.666667	1	0.722875
27.683333	1	0.769625
27.700000	1	0.818500
27.716667	1	0.869250
27.733333	1	0.921750
27.750000	1	0.976625
27.766667	1	1.033250
27.783333	1	1.091000
27.800000	1	1.150125
27.816667	1	1.209375
27.833333	1	1.270000
27.850000	1	1.332000
27.866667	1	1.395250
27.883333	1	1.459125
27.900000	1	1.524375
27.916667	1	1.590125
27.933333	1	1.656750
27.950000	1	1.724500
27.966667	1	1.793875
27.983333	1	1.863875
28.000000	1	1.934500
28.016667	1	2.005750
28.033333	1	2.078125
28.050000	1	2.150625
28.066667	1	2.223125
28.083333	1	2.295500
28.100000	1	2.367500
28.116667	1	2.438125
28.133333	1	2.507125
28.150000	1	2.574750
28.166667	1	2.640000
28.183333	1	2.702625
28.200000	1	2.763000
28.216667	1	2.819500
28.233333	1	2.871875
28.250000	1	2.919875
28.266667	1	2.963125
28.283333	1	3.002250
28.300000	1	3.036500
28.316667	1	3.064625
28.333333	1	3.087375
28.350000	1	3.103000
28.366667	1	3.111625
28.383333	1	3.113625
28.400000	1	3.108625
28.416667	1	3.095125
28.433333	1	3.074250
28.450000	1	3.045125
28.466667	1	3.007750
28.483333	1	2.962750
28.500000	1	2.909500
28.516667	1	2.847500
28.533333	1	2.778125
28.550000	1	2.700875
28.566667	1	2.617000
28.583333	1	2.526375
28.600000	1	2.429875
28.616667	1	2.328500
28.633333	1	2.222625
28.650000	1	2.113500
28.666667	1	2.002250
28.683333	1	1.890500
28.700000	1	1.778375
28.716667	1	1.666500
28.733333	1	1.556750
28.750000	1	1.450000
28.766667	1	1.346000
28.783333	1	1.245625
28.800000	1	1.151000
28.816667	1	1.060625
28.833333	1	0.975750
28.850000	1	0.896500
28.866667	1	0.823625
28.883333	1	0.756250
28.900000	1	0.693750
28.916667	1	0.637625
28.933333	1	0.587000
28.950000	1	0.541125
28.966667	1	0.499750
28.983333	1	0.462125
29.000000	1	0.429375
29.016667	1	0.400375
29.033333	1	0.374875
29.050000	1	0.352375
29.066667	1	0.333125
29.083333	1	0.316125
29.100000	1	0.302125
29.116667	1	0.289750
29.133333	1	0.279125
29.150000	1	0.271125
29.166667	1	0.264500
29.183333	1	0.259125
29.200000	1	0.255000
29.216667	1	0.252000
29.233333	1	0.250875
29.250000	1	0.250250
29.266667	1	0.250375
29.283333	1	0.250875
29.300000	1	0.253250
29.316667	1	0.256375
29.333333	1	0.260375
29.350000	1	0.265250
29.366667	1	0.270250
29.383333	1	0.277125
29.400000	1	0.283750
29.416667	1	0.290750
29.433333	1	0.298750
29.450000	1	0.307125
29.466667	1	0.315375
29.483333	1	0.325125
29.500000	1	0.335125
29.516667	1	0.345375
29.533333	1	0.355750
29.550000	1	0.366500
29.566667	1	0.377375
29.583333	1	0.388375
29.600000	1	0.399625
29.616667	1	0.410625
29.633333	1	0.422250
29.650000	1	0.432625
29.666667	1	0.444375
29.683333	1	0.455875
29.700000	1	0.467500
29.716667	1	0.478000
29.733333	1	0.489250
29.750000	1	0.500125
29.766667	1	0.510375
29.783333	1	0.520625
29.800000	1	0.530000
29.816667	1	0.539750
29.833333	1	0.548500
29.850000	1	0.556500
29.866667	1	0.565375
29.883333	1	0.573500
29.900000	1	0.581500
29.916667	1	0.588750
29.933333	1	0.595750
29.950000	1	0.601875
29.966667	1	0.607125
29.983333	1	0.612875
30.000000	1	0.617500
30.016667	1	0.621875
30.033333	1	0.625750
30.050000	1	0.629125
30.066667	1	0.631875
30.083333	1	0.634250
30.100000	1	0.636500
30.116667	1	0.637750
30.133333	1	0.638625
30.150000	1	0.639000
30.166667	1	0.639625
30.183333	1	0.639000
30.200000	1	0.638375
30.216667	1	0.637125
30.233333	1	0.635375
30.250000	1	0.633500
30.266667	1	0.631125
30.283333	1	0.628875
30.300000	1	0.626375
30.316667	1	0.623625
30.333333	1	0.620250
30.350000	1	0.616500
30.366667	1	0.613375
30.383333	1	0.609750
30.400000	1	0.605875
30.416667	1	0.601250
30.433333	1	0.597375
30.450000	1	0.593375
30.466667	1	0.589500
30.483333	1	0.586125
30.500000	1	0.582875
30.516667	1	0.579375
30.533333	1	0.576125
30.550000	1	0.572625
30.566667	1	0.569875
30.583333	1	0.567000
30.600000	1	0.565125
30.616667	1	0.562500
30.633333	1	0.560250
30.650000	1	0.558750
30.666667	1	0.556375
30.683333	1	0.555125
30.700000	1	0.554500
30.716667	1	0.553375
30.733333	1	0.552250
30.750000	1	0.551125
30.766667	1	0.550375
30.783333	1	0.550125
30.800000	1	0.550250
30.816667	1	0.550625
30.833333	1	0.550375
30.850000	1	0.551125
30.866667	1	0.551750
30.883333	1	0.552375
30.900000	1	0.553625
30.916667	1	0.554250
30.933333	1	0.555250
30.950000	1	0.556250
30.966667	1	0.557500
30.983333	1	0.559500
31.000000	1	0.561000
31.016667	1	0.562500
31.033333	1	0.564000
31.050000	1	0.565000
31.066667	1	0.566250
31.083333	1	0.567750
31.100000	1	0.569250
31.116667	1	0.570625
31.133333	1	0.571750
31.150000	1	0.572875
31.166667	1	0.573375
31.183333	1	0.574375
31.200000	1	0.576000
31.216667	1	0.577125
31.233333	1	0.577375
31.250000	1	0.577500
31.266667	1	0.578500
31.283333	1	0.578500
31.300000	1	0.578500
31.316667	1	0.578375
31.333333	1	0.577625
31.350000	1	0.576125
31.366667	1	0.575250
31.383333	1	0.573750
31.400000	1	0.571375
31.416667	1	0.569750
31.433333	1	0.567250
31.450000	1	0.565500
31.466667	1	0.563000
31.483333	1	0.560125
31.500000	1	0.557625
31.516667	1	0.554500
31.533333	1	0.551250
31.550000	1	0.548625
31.566667	1	0.545750
31.583333	1	0.543000
31.600000	1	0.540000
31.616667	1	0.537500
31.633333	1	0.535125
31.650000	1	0.532750
31.666667	1	0.530375
31.683333	1	0.528875
31.700000	1	0.527375
31.716667	1	0.527125
31.733333	1	0.527000
31.750000	1	0.526750
31.766667	1	0.527375
31.783333	1	0.528125
31.800000	1	0.529000
31.816667	1	0.530125
31.833333	1	0.531500
31.850000	1	0.533125
31.866667	1	0.535250
31.883333	1	0.537875
31.900000	1	0.540625
31.916667	1	0.544000
31.933333	1	0.547250
31.950000	1	0.550875
31.966667	1	0.553750
31.983333	1	0.557250
32.000000	1	0.561250
32.016667	1	0.566125
32.033333	1	0.570625
32.050000	1	0.574625
32.066667	1	0.579625
32.083333	1	0.585000
32.100000	1	0.590500
32.116667	1	0.595125
32.133333	1	0.600125
32.150000	1	0.605750
32.166667	1	0.610500
32.183333	1	0.615375
32.200000	1	0.620250
32.216667	1	0.625125
32.233333	1	0.630625
32.250000	1	0.635625
32.266667	1	0.640000
32.283333	1	0.644625
32.300000	1	0.649125
32.316667	1	0.653625
32.333333	1	0.658000
32.350000	1	0.662250
32.366667	1	0.665500
32.383333	1	0.668625
32.400000	1	0.671750
32.416667	1	0.674000
32.433333	1	0.676500
32.450000	1	0.678000
32.466667	1	0.679875
32.483333	1	0.681000
32.500000	1	0.681500
32.516667	1	0.681125
32.533333	1	0.680750
32.550000	1	0.679875
32.566667	1	0.678375
32.583333	1	0.676000
32.600000	1	0.672375
32.616667	1	0.668875
32.633333	1	0.665000
32.650000	1	0.660500
32.666667	1	0.654875
32.683333	1	0.648750
32.700000	1	0.641375
32.716667	1	0.633500
32.733333	1	0.625250
32.750000	1	0.616250
32.766667	1	0.606625
32.783333	1	0.596625
32.800000	1	0.585625
32.816667	1	0.575125
32.833333	1	0.563875
32.850000	1	0.552375
32.866667	1	0.540000
32.883333	1	0.527250
32.900000	1	0.514750
32.916667	1	0.501750
32.933333	1	0.489000
32.950000	1	0.476000
32.966667	1	0.462250
32.983333	1	0.448750
33.000000	1	0.436125
33.016667	1	0.422375
33.033333	1	0.408750
33.050000	1	0.396250
33.066667	1	0.383625
33.083333	1	0.371125
33.100000	1	0.357750
33.116667	1	0.345500
33.133333	1	0.334000
33.150000	1	0.322250
33.166667	1	0.311625
33.183333	1	0.300125
33.200000	1	0.289250
33.216667	1	0.280000
33.233333	1	0.270375
33.250000	1	0.261000
33.266667	1	0.252125
33.283333	1	0.243750
33.300000	1	0.235375
33.316667	1	0.227625
33.333333	1	0.220125
33.350000	1	0.213000
33.366667	1	0.206375
33.383333	1	0.200500
33.400000	1	0.194625
33.416667	1	0.189250
33.433333	1	0.184500
33.450000	1	0.180000
33.466667	1	0.176375
33.483333	1	0.171875
33.500000	1	0.168125
33.516667	1	0.165375
33.533333	1	0.162000
33.550000	1	0.159125
33.566667	1	0.156625
33.583333	1	0.154500
33.600000	1	0.151750
33.616667	1	0.149500
33.633333	1	0.147875
33.650000	1	0.146875
33.666667	1	0.145125
33.683333	1	0.144125
33.700000	1	0.143000
33.716667	1	0.141500
33.733333	1	0.141375
33.750000	1	0.141000
33.766667	1	0.140375
33.783333	1	0.140000
33.800000	1	0.140125
33.816667	1	0.140000
33.833333	1	0.140625
33.850000	1	0.140875
33.866667	1	0.141375
33.883333	1	0.141500
33.900000	1	0.142125
33.916667	1	0.143125
33.933333	1	0.144125
33.950000	1	0.144375
33.966667	1	0.146125
33.983333	1	0.147125
34.000000	1	0.148750
34.016667	1	0.150125
34.033333	1	0.151250
34.050000	1	0.153375
34.066667	1	0.154875
34.083333	1	0.156500
34.100000	1	0.158375
34.116667	1	0.160000
34.133333	1	0.161125
34.150000	1	0.163250
34.166667	1	0.165875
34.183333	1	0.167500
34.200000	1	0.169000
34.216667	1	0.170875
34.233333	1	0.173125
34.250000	1	0.175750
34.266667	1	0.177375
34.283333	1	0.179625
34.300000	1	0.181875
34.316667	1	0.184750
34.333333	1	0.187125
34.350000	1	0.189500
34.366667	1	0.192250
34.383333	1	0.195250
34.400000	1	0.197625
34.416667	1	0.200500
34.433333	1	0.203875
34.450000	1	0.206625
34.466667	1	0.209375
34.483333	1	0.212875
34.500000	1	0.216125
34.516667	1	0.219125
34.533333	1	0.221750
34.550000	1	0.224750
34.566667	1	0.227875
34.583333	1	0.230250
34.600000	1	0.233000
34.616667	1	0.235625
34.633333	1	0.238125
34.650000	1	0.240250
34.666667	1	0.242750
34.683333	1	0.244375
34.700000	1	0.245875
34.716667	1	0.247500
34.733333	1	0.248750
34.750000	1	0.250375
34.766667	1	0.251500
34.783333	1	0.251875
34.800000	1	0.252125
34.816667	1	0.252250
34.833333	1	0.252375
34.850000	1	0.253375
34.866667	1	0.253000
34.883333	1	0.252000
34.900000	1	0.250750
34.916667	1	0.249500
34.933333	1	0.248250
34.950000	1	0.246250
34.966667	1	0.244750
34.983333	1	0.242750
35.000000	1	0.240500
35.016667	1	0.238750
35.033333	1	0.236500
35.050000	1	0.234125
35.066667	1	0.231000
35.083333	1	0.228000
35.100000	1	0.225375
35.116667	1	0.221875
35.133333	1	0.218750
35.150000	1	0.216375
35.166667	1	0.213375
35.183333	1	0.210375
35.200000	1	0.207750
35.216667	1	0.204750
35.233333	1	0.202625
35.250000	1	0.199875
35.266667	1	0.197625
35.283333	1	0.195750
35.300000	1	0.193750
35.316667	1	0.192000
35.333333	1	0.190000
35.350000	1	0.188250
35.366667	1	0.187625
35.383333	1	0.186250
35.400000	1	0.185750
35.416667	1	0.185375
35.433333	1	0.184750
35.450000	1	0.184750
35.466667	1	0.184625
35.483333	1	0.184625
35.500000	1	0.186125
35.516667	1	0.187250
35.533333	1	0.189000
35.550000	1	0.190250
35.566667	1	0.191750
35.583333	1	0.193750
35.600000	1	0.195375
35.616667	1	0.197500
35.633333	1	0.199750
35.650000	1	0.202750
35.666667	1	0.206000
35.683333	1	0.208875
35.700000	1	0.211750
35.716667	1	0.214500
35.733333	1	0.218250
35.750000	1	0.222125
35.766667	1	0.225500
35.783333	1	0.228875
35.800000	1	0.233125
35.816667	1	0.237000
35.833333	1	0.241000
35.850000	1	0.245375
35.866667	1	0.249125
35.883333	1	0.253000
35.900000	1	0.257625
35.916667	1	0.261500
35.933333	1	0.265250
35.950000	1	0.269750
35.966667	1	0.273500
35.983333	1	0.277250
36.000000	1	0.282125
36.016667	1	0.286750
36.033333	1	0.290875
36.050000	1	0.295125
36.066667	1	0.298750
36.083333	1	0.302875
36.100000	1	0.307000
36.116667	1	0.310375
36.133333	1	0.314125
36.150000	1	0.318500
36.166667	1	0.323250
36.183333	1	0.326250
36.200000	1	0.330125
36.216667	1	0.334250
36.233333	1	0.338125
36.250000	1	0.341750
36.266667	1	0.345375
36.283333	1	0.349500
36.300000	1	0.353250
36.316667	1	0.357375
36.333333	1	0.361500
36.350000	1	0.364750
36.366667	1	0.369000
36.383333	1	0.372750
36.400000	1	0.376750
36.416667	1	0.380625
36.433333	1	0.383625
36.450000	1	0.387500
36.466667	1	0.390125
36.483333	1	0.394000
36.500000	1	0.397250
36.516667	1	0.400875
36.533333	1	0.404500
36.550000	1	0.407750
36.566667	1	0.411250
36.583333	1	0.414000
36.600000	1	0.416625
36.616667	1	0.419375
36.633333	1	0.422625
36.650000	1	0.425000
36.666667	1	0.428500
36.683333	1	0.430500
36.700000	1	0.431750
36.716667	1	0.433125
36.733333	1	0.434500
36.750000	1	0.436000
36.766667	1	0.437250
36.783333	1	0.438250
36.800000	1	0.439375
36.816667	1	0.440250
36.833333	1	0.441000
36.850000	1	0.441125
36.866667	1	0.440750
36.883333	1	0.440500
36.900000	1	0.439625
36.916667	1	0.438500
36.933333	1	0.437625
36.950000	1	0.436125
36.966667	1	0.435125
36.983333	1	0.433875
37.000000	1	0.431750
37.016667	1	0.429500
37.033333	1	0.426625
37.050000	1	0.424250
37.066667	1	0.421125
37.083333	1	0.418125
37.100000	1	0.414875
37.116667	1	0.411875
37.133333	1	0.408125
37.150000	1	0.403750
37.166667	1	0.400125
37.183333	1	0.396250
37.200000	1	0.392375
37.216667	1	0.388125
37.233333	1	0.383875
37.250000	1	0.379000
37.266667	1	0.374375
37.283333	1	0.369750
37.300000	1	0.364250
37.316667	1	0.359625
37.333333	1	0.355500
37.350000	1	0.350125
37.366667	1	0.344625
37.383333	1	0.340000
37.400000	1	0.334000
37.416667	1	0.328750
37.433333	1	0.323750
37.450000	1	0.317625
37.466667	1	0.312125
37.483333	1	0.306125
37.500000	1	0.300625
37.516667	1	0.295125
37.533333	1	0.289750
37.550000	1	0.284125
37.566667	1	0.278875
37.583333	1	0.273875
37.600000	1	0.268250
37.616667	1	0.262625
37.633333	1	0.257250
37.650000	1	0.252000
37.666667	1	0.246500
37.683333	1	0.241000
37.700000	1	0.235500
37.716667	1	0.230375
37.733333	1	0.225625
37.750000	1	0.221250
37.766667	1	0.216875
37.783333	1	0.212500
37.800000	1	0.209000
37.816667	1	0.205250
37.833333	1	0.201000
37.850000	1	0.197875
37.866667	1	0.194375
37.883333	1	0.191250
37.900000	1	0.188375
37.916667	1	0.185500
37.933333	1	0.183000
37.950000	1	0.180750
37.966667	1	0.179250
37.983333	1	0.177625
38.000000	1	0.175875
38.016667	1	0.174875
38.033333	1	0.173750
38.050000	1	0.173250
38.066667	1	0.172750
38.083333	1	0.172375
38.100000	1	0.171875
38.116667	1	0.171625
38.133333	1	0.171500
38.150000	1	0.171375
38.166667	1	0.171125
38.183333	1	0.172000
38.200000	1	0.172125
38.216667	1	0.172375
38.233333	1	0.172750
38.250000	1	0.173500
38.266667	1	0.174000
38.283333	1	0.174375
38.300000	1	0.174875
38.316667	1	0.175500
38.333333	1	0.175875
38.350000	1	0.176500
38.366667	1	0.177500
38.383333	1	0.179375
38.400000	1	0.180000
38.416667	1	0.181000
38.433333	1	0.182125
38.450000	1	0.183125
38.466667	1	0.184250
38.483333	1	0.185750
38.500000	1	0.186875
38.516667	1	0.187875
38.533333	1	0.189375
38.550000	1	0.190875
38.566667	1	0.191250
38.583333	1	0.193000
38.600000	1	0.193375
38.616667	1	0.195125
38.633333	1	0.196250
38.650000	1	0.197375
38.666667	1	0.198375
38.683333	1	0.199250
38.700000	1	0.200625
38.716667	1	0.201750
38.733333	1	0.202750
38.750000	1	0.203750
38.766667	1	0.204750
38.783333	1	0.205500
38.800000	1	0.206375
38.816667	1	0.206875
38.833333	1	0.208125
38.850000	1	0.208250
38.866667	1	0.208125
38.883333	1	0.208000
38.900000	1	0.208125
38.916667	1	0.208375
38.933333	1	0.208375
38.950000	1	0.208875
38.966667	1	0.208625
38.983333	1	0.208500
39.000000	1	0.208375
39.016667	1	0.207500
39.033333	1	0.207625
39.050000	1	0.207125
39.066667	1	0.206625
39.083333	1	0.205625
39.100000	1	0.205250
39.116667	1	0.204500
39.133333	1	0.204000
39.150000	1	0.203625
39.166667	1	0.203125
39.183333	1	0.202750
39.200000	1	0.201750
39.216667	1	0.200625
39.233333	1	0.200250
39.250000	1	0.199625
39.266667	1	0.199125
39.283333	1	0.198875
39.300000	1	0.198375
39.316667	1	0.198375
39.333333	1	0.198625
39.350000	1	0.198500
39.366667	1	0.198250
39.383333	1	0.198500
39.400000	1	0.198250
39.416667	1	0.198875
39.433333	1	0.198750
39.450000	1	0.199125
39.466667	1	0.198625
39.483333	1	0.198875
39.500000	1	0.199375
39.516667	1	0.199500
39.533333	1	0.200125
39.550000	1	0.200875
39.566667	1	0.201250
39.583333	1	0.201625
39.600000	1	0.202750
39.616667	1	0.203500
39.633333	1	0.204625
39.650000	1	0.205250
39.666667	1	0.206625
39.683333	1	0.207250
39.700000	1	0.208000
39.716667	1	0.209125
39.733333	1	0.210125
39.750000	1	0.211125
39.766667	1	0.212250
39.783333	1	0.213375
39.800000	1	0.215000
39.816667	1	0.215750
39.833333	1	0.216875
39.850000	1	0.218250
39.866667	1	0.219250
39.883333	1	0.220125
39.900000	1	0.221375
39.916667	1	0.222875
39.933333	1	0.224125
39.950000	1	0.225375
39.966667	1	0.226875
39.983333	1	0.228750
40.000000	1	0.229750
