File Path	chrom://marshall/Chromeleon7/HPLC_Ultimate_3000/Users/markusar/20230616_CMO_FP13_14_15.seq/821.smp/RI_1.channel/RI_1.chm
Channel	RI_1

Injection Information:
Data Vault	Chromeleon7
Injection	FP14_4.2_s3
Injection Number	22
Position	BE3
Comment	
Processing Method	
Instrument Method	run_25B_method
Type	Unknown
Status	Finished
Injection Date	17.06.2023
Injection Time	06:49:05
Injection Volume (µl)	20.000
Dilution Factor	1.0000
Weight	1.0000

Chromatogram Data Information:
Time Min. (min)	0.000000
Time Max. (min)	40.000000
Data Points	2401
Detector	RI
Generating Data System	Chromeleon 7.2.5.9507
Exporting Data System	Chromeleon 7.2.5.0
Operator	Instrument Controller
Signal Quantity	Refractive 
Signal Unit	µRIU
Signal Min.	-0.485125
Signal Max.	52.116375
Channel	RI_1
Driver Name	RID520Driver.dll
Channel Type	Evaluation
Min. Step (s)	1
Max. Step (s)	1
Average Step (s)	1

Signal Parameter Information:
Signal Info	

Chromatogram Data:
Time (min)	Step (s)	Value (µRIU)
0.000000	n.a.	0.040375
0.016667	1	0.039625
0.033333	1	0.039500
0.050000	1	0.039250
0.066667	1	0.038625
0.083333	1	0.037500
0.100000	1	0.036875
0.116667	1	0.036500
0.133333	1	0.036750
0.150000	1	0.036375
0.166667	1	0.036125
0.183333	1	0.035500
0.200000	1	0.034000
0.216667	1	0.032875
0.233333	1	0.031625
0.250000	1	0.030625
0.266667	1	0.029625
0.283333	1	0.028875
0.300000	1	0.028000
0.316667	1	0.026750
0.333333	1	0.025000
0.350000	1	0.024875
0.366667	1	0.024000
0.383333	1	0.023250
0.400000	1	0.022125
0.416667	1	0.019750
0.433333	1	0.017375
0.450000	1	0.013750
0.466667	1	0.010875
0.483333	1	0.008750
0.500000	1	0.008500
0.516667	1	0.010125
0.533333	1	0.012750
0.550000	1	0.014375
0.566667	1	0.016375
0.583333	1	0.017875
0.600000	1	0.019375
0.616667	1	0.020500
0.633333	1	0.020875
0.650000	1	0.021125
0.666667	1	0.019625
0.683333	1	0.017125
0.700000	1	0.015000
0.716667	1	0.012875
0.733333	1	0.011000
0.750000	1	0.009500
0.766667	1	0.007875
0.783333	1	0.006250
0.800000	1	0.005000
0.816667	1	0.004250
0.833333	1	0.003250
0.850000	1	0.003000
0.866667	1	0.002500
0.883333	1	0.002500
0.900000	1	0.002375
0.916667	1	0.002500
0.933333	1	0.002625
0.950000	1	0.003125
0.966667	1	0.003250
0.983333	1	0.004125
1.000000	1	0.004625
1.016667	1	0.004750
1.033333	1	0.005250
1.050000	1	0.005625
1.066667	1	0.006375
1.083333	1	0.006625
1.100000	1	0.007000
1.116667	1	0.008000
1.133333	1	0.008250
1.150000	1	0.009000
1.166667	1	0.010500
1.183333	1	0.011000
1.200000	1	0.011250
1.216667	1	0.011125
1.233333	1	0.011875
1.250000	1	0.012250
1.266667	1	0.012750
1.283333	1	0.013125
1.300000	1	0.013000
1.316667	1	0.013000
1.333333	1	0.013250
1.350000	1	0.013750
1.366667	1	0.014000
1.383333	1	0.013250
1.400000	1	0.013125
1.416667	1	0.013250
1.433333	1	0.013000
1.450000	1	0.012625
1.466667	1	0.011250
1.483333	1	0.010750
1.500000	1	0.010875
1.516667	1	0.010250
1.533333	1	0.010125
1.550000	1	0.009625
1.566667	1	0.008625
1.583333	1	0.007250
1.600000	1	0.006750
1.616667	1	0.005500
1.633333	1	0.004500
1.650000	1	0.003250
1.666667	1	0.002250
1.683333	1	0.001250
1.700000	1	0.000125
1.716667	1	-0.001500
1.733333	1	-0.002625
1.750000	1	-0.003375
1.766667	1	-0.004625
1.783333	1	-0.006125
1.800000	1	-0.007500
1.816667	1	-0.009250
1.833333	1	-0.010250
1.850000	1	-0.012125
1.866667	1	-0.013000
1.883333	1	-0.013875
1.900000	1	-0.015125
1.916667	1	-0.016375
1.933333	1	-0.017500
1.950000	1	-0.018625
1.966667	1	-0.019375
1.983333	1	-0.020500
2.000000	1	-0.022000
2.016667	1	-0.022750
2.033333	1	-0.023875
2.050000	1	-0.024750
2.066667	1	-0.026250
2.083333	1	-0.026750
2.100000	1	-0.027375
2.116667	1	-0.028000
2.133333	1	-0.028500
2.150000	1	-0.029375
2.166667	1	-0.029875
2.183333	1	-0.030750
2.200000	1	-0.031375
2.216667	1	-0.031875
2.233333	1	-0.032000
2.250000	1	-0.032125
2.266667	1	-0.032625
2.283333	1	-0.032500
2.300000	1	-0.032875
2.316667	1	-0.032500
2.333333	1	-0.032750
2.350000	1	-0.032375
2.366667	1	-0.032000
2.383333	1	-0.031625
2.400000	1	-0.031625
2.416667	1	-0.031750
2.433333	1	-0.031500
2.450000	1	-0.030250
2.466667	1	-0.029875
2.483333	1	-0.029000
2.500000	1	-0.027875
2.516667	1	-0.026750
2.533333	1	-0.026125
2.550000	1	-0.025625
2.566667	1	-0.025375
2.583333	1	-0.024625
2.600000	1	-0.023250
2.616667	1	-0.022250
2.633333	1	-0.020500
2.650000	1	-0.019750
2.666667	1	-0.018250
2.683333	1	-0.016500
2.700000	1	-0.015875
2.716667	1	-0.014750
2.733333	1	-0.013500
2.750000	1	-0.012125
2.766667	1	-0.010250
2.783333	1	-0.009125
2.800000	1	-0.008250
2.816667	1	-0.006750
2.833333	1	-0.005250
2.850000	1	-0.003750
2.866667	1	-0.002125
2.883333	1	-0.000375
2.900000	1	0.000750
2.916667	1	0.002125
2.933333	1	0.003750
2.950000	1	0.004750
2.966667	1	0.006625
2.983333	1	0.008625
3.000000	1	0.010375
3.016667	1	0.012375
3.033333	1	0.013375
3.050000	1	0.015500
3.066667	1	0.017375
3.083333	1	0.019250
3.100000	1	0.020500
3.116667	1	0.023125
3.133333	1	0.025000
3.150000	1	0.026375
3.166667	1	0.028125
3.183333	1	0.029375
3.200000	1	0.030750
3.216667	1	0.032375
3.233333	1	0.033875
3.250000	1	0.034875
3.266667	1	0.037000
3.283333	1	0.038000
3.300000	1	0.039375
3.316667	1	0.040500
3.333333	1	0.041625
3.350000	1	0.042625
3.366667	1	0.043875
3.383333	1	0.044750
3.400000	1	0.045875
3.416667	1	0.046500
3.433333	1	0.047500
3.450000	1	0.047875
3.466667	1	0.049000
3.483333	1	0.049750
3.500000	1	0.050750
3.516667	1	0.051125
3.533333	1	0.051000
3.550000	1	0.052250
3.566667	1	0.052750
3.583333	1	0.053250
3.600000	1	0.053625
3.616667	1	0.053500
3.633333	1	0.053125
3.650000	1	0.053500
3.666667	1	0.054000
3.683333	1	0.054250
3.700000	1	0.054500
3.716667	1	0.054125
3.733333	1	0.053750
3.750000	1	0.053625
3.766667	1	0.053000
3.783333	1	0.052500
3.800000	1	0.052625
3.816667	1	0.052125
3.833333	1	0.051500
3.850000	1	0.051125
3.866667	1	0.050250
3.883333	1	0.049000
3.900000	1	0.048375
3.916667	1	0.047375
3.933333	1	0.046875
3.950000	1	0.046000
3.966667	1	0.044750
3.983333	1	0.043625
4.000000	1	0.042250
4.016667	1	0.041000
4.033333	1	0.039375
4.050000	1	0.038500
4.066667	1	0.037125
4.083333	1	0.035375
4.100000	1	0.034250
4.116667	1	0.032750
4.133333	1	0.030375
4.150000	1	0.029250
4.166667	1	0.028000
4.183333	1	0.027250
4.200000	1	0.026000
4.216667	1	0.024875
4.233333	1	0.023625
4.250000	1	0.021625
4.266667	1	0.020500
4.283333	1	0.019000
4.300000	1	0.018125
4.316667	1	0.017125
4.333333	1	0.016000
4.350000	1	0.014875
4.366667	1	0.014250
4.383333	1	0.013250
4.400000	1	0.011875
4.416667	1	0.011250
4.433333	1	0.010500
4.450000	1	0.009875
4.466667	1	0.009125
4.483333	1	0.008875
4.500000	1	0.008000
4.516667	1	0.007875
4.533333	1	0.006875
4.550000	1	0.007125
4.566667	1	0.007500
4.583333	1	0.007125
4.600000	1	0.006500
4.616667	1	0.005500
4.633333	1	0.005625
4.650000	1	0.005500
4.666667	1	0.005750
4.683333	1	0.006250
4.700000	1	0.007000
4.716667	1	0.007125
4.733333	1	0.007375
4.750000	1	0.008000
4.766667	1	0.008000
4.783333	1	0.009000
4.800000	1	0.009500
4.816667	1	0.010000
4.833333	1	0.010125
4.850000	1	0.011625
4.866667	1	0.012875
4.883333	1	0.013625
4.900000	1	0.015000
4.916667	1	0.015875
4.933333	1	0.016750
4.950000	1	0.017250
4.966667	1	0.018500
4.983333	1	0.019250
5.000000	1	0.020375
5.016667	1	0.022000
5.033333	1	0.023375
5.050000	1	0.025250
5.066667	1	0.027000
5.083333	1	0.028875
5.100000	1	0.030250
5.116667	1	0.032500
5.133333	1	0.034000
5.150000	1	0.035500
5.166667	1	0.037250
5.183333	1	0.039250
5.200000	1	0.040875
5.216667	1	0.043000
5.233333	1	0.045375
5.250000	1	0.047750
5.266667	1	0.050125
5.283333	1	0.052500
5.300000	1	0.054750
5.316667	1	0.056625
5.333333	1	0.059250
5.350000	1	0.061375
5.366667	1	0.063750
5.383333	1	0.065750
5.400000	1	0.068250
5.416667	1	0.070750
5.433333	1	0.073375
5.450000	1	0.076000
5.466667	1	0.079125
5.483333	1	0.082000
5.500000	1	0.084875
5.516667	1	0.087500
5.533333	1	0.089250
5.550000	1	0.091375
5.566667	1	0.093125
5.583333	1	0.095000
5.600000	1	0.096875
5.616667	1	0.099000
5.633333	1	0.100875
5.650000	1	0.103250
5.666667	1	0.104375
5.683333	1	0.105500
5.700000	1	0.107250
5.716667	1	0.108250
5.733333	1	0.109250
5.750000	1	0.110875
5.766667	1	0.112125
5.783333	1	0.113125
5.800000	1	0.113875
5.816667	1	0.114750
5.833333	1	0.115250
5.850000	1	0.115500
5.866667	1	0.115375
5.883333	1	0.115625
5.900000	1	0.116125
5.916667	1	0.116875
5.933333	1	0.116375
5.950000	1	0.116125
5.966667	1	0.115625
5.983333	1	0.115875
6.000000	1	0.115250
6.016667	1	0.114125
6.033333	1	0.113875
6.050000	1	0.113375
6.066667	1	0.112875
6.083333	1	0.112125
6.100000	1	0.110500
6.116667	1	0.109375
6.133333	1	0.108625
6.150000	1	0.108250
6.166667	1	0.107000
6.183333	1	0.106000
6.200000	1	0.105250
6.216667	1	0.104125
6.233333	1	0.102750
6.250000	1	0.101000
6.266667	1	0.100000
6.283333	1	0.098875
6.300000	1	0.097125
6.316667	1	0.096625
6.333333	1	0.096375
6.350000	1	0.095375
6.366667	1	0.093625
6.383333	1	0.092750
6.400000	1	0.092375
6.416667	1	0.090875
6.433333	1	0.089875
6.450000	1	0.089125
6.466667	1	0.088000
6.483333	1	0.086875
6.500000	1	0.086375
6.516667	1	0.086375
6.533333	1	0.085750
6.550000	1	0.085375
6.566667	1	0.084875
6.583333	1	0.084625
6.600000	1	0.084000
6.616667	1	0.083875
6.633333	1	0.084000
6.650000	1	0.084500
6.666667	1	0.084625
6.683333	1	0.085000
6.700000	1	0.086250
6.716667	1	0.086375
6.733333	1	0.087250
6.750000	1	0.088500
6.766667	1	0.089500
6.783333	1	0.090500
6.800000	1	0.091750
6.816667	1	0.093375
6.833333	1	0.094875
6.850000	1	0.096000
6.866667	1	0.097250
6.883333	1	0.098250
6.900000	1	0.100625
6.916667	1	0.102625
6.933333	1	0.104250
6.950000	1	0.106000
6.966667	1	0.107500
6.983333	1	0.109375
7.000000	1	0.111000
7.016667	1	0.113500
7.033333	1	0.115250
7.050000	1	0.117000
7.066667	1	0.118250
7.083333	1	0.119500
7.100000	1	0.120875
7.116667	1	0.122000
7.133333	1	0.122625
7.150000	1	0.123625
7.166667	1	0.124625
7.183333	1	0.125500
7.200000	1	0.126250
7.216667	1	0.127125
7.233333	1	0.127500
7.250000	1	0.127625
7.266667	1	0.127375
7.283333	1	0.127375
7.300000	1	0.126875
7.316667	1	0.126500
7.333333	1	0.126125
7.350000	1	0.125125
7.366667	1	0.124000
7.383333	1	0.123250
7.400000	1	0.122500
7.416667	1	0.121625
7.433333	1	0.121000
7.450000	1	0.119625
7.466667	1	0.118500
7.483333	1	0.117500
7.500000	1	0.115375
7.516667	1	0.113500
7.533333	1	0.111250
7.550000	1	0.109500
7.566667	1	0.107500
7.583333	1	0.106125
7.600000	1	0.104250
7.616667	1	0.102000
7.633333	1	0.100125
7.650000	1	0.098250
7.666667	1	0.096375
7.683333	1	0.093750
7.700000	1	0.091750
7.716667	1	0.089250
7.733333	1	0.086875
7.750000	1	0.084250
7.766667	1	0.082125
7.783333	1	0.079750
7.800000	1	0.077625
7.816667	1	0.075625
7.833333	1	0.073000
7.850000	1	0.071000
7.866667	1	0.068500
7.883333	1	0.066625
7.900000	1	0.064500
7.916667	1	0.062250
7.933333	1	0.060000
7.950000	1	0.057875
7.966667	1	0.055500
7.983333	1	0.053625
8.000000	1	0.052500
8.016667	1	0.050875
8.033333	1	0.049000
8.050000	1	0.047250
8.066667	1	0.045500
8.083333	1	0.043500
8.100000	1	0.041750
8.116667	1	0.039875
8.133333	1	0.037875
8.150000	1	0.036250
8.166667	1	0.034125
8.183333	1	0.032625
8.200000	1	0.031250
8.216667	1	0.029875
8.233333	1	0.029375
8.250000	1	0.028000
8.266667	1	0.026750
8.283333	1	0.025500
8.300000	1	0.024125
8.316667	1	0.022875
8.333333	1	0.022125
8.350000	1	0.021125
8.366667	1	0.020750
8.383333	1	0.021000
8.400000	1	0.020250
8.416667	1	0.019875
8.433333	1	0.019625
8.450000	1	0.018750
8.466667	1	0.018750
8.483333	1	0.018750
8.500000	1	0.018625
8.516667	1	0.019250
8.533333	1	0.019375
8.550000	1	0.019750
8.566667	1	0.020500
8.583333	1	0.020625
8.600000	1	0.021750
8.616667	1	0.022750
8.633333	1	0.024000
8.650000	1	0.024625
8.666667	1	0.025625
8.683333	1	0.027375
8.700000	1	0.028125
8.716667	1	0.029750
8.733333	1	0.031375
8.750000	1	0.033625
8.766667	1	0.035000
8.783333	1	0.037750
8.800000	1	0.039625
8.816667	1	0.041875
8.833333	1	0.043875
8.850000	1	0.045750
8.866667	1	0.047125
8.883333	1	0.049125
8.900000	1	0.051500
8.916667	1	0.052750
8.933333	1	0.055000
8.950000	1	0.057125
8.966667	1	0.059125
8.983333	1	0.060750
9.000000	1	0.062875
9.016667	1	0.065000
9.033333	1	0.066875
9.050000	1	0.068625
9.066667	1	0.071250
9.083333	1	0.073250
9.100000	1	0.075500
9.116667	1	0.078000
9.133333	1	0.080125
9.150000	1	0.082000
9.166667	1	0.084500
9.183333	1	0.087000
9.200000	1	0.089125
9.216667	1	0.091125
9.233333	1	0.093125
9.250000	1	0.095500
9.266667	1	0.097250
9.283333	1	0.099125
9.300000	1	0.101500
9.316667	1	0.103750
9.333333	1	0.106375
9.350000	1	0.108875
9.366667	1	0.112000
9.383333	1	0.114750
9.400000	1	0.117250
9.416667	1	0.119625
9.433333	1	0.122500
9.450000	1	0.125500
9.466667	1	0.129125
9.483333	1	0.133125
9.500000	1	0.137250
9.516667	1	0.142500
9.533333	1	0.147125
9.550000	1	0.153125
9.566667	1	0.159625
9.583333	1	0.167000
9.600000	1	0.175125
9.616667	1	0.183875
9.633333	1	0.193375
9.650000	1	0.203875
9.666667	1	0.213750
9.683333	1	0.223625
9.700000	1	0.233375
9.716667	1	0.241375
9.733333	1	0.248875
9.750000	1	0.255125
9.766667	1	0.259375
9.783333	1	0.262500
9.800000	1	0.265125
9.816667	1	0.270875
9.833333	1	0.280625
9.850000	1	0.300125
9.866667	1	0.334000
9.883333	1	0.388875
9.900000	1	0.471250
9.916667	1	0.591250
9.933333	1	0.759625
9.950000	1	0.989500
9.966667	1	1.298500
9.983333	1	1.707750
10.000000	1	2.239625
10.016667	1	2.919500
10.033333	1	3.770500
10.050000	1	4.811625
10.066667	1	6.055375
10.083333	1	7.508000
10.100000	1	9.168000
10.116667	1	11.022000
10.133333	1	13.045500
10.150000	1	15.203750
10.166667	1	17.447500
10.183333	1	19.719625
10.200000	1	21.954375
10.216667	1	24.078875
10.233333	1	26.019000
10.250000	1	27.700375
10.266667	1	29.061125
10.283333	1	30.049750
10.300000	1	30.636875
10.316667	1	30.815500
10.333333	1	30.603875
10.350000	1	30.045000
10.366667	1	29.198250
10.383333	1	28.134875
10.400000	1	26.926625
10.416667	1	25.637250
10.433333	1	24.321375
10.450000	1	23.018000
10.466667	1	21.751875
10.483333	1	20.536000
10.500000	1	19.376625
10.516667	1	18.272375
10.533333	1	17.222250
10.550000	1	16.220375
10.566667	1	15.262500
10.583333	1	14.343375
10.600000	1	13.462000
10.616667	1	12.614000
10.633333	1	11.798000
10.650000	1	11.014500
10.666667	1	10.263000
10.683333	1	9.544000
10.700000	1	8.858500
10.716667	1	8.208125
10.733333	1	7.594500
10.750000	1	7.018750
10.766667	1	6.483625
10.783333	1	5.989375
10.800000	1	5.537000
10.816667	1	5.124125
10.833333	1	4.752375
10.850000	1	4.418625
10.866667	1	4.119375
10.883333	1	3.853250
10.900000	1	3.617375
10.916667	1	3.407125
10.933333	1	3.220250
10.950000	1	3.054625
10.966667	1	2.906125
10.983333	1	2.773625
11.000000	1	2.655250
11.016667	1	2.548000
11.033333	1	2.451250
11.050000	1	2.363875
11.066667	1	2.283750
11.083333	1	2.211000
11.100000	1	2.144000
11.116667	1	2.081875
11.133333	1	2.025125
11.150000	1	1.971250
11.166667	1	1.922250
11.183333	1	1.876250
11.200000	1	1.832250
11.216667	1	1.791625
11.233333	1	1.754125
11.250000	1	1.719250
11.266667	1	1.687000
11.283333	1	1.656875
11.300000	1	1.629125
11.316667	1	1.603250
11.333333	1	1.580875
11.350000	1	1.560375
11.366667	1	1.541625
11.383333	1	1.525875
11.400000	1	1.511750
11.416667	1	1.499375
11.433333	1	1.487875
11.450000	1	1.477625
11.466667	1	1.469250
11.483333	1	1.460250
11.500000	1	1.450750
11.516667	1	1.441250
11.533333	1	1.431375
11.550000	1	1.420250
11.566667	1	1.408750
11.583333	1	1.396500
11.600000	1	1.383625
11.616667	1	1.370125
11.633333	1	1.355750
11.650000	1	1.342125
11.666667	1	1.328250
11.683333	1	1.314625
11.700000	1	1.300750
11.716667	1	1.287250
11.733333	1	1.275125
11.750000	1	1.262625
11.766667	1	1.251250
11.783333	1	1.241750
11.800000	1	1.233000
11.816667	1	1.225500
11.833333	1	1.220125
11.850000	1	1.217000
11.866667	1	1.216500
11.883333	1	1.219625
11.900000	1	1.226875
11.916667	1	1.237875
11.933333	1	1.254250
11.950000	1	1.276750
11.966667	1	1.306625
11.983333	1	1.343625
12.000000	1	1.389875
12.016667	1	1.446250
12.033333	1	1.513625
12.050000	1	1.593875
12.066667	1	1.688250
12.083333	1	1.798500
12.100000	1	1.926750
12.116667	1	2.075625
12.133333	1	2.246750
12.150000	1	2.442875
12.166667	1	2.665750
12.183333	1	2.919125
12.200000	1	3.206625
12.216667	1	3.531875
12.233333	1	3.898000
12.250000	1	4.309875
12.266667	1	4.772875
12.283333	1	5.293375
12.300000	1	5.880750
12.316667	1	6.545875
12.333333	1	7.303250
12.350000	1	8.169750
12.366667	1	9.165750
12.383333	1	10.317250
12.400000	1	11.650000
12.416667	1	13.187375
12.433333	1	14.952625
12.450000	1	16.963000
12.466667	1	19.226875
12.483333	1	21.737375
12.500000	1	24.472875
12.516667	1	27.393875
12.533333	1	30.446250
12.550000	1	33.556250
12.566667	1	36.647250
12.583333	1	39.634000
12.600000	1	42.434500
12.616667	1	44.969000
12.633333	1	47.175125
12.650000	1	49.003125
12.666667	1	50.419750
12.683333	1	51.408625
12.700000	1	51.969250
12.716667	1	52.116375
12.733333	1	51.875375
12.750000	1	51.282750
12.766667	1	50.382000
12.783333	1	49.219750
12.800000	1	47.844000
12.816667	1	46.303125
12.833333	1	44.637500
12.850000	1	42.887000
12.866667	1	41.084125
12.883333	1	39.258125
12.900000	1	37.433500
12.916667	1	35.629625
12.933333	1	33.863375
12.950000	1	32.146250
12.966667	1	30.487625
12.983333	1	28.891875
13.000000	1	27.362375
13.016667	1	25.901625
13.033333	1	24.507375
13.050000	1	23.177875
13.066667	1	21.909375
13.083333	1	20.699375
13.100000	1	19.544125
13.116667	1	18.440500
13.133333	1	17.385750
13.150000	1	16.376875
13.166667	1	15.411500
13.183333	1	14.485625
13.200000	1	13.598625
13.216667	1	12.746000
13.233333	1	11.925750
13.250000	1	11.133625
13.266667	1	10.365875
13.283333	1	9.618375
13.300000	1	8.889375
13.316667	1	8.177125
13.333333	1	7.484500
13.350000	1	6.818125
13.366667	1	6.191250
13.383333	1	5.616250
13.400000	1	5.103875
13.416667	1	4.658250
13.433333	1	4.276625
13.450000	1	3.952250
13.466667	1	3.676375
13.483333	1	3.442250
13.500000	1	3.241750
13.516667	1	3.069750
13.533333	1	2.920125
13.550000	1	2.789000
13.566667	1	2.673375
13.583333	1	2.571125
13.600000	1	2.479500
13.616667	1	2.396500
13.633333	1	2.321875
13.650000	1	2.253875
13.666667	1	2.191625
13.683333	1	2.134375
13.700000	1	2.081000
13.716667	1	2.031500
13.733333	1	1.984625
13.750000	1	1.940375
13.766667	1	1.897375
13.783333	1	1.856375
13.800000	1	1.817250
13.816667	1	1.780125
13.833333	1	1.743500
13.850000	1	1.707375
13.866667	1	1.672750
13.883333	1	1.638625
13.900000	1	1.604875
13.916667	1	1.571750
13.933333	1	1.539125
13.950000	1	1.507500
13.966667	1	1.476625
13.983333	1	1.445750
14.000000	1	1.416375
14.016667	1	1.387375
14.033333	1	1.359250
14.050000	1	1.332000
14.066667	1	1.305750
14.083333	1	1.280000
14.100000	1	1.254375
14.116667	1	1.230375
14.133333	1	1.207750
14.150000	1	1.186000
14.166667	1	1.164500
14.183333	1	1.144375
14.200000	1	1.125500
14.216667	1	1.108000
14.233333	1	1.090625
14.250000	1	1.075000
14.266667	1	1.060375
14.283333	1	1.047000
14.300000	1	1.035250
14.316667	1	1.023875
14.333333	1	1.013500
14.350000	1	1.004750
14.366667	1	0.996750
14.383333	1	0.989375
14.400000	1	0.982375
14.416667	1	0.976375
14.433333	1	0.971375
14.450000	1	0.966500
14.466667	1	0.962500
14.483333	1	0.958625
14.500000	1	0.954875
14.516667	1	0.951500
14.533333	1	0.948000
14.550000	1	0.943750
14.566667	1	0.940000
14.583333	1	0.936375
14.600000	1	0.931750
14.616667	1	0.927500
14.633333	1	0.923875
14.650000	1	0.919875
14.666667	1	0.915875
14.683333	1	0.912500
14.700000	1	0.908875
14.716667	1	0.905750
14.733333	1	0.902500
14.750000	1	0.899500
14.766667	1	0.896125
14.783333	1	0.894250
14.800000	1	0.892375
14.816667	1	0.890625
14.833333	1	0.889250
14.850000	1	0.888750
14.866667	1	0.887375
14.883333	1	0.886500
14.900000	1	0.885875
14.916667	1	0.885625
14.933333	1	0.884875
14.950000	1	0.883375
14.966667	1	0.881750
14.983333	1	0.880125
15.000000	1	0.878500
15.016667	1	0.876750
15.033333	1	0.874250
15.050000	1	0.871625
15.066667	1	0.869625
15.083333	1	0.867375
15.100000	1	0.864500
15.116667	1	0.861625
15.133333	1	0.858875
15.150000	1	0.855375
15.166667	1	0.852250
15.183333	1	0.849500
15.200000	1	0.847375
15.216667	1	0.844750
15.233333	1	0.843375
15.250000	1	0.841875
15.266667	1	0.840625
15.283333	1	0.839500
15.300000	1	0.838750
15.316667	1	0.838875
15.333333	1	0.839250
15.350000	1	0.840125
15.366667	1	0.841500
15.383333	1	0.843375
15.400000	1	0.847125
15.416667	1	0.852375
15.433333	1	0.857500
15.450000	1	0.864875
15.466667	1	0.873375
15.483333	1	0.884125
15.500000	1	0.896125
15.516667	1	0.910250
15.533333	1	0.926000
15.550000	1	0.942750
15.566667	1	0.959875
15.583333	1	0.978000
15.600000	1	0.995000
15.616667	1	1.012625
15.633333	1	1.029375
15.650000	1	1.044625
15.666667	1	1.058375
15.683333	1	1.069500
15.700000	1	1.077250
15.716667	1	1.082750
15.733333	1	1.086625
15.750000	1	1.087375
15.766667	1	1.086750
15.783333	1	1.083125
15.800000	1	1.077250
15.816667	1	1.070000
15.833333	1	1.061875
15.850000	1	1.052125
15.866667	1	1.042125
15.883333	1	1.031375
15.900000	1	1.019875
15.916667	1	1.007875
15.933333	1	0.995500
15.950000	1	0.983500
15.966667	1	0.972250
15.983333	1	0.961875
16.000000	1	0.951500
16.016667	1	0.941375
16.033333	1	0.931375
16.050000	1	0.921625
16.066667	1	0.913500
16.083333	1	0.906250
16.100000	1	0.899625
16.116667	1	0.893750
16.133333	1	0.888000
16.150000	1	0.883375
16.166667	1	0.879000
16.183333	1	0.875000
16.200000	1	0.871250
16.216667	1	0.868000
16.233333	1	0.865625
16.250000	1	0.863625
16.266667	1	0.861000
16.283333	1	0.858375
16.300000	1	0.856250
16.316667	1	0.854000
16.333333	1	0.851750
16.350000	1	0.849500
16.366667	1	0.846625
16.383333	1	0.844625
16.400000	1	0.842500
16.416667	1	0.840625
16.433333	1	0.839250
16.450000	1	0.838000
16.466667	1	0.837000
16.483333	1	0.835875
16.500000	1	0.836000
16.516667	1	0.835375
16.533333	1	0.835500
16.550000	1	0.835500
16.566667	1	0.835750
16.583333	1	0.836500
16.600000	1	0.837625
16.616667	1	0.838250
16.633333	1	0.839500
16.650000	1	0.840250
16.666667	1	0.841875
16.683333	1	0.843625
16.700000	1	0.845625
16.716667	1	0.847375
16.733333	1	0.849250
16.750000	1	0.851750
16.766667	1	0.855000
16.783333	1	0.857625
16.800000	1	0.859875
16.816667	1	0.862750
16.833333	1	0.865125
16.850000	1	0.868875
16.866667	1	0.870875
16.883333	1	0.873375
16.900000	1	0.875750
16.916667	1	0.878125
16.933333	1	0.879875
16.950000	1	0.881500
16.966667	1	0.882375
16.983333	1	0.883250
17.000000	1	0.884250
17.016667	1	0.884625
17.033333	1	0.885125
17.050000	1	0.885750
17.066667	1	0.886125
17.083333	1	0.886500
17.100000	1	0.886125
17.116667	1	0.885250
17.133333	1	0.884125
17.150000	1	0.882750
17.166667	1	0.880625
17.183333	1	0.877750
17.200000	1	0.873875
17.216667	1	0.870000
17.233333	1	0.865250
17.250000	1	0.860250
17.266667	1	0.853750
17.283333	1	0.847125
17.300000	1	0.840750
17.316667	1	0.833875
17.333333	1	0.825750
17.350000	1	0.818125
17.366667	1	0.810375
17.383333	1	0.802375
17.400000	1	0.794625
17.416667	1	0.787375
17.433333	1	0.780250
17.450000	1	0.774250
17.466667	1	0.768125
17.483333	1	0.763250
17.500000	1	0.759375
17.516667	1	0.755500
17.533333	1	0.753000
17.550000	1	0.751125
17.566667	1	0.750000
17.583333	1	0.750250
17.600000	1	0.751375
17.616667	1	0.754125
17.633333	1	0.757875
17.650000	1	0.761500
17.666667	1	0.766625
17.683333	1	0.773625
17.700000	1	0.780125
17.716667	1	0.787750
17.733333	1	0.795875
17.750000	1	0.804625
17.766667	1	0.813750
17.783333	1	0.823875
17.800000	1	0.833875
17.816667	1	0.843625
17.833333	1	0.853750
17.850000	1	0.863625
17.866667	1	0.872750
17.883333	1	0.881375
17.900000	1	0.889250
17.916667	1	0.896500
17.933333	1	0.903000
17.950000	1	0.907500
17.966667	1	0.911875
17.983333	1	0.914625
18.000000	1	0.915625
18.016667	1	0.916125
18.033333	1	0.915625
18.050000	1	0.914250
18.066667	1	0.911625
18.083333	1	0.907750
18.100000	1	0.903500
18.116667	1	0.897250
18.133333	1	0.889625
18.150000	1	0.882125
18.166667	1	0.874250
18.183333	1	0.865375
18.200000	1	0.857000
18.216667	1	0.848000
18.233333	1	0.839125
18.250000	1	0.829375
18.266667	1	0.820125
18.283333	1	0.810625
18.300000	1	0.801125
18.316667	1	0.791875
18.333333	1	0.783000
18.350000	1	0.774625
18.366667	1	0.766250
18.383333	1	0.758500
18.400000	1	0.751125
18.416667	1	0.744125
18.433333	1	0.737625
18.450000	1	0.731500
18.466667	1	0.726250
18.483333	1	0.722250
18.500000	1	0.717375
18.516667	1	0.713500
18.533333	1	0.710000
18.550000	1	0.707250
18.566667	1	0.705000
18.583333	1	0.702750
18.600000	1	0.701875
18.616667	1	0.700750
18.633333	1	0.700875
18.650000	1	0.701125
18.666667	1	0.701875
18.683333	1	0.702750
18.700000	1	0.705000
18.716667	1	0.707875
18.733333	1	0.710875
18.750000	1	0.714625
18.766667	1	0.718750
18.783333	1	0.723625
18.800000	1	0.729000
18.816667	1	0.734875
18.833333	1	0.741750
18.850000	1	0.749125
18.866667	1	0.757000
18.883333	1	0.766000
18.900000	1	0.775000
18.916667	1	0.784000
18.933333	1	0.794625
18.950000	1	0.806625
18.966667	1	0.819250
18.983333	1	0.833125
19.000000	1	0.848250
19.016667	1	0.864875
19.033333	1	0.883625
19.050000	1	0.903875
19.066667	1	0.926000
19.083333	1	0.949875
19.100000	1	0.976000
19.116667	1	1.003500
19.133333	1	1.032625
19.150000	1	1.063125
19.166667	1	1.095000
19.183333	1	1.127625
19.200000	1	1.160625
19.216667	1	1.194125
19.233333	1	1.226500
19.250000	1	1.258125
19.266667	1	1.288125
19.283333	1	1.315750
19.300000	1	1.340375
19.316667	1	1.362250
19.333333	1	1.380750
19.350000	1	1.395000
19.366667	1	1.405625
19.383333	1	1.411875
19.400000	1	1.413625
19.416667	1	1.412125
19.433333	1	1.405750
19.450000	1	1.395250
19.466667	1	1.381875
19.483333	1	1.365750
19.500000	1	1.346000
19.516667	1	1.323875
19.533333	1	1.299625
19.550000	1	1.273500
19.566667	1	1.246500
19.583333	1	1.218250
19.600000	1	1.190250
19.616667	1	1.161625
19.633333	1	1.133875
19.650000	1	1.106625
19.666667	1	1.080125
19.683333	1	1.055125
19.700000	1	1.031125
19.716667	1	1.009250
19.733333	1	0.989250
19.750000	1	0.971750
19.766667	1	0.956750
19.783333	1	0.943250
19.800000	1	0.932625
19.816667	1	0.923875
19.833333	1	0.917500
19.850000	1	0.913250
19.866667	1	0.910125
19.883333	1	0.908625
19.900000	1	0.909500
19.916667	1	0.911000
19.933333	1	0.913250
19.950000	1	0.916375
19.966667	1	0.920625
19.983333	1	0.925250
20.000000	1	0.929875
20.016667	1	0.934000
20.033333	1	0.938000
20.050000	1	0.941250
20.066667	1	0.945000
20.083333	1	0.947125
20.100000	1	0.949250
20.116667	1	0.950375
20.133333	1	0.951250
20.150000	1	0.951625
20.166667	1	0.952125
20.183333	1	0.951500
20.200000	1	0.951000
20.216667	1	0.951375
20.233333	1	0.950750
20.250000	1	0.950875
20.266667	1	0.951875
20.283333	1	0.953375
20.300000	1	0.955625
20.316667	1	0.957500
20.333333	1	0.961000
20.350000	1	0.964875
20.366667	1	0.970125
20.383333	1	0.976125
20.400000	1	0.982250
20.416667	1	0.988750
20.433333	1	0.995875
20.450000	1	1.002750
20.466667	1	1.009125
20.483333	1	1.015625
20.500000	1	1.021125
20.516667	1	1.026125
20.533333	1	1.030375
20.550000	1	1.034375
20.566667	1	1.037750
20.583333	1	1.039625
20.600000	1	1.040875
20.616667	1	1.042500
20.633333	1	1.043625
20.650000	1	1.044375
20.666667	1	1.045750
20.683333	1	1.046500
20.700000	1	1.048375
20.716667	1	1.051000
20.733333	1	1.056125
20.750000	1	1.062750
20.766667	1	1.071500
20.783333	1	1.082250
20.800000	1	1.095000
20.816667	1	1.110125
20.833333	1	1.126500
20.850000	1	1.145375
20.866667	1	1.165500
20.883333	1	1.186500
20.900000	1	1.208500
20.916667	1	1.230000
20.933333	1	1.251250
20.950000	1	1.270750
20.966667	1	1.287625
20.983333	1	1.302375
21.000000	1	1.312750
21.016667	1	1.321125
21.033333	1	1.325125
21.050000	1	1.324375
21.066667	1	1.319750
21.083333	1	1.310500
21.100000	1	1.297000
21.116667	1	1.280000
21.133333	1	1.259375
21.150000	1	1.235250
21.166667	1	1.208500
21.183333	1	1.180250
21.200000	1	1.150125
21.216667	1	1.118000
21.233333	1	1.084875
21.250000	1	1.051500
21.266667	1	1.017500
21.283333	1	0.983875
21.300000	1	0.950750
21.316667	1	0.919125
21.333333	1	0.887000
21.350000	1	0.855625
21.366667	1	0.826500
21.383333	1	0.798875
21.400000	1	0.772500
21.416667	1	0.746375
21.433333	1	0.722875
21.450000	1	0.701000
21.466667	1	0.680750
21.483333	1	0.662375
21.500000	1	0.644875
21.516667	1	0.629375
21.533333	1	0.615750
21.550000	1	0.603375
21.566667	1	0.592750
21.583333	1	0.583250
21.600000	1	0.575000
21.616667	1	0.568375
21.633333	1	0.562875
21.650000	1	0.559500
21.666667	1	0.557625
21.683333	1	0.557000
21.700000	1	0.557875
21.716667	1	0.559375
21.733333	1	0.562500
21.750000	1	0.568125
21.766667	1	0.574875
21.783333	1	0.582750
21.800000	1	0.592500
21.816667	1	0.603750
21.833333	1	0.615750
21.850000	1	0.629500
21.866667	1	0.643500
21.883333	1	0.659000
21.900000	1	0.675000
21.916667	1	0.691375
21.933333	1	0.708125
21.950000	1	0.725125
21.966667	1	0.742000
21.983333	1	0.758500
22.000000	1	0.774125
22.016667	1	0.788125
22.033333	1	0.801250
22.050000	1	0.812500
22.066667	1	0.821125
22.083333	1	0.828125
22.100000	1	0.832875
22.116667	1	0.835500
22.133333	1	0.836625
22.150000	1	0.835625
22.166667	1	0.832375
22.183333	1	0.826625
22.200000	1	0.819125
22.216667	1	0.810000
22.233333	1	0.799750
22.250000	1	0.788125
22.266667	1	0.775375
22.283333	1	0.762375
22.300000	1	0.748250
22.316667	1	0.734625
22.333333	1	0.720875
22.350000	1	0.707125
22.366667	1	0.693625
22.383333	1	0.680500
22.400000	1	0.666875
22.416667	1	0.655875
22.433333	1	0.644250
22.450000	1	0.633750
22.466667	1	0.624000
22.483333	1	0.615125
22.500000	1	0.607250
22.516667	1	0.600000
22.533333	1	0.593250
22.550000	1	0.587500
22.566667	1	0.582750
22.583333	1	0.578250
22.600000	1	0.574625
22.616667	1	0.571875
22.633333	1	0.568875
22.650000	1	0.566125
22.666667	1	0.564750
22.683333	1	0.563125
22.700000	1	0.562000
22.716667	1	0.560875
22.733333	1	0.559375
22.750000	1	0.558375
22.766667	1	0.557625
22.783333	1	0.556875
22.800000	1	0.555500
22.816667	1	0.554250
22.833333	1	0.552750
22.850000	1	0.552000
22.866667	1	0.550625
22.883333	1	0.548125
22.900000	1	0.547000
22.916667	1	0.544250
22.933333	1	0.542875
22.950000	1	0.540375
22.966667	1	0.538000
22.983333	1	0.535875
23.000000	1	0.533875
23.016667	1	0.532000
23.033333	1	0.530875
23.050000	1	0.529875
23.066667	1	0.529500
23.083333	1	0.529750
23.100000	1	0.530625
23.116667	1	0.531125
23.133333	1	0.532750
23.150000	1	0.535875
23.166667	1	0.540500
23.183333	1	0.545625
23.200000	1	0.552000
23.216667	1	0.559625
23.233333	1	0.568625
23.250000	1	0.579125
23.266667	1	0.591125
23.283333	1	0.604750
23.300000	1	0.620250
23.316667	1	0.636750
23.333333	1	0.655625
23.350000	1	0.676875
23.366667	1	0.700125
23.383333	1	0.725750
23.400000	1	0.753250
23.416667	1	0.782875
23.433333	1	0.815375
23.450000	1	0.851125
23.466667	1	0.889000
23.483333	1	0.929625
23.500000	1	0.973875
23.516667	1	1.022375
23.533333	1	1.074000
23.550000	1	1.131000
23.566667	1	1.193250
23.583333	1	1.260125
23.600000	1	1.332250
23.616667	1	1.410750
23.633333	1	1.495750
23.650000	1	1.587625
23.666667	1	1.686500
23.683333	1	1.791875
23.700000	1	1.904250
23.716667	1	2.024000
23.733333	1	2.150250
23.750000	1	2.281750
23.766667	1	2.417500
23.783333	1	2.556625
23.800000	1	2.698125
23.816667	1	2.839500
23.833333	1	2.979000
23.850000	1	3.114250
23.866667	1	3.244000
23.883333	1	3.366500
23.900000	1	3.479750
23.916667	1	3.581250
23.933333	1	3.669375
23.950000	1	3.744000
23.966667	1	3.802750
23.983333	1	3.845250
24.000000	1	3.871500
24.016667	1	3.880875
24.033333	1	3.873375
24.050000	1	3.850000
24.066667	1	3.811000
24.083333	1	3.758625
24.100000	1	3.692375
24.116667	1	3.614500
24.133333	1	3.527125
24.150000	1	3.430500
24.166667	1	3.326375
24.183333	1	3.215750
24.200000	1	3.100875
24.216667	1	2.983375
24.233333	1	2.863750
24.250000	1	2.743375
24.266667	1	2.623750
24.283333	1	2.505125
24.300000	1	2.388875
24.316667	1	2.275375
24.333333	1	2.166125
24.350000	1	2.060250
24.366667	1	1.958875
24.383333	1	1.862500
24.400000	1	1.770875
24.416667	1	1.684250
24.433333	1	1.602500
24.450000	1	1.525500
24.466667	1	1.454125
24.483333	1	1.386625
24.500000	1	1.324750
24.516667	1	1.266750
24.533333	1	1.213500
24.550000	1	1.163875
24.566667	1	1.117375
24.583333	1	1.075375
24.600000	1	1.036000
24.616667	1	1.000750
24.633333	1	0.966875
24.650000	1	0.935375
24.666667	1	0.906500
24.683333	1	0.879250
24.700000	1	0.854250
24.716667	1	0.830250
24.733333	1	0.808250
24.750000	1	0.786875
24.766667	1	0.766375
24.783333	1	0.746500
24.800000	1	0.727250
24.816667	1	0.708875
24.833333	1	0.690875
24.850000	1	0.673125
24.866667	1	0.656000
24.883333	1	0.639500
24.900000	1	0.623250
24.916667	1	0.607375
24.933333	1	0.591500
24.950000	1	0.576500
24.966667	1	0.562000
24.983333	1	0.547875
25.000000	1	0.534125
25.016667	1	0.520500
25.033333	1	0.507625
25.050000	1	0.495750
25.066667	1	0.483500
25.083333	1	0.472000
25.100000	1	0.460875
25.116667	1	0.450500
25.133333	1	0.441375
25.150000	1	0.432500
25.166667	1	0.424125
25.183333	1	0.416625
25.200000	1	0.409250
25.216667	1	0.402750
25.233333	1	0.396500
25.250000	1	0.391000
25.266667	1	0.386375
25.283333	1	0.381875
25.300000	1	0.378000
25.316667	1	0.374000
25.333333	1	0.371000
25.350000	1	0.368000
25.366667	1	0.365375
25.383333	1	0.363375
25.400000	1	0.361625
25.416667	1	0.360500
25.433333	1	0.359250
25.450000	1	0.358500
25.466667	1	0.357875
25.483333	1	0.357625
25.500000	1	0.357375
25.516667	1	0.356500
25.533333	1	0.356750
25.550000	1	0.357000
25.566667	1	0.357125
25.583333	1	0.357250
25.600000	1	0.357125
25.616667	1	0.357125
25.633333	1	0.357250
25.650000	1	0.357250
25.666667	1	0.357750
25.683333	1	0.358375
25.700000	1	0.358750
25.716667	1	0.358750
25.733333	1	0.358750
25.750000	1	0.358875
25.766667	1	0.359000
25.783333	1	0.359125
25.800000	1	0.358875
25.816667	1	0.358750
25.833333	1	0.359125
25.850000	1	0.359625
25.866667	1	0.359500
25.883333	1	0.359750
25.900000	1	0.359375
25.916667	1	0.359750
25.933333	1	0.359125
25.950000	1	0.359000
25.966667	1	0.359375
25.983333	1	0.359500
26.000000	1	0.359000
26.016667	1	0.358875
26.033333	1	0.358250
26.050000	1	0.358000
26.066667	1	0.357625
26.083333	1	0.357875
26.100000	1	0.357750
26.116667	1	0.357500
26.133333	1	0.356875
26.150000	1	0.357125
26.166667	1	0.357250
26.183333	1	0.357500
26.200000	1	0.358125
26.216667	1	0.357875
26.233333	1	0.358500
26.250000	1	0.358875
26.266667	1	0.359875
26.283333	1	0.359625
26.300000	1	0.361625
26.316667	1	0.362875
26.333333	1	0.363625
26.350000	1	0.365000
26.366667	1	0.366500
26.383333	1	0.368125
26.400000	1	0.369250
26.416667	1	0.370000
26.433333	1	0.372250
26.450000	1	0.373750
26.466667	1	0.375000
26.483333	1	0.376500
26.500000	1	0.377500
26.516667	1	0.378375
26.533333	1	0.379250
26.550000	1	0.379625
26.566667	1	0.380000
26.583333	1	0.380750
26.600000	1	0.379875
26.616667	1	0.379875
26.633333	1	0.379125
26.650000	1	0.378125
26.666667	1	0.376625
26.683333	1	0.375250
26.700000	1	0.373500
26.716667	1	0.371750
26.733333	1	0.369500
26.750000	1	0.366625
26.766667	1	0.363375
26.783333	1	0.360375
26.800000	1	0.357250
26.816667	1	0.354000
26.833333	1	0.350875
26.850000	1	0.347500
26.866667	1	0.344500
26.883333	1	0.341625
26.900000	1	0.338625
26.916667	1	0.336375
26.933333	1	0.334750
26.950000	1	0.332375
26.966667	1	0.330625
26.983333	1	0.329625
27.000000	1	0.329250
27.016667	1	0.328625
27.033333	1	0.328875
27.050000	1	0.329750
27.066667	1	0.331375
27.083333	1	0.333375
27.100000	1	0.336125
27.116667	1	0.339875
27.133333	1	0.343875
27.150000	1	0.348875
27.166667	1	0.354750
27.183333	1	0.361875
27.200000	1	0.369750
27.216667	1	0.378500
27.233333	1	0.387500
27.250000	1	0.397625
27.266667	1	0.408875
27.283333	1	0.420750
27.300000	1	0.433625
27.316667	1	0.448000
27.333333	1	0.463250
27.350000	1	0.480750
27.366667	1	0.498250
27.383333	1	0.517125
27.400000	1	0.536875
27.416667	1	0.557625
27.433333	1	0.580125
27.450000	1	0.604125
27.466667	1	0.630000
27.483333	1	0.657750
27.500000	1	0.686375
27.516667	1	0.716625
27.533333	1	0.748875
27.550000	1	0.783375
27.566667	1	0.820125
27.583333	1	0.860250
27.600000	1	0.902250
27.616667	1	0.947500
27.633333	1	0.996250
27.650000	1	1.048875
27.666667	1	1.105125
27.683333	1	1.166125
27.700000	1	1.231500
27.716667	1	1.301000
27.733333	1	1.375750
27.750000	1	1.454875
27.766667	1	1.538500
27.783333	1	1.628125
27.800000	1	1.722750
27.816667	1	1.821250
27.833333	1	1.924125
27.850000	1	2.031125
27.866667	1	2.141375
27.883333	1	2.254875
27.900000	1	2.369500
27.916667	1	2.485750
27.933333	1	2.602250
27.950000	1	2.717125
27.966667	1	2.829875
27.983333	1	2.939375
28.000000	1	3.044000
28.016667	1	3.143125
28.033333	1	3.235000
28.050000	1	3.319125
28.066667	1	3.393625
28.083333	1	3.458375
28.100000	1	3.512125
28.116667	1	3.553750
28.133333	1	3.582625
28.150000	1	3.598375
28.166667	1	3.600875
28.183333	1	3.590125
28.200000	1	3.566375
28.216667	1	3.530000
28.233333	1	3.481375
28.250000	1	3.420875
28.266667	1	3.349000
28.283333	1	3.266500
28.300000	1	3.174750
28.316667	1	3.074000
28.333333	1	2.966250
28.350000	1	2.852375
28.366667	1	2.733625
28.383333	1	2.610375
28.400000	1	2.484125
28.416667	1	2.356500
28.433333	1	2.227625
28.450000	1	2.098375
28.466667	1	1.969000
28.483333	1	1.841000
28.500000	1	1.714625
28.516667	1	1.591375
28.533333	1	1.470625
28.550000	1	1.353125
28.566667	1	1.239625
28.583333	1	1.129125
28.600000	1	1.022750
28.616667	1	0.921250
28.633333	1	0.823500
28.650000	1	0.730125
28.666667	1	0.640375
28.683333	1	0.554375
28.700000	1	0.472250
28.716667	1	0.394375
28.733333	1	0.320250
28.750000	1	0.249125
28.766667	1	0.181750
28.783333	1	0.117875
28.800000	1	0.057625
28.816667	1	0.000875
28.833333	1	-0.052750
28.850000	1	-0.103250
28.866667	1	-0.150125
28.883333	1	-0.193625
28.900000	1	-0.235000
28.916667	1	-0.272500
28.933333	1	-0.308125
28.950000	1	-0.339750
28.966667	1	-0.368125
28.983333	1	-0.393375
29.000000	1	-0.415500
29.016667	1	-0.434875
29.033333	1	-0.451125
29.050000	1	-0.463625
29.066667	1	-0.473500
29.083333	1	-0.480250
29.100000	1	-0.484000
29.116667	1	-0.485125
29.133333	1	-0.482750
29.150000	1	-0.477750
29.166667	1	-0.470375
29.183333	1	-0.460375
29.200000	1	-0.447875
29.216667	1	-0.433500
29.233333	1	-0.417500
29.250000	1	-0.398250
29.266667	1	-0.377000
29.283333	1	-0.354125
29.300000	1	-0.329875
29.316667	1	-0.304250
29.333333	1	-0.277375
29.350000	1	-0.250750
29.366667	1	-0.222625
29.383333	1	-0.193000
29.400000	1	-0.163625
29.416667	1	-0.133625
29.433333	1	-0.103000
29.450000	1	-0.072000
29.466667	1	-0.041875
29.483333	1	-0.012500
29.500000	1	0.017375
29.516667	1	0.047875
29.533333	1	0.077125
29.550000	1	0.105000
29.566667	1	0.133000
29.583333	1	0.160875
29.600000	1	0.186625
29.616667	1	0.211125
29.633333	1	0.235375
29.650000	1	0.259000
29.666667	1	0.280875
29.683333	1	0.302125
29.700000	1	0.322375
29.716667	1	0.341125
29.733333	1	0.358875
29.750000	1	0.375500
29.766667	1	0.391500
29.783333	1	0.405500
29.800000	1	0.419125
29.816667	1	0.431375
29.833333	1	0.442750
29.850000	1	0.452625
29.866667	1	0.462250
29.883333	1	0.470875
29.900000	1	0.478250
29.916667	1	0.485125
29.933333	1	0.491125
29.950000	1	0.496875
29.966667	1	0.501750
29.983333	1	0.506125
30.000000	1	0.509875
30.016667	1	0.513375
30.033333	1	0.516625
30.050000	1	0.519250
30.066667	1	0.521875
30.083333	1	0.524125
30.100000	1	0.526375
30.116667	1	0.529000
30.133333	1	0.531625
30.150000	1	0.534125
30.166667	1	0.536500
30.183333	1	0.538875
30.200000	1	0.542125
30.216667	1	0.546000
30.233333	1	0.549125
30.250000	1	0.553125
30.266667	1	0.557625
30.283333	1	0.562500
30.300000	1	0.567500
30.316667	1	0.572750
30.333333	1	0.578750
30.350000	1	0.586000
30.366667	1	0.593125
30.383333	1	0.600875
30.400000	1	0.609625
30.416667	1	0.618750
30.433333	1	0.629000
30.450000	1	0.640125
30.466667	1	0.651875
30.483333	1	0.665000
30.500000	1	0.678750
30.516667	1	0.693625
30.533333	1	0.709875
30.550000	1	0.727000
30.566667	1	0.745875
30.583333	1	0.766000
30.600000	1	0.786750
30.616667	1	0.809000
30.633333	1	0.832250
30.650000	1	0.857875
30.666667	1	0.883875
30.683333	1	0.911125
30.700000	1	0.939875
30.716667	1	0.968500
30.733333	1	0.997625
30.750000	1	1.027500
30.766667	1	1.058125
30.783333	1	1.088375
30.800000	1	1.118250
30.816667	1	1.147875
30.833333	1	1.176375
30.850000	1	1.205000
30.866667	1	1.231000
30.883333	1	1.255500
30.900000	1	1.277750
30.916667	1	1.297750
30.933333	1	1.315375
30.950000	1	1.330500
30.966667	1	1.342125
30.983333	1	1.351500
31.000000	1	1.358000
31.016667	1	1.360875
31.033333	1	1.360750
31.050000	1	1.356375
31.066667	1	1.350000
31.083333	1	1.340250
31.100000	1	1.327375
31.116667	1	1.310750
31.133333	1	1.291500
31.150000	1	1.270125
31.166667	1	1.246875
31.183333	1	1.220625
31.200000	1	1.193000
31.216667	1	1.163875
31.233333	1	1.133125
31.250000	1	1.101375
31.266667	1	1.068500
31.283333	1	1.035250
31.300000	1	1.000875
31.316667	1	0.967250
31.333333	1	0.932875
31.350000	1	0.899375
31.366667	1	0.866250
31.383333	1	0.834000
31.400000	1	0.803125
31.416667	1	0.771875
31.433333	1	0.741750
31.450000	1	0.712125
31.466667	1	0.684375
31.483333	1	0.658000
31.500000	1	0.632625
31.516667	1	0.608125
31.533333	1	0.584750
31.550000	1	0.562875
31.566667	1	0.543000
31.583333	1	0.524500
31.600000	1	0.507125
31.616667	1	0.490750
31.633333	1	0.476000
31.650000	1	0.462500
31.666667	1	0.449625
31.683333	1	0.437500
31.700000	1	0.426750
31.716667	1	0.417125
31.733333	1	0.408625
31.750000	1	0.400875
31.766667	1	0.394250
31.783333	1	0.388250
31.800000	1	0.383125
31.816667	1	0.378625
31.833333	1	0.375000
31.850000	1	0.371875
31.866667	1	0.369750
31.883333	1	0.367750
31.900000	1	0.366625
31.916667	1	0.365500
31.933333	1	0.365250
31.950000	1	0.365125
31.966667	1	0.365500
31.983333	1	0.366125
32.000000	1	0.366875
32.016667	1	0.368500
32.033333	1	0.369875
32.050000	1	0.370875
32.066667	1	0.372250
32.083333	1	0.373625
32.100000	1	0.374875
32.116667	1	0.375000
32.133333	1	0.376000
32.150000	1	0.376250
32.166667	1	0.376500
32.183333	1	0.377500
32.200000	1	0.377500
32.216667	1	0.377500
32.233333	1	0.376500
32.250000	1	0.375625
32.266667	1	0.374375
32.283333	1	0.372875
32.300000	1	0.371000
32.316667	1	0.368625
32.333333	1	0.366375
32.350000	1	0.363875
32.366667	1	0.361125
32.383333	1	0.357625
32.400000	1	0.353750
32.416667	1	0.350875
32.433333	1	0.346625
32.450000	1	0.342125
32.466667	1	0.337125
32.483333	1	0.332875
32.500000	1	0.328250
32.516667	1	0.323125
32.533333	1	0.317500
32.550000	1	0.312000
32.566667	1	0.306500
32.583333	1	0.301000
32.600000	1	0.295375
32.616667	1	0.289875
32.633333	1	0.283875
32.650000	1	0.277250
32.666667	1	0.270625
32.683333	1	0.264250
32.700000	1	0.257250
32.716667	1	0.251125
32.733333	1	0.244750
32.750000	1	0.237500
32.766667	1	0.231250
32.783333	1	0.224375
32.800000	1	0.218000
32.816667	1	0.211125
32.833333	1	0.204250
32.850000	1	0.197750
32.866667	1	0.191625
32.883333	1	0.185500
32.900000	1	0.179250
32.916667	1	0.172625
32.933333	1	0.166500
32.950000	1	0.160375
32.966667	1	0.155000
32.983333	1	0.149125
33.000000	1	0.144000
33.016667	1	0.139125
33.033333	1	0.134375
33.050000	1	0.129875
33.066667	1	0.125875
33.083333	1	0.121375
33.100000	1	0.117625
33.116667	1	0.113625
33.133333	1	0.110375
33.150000	1	0.107375
33.166667	1	0.104125
33.183333	1	0.101500
33.200000	1	0.098875
33.216667	1	0.097250
33.233333	1	0.094875
33.250000	1	0.092750
33.266667	1	0.090500
33.283333	1	0.089000
33.300000	1	0.088000
33.316667	1	0.086875
33.333333	1	0.086500
33.350000	1	0.086000
33.366667	1	0.085750
33.383333	1	0.085625
33.400000	1	0.084625
33.416667	1	0.085000
33.433333	1	0.086125
33.450000	1	0.087000
33.466667	1	0.087375
33.483333	1	0.089000
33.500000	1	0.090250
33.516667	1	0.091375
33.533333	1	0.093375
33.550000	1	0.095375
33.566667	1	0.097375
33.583333	1	0.099750
33.600000	1	0.102500
33.616667	1	0.105500
33.633333	1	0.107625
33.650000	1	0.110750
33.666667	1	0.113625
33.683333	1	0.117125
33.700000	1	0.120625
33.716667	1	0.124500
33.733333	1	0.128375
33.750000	1	0.133000
33.766667	1	0.137375
33.783333	1	0.142250
33.800000	1	0.147625
33.816667	1	0.153125
33.833333	1	0.158875
33.850000	1	0.165625
33.866667	1	0.171750
33.883333	1	0.178750
33.900000	1	0.186375
33.916667	1	0.195000
33.933333	1	0.203500
33.950000	1	0.212875
33.966667	1	0.222500
33.983333	1	0.233375
34.000000	1	0.244375
34.016667	1	0.256875
34.033333	1	0.270125
34.050000	1	0.282625
34.066667	1	0.296875
34.083333	1	0.311250
34.100000	1	0.325875
34.116667	1	0.340875
34.133333	1	0.356000
34.150000	1	0.371500
34.166667	1	0.387500
34.183333	1	0.404125
34.200000	1	0.420875
34.216667	1	0.436625
34.233333	1	0.452125
34.250000	1	0.467750
34.266667	1	0.483375
34.283333	1	0.498125
34.300000	1	0.511875
34.316667	1	0.525625
34.333333	1	0.538000
34.350000	1	0.549625
34.366667	1	0.559500
34.383333	1	0.568375
34.400000	1	0.575375
34.416667	1	0.582000
34.433333	1	0.586875
34.450000	1	0.591000
34.466667	1	0.593125
34.483333	1	0.593750
34.500000	1	0.592875
34.516667	1	0.590500
34.533333	1	0.586125
34.550000	1	0.581625
34.566667	1	0.575500
34.583333	1	0.569000
34.600000	1	0.560625
34.616667	1	0.551250
34.633333	1	0.541375
34.650000	1	0.530250
34.666667	1	0.518500
34.683333	1	0.506000
34.700000	1	0.492875
34.716667	1	0.479625
34.733333	1	0.466500
34.750000	1	0.452125
34.766667	1	0.437375
34.783333	1	0.423500
34.800000	1	0.409750
34.816667	1	0.396000
34.833333	1	0.381875
34.850000	1	0.368250
34.866667	1	0.355500
34.883333	1	0.342375
34.900000	1	0.329750
34.916667	1	0.316750
34.933333	1	0.305375
34.950000	1	0.294000
34.966667	1	0.283625
34.983333	1	0.274375
35.000000	1	0.264875
35.016667	1	0.255750
35.033333	1	0.247125
35.050000	1	0.239000
35.066667	1	0.231750
35.083333	1	0.225000
35.100000	1	0.218250
35.116667	1	0.212000
35.133333	1	0.207250
35.150000	1	0.202875
35.166667	1	0.197750
35.183333	1	0.194000
35.200000	1	0.190875
35.216667	1	0.188000
35.233333	1	0.185500
35.250000	1	0.183500
35.266667	1	0.182000
35.283333	1	0.180625
35.300000	1	0.179250
35.316667	1	0.177875
35.333333	1	0.177625
35.350000	1	0.177625
35.366667	1	0.177750
35.383333	1	0.178250
35.400000	1	0.178500
35.416667	1	0.179125
35.433333	1	0.180250
35.450000	1	0.181250
35.466667	1	0.182250
35.483333	1	0.183250
35.500000	1	0.184375
35.516667	1	0.185500
35.533333	1	0.187000
35.550000	1	0.187750
35.566667	1	0.189125
35.583333	1	0.189625
35.600000	1	0.191125
35.616667	1	0.192375
35.633333	1	0.193375
35.650000	1	0.194625
35.666667	1	0.196125
35.683333	1	0.196750
35.700000	1	0.197250
35.716667	1	0.198000
35.733333	1	0.198125
35.750000	1	0.199250
35.766667	1	0.199875
35.783333	1	0.200875
35.800000	1	0.200750
35.816667	1	0.201000
35.833333	1	0.201125
35.850000	1	0.201000
35.866667	1	0.200750
35.883333	1	0.200750
35.900000	1	0.200000
35.916667	1	0.199750
35.933333	1	0.200000
35.950000	1	0.199750
35.966667	1	0.200000
35.983333	1	0.199625
36.000000	1	0.199500
36.016667	1	0.199125
36.033333	1	0.199000
36.050000	1	0.198875
36.066667	1	0.198750
36.083333	1	0.198375
36.100000	1	0.198000
36.116667	1	0.197000
36.133333	1	0.197000
36.150000	1	0.196625
36.166667	1	0.196875
36.183333	1	0.196625
36.200000	1	0.196750
36.216667	1	0.196375
36.233333	1	0.196375
36.250000	1	0.195750
36.266667	1	0.195250
36.283333	1	0.195125
36.300000	1	0.195125
36.316667	1	0.194250
36.333333	1	0.194500
36.350000	1	0.193750
36.366667	1	0.192875
36.383333	1	0.192375
36.400000	1	0.191750
36.416667	1	0.191125
36.433333	1	0.190375
36.450000	1	0.189750
36.466667	1	0.187750
36.483333	1	0.186375
36.500000	1	0.185000
36.516667	1	0.184250
36.533333	1	0.183000
36.550000	1	0.181750
36.566667	1	0.180375
36.583333	1	0.179000
36.600000	1	0.177250
36.616667	1	0.176250
36.633333	1	0.174500
36.650000	1	0.172750
36.666667	1	0.171375
36.683333	1	0.169875
36.700000	1	0.167750
36.716667	1	0.166250
36.733333	1	0.164375
36.750000	1	0.162625
36.766667	1	0.160625
36.783333	1	0.158625
36.800000	1	0.156750
36.816667	1	0.154750
36.833333	1	0.152875
36.850000	1	0.150375
36.866667	1	0.147625
36.883333	1	0.145625
36.900000	1	0.143125
36.916667	1	0.140500
36.933333	1	0.137625
36.950000	1	0.135250
36.966667	1	0.132125
36.983333	1	0.129125
37.000000	1	0.126000
37.016667	1	0.123500
37.033333	1	0.120500
37.050000	1	0.116875
37.066667	1	0.113375
37.083333	1	0.110500
37.100000	1	0.107250
37.116667	1	0.104500
37.133333	1	0.100875
37.150000	1	0.097625
37.166667	1	0.094625
37.183333	1	0.091125
37.200000	1	0.087750
37.216667	1	0.084000
37.233333	1	0.080000
37.250000	1	0.076250
37.266667	1	0.072875
37.283333	1	0.069750
37.300000	1	0.067625
37.316667	1	0.063750
37.333333	1	0.060125
37.350000	1	0.057125
37.366667	1	0.053625
37.383333	1	0.050500
37.400000	1	0.047250
37.416667	1	0.044375
37.433333	1	0.041250
37.450000	1	0.038875
37.466667	1	0.036375
37.483333	1	0.034625
37.500000	1	0.032250
37.516667	1	0.029875
37.533333	1	0.028125
37.550000	1	0.025750
37.566667	1	0.024375
37.583333	1	0.022500
37.600000	1	0.021500
37.616667	1	0.020000
37.633333	1	0.018500
37.650000	1	0.017375
37.666667	1	0.016625
37.683333	1	0.015750
37.700000	1	0.015125
37.716667	1	0.014125
37.733333	1	0.012875
37.750000	1	0.012000
37.766667	1	0.011250
37.783333	1	0.011500
37.800000	1	0.011750
37.816667	1	0.011500
37.833333	1	0.010750
37.850000	1	0.010625
37.866667	1	0.010625
37.883333	1	0.010625
37.900000	1	0.010625
37.916667	1	0.011625
37.933333	1	0.011875
37.950000	1	0.012500
37.966667	1	0.013125
37.983333	1	0.013625
38.000000	1	0.014375
38.016667	1	0.014875
38.033333	1	0.015000
38.050000	1	0.015625
38.066667	1	0.016875
38.083333	1	0.017875
38.100000	1	0.019625
38.116667	1	0.020875
38.133333	1	0.022250
38.150000	1	0.023500
38.166667	1	0.024500
38.183333	1	0.025500
38.200000	1	0.027250
38.216667	1	0.028250
38.233333	1	0.029625
38.250000	1	0.031250
38.266667	1	0.032750
38.283333	1	0.034625
38.300000	1	0.035750
38.316667	1	0.037375
38.333333	1	0.038250
38.350000	1	0.039625
38.366667	1	0.040875
38.383333	1	0.042250
38.400000	1	0.044250
38.416667	1	0.045625
38.433333	1	0.046625
38.450000	1	0.047375
38.466667	1	0.048625
38.483333	1	0.049375
38.500000	1	0.049875
38.516667	1	0.049625
38.533333	1	0.050500
38.550000	1	0.051250
38.566667	1	0.051875
38.583333	1	0.052750
38.600000	1	0.053125
38.616667	1	0.053375
38.633333	1	0.054125
38.650000	1	0.054625
38.666667	1	0.054750
38.683333	1	0.054750
38.700000	1	0.054500
38.716667	1	0.054125
38.733333	1	0.053500
38.750000	1	0.053125
38.766667	1	0.052500
38.783333	1	0.052000
38.800000	1	0.051625
38.816667	1	0.051625
38.833333	1	0.050750
38.850000	1	0.050125
38.866667	1	0.049750
38.883333	1	0.049250
38.900000	1	0.048625
38.916667	1	0.048000
38.933333	1	0.047250
38.950000	1	0.046750
38.966667	1	0.045500
38.983333	1	0.044125
39.000000	1	0.044250
39.016667	1	0.043000
39.033333	1	0.042500
39.050000	1	0.041125
39.066667	1	0.040125
39.083333	1	0.039500
39.100000	1	0.039125
39.116667	1	0.038500
39.133333	1	0.038000
39.150000	1	0.037000
39.166667	1	0.037250
39.183333	1	0.036750
39.200000	1	0.036625
39.216667	1	0.035750
39.233333	1	0.035375
39.250000	1	0.034875
39.266667	1	0.034750
39.283333	1	0.034250
39.300000	1	0.033875
39.316667	1	0.033750
39.333333	1	0.033375
39.350000	1	0.033125
39.366667	1	0.032875
39.383333	1	0.033625
39.400000	1	0.032750
39.416667	1	0.032375
39.433333	1	0.032000
39.450000	1	0.031375
39.466667	1	0.031250
39.483333	1	0.030375
39.500000	1	0.030375
39.516667	1	0.030500
39.533333	1	0.030500
39.550000	1	0.030625
39.566667	1	0.030500
39.583333	1	0.030375
39.600000	1	0.029875
39.616667	1	0.029500
39.633333	1	0.028375
39.650000	1	0.028500
39.666667	1	0.028750
39.683333	1	0.029000
39.700000	1	0.028375
39.716667	1	0.028875
39.733333	1	0.028750
39.750000	1	0.028750
39.766667	1	0.028625
39.783333	1	0.029125
39.800000	1	0.029125
39.816667	1	0.028750
39.833333	1	0.029375
39.850000	1	0.029875
39.866667	1	0.030375
39.883333	1	0.031125
39.900000	1	0.031625
39.916667	1	0.032625
39.933333	1	0.033375
39.950000	1	0.034250
39.966667	1	0.035000
39.983333	1	0.035500
40.000000	1	0.036625
