File Path	chrom://marshall/Chromeleon7/HPLC_Ultimate_3000/Users/markusar/20230616_CMO_FP13_14_15.seq/174.smp/RI_1.channel/RI_1.chm
Channel	RI_1

Injection Information:
Data Vault	Chromeleon7
Injection	FP14_4.2_s7
Injection Number	25
Position	BE6
Comment	
Processing Method	
Instrument Method	run_25B_method
Type	Unknown
Status	Finished
Injection Date	17.06.2023
Injection Time	08:51:58
Injection Volume (µl)	20.000
Dilution Factor	1.0000
Weight	1.0000

Chromatogram Data Information:
Time Min. (min)	0.000000
Time Max. (min)	40.000000
Data Points	2401
Detector	RI
Generating Data System	Chromeleon 7.2.5.9507
Exporting Data System	Chromeleon 7.2.5.0
Operator	Instrument Controller
Signal Quantity	Refractive 
Signal Unit	µRIU
Signal Min.	-0.407125
Signal Max.	47.356500
Channel	RI_1
Driver Name	RID520Driver.dll
Channel Type	Evaluation
Min. Step (s)	1
Max. Step (s)	1
Average Step (s)	1

Signal Parameter Information:
Signal Info	

Chromatogram Data:
Time (min)	Step (s)	Value (µRIU)
0.000000	n.a.	-0.044000
0.016667	1	-0.045375
0.033333	1	-0.046500
0.050000	1	-0.047750
0.066667	1	-0.049000
0.083333	1	-0.050125
0.100000	1	-0.050375
0.116667	1	-0.050875
0.133333	1	-0.050875
0.150000	1	-0.050875
0.166667	1	-0.050875
0.183333	1	-0.050625
0.200000	1	-0.051125
0.216667	1	-0.051250
0.233333	1	-0.051625
0.250000	1	-0.051500
0.266667	1	-0.051625
0.283333	1	-0.051625
0.300000	1	-0.051250
0.316667	1	-0.050750
0.333333	1	-0.049625
0.350000	1	-0.049125
0.366667	1	-0.048750
0.383333	1	-0.047500
0.400000	1	-0.047375
0.416667	1	-0.047500
0.433333	1	-0.048750
0.450000	1	-0.050250
0.466667	1	-0.052000
0.483333	1	-0.052500
0.500000	1	-0.050500
0.516667	1	-0.047750
0.533333	1	-0.044125
0.550000	1	-0.040625
0.566667	1	-0.036375
0.583333	1	-0.033875
0.600000	1	-0.030125
0.616667	1	-0.027125
0.633333	1	-0.025000
0.650000	1	-0.023625
0.666667	1	-0.023625
0.683333	1	-0.024375
0.700000	1	-0.025125
0.716667	1	-0.026125
0.733333	1	-0.027000
0.750000	1	-0.027375
0.766667	1	-0.027750
0.783333	1	-0.028125
0.800000	1	-0.028750
0.816667	1	-0.028375
0.833333	1	-0.028250
0.850000	1	-0.028250
0.866667	1	-0.028750
0.883333	1	-0.029125
0.900000	1	-0.028875
0.916667	1	-0.028500
0.933333	1	-0.028625
0.950000	1	-0.028625
0.966667	1	-0.028125
0.983333	1	-0.028125
1.000000	1	-0.027750
1.016667	1	-0.028500
1.033333	1	-0.028625
1.050000	1	-0.027500
1.066667	1	-0.027625
1.083333	1	-0.027375
1.100000	1	-0.027500
1.116667	1	-0.028000
1.133333	1	-0.028375
1.150000	1	-0.028875
1.166667	1	-0.028875
1.183333	1	-0.029375
1.200000	1	-0.029250
1.216667	1	-0.030125
1.233333	1	-0.030375
1.250000	1	-0.030125
1.266667	1	-0.031000
1.283333	1	-0.031625
1.300000	1	-0.031125
1.316667	1	-0.031375
1.333333	1	-0.032000
1.350000	1	-0.032125
1.366667	1	-0.033000
1.383333	1	-0.034125
1.400000	1	-0.034000
1.416667	1	-0.034500
1.433333	1	-0.035000
1.450000	1	-0.036125
1.466667	1	-0.037625
1.483333	1	-0.038125
1.500000	1	-0.038875
1.516667	1	-0.039250
1.533333	1	-0.039625
1.550000	1	-0.040125
1.566667	1	-0.040250
1.583333	1	-0.041000
1.600000	1	-0.041625
1.616667	1	-0.041625
1.633333	1	-0.042375
1.650000	1	-0.042625
1.666667	1	-0.043125
1.683333	1	-0.043625
1.700000	1	-0.043750
1.716667	1	-0.043750
1.733333	1	-0.044250
1.750000	1	-0.044125
1.766667	1	-0.044125
1.783333	1	-0.044375
1.800000	1	-0.044500
1.816667	1	-0.044375
1.833333	1	-0.044000
1.850000	1	-0.043625
1.866667	1	-0.043750
1.883333	1	-0.043750
1.900000	1	-0.043375
1.916667	1	-0.042625
1.933333	1	-0.042000
1.950000	1	-0.042125
1.966667	1	-0.041750
1.983333	1	-0.041250
2.000000	1	-0.041250
2.016667	1	-0.040750
2.033333	1	-0.040500
2.050000	1	-0.039750
2.066667	1	-0.039000
2.083333	1	-0.038125
2.100000	1	-0.038125
2.116667	1	-0.037750
2.133333	1	-0.036250
2.150000	1	-0.036375
2.166667	1	-0.035375
2.183333	1	-0.034875
2.200000	1	-0.034250
2.216667	1	-0.033125
2.233333	1	-0.032625
2.250000	1	-0.031750
2.266667	1	-0.030875
2.283333	1	-0.029625
2.300000	1	-0.030375
2.316667	1	-0.029625
2.333333	1	-0.028625
2.350000	1	-0.028000
2.366667	1	-0.027500
2.383333	1	-0.027125
2.400000	1	-0.026875
2.416667	1	-0.025875
2.433333	1	-0.025500
2.450000	1	-0.025375
2.466667	1	-0.026125
2.483333	1	-0.025000
2.500000	1	-0.024375
2.516667	1	-0.023750
2.533333	1	-0.023375
2.550000	1	-0.022750
2.566667	1	-0.022750
2.583333	1	-0.022500
2.600000	1	-0.022500
2.616667	1	-0.023250
2.633333	1	-0.022625
2.650000	1	-0.022500
2.666667	1	-0.022500
2.683333	1	-0.022000
2.700000	1	-0.021250
2.716667	1	-0.021875
2.733333	1	-0.021875
2.750000	1	-0.022000
2.766667	1	-0.021625
2.783333	1	-0.021625
2.800000	1	-0.022000
2.816667	1	-0.021750
2.833333	1	-0.022250
2.850000	1	-0.022375
2.866667	1	-0.022875
2.883333	1	-0.022875
2.900000	1	-0.022500
2.916667	1	-0.021625
2.933333	1	-0.021250
2.950000	1	-0.021250
2.966667	1	-0.021125
2.983333	1	-0.021250
3.000000	1	-0.020750
3.016667	1	-0.021125
3.033333	1	-0.021500
3.050000	1	-0.021125
3.066667	1	-0.021000
3.083333	1	-0.020875
3.100000	1	-0.021125
3.116667	1	-0.020625
3.133333	1	-0.020500
3.150000	1	-0.020625
3.166667	1	-0.020500
3.183333	1	-0.019750
3.200000	1	-0.019500
3.216667	1	-0.019375
3.233333	1	-0.018875
3.250000	1	-0.018375
3.266667	1	-0.018750
3.283333	1	-0.018125
3.300000	1	-0.018125
3.316667	1	-0.018000
3.333333	1	-0.017500
3.350000	1	-0.017500
3.366667	1	-0.017125
3.383333	1	-0.017125
3.400000	1	-0.016625
3.416667	1	-0.016375
3.433333	1	-0.016625
3.450000	1	-0.016625
3.466667	1	-0.016125
3.483333	1	-0.016375
3.500000	1	-0.016500
3.516667	1	-0.016750
3.533333	1	-0.016625
3.550000	1	-0.015625
3.566667	1	-0.016000
3.583333	1	-0.016125
3.600000	1	-0.016250
3.616667	1	-0.016750
3.633333	1	-0.017500
3.650000	1	-0.018000
3.666667	1	-0.018375
3.683333	1	-0.018875
3.700000	1	-0.019125
3.716667	1	-0.019625
3.733333	1	-0.019625
3.750000	1	-0.019875
3.766667	1	-0.021125
3.783333	1	-0.022250
3.800000	1	-0.022500
3.816667	1	-0.023500
3.833333	1	-0.024125
3.850000	1	-0.024375
3.866667	1	-0.025000
3.883333	1	-0.026125
3.900000	1	-0.026000
3.916667	1	-0.026875
3.933333	1	-0.027500
3.950000	1	-0.028250
3.966667	1	-0.028625
3.983333	1	-0.029625
4.000000	1	-0.030375
4.016667	1	-0.031500
4.033333	1	-0.032250
4.050000	1	-0.033125
4.066667	1	-0.034125
4.083333	1	-0.034875
4.100000	1	-0.035625
4.116667	1	-0.035875
4.133333	1	-0.036625
4.150000	1	-0.037750
4.166667	1	-0.038250
4.183333	1	-0.039625
4.200000	1	-0.041125
4.216667	1	-0.041625
4.233333	1	-0.042875
4.250000	1	-0.044125
4.266667	1	-0.044625
4.283333	1	-0.045125
4.300000	1	-0.046125
4.316667	1	-0.046625
4.333333	1	-0.047000
4.350000	1	-0.047875
4.366667	1	-0.049750
4.383333	1	-0.051125
4.400000	1	-0.051500
4.416667	1	-0.052125
4.433333	1	-0.053250
4.450000	1	-0.054125
4.466667	1	-0.054625
4.483333	1	-0.055625
4.500000	1	-0.056875
4.516667	1	-0.057125
4.533333	1	-0.056875
4.550000	1	-0.057500
4.566667	1	-0.057625
4.583333	1	-0.058375
4.600000	1	-0.059500
4.616667	1	-0.059875
4.633333	1	-0.059875
4.650000	1	-0.060125
4.666667	1	-0.060250
4.683333	1	-0.060250
4.700000	1	-0.060250
4.716667	1	-0.060125
4.733333	1	-0.059750
4.750000	1	-0.059250
4.766667	1	-0.058625
4.783333	1	-0.058000
4.800000	1	-0.057375
4.816667	1	-0.057250
4.833333	1	-0.056125
4.850000	1	-0.055250
4.866667	1	-0.054500
4.883333	1	-0.053750
4.900000	1	-0.051500
4.916667	1	-0.050625
4.933333	1	-0.048750
4.950000	1	-0.047125
4.966667	1	-0.045375
4.983333	1	-0.044000
5.000000	1	-0.042500
5.016667	1	-0.040000
5.033333	1	-0.037500
5.050000	1	-0.034250
5.066667	1	-0.031625
5.083333	1	-0.029375
5.100000	1	-0.027125
5.116667	1	-0.024125
5.133333	1	-0.021250
5.150000	1	-0.018500
5.166667	1	-0.015625
5.183333	1	-0.011875
5.200000	1	-0.008375
5.216667	1	-0.004625
5.233333	1	-0.001125
5.250000	1	0.002375
5.266667	1	0.006000
5.283333	1	0.009625
5.300000	1	0.012625
5.316667	1	0.016875
5.333333	1	0.020250
5.350000	1	0.024250
5.366667	1	0.027625
5.383333	1	0.030750
5.400000	1	0.034500
5.416667	1	0.037750
5.433333	1	0.040375
5.450000	1	0.043500
5.466667	1	0.046875
5.483333	1	0.050000
5.500000	1	0.053375
5.516667	1	0.055875
5.533333	1	0.058750
5.550000	1	0.061125
5.566667	1	0.064000
5.583333	1	0.066750
5.600000	1	0.068750
5.616667	1	0.070125
5.633333	1	0.071625
5.650000	1	0.073875
5.666667	1	0.075625
5.683333	1	0.076625
5.700000	1	0.077375
5.716667	1	0.077625
5.733333	1	0.078875
5.750000	1	0.079375
5.766667	1	0.079875
5.783333	1	0.080000
5.800000	1	0.079500
5.816667	1	0.079500
5.833333	1	0.078875
5.850000	1	0.079125
5.866667	1	0.078375
5.883333	1	0.077500
5.900000	1	0.077000
5.916667	1	0.075750
5.933333	1	0.074000
5.950000	1	0.072250
5.966667	1	0.071250
5.983333	1	0.070250
6.000000	1	0.069000
6.016667	1	0.067500
6.033333	1	0.066125
6.050000	1	0.064625
6.066667	1	0.063000
6.083333	1	0.061750
6.100000	1	0.060500
6.116667	1	0.059375
6.133333	1	0.057500
6.150000	1	0.056125
6.166667	1	0.055375
6.183333	1	0.053500
6.200000	1	0.052000
6.216667	1	0.050875
6.233333	1	0.050000
6.250000	1	0.049000
6.266667	1	0.047500
6.283333	1	0.047000
6.300000	1	0.046625
6.316667	1	0.045625
6.333333	1	0.045000
6.350000	1	0.044000
6.366667	1	0.042875
6.383333	1	0.042125
6.400000	1	0.041375
6.416667	1	0.040750
6.433333	1	0.040125
6.450000	1	0.040125
6.466667	1	0.040750
6.483333	1	0.040625
6.500000	1	0.040875
6.516667	1	0.041000
6.533333	1	0.040625
6.550000	1	0.041125
6.566667	1	0.041875
6.583333	1	0.042250
6.600000	1	0.043250
6.616667	1	0.044500
6.633333	1	0.045125
6.650000	1	0.046500
6.666667	1	0.047750
6.683333	1	0.048500
6.700000	1	0.049875
6.716667	1	0.050750
6.733333	1	0.051750
6.750000	1	0.053250
6.766667	1	0.055250
6.783333	1	0.057250
6.800000	1	0.058875
6.816667	1	0.060500
6.833333	1	0.062500
6.850000	1	0.064000
6.866667	1	0.066125
6.883333	1	0.067375
6.900000	1	0.068625
6.916667	1	0.069875
6.933333	1	0.071875
6.950000	1	0.073500
6.966667	1	0.075125
6.983333	1	0.076625
7.000000	1	0.078250
7.016667	1	0.080000
7.033333	1	0.081875
7.050000	1	0.082750
7.066667	1	0.084125
7.083333	1	0.085375
7.100000	1	0.085375
7.116667	1	0.085500
7.133333	1	0.085750
7.150000	1	0.086125
7.166667	1	0.086250
7.183333	1	0.086875
7.200000	1	0.086000
7.216667	1	0.085500
7.233333	1	0.084625
7.250000	1	0.084625
7.266667	1	0.084250
7.283333	1	0.083250
7.300000	1	0.082000
7.316667	1	0.081000
7.333333	1	0.079375
7.350000	1	0.078375
7.366667	1	0.076750
7.383333	1	0.075125
7.400000	1	0.073500
7.416667	1	0.070750
7.433333	1	0.069500
7.450000	1	0.067375
7.466667	1	0.065500
7.483333	1	0.063625
7.500000	1	0.060875
7.516667	1	0.059000
7.533333	1	0.057125
7.550000	1	0.054875
7.566667	1	0.052500
7.583333	1	0.050000
7.600000	1	0.048000
7.616667	1	0.045625
7.633333	1	0.043375
7.650000	1	0.041375
7.666667	1	0.039750
7.683333	1	0.037500
7.700000	1	0.035750
7.716667	1	0.033875
7.733333	1	0.031750
7.750000	1	0.029875
7.766667	1	0.028000
7.783333	1	0.026500
7.800000	1	0.025000
7.816667	1	0.023375
7.833333	1	0.022000
7.850000	1	0.021000
7.866667	1	0.019375
7.883333	1	0.017625
7.900000	1	0.015875
7.916667	1	0.015125
7.933333	1	0.014250
7.950000	1	0.012750
7.966667	1	0.011375
7.983333	1	0.010250
8.000000	1	0.009000
8.016667	1	0.008375
8.033333	1	0.007250
8.050000	1	0.006500
8.066667	1	0.005875
8.083333	1	0.004250
8.100000	1	0.003500
8.116667	1	0.002250
8.133333	1	0.001000
8.150000	1	0.000000
8.166667	1	-0.000625
8.183333	1	-0.001625
8.200000	1	-0.002875
8.216667	1	-0.003375
8.233333	1	-0.004625
8.250000	1	-0.005500
8.266667	1	-0.006625
8.283333	1	-0.006750
8.300000	1	-0.007000
8.316667	1	-0.007375
8.333333	1	-0.008000
8.350000	1	-0.008500
8.366667	1	-0.008875
8.383333	1	-0.009375
8.400000	1	-0.009000
8.416667	1	-0.009000
8.433333	1	-0.008625
8.450000	1	-0.008500
8.466667	1	-0.008375
8.483333	1	-0.008125
8.500000	1	-0.007625
8.516667	1	-0.006500
8.533333	1	-0.006250
8.550000	1	-0.006125
8.566667	1	-0.005500
8.583333	1	-0.004750
8.600000	1	-0.004750
8.616667	1	-0.004250
8.633333	1	-0.003000
8.650000	1	-0.001500
8.666667	1	-0.000375
8.683333	1	0.000250
8.700000	1	0.001625
8.716667	1	0.002875
8.733333	1	0.003625
8.750000	1	0.004875
8.766667	1	0.007250
8.783333	1	0.008125
8.800000	1	0.009625
8.816667	1	0.011625
8.833333	1	0.013625
8.850000	1	0.015750
8.866667	1	0.018000
8.883333	1	0.019500
8.900000	1	0.021500
8.916667	1	0.023625
8.933333	1	0.025625
8.950000	1	0.027500
8.966667	1	0.029250
8.983333	1	0.031500
9.000000	1	0.034125
9.016667	1	0.035750
9.033333	1	0.038250
9.050000	1	0.040500
9.066667	1	0.042250
9.083333	1	0.044375
9.100000	1	0.046250
9.116667	1	0.047750
9.133333	1	0.049875
9.150000	1	0.051625
9.166667	1	0.053500
9.183333	1	0.054750
9.200000	1	0.056250
9.216667	1	0.058125
9.233333	1	0.059250
9.250000	1	0.060375
9.266667	1	0.061625
9.283333	1	0.063625
9.300000	1	0.064625
9.316667	1	0.065750
9.333333	1	0.066375
9.350000	1	0.068000
9.366667	1	0.069000
9.383333	1	0.070125
9.400000	1	0.071625
9.416667	1	0.073125
9.433333	1	0.074500
9.450000	1	0.076375
9.466667	1	0.078875
9.483333	1	0.081125
9.500000	1	0.084125
9.516667	1	0.088000
9.533333	1	0.091625
9.550000	1	0.096750
9.566667	1	0.102875
9.583333	1	0.108625
9.600000	1	0.115875
9.616667	1	0.124250
9.633333	1	0.133125
9.650000	1	0.141875
9.666667	1	0.151500
9.683333	1	0.161125
9.700000	1	0.170500
9.716667	1	0.178625
9.733333	1	0.185875
9.750000	1	0.191750
9.766667	1	0.195625
9.783333	1	0.198875
9.800000	1	0.202125
9.816667	1	0.206875
9.833333	1	0.216750
9.850000	1	0.235500
9.866667	1	0.268125
9.883333	1	0.321125
9.900000	1	0.401375
9.916667	1	0.518250
9.933333	1	0.682000
9.950000	1	0.906500
9.966667	1	1.209750
9.983333	1	1.612500
10.000000	1	2.137625
10.016667	1	2.810750
10.033333	1	3.654750
10.050000	1	4.690250
10.066667	1	5.929625
10.083333	1	7.380000
10.100000	1	9.038250
10.116667	1	10.893500
10.133333	1	12.919000
10.150000	1	15.080875
10.166667	1	17.330625
10.183333	1	19.609500
10.200000	1	21.850625
10.216667	1	23.980875
10.233333	1	25.924875
10.250000	1	27.608000
10.266667	1	28.964875
10.283333	1	29.945250
10.300000	1	30.518750
10.316667	1	30.679625
10.333333	1	30.446750
10.350000	1	29.865125
10.366667	1	28.998125
10.383333	1	27.917500
10.400000	1	26.696250
10.416667	1	25.399125
10.433333	1	24.079500
10.450000	1	22.777500
10.466667	1	21.517125
10.483333	1	20.311500
10.500000	1	19.164125
10.516667	1	18.075500
10.533333	1	17.041125
10.550000	1	16.055750
10.566667	1	15.115375
10.583333	1	14.213875
10.600000	1	13.349000
10.616667	1	12.517250
10.633333	1	11.716125
10.650000	1	10.947125
10.666667	1	10.208375
10.683333	1	9.500625
10.700000	1	8.824750
10.716667	1	8.182625
10.733333	1	7.575625
10.750000	1	7.006000
10.766667	1	6.475250
10.783333	1	5.984625
10.800000	1	5.533875
10.816667	1	5.123125
10.833333	1	4.751500
10.850000	1	4.417125
10.866667	1	4.118125
10.883333	1	3.850750
10.900000	1	3.612500
10.916667	1	3.400750
10.933333	1	3.212125
10.950000	1	3.044125
10.966667	1	2.895375
10.983333	1	2.762125
11.000000	1	2.642000
11.016667	1	2.533500
11.033333	1	2.435375
11.050000	1	2.346250
11.066667	1	2.265500
11.083333	1	2.190875
11.100000	1	2.121750
11.116667	1	2.058750
11.133333	1	1.999625
11.150000	1	1.944750
11.166667	1	1.893375
11.183333	1	1.845750
11.200000	1	1.800750
11.216667	1	1.759375
11.233333	1	1.721250
11.250000	1	1.685000
11.266667	1	1.650750
11.283333	1	1.619375
11.300000	1	1.589625
11.316667	1	1.563750
11.333333	1	1.539375
11.350000	1	1.517000
11.366667	1	1.497375
11.383333	1	1.479000
11.400000	1	1.462750
11.416667	1	1.448625
11.433333	1	1.435750
11.450000	1	1.424375
11.466667	1	1.413375
11.483333	1	1.402625
11.500000	1	1.391875
11.516667	1	1.380875
11.533333	1	1.370500
11.550000	1	1.360000
11.566667	1	1.348375
11.583333	1	1.336375
11.600000	1	1.323500
11.616667	1	1.311250
11.633333	1	1.298500
11.650000	1	1.285250
11.666667	1	1.271875
11.683333	1	1.259000
11.700000	1	1.246375
11.716667	1	1.234125
11.733333	1	1.222375
11.750000	1	1.211375
11.766667	1	1.201250
11.783333	1	1.192125
11.800000	1	1.183625
11.816667	1	1.177625
11.833333	1	1.172500
11.850000	1	1.169000
11.866667	1	1.169000
11.883333	1	1.171125
11.900000	1	1.177250
11.916667	1	1.187250
11.933333	1	1.201875
11.950000	1	1.221750
11.966667	1	1.247250
11.983333	1	1.280125
12.000000	1	1.321500
12.016667	1	1.371625
12.033333	1	1.432125
12.050000	1	1.503375
12.066667	1	1.587875
12.083333	1	1.687000
12.100000	1	1.802625
12.116667	1	1.937000
12.133333	1	2.090625
12.150000	1	2.267000
12.166667	1	2.468250
12.183333	1	2.698375
12.200000	1	2.959250
12.216667	1	3.254625
12.233333	1	3.588250
12.250000	1	3.963625
12.266667	1	4.386875
12.283333	1	4.864250
12.300000	1	5.403125
12.316667	1	6.014250
12.333333	1	6.710375
12.350000	1	7.506625
12.366667	1	8.422625
12.383333	1	9.480750
12.400000	1	10.705375
12.416667	1	12.116875
12.433333	1	13.737375
12.450000	1	15.580625
12.466667	1	17.652500
12.483333	1	19.947250
12.500000	1	22.444000
12.516667	1	25.104875
12.533333	1	27.879500
12.550000	1	30.701500
12.566667	1	33.498875
12.583333	1	36.196375
12.600000	1	38.719250
12.616667	1	40.996625
12.633333	1	42.973000
12.650000	1	44.605375
12.666667	1	45.866250
12.683333	1	46.742250
12.700000	1	47.234125
12.716667	1	47.356500
12.733333	1	47.133625
12.750000	1	46.598625
12.766667	1	45.789250
12.783333	1	44.748000
12.800000	1	43.517375
12.816667	1	42.139250
12.833333	1	40.651000
12.850000	1	39.086750
12.866667	1	37.475750
12.883333	1	35.843375
12.900000	1	34.211000
12.916667	1	32.596375
12.933333	1	31.013250
12.950000	1	29.474250
12.966667	1	27.985125
12.983333	1	26.551625
13.000000	1	25.176625
13.016667	1	23.861000
13.033333	1	22.604000
13.050000	1	21.402125
13.066667	1	20.254125
13.083333	1	19.156625
13.100000	1	18.107000
13.116667	1	17.102625
13.133333	1	16.140000
13.150000	1	15.217500
13.166667	1	14.331750
13.183333	1	13.479750
13.200000	1	12.660125
13.216667	1	11.868875
13.233333	1	11.103375
13.250000	1	10.360375
13.266667	1	9.636250
13.283333	1	8.928500
13.300000	1	8.235125
13.316667	1	7.556125
13.333333	1	6.895375
13.350000	1	6.262500
13.366667	1	5.671125
13.383333	1	5.134250
13.400000	1	4.661375
13.416667	1	4.252750
13.433333	1	3.904750
13.450000	1	3.610875
13.466667	1	3.362000
13.483333	1	3.150625
13.500000	1	2.969125
13.516667	1	2.813500
13.533333	1	2.678375
13.550000	1	2.560375
13.566667	1	2.456000
13.583333	1	2.363375
13.600000	1	2.280750
13.616667	1	2.206125
13.633333	1	2.138750
13.650000	1	2.077375
13.666667	1	2.021250
13.683333	1	1.969875
13.700000	1	1.922000
13.716667	1	1.877625
13.733333	1	1.836000
13.750000	1	1.796500
13.766667	1	1.758500
13.783333	1	1.722000
13.800000	1	1.687250
13.816667	1	1.653125
13.833333	1	1.619000
13.850000	1	1.586375
13.866667	1	1.554000
13.883333	1	1.522375
13.900000	1	1.491875
13.916667	1	1.461000
13.933333	1	1.431000
13.950000	1	1.402125
13.966667	1	1.373250
13.983333	1	1.344375
14.000000	1	1.317125
14.016667	1	1.290000
14.033333	1	1.263625
14.050000	1	1.238375
14.066667	1	1.213125
14.083333	1	1.189000
14.100000	1	1.166875
14.116667	1	1.144375
14.133333	1	1.122625
14.150000	1	1.101750
14.166667	1	1.082000
14.183333	1	1.063375
14.200000	1	1.045625
14.216667	1	1.028750
14.233333	1	1.013000
14.250000	1	0.998125
14.266667	1	0.983875
14.283333	1	0.970625
14.300000	1	0.958625
14.316667	1	0.946875
14.333333	1	0.937000
14.350000	1	0.927625
14.366667	1	0.919750
14.383333	1	0.911375
14.400000	1	0.904875
14.416667	1	0.898750
14.433333	1	0.893500
14.450000	1	0.888250
14.466667	1	0.884000
14.483333	1	0.880000
14.500000	1	0.875500
14.516667	1	0.871000
14.533333	1	0.866375
14.550000	1	0.862250
14.566667	1	0.857125
14.583333	1	0.852500
14.600000	1	0.847625
14.616667	1	0.843625
14.633333	1	0.838875
14.650000	1	0.833750
14.666667	1	0.829000
14.683333	1	0.824750
14.700000	1	0.820625
14.716667	1	0.816500
14.733333	1	0.813750
14.750000	1	0.810500
14.766667	1	0.807500
14.783333	1	0.805500
14.800000	1	0.803375
14.816667	1	0.801125
14.833333	1	0.799000
14.850000	1	0.798250
14.866667	1	0.796750
14.883333	1	0.795875
14.900000	1	0.795125
14.916667	1	0.794625
14.933333	1	0.794125
14.950000	1	0.792500
14.966667	1	0.791500
14.983333	1	0.790250
15.000000	1	0.788750
15.016667	1	0.786625
15.033333	1	0.785000
15.050000	1	0.782875
15.066667	1	0.780375
15.083333	1	0.777750
15.100000	1	0.775750
15.116667	1	0.773500
15.133333	1	0.771375
15.150000	1	0.769125
15.166667	1	0.766875
15.183333	1	0.764875
15.200000	1	0.762500
15.216667	1	0.761000
15.233333	1	0.759500
15.250000	1	0.758125
15.266667	1	0.756750
15.283333	1	0.755625
15.300000	1	0.756000
15.316667	1	0.756125
15.333333	1	0.756625
15.350000	1	0.757500
15.366667	1	0.759250
15.383333	1	0.761375
15.400000	1	0.765000
15.416667	1	0.769125
15.433333	1	0.774250
15.450000	1	0.781500
15.466667	1	0.790000
15.483333	1	0.800625
15.500000	1	0.812625
15.516667	1	0.825625
15.533333	1	0.840750
15.550000	1	0.856625
15.566667	1	0.873500
15.583333	1	0.891750
15.600000	1	0.908750
15.616667	1	0.925750
15.633333	1	0.942000
15.650000	1	0.957000
15.666667	1	0.969875
15.683333	1	0.980000
15.700000	1	0.987625
15.716667	1	0.992875
15.733333	1	0.995875
15.750000	1	0.995750
15.766667	1	0.993500
15.783333	1	0.989375
15.800000	1	0.983875
15.816667	1	0.976625
15.833333	1	0.968625
15.850000	1	0.959375
15.866667	1	0.948750
15.883333	1	0.937750
15.900000	1	0.926375
15.916667	1	0.914750
15.933333	1	0.904000
15.950000	1	0.893000
15.966667	1	0.881625
15.983333	1	0.871375
16.000000	1	0.860875
16.016667	1	0.851000
16.033333	1	0.842250
16.050000	1	0.833750
16.066667	1	0.825750
16.083333	1	0.818750
16.100000	1	0.812250
16.116667	1	0.806625
16.133333	1	0.801750
16.150000	1	0.797125
16.166667	1	0.792750
16.183333	1	0.789500
16.200000	1	0.786750
16.216667	1	0.784250
16.233333	1	0.782500
16.250000	1	0.780625
16.266667	1	0.778875
16.283333	1	0.777125
16.300000	1	0.776000
16.316667	1	0.774500
16.333333	1	0.773250
16.350000	1	0.771750
16.366667	1	0.770500
16.383333	1	0.769750
16.400000	1	0.769000
16.416667	1	0.768000
16.433333	1	0.767250
16.450000	1	0.767250
16.466667	1	0.766750
16.483333	1	0.767125
16.500000	1	0.767500
16.516667	1	0.768375
16.533333	1	0.769125
16.550000	1	0.770375
16.566667	1	0.771500
16.583333	1	0.772625
16.600000	1	0.774000
16.616667	1	0.774750
16.633333	1	0.775625
16.650000	1	0.777000
16.666667	1	0.779250
16.683333	1	0.781500
16.700000	1	0.783875
16.716667	1	0.786125
16.733333	1	0.788375
16.750000	1	0.791250
16.766667	1	0.794000
16.783333	1	0.797125
16.800000	1	0.800250
16.816667	1	0.803000
16.833333	1	0.806125
16.850000	1	0.808875
16.866667	1	0.811250
16.883333	1	0.814375
16.900000	1	0.816250
16.916667	1	0.818000
16.933333	1	0.819500
16.950000	1	0.820500
16.966667	1	0.821125
16.983333	1	0.821875
17.000000	1	0.822750
17.016667	1	0.823500
17.033333	1	0.824875
17.050000	1	0.824250
17.066667	1	0.823875
17.083333	1	0.824000
17.100000	1	0.823625
17.116667	1	0.822750
17.133333	1	0.821375
17.150000	1	0.819750
17.166667	1	0.817000
17.183333	1	0.813750
17.200000	1	0.810250
17.216667	1	0.806625
17.233333	1	0.802375
17.250000	1	0.797000
17.266667	1	0.791125
17.283333	1	0.784500
17.300000	1	0.778000
17.316667	1	0.771125
17.333333	1	0.764500
17.350000	1	0.756750
17.366667	1	0.749000
17.383333	1	0.742250
17.400000	1	0.735875
17.416667	1	0.728625
17.433333	1	0.722750
17.450000	1	0.717875
17.466667	1	0.713000
17.483333	1	0.708750
17.500000	1	0.705500
17.516667	1	0.702375
17.533333	1	0.700000
17.550000	1	0.698625
17.566667	1	0.697625
17.583333	1	0.697500
17.600000	1	0.698125
17.616667	1	0.699625
17.633333	1	0.702125
17.650000	1	0.706125
17.666667	1	0.710875
17.683333	1	0.716125
17.700000	1	0.722125
17.716667	1	0.727750
17.733333	1	0.734875
17.750000	1	0.741375
17.766667	1	0.749000
17.783333	1	0.757625
17.800000	1	0.765250
17.816667	1	0.773750
17.833333	1	0.782375
17.850000	1	0.791000
17.866667	1	0.798750
17.883333	1	0.806375
17.900000	1	0.813000
17.916667	1	0.819125
17.933333	1	0.824625
17.950000	1	0.828625
17.966667	1	0.831750
17.983333	1	0.833625
18.000000	1	0.834625
18.016667	1	0.834250
18.033333	1	0.832500
18.050000	1	0.830000
18.066667	1	0.826625
18.083333	1	0.823125
18.100000	1	0.818125
18.116667	1	0.811875
18.133333	1	0.805250
18.150000	1	0.798000
18.166667	1	0.789750
18.183333	1	0.781375
18.200000	1	0.772625
18.216667	1	0.763250
18.233333	1	0.753875
18.250000	1	0.744500
18.266667	1	0.735125
18.283333	1	0.726000
18.300000	1	0.716500
18.316667	1	0.708000
18.333333	1	0.699625
18.350000	1	0.690875
18.366667	1	0.682750
18.383333	1	0.675625
18.400000	1	0.668375
18.416667	1	0.662250
18.433333	1	0.657125
18.450000	1	0.652250
18.466667	1	0.647375
18.483333	1	0.643250
18.500000	1	0.640000
18.516667	1	0.636625
18.533333	1	0.634000
18.550000	1	0.631500
18.566667	1	0.630125
18.583333	1	0.629125
18.600000	1	0.628375
18.616667	1	0.628125
18.633333	1	0.629000
18.650000	1	0.629625
18.666667	1	0.631500
18.683333	1	0.633250
18.700000	1	0.636000
18.716667	1	0.640000
18.733333	1	0.643125
18.750000	1	0.647125
18.766667	1	0.652375
18.783333	1	0.658375
18.800000	1	0.664125
18.816667	1	0.670500
18.833333	1	0.677500
18.850000	1	0.684875
18.866667	1	0.693125
18.883333	1	0.701750
18.900000	1	0.710750
18.916667	1	0.720375
18.933333	1	0.731250
18.950000	1	0.742875
18.966667	1	0.754875
18.983333	1	0.769000
19.000000	1	0.784000
19.016667	1	0.800250
19.033333	1	0.818125
19.050000	1	0.837750
19.066667	1	0.859000
19.083333	1	0.882625
19.100000	1	0.907500
19.116667	1	0.934750
19.133333	1	0.963125
19.150000	1	0.993250
19.166667	1	1.024125
19.183333	1	1.056500
19.200000	1	1.089000
19.216667	1	1.121125
19.233333	1	1.153375
19.250000	1	1.183500
19.266667	1	1.211875
19.283333	1	1.237625
19.300000	1	1.261250
19.316667	1	1.282625
19.333333	1	1.299625
19.350000	1	1.312750
19.366667	1	1.322375
19.383333	1	1.327625
19.400000	1	1.328500
19.416667	1	1.325750
19.433333	1	1.318375
19.450000	1	1.307500
19.466667	1	1.292375
19.483333	1	1.275125
19.500000	1	1.254875
19.516667	1	1.231750
19.533333	1	1.206750
19.550000	1	1.180625
19.566667	1	1.153125
19.583333	1	1.125375
19.600000	1	1.096750
19.616667	1	1.068750
19.633333	1	1.040875
19.650000	1	1.013875
19.666667	1	0.988125
19.683333	1	0.963375
19.700000	1	0.939875
19.716667	1	0.919375
19.733333	1	0.900375
19.750000	1	0.883625
19.766667	1	0.868375
19.783333	1	0.855500
19.800000	1	0.845375
19.816667	1	0.837500
19.833333	1	0.832125
19.850000	1	0.828875
19.866667	1	0.826500
19.883333	1	0.826625
19.900000	1	0.827500
19.916667	1	0.830750
19.933333	1	0.834000
19.950000	1	0.837750
19.966667	1	0.842000
19.983333	1	0.846875
20.000000	1	0.851500
20.016667	1	0.855625
20.033333	1	0.859625
20.050000	1	0.863500
20.066667	1	0.866875
20.083333	1	0.870000
20.100000	1	0.871750
20.116667	1	0.872750
20.133333	1	0.873125
20.150000	1	0.873375
20.166667	1	0.873125
20.183333	1	0.872375
20.200000	1	0.871750
20.216667	1	0.870875
20.233333	1	0.870000
20.250000	1	0.869125
20.266667	1	0.868750
20.283333	1	0.868625
20.300000	1	0.869125
20.316667	1	0.870750
20.333333	1	0.873750
20.350000	1	0.876750
20.366667	1	0.880875
20.383333	1	0.886000
20.400000	1	0.891375
20.416667	1	0.897875
20.433333	1	0.904125
20.450000	1	0.910375
20.466667	1	0.917125
20.483333	1	0.924375
20.500000	1	0.930250
20.516667	1	0.936375
20.533333	1	0.942250
20.550000	1	0.946625
20.566667	1	0.950750
20.583333	1	0.954375
20.600000	1	0.958250
20.616667	1	0.960875
20.633333	1	0.963500
20.650000	1	0.966750
20.666667	1	0.970250
20.683333	1	0.974750
20.700000	1	0.979750
20.716667	1	0.985375
20.733333	1	0.992875
20.750000	1	1.001625
20.766667	1	1.012750
20.783333	1	1.025625
20.800000	1	1.040750
20.816667	1	1.057750
20.833333	1	1.077250
20.850000	1	1.098750
20.866667	1	1.121250
20.883333	1	1.144125
20.900000	1	1.167625
20.916667	1	1.191000
20.933333	1	1.213750
20.950000	1	1.234750
20.966667	1	1.253875
20.983333	1	1.269375
21.000000	1	1.281750
21.016667	1	1.290375
21.033333	1	1.294875
21.050000	1	1.295250
21.066667	1	1.291000
21.083333	1	1.281875
21.100000	1	1.269250
21.116667	1	1.253250
21.133333	1	1.232750
21.150000	1	1.208875
21.166667	1	1.182875
21.183333	1	1.154125
21.200000	1	1.123500
21.216667	1	1.092250
21.233333	1	1.059875
21.250000	1	1.026875
21.266667	1	0.993750
21.283333	1	0.960500
21.300000	1	0.927375
21.316667	1	0.894875
21.333333	1	0.864250
21.350000	1	0.834500
21.366667	1	0.806250
21.383333	1	0.778750
21.400000	1	0.752875
21.416667	1	0.729250
21.433333	1	0.706875
21.450000	1	0.686250
21.466667	1	0.668250
21.483333	1	0.652125
21.500000	1	0.636875
21.516667	1	0.623500
21.533333	1	0.612625
21.550000	1	0.603750
21.566667	1	0.597375
21.583333	1	0.593000
21.600000	1	0.590375
21.616667	1	0.589875
21.633333	1	0.591750
21.650000	1	0.596250
21.666667	1	0.603125
21.683333	1	0.611750
21.700000	1	0.622625
21.716667	1	0.636750
21.733333	1	0.653125
21.750000	1	0.672125
21.766667	1	0.693625
21.783333	1	0.718250
21.800000	1	0.745125
21.816667	1	0.775500
21.833333	1	0.807625
21.850000	1	0.842500
21.866667	1	0.878500
21.883333	1	0.916875
21.900000	1	0.956500
21.916667	1	0.997500
21.933333	1	1.037750
21.950000	1	1.077500
21.966667	1	1.116875
21.983333	1	1.154750
22.000000	1	1.191000
22.016667	1	1.223625
22.033333	1	1.253875
22.050000	1	1.280000
22.066667	1	1.302375
22.083333	1	1.319625
22.100000	1	1.332000
22.116667	1	1.339750
22.133333	1	1.342250
22.150000	1	1.340250
22.166667	1	1.333250
22.183333	1	1.321500
22.200000	1	1.306250
22.216667	1	1.286875
22.233333	1	1.264750
22.250000	1	1.239125
22.266667	1	1.210875
22.283333	1	1.180625
22.300000	1	1.149125
22.316667	1	1.116625
22.333333	1	1.083250
22.350000	1	1.050500
22.366667	1	1.017875
22.383333	1	0.985125
22.400000	1	0.952500
22.416667	1	0.921750
22.433333	1	0.891875
22.450000	1	0.862625
22.466667	1	0.835000
22.483333	1	0.809125
22.500000	1	0.784125
22.516667	1	0.761375
22.533333	1	0.740250
22.550000	1	0.720125
22.566667	1	0.701000
22.583333	1	0.684000
22.600000	1	0.667875
22.616667	1	0.652875
22.633333	1	0.639375
22.650000	1	0.626250
22.666667	1	0.614625
22.683333	1	0.604250
22.700000	1	0.594500
22.716667	1	0.585375
22.733333	1	0.576875
22.750000	1	0.568625
22.766667	1	0.561250
22.783333	1	0.554000
22.800000	1	0.547625
22.816667	1	0.540625
22.833333	1	0.534500
22.850000	1	0.528250
22.866667	1	0.522250
22.883333	1	0.516125
22.900000	1	0.511125
22.916667	1	0.505750
22.933333	1	0.499750
22.950000	1	0.494500
22.966667	1	0.489250
22.983333	1	0.485000
23.000000	1	0.481125
23.016667	1	0.477375
23.033333	1	0.474500
23.050000	1	0.471500
23.066667	1	0.469250
23.083333	1	0.467750
23.100000	1	0.466875
23.116667	1	0.467375
23.133333	1	0.469000
23.150000	1	0.471125
23.166667	1	0.474500
23.183333	1	0.478875
23.200000	1	0.485125
23.216667	1	0.492500
23.233333	1	0.500500
23.250000	1	0.510500
23.266667	1	0.522500
23.283333	1	0.536500
23.300000	1	0.551625
23.316667	1	0.568500
23.333333	1	0.587500
23.350000	1	0.608625
23.366667	1	0.631500
23.383333	1	0.657625
23.400000	1	0.685750
23.416667	1	0.716625
23.433333	1	0.748750
23.450000	1	0.783875
23.466667	1	0.823625
23.483333	1	0.865625
23.500000	1	0.911375
23.516667	1	0.960750
23.533333	1	1.014375
23.550000	1	1.072750
23.566667	1	1.135875
23.583333	1	1.204500
23.600000	1	1.278750
23.616667	1	1.360125
23.633333	1	1.447000
23.650000	1	1.541250
23.666667	1	1.641750
23.683333	1	1.749000
23.700000	1	1.864125
23.716667	1	1.985250
23.733333	1	2.113250
23.750000	1	2.246375
23.766667	1	2.383875
23.783333	1	2.524875
23.800000	1	2.667375
23.816667	1	2.809750
23.833333	1	2.949375
23.850000	1	3.085625
23.866667	1	3.216125
23.883333	1	3.338250
23.900000	1	3.450375
23.916667	1	3.552000
23.933333	1	3.640000
23.950000	1	3.713625
23.966667	1	3.772125
23.983333	1	3.814625
24.000000	1	3.840125
24.016667	1	3.848875
24.033333	1	3.841000
24.050000	1	3.816750
24.066667	1	3.778125
24.083333	1	3.725000
24.100000	1	3.658750
24.116667	1	3.581125
24.133333	1	3.493000
24.150000	1	3.395625
24.166667	1	3.291500
24.183333	1	3.182000
24.200000	1	3.067750
24.216667	1	2.950500
24.233333	1	2.831750
24.250000	1	2.712375
24.266667	1	2.592750
24.283333	1	2.474250
24.300000	1	2.358375
24.316667	1	2.246125
24.333333	1	2.136125
24.350000	1	2.030375
24.366667	1	1.928875
24.383333	1	1.831750
24.400000	1	1.739375
24.416667	1	1.652125
24.433333	1	1.569000
24.450000	1	1.491625
24.466667	1	1.419250
24.483333	1	1.351500
24.500000	1	1.287875
24.516667	1	1.228500
24.533333	1	1.173375
24.550000	1	1.121875
24.566667	1	1.074000
24.583333	1	1.030875
24.600000	1	0.989875
24.616667	1	0.952375
24.633333	1	0.917125
24.650000	1	0.884375
24.666667	1	0.853375
24.683333	1	0.824500
24.700000	1	0.797875
24.716667	1	0.771875
24.733333	1	0.747750
24.750000	1	0.724750
24.766667	1	0.702125
24.783333	1	0.681000
24.800000	1	0.660875
24.816667	1	0.640625
24.833333	1	0.621750
24.850000	1	0.603375
24.866667	1	0.585125
24.883333	1	0.567375
24.900000	1	0.550125
24.916667	1	0.533750
24.933333	1	0.517750
24.950000	1	0.502250
24.966667	1	0.487875
24.983333	1	0.473250
25.000000	1	0.459500
25.016667	1	0.445750
25.033333	1	0.433375
25.050000	1	0.421250
25.066667	1	0.409750
25.083333	1	0.398250
25.100000	1	0.387500
25.116667	1	0.377750
25.133333	1	0.368625
25.150000	1	0.360125
25.166667	1	0.352750
25.183333	1	0.345375
25.200000	1	0.338625
25.216667	1	0.333000
25.233333	1	0.327625
25.250000	1	0.322875
25.266667	1	0.318250
25.283333	1	0.314750
25.300000	1	0.311500
25.316667	1	0.308750
25.333333	1	0.305750
25.350000	1	0.304125
25.366667	1	0.302375
25.383333	1	0.301500
25.400000	1	0.300375
25.416667	1	0.299750
25.433333	1	0.298500
25.450000	1	0.298250
25.466667	1	0.298375
25.483333	1	0.298000
25.500000	1	0.297625
25.516667	1	0.297500
25.533333	1	0.297375
25.550000	1	0.297750
25.566667	1	0.298125
25.583333	1	0.298625
25.600000	1	0.298750
25.616667	1	0.298875
25.633333	1	0.298750
25.650000	1	0.298250
25.666667	1	0.297500
25.683333	1	0.297375
25.700000	1	0.298000
25.716667	1	0.297750
25.733333	1	0.297500
25.750000	1	0.297125
25.766667	1	0.296750
25.783333	1	0.296125
25.800000	1	0.295500
25.816667	1	0.294625
25.833333	1	0.293875
25.850000	1	0.293500
25.866667	1	0.293000
25.883333	1	0.292375
25.900000	1	0.291250
25.916667	1	0.290000
25.933333	1	0.289500
25.950000	1	0.288750
25.966667	1	0.287625
25.983333	1	0.287125
26.000000	1	0.286625
26.016667	1	0.286500
26.033333	1	0.286000
26.050000	1	0.284750
26.066667	1	0.283875
26.083333	1	0.283125
26.100000	1	0.282875
26.116667	1	0.282750
26.133333	1	0.282125
26.150000	1	0.281875
26.166667	1	0.281625
26.183333	1	0.280875
26.200000	1	0.280750
26.216667	1	0.280875
26.233333	1	0.280875
26.250000	1	0.281500
26.266667	1	0.282125
26.283333	1	0.282125
26.300000	1	0.282875
26.316667	1	0.283875
26.333333	1	0.285250
26.350000	1	0.285750
26.366667	1	0.286875
26.383333	1	0.287500
26.400000	1	0.288125
26.416667	1	0.289875
26.433333	1	0.291750
26.450000	1	0.293375
26.466667	1	0.295000
26.483333	1	0.295500
26.500000	1	0.296625
26.516667	1	0.298000
26.533333	1	0.298875
26.550000	1	0.300000
26.566667	1	0.300750
26.583333	1	0.301375
26.600000	1	0.301125
26.616667	1	0.300500
26.633333	1	0.299750
26.650000	1	0.298625
26.666667	1	0.298125
26.683333	1	0.296000
26.700000	1	0.293875
26.716667	1	0.292625
26.733333	1	0.290125
26.750000	1	0.288125
26.766667	1	0.286125
26.783333	1	0.283875
26.800000	1	0.281125
26.816667	1	0.278500
26.833333	1	0.276125
26.850000	1	0.273875
26.866667	1	0.270875
26.883333	1	0.268625
26.900000	1	0.266375
26.916667	1	0.264000
26.933333	1	0.262875
26.950000	1	0.261750
26.966667	1	0.260625
26.983333	1	0.260625
27.000000	1	0.260625
27.016667	1	0.261000
27.033333	1	0.262500
27.050000	1	0.263750
27.066667	1	0.266750
27.083333	1	0.270000
27.100000	1	0.274125
27.116667	1	0.278750
27.133333	1	0.283625
27.150000	1	0.289500
27.166667	1	0.295625
27.183333	1	0.302750
27.200000	1	0.311375
27.216667	1	0.321125
27.233333	1	0.331000
27.250000	1	0.342000
27.266667	1	0.353875
27.283333	1	0.367000
27.300000	1	0.381000
27.316667	1	0.396000
27.333333	1	0.411875
27.350000	1	0.429500
27.366667	1	0.447750
27.383333	1	0.467125
27.400000	1	0.488125
27.416667	1	0.509625
27.433333	1	0.532875
27.450000	1	0.557375
27.466667	1	0.583375
27.483333	1	0.610625
27.500000	1	0.640125
27.516667	1	0.671500
27.533333	1	0.704250
27.550000	1	0.739750
27.566667	1	0.778500
27.583333	1	0.819375
27.600000	1	0.862500
27.616667	1	0.908250
27.633333	1	0.958625
27.650000	1	1.012375
27.666667	1	1.069500
27.683333	1	1.131500
27.700000	1	1.198000
27.716667	1	1.268750
27.733333	1	1.344125
27.750000	1	1.424875
27.766667	1	1.510500
27.783333	1	1.600625
27.800000	1	1.695875
27.816667	1	1.794875
27.833333	1	1.899125
27.850000	1	2.006500
27.866667	1	2.117625
27.883333	1	2.231625
27.900000	1	2.347125
27.916667	1	2.462750
27.933333	1	2.579125
27.950000	1	2.694000
27.966667	1	2.805875
27.983333	1	2.915125
28.000000	1	3.018875
28.016667	1	3.117250
28.033333	1	3.208125
28.050000	1	3.291000
28.066667	1	3.363875
28.083333	1	3.426875
28.100000	1	3.478500
28.116667	1	3.517500
28.133333	1	3.544125
28.150000	1	3.557750
28.166667	1	3.558375
28.183333	1	3.546750
28.200000	1	3.521250
28.216667	1	3.482000
28.233333	1	3.431875
28.250000	1	3.369875
28.266667	1	3.296625
28.283333	1	3.213125
28.300000	1	3.120500
28.316667	1	3.020250
28.333333	1	2.913500
28.350000	1	2.800000
28.366667	1	2.682625
28.383333	1	2.561250
28.400000	1	2.436875
28.416667	1	2.311375
28.433333	1	2.184500
28.450000	1	2.057500
28.466667	1	1.931125
28.483333	1	1.807000
28.500000	1	1.684500
28.516667	1	1.564000
28.533333	1	1.447250
28.550000	1	1.333375
28.566667	1	1.223375
28.583333	1	1.117000
28.600000	1	1.015625
28.616667	1	0.918625
28.633333	1	0.824750
28.650000	1	0.735125
28.666667	1	0.649625
28.683333	1	0.567875
28.700000	1	0.490250
28.716667	1	0.416875
28.733333	1	0.346625
28.750000	1	0.280250
28.766667	1	0.217375
28.783333	1	0.157250
28.800000	1	0.100500
28.816667	1	0.047125
28.833333	1	-0.001875
28.850000	1	-0.048500
28.866667	1	-0.092500
28.883333	1	-0.133750
28.900000	1	-0.171750
28.916667	1	-0.206500
28.933333	1	-0.238750
28.950000	1	-0.268625
28.966667	1	-0.294750
28.983333	1	-0.318375
29.000000	1	-0.338875
29.016667	1	-0.357125
29.033333	1	-0.372125
29.050000	1	-0.384375
29.066667	1	-0.394000
29.083333	1	-0.401375
29.100000	1	-0.405375
29.116667	1	-0.407125
29.133333	1	-0.406375
29.150000	1	-0.403125
29.166667	1	-0.397250
29.183333	1	-0.389250
29.200000	1	-0.379375
29.216667	1	-0.366500
29.233333	1	-0.352250
29.250000	1	-0.336375
29.266667	1	-0.318625
29.283333	1	-0.299125
29.300000	1	-0.278875
29.316667	1	-0.256125
29.333333	1	-0.233250
29.350000	1	-0.209250
29.366667	1	-0.185125
29.383333	1	-0.159625
29.400000	1	-0.133625
29.416667	1	-0.107125
29.433333	1	-0.080000
29.450000	1	-0.053125
29.466667	1	-0.026875
29.483333	1	0.000125
29.500000	1	0.026625
29.516667	1	0.052875
29.533333	1	0.078500
29.550000	1	0.103375
29.566667	1	0.127625
29.583333	1	0.151750
29.600000	1	0.174875
29.616667	1	0.197750
29.633333	1	0.219750
29.650000	1	0.240125
29.666667	1	0.259625
29.683333	1	0.278000
29.700000	1	0.296625
29.716667	1	0.313750
29.733333	1	0.329625
29.750000	1	0.344375
29.766667	1	0.358125
29.783333	1	0.371250
29.800000	1	0.383000
29.816667	1	0.393875
29.833333	1	0.404000
29.850000	1	0.412625
29.866667	1	0.420000
29.883333	1	0.427750
29.900000	1	0.434500
29.916667	1	0.440500
29.933333	1	0.445375
29.950000	1	0.449625
29.966667	1	0.454250
29.983333	1	0.457625
30.000000	1	0.460875
30.016667	1	0.464125
30.033333	1	0.467500
30.050000	1	0.470375
30.066667	1	0.473500
30.083333	1	0.475875
30.100000	1	0.478250
30.116667	1	0.481125
30.133333	1	0.484000
30.150000	1	0.486250
30.166667	1	0.489375
30.183333	1	0.493125
30.200000	1	0.497000
30.216667	1	0.501125
30.233333	1	0.505750
30.250000	1	0.510750
30.266667	1	0.516250
30.283333	1	0.522500
30.300000	1	0.529375
30.316667	1	0.536875
30.333333	1	0.544375
30.350000	1	0.552250
30.366667	1	0.561625
30.383333	1	0.571500
30.400000	1	0.582625
30.416667	1	0.593750
30.433333	1	0.606875
30.450000	1	0.621000
30.466667	1	0.636000
30.483333	1	0.651625
30.500000	1	0.669375
30.516667	1	0.687500
30.533333	1	0.707625
30.550000	1	0.728375
30.566667	1	0.751250
30.583333	1	0.775250
30.600000	1	0.800750
30.616667	1	0.827625
30.633333	1	0.855875
30.650000	1	0.885625
30.666667	1	0.916375
30.683333	1	0.949250
30.700000	1	0.982375
30.716667	1	1.016750
30.733333	1	1.051750
30.750000	1	1.087750
30.766667	1	1.123875
30.783333	1	1.160125
30.800000	1	1.196125
30.816667	1	1.231500
30.833333	1	1.266125
30.850000	1	1.299250
30.866667	1	1.330875
30.883333	1	1.360125
30.900000	1	1.387375
30.916667	1	1.412500
30.933333	1	1.434875
30.950000	1	1.453375
30.966667	1	1.468375
30.983333	1	1.479375
31.000000	1	1.487375
31.016667	1	1.491125
31.033333	1	1.491625
31.050000	1	1.487500
31.066667	1	1.479625
31.083333	1	1.468250
31.100000	1	1.453000
31.116667	1	1.433875
31.133333	1	1.411875
31.150000	1	1.386250
31.166667	1	1.358000
31.183333	1	1.327875
31.200000	1	1.295125
31.216667	1	1.260500
31.233333	1	1.223625
31.250000	1	1.185875
31.266667	1	1.147125
31.283333	1	1.107500
31.300000	1	1.066875
31.316667	1	1.026250
31.333333	1	0.985875
31.350000	1	0.945750
31.366667	1	0.905375
31.383333	1	0.866000
31.400000	1	0.827625
31.416667	1	0.790125
31.433333	1	0.754250
31.450000	1	0.719125
31.466667	1	0.684875
31.483333	1	0.652250
31.500000	1	0.620875
31.516667	1	0.591375
31.533333	1	0.563625
31.550000	1	0.537250
31.566667	1	0.512000
31.583333	1	0.488000
31.600000	1	0.465625
31.616667	1	0.445125
31.633333	1	0.426375
31.650000	1	0.408375
31.666667	1	0.391500
31.683333	1	0.377250
31.700000	1	0.363250
31.716667	1	0.350625
31.733333	1	0.338500
31.750000	1	0.327875
31.766667	1	0.319125
31.783333	1	0.310625
31.800000	1	0.303125
31.816667	1	0.296125
31.833333	1	0.291250
31.850000	1	0.286250
31.866667	1	0.282875
31.883333	1	0.279875
31.900000	1	0.277625
31.916667	1	0.276125
31.933333	1	0.275125
31.950000	1	0.274375
31.966667	1	0.274000
31.983333	1	0.274375
32.000000	1	0.275375
32.016667	1	0.276250
32.033333	1	0.277750
32.050000	1	0.278125
32.066667	1	0.280250
32.083333	1	0.281875
32.100000	1	0.283375
32.116667	1	0.285500
32.133333	1	0.287375
32.150000	1	0.288875
32.166667	1	0.290500
32.183333	1	0.292625
32.200000	1	0.293625
32.216667	1	0.294625
32.233333	1	0.295250
32.250000	1	0.295750
32.266667	1	0.295750
32.283333	1	0.296000
32.300000	1	0.295625
32.316667	1	0.295250
32.333333	1	0.294125
32.350000	1	0.293250
32.366667	1	0.292125
32.383333	1	0.290500
32.400000	1	0.288000
32.416667	1	0.285875
32.433333	1	0.283625
32.450000	1	0.280875
32.466667	1	0.278250
32.483333	1	0.275375
32.500000	1	0.272250
32.516667	1	0.268125
32.533333	1	0.264250
32.550000	1	0.260375
32.566667	1	0.256625
32.583333	1	0.251625
32.600000	1	0.247250
32.616667	1	0.242875
32.633333	1	0.237875
32.650000	1	0.232750
32.666667	1	0.227250
32.683333	1	0.222000
32.700000	1	0.216625
32.716667	1	0.211000
32.733333	1	0.205625
32.750000	1	0.200125
32.766667	1	0.194625
32.783333	1	0.188750
32.800000	1	0.183375
32.816667	1	0.177750
32.833333	1	0.172500
32.850000	1	0.166375
32.866667	1	0.160750
32.883333	1	0.155500
32.900000	1	0.150125
32.916667	1	0.144875
32.933333	1	0.139250
32.950000	1	0.134000
32.966667	1	0.129375
32.983333	1	0.124000
33.000000	1	0.118875
33.016667	1	0.114750
33.033333	1	0.110500
33.050000	1	0.107000
33.066667	1	0.103125
33.083333	1	0.099750
33.100000	1	0.096250
33.116667	1	0.092750
33.133333	1	0.089500
33.150000	1	0.086625
33.166667	1	0.084125
33.183333	1	0.082500
33.200000	1	0.081375
33.216667	1	0.079750
33.233333	1	0.078625
33.250000	1	0.077500
33.266667	1	0.077125
33.283333	1	0.077125
33.300000	1	0.077750
33.316667	1	0.077750
33.333333	1	0.077750
33.350000	1	0.078500
33.366667	1	0.080375
33.383333	1	0.081875
33.400000	1	0.084000
33.416667	1	0.086750
33.433333	1	0.090125
33.450000	1	0.093125
33.466667	1	0.096000
33.483333	1	0.100500
33.500000	1	0.105125
33.516667	1	0.109625
33.533333	1	0.114500
33.550000	1	0.119375
33.566667	1	0.124625
33.583333	1	0.130500
33.600000	1	0.136625
33.616667	1	0.143625
33.633333	1	0.151000
33.650000	1	0.158750
33.666667	1	0.167000
33.683333	1	0.175250
33.700000	1	0.184875
33.716667	1	0.194750
33.733333	1	0.205000
33.750000	1	0.216750
33.766667	1	0.228125
33.783333	1	0.240750
33.800000	1	0.254375
33.816667	1	0.268750
33.833333	1	0.284000
33.850000	1	0.299375
33.866667	1	0.316750
33.883333	1	0.334750
33.900000	1	0.353625
33.916667	1	0.374375
33.933333	1	0.395625
33.950000	1	0.418125
33.966667	1	0.441625
33.983333	1	0.466875
34.000000	1	0.493375
34.016667	1	0.521500
34.033333	1	0.550750
34.050000	1	0.580625
34.066667	1	0.611625
34.083333	1	0.644000
34.100000	1	0.677375
34.116667	1	0.711625
34.133333	1	0.746000
34.150000	1	0.781250
34.166667	1	0.816125
34.183333	1	0.852250
34.200000	1	0.887500
34.216667	1	0.922750
34.233333	1	0.957375
34.250000	1	0.990375
34.266667	1	1.022500
34.283333	1	1.052625
34.300000	1	1.080750
34.316667	1	1.106625
34.333333	1	1.130375
34.350000	1	1.151625
34.366667	1	1.170750
34.383333	1	1.186625
34.400000	1	1.199000
34.416667	1	1.208250
34.433333	1	1.214250
34.450000	1	1.217125
34.466667	1	1.216125
34.483333	1	1.212750
34.500000	1	1.205625
34.516667	1	1.195250
34.533333	1	1.182375
34.550000	1	1.166125
34.566667	1	1.147875
34.583333	1	1.126875
34.600000	1	1.104375
34.616667	1	1.079375
34.633333	1	1.052250
34.650000	1	1.023000
34.666667	1	0.993500
34.683333	1	0.961750
34.700000	1	0.928750
34.716667	1	0.896125
34.733333	1	0.862750
34.750000	1	0.829125
34.766667	1	0.794250
34.783333	1	0.760000
34.800000	1	0.726125
34.816667	1	0.693000
34.833333	1	0.660500
34.850000	1	0.628000
34.866667	1	0.596375
34.883333	1	0.565750
34.900000	1	0.535250
34.916667	1	0.506750
34.933333	1	0.478875
34.950000	1	0.452000
34.966667	1	0.426000
34.983333	1	0.402125
35.000000	1	0.379500
35.016667	1	0.357875
35.033333	1	0.337000
35.050000	1	0.317625
35.066667	1	0.299375
35.083333	1	0.282000
35.100000	1	0.265500
35.116667	1	0.250625
35.133333	1	0.236750
35.150000	1	0.225000
35.166667	1	0.212625
35.183333	1	0.201250
35.200000	1	0.191375
35.216667	1	0.182125
35.233333	1	0.174500
35.250000	1	0.167125
35.266667	1	0.160625
35.283333	1	0.155000
35.300000	1	0.150500
35.316667	1	0.146000
35.333333	1	0.142125
35.350000	1	0.138875
35.366667	1	0.136625
35.383333	1	0.134000
35.400000	1	0.132125
35.416667	1	0.131250
35.433333	1	0.130375
35.450000	1	0.129375
35.466667	1	0.129125
35.483333	1	0.128625
35.500000	1	0.128250
35.516667	1	0.128000
35.533333	1	0.128125
35.550000	1	0.129000
35.566667	1	0.129250
35.583333	1	0.129875
35.600000	1	0.130750
35.616667	1	0.131250
35.633333	1	0.132125
35.650000	1	0.132625
35.666667	1	0.133000
35.683333	1	0.133875
35.700000	1	0.133875
35.716667	1	0.133875
35.733333	1	0.135250
35.750000	1	0.136375
35.766667	1	0.136625
35.783333	1	0.137375
35.800000	1	0.138750
35.816667	1	0.139375
35.833333	1	0.139250
35.850000	1	0.139625
35.866667	1	0.139500
35.883333	1	0.140000
35.900000	1	0.140250
35.916667	1	0.140250
35.933333	1	0.140250
35.950000	1	0.140250
35.966667	1	0.140250
35.983333	1	0.140125
36.000000	1	0.140125
36.016667	1	0.140250
36.033333	1	0.140250
36.050000	1	0.139750
36.066667	1	0.139625
36.083333	1	0.139000
36.100000	1	0.138750
36.116667	1	0.138750
36.133333	1	0.138250
36.150000	1	0.138375
36.166667	1	0.138500
36.183333	1	0.137750
36.200000	1	0.138000
36.216667	1	0.138000
36.233333	1	0.137875
36.250000	1	0.137250
36.266667	1	0.137000
36.283333	1	0.136125
36.300000	1	0.135500
36.316667	1	0.134875
36.333333	1	0.134375
36.350000	1	0.134375
36.366667	1	0.133875
36.383333	1	0.133750
36.400000	1	0.133125
36.416667	1	0.132500
36.433333	1	0.131750
36.450000	1	0.131750
36.466667	1	0.130500
36.483333	1	0.129000
36.500000	1	0.127875
36.516667	1	0.127000
36.533333	1	0.126000
36.550000	1	0.124750
36.566667	1	0.123750
36.583333	1	0.122875
36.600000	1	0.121875
36.616667	1	0.121250
36.633333	1	0.119750
36.650000	1	0.117875
36.666667	1	0.116625
36.683333	1	0.115375
36.700000	1	0.113750
36.716667	1	0.112625
36.733333	1	0.111125
36.750000	1	0.109250
36.766667	1	0.107250
36.783333	1	0.105875
36.800000	1	0.104750
36.816667	1	0.103000
36.833333	1	0.101375
36.850000	1	0.099250
36.866667	1	0.096875
36.883333	1	0.095250
36.900000	1	0.092875
36.916667	1	0.091250
36.933333	1	0.089875
36.950000	1	0.087375
36.966667	1	0.085500
36.983333	1	0.083375
37.000000	1	0.081125
37.016667	1	0.079375
37.033333	1	0.077375
37.050000	1	0.074875
37.066667	1	0.072250
37.083333	1	0.069875
37.100000	1	0.067000
37.116667	1	0.064125
37.133333	1	0.061125
37.150000	1	0.058625
37.166667	1	0.055875
37.183333	1	0.053500
37.200000	1	0.050250
37.216667	1	0.046750
37.233333	1	0.044375
37.250000	1	0.041625
37.266667	1	0.039000
37.283333	1	0.036375
37.300000	1	0.033250
37.316667	1	0.030750
37.333333	1	0.028500
37.350000	1	0.026125
37.366667	1	0.023625
37.383333	1	0.021125
37.400000	1	0.019250
37.416667	1	0.017625
37.433333	1	0.015250
37.450000	1	0.013625
37.466667	1	0.011375
37.483333	1	0.009125
37.500000	1	0.007125
37.516667	1	0.005250
37.533333	1	0.003125
37.550000	1	0.001375
37.566667	1	0.000500
37.583333	1	-0.000875
37.600000	1	-0.001375
37.616667	1	-0.001750
37.633333	1	-0.003000
37.650000	1	-0.004125
37.666667	1	-0.005625
37.683333	1	-0.006625
37.700000	1	-0.007750
37.716667	1	-0.008500
37.733333	1	-0.009125
37.750000	1	-0.010000
37.766667	1	-0.011250
37.783333	1	-0.011750
37.800000	1	-0.012500
37.816667	1	-0.012500
37.833333	1	-0.012750
37.850000	1	-0.013125
37.866667	1	-0.013750
37.883333	1	-0.014625
37.900000	1	-0.014625
37.916667	1	-0.015000
37.933333	1	-0.015625
37.950000	1	-0.015625
37.966667	1	-0.016125
37.983333	1	-0.015750
38.000000	1	-0.015750
38.016667	1	-0.015500
38.033333	1	-0.015375
38.050000	1	-0.016250
38.066667	1	-0.016500
38.083333	1	-0.016625
38.100000	1	-0.016750
38.116667	1	-0.017000
38.133333	1	-0.016750
38.150000	1	-0.016500
38.166667	1	-0.016750
38.183333	1	-0.016875
38.200000	1	-0.017000
38.216667	1	-0.017250
38.233333	1	-0.017000
38.250000	1	-0.016250
38.266667	1	-0.016125
38.283333	1	-0.016500
38.300000	1	-0.016875
38.316667	1	-0.016500
38.333333	1	-0.015750
38.350000	1	-0.015750
38.366667	1	-0.015250
38.383333	1	-0.014750
38.400000	1	-0.014250
38.416667	1	-0.013875
38.433333	1	-0.013625
38.450000	1	-0.012625
38.466667	1	-0.012875
38.483333	1	-0.012375
38.500000	1	-0.011750
38.516667	1	-0.011250
38.533333	1	-0.010375
38.550000	1	-0.009500
38.566667	1	-0.009625
38.583333	1	-0.009375
38.600000	1	-0.009250
38.616667	1	-0.008875
38.633333	1	-0.008125
38.650000	1	-0.007625
38.666667	1	-0.007000
38.683333	1	-0.006875
38.700000	1	-0.007000
38.716667	1	-0.007000
38.733333	1	-0.007000
38.750000	1	-0.006375
38.766667	1	-0.006000
38.783333	1	-0.005375
38.800000	1	-0.005250
38.816667	1	-0.004875
38.833333	1	-0.004750
38.850000	1	-0.003875
38.866667	1	-0.003750
38.883333	1	-0.004000
38.900000	1	-0.004000
38.916667	1	-0.003875
38.933333	1	-0.003125
38.950000	1	-0.002125
38.966667	1	-0.001625
38.983333	1	-0.001000
39.000000	1	-0.000750
39.016667	1	0.000000
39.033333	1	0.000625
39.050000	1	0.001000
39.066667	1	0.001625
39.083333	1	0.002750
39.100000	1	0.003250
39.116667	1	0.003250
39.133333	1	0.003375
39.150000	1	0.003750
39.166667	1	0.003500
39.183333	1	0.004125
39.200000	1	0.003875
39.216667	1	0.003750
39.233333	1	0.003500
39.250000	1	0.003000
39.266667	1	0.002625
39.283333	1	0.003125
39.300000	1	0.003125
39.316667	1	0.002375
39.333333	1	0.001500
39.350000	1	0.001625
39.366667	1	0.000625
39.383333	1	0.000250
39.400000	1	-0.000750
39.416667	1	-0.000875
39.433333	1	-0.001250
39.450000	1	-0.003125
39.466667	1	-0.004250
39.483333	1	-0.005375
39.500000	1	-0.007250
39.516667	1	-0.008375
39.533333	1	-0.009500
39.550000	1	-0.010625
39.566667	1	-0.011875
39.583333	1	-0.013125
39.600000	1	-0.014500
39.616667	1	-0.015500
39.633333	1	-0.017000
39.650000	1	-0.018000
39.666667	1	-0.019250
39.683333	1	-0.020875
39.700000	1	-0.022250
39.716667	1	-0.023000
39.733333	1	-0.024125
39.750000	1	-0.025125
39.766667	1	-0.026125
39.783333	1	-0.027500
39.800000	1	-0.027875
39.816667	1	-0.028750
39.833333	1	-0.029250
39.850000	1	-0.030500
39.866667	1	-0.031250
39.883333	1	-0.031375
39.900000	1	-0.031375
39.916667	1	-0.031625
39.933333	1	-0.031250
39.950000	1	-0.031500
39.966667	1	-0.031625
39.983333	1	-0.031125
40.000000	1	-0.030750
