File Path	chrom://marshall/Chromeleon7/HPLC_Ultimate_3000/Users/markusar/20230616_CMO_FP13_14_15.seq/461.smp/RI_1.channel/RI_1.chm
Channel	RI_1

Injection Information:
Data Vault	Chromeleon7
Injection	FP14_4.2_s2
Injection Number	21
Position	BE2
Comment	
Processing Method	
Instrument Method	run_25B_method
Type	Unknown
Status	Finished
Injection Date	17.06.2023
Injection Time	06:08:07
Injection Volume (µl)	20.000
Dilution Factor	1.0000
Weight	1.0000

Chromatogram Data Information:
Time Min. (min)	0.000000
Time Max. (min)	40.000000
Data Points	2401
Detector	RI
Generating Data System	Chromeleon 7.2.5.9507
Exporting Data System	Chromeleon 7.2.5.0
Operator	Instrument Controller
Signal Quantity	Refractive 
Signal Unit	µRIU
Signal Min.	-0.532750
Signal Max.	53.553375
Channel	RI_1
Driver Name	RID520Driver.dll
Channel Type	Evaluation
Min. Step (s)	1
Max. Step (s)	1
Average Step (s)	1

Signal Parameter Information:
Signal Info	

Chromatogram Data:
Time (min)	Step (s)	Value (µRIU)
0.000000	n.a.	-0.012875
0.016667	1	-0.014375
0.033333	1	-0.015250
0.050000	1	-0.016250
0.066667	1	-0.016750
0.083333	1	-0.017375
0.100000	1	-0.018125
0.116667	1	-0.018750
0.133333	1	-0.019375
0.150000	1	-0.020250
0.166667	1	-0.021000
0.183333	1	-0.021375
0.200000	1	-0.021750
0.216667	1	-0.022125
0.233333	1	-0.022625
0.250000	1	-0.023375
0.266667	1	-0.024125
0.283333	1	-0.024375
0.300000	1	-0.023750
0.316667	1	-0.024750
0.333333	1	-0.024625
0.350000	1	-0.024625
0.366667	1	-0.024625
0.383333	1	-0.024375
0.400000	1	-0.023750
0.416667	1	-0.023875
0.433333	1	-0.025125
0.450000	1	-0.028125
0.466667	1	-0.029250
0.483333	1	-0.030500
0.500000	1	-0.029125
0.516667	1	-0.026625
0.533333	1	-0.023125
0.550000	1	-0.019625
0.566667	1	-0.016250
0.583333	1	-0.013875
0.600000	1	-0.011625
0.616667	1	-0.009375
0.633333	1	-0.008375
0.650000	1	-0.008125
0.666667	1	-0.009250
0.683333	1	-0.010625
0.700000	1	-0.012500
0.716667	1	-0.014000
0.733333	1	-0.015375
0.750000	1	-0.016875
0.766667	1	-0.017750
0.783333	1	-0.018375
0.800000	1	-0.019125
0.816667	1	-0.019875
0.833333	1	-0.020125
0.850000	1	-0.020250
0.866667	1	-0.020750
0.883333	1	-0.020875
0.900000	1	-0.021500
0.916667	1	-0.021250
0.933333	1	-0.021250
0.950000	1	-0.021250
0.966667	1	-0.021250
0.983333	1	-0.021000
1.000000	1	-0.020750
1.016667	1	-0.021125
1.033333	1	-0.021000
1.050000	1	-0.021375
1.066667	1	-0.021250
1.083333	1	-0.020875
1.100000	1	-0.020875
1.116667	1	-0.020625
1.133333	1	-0.020000
1.150000	1	-0.019625
1.166667	1	-0.019125
1.183333	1	-0.019250
1.200000	1	-0.019250
1.216667	1	-0.018875
1.233333	1	-0.019125
1.250000	1	-0.019125
1.266667	1	-0.018250
1.283333	1	-0.018250
1.300000	1	-0.017625
1.316667	1	-0.017375
1.333333	1	-0.017000
1.350000	1	-0.016750
1.366667	1	-0.016750
1.383333	1	-0.017250
1.400000	1	-0.016500
1.416667	1	-0.016750
1.433333	1	-0.016625
1.450000	1	-0.017125
1.466667	1	-0.017500
1.483333	1	-0.017375
1.500000	1	-0.017625
1.516667	1	-0.016875
1.533333	1	-0.016500
1.550000	1	-0.016625
1.566667	1	-0.017125
1.583333	1	-0.016875
1.600000	1	-0.017250
1.616667	1	-0.017875
1.633333	1	-0.017750
1.650000	1	-0.017750
1.666667	1	-0.018625
1.683333	1	-0.018500
1.700000	1	-0.018625
1.716667	1	-0.018875
1.733333	1	-0.019250
1.750000	1	-0.019625
1.766667	1	-0.020500
1.783333	1	-0.021250
1.800000	1	-0.021750
1.816667	1	-0.022125
1.833333	1	-0.022500
1.850000	1	-0.022500
1.866667	1	-0.023000
1.883333	1	-0.023875
1.900000	1	-0.023875
1.916667	1	-0.024250
1.933333	1	-0.024375
1.950000	1	-0.024750
1.966667	1	-0.025500
1.983333	1	-0.025500
2.000000	1	-0.025750
2.016667	1	-0.025125
2.033333	1	-0.024500
2.050000	1	-0.024875
2.066667	1	-0.025375
2.083333	1	-0.025250
2.100000	1	-0.025250
2.116667	1	-0.025125
2.133333	1	-0.025000
2.150000	1	-0.024500
2.166667	1	-0.024375
2.183333	1	-0.024500
2.200000	1	-0.024500
2.216667	1	-0.024000
2.233333	1	-0.023875
2.250000	1	-0.024000
2.266667	1	-0.023750
2.283333	1	-0.023125
2.300000	1	-0.023000
2.316667	1	-0.023125
2.333333	1	-0.023375
2.350000	1	-0.022750
2.366667	1	-0.022625
2.383333	1	-0.022125
2.400000	1	-0.022375
2.416667	1	-0.022500
2.433333	1	-0.021875
2.450000	1	-0.020875
2.466667	1	-0.020000
2.483333	1	-0.019625
2.500000	1	-0.019625
2.516667	1	-0.019500
2.533333	1	-0.019750
2.550000	1	-0.019875
2.566667	1	-0.019875
2.583333	1	-0.019875
2.600000	1	-0.020375
2.616667	1	-0.020250
2.633333	1	-0.019875
2.650000	1	-0.020750
2.666667	1	-0.021250
2.683333	1	-0.021375
2.700000	1	-0.021750
2.716667	1	-0.021500
2.733333	1	-0.022500
2.750000	1	-0.023375
2.766667	1	-0.023125
2.783333	1	-0.023125
2.800000	1	-0.023500
2.816667	1	-0.024000
2.833333	1	-0.025000
2.850000	1	-0.025125
2.866667	1	-0.025125
2.883333	1	-0.024750
2.900000	1	-0.024625
2.916667	1	-0.024625
2.933333	1	-0.024875
2.950000	1	-0.024750
2.966667	1	-0.024625
2.983333	1	-0.023875
3.000000	1	-0.023750
3.016667	1	-0.023250
3.033333	1	-0.023125
3.050000	1	-0.023125
3.066667	1	-0.022125
3.083333	1	-0.021125
3.100000	1	-0.020000
3.116667	1	-0.019625
3.133333	1	-0.018625
3.150000	1	-0.017750
3.166667	1	-0.017375
3.183333	1	-0.016875
3.200000	1	-0.016125
3.216667	1	-0.016250
3.233333	1	-0.015375
3.250000	1	-0.014250
3.266667	1	-0.012250
3.283333	1	-0.011125
3.300000	1	-0.010375
3.316667	1	-0.009875
3.333333	1	-0.010000
3.350000	1	-0.009375
3.366667	1	-0.008750
3.383333	1	-0.008250
3.400000	1	-0.007750
3.416667	1	-0.007875
3.433333	1	-0.007125
3.450000	1	-0.006500
3.466667	1	-0.005500
3.483333	1	-0.005000
3.500000	1	-0.005250
3.516667	1	-0.005125
3.533333	1	-0.005750
3.550000	1	-0.005500
3.566667	1	-0.005625
3.583333	1	-0.005250
3.600000	1	-0.005125
3.616667	1	-0.005375
3.633333	1	-0.005375
3.650000	1	-0.005750
3.666667	1	-0.006500
3.683333	1	-0.006750
3.700000	1	-0.007375
3.716667	1	-0.008125
3.733333	1	-0.008375
3.750000	1	-0.009000
3.766667	1	-0.010125
3.783333	1	-0.010875
3.800000	1	-0.011500
3.816667	1	-0.012500
3.833333	1	-0.013625
3.850000	1	-0.014500
3.866667	1	-0.015375
3.883333	1	-0.016625
3.900000	1	-0.017375
3.916667	1	-0.018250
3.933333	1	-0.019875
3.950000	1	-0.022250
3.966667	1	-0.023250
3.983333	1	-0.023875
4.000000	1	-0.024625
4.016667	1	-0.026250
4.033333	1	-0.027500
4.050000	1	-0.028750
4.066667	1	-0.030625
4.083333	1	-0.032000
4.100000	1	-0.033500
4.116667	1	-0.034625
4.133333	1	-0.036375
4.150000	1	-0.037625
4.166667	1	-0.038250
4.183333	1	-0.039875
4.200000	1	-0.041375
4.216667	1	-0.042500
4.233333	1	-0.043500
4.250000	1	-0.043875
4.266667	1	-0.044875
4.283333	1	-0.045125
4.300000	1	-0.046500
4.316667	1	-0.046875
4.333333	1	-0.048125
4.350000	1	-0.049000
4.366667	1	-0.049250
4.383333	1	-0.050125
4.400000	1	-0.050500
4.416667	1	-0.050375
4.433333	1	-0.050875
4.450000	1	-0.051000
4.466667	1	-0.051250
4.483333	1	-0.050875
4.500000	1	-0.050625
4.516667	1	-0.050500
4.533333	1	-0.050625
4.550000	1	-0.050375
4.566667	1	-0.050250
4.583333	1	-0.049875
4.600000	1	-0.049750
4.616667	1	-0.049250
4.633333	1	-0.049000
4.650000	1	-0.048625
4.666667	1	-0.047625
4.683333	1	-0.046750
4.700000	1	-0.045750
4.716667	1	-0.044750
4.733333	1	-0.043625
4.750000	1	-0.042125
4.766667	1	-0.041000
4.783333	1	-0.040000
4.800000	1	-0.039375
4.816667	1	-0.038625
4.833333	1	-0.036625
4.850000	1	-0.035375
4.866667	1	-0.034250
4.883333	1	-0.032500
4.900000	1	-0.030625
4.916667	1	-0.029000
4.933333	1	-0.027875
4.950000	1	-0.026125
4.966667	1	-0.025000
4.983333	1	-0.023125
5.000000	1	-0.021250
5.016667	1	-0.019250
5.033333	1	-0.016500
5.050000	1	-0.013500
5.066667	1	-0.011375
5.083333	1	-0.009250
5.100000	1	-0.006375
5.116667	1	-0.003875
5.133333	1	-0.001125
5.150000	1	0.000625
5.166667	1	0.003000
5.183333	1	0.005625
5.200000	1	0.008875
5.216667	1	0.012125
5.233333	1	0.015625
5.250000	1	0.019125
5.266667	1	0.022125
5.283333	1	0.025625
5.300000	1	0.028750
5.316667	1	0.031625
5.333333	1	0.034875
5.350000	1	0.038250
5.366667	1	0.041750
5.383333	1	0.045375
5.400000	1	0.048875
5.416667	1	0.052250
5.433333	1	0.055000
5.450000	1	0.057625
5.466667	1	0.060750
5.483333	1	0.064000
5.500000	1	0.067125
5.516667	1	0.070250
5.533333	1	0.073125
5.550000	1	0.075875
5.566667	1	0.078625
5.583333	1	0.080750
5.600000	1	0.082625
5.616667	1	0.084125
5.633333	1	0.086250
5.650000	1	0.087500
5.666667	1	0.088875
5.683333	1	0.090375
5.700000	1	0.091625
5.716667	1	0.092500
5.733333	1	0.093500
5.750000	1	0.094125
5.766667	1	0.094125
5.783333	1	0.094250
5.800000	1	0.094500
5.816667	1	0.094250
5.833333	1	0.094000
5.850000	1	0.094125
5.866667	1	0.093750
5.883333	1	0.092625
5.900000	1	0.091625
5.916667	1	0.090250
5.933333	1	0.088625
5.950000	1	0.087625
5.966667	1	0.086250
5.983333	1	0.085000
6.000000	1	0.083625
6.016667	1	0.082250
6.033333	1	0.080125
6.050000	1	0.078125
6.066667	1	0.076500
6.083333	1	0.074625
6.100000	1	0.072625
6.116667	1	0.070625
6.133333	1	0.068875
6.150000	1	0.066000
6.166667	1	0.065000
6.183333	1	0.062625
6.200000	1	0.060375
6.216667	1	0.058750
6.233333	1	0.057500
6.250000	1	0.055250
6.266667	1	0.053750
6.283333	1	0.051875
6.300000	1	0.050125
6.316667	1	0.048125
6.333333	1	0.046500
6.350000	1	0.044750
6.366667	1	0.043125
6.383333	1	0.041750
6.400000	1	0.040000
6.416667	1	0.038750
6.433333	1	0.036875
6.450000	1	0.035625
6.466667	1	0.035000
6.483333	1	0.034000
6.500000	1	0.033875
6.516667	1	0.033250
6.533333	1	0.032125
6.550000	1	0.031625
6.566667	1	0.031625
6.583333	1	0.031125
6.600000	1	0.031000
6.616667	1	0.031750
6.633333	1	0.032250
6.650000	1	0.032375
6.666667	1	0.033125
6.683333	1	0.034125
6.700000	1	0.035000
6.716667	1	0.036500
6.733333	1	0.037875
6.750000	1	0.039375
6.766667	1	0.040500
6.783333	1	0.042250
6.800000	1	0.044000
6.816667	1	0.046375
6.833333	1	0.049000
6.850000	1	0.050875
6.866667	1	0.053500
6.883333	1	0.056375
6.900000	1	0.059375
6.916667	1	0.061375
6.933333	1	0.063625
6.950000	1	0.066500
6.966667	1	0.068375
6.983333	1	0.071250
7.000000	1	0.073625
7.016667	1	0.076375
7.033333	1	0.079250
7.050000	1	0.081125
7.066667	1	0.083125
7.083333	1	0.085250
7.100000	1	0.087250
7.116667	1	0.089750
7.133333	1	0.091750
7.150000	1	0.092875
7.166667	1	0.093875
7.183333	1	0.095375
7.200000	1	0.096000
7.216667	1	0.096500
7.233333	1	0.096750
7.250000	1	0.097750
7.266667	1	0.098250
7.283333	1	0.098250
7.300000	1	0.097625
7.316667	1	0.097875
7.333333	1	0.097125
7.350000	1	0.096000
7.366667	1	0.095750
7.383333	1	0.094750
7.400000	1	0.093750
7.416667	1	0.093250
7.433333	1	0.091250
7.450000	1	0.090250
7.466667	1	0.088875
7.483333	1	0.086625
7.500000	1	0.084750
7.516667	1	0.082500
7.533333	1	0.080750
7.550000	1	0.079125
7.566667	1	0.077125
7.583333	1	0.075125
7.600000	1	0.073250
7.616667	1	0.071500
7.633333	1	0.069250
7.650000	1	0.067250
7.666667	1	0.064625
7.683333	1	0.063125
7.700000	1	0.060750
7.716667	1	0.057750
7.733333	1	0.055375
7.750000	1	0.053125
7.766667	1	0.051000
7.783333	1	0.049250
7.800000	1	0.047375
7.816667	1	0.046250
7.833333	1	0.044125
7.850000	1	0.041375
7.866667	1	0.039750
7.883333	1	0.038125
7.900000	1	0.035875
7.916667	1	0.033875
7.933333	1	0.032875
7.950000	1	0.031125
7.966667	1	0.029750
7.983333	1	0.028625
8.000000	1	0.027375
8.016667	1	0.026125
8.033333	1	0.025375
8.050000	1	0.024250
8.066667	1	0.023875
8.083333	1	0.023125
8.100000	1	0.022125
8.116667	1	0.021125
8.133333	1	0.020125
8.150000	1	0.018875
8.166667	1	0.018125
8.183333	1	0.017750
8.200000	1	0.016750
8.216667	1	0.016250
8.233333	1	0.016000
8.250000	1	0.015250
8.266667	1	0.015625
8.283333	1	0.014875
8.300000	1	0.014125
8.316667	1	0.013625
8.333333	1	0.013500
8.350000	1	0.013250
8.366667	1	0.013250
8.383333	1	0.012750
8.400000	1	0.013375
8.416667	1	0.013375
8.433333	1	0.013625
8.450000	1	0.013750
8.466667	1	0.013875
8.483333	1	0.014000
8.500000	1	0.013750
8.516667	1	0.013875
8.533333	1	0.014125
8.550000	1	0.014375
8.566667	1	0.015250
8.583333	1	0.015875
8.600000	1	0.016000
8.616667	1	0.016875
8.633333	1	0.017375
8.650000	1	0.017500
8.666667	1	0.017500
8.683333	1	0.017875
8.700000	1	0.019000
8.716667	1	0.019875
8.733333	1	0.020125
8.750000	1	0.020250
8.766667	1	0.020500
8.783333	1	0.021250
8.800000	1	0.022000
8.816667	1	0.022125
8.833333	1	0.023000
8.850000	1	0.024000
8.866667	1	0.025500
8.883333	1	0.026500
8.900000	1	0.027125
8.916667	1	0.027500
8.933333	1	0.028500
8.950000	1	0.029125
8.966667	1	0.029625
8.983333	1	0.030000
9.000000	1	0.030500
9.016667	1	0.031000
9.033333	1	0.032000
9.050000	1	0.033000
9.066667	1	0.034000
9.083333	1	0.034500
9.100000	1	0.035625
9.116667	1	0.036250
9.133333	1	0.038000
9.150000	1	0.039000
9.166667	1	0.039625
9.183333	1	0.041250
9.200000	1	0.041875
9.216667	1	0.042375
9.233333	1	0.043000
9.250000	1	0.044000
9.266667	1	0.044875
9.283333	1	0.045875
9.300000	1	0.046875
9.316667	1	0.047625
9.333333	1	0.049000
9.350000	1	0.050500
9.366667	1	0.051500
9.383333	1	0.052750
9.400000	1	0.054250
9.416667	1	0.056000
9.433333	1	0.057500
9.450000	1	0.059750
9.466667	1	0.062250
9.483333	1	0.065125
9.500000	1	0.068500
9.516667	1	0.072000
9.533333	1	0.077375
9.550000	1	0.083000
9.566667	1	0.089875
9.583333	1	0.098250
9.600000	1	0.106250
9.616667	1	0.115250
9.633333	1	0.125750
9.650000	1	0.137000
9.666667	1	0.148250
9.683333	1	0.159375
9.700000	1	0.169750
9.716667	1	0.179750
9.733333	1	0.187500
9.750000	1	0.194500
9.766667	1	0.200250
9.783333	1	0.204000
9.800000	1	0.208125
9.816667	1	0.215375
9.833333	1	0.228125
9.850000	1	0.251625
9.866667	1	0.290750
9.883333	1	0.353000
9.900000	1	0.445125
9.916667	1	0.576000
9.933333	1	0.758500
9.950000	1	1.006625
9.966667	1	1.337875
9.983333	1	1.773375
10.000000	1	2.336375
10.016667	1	3.052375
10.033333	1	3.944125
10.050000	1	5.029000
10.066667	1	6.319875
10.083333	1	7.821000
10.100000	1	9.529875
10.116667	1	11.431625
10.133333	1	13.500125
10.150000	1	15.696375
10.166667	1	17.971500
10.183333	1	20.264500
10.200000	1	22.507750
10.216667	1	24.627125
10.233333	1	26.545375
10.250000	1	28.188500
10.266667	1	29.494000
10.283333	1	30.413750
10.300000	1	30.922375
10.316667	1	31.017375
10.333333	1	30.722375
10.350000	1	30.085875
10.366667	1	29.173875
10.383333	1	28.057875
10.400000	1	26.811750
10.416667	1	25.498875
10.433333	1	24.168500
10.450000	1	22.860125
10.466667	1	21.594750
10.483333	1	20.384500
10.500000	1	19.231625
10.516667	1	18.135625
10.533333	1	17.091875
10.550000	1	16.096125
10.566667	1	15.144125
10.583333	1	14.231250
10.600000	1	13.354375
10.616667	1	12.511125
10.633333	1	11.700375
10.650000	1	10.922250
10.666667	1	10.175250
10.683333	1	9.460250
10.700000	1	8.779250
10.716667	1	8.134000
10.733333	1	7.525125
10.750000	1	6.955375
10.766667	1	6.425500
10.783333	1	5.936375
10.800000	1	5.487875
10.816667	1	5.080000
10.833333	1	4.711875
10.850000	1	4.382000
10.866667	1	4.086500
10.883333	1	3.823250
10.900000	1	3.588875
10.916667	1	3.380875
10.933333	1	3.196250
10.950000	1	3.031250
10.966667	1	2.884000
10.983333	1	2.753000
11.000000	1	2.634500
11.016667	1	2.528000
11.033333	1	2.431500
11.050000	1	2.344000
11.066667	1	2.263000
11.083333	1	2.189875
11.100000	1	2.122625
11.116667	1	2.060125
11.133333	1	2.001375
11.150000	1	1.946750
11.166667	1	1.896875
11.183333	1	1.850625
11.200000	1	1.806500
11.216667	1	1.765625
11.233333	1	1.727000
11.250000	1	1.692125
11.266667	1	1.659125
11.283333	1	1.628250
11.300000	1	1.599500
11.316667	1	1.573625
11.333333	1	1.550500
11.350000	1	1.530000
11.366667	1	1.510750
11.383333	1	1.494625
11.400000	1	1.480250
11.416667	1	1.467750
11.433333	1	1.455750
11.450000	1	1.445875
11.466667	1	1.436125
11.483333	1	1.426625
11.500000	1	1.417250
11.516667	1	1.406750
11.533333	1	1.396000
11.550000	1	1.384875
11.566667	1	1.373500
11.583333	1	1.361500
11.600000	1	1.348500
11.616667	1	1.335000
11.633333	1	1.321500
11.650000	1	1.307625
11.666667	1	1.293375
11.683333	1	1.279500
11.700000	1	1.266250
11.716667	1	1.253750
11.733333	1	1.242000
11.750000	1	1.230875
11.766667	1	1.220875
11.783333	1	1.212000
11.800000	1	1.204125
11.816667	1	1.198375
11.833333	1	1.194750
11.850000	1	1.194000
11.866667	1	1.195375
11.883333	1	1.201250
11.900000	1	1.210750
11.916667	1	1.225125
11.933333	1	1.244500
11.950000	1	1.270875
11.966667	1	1.304500
11.983333	1	1.346375
12.000000	1	1.397000
12.016667	1	1.458000
12.033333	1	1.531125
12.050000	1	1.616875
12.066667	1	1.718750
12.083333	1	1.838125
12.100000	1	1.974875
12.116667	1	2.132625
12.133333	1	2.315000
12.150000	1	2.521500
12.166667	1	2.757375
12.183333	1	3.025000
12.200000	1	3.327750
12.216667	1	3.669125
12.233333	1	4.052875
12.250000	1	4.484250
12.266667	1	4.968500
12.283333	1	5.513750
12.300000	1	6.129125
12.316667	1	6.825500
12.333333	1	7.617875
12.350000	1	8.524000
12.366667	1	9.566500
12.383333	1	10.771250
12.400000	1	12.166250
12.416667	1	13.776250
12.433333	1	15.623875
12.450000	1	17.726625
12.466667	1	20.091750
12.483333	1	22.708125
12.500000	1	25.552250
12.516667	1	28.581125
12.533333	1	31.734125
12.550000	1	34.937000
12.566667	1	38.107750
12.583333	1	41.159375
12.600000	1	44.006500
12.616667	1	46.570000
12.633333	1	48.786500
12.650000	1	50.607625
12.666667	1	52.001500
12.683333	1	52.952875
12.700000	1	53.464625
12.716667	1	53.553375
12.733333	1	53.248875
12.750000	1	52.590500
12.766667	1	51.623625
12.783333	1	50.394750
12.800000	1	48.953250
12.816667	1	47.347125
12.833333	1	45.618250
12.850000	1	43.805250
12.866667	1	41.942000
12.883333	1	40.057250
12.900000	1	38.176375
12.916667	1	36.320500
12.933333	1	34.503750
12.950000	1	32.739750
12.966667	1	31.035625
12.983333	1	29.398250
13.000000	1	27.830125
13.016667	1	26.332750
13.033333	1	24.904500
13.050000	1	23.543125
13.066667	1	22.244875
13.083333	1	21.007000
13.100000	1	19.826250
13.116667	1	18.699500
13.133333	1	17.624375
13.150000	1	16.596125
13.166667	1	15.613750
13.183333	1	14.673125
13.200000	1	13.771500
13.216667	1	12.905750
13.233333	1	12.072250
13.250000	1	11.268375
13.266667	1	10.489500
13.283333	1	9.733000
13.300000	1	8.994625
13.316667	1	8.274875
13.333333	1	7.575000
13.350000	1	6.901375
13.366667	1	6.267875
13.383333	1	5.687500
13.400000	1	5.170500
13.416667	1	4.720875
13.433333	1	4.335875
13.450000	1	4.008750
13.466667	1	3.731000
13.483333	1	3.495250
13.500000	1	3.293250
13.516667	1	3.119375
13.533333	1	2.968500
13.550000	1	2.836875
13.566667	1	2.720375
13.583333	1	2.616875
13.600000	1	2.524750
13.616667	1	2.441250
13.633333	1	2.365875
13.650000	1	2.297125
13.666667	1	2.233875
13.683333	1	2.176125
13.700000	1	2.122375
13.716667	1	2.071375
13.733333	1	2.023875
13.750000	1	1.979250
13.766667	1	1.935875
13.783333	1	1.894500
13.800000	1	1.854875
13.816667	1	1.816750
13.833333	1	1.779000
13.850000	1	1.742375
13.866667	1	1.707000
13.883333	1	1.672500
13.900000	1	1.637750
13.916667	1	1.604375
13.933333	1	1.570750
13.950000	1	1.538625
13.966667	1	1.507000
13.983333	1	1.475500
14.000000	1	1.444500
14.016667	1	1.414375
14.033333	1	1.385375
14.050000	1	1.357375
14.066667	1	1.329750
14.083333	1	1.302875
14.100000	1	1.276625
14.116667	1	1.250750
14.133333	1	1.227000
14.150000	1	1.204250
14.166667	1	1.182375
14.183333	1	1.161250
14.200000	1	1.141500
14.216667	1	1.122000
14.233333	1	1.104625
14.250000	1	1.087375
14.266667	1	1.072125
14.283333	1	1.056750
14.300000	1	1.043125
14.316667	1	1.031125
14.333333	1	1.019375
14.350000	1	1.009125
14.366667	1	1.000000
14.383333	1	0.991875
14.400000	1	0.984375
14.416667	1	0.977250
14.433333	1	0.971375
14.450000	1	0.966250
14.466667	1	0.961500
14.483333	1	0.956625
14.500000	1	0.951750
14.516667	1	0.947250
14.533333	1	0.942500
14.550000	1	0.938875
14.566667	1	0.934375
14.583333	1	0.929875
14.600000	1	0.925500
14.616667	1	0.920250
14.633333	1	0.915375
14.650000	1	0.911375
14.666667	1	0.907750
14.683333	1	0.903000
14.700000	1	0.898750
14.716667	1	0.894875
14.733333	1	0.891625
14.750000	1	0.888500
14.766667	1	0.885500
14.783333	1	0.883375
14.800000	1	0.881500
14.816667	1	0.879250
14.833333	1	0.878000
14.850000	1	0.876500
14.866667	1	0.875500
14.883333	1	0.874625
14.900000	1	0.873375
14.916667	1	0.872500
14.933333	1	0.871250
14.950000	1	0.870000
14.966667	1	0.868500
14.983333	1	0.867250
15.000000	1	0.865625
15.016667	1	0.863000
15.033333	1	0.861250
15.050000	1	0.859125
15.066667	1	0.856250
15.083333	1	0.853250
15.100000	1	0.850125
15.116667	1	0.847125
15.133333	1	0.843875
15.150000	1	0.840375
15.166667	1	0.837625
15.183333	1	0.835375
15.200000	1	0.832750
15.216667	1	0.829875
15.233333	1	0.827875
15.250000	1	0.826625
15.266667	1	0.824625
15.283333	1	0.823875
15.300000	1	0.823125
15.316667	1	0.823500
15.333333	1	0.824125
15.350000	1	0.824625
15.366667	1	0.826125
15.383333	1	0.828875
15.400000	1	0.832000
15.416667	1	0.836750
15.433333	1	0.842625
15.450000	1	0.849750
15.466667	1	0.859375
15.483333	1	0.869875
15.500000	1	0.882375
15.516667	1	0.896500
15.533333	1	0.912250
15.550000	1	0.929000
15.566667	1	0.947375
15.583333	1	0.965625
15.600000	1	0.984250
15.616667	1	1.002625
15.633333	1	1.020125
15.650000	1	1.035750
15.666667	1	1.049500
15.683333	1	1.060875
15.700000	1	1.069875
15.716667	1	1.075500
15.733333	1	1.078750
15.750000	1	1.079875
15.766667	1	1.079000
15.783333	1	1.076125
15.800000	1	1.071625
15.816667	1	1.065250
15.833333	1	1.057000
15.850000	1	1.048000
15.866667	1	1.038875
15.883333	1	1.029500
15.900000	1	1.019375
15.916667	1	1.008625
15.933333	1	0.997625
15.950000	1	0.987250
15.966667	1	0.976500
15.983333	1	0.966625
16.000000	1	0.957000
16.016667	1	0.947750
16.033333	1	0.938625
16.050000	1	0.930375
16.066667	1	0.922500
16.083333	1	0.916375
16.100000	1	0.910250
16.116667	1	0.904875
16.133333	1	0.900000
16.150000	1	0.895875
16.166667	1	0.892500
16.183333	1	0.889000
16.200000	1	0.886125
16.216667	1	0.883125
16.233333	1	0.880625
16.250000	1	0.878375
16.266667	1	0.876250
16.283333	1	0.874000
16.300000	1	0.871875
16.316667	1	0.870125
16.333333	1	0.868250
16.350000	1	0.866500
16.366667	1	0.864750
16.383333	1	0.863000
16.400000	1	0.860875
16.416667	1	0.858625
16.433333	1	0.857375
16.450000	1	0.856125
16.466667	1	0.855250
16.483333	1	0.854500
16.500000	1	0.854000
16.516667	1	0.854625
16.533333	1	0.855000
16.550000	1	0.855750
16.566667	1	0.855750
16.583333	1	0.856375
16.600000	1	0.857250
16.616667	1	0.858250
16.633333	1	0.859000
16.650000	1	0.860625
16.666667	1	0.862625
16.683333	1	0.863750
16.700000	1	0.865625
16.716667	1	0.867250
16.733333	1	0.869625
16.750000	1	0.872500
16.766667	1	0.874875
16.783333	1	0.878250
16.800000	1	0.880625
16.816667	1	0.883875
16.833333	1	0.886625
16.850000	1	0.889625
16.866667	1	0.891875
16.883333	1	0.894375
16.900000	1	0.896500
16.916667	1	0.899125
16.933333	1	0.900500
16.950000	1	0.902125
16.966667	1	0.903125
16.983333	1	0.903625
17.000000	1	0.904750
17.016667	1	0.904875
17.033333	1	0.905250
17.050000	1	0.906000
17.066667	1	0.906250
17.083333	1	0.906125
17.100000	1	0.906000
17.116667	1	0.904875
17.133333	1	0.903500
17.150000	1	0.901250
17.166667	1	0.898750
17.183333	1	0.896000
17.200000	1	0.892250
17.216667	1	0.887625
17.233333	1	0.882625
17.250000	1	0.877000
17.266667	1	0.870875
17.283333	1	0.863750
17.300000	1	0.856750
17.316667	1	0.848875
17.333333	1	0.840500
17.350000	1	0.832000
17.366667	1	0.823250
17.383333	1	0.815250
17.400000	1	0.807000
17.416667	1	0.798750
17.433333	1	0.790375
17.450000	1	0.783500
17.466667	1	0.776375
17.483333	1	0.770625
17.500000	1	0.765125
17.516667	1	0.760250
17.533333	1	0.756125
17.550000	1	0.753250
17.566667	1	0.751250
17.583333	1	0.750375
17.600000	1	0.750750
17.616667	1	0.751875
17.633333	1	0.754250
17.650000	1	0.757500
17.666667	1	0.761625
17.683333	1	0.767000
17.700000	1	0.772625
17.716667	1	0.779000
17.733333	1	0.786500
17.750000	1	0.794500
17.766667	1	0.803875
17.783333	1	0.812375
17.800000	1	0.821000
17.816667	1	0.829625
17.833333	1	0.838625
17.850000	1	0.847500
17.866667	1	0.856000
17.883333	1	0.863375
17.900000	1	0.870375
17.916667	1	0.875875
17.933333	1	0.880875
17.950000	1	0.884750
17.966667	1	0.887750
17.983333	1	0.888750
18.000000	1	0.889000
18.016667	1	0.887875
18.033333	1	0.886500
18.050000	1	0.882625
18.066667	1	0.878375
18.083333	1	0.873500
18.100000	1	0.867750
18.116667	1	0.861125
18.133333	1	0.852500
18.150000	1	0.844750
18.166667	1	0.836875
18.183333	1	0.827750
18.200000	1	0.817875
18.216667	1	0.808250
18.233333	1	0.798500
18.250000	1	0.789125
18.266667	1	0.779250
18.283333	1	0.770000
18.300000	1	0.761250
18.316667	1	0.753000
18.333333	1	0.744625
18.350000	1	0.736625
18.366667	1	0.729500
18.383333	1	0.722250
18.400000	1	0.716125
18.416667	1	0.710250
18.433333	1	0.705000
18.450000	1	0.700375
18.466667	1	0.696250
18.483333	1	0.692375
18.500000	1	0.689125
18.516667	1	0.686375
18.533333	1	0.684500
18.550000	1	0.683000
18.566667	1	0.682625
18.583333	1	0.681500
18.600000	1	0.681250
18.616667	1	0.681625
18.633333	1	0.682875
18.650000	1	0.684500
18.666667	1	0.686500
18.683333	1	0.688750
18.700000	1	0.692625
18.716667	1	0.696250
18.733333	1	0.700750
18.750000	1	0.705375
18.766667	1	0.710750
18.783333	1	0.716875
18.800000	1	0.723375
18.816667	1	0.729875
18.833333	1	0.737000
18.850000	1	0.745125
18.866667	1	0.754000
18.883333	1	0.762750
18.900000	1	0.772000
18.916667	1	0.782250
18.933333	1	0.793750
18.950000	1	0.805750
18.966667	1	0.818125
18.983333	1	0.831750
19.000000	1	0.846750
19.016667	1	0.863500
19.033333	1	0.881875
19.050000	1	0.900500
19.066667	1	0.921625
19.083333	1	0.944250
19.100000	1	0.969000
19.116667	1	0.995000
19.133333	1	1.023125
19.150000	1	1.053375
19.166667	1	1.084125
19.183333	1	1.115125
19.200000	1	1.146250
19.216667	1	1.177625
19.233333	1	1.208125
19.250000	1	1.237125
19.266667	1	1.265500
19.283333	1	1.291125
19.300000	1	1.314250
19.316667	1	1.333250
19.333333	1	1.348500
19.350000	1	1.360625
19.366667	1	1.368625
19.383333	1	1.371875
19.400000	1	1.371750
19.416667	1	1.366875
19.433333	1	1.357625
19.450000	1	1.344750
19.466667	1	1.328750
19.483333	1	1.310375
19.500000	1	1.289000
19.516667	1	1.264500
19.533333	1	1.238500
19.550000	1	1.210500
19.566667	1	1.181500
19.583333	1	1.152250
19.600000	1	1.123250
19.616667	1	1.093500
19.633333	1	1.064750
19.650000	1	1.037375
19.666667	1	1.010750
19.683333	1	0.985000
19.700000	1	0.961375
19.716667	1	0.939750
19.733333	1	0.919625
19.750000	1	0.902750
19.766667	1	0.887875
19.783333	1	0.875500
19.800000	1	0.865000
19.816667	1	0.857875
19.833333	1	0.852750
19.850000	1	0.849375
19.866667	1	0.848750
19.883333	1	0.849000
19.900000	1	0.851250
19.916667	1	0.854875
19.933333	1	0.859500
19.950000	1	0.865500
19.966667	1	0.872000
19.983333	1	0.878750
20.000000	1	0.885125
20.016667	1	0.891375
20.033333	1	0.897500
20.050000	1	0.903750
20.066667	1	0.909875
20.083333	1	0.915750
20.100000	1	0.921250
20.116667	1	0.925875
20.133333	1	0.930125
20.150000	1	0.934750
20.166667	1	0.938125
20.183333	1	0.942125
20.200000	1	0.946250
20.216667	1	0.950375
20.233333	1	0.955000
20.250000	1	0.960000
20.266667	1	0.965625
20.283333	1	0.971625
20.300000	1	0.978500
20.316667	1	0.986250
20.333333	1	0.994500
20.350000	1	1.003375
20.366667	1	1.012875
20.383333	1	1.023250
20.400000	1	1.033500
20.416667	1	1.043625
20.433333	1	1.053875
20.450000	1	1.063375
20.466667	1	1.073125
20.483333	1	1.080750
20.500000	1	1.087250
20.516667	1	1.093875
20.533333	1	1.098875
20.550000	1	1.102625
20.566667	1	1.105000
20.583333	1	1.106750
20.600000	1	1.107000
20.616667	1	1.107125
20.633333	1	1.106250
20.650000	1	1.105250
20.666667	1	1.103750
20.683333	1	1.102250
20.700000	1	1.102750
20.716667	1	1.103625
20.733333	1	1.106125
20.750000	1	1.110250
20.766667	1	1.116625
20.783333	1	1.125000
20.800000	1	1.135750
20.816667	1	1.148125
20.833333	1	1.162875
20.850000	1	1.179250
20.866667	1	1.197875
20.883333	1	1.217250
20.900000	1	1.236875
20.916667	1	1.256500
20.933333	1	1.275750
20.950000	1	1.292250
20.966667	1	1.307750
20.983333	1	1.320000
21.000000	1	1.329375
21.016667	1	1.334125
21.033333	1	1.335500
21.050000	1	1.333000
21.066667	1	1.325875
21.083333	1	1.314375
21.100000	1	1.299250
21.116667	1	1.280250
21.133333	1	1.257875
21.150000	1	1.232125
21.166667	1	1.203625
21.183333	1	1.173500
21.200000	1	1.141375
21.216667	1	1.108125
21.233333	1	1.074500
21.250000	1	1.039875
21.266667	1	1.005375
21.283333	1	0.970250
21.300000	1	0.936375
21.316667	1	0.902750
21.333333	1	0.870375
21.350000	1	0.839000
21.366667	1	0.808875
21.383333	1	0.780375
21.400000	1	0.752875
21.416667	1	0.726875
21.433333	1	0.703125
21.450000	1	0.680125
21.466667	1	0.659625
21.483333	1	0.640250
21.500000	1	0.622375
21.516667	1	0.606875
21.533333	1	0.593375
21.550000	1	0.580125
21.566667	1	0.568875
21.583333	1	0.557875
21.600000	1	0.550375
21.616667	1	0.543500
21.633333	1	0.538000
21.650000	1	0.533375
21.666667	1	0.530125
21.683333	1	0.528750
21.700000	1	0.527875
21.716667	1	0.528125
21.733333	1	0.530250
21.750000	1	0.532500
21.766667	1	0.536875
21.783333	1	0.542125
21.800000	1	0.548125
21.816667	1	0.555625
21.833333	1	0.563750
21.850000	1	0.573500
21.866667	1	0.583875
21.883333	1	0.595125
21.900000	1	0.607375
21.916667	1	0.618875
21.933333	1	0.632000
21.950000	1	0.644375
21.966667	1	0.656250
21.983333	1	0.668250
22.000000	1	0.679500
22.016667	1	0.690000
22.033333	1	0.699000
22.050000	1	0.707375
22.066667	1	0.714000
22.083333	1	0.719500
22.100000	1	0.723625
22.116667	1	0.725875
22.133333	1	0.726500
22.150000	1	0.725875
22.166667	1	0.723875
22.183333	1	0.720000
22.200000	1	0.715750
22.216667	1	0.709750
22.233333	1	0.703000
22.250000	1	0.695125
22.266667	1	0.687000
22.283333	1	0.678125
22.300000	1	0.669000
22.316667	1	0.659625
22.333333	1	0.650625
22.350000	1	0.641125
22.366667	1	0.632625
22.383333	1	0.624375
22.400000	1	0.616125
22.416667	1	0.608250
22.433333	1	0.601250
22.450000	1	0.594625
22.466667	1	0.588750
22.483333	1	0.583500
22.500000	1	0.578125
22.516667	1	0.573125
22.533333	1	0.569375
22.550000	1	0.566125
22.566667	1	0.563125
22.583333	1	0.561000
22.600000	1	0.558875
22.616667	1	0.557125
22.633333	1	0.555500
22.650000	1	0.553625
22.666667	1	0.552750
22.683333	1	0.551625
22.700000	1	0.550625
22.716667	1	0.549375
22.733333	1	0.547875
22.750000	1	0.547125
22.766667	1	0.545625
22.783333	1	0.543750
22.800000	1	0.542625
22.816667	1	0.540750
22.833333	1	0.538250
22.850000	1	0.535250
22.866667	1	0.532000
22.883333	1	0.528750
22.900000	1	0.525250
22.916667	1	0.522375
22.933333	1	0.518875
22.950000	1	0.515250
22.966667	1	0.511125
22.983333	1	0.507125
23.000000	1	0.504000
23.016667	1	0.501125
23.033333	1	0.498625
23.050000	1	0.495625
23.066667	1	0.493125
23.083333	1	0.491500
23.100000	1	0.490875
23.116667	1	0.491875
23.133333	1	0.493125
23.150000	1	0.494500
23.166667	1	0.497875
23.183333	1	0.502250
23.200000	1	0.507625
23.216667	1	0.515000
23.233333	1	0.523625
23.250000	1	0.533750
23.266667	1	0.545250
23.283333	1	0.559500
23.300000	1	0.575375
23.316667	1	0.592375
23.333333	1	0.612375
23.350000	1	0.633875
23.366667	1	0.658125
23.383333	1	0.684125
23.400000	1	0.712000
23.416667	1	0.742750
23.433333	1	0.775750
23.450000	1	0.812000
23.466667	1	0.852250
23.483333	1	0.894500
23.500000	1	0.941125
23.516667	1	0.991625
23.533333	1	1.046375
23.550000	1	1.106125
23.566667	1	1.170125
23.583333	1	1.239750
23.600000	1	1.315250
23.616667	1	1.397500
23.633333	1	1.485500
23.650000	1	1.580000
23.666667	1	1.682000
23.683333	1	1.790875
23.700000	1	1.906875
23.716667	1	2.029625
23.733333	1	2.159000
23.750000	1	2.294000
23.766667	1	2.433500
23.783333	1	2.575500
23.800000	1	2.719375
23.816667	1	2.862375
23.833333	1	3.003500
23.850000	1	3.140000
23.866667	1	3.271250
23.883333	1	3.393625
23.900000	1	3.506000
23.916667	1	3.607625
23.933333	1	3.695375
23.950000	1	3.768625
23.966667	1	3.825750
23.983333	1	3.866625
24.000000	1	3.890750
24.016667	1	3.897750
24.033333	1	3.888250
24.050000	1	3.863500
24.066667	1	3.823000
24.083333	1	3.767750
24.100000	1	3.700000
24.116667	1	3.621000
24.133333	1	3.530875
24.150000	1	3.432125
24.166667	1	3.326125
24.183333	1	3.213875
24.200000	1	3.097625
24.216667	1	2.977875
24.233333	1	2.856750
24.250000	1	2.735375
24.266667	1	2.614125
24.283333	1	2.494875
24.300000	1	2.377750
24.316667	1	2.263750
24.333333	1	2.152125
24.350000	1	2.044875
24.366667	1	1.942625
24.383333	1	1.845875
24.400000	1	1.752500
24.416667	1	1.664375
24.433333	1	1.581375
24.450000	1	1.502875
24.466667	1	1.429625
24.483333	1	1.361125
24.500000	1	1.296750
24.516667	1	1.237500
24.533333	1	1.182375
24.550000	1	1.131125
24.566667	1	1.084000
24.583333	1	1.040125
24.600000	1	0.999500
24.616667	1	0.961250
24.633333	1	0.926250
24.650000	1	0.893250
24.666667	1	0.862625
24.683333	1	0.833000
24.700000	1	0.806000
24.716667	1	0.780875
24.733333	1	0.756375
24.750000	1	0.732625
24.766667	1	0.710500
24.783333	1	0.689375
24.800000	1	0.668250
24.816667	1	0.648000
24.833333	1	0.628500
24.850000	1	0.610000
24.866667	1	0.591375
24.883333	1	0.573625
24.900000	1	0.556750
24.916667	1	0.540500
24.933333	1	0.524500
24.950000	1	0.508625
24.966667	1	0.493000
24.983333	1	0.477750
25.000000	1	0.463625
25.016667	1	0.450125
25.033333	1	0.436750
25.050000	1	0.424500
25.066667	1	0.412750
25.083333	1	0.402000
25.100000	1	0.391250
25.116667	1	0.381125
25.133333	1	0.371375
25.150000	1	0.363375
25.166667	1	0.355375
25.183333	1	0.347875
25.200000	1	0.342250
25.216667	1	0.335750
25.233333	1	0.330500
25.250000	1	0.326375
25.266667	1	0.322125
25.283333	1	0.317875
25.300000	1	0.314750
25.316667	1	0.312625
25.333333	1	0.310875
25.350000	1	0.309375
25.366667	1	0.308500
25.383333	1	0.307750
25.400000	1	0.308000
25.416667	1	0.307750
25.433333	1	0.307375
25.450000	1	0.307625
25.466667	1	0.308125
25.483333	1	0.308500
25.500000	1	0.309500
25.516667	1	0.310500
25.533333	1	0.311750
25.550000	1	0.312375
25.566667	1	0.313500
25.583333	1	0.314375
25.600000	1	0.315250
25.616667	1	0.316125
25.633333	1	0.316750
25.650000	1	0.318250
25.666667	1	0.319500
25.683333	1	0.320125
25.700000	1	0.320500
25.716667	1	0.321125
25.733333	1	0.321750
25.750000	1	0.322500
25.766667	1	0.322375
25.783333	1	0.323125
25.800000	1	0.323250
25.816667	1	0.323250
25.833333	1	0.324000
25.850000	1	0.324375
25.866667	1	0.324500
25.883333	1	0.324625
25.900000	1	0.324625
25.916667	1	0.325000
25.933333	1	0.324875
25.950000	1	0.325125
25.966667	1	0.325750
25.983333	1	0.325875
26.000000	1	0.326000
26.016667	1	0.326125
26.033333	1	0.326875
26.050000	1	0.327125
26.066667	1	0.327750
26.083333	1	0.327500
26.100000	1	0.327875
26.116667	1	0.327875
26.133333	1	0.328375
26.150000	1	0.328125
26.166667	1	0.329250
26.183333	1	0.329625
26.200000	1	0.330000
26.216667	1	0.330000
26.233333	1	0.330875
26.250000	1	0.331000
26.266667	1	0.332500
26.283333	1	0.333500
26.300000	1	0.334875
26.316667	1	0.336125
26.333333	1	0.337250
26.350000	1	0.338375
26.366667	1	0.340000
26.383333	1	0.342000
26.400000	1	0.343375
26.416667	1	0.344625
26.433333	1	0.346500
26.450000	1	0.347750
26.466667	1	0.349375
26.483333	1	0.350375
26.500000	1	0.351750
26.516667	1	0.352875
26.533333	1	0.354625
26.550000	1	0.355875
26.566667	1	0.357000
26.583333	1	0.356750
26.600000	1	0.357000
26.616667	1	0.356500
26.633333	1	0.355625
26.650000	1	0.355250
26.666667	1	0.354500
26.683333	1	0.353250
26.700000	1	0.352750
26.716667	1	0.351500
26.733333	1	0.349000
26.750000	1	0.347000
26.766667	1	0.344625
26.783333	1	0.342250
26.800000	1	0.339750
26.816667	1	0.336625
26.833333	1	0.333875
26.850000	1	0.330875
26.866667	1	0.328500
26.883333	1	0.326625
26.900000	1	0.324875
26.916667	1	0.322875
26.933333	1	0.320625
26.950000	1	0.319750
26.966667	1	0.318875
26.983333	1	0.318625
27.000000	1	0.318750
27.016667	1	0.319750
27.033333	1	0.320625
27.050000	1	0.322375
27.066667	1	0.324250
27.083333	1	0.327750
27.100000	1	0.331250
27.116667	1	0.335250
27.133333	1	0.339750
27.150000	1	0.345250
27.166667	1	0.351375
27.183333	1	0.358750
27.200000	1	0.366625
27.216667	1	0.375750
27.233333	1	0.385500
27.250000	1	0.396125
27.266667	1	0.407625
27.283333	1	0.420000
27.300000	1	0.433250
27.316667	1	0.448000
27.333333	1	0.463625
27.350000	1	0.480750
27.366667	1	0.498750
27.383333	1	0.518125
27.400000	1	0.538750
27.416667	1	0.560125
27.433333	1	0.582125
27.450000	1	0.606750
27.466667	1	0.631875
27.483333	1	0.659125
27.500000	1	0.688125
27.516667	1	0.718500
27.533333	1	0.751250
27.550000	1	0.786625
27.566667	1	0.823875
27.583333	1	0.863000
27.600000	1	0.905625
27.616667	1	0.951000
27.633333	1	0.999250
27.650000	1	1.052000
27.666667	1	1.108375
27.683333	1	1.169250
27.700000	1	1.234625
27.716667	1	1.305000
27.733333	1	1.379750
27.750000	1	1.459750
27.766667	1	1.543625
27.783333	1	1.632750
27.800000	1	1.726750
27.816667	1	1.826250
27.833333	1	1.929375
27.850000	1	2.037000
27.866667	1	2.148125
27.883333	1	2.261250
27.900000	1	2.376750
27.916667	1	2.493000
27.933333	1	2.608875
27.950000	1	2.724375
27.966667	1	2.837000
27.983333	1	2.946000
28.000000	1	3.050000
28.016667	1	3.148625
28.033333	1	3.240000
28.050000	1	3.322625
28.066667	1	3.396625
28.083333	1	3.460375
28.100000	1	3.512750
28.116667	1	3.553375
28.133333	1	3.581375
28.150000	1	3.596625
28.166667	1	3.598500
28.183333	1	3.586500
28.200000	1	3.561500
28.216667	1	3.524125
28.233333	1	3.474125
28.250000	1	3.412125
28.266667	1	3.338375
28.283333	1	3.255000
28.300000	1	3.162625
28.316667	1	3.061375
28.333333	1	2.952750
28.350000	1	2.837875
28.366667	1	2.717875
28.383333	1	2.594000
28.400000	1	2.466625
28.416667	1	2.337500
28.433333	1	2.207375
28.450000	1	2.077250
28.466667	1	1.947375
28.483333	1	1.818500
28.500000	1	1.691125
28.516667	1	1.566875
28.533333	1	1.444750
28.550000	1	1.326125
28.566667	1	1.211625
28.583333	1	1.101000
28.600000	1	0.994250
28.616667	1	0.891500
28.633333	1	0.791750
28.650000	1	0.696500
28.666667	1	0.606000
28.683333	1	0.518375
28.700000	1	0.435375
28.716667	1	0.355875
28.733333	1	0.280750
28.750000	1	0.209000
28.766667	1	0.141125
28.783333	1	0.075875
28.800000	1	0.015000
28.816667	1	-0.043000
28.833333	1	-0.098125
28.850000	1	-0.149250
28.866667	1	-0.196875
28.883333	1	-0.241750
28.900000	1	-0.283250
28.916667	1	-0.321375
28.933333	1	-0.356875
28.950000	1	-0.388875
28.966667	1	-0.417875
28.983333	1	-0.443125
29.000000	1	-0.465750
29.016667	1	-0.484750
29.033333	1	-0.500500
29.050000	1	-0.513375
29.066667	1	-0.522375
29.083333	1	-0.528750
29.100000	1	-0.532000
29.116667	1	-0.532750
29.133333	1	-0.529875
29.150000	1	-0.524000
29.166667	1	-0.515875
29.183333	1	-0.505125
29.200000	1	-0.492125
29.216667	1	-0.476375
29.233333	1	-0.458750
29.250000	1	-0.438875
29.266667	1	-0.416750
29.283333	1	-0.393375
29.300000	1	-0.369000
29.316667	1	-0.343250
29.333333	1	-0.314875
29.350000	1	-0.286375
29.366667	1	-0.257750
29.383333	1	-0.227875
29.400000	1	-0.197875
29.416667	1	-0.167750
29.433333	1	-0.137125
29.450000	1	-0.106625
29.466667	1	-0.076375
29.483333	1	-0.046250
29.500000	1	-0.016375
29.516667	1	0.012875
29.533333	1	0.042000
29.550000	1	0.070000
29.566667	1	0.097000
29.583333	1	0.124125
29.600000	1	0.149875
29.616667	1	0.173875
29.633333	1	0.198375
29.650000	1	0.221875
29.666667	1	0.243250
29.683333	1	0.263500
29.700000	1	0.283625
29.716667	1	0.302500
29.733333	1	0.319750
29.750000	1	0.335375
29.766667	1	0.350500
29.783333	1	0.364750
29.800000	1	0.377250
29.816667	1	0.389500
29.833333	1	0.401375
29.850000	1	0.411375
29.866667	1	0.420375
29.883333	1	0.428750
29.900000	1	0.435500
29.916667	1	0.442125
29.933333	1	0.447875
29.950000	1	0.453875
29.966667	1	0.458500
29.983333	1	0.463250
30.000000	1	0.467500
30.016667	1	0.471125
30.033333	1	0.474750
30.050000	1	0.478125
30.066667	1	0.481500
30.083333	1	0.484375
30.100000	1	0.487750
30.116667	1	0.491000
30.133333	1	0.493500
30.150000	1	0.496375
30.166667	1	0.499500
30.183333	1	0.503250
30.200000	1	0.507375
30.216667	1	0.511125
30.233333	1	0.515500
30.250000	1	0.520000
30.266667	1	0.524750
30.283333	1	0.530375
30.300000	1	0.536125
30.316667	1	0.542250
30.333333	1	0.549250
30.350000	1	0.556875
30.366667	1	0.565000
30.383333	1	0.573625
30.400000	1	0.582750
30.416667	1	0.592125
30.433333	1	0.602500
30.450000	1	0.614000
30.466667	1	0.626625
30.483333	1	0.640000
30.500000	1	0.655125
30.516667	1	0.671000
30.533333	1	0.687375
30.550000	1	0.704625
30.566667	1	0.723125
30.583333	1	0.742750
30.600000	1	0.763750
30.616667	1	0.786750
30.633333	1	0.810625
30.650000	1	0.835250
30.666667	1	0.861500
30.683333	1	0.888625
30.700000	1	0.916375
30.716667	1	0.944750
30.733333	1	0.974250
30.750000	1	1.003625
30.766667	1	1.033500
30.783333	1	1.063375
30.800000	1	1.093250
30.816667	1	1.122500
30.833333	1	1.150875
30.850000	1	1.178375
30.866667	1	1.203875
30.883333	1	1.227750
30.900000	1	1.250000
30.916667	1	1.269750
30.933333	1	1.287000
30.950000	1	1.301125
30.966667	1	1.312750
30.983333	1	1.321250
31.000000	1	1.327125
31.016667	1	1.328625
31.033333	1	1.328250
31.050000	1	1.324875
31.066667	1	1.317125
31.083333	1	1.306625
31.100000	1	1.292625
31.116667	1	1.276625
31.133333	1	1.257500
31.150000	1	1.235875
31.166667	1	1.211625
31.183333	1	1.185250
31.200000	1	1.157625
31.216667	1	1.128125
31.233333	1	1.097625
31.250000	1	1.065875
31.266667	1	1.033125
31.283333	1	0.999875
31.300000	1	0.967125
31.316667	1	0.933625
31.333333	1	0.900125
31.350000	1	0.867000
31.366667	1	0.834000
31.383333	1	0.801625
31.400000	1	0.770375
31.416667	1	0.740500
31.433333	1	0.711500
31.450000	1	0.683500
31.466667	1	0.655875
31.483333	1	0.629875
31.500000	1	0.604750
31.516667	1	0.580375
31.533333	1	0.557875
31.550000	1	0.536875
31.566667	1	0.516875
31.583333	1	0.498375
31.600000	1	0.480750
31.616667	1	0.464250
31.633333	1	0.449250
31.650000	1	0.435125
31.666667	1	0.422625
31.683333	1	0.410750
31.700000	1	0.400000
31.716667	1	0.389500
31.733333	1	0.380500
31.750000	1	0.372500
31.766667	1	0.365250
31.783333	1	0.359125
31.800000	1	0.353500
31.816667	1	0.348875
31.833333	1	0.344625
31.850000	1	0.341750
31.866667	1	0.339125
31.883333	1	0.336500
31.900000	1	0.334625
31.916667	1	0.333500
31.933333	1	0.332250
31.950000	1	0.331625
31.966667	1	0.331375
31.983333	1	0.331625
32.000000	1	0.332000
32.016667	1	0.333250
32.033333	1	0.334000
32.050000	1	0.334750
32.066667	1	0.335875
32.083333	1	0.336875
32.100000	1	0.337750
32.116667	1	0.338125
32.133333	1	0.339125
32.150000	1	0.340375
32.166667	1	0.341000
32.183333	1	0.342000
32.200000	1	0.341250
32.216667	1	0.340375
32.233333	1	0.339875
32.250000	1	0.339250
32.266667	1	0.338500
32.283333	1	0.337125
32.300000	1	0.335500
32.316667	1	0.333875
32.333333	1	0.331625
32.350000	1	0.328625
32.366667	1	0.325500
32.383333	1	0.322125
32.400000	1	0.318750
32.416667	1	0.315500
32.433333	1	0.311750
32.450000	1	0.307625
32.466667	1	0.303875
32.483333	1	0.299750
32.500000	1	0.295250
32.516667	1	0.291000
32.533333	1	0.285750
32.550000	1	0.280500
32.566667	1	0.275250
32.583333	1	0.269500
32.600000	1	0.263875
32.616667	1	0.258000
32.633333	1	0.252375
32.650000	1	0.247375
32.666667	1	0.241375
32.683333	1	0.235125
32.700000	1	0.228500
32.716667	1	0.222500
32.733333	1	0.216125
32.750000	1	0.209875
32.766667	1	0.203500
32.783333	1	0.197375
32.800000	1	0.190000
32.816667	1	0.183250
32.833333	1	0.176625
32.850000	1	0.170125
32.866667	1	0.163250
32.883333	1	0.157500
32.900000	1	0.151125
32.916667	1	0.144375
32.933333	1	0.137875
32.950000	1	0.132375
32.966667	1	0.126250
32.983333	1	0.120000
33.000000	1	0.114750
33.016667	1	0.109375
33.033333	1	0.104250
33.050000	1	0.099000
33.066667	1	0.094375
33.083333	1	0.089875
33.100000	1	0.085750
33.116667	1	0.081625
33.133333	1	0.077625
33.150000	1	0.073500
33.166667	1	0.069750
33.183333	1	0.066500
33.200000	1	0.063750
33.216667	1	0.060500
33.233333	1	0.058000
33.250000	1	0.056375
33.266667	1	0.053875
33.283333	1	0.051750
33.300000	1	0.049625
33.316667	1	0.047750
33.333333	1	0.045875
33.350000	1	0.044500
33.366667	1	0.043875
33.383333	1	0.042875
33.400000	1	0.042125
33.416667	1	0.041500
33.433333	1	0.040875
33.450000	1	0.040750
33.466667	1	0.041125
33.483333	1	0.041125
33.500000	1	0.041500
33.516667	1	0.042250
33.533333	1	0.043000
33.550000	1	0.043875
33.566667	1	0.044875
33.583333	1	0.046375
33.600000	1	0.048000
33.616667	1	0.049750
33.633333	1	0.051625
33.650000	1	0.054125
33.666667	1	0.056000
33.683333	1	0.058875
33.700000	1	0.061500
33.716667	1	0.064000
33.733333	1	0.067125
33.750000	1	0.070375
33.766667	1	0.073875
33.783333	1	0.078500
33.800000	1	0.083250
33.816667	1	0.087000
33.833333	1	0.091500
33.850000	1	0.096875
33.866667	1	0.103250
33.883333	1	0.109125
33.900000	1	0.116125
33.916667	1	0.122375
33.933333	1	0.129375
33.950000	1	0.137000
33.966667	1	0.145000
33.983333	1	0.153625
34.000000	1	0.163250
34.016667	1	0.172375
34.033333	1	0.182250
34.050000	1	0.191875
34.066667	1	0.202250
34.083333	1	0.213125
34.100000	1	0.223000
34.116667	1	0.235000
34.133333	1	0.246625
34.150000	1	0.258750
34.166667	1	0.270000
34.183333	1	0.281625
34.200000	1	0.293875
34.216667	1	0.306375
34.233333	1	0.318000
34.250000	1	0.330000
34.266667	1	0.341500
34.283333	1	0.351750
34.300000	1	0.362250
34.316667	1	0.371000
34.333333	1	0.379375
34.350000	1	0.387750
34.366667	1	0.395750
34.383333	1	0.401750
34.400000	1	0.406875
34.416667	1	0.411125
34.433333	1	0.414875
34.450000	1	0.417125
34.466667	1	0.418625
34.483333	1	0.419000
34.500000	1	0.417750
34.516667	1	0.415500
34.533333	1	0.412375
34.550000	1	0.407500
34.566667	1	0.402875
34.583333	1	0.397375
34.600000	1	0.390375
34.616667	1	0.383125
34.633333	1	0.375000
34.650000	1	0.366250
34.666667	1	0.357000
34.683333	1	0.347500
34.700000	1	0.337500
34.716667	1	0.327125
34.733333	1	0.317000
34.750000	1	0.305500
34.766667	1	0.294625
34.783333	1	0.283375
34.800000	1	0.272500
34.816667	1	0.261250
34.833333	1	0.250625
34.850000	1	0.240625
34.866667	1	0.230000
34.883333	1	0.219500
34.900000	1	0.210250
34.916667	1	0.201125
34.933333	1	0.191625
34.950000	1	0.183000
34.966667	1	0.174250
34.983333	1	0.166750
35.000000	1	0.159625
35.016667	1	0.152125
35.033333	1	0.145375
35.050000	1	0.139625
35.066667	1	0.134125
35.083333	1	0.129125
35.100000	1	0.125000
35.116667	1	0.120250
35.133333	1	0.116500
35.150000	1	0.113000
35.166667	1	0.110750
35.183333	1	0.108125
35.200000	1	0.106750
35.216667	1	0.105625
35.233333	1	0.104375
35.250000	1	0.103625
35.266667	1	0.103375
35.283333	1	0.103625
35.300000	1	0.104375
35.316667	1	0.104750
35.333333	1	0.105625
35.350000	1	0.107250
35.366667	1	0.108625
35.383333	1	0.110000
35.400000	1	0.111125
35.416667	1	0.112875
35.433333	1	0.114625
35.450000	1	0.116375
35.466667	1	0.119000
35.483333	1	0.121750
35.500000	1	0.123750
35.516667	1	0.126500
35.533333	1	0.128625
35.550000	1	0.131250
35.566667	1	0.133500
35.583333	1	0.135875
35.600000	1	0.138000
35.616667	1	0.140375
35.633333	1	0.142250
35.650000	1	0.144500
35.666667	1	0.146250
35.683333	1	0.147875
35.700000	1	0.149250
35.716667	1	0.151125
35.733333	1	0.152625
35.750000	1	0.153875
35.766667	1	0.155750
35.783333	1	0.156750
35.800000	1	0.158000
35.816667	1	0.159250
35.833333	1	0.160625
35.850000	1	0.161000
35.866667	1	0.161750
35.883333	1	0.162750
35.900000	1	0.163500
35.916667	1	0.163875
35.933333	1	0.163750
35.950000	1	0.164250
35.966667	1	0.164750
35.983333	1	0.165125
36.000000	1	0.165125
36.016667	1	0.165250
36.033333	1	0.165375
36.050000	1	0.165250
36.066667	1	0.165625
36.083333	1	0.165750
36.100000	1	0.166000
36.116667	1	0.165625
36.133333	1	0.165750
36.150000	1	0.166000
36.166667	1	0.165625
36.183333	1	0.165250
36.200000	1	0.165250
36.216667	1	0.164500
36.233333	1	0.163875
36.250000	1	0.163375
36.266667	1	0.162750
36.283333	1	0.161375
36.300000	1	0.160875
36.316667	1	0.160375
36.333333	1	0.159750
36.350000	1	0.158875
36.366667	1	0.158000
36.383333	1	0.157000
36.400000	1	0.156250
36.416667	1	0.155125
36.433333	1	0.153875
36.450000	1	0.152500
36.466667	1	0.151500
36.483333	1	0.150125
36.500000	1	0.148750
36.516667	1	0.147750
36.533333	1	0.146625
36.550000	1	0.145500
36.566667	1	0.144500
36.583333	1	0.143375
36.600000	1	0.142125
36.616667	1	0.140500
36.633333	1	0.139500
36.650000	1	0.138625
36.666667	1	0.137000
36.683333	1	0.135000
36.700000	1	0.133750
36.716667	1	0.132375
36.733333	1	0.130875
36.750000	1	0.129125
36.766667	1	0.128125
36.783333	1	0.126875
36.800000	1	0.125875
36.816667	1	0.124875
36.833333	1	0.122750
36.850000	1	0.120875
36.866667	1	0.119875
36.883333	1	0.118625
36.900000	1	0.116625
36.916667	1	0.114750
36.933333	1	0.112875
36.950000	1	0.111250
36.966667	1	0.108750
36.983333	1	0.107250
37.000000	1	0.105750
37.016667	1	0.103875
37.033333	1	0.101875
37.050000	1	0.100000
37.066667	1	0.097750
37.083333	1	0.095500
37.100000	1	0.093250
37.116667	1	0.090625
37.133333	1	0.088625
37.150000	1	0.086000
37.166667	1	0.084000
37.183333	1	0.081750
37.200000	1	0.079500
37.216667	1	0.077125
37.233333	1	0.075000
37.250000	1	0.072375
37.266667	1	0.070000
37.283333	1	0.068000
37.300000	1	0.065250
37.316667	1	0.062125
37.333333	1	0.060500
37.350000	1	0.058125
37.366667	1	0.055750
37.383333	1	0.053750
37.400000	1	0.051625
37.416667	1	0.049625
37.433333	1	0.047375
37.450000	1	0.045625
37.466667	1	0.044625
37.483333	1	0.043000
37.500000	1	0.040750
37.516667	1	0.039125
37.533333	1	0.037750
37.550000	1	0.035875
37.566667	1	0.034375
37.583333	1	0.032750
37.600000	1	0.030625
37.616667	1	0.029500
37.633333	1	0.028125
37.650000	1	0.027125
37.666667	1	0.025625
37.683333	1	0.025250
37.700000	1	0.024250
37.716667	1	0.023625
37.733333	1	0.022375
37.750000	1	0.022125
37.766667	1	0.021125
37.783333	1	0.020250
37.800000	1	0.019875
37.816667	1	0.019750
37.833333	1	0.019125
37.850000	1	0.018250
37.866667	1	0.017375
37.883333	1	0.017000
37.900000	1	0.016750
37.916667	1	0.016250
37.933333	1	0.016250
37.950000	1	0.015750
37.966667	1	0.015875
37.983333	1	0.016000
38.000000	1	0.016125
38.016667	1	0.016125
38.033333	1	0.016000
38.050000	1	0.015875
38.066667	1	0.016125
38.083333	1	0.016000
38.100000	1	0.016375
38.116667	1	0.016750
38.133333	1	0.017125
38.150000	1	0.017625
38.166667	1	0.017750
38.183333	1	0.018125
38.200000	1	0.018375
38.216667	1	0.018500
38.233333	1	0.018750
38.250000	1	0.019500
38.266667	1	0.020250
38.283333	1	0.020500
38.300000	1	0.020875
38.316667	1	0.020500
38.333333	1	0.021000
38.350000	1	0.021625
38.366667	1	0.021750
38.383333	1	0.021875
38.400000	1	0.023000
38.416667	1	0.023250
38.433333	1	0.023500
38.450000	1	0.023625
38.466667	1	0.023375
38.483333	1	0.022875
38.500000	1	0.022500
38.516667	1	0.022875
38.533333	1	0.022625
38.550000	1	0.022375
38.566667	1	0.022250
38.583333	1	0.021875
38.600000	1	0.021250
38.616667	1	0.021250
38.633333	1	0.020875
38.650000	1	0.020625
38.666667	1	0.019500
38.683333	1	0.018625
38.700000	1	0.018250
38.716667	1	0.017500
38.733333	1	0.017500
38.750000	1	0.016500
38.766667	1	0.016250
38.783333	1	0.015500
38.800000	1	0.015125
38.816667	1	0.013875
38.833333	1	0.012875
38.850000	1	0.011750
38.866667	1	0.010750
38.883333	1	0.010875
38.900000	1	0.010000
38.916667	1	0.009625
38.933333	1	0.009500
38.950000	1	0.009000
38.966667	1	0.008500
38.983333	1	0.007250
39.000000	1	0.006375
39.016667	1	0.005750
39.033333	1	0.005375
39.050000	1	0.004875
39.066667	1	0.004125
39.083333	1	0.003750
39.100000	1	0.003000
39.116667	1	0.002875
39.133333	1	0.002375
39.150000	1	0.002000
39.166667	1	0.001375
39.183333	1	0.001375
39.200000	1	0.001500
39.216667	1	0.001125
39.233333	1	0.000625
39.250000	1	0.000125
39.266667	1	-0.000250
39.283333	1	-0.000250
39.300000	1	-0.000625
39.316667	1	-0.000875
39.333333	1	-0.002000
39.350000	1	-0.002375
39.366667	1	-0.002375
39.383333	1	-0.002750
39.400000	1	-0.003250
39.416667	1	-0.003625
39.433333	1	-0.004000
39.450000	1	-0.004625
39.466667	1	-0.006000
39.483333	1	-0.006375
39.500000	1	-0.006625
39.516667	1	-0.007125
39.533333	1	-0.007625
39.550000	1	-0.009000
39.566667	1	-0.009250
39.583333	1	-0.009500
39.600000	1	-0.009500
39.616667	1	-0.010500
39.633333	1	-0.010375
39.650000	1	-0.010750
39.666667	1	-0.010875
39.683333	1	-0.011125
39.700000	1	-0.011875
39.716667	1	-0.011250
39.733333	1	-0.011625
39.750000	1	-0.012250
39.766667	1	-0.012625
39.783333	1	-0.012625
39.800000	1	-0.012750
39.816667	1	-0.012375
39.833333	1	-0.012250
39.850000	1	-0.012500
39.866667	1	-0.012875
39.883333	1	-0.012375
39.900000	1	-0.011125
39.916667	1	-0.011875
39.933333	1	-0.011875
39.950000	1	-0.011625
39.966667	1	-0.010875
39.983333	1	-0.010375
40.000000	1	-0.010125
