File Path	chrom://marshall/Chromeleon7/HPLC_Ultimate_3000/Users/markusar/20230531_CMO_stabTest _FP08_FP09.seq/580.smp/RI_1.channel/RI_1.chm
Channel	RI_1

Injection Information:
Data Vault	Chromeleon7
Injection	FP10__4_s2
Injection Number	87
Position	BF1
Comment	
Processing Method	
Instrument Method	run_25B_method
Type	Unknown
Status	Finished
Injection Date	04.06.2023
Injection Time	01:24:04
Injection Volume (µl)	20.000
Dilution Factor	1.0000
Weight	1.0000

Chromatogram Data Information:
Time Min. (min)	0.000000
Time Max. (min)	40.000000
Data Points	2401
Detector	RI
Generating Data System	Chromeleon 7.2.5.9507
Exporting Data System	Chromeleon 7.2.5.0
Operator	Instrument Controller
Signal Quantity	Refractive 
Signal Unit	µRIU
Signal Min.	-0.676125
Signal Max.	70.028000
Channel	RI_1
Driver Name	RID520Driver.dll
Channel Type	Evaluation
Min. Step (s)	1
Max. Step (s)	1
Average Step (s)	1

Signal Parameter Information:
Signal Info	

Chromatogram Data:
Time (min)	Step (s)	Value (µRIU)
0.000000	n.a.	-0.045375
0.016667	1	-0.046750
0.033333	1	-0.048250
0.050000	1	-0.049125
0.066667	1	-0.050125
0.083333	1	-0.051625
0.100000	1	-0.052625
0.116667	1	-0.054375
0.133333	1	-0.056125
0.150000	1	-0.057500
0.166667	1	-0.059125
0.183333	1	-0.060250
0.200000	1	-0.061250
0.216667	1	-0.062250
0.233333	1	-0.064375
0.250000	1	-0.065000
0.266667	1	-0.065500
0.283333	1	-0.067625
0.300000	1	-0.071625
0.316667	1	-0.076000
0.333333	1	-0.078125
0.350000	1	-0.077750
0.366667	1	-0.074375
0.383333	1	-0.070875
0.400000	1	-0.067750
0.416667	1	-0.065500
0.433333	1	-0.063500
0.450000	1	-0.061375
0.466667	1	-0.060375
0.483333	1	-0.061250
0.500000	1	-0.062375
0.516667	1	-0.064625
0.533333	1	-0.066875
0.550000	1	-0.069125
0.566667	1	-0.070375
0.583333	1	-0.071250
0.600000	1	-0.072125
0.616667	1	-0.073125
0.633333	1	-0.073875
0.650000	1	-0.074750
0.666667	1	-0.075125
0.683333	1	-0.075750
0.700000	1	-0.075875
0.716667	1	-0.076250
0.733333	1	-0.076500
0.750000	1	-0.077250
0.766667	1	-0.077250
0.783333	1	-0.077250
0.800000	1	-0.076375
0.816667	1	-0.076750
0.833333	1	-0.076625
0.850000	1	-0.076375
0.866667	1	-0.076250
0.883333	1	-0.076375
0.900000	1	-0.075875
0.916667	1	-0.075500
0.933333	1	-0.075375
0.950000	1	-0.075000
0.966667	1	-0.075250
0.983333	1	-0.075875
1.000000	1	-0.075750
1.016667	1	-0.075750
1.033333	1	-0.075625
1.050000	1	-0.075375
1.066667	1	-0.075500
1.083333	1	-0.075625
1.100000	1	-0.075625
1.116667	1	-0.075500
1.133333	1	-0.075125
1.150000	1	-0.075750
1.166667	1	-0.076250
1.183333	1	-0.076750
1.200000	1	-0.077000
1.216667	1	-0.076750
1.233333	1	-0.076750
1.250000	1	-0.076875
1.266667	1	-0.076875
1.283333	1	-0.076875
1.300000	1	-0.077375
1.316667	1	-0.077750
1.333333	1	-0.078375
1.350000	1	-0.078500
1.366667	1	-0.078625
1.383333	1	-0.078750
1.400000	1	-0.078625
1.416667	1	-0.079000
1.433333	1	-0.078625
1.450000	1	-0.078625
1.466667	1	-0.078125
1.483333	1	-0.079250
1.500000	1	-0.079125
1.516667	1	-0.079375
1.533333	1	-0.080500
1.550000	1	-0.080375
1.566667	1	-0.080250
1.583333	1	-0.080625
1.600000	1	-0.080875
1.616667	1	-0.080875
1.633333	1	-0.080750
1.650000	1	-0.080625
1.666667	1	-0.080625
1.683333	1	-0.080125
1.700000	1	-0.079500
1.716667	1	-0.079500
1.733333	1	-0.079375
1.750000	1	-0.079250
1.766667	1	-0.079250
1.783333	1	-0.078625
1.800000	1	-0.078125
1.816667	1	-0.078500
1.833333	1	-0.078250
1.850000	1	-0.078250
1.866667	1	-0.078125
1.883333	1	-0.078375
1.900000	1	-0.078000
1.916667	1	-0.077250
1.933333	1	-0.077125
1.950000	1	-0.076625
1.966667	1	-0.076500
1.983333	1	-0.076375
2.000000	1	-0.075750
2.016667	1	-0.075625
2.033333	1	-0.074875
2.050000	1	-0.074250
2.066667	1	-0.073500
2.083333	1	-0.072375
2.100000	1	-0.071750
2.116667	1	-0.071000
2.133333	1	-0.070500
2.150000	1	-0.069625
2.166667	1	-0.069000
2.183333	1	-0.068125
2.200000	1	-0.067875
2.216667	1	-0.066875
2.233333	1	-0.066000
2.250000	1	-0.065375
2.266667	1	-0.064375
2.283333	1	-0.064250
2.300000	1	-0.064250
2.316667	1	-0.063375
2.333333	1	-0.062625
2.350000	1	-0.062000
2.366667	1	-0.061000
2.383333	1	-0.061000
2.400000	1	-0.060000
2.416667	1	-0.058750
2.433333	1	-0.057625
2.450000	1	-0.056625
2.466667	1	-0.056000
2.483333	1	-0.055625
2.500000	1	-0.054875
2.516667	1	-0.054375
2.533333	1	-0.054125
2.550000	1	-0.053625
2.566667	1	-0.052750
2.583333	1	-0.052000
2.600000	1	-0.051250
2.616667	1	-0.050250
2.633333	1	-0.049625
2.650000	1	-0.048250
2.666667	1	-0.048250
2.683333	1	-0.047500
2.700000	1	-0.047375
2.716667	1	-0.046375
2.733333	1	-0.045875
2.750000	1	-0.045250
2.766667	1	-0.045125
2.783333	1	-0.044875
2.800000	1	-0.045500
2.816667	1	-0.045375
2.833333	1	-0.045625
2.850000	1	-0.045125
2.866667	1	-0.045375
2.883333	1	-0.045375
2.900000	1	-0.045750
2.916667	1	-0.045500
2.933333	1	-0.046375
2.950000	1	-0.047125
2.966667	1	-0.047625
2.983333	1	-0.048625
3.000000	1	-0.048750
3.016667	1	-0.049250
3.033333	1	-0.049750
3.050000	1	-0.050750
3.066667	1	-0.051875
3.083333	1	-0.053000
3.100000	1	-0.054250
3.116667	1	-0.055375
3.133333	1	-0.056125
3.150000	1	-0.057625
3.166667	1	-0.058375
3.183333	1	-0.059375
3.200000	1	-0.060000
3.216667	1	-0.060750
3.233333	1	-0.062375
3.250000	1	-0.063375
3.266667	1	-0.064625
3.283333	1	-0.066375
3.300000	1	-0.067250
3.316667	1	-0.068125
3.333333	1	-0.069250
3.350000	1	-0.070125
3.366667	1	-0.071000
3.383333	1	-0.072000
3.400000	1	-0.073250
3.416667	1	-0.073750
3.433333	1	-0.074625
3.450000	1	-0.075375
3.466667	1	-0.075875
3.483333	1	-0.077375
3.500000	1	-0.079250
3.516667	1	-0.079875
3.533333	1	-0.080625
3.550000	1	-0.081625
3.566667	1	-0.082875
3.583333	1	-0.083250
3.600000	1	-0.084750
3.616667	1	-0.085250
3.633333	1	-0.085500
3.650000	1	-0.086875
3.666667	1	-0.087125
3.683333	1	-0.087875
3.700000	1	-0.089375
3.716667	1	-0.089500
3.733333	1	-0.089625
3.750000	1	-0.089625
3.766667	1	-0.090000
3.783333	1	-0.090500
3.800000	1	-0.090125
3.816667	1	-0.090375
3.833333	1	-0.090750
3.850000	1	-0.091000
3.866667	1	-0.090750
3.883333	1	-0.091625
3.900000	1	-0.091375
3.916667	1	-0.091625
3.933333	1	-0.091250
3.950000	1	-0.091000
3.966667	1	-0.090500
3.983333	1	-0.090375
4.000000	1	-0.089375
4.016667	1	-0.088500
4.033333	1	-0.088500
4.050000	1	-0.087375
4.066667	1	-0.087000
4.083333	1	-0.086000
4.100000	1	-0.085375
4.116667	1	-0.084000
4.133333	1	-0.083375
4.150000	1	-0.082000
4.166667	1	-0.080750
4.183333	1	-0.080125
4.200000	1	-0.078875
4.216667	1	-0.076750
4.233333	1	-0.075750
4.250000	1	-0.074000
4.266667	1	-0.072625
4.283333	1	-0.071000
4.300000	1	-0.069750
4.316667	1	-0.067750
4.333333	1	-0.065875
4.350000	1	-0.064125
4.366667	1	-0.062500
4.383333	1	-0.060375
4.400000	1	-0.057750
4.416667	1	-0.055375
4.433333	1	-0.053250
4.450000	1	-0.052000
4.466667	1	-0.050000
4.483333	1	-0.048375
4.500000	1	-0.046125
4.516667	1	-0.043250
4.533333	1	-0.041125
4.550000	1	-0.038250
4.566667	1	-0.034875
4.583333	1	-0.031750
4.600000	1	-0.028875
4.616667	1	-0.026250
4.633333	1	-0.023625
4.650000	1	-0.020625
4.666667	1	-0.016875
4.683333	1	-0.013875
4.700000	1	-0.010625
4.716667	1	-0.008000
4.733333	1	-0.005375
4.750000	1	-0.002375
4.766667	1	0.001000
4.783333	1	0.003875
4.800000	1	0.006750
4.816667	1	0.010250
4.833333	1	0.013250
4.850000	1	0.016625
4.866667	1	0.019375
4.883333	1	0.021750
4.900000	1	0.024375
4.916667	1	0.027375
4.933333	1	0.029500
4.950000	1	0.032250
4.966667	1	0.034250
4.983333	1	0.036375
5.000000	1	0.038750
5.016667	1	0.041000
5.033333	1	0.042000
5.050000	1	0.043250
5.066667	1	0.044625
5.083333	1	0.046500
5.100000	1	0.047500
5.116667	1	0.048500
5.133333	1	0.048750
5.150000	1	0.049500
5.166667	1	0.049375
5.183333	1	0.049625
5.200000	1	0.049375
5.216667	1	0.049125
5.233333	1	0.048625
5.250000	1	0.048000
5.266667	1	0.047375
5.283333	1	0.046250
5.300000	1	0.046250
5.316667	1	0.045375
5.333333	1	0.044250
5.350000	1	0.042875
5.366667	1	0.042625
5.383333	1	0.041375
5.400000	1	0.039875
5.416667	1	0.039125
5.433333	1	0.037625
5.450000	1	0.035750
5.466667	1	0.033750
5.483333	1	0.032000
5.500000	1	0.030000
5.516667	1	0.029000
5.533333	1	0.028125
5.550000	1	0.026125
5.566667	1	0.025000
5.583333	1	0.024250
5.600000	1	0.022875
5.616667	1	0.021375
5.633333	1	0.020250
5.650000	1	0.019250
5.666667	1	0.018000
5.683333	1	0.017000
5.700000	1	0.015750
5.716667	1	0.014500
5.733333	1	0.013250
5.750000	1	0.013000
5.766667	1	0.012000
5.783333	1	0.011375
5.800000	1	0.011125
5.816667	1	0.010125
5.833333	1	0.009125
5.850000	1	0.008875
5.866667	1	0.008750
5.883333	1	0.009500
5.900000	1	0.009125
5.916667	1	0.008875
5.933333	1	0.009125
5.950000	1	0.009375
5.966667	1	0.009625
5.983333	1	0.009750
6.000000	1	0.010500
6.016667	1	0.010750
6.033333	1	0.011750
6.050000	1	0.011875
6.066667	1	0.012000
6.083333	1	0.012250
6.100000	1	0.013750
6.116667	1	0.014375
6.133333	1	0.015500
6.150000	1	0.016750
6.166667	1	0.017250
6.183333	1	0.018875
6.200000	1	0.020125
6.216667	1	0.021500
6.233333	1	0.022750
6.250000	1	0.024625
6.266667	1	0.025000
6.283333	1	0.025625
6.300000	1	0.026500
6.316667	1	0.028875
6.333333	1	0.029625
6.350000	1	0.031500
6.366667	1	0.033125
6.383333	1	0.034125
6.400000	1	0.034875
6.416667	1	0.036000
6.433333	1	0.036750
6.450000	1	0.037625
6.466667	1	0.038250
6.483333	1	0.039000
6.500000	1	0.039125
6.516667	1	0.039250
6.533333	1	0.039250
6.550000	1	0.039625
6.566667	1	0.040000
6.583333	1	0.039375
6.600000	1	0.038875
6.616667	1	0.038375
6.633333	1	0.037375
6.650000	1	0.036000
6.666667	1	0.034750
6.683333	1	0.032875
6.700000	1	0.031750
6.716667	1	0.030000
6.733333	1	0.027750
6.750000	1	0.025125
6.766667	1	0.023000
6.783333	1	0.020500
6.800000	1	0.017500
6.816667	1	0.014750
6.833333	1	0.012500
6.850000	1	0.009125
6.866667	1	0.006375
6.883333	1	0.003000
6.900000	1	0.000000
6.916667	1	-0.002125
6.933333	1	-0.005625
6.950000	1	-0.008375
6.966667	1	-0.010875
6.983333	1	-0.013375
7.000000	1	-0.016125
7.016667	1	-0.018125
7.033333	1	-0.021375
7.050000	1	-0.024125
7.066667	1	-0.026875
7.083333	1	-0.028625
7.100000	1	-0.030875
7.116667	1	-0.032500
7.133333	1	-0.033875
7.150000	1	-0.035875
7.166667	1	-0.037500
7.183333	1	-0.038500
7.200000	1	-0.039500
7.216667	1	-0.041125
7.233333	1	-0.042125
7.250000	1	-0.042000
7.266667	1	-0.043250
7.283333	1	-0.043625
7.300000	1	-0.044125
7.316667	1	-0.044000
7.333333	1	-0.044250
7.350000	1	-0.044250
7.366667	1	-0.043875
7.383333	1	-0.043750
7.400000	1	-0.043375
7.416667	1	-0.042750
7.433333	1	-0.041500
7.450000	1	-0.041375
7.466667	1	-0.041375
7.483333	1	-0.040875
7.500000	1	-0.039375
7.516667	1	-0.039250
7.533333	1	-0.038875
7.550000	1	-0.037500
7.566667	1	-0.036250
7.583333	1	-0.035375
7.600000	1	-0.033875
7.616667	1	-0.033000
7.633333	1	-0.032625
7.650000	1	-0.031625
7.666667	1	-0.031250
7.683333	1	-0.030000
7.700000	1	-0.029625
7.716667	1	-0.028125
7.733333	1	-0.027125
7.750000	1	-0.026750
7.766667	1	-0.025625
7.783333	1	-0.024625
7.800000	1	-0.023750
7.816667	1	-0.023125
7.833333	1	-0.022500
7.850000	1	-0.021375
7.866667	1	-0.020500
7.883333	1	-0.018875
7.900000	1	-0.018250
7.916667	1	-0.017500
7.933333	1	-0.015875
7.950000	1	-0.014625
7.966667	1	-0.013625
7.983333	1	-0.012375
8.000000	1	-0.011375
8.016667	1	-0.011000
8.033333	1	-0.009500
8.050000	1	-0.009000
8.066667	1	-0.007625
8.083333	1	-0.006250
8.100000	1	-0.004500
8.116667	1	-0.002500
8.133333	1	-0.000625
8.150000	1	0.001000
8.166667	1	0.002750
8.183333	1	0.004250
8.200000	1	0.005875
8.216667	1	0.007500
8.233333	1	0.009000
8.250000	1	0.010375
8.266667	1	0.011750
8.283333	1	0.013625
8.300000	1	0.014625
8.316667	1	0.016125
8.333333	1	0.018500
8.350000	1	0.019500
8.366667	1	0.021375
8.383333	1	0.022750
8.400000	1	0.024500
8.416667	1	0.026000
8.433333	1	0.026625
8.450000	1	0.027750
8.466667	1	0.028500
8.483333	1	0.030125
8.500000	1	0.031000
8.516667	1	0.031625
8.533333	1	0.032500
8.550000	1	0.033375
8.566667	1	0.034375
8.583333	1	0.035625
8.600000	1	0.035500
8.616667	1	0.036125
8.633333	1	0.036375
8.650000	1	0.036875
8.666667	1	0.036750
8.683333	1	0.037250
8.700000	1	0.037000
8.716667	1	0.037000
8.733333	1	0.037000
8.750000	1	0.036500
8.766667	1	0.036625
8.783333	1	0.036125
8.800000	1	0.036000
8.816667	1	0.035500
8.833333	1	0.034750
8.850000	1	0.034125
8.866667	1	0.032500
8.883333	1	0.032250
8.900000	1	0.031625
8.916667	1	0.031000
8.933333	1	0.030500
8.950000	1	0.029500
8.966667	1	0.028750
8.983333	1	0.028000
9.000000	1	0.026875
9.016667	1	0.026250
9.033333	1	0.025625
9.050000	1	0.024875
9.066667	1	0.024375
9.083333	1	0.023750
9.100000	1	0.023125
9.116667	1	0.022875
9.133333	1	0.022125
9.150000	1	0.021875
9.166667	1	0.021500
9.183333	1	0.021125
9.200000	1	0.020375
9.216667	1	0.020375
9.233333	1	0.020500
9.250000	1	0.019875
9.266667	1	0.019625
9.283333	1	0.020000
9.300000	1	0.020125
9.316667	1	0.020000
9.333333	1	0.020000
9.350000	1	0.020500
9.366667	1	0.021125
9.383333	1	0.021750
9.400000	1	0.021875
9.416667	1	0.022625
9.433333	1	0.024125
9.450000	1	0.026125
9.466667	1	0.028625
9.483333	1	0.030750
9.500000	1	0.035000
9.516667	1	0.038750
9.533333	1	0.043750
9.550000	1	0.048875
9.566667	1	0.055250
9.583333	1	0.062625
9.600000	1	0.071125
9.616667	1	0.081875
9.633333	1	0.094000
9.650000	1	0.107500
9.666667	1	0.123250
9.683333	1	0.141000
9.700000	1	0.160375
9.716667	1	0.181500
9.733333	1	0.203875
9.750000	1	0.227125
9.766667	1	0.248625
9.783333	1	0.268250
9.800000	1	0.284750
9.816667	1	0.297375
9.833333	1	0.303250
9.850000	1	0.301625
9.866667	1	0.288625
9.883333	1	0.261750
9.900000	1	0.221000
9.916667	1	0.177875
9.933333	1	0.157125
9.950000	1	0.201500
9.966667	1	0.367500
9.983333	1	0.720250
10.000000	1	1.322750
10.016667	1	2.230125
10.033333	1	3.483875
10.050000	1	5.109000
10.066667	1	7.118000
10.083333	1	9.507625
10.100000	1	12.262500
10.116667	1	15.348875
10.133333	1	18.717375
10.150000	1	22.295125
10.166667	1	25.988000
10.183333	1	29.674875
10.200000	1	33.209625
10.216667	1	36.424750
10.233333	1	39.142500
10.250000	1	41.197875
10.266667	1	42.466125
10.283333	1	42.878625
10.300000	1	42.438875
10.316667	1	41.221000
10.333333	1	39.352875
10.350000	1	36.997625
10.366667	1	34.328875
10.383333	1	31.506375
10.400000	1	28.665250
10.416667	1	25.910375
10.433333	1	23.313625
10.450000	1	20.917875
10.466667	1	18.741500
10.483333	1	16.787250
10.500000	1	15.046500
10.516667	1	13.504375
10.533333	1	12.142875
10.550000	1	10.941875
10.566667	1	9.881875
10.583333	1	8.943500
10.600000	1	8.109625
10.616667	1	7.366750
10.633333	1	6.705875
10.650000	1	6.117375
10.666667	1	5.593000
10.683333	1	5.125875
10.700000	1	4.710875
10.716667	1	4.341875
10.733333	1	4.015000
10.750000	1	3.726000
10.766667	1	3.469750
10.783333	1	3.242750
10.800000	1	3.041000
10.816667	1	2.862125
10.833333	1	2.702000
10.850000	1	2.558000
10.866667	1	2.428500
10.883333	1	2.310125
10.900000	1	2.202375
10.916667	1	2.103250
10.933333	1	2.011125
10.950000	1	1.925625
10.966667	1	1.846125
10.983333	1	1.772500
11.000000	1	1.703875
11.016667	1	1.640125
11.033333	1	1.580500
11.050000	1	1.526375
11.066667	1	1.476000
11.083333	1	1.429500
11.100000	1	1.386625
11.116667	1	1.348375
11.133333	1	1.312000
11.150000	1	1.278875
11.166667	1	1.249500
11.183333	1	1.222125
11.200000	1	1.198250
11.216667	1	1.176750
11.233333	1	1.158750
11.250000	1	1.142500
11.266667	1	1.128750
11.283333	1	1.117875
11.300000	1	1.109875
11.316667	1	1.105375
11.333333	1	1.104750
11.350000	1	1.106125
11.366667	1	1.111375
11.383333	1	1.119125
11.400000	1	1.128875
11.416667	1	1.139875
11.433333	1	1.151625
11.450000	1	1.161875
11.466667	1	1.170875
11.483333	1	1.177625
11.500000	1	1.181125
11.516667	1	1.182000
11.533333	1	1.179375
11.550000	1	1.173750
11.566667	1	1.165125
11.583333	1	1.154125
11.600000	1	1.140875
11.616667	1	1.126375
11.633333	1	1.111375
11.650000	1	1.095750
11.666667	1	1.080875
11.683333	1	1.066375
11.700000	1	1.051625
11.716667	1	1.037750
11.733333	1	1.024000
11.750000	1	1.011375
11.766667	1	0.999750
11.783333	1	0.989750
11.800000	1	0.980875
11.816667	1	0.973750
11.833333	1	0.967625
11.850000	1	0.963750
11.866667	1	0.961000
11.883333	1	0.960750
11.900000	1	0.962750
11.916667	1	0.967875
11.933333	1	0.976125
11.950000	1	0.988750
11.966667	1	1.006500
11.983333	1	1.029000
12.000000	1	1.057625
12.016667	1	1.093750
12.033333	1	1.138875
12.050000	1	1.193375
12.066667	1	1.261375
12.083333	1	1.344375
12.100000	1	1.446250
12.116667	1	1.571250
12.133333	1	1.723625
12.150000	1	1.908625
12.166667	1	2.131250
12.183333	1	2.396125
12.200000	1	2.709125
12.216667	1	3.076625
12.233333	1	3.504500
12.250000	1	4.000625
12.266667	1	4.575625
12.283333	1	5.242750
12.300000	1	6.017625
12.316667	1	6.923500
12.333333	1	7.993750
12.350000	1	9.267250
12.366667	1	10.791875
12.383333	1	12.622750
12.400000	1	14.816625
12.416667	1	17.424625
12.433333	1	20.489500
12.450000	1	24.035750
12.466667	1	28.059625
12.483333	1	32.518500
12.500000	1	37.326375
12.516667	1	42.357500
12.533333	1	47.449875
12.550000	1	52.416125
12.566667	1	57.060250
12.583333	1	61.198125
12.600000	1	64.666875
12.616667	1	67.339625
12.633333	1	69.137500
12.650000	1	70.028000
12.666667	1	70.024500
12.683333	1	69.183375
12.700000	1	67.594625
12.716667	1	65.375500
12.733333	1	62.657500
12.750000	1	59.572125
12.766667	1	56.241250
12.783333	1	52.775875
12.800000	1	49.274125
12.816667	1	45.815250
12.833333	1	42.457500
12.850000	1	39.243250
12.866667	1	36.199750
12.883333	1	33.343500
12.900000	1	30.685000
12.916667	1	28.225500
12.933333	1	25.962250
12.950000	1	23.888125
12.966667	1	21.991125
12.983333	1	20.260875
13.000000	1	18.684875
13.016667	1	17.250625
13.033333	1	15.943750
13.050000	1	14.750625
13.066667	1	13.659125
13.083333	1	12.656625
13.100000	1	11.731125
13.116667	1	10.873000
13.133333	1	10.071625
13.150000	1	9.317625
13.166667	1	8.600750
13.183333	1	7.913250
13.200000	1	7.246750
13.216667	1	6.597250
13.233333	1	5.962875
13.250000	1	5.348375
13.266667	1	4.765625
13.283333	1	4.231875
13.300000	1	3.762125
13.316667	1	3.360875
13.333333	1	3.025250
13.350000	1	2.745625
13.366667	1	2.512250
13.383333	1	2.316250
13.400000	1	2.149375
13.416667	1	2.006750
13.433333	1	1.882625
13.450000	1	1.773500
13.466667	1	1.677500
13.483333	1	1.591875
13.500000	1	1.516125
13.516667	1	1.448750
13.533333	1	1.388500
13.550000	1	1.335125
13.566667	1	1.287250
13.583333	1	1.245125
13.600000	1	1.208500
13.616667	1	1.175250
13.633333	1	1.145500
13.650000	1	1.119000
13.666667	1	1.094875
13.683333	1	1.073375
13.700000	1	1.053000
13.716667	1	1.033125
13.733333	1	1.014375
13.750000	1	0.996125
13.766667	1	0.978625
13.783333	1	0.961625
13.800000	1	0.944125
13.816667	1	0.926125
13.833333	1	0.908000
13.850000	1	0.890375
13.866667	1	0.873625
13.883333	1	0.855875
13.900000	1	0.838375
13.916667	1	0.821000
13.933333	1	0.804500
13.950000	1	0.788250
13.966667	1	0.771625
13.983333	1	0.755875
14.000000	1	0.741250
14.016667	1	0.726000
14.033333	1	0.712125
14.050000	1	0.699000
14.066667	1	0.686125
14.083333	1	0.673875
14.100000	1	0.662375
14.116667	1	0.651375
14.133333	1	0.642000
14.150000	1	0.633250
14.166667	1	0.625625
14.183333	1	0.618250
14.200000	1	0.611875
14.216667	1	0.606125
14.233333	1	0.601500
14.250000	1	0.598000
14.266667	1	0.595000
14.283333	1	0.593125
14.300000	1	0.592375
14.316667	1	0.591875
14.333333	1	0.593125
14.350000	1	0.594750
14.366667	1	0.597500
14.383333	1	0.601625
14.400000	1	0.606750
14.416667	1	0.613500
14.433333	1	0.621375
14.450000	1	0.629750
14.466667	1	0.638625
14.483333	1	0.647875
14.500000	1	0.658375
14.516667	1	0.670000
14.533333	1	0.682375
14.550000	1	0.696125
14.566667	1	0.711750
14.583333	1	0.729500
14.600000	1	0.749250
14.616667	1	0.773250
14.633333	1	0.801250
14.650000	1	0.835250
14.666667	1	0.876250
14.683333	1	0.924750
14.700000	1	0.983250
14.716667	1	1.054000
14.733333	1	1.137000
14.750000	1	1.233375
14.766667	1	1.344500
14.783333	1	1.468625
14.800000	1	1.603500
14.816667	1	1.747000
14.833333	1	1.895250
14.850000	1	2.044375
14.866667	1	2.189000
14.883333	1	2.323500
14.900000	1	2.443125
14.916667	1	2.542625
14.933333	1	2.618500
14.950000	1	2.669500
14.966667	1	2.693625
14.983333	1	2.690375
15.000000	1	2.662500
15.016667	1	2.611875
15.033333	1	2.542000
15.050000	1	2.455125
15.066667	1	2.355625
15.083333	1	2.247500
15.100000	1	2.134375
15.116667	1	2.019250
15.133333	1	1.904750
15.150000	1	1.792500
15.166667	1	1.684500
15.183333	1	1.583375
15.200000	1	1.487625
15.216667	1	1.399625
15.233333	1	1.318375
15.250000	1	1.243875
15.266667	1	1.175625
15.283333	1	1.114375
15.300000	1	1.059375
15.316667	1	1.009875
15.333333	1	0.965875
15.350000	1	0.927625
15.366667	1	0.894250
15.383333	1	0.865000
15.400000	1	0.840625
15.416667	1	0.821000
15.433333	1	0.805125
15.450000	1	0.794375
15.466667	1	0.787750
15.483333	1	0.786000
15.500000	1	0.789500
15.516667	1	0.797125
15.533333	1	0.809375
15.550000	1	0.825250
15.566667	1	0.844875
15.583333	1	0.866625
15.600000	1	0.889375
15.616667	1	0.912375
15.633333	1	0.934250
15.650000	1	0.954625
15.666667	1	0.971750
15.683333	1	0.985375
15.700000	1	0.994375
15.716667	1	0.999125
15.733333	1	0.999500
15.750000	1	0.995500
15.766667	1	0.988500
15.783333	1	0.978500
15.800000	1	0.965625
15.816667	1	0.951125
15.833333	1	0.935250
15.850000	1	0.919125
15.866667	1	0.903000
15.883333	1	0.886875
15.900000	1	0.870625
15.916667	1	0.855250
15.933333	1	0.840250
15.950000	1	0.826500
15.966667	1	0.813250
15.983333	1	0.801625
16.000000	1	0.790750
16.016667	1	0.781875
16.033333	1	0.773375
16.050000	1	0.766125
16.066667	1	0.760000
16.083333	1	0.754875
16.100000	1	0.751000
16.116667	1	0.748000
16.133333	1	0.745625
16.150000	1	0.744500
16.166667	1	0.744125
16.183333	1	0.744500
16.200000	1	0.745500
16.216667	1	0.746875
16.233333	1	0.748750
16.250000	1	0.749875
16.266667	1	0.750500
16.283333	1	0.751000
16.300000	1	0.750625
16.316667	1	0.750625
16.333333	1	0.750000
16.350000	1	0.748625
16.366667	1	0.747375
16.383333	1	0.745500
16.400000	1	0.743375
16.416667	1	0.741375
16.433333	1	0.739375
16.450000	1	0.737875
16.466667	1	0.736000
16.483333	1	0.734125
16.500000	1	0.733000
16.516667	1	0.732500
16.533333	1	0.732750
16.550000	1	0.733125
16.566667	1	0.734750
16.583333	1	0.737000
16.600000	1	0.739375
16.616667	1	0.743125
16.633333	1	0.746875
16.650000	1	0.750750
16.666667	1	0.755125
16.683333	1	0.760375
16.700000	1	0.764625
16.716667	1	0.770000
16.733333	1	0.775125
16.750000	1	0.780375
16.766667	1	0.784750
16.783333	1	0.789125
16.800000	1	0.792875
16.816667	1	0.795125
16.833333	1	0.796625
16.850000	1	0.797375
16.866667	1	0.797750
16.883333	1	0.796750
16.900000	1	0.795625
16.916667	1	0.794625
16.933333	1	0.792500
16.950000	1	0.790875
16.966667	1	0.790125
16.983333	1	0.789625
17.000000	1	0.788875
17.016667	1	0.788875
17.033333	1	0.789500
17.050000	1	0.790000
17.066667	1	0.790500
17.083333	1	0.790500
17.100000	1	0.790625
17.116667	1	0.790250
17.133333	1	0.788875
17.150000	1	0.787375
17.166667	1	0.784500
17.183333	1	0.780625
17.200000	1	0.775250
17.216667	1	0.769250
17.233333	1	0.762625
17.250000	1	0.755625
17.266667	1	0.747500
17.283333	1	0.738875
17.300000	1	0.730500
17.316667	1	0.722375
17.333333	1	0.714250
17.350000	1	0.707000
17.366667	1	0.699375
17.383333	1	0.692625
17.400000	1	0.687000
17.416667	1	0.682000
17.433333	1	0.678750
17.450000	1	0.676000
17.466667	1	0.674125
17.483333	1	0.673500
17.500000	1	0.674250
17.516667	1	0.676375
17.533333	1	0.679875
17.550000	1	0.684875
17.566667	1	0.691250
17.583333	1	0.698500
17.600000	1	0.707500
17.616667	1	0.717500
17.633333	1	0.729125
17.650000	1	0.740875
17.666667	1	0.753125
17.683333	1	0.766000
17.700000	1	0.779750
17.716667	1	0.793625
17.733333	1	0.808250
17.750000	1	0.822250
17.766667	1	0.836500
17.783333	1	0.850500
17.800000	1	0.863125
17.816667	1	0.874375
17.833333	1	0.884750
17.850000	1	0.893500
17.866667	1	0.900625
17.883333	1	0.906500
17.900000	1	0.909875
17.916667	1	0.911625
17.933333	1	0.910000
17.950000	1	0.907000
17.966667	1	0.902125
17.983333	1	0.894625
18.000000	1	0.885500
18.016667	1	0.875625
18.033333	1	0.863875
18.050000	1	0.850875
18.066667	1	0.836375
18.083333	1	0.821750
18.100000	1	0.806250
18.116667	1	0.790625
18.133333	1	0.775625
18.150000	1	0.760625
18.166667	1	0.746375
18.183333	1	0.731875
18.200000	1	0.718500
18.216667	1	0.706000
18.233333	1	0.693625
18.250000	1	0.682250
18.266667	1	0.671875
18.283333	1	0.662750
18.300000	1	0.654500
18.316667	1	0.647625
18.333333	1	0.641375
18.350000	1	0.635750
18.366667	1	0.630875
18.383333	1	0.627250
18.400000	1	0.624750
18.416667	1	0.622625
18.433333	1	0.622000
18.450000	1	0.620875
18.466667	1	0.620125
18.483333	1	0.620250
18.500000	1	0.620000
18.516667	1	0.621250
18.533333	1	0.622625
18.550000	1	0.623875
18.566667	1	0.624750
18.583333	1	0.626375
18.600000	1	0.628250
18.616667	1	0.630375
18.633333	1	0.633000
18.650000	1	0.636125
18.666667	1	0.640250
18.683333	1	0.644500
18.700000	1	0.650125
18.716667	1	0.655875
18.733333	1	0.661625
18.750000	1	0.668000
18.766667	1	0.675000
18.783333	1	0.682500
18.800000	1	0.691625
18.816667	1	0.701125
18.833333	1	0.710500
18.850000	1	0.721875
18.866667	1	0.733750
18.883333	1	0.746375
18.900000	1	0.761000
18.916667	1	0.777000
18.933333	1	0.795250
18.950000	1	0.815125
18.966667	1	0.838250
18.983333	1	0.863625
19.000000	1	0.891875
19.016667	1	0.922375
19.033333	1	0.955375
19.050000	1	0.990625
19.066667	1	1.027625
19.083333	1	1.065750
19.100000	1	1.105000
19.116667	1	1.144250
19.133333	1	1.183750
19.150000	1	1.221875
19.166667	1	1.258000
19.183333	1	1.290500
19.200000	1	1.319875
19.216667	1	1.344000
19.233333	1	1.363375
19.250000	1	1.377750
19.266667	1	1.387000
19.283333	1	1.389375
19.300000	1	1.385875
19.316667	1	1.376000
19.333333	1	1.360125
19.350000	1	1.339625
19.366667	1	1.315125
19.383333	1	1.285750
19.400000	1	1.252875
19.416667	1	1.216750
19.433333	1	1.177375
19.450000	1	1.136875
19.466667	1	1.096375
19.483333	1	1.054500
19.500000	1	1.012250
19.516667	1	0.971750
19.533333	1	0.931875
19.550000	1	0.893625
19.566667	1	0.857500
19.583333	1	0.823000
19.600000	1	0.791375
19.616667	1	0.761500
19.633333	1	0.734375
19.650000	1	0.709250
19.666667	1	0.687625
19.683333	1	0.668875
19.700000	1	0.653375
19.716667	1	0.641000
19.733333	1	0.632500
19.750000	1	0.626750
19.766667	1	0.624500
19.783333	1	0.625250
19.800000	1	0.628500
19.816667	1	0.635250
19.833333	1	0.644125
19.850000	1	0.655750
19.866667	1	0.669125
19.883333	1	0.685125
19.900000	1	0.701875
19.916667	1	0.720125
19.933333	1	0.739125
19.950000	1	0.758000
19.966667	1	0.775625
19.983333	1	0.793250
20.000000	1	0.809125
20.016667	1	0.823500
20.033333	1	0.836375
20.050000	1	0.847500
20.066667	1	0.856250
20.083333	1	0.863000
20.100000	1	0.866875
20.116667	1	0.870500
20.133333	1	0.872375
20.150000	1	0.873250
20.166667	1	0.872250
20.183333	1	0.871500
20.200000	1	0.870000
20.216667	1	0.868625
20.233333	1	0.868375
20.250000	1	0.869250
20.266667	1	0.870500
20.283333	1	0.873500
20.300000	1	0.878500
20.316667	1	0.885625
20.333333	1	0.893875
20.350000	1	0.904125
20.366667	1	0.915500
20.383333	1	0.928375
20.400000	1	0.941625
20.416667	1	0.955125
20.433333	1	0.969250
20.450000	1	0.982250
20.466667	1	0.995500
20.483333	1	1.006250
20.500000	1	1.016500
20.516667	1	1.024375
20.533333	1	1.030625
20.550000	1	1.035000
20.566667	1	1.037875
20.583333	1	1.039125
20.600000	1	1.038625
20.616667	1	1.038250
20.633333	1	1.038250
20.650000	1	1.039625
20.666667	1	1.042750
20.683333	1	1.047375
20.700000	1	1.055125
20.716667	1	1.066250
20.733333	1	1.082000
20.750000	1	1.102125
20.766667	1	1.125125
20.783333	1	1.153000
20.800000	1	1.183000
20.816667	1	1.215750
20.833333	1	1.250000
20.850000	1	1.284000
20.866667	1	1.317250
20.883333	1	1.348125
20.900000	1	1.374500
20.916667	1	1.396375
20.933333	1	1.413125
20.950000	1	1.422250
20.966667	1	1.424750
20.983333	1	1.419250
21.000000	1	1.406250
21.016667	1	1.385125
21.033333	1	1.357125
21.050000	1	1.322875
21.066667	1	1.283750
21.083333	1	1.240500
21.100000	1	1.194125
21.116667	1	1.145000
21.133333	1	1.094875
21.150000	1	1.043875
21.166667	1	0.993000
21.183333	1	0.942500
21.200000	1	0.894375
21.216667	1	0.847625
21.233333	1	0.803500
21.250000	1	0.761125
21.266667	1	0.722125
21.283333	1	0.685500
21.300000	1	0.652000
21.316667	1	0.621000
21.333333	1	0.592750
21.350000	1	0.567375
21.366667	1	0.544000
21.383333	1	0.523125
21.400000	1	0.505125
21.416667	1	0.488500
21.433333	1	0.473875
21.450000	1	0.461125
21.466667	1	0.450875
21.483333	1	0.440875
21.500000	1	0.432625
21.516667	1	0.425500
21.533333	1	0.420250
21.550000	1	0.415125
21.566667	1	0.411500
21.583333	1	0.408875
21.600000	1	0.406625
21.616667	1	0.405125
21.633333	1	0.405000
21.650000	1	0.405875
21.666667	1	0.408250
21.683333	1	0.411625
21.700000	1	0.416250
21.716667	1	0.422250
21.733333	1	0.429875
21.750000	1	0.439375
21.766667	1	0.449875
21.783333	1	0.462625
21.800000	1	0.477250
21.816667	1	0.494125
21.833333	1	0.512000
21.850000	1	0.531625
21.866667	1	0.552875
21.883333	1	0.574875
21.900000	1	0.597875
21.916667	1	0.621625
21.933333	1	0.645000
21.950000	1	0.667750
21.966667	1	0.689625
21.983333	1	0.709750
22.000000	1	0.727750
22.016667	1	0.744625
22.033333	1	0.757750
22.050000	1	0.768125
22.066667	1	0.776500
22.083333	1	0.781250
22.100000	1	0.783125
22.116667	1	0.782125
22.133333	1	0.777125
22.150000	1	0.769750
22.166667	1	0.759750
22.183333	1	0.748125
22.200000	1	0.734500
22.216667	1	0.718500
22.233333	1	0.701875
22.250000	1	0.685000
22.266667	1	0.667500
22.283333	1	0.650750
22.300000	1	0.633750
22.316667	1	0.617375
22.333333	1	0.601750
22.350000	1	0.587250
22.366667	1	0.573750
22.383333	1	0.561375
22.400000	1	0.550000
22.416667	1	0.540125
22.433333	1	0.531375
22.450000	1	0.524375
22.466667	1	0.518000
22.483333	1	0.512625
22.500000	1	0.508250
22.516667	1	0.504625
22.533333	1	0.502625
22.550000	1	0.500625
22.566667	1	0.499125
22.583333	1	0.498750
22.600000	1	0.498625
22.616667	1	0.497625
22.633333	1	0.497625
22.650000	1	0.497375
22.666667	1	0.497000
22.683333	1	0.497000
22.700000	1	0.496875
22.716667	1	0.495875
22.733333	1	0.494625
22.750000	1	0.493500
22.766667	1	0.491000
22.783333	1	0.488250
22.800000	1	0.485000
22.816667	1	0.481875
22.833333	1	0.477500
22.850000	1	0.473000
22.866667	1	0.467625
22.883333	1	0.462125
22.900000	1	0.456875
22.916667	1	0.450625
22.933333	1	0.444750
22.950000	1	0.438875
22.966667	1	0.432750
22.983333	1	0.426750
23.000000	1	0.420625
23.016667	1	0.415500
23.033333	1	0.410750
23.050000	1	0.406625
23.066667	1	0.403000
23.083333	1	0.400125
23.100000	1	0.397875
23.116667	1	0.396750
23.133333	1	0.396750
23.150000	1	0.397500
23.166667	1	0.399375
23.183333	1	0.403000
23.200000	1	0.406750
23.216667	1	0.412000
23.233333	1	0.419125
23.250000	1	0.427000
23.266667	1	0.437250
23.283333	1	0.448875
23.300000	1	0.462250
23.316667	1	0.477125
23.333333	1	0.494375
23.350000	1	0.512875
23.366667	1	0.534125
23.383333	1	0.558000
23.400000	1	0.584875
23.416667	1	0.615000
23.433333	1	0.648375
23.450000	1	0.686125
23.466667	1	0.728125
23.483333	1	0.775750
23.500000	1	0.829750
23.516667	1	0.890750
23.533333	1	0.959125
23.550000	1	1.035375
23.566667	1	1.121000
23.583333	1	1.217250
23.600000	1	1.325500
23.616667	1	1.444625
23.633333	1	1.577125
23.650000	1	1.721125
23.666667	1	1.877875
23.683333	1	2.047500
23.700000	1	2.227500
23.716667	1	2.417625
23.733333	1	2.615250
23.750000	1	2.818625
23.766667	1	3.024875
23.783333	1	3.230125
23.800000	1	3.432625
23.816667	1	3.628500
23.833333	1	3.812500
23.850000	1	3.982500
23.866667	1	4.134375
23.883333	1	4.265375
23.900000	1	4.373875
23.916667	1	4.456625
23.933333	1	4.514500
23.950000	1	4.544250
23.966667	1	4.546125
23.983333	1	4.521125
24.000000	1	4.470375
24.016667	1	4.395000
24.033333	1	4.297750
24.050000	1	4.181500
24.066667	1	4.047875
24.083333	1	3.900000
24.100000	1	3.741375
24.116667	1	3.574125
24.133333	1	3.401875
24.150000	1	3.226750
24.166667	1	3.051250
24.183333	1	2.877875
24.200000	1	2.707875
24.216667	1	2.543125
24.233333	1	2.385375
24.250000	1	2.235000
24.266667	1	2.093250
24.283333	1	1.959875
24.300000	1	1.835375
24.316667	1	1.720000
24.333333	1	1.612750
24.350000	1	1.514125
24.366667	1	1.423375
24.383333	1	1.341250
24.400000	1	1.265750
24.416667	1	1.197625
24.433333	1	1.135750
24.450000	1	1.078500
24.466667	1	1.026625
24.483333	1	0.978875
24.500000	1	0.934875
24.516667	1	0.893875
24.533333	1	0.856000
24.550000	1	0.820500
24.566667	1	0.786750
24.583333	1	0.755250
24.600000	1	0.725750
24.616667	1	0.696875
24.633333	1	0.669375
24.650000	1	0.642875
24.666667	1	0.618125
24.683333	1	0.593750
24.700000	1	0.570000
24.716667	1	0.547000
24.733333	1	0.524750
24.750000	1	0.502875
24.766667	1	0.482250
24.783333	1	0.462625
24.800000	1	0.444000
24.816667	1	0.425875
24.833333	1	0.409375
24.850000	1	0.393000
24.866667	1	0.377625
24.883333	1	0.363750
24.900000	1	0.350375
24.916667	1	0.338625
24.933333	1	0.326875
24.950000	1	0.316125
24.966667	1	0.306375
24.983333	1	0.297750
25.000000	1	0.290250
25.016667	1	0.283250
25.033333	1	0.276875
25.050000	1	0.271750
25.066667	1	0.267125
25.083333	1	0.263500
25.100000	1	0.261125
25.116667	1	0.258375
25.133333	1	0.256500
25.150000	1	0.255250
25.166667	1	0.253625
25.183333	1	0.253625
25.200000	1	0.253875
25.216667	1	0.254875
25.233333	1	0.255500
25.250000	1	0.256875
25.266667	1	0.258750
25.283333	1	0.260750
25.300000	1	0.262875
25.316667	1	0.265000
25.333333	1	0.267500
25.350000	1	0.270125
25.366667	1	0.272375
25.383333	1	0.274500
25.400000	1	0.276625
25.416667	1	0.278250
25.433333	1	0.280750
25.450000	1	0.282625
25.466667	1	0.283625
25.483333	1	0.285375
25.500000	1	0.286750
25.516667	1	0.287500
25.533333	1	0.287625
25.550000	1	0.287625
25.566667	1	0.287250
25.583333	1	0.287625
25.600000	1	0.287750
25.616667	1	0.287250
25.633333	1	0.286625
25.650000	1	0.286000
25.666667	1	0.284625
25.683333	1	0.283750
25.700000	1	0.282250
25.716667	1	0.280500
25.733333	1	0.278625
25.750000	1	0.276625
25.766667	1	0.273875
25.783333	1	0.270625
25.800000	1	0.267375
25.816667	1	0.264125
25.833333	1	0.260375
25.850000	1	0.256375
25.866667	1	0.252375
25.883333	1	0.248125
25.900000	1	0.243125
25.916667	1	0.237625
25.933333	1	0.232000
25.950000	1	0.226375
25.966667	1	0.220625
25.983333	1	0.215000
26.000000	1	0.209125
26.016667	1	0.203000
26.033333	1	0.197125
26.050000	1	0.191250
26.066667	1	0.185500
26.083333	1	0.179750
26.100000	1	0.175375
26.116667	1	0.170250
26.133333	1	0.165625
26.150000	1	0.161500
26.166667	1	0.158375
26.183333	1	0.155125
26.200000	1	0.152250
26.216667	1	0.150125
26.233333	1	0.148750
26.250000	1	0.148000
26.266667	1	0.148375
26.283333	1	0.148625
26.300000	1	0.149375
26.316667	1	0.150500
26.333333	1	0.152500
26.350000	1	0.153125
26.366667	1	0.153625
26.383333	1	0.154750
26.400000	1	0.156125
26.416667	1	0.157750
26.433333	1	0.158625
26.450000	1	0.158750
26.466667	1	0.159500
26.483333	1	0.160000
26.500000	1	0.160000
26.516667	1	0.159875
26.533333	1	0.159250
26.550000	1	0.158000
26.566667	1	0.156625
26.583333	1	0.155875
26.600000	1	0.153750
26.616667	1	0.151375
26.633333	1	0.149125
26.650000	1	0.147000
26.666667	1	0.145375
26.683333	1	0.143000
26.700000	1	0.141125
26.716667	1	0.139500
26.733333	1	0.137125
26.750000	1	0.135000
26.766667	1	0.133000
26.783333	1	0.131750
26.800000	1	0.130375
26.816667	1	0.130625
26.833333	1	0.130500
26.850000	1	0.131250
26.866667	1	0.132125
26.883333	1	0.132875
26.900000	1	0.133500
26.916667	1	0.135250
26.933333	1	0.137250
26.950000	1	0.139750
26.966667	1	0.143125
26.983333	1	0.147125
27.000000	1	0.151500
27.016667	1	0.155875
27.033333	1	0.161375
27.050000	1	0.167875
27.066667	1	0.175125
27.083333	1	0.182250
27.100000	1	0.190125
27.116667	1	0.199125
27.133333	1	0.208375
27.150000	1	0.218625
27.166667	1	0.229250
27.183333	1	0.240750
27.200000	1	0.253625
27.216667	1	0.267250
27.233333	1	0.282000
27.250000	1	0.297375
27.266667	1	0.314125
27.283333	1	0.331125
27.300000	1	0.349000
27.316667	1	0.368750
27.333333	1	0.389875
27.350000	1	0.411625
27.366667	1	0.435500
27.383333	1	0.461375
27.400000	1	0.490250
27.416667	1	0.520750
27.433333	1	0.553625
27.450000	1	0.589125
27.466667	1	0.628500
27.483333	1	0.671250
27.500000	1	0.717375
27.516667	1	0.768250
27.533333	1	0.824375
27.550000	1	0.886125
27.566667	1	0.954250
27.583333	1	1.027625
27.600000	1	1.108875
27.616667	1	1.196250
27.633333	1	1.291250
27.650000	1	1.393125
27.666667	1	1.501875
27.683333	1	1.618500
27.700000	1	1.741625
27.716667	1	1.869750
27.733333	1	2.003750
27.750000	1	2.142125
27.766667	1	2.283500
27.783333	1	2.427125
27.800000	1	2.571875
27.816667	1	2.714750
27.833333	1	2.855500
27.850000	1	2.991375
27.866667	1	3.121375
27.883333	1	3.243000
27.900000	1	3.354750
27.916667	1	3.454625
27.933333	1	3.540500
27.950000	1	3.612250
27.966667	1	3.667375
27.983333	1	3.705750
28.000000	1	3.726250
28.016667	1	3.729125
28.033333	1	3.714000
28.050000	1	3.680750
28.066667	1	3.630625
28.083333	1	3.563625
28.100000	1	3.481000
28.116667	1	3.384250
28.133333	1	3.274375
28.150000	1	3.153250
28.166667	1	3.022750
28.183333	1	2.885125
28.200000	1	2.741625
28.216667	1	2.594750
28.233333	1	2.444125
28.250000	1	2.293125
28.266667	1	2.141875
28.283333	1	1.992500
28.300000	1	1.845625
28.316667	1	1.702500
28.333333	1	1.563875
28.350000	1	1.430250
28.366667	1	1.303125
28.383333	1	1.180875
28.400000	1	1.064625
28.416667	1	0.954500
28.433333	1	0.849375
28.450000	1	0.749375
28.466667	1	0.655375
28.483333	1	0.566250
28.500000	1	0.480625
28.516667	1	0.399375
28.533333	1	0.322625
28.550000	1	0.249500
28.566667	1	0.179375
28.583333	1	0.112375
28.600000	1	0.048500
28.616667	1	-0.014000
28.633333	1	-0.073375
28.650000	1	-0.130875
28.666667	1	-0.186250
28.683333	1	-0.239250
28.700000	1	-0.289250
28.716667	1	-0.337750
28.733333	1	-0.383750
28.750000	1	-0.427750
28.766667	1	-0.467750
28.783333	1	-0.504875
28.800000	1	-0.538250
28.816667	1	-0.568625
28.833333	1	-0.595375
28.850000	1	-0.618500
28.866667	1	-0.637875
28.883333	1	-0.654250
28.900000	1	-0.665875
28.916667	1	-0.672875
28.933333	1	-0.676125
28.950000	1	-0.674625
28.966667	1	-0.669500
28.983333	1	-0.661000
29.000000	1	-0.648750
29.016667	1	-0.632875
29.033333	1	-0.613250
29.050000	1	-0.590625
29.066667	1	-0.564625
29.083333	1	-0.535750
29.100000	1	-0.505375
29.116667	1	-0.472125
29.133333	1	-0.437750
29.150000	1	-0.401875
29.166667	1	-0.364000
29.183333	1	-0.325500
29.200000	1	-0.286250
29.216667	1	-0.246875
29.233333	1	-0.208125
29.250000	1	-0.168875
29.266667	1	-0.130000
29.283333	1	-0.091875
29.300000	1	-0.053875
29.316667	1	-0.018125
29.333333	1	0.017125
29.350000	1	0.051125
29.366667	1	0.083750
29.383333	1	0.114375
29.400000	1	0.144000
29.416667	1	0.172000
29.433333	1	0.199000
29.450000	1	0.223125
29.466667	1	0.246125
29.483333	1	0.267500
29.500000	1	0.286375
29.516667	1	0.304000
29.533333	1	0.319625
29.550000	1	0.332500
29.566667	1	0.344625
29.583333	1	0.355250
29.600000	1	0.364875
29.616667	1	0.372875
29.633333	1	0.379000
29.650000	1	0.383875
29.666667	1	0.387500
29.683333	1	0.390250
29.700000	1	0.391500
29.716667	1	0.392250
29.733333	1	0.391875
29.750000	1	0.390625
29.766667	1	0.388375
29.783333	1	0.385875
29.800000	1	0.383375
29.816667	1	0.380500
29.833333	1	0.377500
29.850000	1	0.374625
29.866667	1	0.371750
29.883333	1	0.367625
29.900000	1	0.364625
29.916667	1	0.362625
29.933333	1	0.360125
29.950000	1	0.358375
29.966667	1	0.356875
29.983333	1	0.356250
30.000000	1	0.355375
30.016667	1	0.355625
30.033333	1	0.356375
30.050000	1	0.358375
30.066667	1	0.361500
30.083333	1	0.364625
30.100000	1	0.368500
30.116667	1	0.373500
30.133333	1	0.379625
30.150000	1	0.386750
30.166667	1	0.395125
30.183333	1	0.404875
30.200000	1	0.415875
30.216667	1	0.427375
30.233333	1	0.440875
30.250000	1	0.455250
30.266667	1	0.471250
30.283333	1	0.488250
30.300000	1	0.507875
30.316667	1	0.529250
30.333333	1	0.552125
30.350000	1	0.577750
30.366667	1	0.605500
30.383333	1	0.635250
30.400000	1	0.667875
30.416667	1	0.702250
30.433333	1	0.739250
30.450000	1	0.778125
30.466667	1	0.819500
30.483333	1	0.862000
30.500000	1	0.907750
30.516667	1	0.954500
30.533333	1	1.001875
30.550000	1	1.050500
30.566667	1	1.098250
30.583333	1	1.147250
30.600000	1	1.195500
30.616667	1	1.241625
30.633333	1	1.286625
30.650000	1	1.329000
30.666667	1	1.369250
30.683333	1	1.406125
30.700000	1	1.438250
30.716667	1	1.467125
30.733333	1	1.491000
30.750000	1	1.510125
30.766667	1	1.523500
30.783333	1	1.530875
30.800000	1	1.532750
30.816667	1	1.529500
30.833333	1	1.520750
30.850000	1	1.506250
30.866667	1	1.486125
30.883333	1	1.462000
30.900000	1	1.433250
30.916667	1	1.400000
30.933333	1	1.362375
30.950000	1	1.322250
30.966667	1	1.280000
30.983333	1	1.235000
31.000000	1	1.188375
31.016667	1	1.139625
31.033333	1	1.089875
31.050000	1	1.040000
31.066667	1	0.990375
31.083333	1	0.940375
31.100000	1	0.892625
31.116667	1	0.845000
31.133333	1	0.798875
31.150000	1	0.755125
31.166667	1	0.712250
31.183333	1	0.671500
31.200000	1	0.632875
31.216667	1	0.595750
31.233333	1	0.561500
31.250000	1	0.528375
31.266667	1	0.497000
31.283333	1	0.467875
31.300000	1	0.441375
31.316667	1	0.417250
31.333333	1	0.395000
31.350000	1	0.374500
31.366667	1	0.355375
31.383333	1	0.337750
31.400000	1	0.321625
31.416667	1	0.307250
31.433333	1	0.293875
31.450000	1	0.282125
31.466667	1	0.270625
31.483333	1	0.260750
31.500000	1	0.252250
31.516667	1	0.243750
31.533333	1	0.237000
31.550000	1	0.231125
31.566667	1	0.226375
31.583333	1	0.222375
31.600000	1	0.218875
31.616667	1	0.215625
31.633333	1	0.213375
31.650000	1	0.212375
31.666667	1	0.211375
31.683333	1	0.210750
31.700000	1	0.211000
31.716667	1	0.210875
31.733333	1	0.212375
31.750000	1	0.214625
31.766667	1	0.216375
31.783333	1	0.218500
31.800000	1	0.221125
31.816667	1	0.224125
31.833333	1	0.227500
31.850000	1	0.230375
31.866667	1	0.233125
31.883333	1	0.235250
31.900000	1	0.237500
31.916667	1	0.239875
31.933333	1	0.242000
31.950000	1	0.244125
31.966667	1	0.246125
31.983333	1	0.247375
32.000000	1	0.248750
32.016667	1	0.248625
32.033333	1	0.248125
32.050000	1	0.247125
32.066667	1	0.245500
32.083333	1	0.244125
32.100000	1	0.241875
32.116667	1	0.239500
32.133333	1	0.237000
32.150000	1	0.233375
32.166667	1	0.230250
32.183333	1	0.226250
32.200000	1	0.222625
32.216667	1	0.218250
32.233333	1	0.213750
32.250000	1	0.209000
32.266667	1	0.204625
32.283333	1	0.199625
32.300000	1	0.196250
32.316667	1	0.192375
32.333333	1	0.188375
32.350000	1	0.185125
32.366667	1	0.181500
32.383333	1	0.178375
32.400000	1	0.175125
32.416667	1	0.173000
32.433333	1	0.170625
32.450000	1	0.168750
32.466667	1	0.166750
32.483333	1	0.165250
32.500000	1	0.163750
32.516667	1	0.163000
32.533333	1	0.162125
32.550000	1	0.161750
32.566667	1	0.161125
32.583333	1	0.160875
32.600000	1	0.160125
32.616667	1	0.158875
32.633333	1	0.157625
32.650000	1	0.156375
32.666667	1	0.154500
32.683333	1	0.152375
32.700000	1	0.150000
32.716667	1	0.148250
32.733333	1	0.145875
32.750000	1	0.143250
32.766667	1	0.140625
32.783333	1	0.137750
32.800000	1	0.134375
32.816667	1	0.130750
32.833333	1	0.126125
32.850000	1	0.121750
32.866667	1	0.117875
32.883333	1	0.113750
32.900000	1	0.109875
32.916667	1	0.105750
32.933333	1	0.101000
32.950000	1	0.096625
32.966667	1	0.092750
32.983333	1	0.088250
33.000000	1	0.083750
33.016667	1	0.079250
33.033333	1	0.074875
33.050000	1	0.070625
33.066667	1	0.066250
33.083333	1	0.062250
33.100000	1	0.058125
33.116667	1	0.054625
33.133333	1	0.050875
33.150000	1	0.047625
33.166667	1	0.044500
33.183333	1	0.041125
33.200000	1	0.038125
33.216667	1	0.035750
33.233333	1	0.033500
33.250000	1	0.030875
33.266667	1	0.028375
33.283333	1	0.026625
33.300000	1	0.024250
33.316667	1	0.023000
33.333333	1	0.021500
33.350000	1	0.020500
33.366667	1	0.020125
33.383333	1	0.019500
33.400000	1	0.019000
33.416667	1	0.018625
33.433333	1	0.018000
33.450000	1	0.017875
33.466667	1	0.018375
33.483333	1	0.018750
33.500000	1	0.019250
33.516667	1	0.020250
33.533333	1	0.021000
33.550000	1	0.022625
33.566667	1	0.024000
33.583333	1	0.025625
33.600000	1	0.027875
33.616667	1	0.030375
33.633333	1	0.032875
33.650000	1	0.035750
33.666667	1	0.039125
33.683333	1	0.042750
33.700000	1	0.047125
33.716667	1	0.051625
33.733333	1	0.056875
33.750000	1	0.062375
33.766667	1	0.069000
33.783333	1	0.075375
33.800000	1	0.082625
33.816667	1	0.090125
33.833333	1	0.098500
33.850000	1	0.107000
33.866667	1	0.117125
33.883333	1	0.127500
33.900000	1	0.138750
33.916667	1	0.150375
33.933333	1	0.162875
33.950000	1	0.175125
33.966667	1	0.189125
33.983333	1	0.204000
34.000000	1	0.218875
34.016667	1	0.234625
34.033333	1	0.250875
34.050000	1	0.267750
34.066667	1	0.284750
34.083333	1	0.302000
34.100000	1	0.319000
34.116667	1	0.336500
34.133333	1	0.353000
34.150000	1	0.370250
34.166667	1	0.386125
34.183333	1	0.401625
34.200000	1	0.416250
34.216667	1	0.430375
34.233333	1	0.442750
34.250000	1	0.454000
34.266667	1	0.464500
34.283333	1	0.473000
34.300000	1	0.481000
34.316667	1	0.487000
34.333333	1	0.492125
34.350000	1	0.494500
34.366667	1	0.495750
34.383333	1	0.495250
34.400000	1	0.493500
34.416667	1	0.489625
34.433333	1	0.484875
34.450000	1	0.477750
34.466667	1	0.469750
34.483333	1	0.460750
34.500000	1	0.450750
34.516667	1	0.439000
34.533333	1	0.427375
34.550000	1	0.414625
34.566667	1	0.402500
34.583333	1	0.388250
34.600000	1	0.374000
34.616667	1	0.359500
34.633333	1	0.345000
34.650000	1	0.330750
34.666667	1	0.316000
34.683333	1	0.302500
34.700000	1	0.289000
34.716667	1	0.275625
34.733333	1	0.263625
34.750000	1	0.251500
34.766667	1	0.239500
34.783333	1	0.228500
34.800000	1	0.219000
34.816667	1	0.209250
34.833333	1	0.200250
34.850000	1	0.191625
34.866667	1	0.184000
34.883333	1	0.177625
34.900000	1	0.171250
34.916667	1	0.166000
34.933333	1	0.161250
34.950000	1	0.156750
34.966667	1	0.152750
34.983333	1	0.149500
35.000000	1	0.147375
35.016667	1	0.145750
35.033333	1	0.143500
35.050000	1	0.141625
35.066667	1	0.139500
35.083333	1	0.138750
35.100000	1	0.138625
35.116667	1	0.138750
35.133333	1	0.139375
35.150000	1	0.139500
35.166667	1	0.139875
35.183333	1	0.140250
35.200000	1	0.140625
35.216667	1	0.141000
35.233333	1	0.141875
35.250000	1	0.142625
35.266667	1	0.142875
35.283333	1	0.143375
35.300000	1	0.144000
35.316667	1	0.145375
35.333333	1	0.145375
35.350000	1	0.146625
35.366667	1	0.146625
35.383333	1	0.146750
35.400000	1	0.146750
35.416667	1	0.146625
35.433333	1	0.146250
35.450000	1	0.145625
35.466667	1	0.145000
35.483333	1	0.144875
35.500000	1	0.144625
35.516667	1	0.143875
35.533333	1	0.144125
35.550000	1	0.143625
35.566667	1	0.142250
35.583333	1	0.141000
35.600000	1	0.140500
35.616667	1	0.140125
35.633333	1	0.139250
35.650000	1	0.138625
35.666667	1	0.137375
35.683333	1	0.136875
35.700000	1	0.135625
35.716667	1	0.134000
35.733333	1	0.133625
35.750000	1	0.133000
35.766667	1	0.132250
35.783333	1	0.131375
35.800000	1	0.130125
35.816667	1	0.129375
35.833333	1	0.128125
35.850000	1	0.127125
35.866667	1	0.126125
35.883333	1	0.125125
35.900000	1	0.123875
35.916667	1	0.123000
35.933333	1	0.122625
35.950000	1	0.122250
35.966667	1	0.121000
35.983333	1	0.120125
36.000000	1	0.119000
36.016667	1	0.117625
36.033333	1	0.116000
36.050000	1	0.114250
36.066667	1	0.113125
36.083333	1	0.112250
36.100000	1	0.110750
36.116667	1	0.109625
36.133333	1	0.108125
36.150000	1	0.106375
36.166667	1	0.104500
36.183333	1	0.103000
36.200000	1	0.101000
36.216667	1	0.099750
36.233333	1	0.098500
36.250000	1	0.096500
36.266667	1	0.095125
36.283333	1	0.093125
36.300000	1	0.091125
36.316667	1	0.089875
36.333333	1	0.087250
36.350000	1	0.085500
36.366667	1	0.084250
36.383333	1	0.081875
36.400000	1	0.079875
36.416667	1	0.078000
36.433333	1	0.076000
36.450000	1	0.073500
36.466667	1	0.071625
36.483333	1	0.069500
36.500000	1	0.067375
36.516667	1	0.065000
36.533333	1	0.063500
36.550000	1	0.061375
36.566667	1	0.058875
36.583333	1	0.056375
36.600000	1	0.053750
36.616667	1	0.050875
36.633333	1	0.048125
36.650000	1	0.045500
36.666667	1	0.042625
36.683333	1	0.040875
36.700000	1	0.039125
36.716667	1	0.036625
36.733333	1	0.034125
36.750000	1	0.031250
36.766667	1	0.028250
36.783333	1	0.025875
36.800000	1	0.023000
36.816667	1	0.020000
36.833333	1	0.017000
36.850000	1	0.014500
36.866667	1	0.012125
36.883333	1	0.010375
36.900000	1	0.008250
36.916667	1	0.006000
36.933333	1	0.003625
36.950000	1	0.002125
36.966667	1	0.000375
36.983333	1	-0.000500
37.000000	1	-0.002500
37.016667	1	-0.003875
37.033333	1	-0.005375
37.050000	1	-0.005875
37.066667	1	-0.007375
37.083333	1	-0.008500
37.100000	1	-0.009375
37.116667	1	-0.010125
37.133333	1	-0.011000
37.150000	1	-0.012125
37.166667	1	-0.012625
37.183333	1	-0.013500
37.200000	1	-0.014125
37.216667	1	-0.014625
37.233333	1	-0.015500
37.250000	1	-0.016625
37.266667	1	-0.017250
37.283333	1	-0.017500
37.300000	1	-0.017625
37.316667	1	-0.017750
37.333333	1	-0.017875
37.350000	1	-0.018750
37.366667	1	-0.019375
37.383333	1	-0.019750
37.400000	1	-0.020000
37.416667	1	-0.020625
37.433333	1	-0.020750
37.450000	1	-0.020875
37.466667	1	-0.021250
37.483333	1	-0.021500
37.500000	1	-0.022375
37.516667	1	-0.022625
37.533333	1	-0.022750
37.550000	1	-0.022500
37.566667	1	-0.023250
37.583333	1	-0.024125
37.600000	1	-0.023750
37.616667	1	-0.024000
37.633333	1	-0.023875
37.650000	1	-0.024000
37.666667	1	-0.023875
37.683333	1	-0.023625
37.700000	1	-0.024250
37.716667	1	-0.024375
37.733333	1	-0.023750
37.750000	1	-0.023500
37.766667	1	-0.023125
37.783333	1	-0.022625
37.800000	1	-0.022500
37.816667	1	-0.022000
37.833333	1	-0.021125
37.850000	1	-0.021500
37.866667	1	-0.021000
37.883333	1	-0.019875
37.900000	1	-0.019125
37.916667	1	-0.018625
37.933333	1	-0.017750
37.950000	1	-0.016875
37.966667	1	-0.015375
37.983333	1	-0.014500
38.000000	1	-0.012750
38.016667	1	-0.011875
38.033333	1	-0.011125
38.050000	1	-0.010000
38.066667	1	-0.008875
38.083333	1	-0.008625
38.100000	1	-0.007250
38.116667	1	-0.006125
38.133333	1	-0.005125
38.150000	1	-0.004125
38.166667	1	-0.003375
38.183333	1	-0.002875
38.200000	1	-0.002125
38.216667	1	-0.001500
38.233333	1	-0.001000
38.250000	1	-0.000625
38.266667	1	-0.000500
38.283333	1	0.000125
38.300000	1	0.000375
38.316667	1	0.000875
38.333333	1	0.000625
38.350000	1	0.000250
38.366667	1	0.000000
38.383333	1	-0.000250
38.400000	1	-0.000750
38.416667	1	-0.000875
38.433333	1	-0.001500
38.450000	1	-0.002500
38.466667	1	-0.004000
38.483333	1	-0.004250
38.500000	1	-0.005625
38.516667	1	-0.006375
38.533333	1	-0.007625
38.550000	1	-0.008875
38.566667	1	-0.009875
38.583333	1	-0.011750
38.600000	1	-0.013375
38.616667	1	-0.014625
38.633333	1	-0.016000
38.650000	1	-0.017500
38.666667	1	-0.019125
38.683333	1	-0.020375
38.700000	1	-0.021625
38.716667	1	-0.023500
38.733333	1	-0.025250
38.750000	1	-0.026750
38.766667	1	-0.028125
38.783333	1	-0.029750
38.800000	1	-0.030875
38.816667	1	-0.031875
38.833333	1	-0.033500
38.850000	1	-0.034375
38.866667	1	-0.035625
38.883333	1	-0.036500
38.900000	1	-0.037625
38.916667	1	-0.039125
38.933333	1	-0.040000
38.950000	1	-0.040125
38.966667	1	-0.041750
38.983333	1	-0.042250
39.000000	1	-0.042750
39.016667	1	-0.043625
39.033333	1	-0.044000
39.050000	1	-0.044500
39.066667	1	-0.044375
39.083333	1	-0.044625
39.100000	1	-0.044875
39.116667	1	-0.045375
39.133333	1	-0.045875
39.150000	1	-0.045750
39.166667	1	-0.045750
39.183333	1	-0.045500
39.200000	1	-0.045750
39.216667	1	-0.046250
39.233333	1	-0.045625
39.250000	1	-0.044750
39.266667	1	-0.044000
39.283333	1	-0.043375
39.300000	1	-0.043000
39.316667	1	-0.042750
39.333333	1	-0.041750
39.350000	1	-0.041250
39.366667	1	-0.040500
39.383333	1	-0.039875
39.400000	1	-0.039750
39.416667	1	-0.038250
39.433333	1	-0.037125
39.450000	1	-0.036375
39.466667	1	-0.034625
39.483333	1	-0.033000
39.500000	1	-0.032000
39.516667	1	-0.030500
39.533333	1	-0.029000
39.550000	1	-0.028125
39.566667	1	-0.027000
39.583333	1	-0.024625
39.600000	1	-0.023125
39.616667	1	-0.021500
39.633333	1	-0.019875
39.650000	1	-0.017625
39.666667	1	-0.016750
39.683333	1	-0.014375
39.700000	1	-0.012500
39.716667	1	-0.010125
39.733333	1	-0.008500
39.750000	1	-0.006500
39.766667	1	-0.005250
39.783333	1	-0.003375
39.800000	1	-0.002000
39.816667	1	-0.000750
39.833333	1	0.000625
39.850000	1	0.002375
39.866667	1	0.004250
39.883333	1	0.005750
39.900000	1	0.007250
39.916667	1	0.008500
39.933333	1	0.009625
39.950000	1	0.010000
39.966667	1	0.010875
39.983333	1	0.011625
40.000000	1	0.012500
