File Path	chrom://marshall/Chromeleon7/HPLC_Ultimate_3000/Users/markusar/20230531_CMO_stabTest _FP08_FP09.seq/255.smp/RI_1.channel/RI_1.chm
Channel	RI_1

Injection Information:
Data Vault	Chromeleon7
Injection	FP10__4_s5
Injection Number	90
Position	BF4
Comment	
Processing Method	
Instrument Method	run_25B_method
Type	Unknown
Status	Finished
Injection Date	04.06.2023
Injection Time	03:26:59
Injection Volume (µl)	20.000
Dilution Factor	1.0000
Weight	1.0000

Chromatogram Data Information:
Time Min. (min)	0.000000
Time Max. (min)	40.000000
Data Points	2401
Detector	RI
Generating Data System	Chromeleon 7.2.5.9507
Exporting Data System	Chromeleon 7.2.5.0
Operator	Instrument Controller
Signal Quantity	Refractive 
Signal Unit	µRIU
Signal Min.	-0.423500
Signal Max.	63.218750
Channel	RI_1
Driver Name	RID520Driver.dll
Channel Type	Evaluation
Min. Step (s)	1
Max. Step (s)	1
Average Step (s)	1

Signal Parameter Information:
Signal Info	

Chromatogram Data:
Time (min)	Step (s)	Value (µRIU)
0.000000	n.a.	-0.057000
0.016667	1	-0.056875
0.033333	1	-0.056125
0.050000	1	-0.055875
0.066667	1	-0.055250
0.083333	1	-0.054625
0.100000	1	-0.054375
0.116667	1	-0.053625
0.133333	1	-0.053000
0.150000	1	-0.052375
0.166667	1	-0.050750
0.183333	1	-0.049375
0.200000	1	-0.048500
0.216667	1	-0.047875
0.233333	1	-0.047125
0.250000	1	-0.046250
0.266667	1	-0.045625
0.283333	1	-0.045500
0.300000	1	-0.047375
0.316667	1	-0.051250
0.333333	1	-0.052750
0.350000	1	-0.050625
0.366667	1	-0.045750
0.383333	1	-0.041500
0.400000	1	-0.038000
0.416667	1	-0.034000
0.433333	1	-0.030750
0.450000	1	-0.028750
0.466667	1	-0.027875
0.483333	1	-0.028375
0.500000	1	-0.030125
0.516667	1	-0.032625
0.533333	1	-0.034375
0.550000	1	-0.036375
0.566667	1	-0.038250
0.583333	1	-0.040500
0.600000	1	-0.042000
0.616667	1	-0.043875
0.633333	1	-0.045000
0.650000	1	-0.045875
0.666667	1	-0.046875
0.683333	1	-0.048625
0.700000	1	-0.050250
0.716667	1	-0.051250
0.733333	1	-0.052625
0.750000	1	-0.053750
0.766667	1	-0.055625
0.783333	1	-0.057125
0.800000	1	-0.058125
0.816667	1	-0.060000
0.833333	1	-0.061125
0.850000	1	-0.061875
0.866667	1	-0.063125
0.883333	1	-0.064500
0.900000	1	-0.065625
0.916667	1	-0.066625
0.933333	1	-0.067500
0.950000	1	-0.069000
0.966667	1	-0.069375
0.983333	1	-0.070000
1.000000	1	-0.070000
1.016667	1	-0.071000
1.033333	1	-0.072000
1.050000	1	-0.072750
1.066667	1	-0.073000
1.083333	1	-0.073750
1.100000	1	-0.073625
1.116667	1	-0.074500
1.133333	1	-0.075000
1.150000	1	-0.075375
1.166667	1	-0.075500
1.183333	1	-0.075500
1.200000	1	-0.075500
1.216667	1	-0.075750
1.233333	1	-0.075250
1.250000	1	-0.075625
1.266667	1	-0.075750
1.283333	1	-0.075750
1.300000	1	-0.075000
1.316667	1	-0.075375
1.333333	1	-0.076125
1.350000	1	-0.075500
1.366667	1	-0.076000
1.383333	1	-0.075875
1.400000	1	-0.076125
1.416667	1	-0.075375
1.433333	1	-0.075125
1.450000	1	-0.074875
1.466667	1	-0.074625
1.483333	1	-0.073625
1.500000	1	-0.072875
1.516667	1	-0.072875
1.533333	1	-0.073375
1.550000	1	-0.073125
1.566667	1	-0.073125
1.583333	1	-0.073250
1.600000	1	-0.073500
1.616667	1	-0.072875
1.633333	1	-0.072375
1.650000	1	-0.072375
1.666667	1	-0.072750
1.683333	1	-0.072250
1.700000	1	-0.071750
1.716667	1	-0.071750
1.733333	1	-0.071500
1.750000	1	-0.071500
1.766667	1	-0.070750
1.783333	1	-0.070250
1.800000	1	-0.070125
1.816667	1	-0.069500
1.833333	1	-0.068750
1.850000	1	-0.068625
1.866667	1	-0.068375
1.883333	1	-0.067875
1.900000	1	-0.067500
1.916667	1	-0.067625
1.933333	1	-0.067000
1.950000	1	-0.066625
1.966667	1	-0.066625
1.983333	1	-0.066250
2.000000	1	-0.065500
2.016667	1	-0.064375
2.033333	1	-0.063125
2.050000	1	-0.062000
2.066667	1	-0.060625
2.083333	1	-0.059750
2.100000	1	-0.059625
2.116667	1	-0.059375
2.133333	1	-0.058500
2.150000	1	-0.057625
2.166667	1	-0.056375
2.183333	1	-0.055750
2.200000	1	-0.054500
2.216667	1	-0.052875
2.233333	1	-0.051625
2.250000	1	-0.050875
2.266667	1	-0.049750
2.283333	1	-0.048625
2.300000	1	-0.047750
2.316667	1	-0.046625
2.333333	1	-0.045500
2.350000	1	-0.044250
2.366667	1	-0.043875
2.383333	1	-0.042500
2.400000	1	-0.041500
2.416667	1	-0.039750
2.433333	1	-0.039375
2.450000	1	-0.038125
2.466667	1	-0.037250
2.483333	1	-0.036500
2.500000	1	-0.035250
2.516667	1	-0.034750
2.533333	1	-0.034000
2.550000	1	-0.033375
2.566667	1	-0.032750
2.583333	1	-0.032375
2.600000	1	-0.031625
2.616667	1	-0.031625
2.633333	1	-0.031375
2.650000	1	-0.031250
2.666667	1	-0.030125
2.683333	1	-0.030250
2.700000	1	-0.029875
2.716667	1	-0.029250
2.733333	1	-0.029375
2.750000	1	-0.029500
2.766667	1	-0.028750
2.783333	1	-0.029250
2.800000	1	-0.029875
2.816667	1	-0.029625
2.833333	1	-0.029500
2.850000	1	-0.030125
2.866667	1	-0.030375
2.883333	1	-0.031500
2.900000	1	-0.032125
2.916667	1	-0.032500
2.933333	1	-0.033125
2.950000	1	-0.033250
2.966667	1	-0.034625
2.983333	1	-0.035375
3.000000	1	-0.036125
3.016667	1	-0.036500
3.033333	1	-0.036875
3.050000	1	-0.037625
3.066667	1	-0.038375
3.083333	1	-0.038750
3.100000	1	-0.039875
3.116667	1	-0.040875
3.133333	1	-0.041625
3.150000	1	-0.042375
3.166667	1	-0.043625
3.183333	1	-0.043875
3.200000	1	-0.044750
3.216667	1	-0.045250
3.233333	1	-0.046000
3.250000	1	-0.046750
3.266667	1	-0.046875
3.283333	1	-0.047625
3.300000	1	-0.048875
3.316667	1	-0.049875
3.333333	1	-0.050375
3.350000	1	-0.050875
3.366667	1	-0.051000
3.383333	1	-0.051125
3.400000	1	-0.051750
3.416667	1	-0.051875
3.433333	1	-0.051375
3.450000	1	-0.052000
3.466667	1	-0.053250
3.483333	1	-0.053625
3.500000	1	-0.054000
3.516667	1	-0.054625
3.533333	1	-0.054750
3.550000	1	-0.054750
3.566667	1	-0.055000
3.583333	1	-0.055000
3.600000	1	-0.055625
3.616667	1	-0.055750
3.633333	1	-0.055750
3.650000	1	-0.055500
3.666667	1	-0.056500
3.683333	1	-0.056625
3.700000	1	-0.056375
3.716667	1	-0.056250
3.733333	1	-0.056875
3.750000	1	-0.057375
3.766667	1	-0.057500
3.783333	1	-0.057375
3.800000	1	-0.056875
3.816667	1	-0.056625
3.833333	1	-0.056625
3.850000	1	-0.056000
3.866667	1	-0.055625
3.883333	1	-0.055750
3.900000	1	-0.055625
3.916667	1	-0.056000
3.933333	1	-0.056000
3.950000	1	-0.056250
3.966667	1	-0.056000
3.983333	1	-0.055000
4.000000	1	-0.055125
4.016667	1	-0.055125
4.033333	1	-0.054875
4.050000	1	-0.054500
4.066667	1	-0.054125
4.083333	1	-0.054500
4.100000	1	-0.054375
4.116667	1	-0.054125
4.133333	1	-0.053875
4.150000	1	-0.054375
4.166667	1	-0.054125
4.183333	1	-0.053000
4.200000	1	-0.052625
4.216667	1	-0.052375
4.233333	1	-0.052000
4.250000	1	-0.051000
4.266667	1	-0.050250
4.283333	1	-0.050000
4.300000	1	-0.049625
4.316667	1	-0.049125
4.333333	1	-0.049125
4.350000	1	-0.048500
4.366667	1	-0.047500
4.383333	1	-0.046500
4.400000	1	-0.045375
4.416667	1	-0.044625
4.433333	1	-0.043500
4.450000	1	-0.042250
4.466667	1	-0.040750
4.483333	1	-0.038750
4.500000	1	-0.037500
4.516667	1	-0.036000
4.533333	1	-0.034500
4.550000	1	-0.032375
4.566667	1	-0.030125
4.583333	1	-0.027875
4.600000	1	-0.025125
4.616667	1	-0.022750
4.633333	1	-0.020000
4.650000	1	-0.017750
4.666667	1	-0.014250
4.683333	1	-0.010625
4.700000	1	-0.007750
4.716667	1	-0.004625
4.733333	1	-0.001500
4.750000	1	0.001625
4.766667	1	0.005250
4.783333	1	0.009500
4.800000	1	0.013500
4.816667	1	0.017250
4.833333	1	0.021000
4.850000	1	0.024250
4.866667	1	0.027750
4.883333	1	0.032000
4.900000	1	0.035750
4.916667	1	0.038375
4.933333	1	0.041875
4.950000	1	0.045375
4.966667	1	0.048875
4.983333	1	0.052500
5.000000	1	0.055500
5.016667	1	0.058375
5.033333	1	0.061000
5.050000	1	0.063875
5.066667	1	0.066000
5.083333	1	0.068000
5.100000	1	0.070250
5.116667	1	0.072375
5.133333	1	0.074000
5.150000	1	0.075625
5.166667	1	0.077125
5.183333	1	0.078500
5.200000	1	0.079375
5.216667	1	0.080125
5.233333	1	0.080500
5.250000	1	0.080625
5.266667	1	0.080250
5.283333	1	0.079625
5.300000	1	0.080000
5.316667	1	0.080000
5.333333	1	0.078625
5.350000	1	0.077875
5.366667	1	0.076875
5.383333	1	0.076375
5.400000	1	0.075750
5.416667	1	0.075125
5.433333	1	0.074000
5.450000	1	0.072250
5.466667	1	0.071250
5.483333	1	0.070000
5.500000	1	0.068375
5.516667	1	0.067750
5.533333	1	0.066625
5.550000	1	0.064375
5.566667	1	0.063000
5.583333	1	0.061875
5.600000	1	0.060125
5.616667	1	0.058750
5.633333	1	0.057500
5.650000	1	0.056000
5.666667	1	0.054000
5.683333	1	0.052625
5.700000	1	0.051250
5.716667	1	0.050625
5.733333	1	0.050000
5.750000	1	0.048875
5.766667	1	0.047500
5.783333	1	0.046875
5.800000	1	0.045875
5.816667	1	0.045500
5.833333	1	0.044750
5.850000	1	0.044125
5.866667	1	0.043125
5.883333	1	0.042125
5.900000	1	0.041500
5.916667	1	0.041750
5.933333	1	0.040875
5.950000	1	0.040375
5.966667	1	0.040625
5.983333	1	0.041250
6.000000	1	0.040875
6.016667	1	0.041500
6.033333	1	0.041125
6.050000	1	0.041500
6.066667	1	0.041875
6.083333	1	0.042500
6.100000	1	0.043250
6.116667	1	0.043500
6.133333	1	0.044250
6.150000	1	0.044750
6.166667	1	0.045625
6.183333	1	0.047000
6.200000	1	0.048000
6.216667	1	0.049500
6.233333	1	0.050875
6.250000	1	0.052500
6.266667	1	0.054000
6.283333	1	0.055375
6.300000	1	0.056750
6.316667	1	0.058125
6.333333	1	0.059625
6.350000	1	0.061000
6.366667	1	0.062750
6.383333	1	0.064125
6.400000	1	0.065750
6.416667	1	0.067375
6.433333	1	0.068625
6.450000	1	0.069875
6.466667	1	0.071000
6.483333	1	0.072125
6.500000	1	0.073125
6.516667	1	0.074125
6.533333	1	0.075625
6.550000	1	0.076625
6.566667	1	0.077625
6.583333	1	0.078250
6.600000	1	0.078625
6.616667	1	0.078125
6.633333	1	0.077875
6.650000	1	0.077375
6.666667	1	0.077625
6.683333	1	0.077000
6.700000	1	0.076000
6.716667	1	0.074875
6.733333	1	0.073750
6.750000	1	0.072250
6.766667	1	0.070500
6.783333	1	0.069500
6.800000	1	0.068125
6.816667	1	0.066625
6.833333	1	0.064875
6.850000	1	0.062500
6.866667	1	0.060000
6.883333	1	0.057625
6.900000	1	0.055500
6.916667	1	0.053375
6.933333	1	0.051000
6.950000	1	0.048250
6.966667	1	0.046125
6.983333	1	0.043500
7.000000	1	0.040500
7.016667	1	0.038250
7.033333	1	0.036000
7.050000	1	0.033500
7.066667	1	0.031000
7.083333	1	0.028500
7.100000	1	0.026250
7.116667	1	0.023875
7.133333	1	0.022000
7.150000	1	0.019125
7.166667	1	0.016625
7.183333	1	0.015000
7.200000	1	0.013000
7.216667	1	0.010625
7.233333	1	0.008000
7.250000	1	0.005375
7.266667	1	0.003500
7.283333	1	0.002125
7.300000	1	0.000000
7.316667	1	-0.001625
7.333333	1	-0.003375
7.350000	1	-0.004875
7.366667	1	-0.006000
7.383333	1	-0.007125
7.400000	1	-0.008500
7.416667	1	-0.010125
7.433333	1	-0.011375
7.450000	1	-0.013375
7.466667	1	-0.014750
7.483333	1	-0.016125
7.500000	1	-0.017750
7.516667	1	-0.018750
7.533333	1	-0.019625
7.550000	1	-0.021000
7.566667	1	-0.021625
7.583333	1	-0.022375
7.600000	1	-0.022625
7.616667	1	-0.023000
7.633333	1	-0.023250
7.650000	1	-0.023625
7.666667	1	-0.024125
7.683333	1	-0.023875
7.700000	1	-0.023750
7.716667	1	-0.023750
7.733333	1	-0.023625
7.750000	1	-0.022875
7.766667	1	-0.022500
7.783333	1	-0.022625
7.800000	1	-0.022125
7.816667	1	-0.021625
7.833333	1	-0.021500
7.850000	1	-0.020250
7.866667	1	-0.018875
7.883333	1	-0.017875
7.900000	1	-0.017250
7.916667	1	-0.015500
7.933333	1	-0.014250
7.950000	1	-0.013125
7.966667	1	-0.011625
7.983333	1	-0.009375
8.000000	1	-0.008000
8.016667	1	-0.006250
8.033333	1	-0.005125
8.050000	1	-0.002750
8.066667	1	-0.000875
8.083333	1	0.001250
8.100000	1	0.003125
8.116667	1	0.005750
8.133333	1	0.008125
8.150000	1	0.010000
8.166667	1	0.012500
8.183333	1	0.014375
8.200000	1	0.016125
8.216667	1	0.018125
8.233333	1	0.019875
8.250000	1	0.021500
8.266667	1	0.023500
8.283333	1	0.025750
8.300000	1	0.028250
8.316667	1	0.030250
8.333333	1	0.032000
8.350000	1	0.033750
8.366667	1	0.035875
8.383333	1	0.037250
8.400000	1	0.039250
8.416667	1	0.041000
8.433333	1	0.042375
8.450000	1	0.043500
8.466667	1	0.044375
8.483333	1	0.045375
8.500000	1	0.046750
8.516667	1	0.048375
8.533333	1	0.049500
8.550000	1	0.050375
8.566667	1	0.051250
8.583333	1	0.052000
8.600000	1	0.052500
8.616667	1	0.052750
8.633333	1	0.053125
8.650000	1	0.053500
8.666667	1	0.054000
8.683333	1	0.054125
8.700000	1	0.054000
8.716667	1	0.053875
8.733333	1	0.054000
8.750000	1	0.053750
8.766667	1	0.053625
8.783333	1	0.053375
8.800000	1	0.053125
8.816667	1	0.052875
8.833333	1	0.052875
8.850000	1	0.052500
8.866667	1	0.051625
8.883333	1	0.050875
8.900000	1	0.050375
8.916667	1	0.050000
8.933333	1	0.049375
8.950000	1	0.048750
8.966667	1	0.048250
8.983333	1	0.047625
9.000000	1	0.046500
9.016667	1	0.045875
9.033333	1	0.045375
9.050000	1	0.044500
9.066667	1	0.043750
9.083333	1	0.042750
9.100000	1	0.041625
9.116667	1	0.040750
9.133333	1	0.040000
9.150000	1	0.038875
9.166667	1	0.038750
9.183333	1	0.038500
9.200000	1	0.037750
9.216667	1	0.037000
9.233333	1	0.035875
9.250000	1	0.035500
9.266667	1	0.034500
9.283333	1	0.033625
9.300000	1	0.033250
9.316667	1	0.032625
9.333333	1	0.032000
9.350000	1	0.032000
9.366667	1	0.031000
9.383333	1	0.030250
9.400000	1	0.029625
9.416667	1	0.029125
9.433333	1	0.028000
9.450000	1	0.027625
9.466667	1	0.027875
9.483333	1	0.028375
9.500000	1	0.029375
9.516667	1	0.031375
9.533333	1	0.033875
9.550000	1	0.037375
9.566667	1	0.041375
9.583333	1	0.047125
9.600000	1	0.053625
9.616667	1	0.061750
9.633333	1	0.071750
9.650000	1	0.084125
9.666667	1	0.098250
9.683333	1	0.114125
9.700000	1	0.132625
9.716667	1	0.152125
9.733333	1	0.174000
9.750000	1	0.195875
9.766667	1	0.217750
9.783333	1	0.237750
9.800000	1	0.255250
9.816667	1	0.268250
9.833333	1	0.275625
9.850000	1	0.275250
9.866667	1	0.263875
9.883333	1	0.239000
9.900000	1	0.200625
9.916667	1	0.158000
9.933333	1	0.136250
9.950000	1	0.176125
9.966667	1	0.334250
9.983333	1	0.673750
10.000000	1	1.258750
10.016667	1	2.143375
10.033333	1	3.369500
10.050000	1	4.960375
10.066667	1	6.929125
10.083333	1	9.272000
10.100000	1	11.973125
10.116667	1	15.000750
10.133333	1	18.303500
10.150000	1	21.809250
10.166667	1	25.423625
10.183333	1	29.024625
10.200000	1	32.467000
10.216667	1	35.583500
10.233333	1	38.201250
10.250000	1	40.158625
10.266667	1	41.334625
10.283333	1	41.668250
10.300000	1	41.168500
10.316667	1	39.912750
10.333333	1	38.033625
10.350000	1	35.694000
10.366667	1	33.066250
10.383333	1	30.307000
10.400000	1	27.546000
10.416667	1	24.879250
10.433333	1	22.373500
10.450000	1	20.068750
10.466667	1	17.978625
10.483333	1	16.104000
10.500000	1	14.434875
10.516667	1	12.956625
10.533333	1	11.652500
10.550000	1	10.501500
10.566667	1	9.485375
10.583333	1	8.585250
10.600000	1	7.786375
10.616667	1	7.075500
10.633333	1	6.443375
10.650000	1	5.879500
10.666667	1	5.378125
10.683333	1	4.933125
10.700000	1	4.537750
10.716667	1	4.187250
10.733333	1	3.876250
10.750000	1	3.601125
10.766667	1	3.356875
10.783333	1	3.140875
10.800000	1	2.948625
10.816667	1	2.777750
10.833333	1	2.625000
10.850000	1	2.487125
10.866667	1	2.362500
10.883333	1	2.249750
10.900000	1	2.146375
10.916667	1	2.051250
10.933333	1	1.963875
10.950000	1	1.881125
10.966667	1	1.805000
10.983333	1	1.733750
11.000000	1	1.666750
11.016667	1	1.605625
11.033333	1	1.548250
11.050000	1	1.495000
11.066667	1	1.446125
11.083333	1	1.400000
11.100000	1	1.358125
11.116667	1	1.320250
11.133333	1	1.285125
11.150000	1	1.253000
11.166667	1	1.224625
11.183333	1	1.198375
11.200000	1	1.174500
11.216667	1	1.153500
11.233333	1	1.135000
11.250000	1	1.119125
11.266667	1	1.105500
11.283333	1	1.094500
11.300000	1	1.087000
11.316667	1	1.081250
11.333333	1	1.079375
11.350000	1	1.080625
11.366667	1	1.084500
11.383333	1	1.092125
11.400000	1	1.100500
11.416667	1	1.110875
11.433333	1	1.121125
11.450000	1	1.131500
11.466667	1	1.139625
11.483333	1	1.146000
11.500000	1	1.150000
11.516667	1	1.150625
11.533333	1	1.148250
11.550000	1	1.142625
11.566667	1	1.135250
11.583333	1	1.125500
11.600000	1	1.114125
11.616667	1	1.102000
11.633333	1	1.089000
11.650000	1	1.076375
11.666667	1	1.063000
11.683333	1	1.050000
11.700000	1	1.037500
11.716667	1	1.025125
11.733333	1	1.013875
11.750000	1	1.003500
11.766667	1	0.994750
11.783333	1	0.986500
11.800000	1	0.979250
11.816667	1	0.972375
11.833333	1	0.967250
11.850000	1	0.964750
11.866667	1	0.963125
11.883333	1	0.964250
11.900000	1	0.966750
11.916667	1	0.972375
11.933333	1	0.982000
11.950000	1	0.994750
11.966667	1	1.011250
11.983333	1	1.033625
12.000000	1	1.060875
12.016667	1	1.095250
12.033333	1	1.137250
12.050000	1	1.189125
12.066667	1	1.252000
12.083333	1	1.330250
12.100000	1	1.425375
12.116667	1	1.542750
12.133333	1	1.684375
12.150000	1	1.857625
12.166667	1	2.065625
12.183333	1	2.313875
12.200000	1	2.607375
12.216667	1	2.951000
12.233333	1	3.351250
12.250000	1	3.814625
12.266667	1	4.350125
12.283333	1	4.970375
12.300000	1	5.691250
12.316667	1	6.533250
12.333333	1	7.524750
12.350000	1	8.700750
12.366667	1	10.102375
12.383333	1	11.779875
12.400000	1	13.784750
12.416667	1	16.162000
12.433333	1	18.951875
12.450000	1	22.174875
12.466667	1	25.826750
12.483333	1	29.866125
12.500000	1	34.214125
12.516667	1	38.753000
12.533333	1	43.332750
12.550000	1	47.783875
12.566667	1	51.928750
12.583333	1	55.601625
12.600000	1	58.656125
12.616667	1	60.982750
12.633333	1	62.511500
12.650000	1	63.218750
12.666667	1	63.120625
12.683333	1	62.271250
12.700000	1	60.757750
12.716667	1	58.685000
12.733333	1	56.173750
12.750000	1	53.344500
12.766667	1	50.307000
12.783333	1	47.163250
12.800000	1	44.000500
12.816667	1	40.888750
12.833333	1	37.879125
12.850000	1	35.006000
12.866667	1	32.293000
12.883333	1	29.754375
12.900000	1	27.396500
12.916667	1	25.217875
12.933333	1	23.215000
12.950000	1	21.379125
12.966667	1	19.700625
12.983333	1	18.169125
13.000000	1	16.773250
13.016667	1	15.500875
13.033333	1	14.339500
13.050000	1	13.275875
13.066667	1	12.299000
13.083333	1	11.397000
13.100000	1	10.559000
13.116667	1	9.775250
13.133333	1	9.036375
13.150000	1	8.333625
13.166667	1	7.658000
13.183333	1	7.002625
13.200000	1	6.363000
13.216667	1	5.740250
13.233333	1	5.140500
13.250000	1	4.576625
13.266667	1	4.065750
13.283333	1	3.619125
13.300000	1	3.240250
13.316667	1	2.923125
13.333333	1	2.659750
13.350000	1	2.439250
13.366667	1	2.253375
13.383333	1	2.095000
13.400000	1	1.957875
13.416667	1	1.838625
13.433333	1	1.734750
13.450000	1	1.642875
13.466667	1	1.561125
13.483333	1	1.488375
13.500000	1	1.423125
13.516667	1	1.365750
13.533333	1	1.313625
13.550000	1	1.267375
13.566667	1	1.227000
13.583333	1	1.191000
13.600000	1	1.159750
13.616667	1	1.132125
13.633333	1	1.107375
13.650000	1	1.085625
13.666667	1	1.065500
13.683333	1	1.047250
13.700000	1	1.030000
13.716667	1	1.013750
13.733333	1	0.998500
13.750000	1	0.983000
13.766667	1	0.968250
13.783333	1	0.952250
13.800000	1	0.936625
13.816667	1	0.921125
13.833333	1	0.905750
13.850000	1	0.889625
13.866667	1	0.874750
13.883333	1	0.858875
13.900000	1	0.843500
13.916667	1	0.827250
13.933333	1	0.811125
13.950000	1	0.796125
13.966667	1	0.780625
13.983333	1	0.766125
14.000000	1	0.751750
14.016667	1	0.738125
14.033333	1	0.725000
14.050000	1	0.712250
14.066667	1	0.699625
14.083333	1	0.688125
14.100000	1	0.676500
14.116667	1	0.666250
14.133333	1	0.656375
14.150000	1	0.647000
14.166667	1	0.639000
14.183333	1	0.631500
14.200000	1	0.624375
14.216667	1	0.617375
14.233333	1	0.611375
14.250000	1	0.606375
14.266667	1	0.602125
14.283333	1	0.598625
14.300000	1	0.595750
14.316667	1	0.594000
14.333333	1	0.592125
14.350000	1	0.590750
14.366667	1	0.590500
14.383333	1	0.590750
14.400000	1	0.591500
14.416667	1	0.593750
14.433333	1	0.595875
14.450000	1	0.598125
14.466667	1	0.600000
14.483333	1	0.601250
14.500000	1	0.602250
14.516667	1	0.603125
14.533333	1	0.604125
14.550000	1	0.604875
14.566667	1	0.604375
14.583333	1	0.604625
14.600000	1	0.604375
14.616667	1	0.603750
14.633333	1	0.602750
14.650000	1	0.602250
14.666667	1	0.602375
14.683333	1	0.601875
14.700000	1	0.602000
14.716667	1	0.602875
14.733333	1	0.604250
14.750000	1	0.606125
14.766667	1	0.609000
14.783333	1	0.612625
14.800000	1	0.616000
14.816667	1	0.621000
14.833333	1	0.625875
14.850000	1	0.630875
14.866667	1	0.636000
14.883333	1	0.640500
14.900000	1	0.644500
14.916667	1	0.647875
14.933333	1	0.650000
14.950000	1	0.651250
14.966667	1	0.651250
14.983333	1	0.650625
15.000000	1	0.649625
15.016667	1	0.646750
15.033333	1	0.643375
15.050000	1	0.639125
15.066667	1	0.634750
15.083333	1	0.629500
15.100000	1	0.624750
15.116667	1	0.619500
15.133333	1	0.613625
15.150000	1	0.609000
15.166667	1	0.604375
15.183333	1	0.600500
15.200000	1	0.596500
15.216667	1	0.593500
15.233333	1	0.590875
15.250000	1	0.588875
15.266667	1	0.588250
15.283333	1	0.588250
15.300000	1	0.588750
15.316667	1	0.589750
15.333333	1	0.591375
15.350000	1	0.593625
15.366667	1	0.595750
15.383333	1	0.599375
15.400000	1	0.604375
15.416667	1	0.610250
15.433333	1	0.618125
15.450000	1	0.628250
15.466667	1	0.639875
15.483333	1	0.655250
15.500000	1	0.672625
15.516667	1	0.693000
15.533333	1	0.716250
15.550000	1	0.741500
15.566667	1	0.769000
15.583333	1	0.796625
15.600000	1	0.825750
15.616667	1	0.854125
15.633333	1	0.880625
15.650000	1	0.904750
15.666667	1	0.925625
15.683333	1	0.941875
15.700000	1	0.953750
15.716667	1	0.960750
15.733333	1	0.963625
15.750000	1	0.962500
15.766667	1	0.957125
15.783333	1	0.949000
15.800000	1	0.938250
15.816667	1	0.925625
15.833333	1	0.912000
15.850000	1	0.897750
15.866667	1	0.883750
15.883333	1	0.869375
15.900000	1	0.854250
15.916667	1	0.840250
15.933333	1	0.827000
15.950000	1	0.814875
15.966667	1	0.802875
15.983333	1	0.791500
16.000000	1	0.781750
16.016667	1	0.773000
16.033333	1	0.765250
16.050000	1	0.759000
16.066667	1	0.753500
16.083333	1	0.749000
16.100000	1	0.745250
16.116667	1	0.743500
16.133333	1	0.741875
16.150000	1	0.741000
16.166667	1	0.741000
16.183333	1	0.741875
16.200000	1	0.743250
16.216667	1	0.744125
16.233333	1	0.745500
16.250000	1	0.747250
16.266667	1	0.748625
16.283333	1	0.749625
16.300000	1	0.749625
16.316667	1	0.749250
16.333333	1	0.749000
16.350000	1	0.748750
16.366667	1	0.747625
16.383333	1	0.746000
16.400000	1	0.744500
16.416667	1	0.742875
16.433333	1	0.740875
16.450000	1	0.739375
16.466667	1	0.738625
16.483333	1	0.736875
16.500000	1	0.736625
16.516667	1	0.736375
16.533333	1	0.736500
16.550000	1	0.737500
16.566667	1	0.738750
16.583333	1	0.741500
16.600000	1	0.743875
16.616667	1	0.747875
16.633333	1	0.752000
16.650000	1	0.756625
16.666667	1	0.761125
16.683333	1	0.765750
16.700000	1	0.770875
16.716667	1	0.776375
16.733333	1	0.781500
16.750000	1	0.786625
16.766667	1	0.791500
16.783333	1	0.795250
16.800000	1	0.799125
16.816667	1	0.801875
16.833333	1	0.804125
16.850000	1	0.805125
16.866667	1	0.805000
16.883333	1	0.804500
16.900000	1	0.803750
16.916667	1	0.802750
16.933333	1	0.801125
16.950000	1	0.799375
16.966667	1	0.798250
16.983333	1	0.798250
17.000000	1	0.797375
17.016667	1	0.797250
17.033333	1	0.798000
17.050000	1	0.798875
17.066667	1	0.798625
17.083333	1	0.798125
17.100000	1	0.797750
17.116667	1	0.797625
17.133333	1	0.796375
17.150000	1	0.794750
17.166667	1	0.792500
17.183333	1	0.788375
17.200000	1	0.784250
17.216667	1	0.779250
17.233333	1	0.773000
17.250000	1	0.766500
17.266667	1	0.759375
17.283333	1	0.752125
17.300000	1	0.744750
17.316667	1	0.738000
17.333333	1	0.731375
17.350000	1	0.724875
17.366667	1	0.719875
17.383333	1	0.714875
17.400000	1	0.711000
17.416667	1	0.707625
17.433333	1	0.704750
17.450000	1	0.702125
17.466667	1	0.700500
17.483333	1	0.699500
17.500000	1	0.700000
17.516667	1	0.702125
17.533333	1	0.703875
17.550000	1	0.706875
17.566667	1	0.711000
17.583333	1	0.715750
17.600000	1	0.721375
17.616667	1	0.727375
17.633333	1	0.734000
17.650000	1	0.742000
17.666667	1	0.750500
17.683333	1	0.759375
17.700000	1	0.768625
17.716667	1	0.778500
17.733333	1	0.787750
17.750000	1	0.798125
17.766667	1	0.807750
17.783333	1	0.817375
17.800000	1	0.826875
17.816667	1	0.835375
17.833333	1	0.842750
17.850000	1	0.849250
17.866667	1	0.854250
17.883333	1	0.857500
17.900000	1	0.859250
17.916667	1	0.858750
17.933333	1	0.857000
17.950000	1	0.852500
17.966667	1	0.847250
17.983333	1	0.839875
18.000000	1	0.831625
18.016667	1	0.821375
18.033333	1	0.809750
18.050000	1	0.797375
18.066667	1	0.784750
18.083333	1	0.771000
18.100000	1	0.757750
18.116667	1	0.743625
18.133333	1	0.728750
18.150000	1	0.714500
18.166667	1	0.701375
18.183333	1	0.689375
18.200000	1	0.676875
18.216667	1	0.665125
18.233333	1	0.653500
18.250000	1	0.643250
18.266667	1	0.633875
18.283333	1	0.625500
18.300000	1	0.618000
18.316667	1	0.611375
18.333333	1	0.606375
18.350000	1	0.602625
18.366667	1	0.599875
18.383333	1	0.597625
18.400000	1	0.596000
18.416667	1	0.595250
18.433333	1	0.594875
18.450000	1	0.594250
18.466667	1	0.594500
18.483333	1	0.595250
18.500000	1	0.596250
18.516667	1	0.597750
18.533333	1	0.599875
18.550000	1	0.602125
18.566667	1	0.604750
18.583333	1	0.607000
18.600000	1	0.609750
18.616667	1	0.612625
18.633333	1	0.616500
18.650000	1	0.620750
18.666667	1	0.624875
18.683333	1	0.629500
18.700000	1	0.635875
18.716667	1	0.642125
18.733333	1	0.649250
18.750000	1	0.656125
18.766667	1	0.664250
18.783333	1	0.673125
18.800000	1	0.682750
18.816667	1	0.692375
18.833333	1	0.702750
18.850000	1	0.714250
18.866667	1	0.726625
18.883333	1	0.740125
18.900000	1	0.754875
18.916667	1	0.771500
18.933333	1	0.789750
18.950000	1	0.810750
18.966667	1	0.833875
18.983333	1	0.859250
19.000000	1	0.887375
19.016667	1	0.917625
19.033333	1	0.950250
19.050000	1	0.984625
19.066667	1	1.021375
19.083333	1	1.059375
19.100000	1	1.098250
19.116667	1	1.136500
19.133333	1	1.174125
19.150000	1	1.211750
19.166667	1	1.246375
19.183333	1	1.278125
19.200000	1	1.306000
19.216667	1	1.329875
19.233333	1	1.348125
19.250000	1	1.361125
19.266667	1	1.367500
19.283333	1	1.368375
19.300000	1	1.363750
19.316667	1	1.353250
19.333333	1	1.337000
19.350000	1	1.315750
19.366667	1	1.290500
19.383333	1	1.260625
19.400000	1	1.227625
19.416667	1	1.190625
19.433333	1	1.152125
19.450000	1	1.111875
19.466667	1	1.070375
19.483333	1	1.028500
19.500000	1	0.987250
19.516667	1	0.946875
19.533333	1	0.907750
19.550000	1	0.870250
19.566667	1	0.834500
19.583333	1	0.800750
19.600000	1	0.768375
19.616667	1	0.738375
19.633333	1	0.711625
19.650000	1	0.687750
19.666667	1	0.665750
19.683333	1	0.647750
19.700000	1	0.632875
19.716667	1	0.620625
19.733333	1	0.611375
19.750000	1	0.606000
19.766667	1	0.603625
19.783333	1	0.605000
19.800000	1	0.607875
19.816667	1	0.614375
19.833333	1	0.623375
19.850000	1	0.634750
19.866667	1	0.648250
19.883333	1	0.663875
19.900000	1	0.680625
19.916667	1	0.698375
19.933333	1	0.716875
19.950000	1	0.735000
19.966667	1	0.752250
19.983333	1	0.768875
20.000000	1	0.783750
20.016667	1	0.797875
20.033333	1	0.809875
20.050000	1	0.819000
20.066667	1	0.826750
20.083333	1	0.832750
20.100000	1	0.836625
20.116667	1	0.837875
20.133333	1	0.837500
20.150000	1	0.836000
20.166667	1	0.833375
20.183333	1	0.829500
20.200000	1	0.825375
20.216667	1	0.821250
20.233333	1	0.816750
20.250000	1	0.813000
20.266667	1	0.810375
20.283333	1	0.808625
20.300000	1	0.808375
20.316667	1	0.809500
20.333333	1	0.812375
20.350000	1	0.817375
20.366667	1	0.823375
20.383333	1	0.831625
20.400000	1	0.840000
20.416667	1	0.850500
20.433333	1	0.861375
20.450000	1	0.872250
20.466667	1	0.883625
20.483333	1	0.894125
20.500000	1	0.904250
20.516667	1	0.913625
20.533333	1	0.921750
20.550000	1	0.928750
20.566667	1	0.935750
20.583333	1	0.942125
20.600000	1	0.947625
20.616667	1	0.953375
20.633333	1	0.959250
20.650000	1	0.966500
20.666667	1	0.975625
20.683333	1	0.987000
20.700000	1	1.001500
20.716667	1	1.019625
20.733333	1	1.041625
20.750000	1	1.067875
20.766667	1	1.097000
20.783333	1	1.129250
20.800000	1	1.164625
20.816667	1	1.201250
20.833333	1	1.238875
20.850000	1	1.276750
20.866667	1	1.312500
20.883333	1	1.344750
20.900000	1	1.373125
20.916667	1	1.396625
20.933333	1	1.414000
20.950000	1	1.423750
20.966667	1	1.426625
20.983333	1	1.421125
21.000000	1	1.408250
21.016667	1	1.387875
21.033333	1	1.359625
21.050000	1	1.326000
21.066667	1	1.287750
21.083333	1	1.244875
21.100000	1	1.198625
21.116667	1	1.150000
21.133333	1	1.099875
21.150000	1	1.049750
21.166667	1	0.999375
21.183333	1	0.950500
21.200000	1	0.902125
21.216667	1	0.856000
21.233333	1	0.812000
21.250000	1	0.770875
21.266667	1	0.732250
21.283333	1	0.696375
21.300000	1	0.663125
21.316667	1	0.633250
21.333333	1	0.606375
21.350000	1	0.581750
21.366667	1	0.559250
21.383333	1	0.539500
21.400000	1	0.521875
21.416667	1	0.507000
21.433333	1	0.493750
21.450000	1	0.482375
21.466667	1	0.473750
21.483333	1	0.466750
21.500000	1	0.461375
21.516667	1	0.457500
21.533333	1	0.455625
21.550000	1	0.454875
21.566667	1	0.456500
21.583333	1	0.459750
21.600000	1	0.465500
21.616667	1	0.472750
21.633333	1	0.482375
21.650000	1	0.494500
21.666667	1	0.509125
21.683333	1	0.527375
21.700000	1	0.548875
21.716667	1	0.573125
21.733333	1	0.601500
21.750000	1	0.634250
21.766667	1	0.671125
21.783333	1	0.712625
21.800000	1	0.758375
21.816667	1	0.808875
21.833333	1	0.863125
21.850000	1	0.921875
21.866667	1	0.982875
21.883333	1	1.046500
21.900000	1	1.111625
21.916667	1	1.178000
21.933333	1	1.243625
21.950000	1	1.308875
21.966667	1	1.370875
21.983333	1	1.428875
22.000000	1	1.481875
22.016667	1	1.529375
22.033333	1	1.570750
22.050000	1	1.603000
22.066667	1	1.627750
22.083333	1	1.643125
22.100000	1	1.650125
22.116667	1	1.647625
22.133333	1	1.636875
22.150000	1	1.618125
22.166667	1	1.591375
22.183333	1	1.557750
22.200000	1	1.518250
22.216667	1	1.474000
22.233333	1	1.426750
22.250000	1	1.375750
22.266667	1	1.322625
22.283333	1	1.268500
22.300000	1	1.214500
22.316667	1	1.160875
22.333333	1	1.107875
22.350000	1	1.057000
22.366667	1	1.007875
22.383333	1	0.961125
22.400000	1	0.917875
22.416667	1	0.877875
22.433333	1	0.839750
22.450000	1	0.805000
22.466667	1	0.773125
22.483333	1	0.745000
22.500000	1	0.719125
22.516667	1	0.696000
22.533333	1	0.675375
22.550000	1	0.656000
22.566667	1	0.639250
22.583333	1	0.623875
22.600000	1	0.611000
22.616667	1	0.598500
22.633333	1	0.587125
22.650000	1	0.576875
22.666667	1	0.568500
22.683333	1	0.560500
22.700000	1	0.554000
22.716667	1	0.546500
22.733333	1	0.539125
22.750000	1	0.532125
22.766667	1	0.526125
22.783333	1	0.519125
22.800000	1	0.512375
22.816667	1	0.505250
22.833333	1	0.498250
22.850000	1	0.491375
22.866667	1	0.484250
22.883333	1	0.477125
22.900000	1	0.470250
22.916667	1	0.463250
22.933333	1	0.456500
22.950000	1	0.449750
22.966667	1	0.442625
22.983333	1	0.436750
23.000000	1	0.430875
23.016667	1	0.425750
23.033333	1	0.421375
23.050000	1	0.417625
23.066667	1	0.413875
23.083333	1	0.411500
23.100000	1	0.410500
23.116667	1	0.410125
23.133333	1	0.410750
23.150000	1	0.412125
23.166667	1	0.415000
23.183333	1	0.418500
23.200000	1	0.423625
23.216667	1	0.431000
23.233333	1	0.439125
23.250000	1	0.448125
23.266667	1	0.459000
23.283333	1	0.471375
23.300000	1	0.485500
23.316667	1	0.502375
23.333333	1	0.520250
23.350000	1	0.540125
23.366667	1	0.562000
23.383333	1	0.586875
23.400000	1	0.615000
23.416667	1	0.645375
23.433333	1	0.679750
23.450000	1	0.718250
23.466667	1	0.760875
23.483333	1	0.808750
23.500000	1	0.863000
23.516667	1	0.923375
23.533333	1	0.991625
23.550000	1	1.068375
23.566667	1	1.155125
23.583333	1	1.251500
23.600000	1	1.359000
23.616667	1	1.478000
23.633333	1	1.609500
23.650000	1	1.753375
23.666667	1	1.909125
23.683333	1	2.076375
23.700000	1	2.254750
23.716667	1	2.442750
23.733333	1	2.638375
23.750000	1	2.839000
23.766667	1	3.042000
23.783333	1	3.245000
23.800000	1	3.443125
23.816667	1	3.635000
23.833333	1	3.815000
23.850000	1	3.981125
23.866667	1	4.129250
23.883333	1	4.256750
23.900000	1	4.361375
23.916667	1	4.440375
23.933333	1	4.493500
23.950000	1	4.519625
23.966667	1	4.517875
23.983333	1	4.490750
24.000000	1	4.437625
24.016667	1	4.360250
24.033333	1	4.262000
24.050000	1	4.144250
24.066667	1	4.010625
24.083333	1	3.863250
24.100000	1	3.705875
24.116667	1	3.540625
24.133333	1	3.370125
24.150000	1	3.196000
24.166667	1	3.022500
24.183333	1	2.850000
24.200000	1	2.682500
24.216667	1	2.520250
24.233333	1	2.365125
24.250000	1	2.217750
24.266667	1	2.078750
24.283333	1	1.947250
24.300000	1	1.824625
24.316667	1	1.711375
24.333333	1	1.606750
24.350000	1	1.510250
24.366667	1	1.421750
24.383333	1	1.340750
24.400000	1	1.266750
24.416667	1	1.199125
24.433333	1	1.137375
24.450000	1	1.081125
24.466667	1	1.029375
24.483333	1	0.982000
24.500000	1	0.938750
24.516667	1	0.897375
24.533333	1	0.859250
24.550000	1	0.823500
24.566667	1	0.789750
24.583333	1	0.757875
24.600000	1	0.727750
24.616667	1	0.699250
24.633333	1	0.671500
24.650000	1	0.645750
24.666667	1	0.619875
24.683333	1	0.595625
24.700000	1	0.572250
24.716667	1	0.549000
24.733333	1	0.527125
24.750000	1	0.506125
24.766667	1	0.485500
24.783333	1	0.466000
24.800000	1	0.448250
24.816667	1	0.430750
24.833333	1	0.414375
24.850000	1	0.399000
24.866667	1	0.385250
24.883333	1	0.372000
24.900000	1	0.360375
24.916667	1	0.348750
24.933333	1	0.338500
24.950000	1	0.329000
24.966667	1	0.321250
24.983333	1	0.313125
25.000000	1	0.306000
25.016667	1	0.301125
25.033333	1	0.296125
25.050000	1	0.291625
25.066667	1	0.288750
25.083333	1	0.286000
25.100000	1	0.283875
25.116667	1	0.282625
25.133333	1	0.282000
25.150000	1	0.282500
25.166667	1	0.282625
25.183333	1	0.283250
25.200000	1	0.284750
25.216667	1	0.286750
25.233333	1	0.288875
25.250000	1	0.291125
25.266667	1	0.293125
25.283333	1	0.295500
25.300000	1	0.297750
25.316667	1	0.300500
25.333333	1	0.303500
25.350000	1	0.306875
25.366667	1	0.309250
25.383333	1	0.311125
25.400000	1	0.313125
25.416667	1	0.314750
25.433333	1	0.316500
25.450000	1	0.319250
25.466667	1	0.320625
25.483333	1	0.321500
25.500000	1	0.322000
25.516667	1	0.321750
25.533333	1	0.321625
25.550000	1	0.321000
25.566667	1	0.320250
25.583333	1	0.318875
25.600000	1	0.317000
25.616667	1	0.315125
25.633333	1	0.313375
25.650000	1	0.311375
25.666667	1	0.308625
25.683333	1	0.305750
25.700000	1	0.302750
25.716667	1	0.299375
25.733333	1	0.296125
25.750000	1	0.292500
25.766667	1	0.288375
25.783333	1	0.283875
25.800000	1	0.278875
25.816667	1	0.274375
25.833333	1	0.268500
25.850000	1	0.262625
25.866667	1	0.257000
25.883333	1	0.250625
25.900000	1	0.243625
25.916667	1	0.237375
25.933333	1	0.230375
25.950000	1	0.223000
25.966667	1	0.215375
25.983333	1	0.208375
26.000000	1	0.201125
26.016667	1	0.194375
26.033333	1	0.187000
26.050000	1	0.180500
26.066667	1	0.173500
26.083333	1	0.167750
26.100000	1	0.162000
26.116667	1	0.156375
26.133333	1	0.151375
26.150000	1	0.146875
26.166667	1	0.142750
26.183333	1	0.139625
26.200000	1	0.137500
26.216667	1	0.136625
26.233333	1	0.135125
26.250000	1	0.135625
26.266667	1	0.136250
26.283333	1	0.137500
26.300000	1	0.138875
26.316667	1	0.139625
26.333333	1	0.141500
26.350000	1	0.143125
26.366667	1	0.145250
26.383333	1	0.148125
26.400000	1	0.150500
26.416667	1	0.151875
26.433333	1	0.154000
26.450000	1	0.155625
26.466667	1	0.157250
26.483333	1	0.159250
26.500000	1	0.160375
26.516667	1	0.160875
26.533333	1	0.160625
26.550000	1	0.161375
26.566667	1	0.160875
26.583333	1	0.161250
26.600000	1	0.160750
26.616667	1	0.160125
26.633333	1	0.160250
26.650000	1	0.160000
26.666667	1	0.159125
26.683333	1	0.158375
26.700000	1	0.157250
26.716667	1	0.156875
26.733333	1	0.156625
26.750000	1	0.156625
26.766667	1	0.157125
26.783333	1	0.157750
26.800000	1	0.157875
26.816667	1	0.159250
26.833333	1	0.160625
26.850000	1	0.162500
26.866667	1	0.164375
26.883333	1	0.167250
26.900000	1	0.170250
26.916667	1	0.173375
26.933333	1	0.177750
26.950000	1	0.182625
26.966667	1	0.188125
26.983333	1	0.193500
27.000000	1	0.199625
27.016667	1	0.206625
27.033333	1	0.214125
27.050000	1	0.221750
27.066667	1	0.230125
27.083333	1	0.239500
27.100000	1	0.249125
27.116667	1	0.259125
27.133333	1	0.269500
27.150000	1	0.280375
27.166667	1	0.292500
27.183333	1	0.305125
27.200000	1	0.317750
27.216667	1	0.332750
27.233333	1	0.347875
27.250000	1	0.363500
27.266667	1	0.380250
27.283333	1	0.397625
27.300000	1	0.415625
27.316667	1	0.434125
27.333333	1	0.455000
27.350000	1	0.477125
27.366667	1	0.500375
27.383333	1	0.525250
27.400000	1	0.552500
27.416667	1	0.581875
27.433333	1	0.613000
27.450000	1	0.647125
27.466667	1	0.684250
27.483333	1	0.725000
27.500000	1	0.769000
27.516667	1	0.817625
27.533333	1	0.871250
27.550000	1	0.930500
27.566667	1	0.995625
27.583333	1	1.066875
27.600000	1	1.143750
27.616667	1	1.227625
27.633333	1	1.318875
27.650000	1	1.417500
27.666667	1	1.522500
27.683333	1	1.634000
27.700000	1	1.751625
27.716667	1	1.875500
27.733333	1	2.004250
27.750000	1	2.137375
27.766667	1	2.272875
27.783333	1	2.410875
27.800000	1	2.549125
27.816667	1	2.685750
27.833333	1	2.819750
27.850000	1	2.948625
27.866667	1	3.071375
27.883333	1	3.185375
27.900000	1	3.288750
27.916667	1	3.380125
27.933333	1	3.457750
27.950000	1	3.521000
27.966667	1	3.568750
27.983333	1	3.600125
28.000000	1	3.614250
28.016667	1	3.610875
28.033333	1	3.589875
28.050000	1	3.551375
28.066667	1	3.496125
28.083333	1	3.425500
28.100000	1	3.339750
28.116667	1	3.241125
28.133333	1	3.130000
28.150000	1	3.009375
28.166667	1	2.880125
28.183333	1	2.745750
28.200000	1	2.606125
28.216667	1	2.462750
28.233333	1	2.317125
28.250000	1	2.171875
28.266667	1	2.027125
28.283333	1	1.885125
28.300000	1	1.746000
28.316667	1	1.611500
28.333333	1	1.481875
28.350000	1	1.356875
28.366667	1	1.238375
28.383333	1	1.126250
28.400000	1	1.019750
28.416667	1	0.920125
28.433333	1	0.826250
28.450000	1	0.737625
28.466667	1	0.654000
28.483333	1	0.575875
28.500000	1	0.501125
28.516667	1	0.431125
28.533333	1	0.365125
28.550000	1	0.302875
28.566667	1	0.243125
28.583333	1	0.187250
28.600000	1	0.134000
28.616667	1	0.082750
28.633333	1	0.034375
28.650000	1	-0.011625
28.666667	1	-0.056375
28.683333	1	-0.098375
28.700000	1	-0.138000
28.716667	1	-0.176125
28.733333	1	-0.212000
28.750000	1	-0.244875
28.766667	1	-0.276125
28.783333	1	-0.303625
28.800000	1	-0.328375
28.816667	1	-0.351000
28.833333	1	-0.370625
28.850000	1	-0.386750
28.866667	1	-0.399875
28.883333	1	-0.411000
28.900000	1	-0.418875
28.916667	1	-0.423000
28.933333	1	-0.423500
28.950000	1	-0.421125
28.966667	1	-0.415125
28.983333	1	-0.406375
29.000000	1	-0.394750
29.016667	1	-0.380875
29.033333	1	-0.363500
29.050000	1	-0.343250
29.066667	1	-0.321125
29.083333	1	-0.297375
29.100000	1	-0.271625
29.116667	1	-0.244625
29.133333	1	-0.215500
29.150000	1	-0.185750
29.166667	1	-0.155125
29.183333	1	-0.124000
29.200000	1	-0.092125
29.216667	1	-0.060250
29.233333	1	-0.028000
29.250000	1	0.004000
29.266667	1	0.035500
29.283333	1	0.066500
29.300000	1	0.097125
29.316667	1	0.127375
29.333333	1	0.155875
29.350000	1	0.182875
29.366667	1	0.209000
29.383333	1	0.235250
29.400000	1	0.259125
29.416667	1	0.281750
29.433333	1	0.303125
29.450000	1	0.323125
29.466667	1	0.341875
29.483333	1	0.358375
29.500000	1	0.373375
29.516667	1	0.387250
29.533333	1	0.399875
29.550000	1	0.412375
29.566667	1	0.422750
29.583333	1	0.430375
29.600000	1	0.437500
29.616667	1	0.443500
29.633333	1	0.449000
29.650000	1	0.452750
29.666667	1	0.454875
29.683333	1	0.456500
29.700000	1	0.457250
29.716667	1	0.457750
29.733333	1	0.457125
29.750000	1	0.455625
29.766667	1	0.454250
29.783333	1	0.452000
29.800000	1	0.449750
29.816667	1	0.447500
29.833333	1	0.444250
29.850000	1	0.442125
29.866667	1	0.439500
29.883333	1	0.437250
29.900000	1	0.435375
29.916667	1	0.433500
29.933333	1	0.432375
29.950000	1	0.431250
29.966667	1	0.431000
29.983333	1	0.431750
30.000000	1	0.432375
30.016667	1	0.435125
30.033333	1	0.437875
30.050000	1	0.440875
30.066667	1	0.444875
30.083333	1	0.449250
30.100000	1	0.455500
30.116667	1	0.462625
30.133333	1	0.470500
30.150000	1	0.480500
30.166667	1	0.491875
30.183333	1	0.504500
30.200000	1	0.518125
30.216667	1	0.533625
30.233333	1	0.550625
30.250000	1	0.569500
30.266667	1	0.590500
30.283333	1	0.613625
30.300000	1	0.639125
30.316667	1	0.667000
30.333333	1	0.697625
30.350000	1	0.730875
30.366667	1	0.766375
30.383333	1	0.805375
30.400000	1	0.846875
30.416667	1	0.891125
30.433333	1	0.938500
30.450000	1	0.988500
30.466667	1	1.041875
30.483333	1	1.096750
30.500000	1	1.154250
30.516667	1	1.213000
30.533333	1	1.273625
30.550000	1	1.334750
30.566667	1	1.395750
30.583333	1	1.456125
30.600000	1	1.515875
30.616667	1	1.573875
30.633333	1	1.629375
30.650000	1	1.681250
30.666667	1	1.729625
30.683333	1	1.773625
30.700000	1	1.812500
30.716667	1	1.845500
30.733333	1	1.872375
30.750000	1	1.892750
30.766667	1	1.906125
30.783333	1	1.912750
30.800000	1	1.912125
30.816667	1	1.904500
30.833333	1	1.890250
30.850000	1	1.869375
30.866667	1	1.841250
30.883333	1	1.807000
30.900000	1	1.767875
30.916667	1	1.723750
30.933333	1	1.675125
30.950000	1	1.622625
30.966667	1	1.567000
30.983333	1	1.508375
31.000000	1	1.448875
31.016667	1	1.387500
31.033333	1	1.325250
31.050000	1	1.262750
31.066667	1	1.200375
31.083333	1	1.138375
31.100000	1	1.078250
31.116667	1	1.019750
31.133333	1	0.963125
31.150000	1	0.908750
31.166667	1	0.857000
31.183333	1	0.807375
31.200000	1	0.759375
31.216667	1	0.714750
31.233333	1	0.673000
31.250000	1	0.633375
31.266667	1	0.596750
31.283333	1	0.562375
31.300000	1	0.530750
31.316667	1	0.501375
31.333333	1	0.474500
31.350000	1	0.449875
31.366667	1	0.428000
31.383333	1	0.407375
31.400000	1	0.389125
31.416667	1	0.372500
31.433333	1	0.357375
31.450000	1	0.342875
31.466667	1	0.330625
31.483333	1	0.319250
31.500000	1	0.309625
31.516667	1	0.301000
31.533333	1	0.293875
31.550000	1	0.287250
31.566667	1	0.281625
31.583333	1	0.276875
31.600000	1	0.272875
31.616667	1	0.270375
31.633333	1	0.268375
31.650000	1	0.267375
31.666667	1	0.266625
31.683333	1	0.265750
31.700000	1	0.266125
31.716667	1	0.266875
31.733333	1	0.268000
31.750000	1	0.270000
31.766667	1	0.272375
31.783333	1	0.275250
31.800000	1	0.277875
31.816667	1	0.280125
31.833333	1	0.282625
31.850000	1	0.285875
31.866667	1	0.288125
31.883333	1	0.290750
31.900000	1	0.293000
31.916667	1	0.294875
31.933333	1	0.297125
31.950000	1	0.298500
31.966667	1	0.300375
31.983333	1	0.301000
32.000000	1	0.301375
32.016667	1	0.301250
32.033333	1	0.299750
32.050000	1	0.298625
32.066667	1	0.296750
32.083333	1	0.293625
32.100000	1	0.290500
32.116667	1	0.287375
32.133333	1	0.283250
32.150000	1	0.278750
32.166667	1	0.273500
32.183333	1	0.268750
32.200000	1	0.262875
32.216667	1	0.257375
32.233333	1	0.251750
32.250000	1	0.245500
32.266667	1	0.239125
32.283333	1	0.232625
32.300000	1	0.226875
32.316667	1	0.221000
32.333333	1	0.215375
32.350000	1	0.209500
32.366667	1	0.204000
32.383333	1	0.199125
32.400000	1	0.194000
32.416667	1	0.188875
32.433333	1	0.184500
32.450000	1	0.179875
32.466667	1	0.176000
32.483333	1	0.172125
32.500000	1	0.168375
32.516667	1	0.164625
32.533333	1	0.161750
32.550000	1	0.159125
32.566667	1	0.156625
32.583333	1	0.153375
32.600000	1	0.150750
32.616667	1	0.147875
32.633333	1	0.144750
32.650000	1	0.141750
32.666667	1	0.138500
32.683333	1	0.135375
32.700000	1	0.131875
32.716667	1	0.128375
32.733333	1	0.124750
32.750000	1	0.121375
32.766667	1	0.117500
32.783333	1	0.114000
32.800000	1	0.110375
32.816667	1	0.106375
32.833333	1	0.102000
32.850000	1	0.097250
32.866667	1	0.093000
32.883333	1	0.089125
32.900000	1	0.085500
32.916667	1	0.081500
32.933333	1	0.078250
32.950000	1	0.075250
32.966667	1	0.072000
32.983333	1	0.068750
33.000000	1	0.065750
33.016667	1	0.062750
33.033333	1	0.059875
33.050000	1	0.058125
33.066667	1	0.055875
33.083333	1	0.054500
33.100000	1	0.052625
33.116667	1	0.051750
33.133333	1	0.050625
33.150000	1	0.049875
33.166667	1	0.050250
33.183333	1	0.050750
33.200000	1	0.051875
33.216667	1	0.052875
33.233333	1	0.054125
33.250000	1	0.055625
33.266667	1	0.057375
33.283333	1	0.059500
33.300000	1	0.061625
33.316667	1	0.064000
33.333333	1	0.067375
33.350000	1	0.071000
33.366667	1	0.074750
33.383333	1	0.079500
33.400000	1	0.084125
33.416667	1	0.088750
33.433333	1	0.094000
33.450000	1	0.099250
33.466667	1	0.105000
33.483333	1	0.111750
33.500000	1	0.118500
33.516667	1	0.126125
33.533333	1	0.133500
33.550000	1	0.141625
33.566667	1	0.150875
33.583333	1	0.160375
33.600000	1	0.170000
33.616667	1	0.180500
33.633333	1	0.191000
33.650000	1	0.202750
33.666667	1	0.215625
33.683333	1	0.228875
33.700000	1	0.243750
33.716667	1	0.259125
33.733333	1	0.274875
33.750000	1	0.292375
33.766667	1	0.311750
33.783333	1	0.332500
33.800000	1	0.354875
33.816667	1	0.378750
33.833333	1	0.404000
33.850000	1	0.431375
33.866667	1	0.460625
33.883333	1	0.492125
33.900000	1	0.525125
33.916667	1	0.559875
33.933333	1	0.597375
33.950000	1	0.636250
33.966667	1	0.677750
33.983333	1	0.720125
34.000000	1	0.764875
34.016667	1	0.810750
34.033333	1	0.857625
34.050000	1	0.906000
34.066667	1	0.954250
34.083333	1	1.003875
34.100000	1	1.053500
34.116667	1	1.103000
34.133333	1	1.152125
34.150000	1	1.199625
34.166667	1	1.245500
34.183333	1	1.288875
34.200000	1	1.329375
34.216667	1	1.367000
34.233333	1	1.400875
34.250000	1	1.432000
34.266667	1	1.458625
34.283333	1	1.480625
34.300000	1	1.498375
34.316667	1	1.511500
34.333333	1	1.519125
34.350000	1	1.522875
34.366667	1	1.521375
34.383333	1	1.515250
34.400000	1	1.503750
34.416667	1	1.488125
34.433333	1	1.468125
34.450000	1	1.444250
34.466667	1	1.416750
34.483333	1	1.385500
34.500000	1	1.351875
34.516667	1	1.315500
34.533333	1	1.276500
34.550000	1	1.235875
34.566667	1	1.193625
34.583333	1	1.149375
34.600000	1	1.104500
34.616667	1	1.058750
34.633333	1	1.013625
34.650000	1	0.968500
34.666667	1	0.923625
34.683333	1	0.879250
34.700000	1	0.836500
34.716667	1	0.795250
34.733333	1	0.755375
34.750000	1	0.715625
34.766667	1	0.678125
34.783333	1	0.642500
34.800000	1	0.608375
34.816667	1	0.575750
34.833333	1	0.545125
34.850000	1	0.516500
34.866667	1	0.489250
34.883333	1	0.464250
34.900000	1	0.440250
34.916667	1	0.418625
34.933333	1	0.398625
34.950000	1	0.380750
34.966667	1	0.363750
34.983333	1	0.348875
35.000000	1	0.334625
35.016667	1	0.321375
35.033333	1	0.309750
35.050000	1	0.299375
35.066667	1	0.289750
35.083333	1	0.280750
35.100000	1	0.273500
35.116667	1	0.266250
35.133333	1	0.259625
35.150000	1	0.253750
35.166667	1	0.249000
35.183333	1	0.243875
35.200000	1	0.239125
35.216667	1	0.235000
35.233333	1	0.232125
35.250000	1	0.229125
35.266667	1	0.226500
35.283333	1	0.223375
35.300000	1	0.220875
35.316667	1	0.218625
35.333333	1	0.216375
35.350000	1	0.214375
35.366667	1	0.211875
35.383333	1	0.209250
35.400000	1	0.207125
35.416667	1	0.204500
35.433333	1	0.201375
35.450000	1	0.198875
35.466667	1	0.197125
35.483333	1	0.195125
35.500000	1	0.192750
35.516667	1	0.190750
35.533333	1	0.188250
35.550000	1	0.185750
35.566667	1	0.183125
35.583333	1	0.180500
35.600000	1	0.178125
35.616667	1	0.175250
35.633333	1	0.172875
35.650000	1	0.170250
35.666667	1	0.168000
35.683333	1	0.166250
35.700000	1	0.163375
35.716667	1	0.161500
35.733333	1	0.159375
35.750000	1	0.157000
35.766667	1	0.154875
35.783333	1	0.153125
35.800000	1	0.151125
35.816667	1	0.148875
35.833333	1	0.147375
35.850000	1	0.145250
35.866667	1	0.143750
35.883333	1	0.141500
35.900000	1	0.139500
35.916667	1	0.137000
35.933333	1	0.135250
35.950000	1	0.133625
35.966667	1	0.132000
35.983333	1	0.129875
36.000000	1	0.127750
36.016667	1	0.126000
36.033333	1	0.124250
36.050000	1	0.121375
36.066667	1	0.119750
36.083333	1	0.117250
36.100000	1	0.115375
36.116667	1	0.113375
36.133333	1	0.111875
36.150000	1	0.110000
36.166667	1	0.108000
36.183333	1	0.106000
36.200000	1	0.103875
36.216667	1	0.101750
36.233333	1	0.100000
36.250000	1	0.098125
36.266667	1	0.096375
36.283333	1	0.094750
36.300000	1	0.092750
36.316667	1	0.091250
36.333333	1	0.088750
36.350000	1	0.087375
36.366667	1	0.085125
36.383333	1	0.083250
36.400000	1	0.082500
36.416667	1	0.080500
36.433333	1	0.079125
36.450000	1	0.077375
36.466667	1	0.075625
36.483333	1	0.074250
36.500000	1	0.072125
36.516667	1	0.070375
36.533333	1	0.068875
36.550000	1	0.066875
36.566667	1	0.064875
36.583333	1	0.063375
36.600000	1	0.061375
36.616667	1	0.059250
36.633333	1	0.057500
36.650000	1	0.055750
36.666667	1	0.053625
36.683333	1	0.051250
36.700000	1	0.049125
36.716667	1	0.046625
36.733333	1	0.043500
36.750000	1	0.041375
36.766667	1	0.038750
36.783333	1	0.036375
36.800000	1	0.034000
36.816667	1	0.031250
36.833333	1	0.028625
36.850000	1	0.026000
36.866667	1	0.023750
36.883333	1	0.021125
36.900000	1	0.018500
36.916667	1	0.017000
36.933333	1	0.015000
36.950000	1	0.012500
36.966667	1	0.010375
36.983333	1	0.008375
37.000000	1	0.006500
37.016667	1	0.004875
37.033333	1	0.002500
37.050000	1	0.000500
37.066667	1	-0.000750
37.083333	1	-0.002250
37.100000	1	-0.003250
37.116667	1	-0.003500
37.133333	1	-0.005000
37.150000	1	-0.006125
37.166667	1	-0.007500
37.183333	1	-0.008625
37.200000	1	-0.009875
37.216667	1	-0.010750
37.233333	1	-0.011375
37.250000	1	-0.012000
37.266667	1	-0.012125
37.283333	1	-0.012500
37.300000	1	-0.013375
37.316667	1	-0.014000
37.333333	1	-0.014375
37.350000	1	-0.014750
37.366667	1	-0.014750
37.383333	1	-0.015125
37.400000	1	-0.015750
37.416667	1	-0.016375
37.433333	1	-0.016625
37.450000	1	-0.017125
37.466667	1	-0.016875
37.483333	1	-0.016500
37.500000	1	-0.016000
37.516667	1	-0.015500
37.533333	1	-0.014875
37.550000	1	-0.014375
37.566667	1	-0.014625
37.583333	1	-0.014375
37.600000	1	-0.014375
37.616667	1	-0.013875
37.633333	1	-0.013125
37.650000	1	-0.012875
37.666667	1	-0.012000
37.683333	1	-0.011625
37.700000	1	-0.010750
37.716667	1	-0.010250
37.733333	1	-0.010000
37.750000	1	-0.009250
37.766667	1	-0.008375
37.783333	1	-0.007625
37.800000	1	-0.007250
37.816667	1	-0.006125
37.833333	1	-0.006000
37.850000	1	-0.005250
37.866667	1	-0.004375
37.883333	1	-0.003000
37.900000	1	-0.001625
37.916667	1	-0.000375
37.933333	1	0.000500
37.950000	1	0.000750
37.966667	1	0.002000
37.983333	1	0.002500
38.000000	1	0.003875
38.016667	1	0.005000
38.033333	1	0.005500
38.050000	1	0.006375
38.066667	1	0.007500
38.083333	1	0.008125
38.100000	1	0.009500
38.116667	1	0.010250
38.133333	1	0.010875
38.150000	1	0.011125
38.166667	1	0.012500
38.183333	1	0.012625
38.200000	1	0.013500
38.216667	1	0.014000
38.233333	1	0.014625
38.250000	1	0.015125
38.266667	1	0.015250
38.283333	1	0.016000
38.300000	1	0.016500
38.316667	1	0.016875
38.333333	1	0.016625
38.350000	1	0.016875
38.366667	1	0.017500
38.383333	1	0.017625
38.400000	1	0.018000
38.416667	1	0.017750
38.433333	1	0.017375
38.450000	1	0.017125
38.466667	1	0.017125
38.483333	1	0.017000
38.500000	1	0.017250
38.516667	1	0.017125
38.533333	1	0.016250
38.550000	1	0.015750
38.566667	1	0.015625
38.583333	1	0.015625
38.600000	1	0.015375
38.616667	1	0.015000
38.633333	1	0.014000
38.650000	1	0.013375
38.666667	1	0.013125
38.683333	1	0.013625
38.700000	1	0.013250
38.716667	1	0.012875
38.733333	1	0.012250
38.750000	1	0.012000
38.766667	1	0.012375
38.783333	1	0.011875
38.800000	1	0.011375
38.816667	1	0.011000
38.833333	1	0.010625
38.850000	1	0.009875
38.866667	1	0.010125
38.883333	1	0.009625
38.900000	1	0.009625
38.916667	1	0.009625
38.933333	1	0.009375
38.950000	1	0.008625
38.966667	1	0.007875
38.983333	1	0.007875
39.000000	1	0.007625
39.016667	1	0.007125
39.033333	1	0.006750
39.050000	1	0.006625
39.066667	1	0.006250
39.083333	1	0.005875
39.100000	1	0.006375
39.116667	1	0.005875
39.133333	1	0.004750
39.150000	1	0.004750
39.166667	1	0.004625
39.183333	1	0.004750
39.200000	1	0.004125
39.216667	1	0.004250
39.233333	1	0.004250
39.250000	1	0.004250
39.266667	1	0.004500
39.283333	1	0.004875
39.300000	1	0.005250
39.316667	1	0.005500
39.333333	1	0.005125
39.350000	1	0.005500
39.366667	1	0.006125
39.383333	1	0.006500
39.400000	1	0.006875
39.416667	1	0.007250
39.433333	1	0.008500
39.450000	1	0.008875
39.466667	1	0.009875
39.483333	1	0.011375
39.500000	1	0.011875
39.516667	1	0.012000
39.533333	1	0.013500
39.550000	1	0.014625
39.566667	1	0.016125
39.583333	1	0.017750
39.600000	1	0.019125
39.616667	1	0.020875
39.633333	1	0.022500
39.650000	1	0.024000
39.666667	1	0.025250
39.683333	1	0.027125
39.700000	1	0.028500
39.716667	1	0.030000
39.733333	1	0.031000
39.750000	1	0.032125
39.766667	1	0.033750
39.783333	1	0.035125
39.800000	1	0.036750
39.816667	1	0.037625
39.833333	1	0.038875
39.850000	1	0.040250
39.866667	1	0.041000
39.883333	1	0.041875
39.900000	1	0.042250
39.916667	1	0.043125
39.933333	1	0.043500
39.950000	1	0.044000
39.966667	1	0.044500
39.983333	1	0.044875
40.000000	1	0.045750
