File Path	chrom://marshall/Chromeleon7/HPLC_Ultimate_3000/Users/markusar/20230610_CMO_FP11_FP12.seq/829.smp/RI_1.channel/RI_1.chm
Channel	RI_1

Injection Information:
Data Vault	Chromeleon7
Injection	FP11_4_S4
Injection Number	19
Position	BB6
Comment	
Processing Method	
Instrument Method	run_25B_method
Type	Unknown
Status	Finished
Injection Date	11.06.2023
Injection Time	07:01:17
Injection Volume (µl)	20.000
Dilution Factor	1.0000
Weight	1.0000

Chromatogram Data Information:
Time Min. (min)	0.000000
Time Max. (min)	40.000000
Data Points	2401
Detector	RI
Generating Data System	Chromeleon 7.2.5.9507
Exporting Data System	Chromeleon 7.2.5.0
Operator	Instrument Controller
Signal Quantity	Refractive 
Signal Unit	µRIU
Signal Min.	-0.752125
Signal Max.	61.355125
Channel	RI_1
Driver Name	RID520Driver.dll
Channel Type	Evaluation
Min. Step (s)	1
Max. Step (s)	1
Average Step (s)	1

Signal Parameter Information:
Signal Info	

Chromatogram Data:
Time (min)	Step (s)	Value (µRIU)
0.000000	n.a.	-0.003500
0.016667	1	-0.006000
0.033333	1	-0.007000
0.050000	1	-0.008250
0.066667	1	-0.009375
0.083333	1	-0.010750
0.100000	1	-0.012000
0.116667	1	-0.014125
0.133333	1	-0.015750
0.150000	1	-0.017000
0.166667	1	-0.018625
0.183333	1	-0.019750
0.200000	1	-0.021250
0.216667	1	-0.022125
0.233333	1	-0.023625
0.250000	1	-0.024875
0.266667	1	-0.025875
0.283333	1	-0.026750
0.300000	1	-0.028125
0.316667	1	-0.029750
0.333333	1	-0.033250
0.350000	1	-0.037750
0.366667	1	-0.041500
0.383333	1	-0.043875
0.400000	1	-0.043000
0.416667	1	-0.040250
0.433333	1	-0.037500
0.450000	1	-0.035750
0.466667	1	-0.033625
0.483333	1	-0.031750
0.500000	1	-0.029125
0.516667	1	-0.028250
0.533333	1	-0.028500
0.550000	1	-0.029750
0.566667	1	-0.031875
0.583333	1	-0.034500
0.600000	1	-0.036750
0.616667	1	-0.038875
0.633333	1	-0.041250
0.650000	1	-0.042375
0.666667	1	-0.042875
0.683333	1	-0.043500
0.700000	1	-0.044375
0.716667	1	-0.045125
0.733333	1	-0.046125
0.750000	1	-0.046625
0.766667	1	-0.047000
0.783333	1	-0.048000
0.800000	1	-0.048250
0.816667	1	-0.048375
0.833333	1	-0.048125
0.850000	1	-0.048375
0.866667	1	-0.048375
0.883333	1	-0.048500
0.900000	1	-0.047625
0.916667	1	-0.047750
0.933333	1	-0.047125
0.950000	1	-0.047125
0.966667	1	-0.047125
0.983333	1	-0.046625
1.000000	1	-0.046625
1.016667	1	-0.046125
1.033333	1	-0.045500
1.050000	1	-0.045000
1.066667	1	-0.044250
1.083333	1	-0.043750
1.100000	1	-0.043500
1.116667	1	-0.043000
1.133333	1	-0.042750
1.150000	1	-0.042500
1.166667	1	-0.042250
1.183333	1	-0.041750
1.200000	1	-0.041875
1.216667	1	-0.041375
1.233333	1	-0.041125
1.250000	1	-0.041125
1.266667	1	-0.040625
1.283333	1	-0.040125
1.300000	1	-0.040125
1.316667	1	-0.040000
1.333333	1	-0.040000
1.350000	1	-0.039500
1.366667	1	-0.039500
1.383333	1	-0.039875
1.400000	1	-0.040375
1.416667	1	-0.040500
1.433333	1	-0.040750
1.450000	1	-0.040375
1.466667	1	-0.040500
1.483333	1	-0.040625
1.500000	1	-0.041625
1.516667	1	-0.042500
1.533333	1	-0.043125
1.550000	1	-0.043625
1.566667	1	-0.044250
1.583333	1	-0.045375
1.600000	1	-0.046500
1.616667	1	-0.047250
1.633333	1	-0.048000
1.650000	1	-0.048500
1.666667	1	-0.050250
1.683333	1	-0.051125
1.700000	1	-0.051500
1.716667	1	-0.052500
1.733333	1	-0.052875
1.750000	1	-0.053750
1.766667	1	-0.054500
1.783333	1	-0.054875
1.800000	1	-0.056000
1.816667	1	-0.056750
1.833333	1	-0.057125
1.850000	1	-0.057500
1.866667	1	-0.057875
1.883333	1	-0.057875
1.900000	1	-0.058000
1.916667	1	-0.058250
1.933333	1	-0.058500
1.950000	1	-0.058750
1.966667	1	-0.058000
1.983333	1	-0.057750
2.000000	1	-0.057250
2.016667	1	-0.056625
2.033333	1	-0.056250
2.050000	1	-0.055500
2.066667	1	-0.055250
2.083333	1	-0.054625
2.100000	1	-0.053750
2.116667	1	-0.052875
2.133333	1	-0.052000
2.150000	1	-0.051250
2.166667	1	-0.050000
2.183333	1	-0.048750
2.200000	1	-0.047375
2.216667	1	-0.046000
2.233333	1	-0.044875
2.250000	1	-0.043500
2.266667	1	-0.042500
2.283333	1	-0.041875
2.300000	1	-0.041250
2.316667	1	-0.039500
2.333333	1	-0.038750
2.350000	1	-0.036250
2.366667	1	-0.034375
2.383333	1	-0.032375
2.400000	1	-0.031000
2.416667	1	-0.029750
2.433333	1	-0.028625
2.450000	1	-0.026875
2.466667	1	-0.025250
2.483333	1	-0.024250
2.500000	1	-0.022375
2.516667	1	-0.020625
2.533333	1	-0.020000
2.550000	1	-0.018500
2.566667	1	-0.016625
2.583333	1	-0.015125
2.600000	1	-0.013375
2.616667	1	-0.011875
2.633333	1	-0.010625
2.650000	1	-0.009000
2.666667	1	-0.007375
2.683333	1	-0.006250
2.700000	1	-0.005000
2.716667	1	-0.004750
2.733333	1	-0.004125
2.750000	1	-0.003375
2.766667	1	-0.002125
2.783333	1	-0.001125
2.800000	1	0.000250
2.816667	1	0.001250
2.833333	1	0.002500
2.850000	1	0.003625
2.866667	1	0.003750
2.883333	1	0.003875
2.900000	1	0.003625
2.916667	1	0.004375
2.933333	1	0.004750
2.950000	1	0.005500
2.966667	1	0.006250
2.983333	1	0.006625
3.000000	1	0.006125
3.016667	1	0.006250
3.033333	1	0.006500
3.050000	1	0.006750
3.066667	1	0.005375
3.083333	1	0.005125
3.100000	1	0.004125
3.116667	1	0.003500
3.133333	1	0.002750
3.150000	1	0.001875
3.166667	1	0.000750
3.183333	1	0.000000
3.200000	1	-0.001000
3.216667	1	-0.001500
3.233333	1	-0.003000
3.250000	1	-0.004250
3.266667	1	-0.005250
3.283333	1	-0.006375
3.300000	1	-0.007625
3.316667	1	-0.008750
3.333333	1	-0.009000
3.350000	1	-0.010375
3.366667	1	-0.011500
3.383333	1	-0.012250
3.400000	1	-0.013000
3.416667	1	-0.013250
3.433333	1	-0.013875
3.450000	1	-0.014500
3.466667	1	-0.015250
3.483333	1	-0.016125
3.500000	1	-0.016375
3.516667	1	-0.017625
3.533333	1	-0.017625
3.550000	1	-0.017750
3.566667	1	-0.018875
3.583333	1	-0.019250
3.600000	1	-0.019000
3.616667	1	-0.018375
3.633333	1	-0.018000
3.650000	1	-0.018250
3.666667	1	-0.018625
3.683333	1	-0.018625
3.700000	1	-0.018625
3.716667	1	-0.018125
3.733333	1	-0.017500
3.750000	1	-0.017500
3.766667	1	-0.017250
3.783333	1	-0.017000
3.800000	1	-0.016500
3.816667	1	-0.015875
3.833333	1	-0.015375
3.850000	1	-0.014750
3.866667	1	-0.014250
3.883333	1	-0.014375
3.900000	1	-0.014000
3.916667	1	-0.013875
3.933333	1	-0.013125
3.950000	1	-0.012750
3.966667	1	-0.011750
3.983333	1	-0.011625
4.000000	1	-0.010875
4.016667	1	-0.010375
4.033333	1	-0.010000
4.050000	1	-0.010000
4.066667	1	-0.009875
4.083333	1	-0.010000
4.100000	1	-0.009250
4.116667	1	-0.008875
4.133333	1	-0.008875
4.150000	1	-0.008250
4.166667	1	-0.008250
4.183333	1	-0.007500
4.200000	1	-0.007250
4.216667	1	-0.007250
4.233333	1	-0.007375
4.250000	1	-0.006875
4.266667	1	-0.006500
4.283333	1	-0.006875
4.300000	1	-0.006750
4.316667	1	-0.006250
4.333333	1	-0.005875
4.350000	1	-0.005750
4.366667	1	-0.005375
4.383333	1	-0.005500
4.400000	1	-0.005875
4.416667	1	-0.005875
4.433333	1	-0.005625
4.450000	1	-0.005000
4.466667	1	-0.005125
4.483333	1	-0.005125
4.500000	1	-0.004875
4.516667	1	-0.004375
4.533333	1	-0.004250
4.550000	1	-0.003625
4.566667	1	-0.003750
4.583333	1	-0.003500
4.600000	1	-0.002625
4.616667	1	-0.002375
4.633333	1	-0.002000
4.650000	1	-0.001625
4.666667	1	-0.000625
4.683333	1	0.000000
4.700000	1	0.000000
4.716667	1	0.000875
4.733333	1	0.001250
4.750000	1	0.001875
4.766667	1	0.002875
4.783333	1	0.003500
4.800000	1	0.004375
4.816667	1	0.006000
4.833333	1	0.007250
4.850000	1	0.008000
4.866667	1	0.008875
4.883333	1	0.009000
4.900000	1	0.010250
4.916667	1	0.011000
4.933333	1	0.012000
4.950000	1	0.013250
4.966667	1	0.014500
4.983333	1	0.015500
5.000000	1	0.017250
5.016667	1	0.018875
5.033333	1	0.020125
5.050000	1	0.021000
5.066667	1	0.022000
5.083333	1	0.023500
5.100000	1	0.023750
5.116667	1	0.025125
5.133333	1	0.026375
5.150000	1	0.027375
5.166667	1	0.028625
5.183333	1	0.029500
5.200000	1	0.030625
5.216667	1	0.031500
5.233333	1	0.031875
5.250000	1	0.032375
5.266667	1	0.033250
5.283333	1	0.033750
5.300000	1	0.034500
5.316667	1	0.034625
5.333333	1	0.035000
5.350000	1	0.036250
5.366667	1	0.036875
5.383333	1	0.037000
5.400000	1	0.037500
5.416667	1	0.037250
5.433333	1	0.037125
5.450000	1	0.036750
5.466667	1	0.037000
5.483333	1	0.036500
5.500000	1	0.036250
5.516667	1	0.036125
5.533333	1	0.035500
5.550000	1	0.035125
5.566667	1	0.034875
5.583333	1	0.034875
5.600000	1	0.034625
5.616667	1	0.033625
5.633333	1	0.033625
5.650000	1	0.033000
5.666667	1	0.032875
5.683333	1	0.032875
5.700000	1	0.032750
5.716667	1	0.032250
5.733333	1	0.032000
5.750000	1	0.031625
5.766667	1	0.031125
5.783333	1	0.031125
5.800000	1	0.031000
5.816667	1	0.031000
5.833333	1	0.031000
5.850000	1	0.030750
5.866667	1	0.030750
5.883333	1	0.030375
5.900000	1	0.030875
5.916667	1	0.030625
5.933333	1	0.031125
5.950000	1	0.031375
5.966667	1	0.031875
5.983333	1	0.032250
6.000000	1	0.032875
6.016667	1	0.032875
6.033333	1	0.032750
6.050000	1	0.033250
6.066667	1	0.034375
6.083333	1	0.034750
6.100000	1	0.035750
6.116667	1	0.036250
6.133333	1	0.037000
6.150000	1	0.037750
6.166667	1	0.039125
6.183333	1	0.040375
6.200000	1	0.041500
6.216667	1	0.042250
6.233333	1	0.043500
6.250000	1	0.045000
6.266667	1	0.046500
6.283333	1	0.047750
6.300000	1	0.049125
6.316667	1	0.050500
6.333333	1	0.051625
6.350000	1	0.053375
6.366667	1	0.056000
6.383333	1	0.057375
6.400000	1	0.059000
6.416667	1	0.060750
6.433333	1	0.062375
6.450000	1	0.064500
6.466667	1	0.066000
6.483333	1	0.067125
6.500000	1	0.069000
6.516667	1	0.070625
6.533333	1	0.072125
6.550000	1	0.074750
6.566667	1	0.076250
6.583333	1	0.077250
6.600000	1	0.078625
6.616667	1	0.080000
6.633333	1	0.081375
6.650000	1	0.082375
6.666667	1	0.083625
6.683333	1	0.084375
6.700000	1	0.085625
6.716667	1	0.086875
6.733333	1	0.087375
6.750000	1	0.087625
6.766667	1	0.088500
6.783333	1	0.088750
6.800000	1	0.089125
6.816667	1	0.088750
6.833333	1	0.088750
6.850000	1	0.087750
6.866667	1	0.088125
6.883333	1	0.087500
6.900000	1	0.086375
6.916667	1	0.086125
6.933333	1	0.085000
6.950000	1	0.084000
6.966667	1	0.082625
6.983333	1	0.081500
7.000000	1	0.079250
7.016667	1	0.077750
7.033333	1	0.075875
7.050000	1	0.073125
7.066667	1	0.070750
7.083333	1	0.068250
7.100000	1	0.065375
7.116667	1	0.063625
7.133333	1	0.061375
7.150000	1	0.059125
7.166667	1	0.056625
7.183333	1	0.054125
7.200000	1	0.051500
7.216667	1	0.048625
7.233333	1	0.046375
7.250000	1	0.043625
7.266667	1	0.040500
7.283333	1	0.038125
7.300000	1	0.035250
7.316667	1	0.033000
7.333333	1	0.030125
7.350000	1	0.028250
7.366667	1	0.026500
7.383333	1	0.023625
7.400000	1	0.021000
7.416667	1	0.019000
7.433333	1	0.016375
7.450000	1	0.014500
7.466667	1	0.013125
7.483333	1	0.010875
7.500000	1	0.010250
7.516667	1	0.008000
7.533333	1	0.006500
7.550000	1	0.005375
7.566667	1	0.004125
7.583333	1	0.002500
7.600000	1	0.001125
7.616667	1	0.000500
7.633333	1	0.000125
7.650000	1	-0.000750
7.666667	1	-0.001750
7.683333	1	-0.002250
7.700000	1	-0.003375
7.716667	1	-0.003250
7.733333	1	-0.003250
7.750000	1	-0.004625
7.766667	1	-0.004000
7.783333	1	-0.003750
7.800000	1	-0.002875
7.816667	1	-0.002875
7.833333	1	-0.003250
7.850000	1	-0.002875
7.866667	1	-0.003000
7.883333	1	-0.002625
7.900000	1	-0.002000
7.916667	1	-0.001375
7.933333	1	-0.000125
7.950000	1	-0.000125
7.966667	1	0.000375
7.983333	1	0.001625
8.000000	1	0.002125
8.016667	1	0.002000
8.033333	1	0.002375
8.050000	1	0.003000
8.066667	1	0.004750
8.083333	1	0.005125
8.100000	1	0.005000
8.116667	1	0.006625
8.133333	1	0.007625
8.150000	1	0.007875
8.166667	1	0.008125
8.183333	1	0.008750
8.200000	1	0.009000
8.216667	1	0.009750
8.233333	1	0.010625
8.250000	1	0.011250
8.266667	1	0.011500
8.283333	1	0.011750
8.300000	1	0.013125
8.316667	1	0.013750
8.333333	1	0.014375
8.350000	1	0.015125
8.366667	1	0.016875
8.383333	1	0.017000
8.400000	1	0.017500
8.416667	1	0.018625
8.433333	1	0.018875
8.450000	1	0.020000
8.466667	1	0.020750
8.483333	1	0.022000
8.500000	1	0.023375
8.516667	1	0.024500
8.533333	1	0.025375
8.550000	1	0.026750
8.566667	1	0.027125
8.583333	1	0.028375
8.600000	1	0.029750
8.616667	1	0.030625
8.633333	1	0.031875
8.650000	1	0.032625
8.666667	1	0.033875
8.683333	1	0.035000
8.700000	1	0.036000
8.716667	1	0.036875
8.733333	1	0.037500
8.750000	1	0.039125
8.766667	1	0.040375
8.783333	1	0.041500
8.800000	1	0.042625
8.816667	1	0.043000
8.833333	1	0.044250
8.850000	1	0.044875
8.866667	1	0.046375
8.883333	1	0.047875
8.900000	1	0.049500
8.916667	1	0.051125
8.933333	1	0.052500
8.950000	1	0.053500
8.966667	1	0.054500
8.983333	1	0.055625
9.000000	1	0.056500
9.016667	1	0.057125
9.033333	1	0.058750
9.050000	1	0.059750
9.066667	1	0.060500
9.083333	1	0.062125
9.100000	1	0.063375
9.116667	1	0.064625
9.133333	1	0.066000
9.150000	1	0.067625
9.166667	1	0.069375
9.183333	1	0.069875
9.200000	1	0.071125
9.216667	1	0.072000
9.233333	1	0.073250
9.250000	1	0.073750
9.266667	1	0.075000
9.283333	1	0.076000
9.300000	1	0.076625
9.316667	1	0.077250
9.333333	1	0.077500
9.350000	1	0.078125
9.366667	1	0.079125
9.383333	1	0.079500
9.400000	1	0.080375
9.416667	1	0.080625
9.433333	1	0.080500
9.450000	1	0.081250
9.466667	1	0.082000
9.483333	1	0.083000
9.500000	1	0.083750
9.516667	1	0.085125
9.533333	1	0.086625
9.550000	1	0.088625
9.566667	1	0.091375
9.583333	1	0.094250
9.600000	1	0.098000
9.616667	1	0.103000
9.633333	1	0.108500
9.650000	1	0.116125
9.666667	1	0.124375
9.683333	1	0.134875
9.700000	1	0.146875
9.716667	1	0.160625
9.733333	1	0.177125
9.750000	1	0.195250
9.766667	1	0.217625
9.783333	1	0.243000
9.800000	1	0.273125
9.816667	1	0.307375
9.833333	1	0.344875
9.850000	1	0.383000
9.866667	1	0.418750
9.883333	1	0.448625
9.900000	1	0.470875
9.916667	1	0.487625
9.933333	1	0.507875
9.950000	1	0.550875
9.966667	1	0.640750
9.983333	1	0.806625
10.000000	1	1.080250
10.016667	1	1.491375
10.033333	1	2.065750
10.050000	1	2.823625
10.066667	1	3.780875
10.083333	1	4.947250
10.100000	1	6.326250
10.116667	1	7.918000
10.133333	1	9.710875
10.150000	1	11.686375
10.166667	1	13.819000
10.183333	1	16.078250
10.200000	1	18.428750
10.216667	1	20.833875
10.233333	1	23.258500
10.250000	1	25.663250
10.266667	1	28.008750
10.283333	1	30.249375
10.300000	1	32.326000
10.316667	1	34.159375
10.333333	1	35.648750
10.350000	1	36.674750
10.366667	1	37.119250
10.383333	1	36.886750
10.400000	1	35.931000
10.416667	1	34.280750
10.433333	1	32.044125
10.450000	1	29.394375
10.466667	1	26.529625
10.483333	1	23.637750
10.500000	1	20.866250
10.516667	1	18.311875
10.533333	1	16.016625
10.550000	1	13.989000
10.566667	1	12.211625
10.583333	1	10.660625
10.600000	1	9.310625
10.616667	1	8.140625
10.633333	1	7.132125
10.650000	1	6.269875
10.666667	1	5.538375
10.683333	1	4.923000
10.700000	1	4.407875
10.716667	1	3.977875
10.733333	1	3.619500
10.750000	1	3.320000
10.766667	1	3.068625
10.783333	1	2.856000
10.800000	1	2.674500
10.816667	1	2.518375
10.833333	1	2.383250
10.850000	1	2.265625
10.866667	1	2.162250
10.883333	1	2.070000
10.900000	1	1.987750
10.916667	1	1.914250
10.933333	1	1.847500
10.950000	1	1.786500
10.966667	1	1.729250
10.983333	1	1.675500
11.000000	1	1.625250
11.016667	1	1.577375
11.033333	1	1.531250
11.050000	1	1.487000
11.066667	1	1.443125
11.083333	1	1.401250
11.100000	1	1.360875
11.116667	1	1.321750
11.133333	1	1.284125
11.150000	1	1.249125
11.166667	1	1.215750
11.183333	1	1.184125
11.200000	1	1.154250
11.216667	1	1.126750
11.233333	1	1.101500
11.250000	1	1.078750
11.266667	1	1.058750
11.283333	1	1.041250
11.300000	1	1.026250
11.316667	1	1.013750
11.333333	1	1.004125
11.350000	1	0.996625
11.366667	1	0.992625
11.383333	1	0.991250
11.400000	1	0.992250
11.416667	1	0.995875
11.433333	1	1.000625
11.450000	1	1.007750
11.466667	1	1.016500
11.483333	1	1.026250
11.500000	1	1.036250
11.516667	1	1.047000
11.533333	1	1.056750
11.550000	1	1.065375
11.566667	1	1.073625
11.583333	1	1.079250
11.600000	1	1.082250
11.616667	1	1.082750
11.633333	1	1.081250
11.650000	1	1.076250
11.666667	1	1.068625
11.683333	1	1.059500
11.700000	1	1.049000
11.716667	1	1.036750
11.733333	1	1.024125
11.750000	1	1.010625
11.766667	1	0.996250
11.783333	1	0.983500
11.800000	1	0.970625
11.816667	1	0.958625
11.833333	1	0.947625
11.850000	1	0.937625
11.866667	1	0.928875
11.883333	1	0.922500
11.900000	1	0.916625
11.916667	1	0.912500
11.933333	1	0.909625
11.950000	1	0.908375
11.966667	1	0.909625
11.983333	1	0.913625
12.000000	1	0.920000
12.016667	1	0.928750
12.033333	1	0.941125
12.050000	1	0.957875
12.066667	1	0.980000
12.083333	1	1.008625
12.100000	1	1.045875
12.116667	1	1.092875
12.133333	1	1.153875
12.150000	1	1.230625
12.166667	1	1.325375
12.183333	1	1.441875
12.200000	1	1.583875
12.216667	1	1.754750
12.233333	1	1.960750
12.250000	1	2.206500
12.266667	1	2.500625
12.283333	1	2.853500
12.300000	1	3.277125
12.316667	1	3.788875
12.333333	1	4.406750
12.350000	1	5.153750
12.366667	1	6.055000
12.383333	1	7.138250
12.400000	1	8.430375
12.416667	1	9.954625
12.433333	1	11.731625
12.450000	1	13.776000
12.466667	1	16.095250
12.483333	1	18.687500
12.500000	1	21.539500
12.516667	1	24.624250
12.533333	1	27.903500
12.550000	1	31.334625
12.566667	1	34.862500
12.583333	1	38.432125
12.600000	1	41.983000
12.616667	1	45.448750
12.633333	1	48.758500
12.650000	1	51.840875
12.666667	1	54.618250
12.683333	1	57.011625
12.700000	1	58.943125
12.716667	1	60.343375
12.733333	1	61.158875
12.750000	1	61.355125
12.766667	1	60.920750
12.783333	1	59.869875
12.800000	1	58.243000
12.816667	1	56.105250
12.833333	1	53.540000
12.850000	1	50.643500
12.866667	1	47.515500
12.883333	1	44.250375
12.900000	1	40.934125
12.916667	1	37.637750
12.933333	1	34.416625
12.950000	1	31.315250
12.966667	1	28.364375
12.983333	1	25.584750
13.000000	1	22.993000
13.016667	1	20.594625
13.033333	1	18.387250
13.050000	1	16.359375
13.066667	1	14.496250
13.083333	1	12.781500
13.100000	1	11.206375
13.116667	1	9.773500
13.133333	1	8.494250
13.150000	1	7.381750
13.166667	1	6.436750
13.183333	1	5.648375
13.200000	1	4.996625
13.216667	1	4.457625
13.233333	1	4.008375
13.250000	1	3.632250
13.266667	1	3.312875
13.283333	1	3.039250
13.300000	1	2.803250
13.316667	1	2.597750
13.333333	1	2.416500
13.350000	1	2.256750
13.366667	1	2.114625
13.383333	1	1.987625
13.400000	1	1.872875
13.416667	1	1.770250
13.433333	1	1.677125
13.450000	1	1.592875
13.466667	1	1.515750
13.483333	1	1.445500
13.500000	1	1.380500
13.516667	1	1.322125
13.533333	1	1.269625
13.550000	1	1.221625
13.566667	1	1.178250
13.583333	1	1.139750
13.600000	1	1.105000
13.616667	1	1.073375
13.633333	1	1.046250
13.650000	1	1.021250
13.666667	1	0.999625
13.683333	1	0.980000
13.700000	1	0.962375
13.716667	1	0.946750
13.733333	1	0.932875
13.750000	1	0.920875
13.766667	1	0.909625
13.783333	1	0.899250
13.800000	1	0.889625
13.816667	1	0.880375
13.833333	1	0.871500
13.850000	1	0.862750
13.866667	1	0.852875
13.883333	1	0.842625
13.900000	1	0.830625
13.916667	1	0.818375
13.933333	1	0.804875
13.950000	1	0.791625
13.966667	1	0.778125
13.983333	1	0.764500
14.000000	1	0.751125
14.016667	1	0.736750
14.033333	1	0.723125
14.050000	1	0.710125
14.066667	1	0.697625
14.083333	1	0.685625
14.100000	1	0.673875
14.116667	1	0.663125
14.133333	1	0.652125
14.150000	1	0.642125
14.166667	1	0.632375
14.183333	1	0.622125
14.200000	1	0.613625
14.216667	1	0.606125
14.233333	1	0.599250
14.250000	1	0.592125
14.266667	1	0.585500
14.283333	1	0.580000
14.300000	1	0.575125
14.316667	1	0.571000
14.333333	1	0.566750
14.350000	1	0.563125
14.366667	1	0.559750
14.383333	1	0.557875
14.400000	1	0.555375
14.416667	1	0.553625
14.433333	1	0.552375
14.450000	1	0.550625
14.466667	1	0.549375
14.483333	1	0.548375
14.500000	1	0.548125
14.516667	1	0.548125
14.533333	1	0.548625
14.550000	1	0.548375
14.566667	1	0.549750
14.583333	1	0.549875
14.600000	1	0.550500
14.616667	1	0.550250
14.633333	1	0.551125
14.650000	1	0.552000
14.666667	1	0.552250
14.683333	1	0.552750
14.700000	1	0.553375
14.716667	1	0.554250
14.733333	1	0.554250
14.750000	1	0.554125
14.766667	1	0.554375
14.783333	1	0.555000
14.800000	1	0.556000
14.816667	1	0.557250
14.833333	1	0.558125
14.850000	1	0.559125
14.866667	1	0.560250
14.883333	1	0.561500
14.900000	1	0.563250
14.916667	1	0.565125
14.933333	1	0.566125
14.950000	1	0.567750
14.966667	1	0.568750
14.983333	1	0.569750
15.000000	1	0.570375
15.016667	1	0.570625
15.033333	1	0.570000
15.050000	1	0.569625
15.066667	1	0.568125
15.083333	1	0.566500
15.100000	1	0.564375
15.116667	1	0.561000
15.133333	1	0.558125
15.150000	1	0.554875
15.166667	1	0.551875
15.183333	1	0.548500
15.200000	1	0.544750
15.216667	1	0.540875
15.233333	1	0.537500
15.250000	1	0.534000
15.266667	1	0.530875
15.283333	1	0.528125
15.300000	1	0.525625
15.316667	1	0.524250
15.333333	1	0.523250
15.350000	1	0.523375
15.366667	1	0.524125
15.383333	1	0.526000
15.400000	1	0.528375
15.416667	1	0.532000
15.433333	1	0.537500
15.450000	1	0.544500
15.466667	1	0.552250
15.483333	1	0.561750
15.500000	1	0.571875
15.516667	1	0.584000
15.533333	1	0.597875
15.550000	1	0.613375
15.566667	1	0.630375
15.583333	1	0.648875
15.600000	1	0.668750
15.616667	1	0.689250
15.633333	1	0.711125
15.650000	1	0.733500
15.666667	1	0.755875
15.683333	1	0.778625
15.700000	1	0.799875
15.716667	1	0.820750
15.733333	1	0.839875
15.750000	1	0.857500
15.766667	1	0.872250
15.783333	1	0.883375
15.800000	1	0.891750
15.816667	1	0.896375
15.833333	1	0.897625
15.850000	1	0.895000
15.866667	1	0.888375
15.883333	1	0.879625
15.900000	1	0.868250
15.916667	1	0.854875
15.933333	1	0.840375
15.950000	1	0.824375
15.966667	1	0.807750
15.983333	1	0.791500
16.000000	1	0.776000
16.016667	1	0.760625
16.033333	1	0.747375
16.050000	1	0.734625
16.066667	1	0.723000
16.083333	1	0.712875
16.100000	1	0.703875
16.116667	1	0.696500
16.133333	1	0.690125
16.150000	1	0.685125
16.166667	1	0.681500
16.183333	1	0.679250
16.200000	1	0.678500
16.216667	1	0.678000
16.233333	1	0.678625
16.250000	1	0.679875
16.266667	1	0.681000
16.283333	1	0.683375
16.300000	1	0.686000
16.316667	1	0.688750
16.333333	1	0.691250
16.350000	1	0.693875
16.366667	1	0.696250
16.383333	1	0.698750
16.400000	1	0.701250
16.416667	1	0.702750
16.433333	1	0.704125
16.450000	1	0.705125
16.466667	1	0.705750
16.483333	1	0.705625
16.500000	1	0.705125
16.516667	1	0.704750
16.533333	1	0.704750
16.550000	1	0.704375
16.566667	1	0.704250
16.583333	1	0.704625
16.600000	1	0.704625
16.616667	1	0.705875
16.633333	1	0.706375
16.650000	1	0.708000
16.666667	1	0.710000
16.683333	1	0.712250
16.700000	1	0.714125
16.716667	1	0.717750
16.733333	1	0.721500
16.750000	1	0.725000
16.766667	1	0.728750
16.783333	1	0.732125
16.800000	1	0.735875
16.816667	1	0.740250
16.833333	1	0.743875
16.850000	1	0.747250
16.866667	1	0.750500
16.883333	1	0.753500
16.900000	1	0.756625
16.916667	1	0.759125
16.933333	1	0.761250
16.950000	1	0.762375
16.966667	1	0.763000
16.983333	1	0.763375
17.000000	1	0.763250
17.016667	1	0.763125
17.033333	1	0.762750
17.050000	1	0.761375
17.066667	1	0.760000
17.083333	1	0.757375
17.100000	1	0.755375
17.116667	1	0.753500
17.133333	1	0.751375
17.150000	1	0.749500
17.166667	1	0.747375
17.183333	1	0.745250
17.200000	1	0.743000
17.216667	1	0.740250
17.233333	1	0.738125
17.250000	1	0.735250
17.266667	1	0.731625
17.283333	1	0.727000
17.300000	1	0.722750
17.316667	1	0.717875
17.333333	1	0.713000
17.350000	1	0.707000
17.366667	1	0.701250
17.383333	1	0.695375
17.400000	1	0.688875
17.416667	1	0.682875
17.433333	1	0.677250
17.450000	1	0.672250
17.466667	1	0.667000
17.483333	1	0.662000
17.500000	1	0.658000
17.516667	1	0.654500
17.533333	1	0.652500
17.550000	1	0.651625
17.566667	1	0.651000
17.583333	1	0.651375
17.600000	1	0.652625
17.616667	1	0.654875
17.633333	1	0.658125
17.650000	1	0.662125
17.666667	1	0.666750
17.683333	1	0.672000
17.700000	1	0.678250
17.716667	1	0.685875
17.733333	1	0.694250
17.750000	1	0.702375
17.766667	1	0.711875
17.783333	1	0.720750
17.800000	1	0.730250
17.816667	1	0.740000
17.833333	1	0.749125
17.850000	1	0.758875
17.866667	1	0.768125
17.883333	1	0.777000
17.900000	1	0.785125
17.916667	1	0.791875
17.933333	1	0.798250
17.950000	1	0.804250
17.966667	1	0.808750
17.983333	1	0.811875
18.000000	1	0.813250
18.016667	1	0.812750
18.033333	1	0.811250
18.050000	1	0.808125
18.066667	1	0.804125
18.083333	1	0.797625
18.100000	1	0.789500
18.116667	1	0.780125
18.133333	1	0.769375
18.150000	1	0.757625
18.166667	1	0.746125
18.183333	1	0.733500
18.200000	1	0.720250
18.216667	1	0.707125
18.233333	1	0.693250
18.250000	1	0.679625
18.266667	1	0.665750
18.283333	1	0.652250
18.300000	1	0.639000
18.316667	1	0.626125
18.333333	1	0.614625
18.350000	1	0.604625
18.366667	1	0.594250
18.383333	1	0.585625
18.400000	1	0.577000
18.416667	1	0.568875
18.433333	1	0.562125
18.450000	1	0.556250
18.466667	1	0.550875
18.483333	1	0.546625
18.500000	1	0.542500
18.516667	1	0.539125
18.533333	1	0.537000
18.550000	1	0.535125
18.566667	1	0.534250
18.583333	1	0.534000
18.600000	1	0.533875
18.616667	1	0.533625
18.633333	1	0.534125
18.650000	1	0.534875
18.666667	1	0.535625
18.683333	1	0.536625
18.700000	1	0.538500
18.716667	1	0.540250
18.733333	1	0.542125
18.750000	1	0.544875
18.766667	1	0.547875
18.783333	1	0.552000
18.800000	1	0.556500
18.816667	1	0.561500
18.833333	1	0.567125
18.850000	1	0.573750
18.866667	1	0.580375
18.883333	1	0.588375
18.900000	1	0.597750
18.916667	1	0.608500
18.933333	1	0.620750
18.950000	1	0.634125
18.966667	1	0.649250
18.983333	1	0.665875
19.000000	1	0.684500
19.016667	1	0.704625
19.033333	1	0.726250
19.050000	1	0.750625
19.066667	1	0.775750
19.083333	1	0.802625
19.100000	1	0.831375
19.116667	1	0.861500
19.133333	1	0.894000
19.150000	1	0.926750
19.166667	1	0.960500
19.183333	1	0.994625
19.200000	1	1.029000
19.216667	1	1.063000
19.233333	1	1.096625
19.250000	1	1.128875
19.266667	1	1.159125
19.283333	1	1.187250
19.300000	1	1.212250
19.316667	1	1.233250
19.333333	1	1.251125
19.350000	1	1.264875
19.366667	1	1.274125
19.383333	1	1.278500
19.400000	1	1.278000
19.416667	1	1.272750
19.433333	1	1.261875
19.450000	1	1.246125
19.466667	1	1.226500
19.483333	1	1.203375
19.500000	1	1.175875
19.516667	1	1.145875
19.533333	1	1.113500
19.550000	1	1.078750
19.566667	1	1.042625
19.583333	1	1.005625
19.600000	1	0.968000
19.616667	1	0.930750
19.633333	1	0.893750
19.650000	1	0.858000
19.666667	1	0.823750
19.683333	1	0.792000
19.700000	1	0.762875
19.716667	1	0.735750
19.733333	1	0.711250
19.750000	1	0.690750
19.766667	1	0.672500
19.783333	1	0.656250
19.800000	1	0.643250
19.816667	1	0.633500
19.833333	1	0.627000
19.850000	1	0.623125
19.866667	1	0.622250
19.883333	1	0.623500
19.900000	1	0.626875
19.916667	1	0.632000
19.933333	1	0.639625
19.950000	1	0.648875
19.966667	1	0.659625
19.983333	1	0.671875
20.000000	1	0.684750
20.016667	1	0.698250
20.033333	1	0.712000
20.050000	1	0.725250
20.066667	1	0.739375
20.083333	1	0.752250
20.100000	1	0.764875
20.116667	1	0.776375
20.133333	1	0.785750
20.150000	1	0.794375
20.166667	1	0.801750
20.183333	1	0.807250
20.200000	1	0.812250
20.216667	1	0.814750
20.233333	1	0.816500
20.250000	1	0.817750
20.266667	1	0.817875
20.283333	1	0.817250
20.300000	1	0.816875
20.316667	1	0.815875
20.333333	1	0.815000
20.350000	1	0.814875
20.366667	1	0.814875
20.383333	1	0.815875
20.400000	1	0.816875
20.416667	1	0.819375
20.433333	1	0.822000
20.450000	1	0.825625
20.466667	1	0.830125
20.483333	1	0.836000
20.500000	1	0.842125
20.516667	1	0.849625
20.533333	1	0.857750
20.550000	1	0.865875
20.566667	1	0.875000
20.583333	1	0.883500
20.600000	1	0.892625
20.616667	1	0.900500
20.633333	1	0.909000
20.650000	1	0.917125
20.666667	1	0.925375
20.683333	1	0.933750
20.700000	1	0.941500
20.716667	1	0.949625
20.733333	1	0.958125
20.750000	1	0.966875
20.766667	1	0.977375
20.783333	1	0.988875
20.800000	1	1.001375
20.816667	1	1.015125
20.833333	1	1.031000
20.850000	1	1.047875
20.866667	1	1.066250
20.883333	1	1.086625
20.900000	1	1.108000
20.916667	1	1.129500
20.933333	1	1.152125
20.950000	1	1.175125
20.966667	1	1.196875
20.983333	1	1.217000
21.000000	1	1.235625
21.016667	1	1.250750
21.033333	1	1.261625
21.050000	1	1.269250
21.066667	1	1.272000
21.083333	1	1.269000
21.100000	1	1.259750
21.116667	1	1.245750
21.133333	1	1.226250
21.150000	1	1.201500
21.166667	1	1.171625
21.183333	1	1.137250
21.200000	1	1.099000
21.216667	1	1.058000
21.233333	1	1.014375
21.250000	1	0.970875
21.266667	1	0.925500
21.283333	1	0.880250
21.300000	1	0.835125
21.316667	1	0.791875
21.333333	1	0.750625
21.350000	1	0.710750
21.366667	1	0.673000
21.383333	1	0.637375
21.400000	1	0.604500
21.416667	1	0.574250
21.433333	1	0.546875
21.450000	1	0.521750
21.466667	1	0.499500
21.483333	1	0.480000
21.500000	1	0.461750
21.516667	1	0.446250
21.533333	1	0.432750
21.550000	1	0.420875
21.566667	1	0.410875
21.583333	1	0.402625
21.600000	1	0.396375
21.616667	1	0.391375
21.633333	1	0.387250
21.650000	1	0.385875
21.666667	1	0.385500
21.683333	1	0.386375
21.700000	1	0.389250
21.716667	1	0.393625
21.733333	1	0.399125
21.750000	1	0.406875
21.766667	1	0.415750
21.783333	1	0.426125
21.800000	1	0.438750
21.816667	1	0.453000
21.833333	1	0.468625
21.850000	1	0.485500
21.866667	1	0.504375
21.883333	1	0.525125
21.900000	1	0.546375
21.916667	1	0.569375
21.933333	1	0.593750
21.950000	1	0.619500
21.966667	1	0.646500
21.983333	1	0.673500
22.000000	1	0.701500
22.016667	1	0.728500
22.033333	1	0.755625
22.050000	1	0.782500
22.066667	1	0.807875
22.083333	1	0.831625
22.100000	1	0.853000
22.116667	1	0.873125
22.133333	1	0.890125
22.150000	1	0.903875
22.166667	1	0.914000
22.183333	1	0.920625
22.200000	1	0.923000
22.216667	1	0.921000
22.233333	1	0.916125
22.250000	1	0.906875
22.266667	1	0.894500
22.283333	1	0.878875
22.300000	1	0.860000
22.316667	1	0.839500
22.333333	1	0.816500
22.350000	1	0.792000
22.366667	1	0.766125
22.383333	1	0.740375
22.400000	1	0.714125
22.416667	1	0.688125
22.433333	1	0.663125
22.450000	1	0.639375
22.466667	1	0.616500
22.483333	1	0.596000
22.500000	1	0.576125
22.516667	1	0.558375
22.533333	1	0.541875
22.550000	1	0.527500
22.566667	1	0.514875
22.583333	1	0.503875
22.600000	1	0.494375
22.616667	1	0.486250
22.633333	1	0.480000
22.650000	1	0.474375
22.666667	1	0.470125
22.683333	1	0.467125
22.700000	1	0.463500
22.716667	1	0.460750
22.733333	1	0.458375
22.750000	1	0.456375
22.766667	1	0.454875
22.783333	1	0.453125
22.800000	1	0.451000
22.816667	1	0.449625
22.833333	1	0.448125
22.850000	1	0.447125
22.866667	1	0.444625
22.883333	1	0.441500
22.900000	1	0.439000
22.916667	1	0.436500
22.933333	1	0.433625
22.950000	1	0.430000
22.966667	1	0.426500
22.983333	1	0.422750
23.000000	1	0.418375
23.016667	1	0.414125
23.033333	1	0.410125
23.050000	1	0.405500
23.066667	1	0.400625
23.083333	1	0.396750
23.100000	1	0.393125
23.116667	1	0.389000
23.133333	1	0.385125
23.150000	1	0.382625
23.166667	1	0.379625
23.183333	1	0.377125
23.200000	1	0.374875
23.216667	1	0.373875
23.233333	1	0.373625
23.250000	1	0.373375
23.266667	1	0.374500
23.283333	1	0.376250
23.300000	1	0.379000
23.316667	1	0.383250
23.333333	1	0.388000
23.350000	1	0.394625
23.366667	1	0.402250
23.383333	1	0.412375
23.400000	1	0.422875
23.416667	1	0.436250
23.433333	1	0.452500
23.450000	1	0.471125
23.466667	1	0.493000
23.483333	1	0.518500
23.500000	1	0.547625
23.516667	1	0.582500
23.533333	1	0.621125
23.550000	1	0.665000
23.566667	1	0.714875
23.583333	1	0.771000
23.600000	1	0.833625
23.616667	1	0.903375
23.633333	1	0.980500
23.650000	1	1.064500
23.666667	1	1.156875
23.683333	1	1.256375
23.700000	1	1.364625
23.716667	1	1.481000
23.733333	1	1.604250
23.750000	1	1.734625
23.766667	1	1.871625
23.783333	1	2.015250
23.800000	1	2.163875
23.816667	1	2.317375
23.833333	1	2.473500
23.850000	1	2.630750
23.866667	1	2.788375
23.883333	1	2.944125
23.900000	1	3.097125
23.916667	1	3.245125
23.933333	1	3.385375
23.950000	1	3.515250
23.966667	1	3.633625
23.983333	1	3.737750
24.000000	1	3.825625
24.016667	1	3.896375
24.033333	1	3.948125
24.050000	1	3.980125
24.066667	1	3.992000
24.083333	1	3.983125
24.100000	1	3.953625
24.116667	1	3.904375
24.133333	1	3.836000
24.150000	1	3.749375
24.166667	1	3.647250
24.183333	1	3.530750
24.200000	1	3.403125
24.216667	1	3.265125
24.233333	1	3.119500
24.250000	1	2.968750
24.266667	1	2.816250
24.283333	1	2.662625
24.300000	1	2.509625
24.316667	1	2.359375
24.333333	1	2.213625
24.350000	1	2.072500
24.366667	1	1.937750
24.383333	1	1.810000
24.400000	1	1.690250
24.416667	1	1.578750
24.433333	1	1.475125
24.450000	1	1.379875
24.466667	1	1.292500
24.483333	1	1.212625
24.500000	1	1.140375
24.516667	1	1.075250
24.533333	1	1.015875
24.550000	1	0.962000
24.566667	1	0.913125
24.583333	1	0.868625
24.600000	1	0.828125
24.616667	1	0.791250
24.633333	1	0.757875
24.650000	1	0.727500
24.666667	1	0.698625
24.683333	1	0.672375
24.700000	1	0.647750
24.716667	1	0.624000
24.733333	1	0.601125
24.750000	1	0.579500
24.766667	1	0.559125
24.783333	1	0.538500
24.800000	1	0.518625
24.816667	1	0.499250
24.833333	1	0.480750
24.850000	1	0.462375
24.866667	1	0.444875
24.883333	1	0.427875
24.900000	1	0.411250
24.916667	1	0.396000
24.933333	1	0.380625
24.950000	1	0.366000
24.966667	1	0.352625
24.983333	1	0.339750
25.000000	1	0.327375
25.016667	1	0.315750
25.033333	1	0.305125
25.050000	1	0.295375
25.066667	1	0.286375
25.083333	1	0.278250
25.100000	1	0.271625
25.116667	1	0.265625
25.133333	1	0.260125
25.150000	1	0.254375
25.166667	1	0.249875
25.183333	1	0.246375
25.200000	1	0.243500
25.216667	1	0.241500
25.233333	1	0.239125
25.250000	1	0.237875
25.266667	1	0.237875
25.283333	1	0.237625
25.300000	1	0.237625
25.316667	1	0.238500
25.333333	1	0.239000
25.350000	1	0.239875
25.366667	1	0.241250
25.383333	1	0.242750
25.400000	1	0.244625
25.416667	1	0.246375
25.433333	1	0.248625
25.450000	1	0.250750
25.466667	1	0.252250
25.483333	1	0.254250
25.500000	1	0.255875
25.516667	1	0.257125
25.533333	1	0.259250
25.550000	1	0.260875
25.566667	1	0.262750
25.583333	1	0.264500
25.600000	1	0.265875
25.616667	1	0.266375
25.633333	1	0.267750
25.650000	1	0.268375
25.666667	1	0.269375
25.683333	1	0.269750
25.700000	1	0.270250
25.716667	1	0.269875
25.733333	1	0.269375
25.750000	1	0.269250
25.766667	1	0.268875
25.783333	1	0.268000
25.800000	1	0.267750
25.816667	1	0.268250
25.833333	1	0.267625
25.850000	1	0.266875
25.866667	1	0.266250
25.883333	1	0.265250
25.900000	1	0.264375
25.916667	1	0.263375
25.933333	1	0.263250
25.950000	1	0.262750
25.966667	1	0.261750
25.983333	1	0.261875
26.000000	1	0.261125
26.016667	1	0.260500
26.033333	1	0.259500
26.050000	1	0.259625
26.066667	1	0.259375
26.083333	1	0.258875
26.100000	1	0.259000
26.116667	1	0.258500
26.133333	1	0.258625
26.150000	1	0.258750
26.166667	1	0.258750
26.183333	1	0.259125
26.200000	1	0.259000
26.216667	1	0.259625
26.233333	1	0.260125
26.250000	1	0.260500
26.266667	1	0.261750
26.283333	1	0.262250
26.300000	1	0.262625
26.316667	1	0.263125
26.333333	1	0.263625
26.350000	1	0.263500
26.366667	1	0.264000
26.383333	1	0.263625
26.400000	1	0.263000
26.416667	1	0.262500
26.433333	1	0.262250
26.450000	1	0.261375
26.466667	1	0.258875
26.483333	1	0.256875
26.500000	1	0.254375
26.516667	1	0.252375
26.533333	1	0.249875
26.550000	1	0.246250
26.566667	1	0.242375
26.583333	1	0.237750
26.600000	1	0.232875
26.616667	1	0.228250
26.633333	1	0.222875
26.650000	1	0.216875
26.666667	1	0.210750
26.683333	1	0.204125
26.700000	1	0.198000
26.716667	1	0.191375
26.733333	1	0.184625
26.750000	1	0.177250
26.766667	1	0.170000
26.783333	1	0.162875
26.800000	1	0.156500
26.816667	1	0.149875
26.833333	1	0.143625
26.850000	1	0.137500
26.866667	1	0.132500
26.883333	1	0.127375
26.900000	1	0.122500
26.916667	1	0.117875
26.933333	1	0.113500
26.950000	1	0.109625
26.966667	1	0.106500
26.983333	1	0.103625
27.000000	1	0.101375
27.016667	1	0.100125
27.033333	1	0.099625
27.050000	1	0.099000
27.066667	1	0.099125
27.083333	1	0.099750
27.100000	1	0.101125
27.116667	1	0.103000
27.133333	1	0.105625
27.150000	1	0.108750
27.166667	1	0.112375
27.183333	1	0.116500
27.200000	1	0.122250
27.216667	1	0.128500
27.233333	1	0.135500
27.250000	1	0.143500
27.266667	1	0.151875
27.283333	1	0.161000
27.300000	1	0.171125
27.316667	1	0.182875
27.333333	1	0.194875
27.350000	1	0.208125
27.366667	1	0.223125
27.383333	1	0.240125
27.400000	1	0.259000
27.416667	1	0.280000
27.433333	1	0.302750
27.450000	1	0.328125
27.466667	1	0.355875
27.483333	1	0.386500
27.500000	1	0.420125
27.516667	1	0.457500
27.533333	1	0.498250
27.550000	1	0.542875
27.566667	1	0.591250
27.583333	1	0.644500
27.600000	1	0.701750
27.616667	1	0.764500
27.633333	1	0.831875
27.650000	1	0.904500
27.666667	1	0.982000
27.683333	1	1.064875
27.700000	1	1.154000
27.716667	1	1.247000
27.733333	1	1.345625
27.750000	1	1.448750
27.766667	1	1.556625
27.783333	1	1.669000
27.800000	1	1.785125
27.816667	1	1.903875
27.833333	1	2.025875
27.850000	1	2.149500
27.866667	1	2.275000
27.883333	1	2.401000
27.900000	1	2.526500
27.916667	1	2.650250
27.933333	1	2.772000
27.950000	1	2.889125
27.966667	1	3.001000
27.983333	1	3.108500
28.000000	1	3.208125
28.016667	1	3.299625
28.033333	1	3.381750
28.050000	1	3.453750
28.066667	1	3.513500
28.083333	1	3.560375
28.100000	1	3.593250
28.116667	1	3.613000
28.133333	1	3.618000
28.150000	1	3.608000
28.166667	1	3.582375
28.183333	1	3.541750
28.200000	1	3.487000
28.216667	1	3.419250
28.233333	1	3.337000
28.250000	1	3.242750
28.266667	1	3.136500
28.283333	1	3.020125
28.300000	1	2.895125
28.316667	1	2.762625
28.333333	1	2.624125
28.350000	1	2.482000
28.366667	1	2.337500
28.383333	1	2.190875
28.400000	1	2.044750
28.416667	1	1.899625
28.433333	1	1.755875
28.450000	1	1.615500
28.466667	1	1.478250
28.483333	1	1.345250
28.500000	1	1.217125
28.516667	1	1.093625
28.533333	1	0.975750
28.550000	1	0.862375
28.566667	1	0.754625
28.583333	1	0.652125
28.600000	1	0.554500
28.616667	1	0.461875
28.633333	1	0.373250
28.650000	1	0.288750
28.666667	1	0.208750
28.683333	1	0.132375
28.700000	1	0.058250
28.716667	1	-0.011625
28.733333	1	-0.078375
28.750000	1	-0.141375
28.766667	1	-0.201625
28.783333	1	-0.259250
28.800000	1	-0.314250
28.816667	1	-0.366125
28.833333	1	-0.415125
28.850000	1	-0.461125
28.866667	1	-0.504500
28.883333	1	-0.544625
28.900000	1	-0.581875
28.916667	1	-0.615375
28.933333	1	-0.646000
28.950000	1	-0.672250
28.966667	1	-0.695375
28.983333	1	-0.714000
29.000000	1	-0.729000
29.016667	1	-0.740500
29.033333	1	-0.747625
29.050000	1	-0.752125
29.066667	1	-0.751875
29.083333	1	-0.747375
29.100000	1	-0.738875
29.116667	1	-0.727250
29.133333	1	-0.711625
29.150000	1	-0.692625
29.166667	1	-0.670500
29.183333	1	-0.645625
29.200000	1	-0.618125
29.216667	1	-0.588625
29.233333	1	-0.556125
29.250000	1	-0.521375
29.266667	1	-0.486000
29.283333	1	-0.448500
29.300000	1	-0.410625
29.316667	1	-0.371500
29.333333	1	-0.332250
29.350000	1	-0.292250
29.366667	1	-0.252500
29.383333	1	-0.212875
29.400000	1	-0.173875
29.416667	1	-0.135875
29.433333	1	-0.097625
29.450000	1	-0.060500
29.466667	1	-0.025125
29.483333	1	0.009000
29.500000	1	0.042250
29.516667	1	0.074000
29.533333	1	0.104125
29.550000	1	0.132625
29.566667	1	0.159125
29.583333	1	0.185125
29.600000	1	0.208875
29.616667	1	0.230125
29.633333	1	0.250625
29.650000	1	0.270000
29.666667	1	0.287000
29.683333	1	0.302500
29.700000	1	0.316250
29.716667	1	0.328750
29.733333	1	0.339000
29.750000	1	0.348500
29.766667	1	0.357000
29.783333	1	0.364375
29.800000	1	0.370875
29.816667	1	0.375375
29.833333	1	0.380125
29.850000	1	0.383125
29.866667	1	0.385000
29.883333	1	0.386500
29.900000	1	0.387125
29.916667	1	0.387000
29.933333	1	0.386500
29.950000	1	0.386500
29.966667	1	0.385875
29.983333	1	0.384625
30.000000	1	0.384250
30.016667	1	0.384125
30.033333	1	0.383000
30.050000	1	0.382000
30.066667	1	0.382000
30.083333	1	0.382250
30.100000	1	0.382875
30.116667	1	0.384625
30.133333	1	0.387000
30.150000	1	0.390000
30.166667	1	0.393875
30.183333	1	0.398750
30.200000	1	0.405125
30.216667	1	0.412375
30.233333	1	0.421625
30.250000	1	0.432375
30.266667	1	0.444625
30.283333	1	0.459250
30.300000	1	0.475375
30.316667	1	0.493750
30.333333	1	0.514250
30.350000	1	0.537500
30.366667	1	0.562750
30.383333	1	0.590375
30.400000	1	0.620625
30.416667	1	0.653875
30.433333	1	0.689625
30.450000	1	0.729625
30.466667	1	0.771125
30.483333	1	0.816000
30.500000	1	0.863625
30.516667	1	0.914500
30.533333	1	0.967625
30.550000	1	1.023875
30.566667	1	1.082250
30.583333	1	1.143125
30.600000	1	1.205500
30.616667	1	1.270625
30.633333	1	1.336875
30.650000	1	1.403625
30.666667	1	1.471375
30.683333	1	1.538375
30.700000	1	1.605125
30.716667	1	1.670875
30.733333	1	1.734125
30.750000	1	1.795375
30.766667	1	1.854000
30.783333	1	1.909625
30.800000	1	1.961625
30.816667	1	2.008750
30.833333	1	2.049875
30.850000	1	2.085625
30.866667	1	2.115125
30.883333	1	2.138000
30.900000	1	2.154375
30.916667	1	2.163750
30.933333	1	2.166000
30.950000	1	2.160000
30.966667	1	2.147750
30.983333	1	2.128875
31.000000	1	2.103000
31.016667	1	2.070375
31.033333	1	2.031625
31.050000	1	1.987125
31.066667	1	1.937750
31.083333	1	1.884000
31.100000	1	1.826125
31.116667	1	1.764000
31.133333	1	1.700375
31.150000	1	1.633750
31.166667	1	1.566500
31.183333	1	1.498375
31.200000	1	1.429250
31.216667	1	1.360125
31.233333	1	1.291125
31.250000	1	1.224000
31.266667	1	1.158250
31.283333	1	1.093500
31.300000	1	1.031250
31.316667	1	0.971625
31.333333	1	0.914125
31.350000	1	0.859750
31.366667	1	0.807750
31.383333	1	0.758500
31.400000	1	0.711875
31.416667	1	0.668250
31.433333	1	0.626875
31.450000	1	0.588250
31.466667	1	0.551875
31.483333	1	0.518625
31.500000	1	0.487500
31.516667	1	0.458750
31.533333	1	0.432250
31.550000	1	0.407750
31.566667	1	0.385000
31.583333	1	0.364750
31.600000	1	0.345875
31.616667	1	0.328125
31.633333	1	0.312875
31.650000	1	0.298875
31.666667	1	0.285750
31.683333	1	0.274000
31.700000	1	0.263250
31.716667	1	0.253375
31.733333	1	0.245000
31.750000	1	0.237875
31.766667	1	0.231625
31.783333	1	0.226125
31.800000	1	0.221250
31.816667	1	0.217750
31.833333	1	0.214625
31.850000	1	0.212125
31.866667	1	0.210000
31.883333	1	0.208625
31.900000	1	0.208125
31.916667	1	0.206625
31.933333	1	0.206375
31.950000	1	0.206625
31.966667	1	0.206625
31.983333	1	0.207750
32.000000	1	0.208375
32.016667	1	0.208625
32.033333	1	0.209500
32.050000	1	0.210250
32.066667	1	0.210875
32.083333	1	0.211750
32.100000	1	0.212125
32.116667	1	0.212000
32.133333	1	0.212000
32.150000	1	0.211500
32.166667	1	0.210875
32.183333	1	0.209750
32.200000	1	0.208625
32.216667	1	0.207375
32.233333	1	0.205750
32.250000	1	0.203375
32.266667	1	0.201000
32.283333	1	0.198375
32.300000	1	0.195875
32.316667	1	0.192375
32.333333	1	0.188375
32.350000	1	0.184875
32.366667	1	0.181375
32.383333	1	0.178125
32.400000	1	0.174500
32.416667	1	0.170625
32.433333	1	0.166750
32.450000	1	0.162875
32.466667	1	0.158875
32.483333	1	0.155125
32.500000	1	0.152250
32.516667	1	0.148875
32.533333	1	0.145750
32.550000	1	0.143250
32.566667	1	0.140125
32.583333	1	0.137375
32.600000	1	0.135000
32.616667	1	0.131625
32.633333	1	0.129500
32.650000	1	0.127500
32.666667	1	0.124875
32.683333	1	0.122375
32.700000	1	0.120750
32.716667	1	0.118625
32.733333	1	0.116375
32.750000	1	0.114250
32.766667	1	0.112500
32.783333	1	0.110750
32.800000	1	0.107750
32.816667	1	0.104875
32.833333	1	0.102500
32.850000	1	0.099000
32.866667	1	0.095500
32.883333	1	0.092125
32.900000	1	0.088875
32.916667	1	0.085750
32.933333	1	0.081750
32.950000	1	0.078250
32.966667	1	0.074125
32.983333	1	0.069625
33.000000	1	0.065750
33.016667	1	0.061250
33.033333	1	0.056500
33.050000	1	0.051500
33.066667	1	0.046500
33.083333	1	0.041500
33.100000	1	0.036500
33.116667	1	0.032125
33.133333	1	0.027625
33.150000	1	0.023625
33.166667	1	0.020000
33.183333	1	0.015250
33.200000	1	0.011375
33.216667	1	0.006875
33.233333	1	0.003250
33.250000	1	-0.000625
33.266667	1	-0.003375
33.283333	1	-0.006375
33.300000	1	-0.009375
33.316667	1	-0.011625
33.333333	1	-0.013500
33.350000	1	-0.015875
33.366667	1	-0.017250
33.383333	1	-0.018875
33.400000	1	-0.020250
33.416667	1	-0.021375
33.433333	1	-0.022125
33.450000	1	-0.022750
33.466667	1	-0.022875
33.483333	1	-0.022625
33.500000	1	-0.022500
33.516667	1	-0.021625
33.533333	1	-0.021125
33.550000	1	-0.019250
33.566667	1	-0.018250
33.583333	1	-0.016125
33.600000	1	-0.014000
33.616667	1	-0.010875
33.633333	1	-0.008000
33.650000	1	-0.004625
33.666667	1	-0.000750
33.683333	1	0.004000
33.700000	1	0.009125
33.716667	1	0.015250
33.733333	1	0.021125
33.750000	1	0.027875
33.766667	1	0.035750
33.783333	1	0.043750
33.800000	1	0.053375
33.816667	1	0.063000
33.833333	1	0.073375
33.850000	1	0.084750
33.866667	1	0.096875
33.883333	1	0.110625
33.900000	1	0.124125
33.916667	1	0.139125
33.933333	1	0.155000
33.950000	1	0.171375
33.966667	1	0.189125
33.983333	1	0.208625
34.000000	1	0.228250
34.016667	1	0.248375
34.033333	1	0.269750
34.050000	1	0.291750
34.066667	1	0.315125
34.083333	1	0.339000
34.100000	1	0.363625
34.116667	1	0.388750
34.133333	1	0.414000
34.150000	1	0.439500
34.166667	1	0.465875
34.183333	1	0.492375
34.200000	1	0.519875
34.216667	1	0.546125
34.233333	1	0.572625
34.250000	1	0.597875
34.266667	1	0.623250
34.283333	1	0.647750
34.300000	1	0.671125
34.316667	1	0.693500
34.333333	1	0.714375
34.350000	1	0.734000
34.366667	1	0.752125
34.383333	1	0.768500
34.400000	1	0.782500
34.416667	1	0.794375
34.433333	1	0.803750
34.450000	1	0.811125
34.466667	1	0.817125
34.483333	1	0.821000
34.500000	1	0.821000
34.516667	1	0.819750
34.533333	1	0.816125
34.550000	1	0.809500
34.566667	1	0.800875
34.583333	1	0.791125
34.600000	1	0.778375
34.616667	1	0.764250
34.633333	1	0.748750
34.650000	1	0.731500
34.666667	1	0.712750
34.683333	1	0.691750
34.700000	1	0.671125
34.716667	1	0.649500
34.733333	1	0.627000
34.750000	1	0.603625
34.766667	1	0.580625
34.783333	1	0.557000
34.800000	1	0.533375
34.816667	1	0.510500
34.833333	1	0.487875
34.850000	1	0.465250
34.866667	1	0.443125
34.883333	1	0.421625
34.900000	1	0.400625
34.916667	1	0.380750
34.933333	1	0.361875
34.950000	1	0.344125
34.966667	1	0.326875
34.983333	1	0.310750
35.000000	1	0.295375
35.016667	1	0.280625
35.033333	1	0.267125
35.050000	1	0.254875
35.066667	1	0.243250
35.083333	1	0.232500
35.100000	1	0.222625
35.116667	1	0.213875
35.133333	1	0.206125
35.150000	1	0.198625
35.166667	1	0.191625
35.183333	1	0.185375
35.200000	1	0.180125
35.216667	1	0.174875
35.233333	1	0.170250
35.250000	1	0.167125
35.266667	1	0.163250
35.283333	1	0.160625
35.300000	1	0.156875
35.316667	1	0.154125
35.333333	1	0.152250
35.350000	1	0.150125
35.366667	1	0.148375
35.383333	1	0.147000
35.400000	1	0.146000
35.416667	1	0.144875
35.433333	1	0.143750
35.450000	1	0.142875
35.466667	1	0.142000
35.483333	1	0.140625
35.500000	1	0.139875
35.516667	1	0.138500
35.533333	1	0.137875
35.550000	1	0.136625
35.566667	1	0.136250
35.583333	1	0.135000
35.600000	1	0.134625
35.616667	1	0.133750
35.633333	1	0.132250
35.650000	1	0.131125
35.666667	1	0.129750
35.683333	1	0.129000
35.700000	1	0.128375
35.716667	1	0.127750
35.733333	1	0.126500
35.750000	1	0.125375
35.766667	1	0.124500
35.783333	1	0.123125
35.800000	1	0.121750
35.816667	1	0.120125
35.833333	1	0.119000
35.850000	1	0.117875
35.866667	1	0.117000
35.883333	1	0.115875
35.900000	1	0.114500
35.916667	1	0.113625
35.933333	1	0.112875
35.950000	1	0.111625
35.966667	1	0.109500
35.983333	1	0.108625
36.000000	1	0.107750
36.016667	1	0.105875
36.033333	1	0.104000
36.050000	1	0.103625
36.066667	1	0.102125
36.083333	1	0.100250
36.100000	1	0.099875
36.116667	1	0.098625
36.133333	1	0.097500
36.150000	1	0.096750
36.166667	1	0.095375
36.183333	1	0.094000
36.200000	1	0.093000
36.216667	1	0.092125
36.233333	1	0.091125
36.250000	1	0.090125
36.266667	1	0.088750
36.283333	1	0.087500
36.300000	1	0.086000
36.316667	1	0.084875
36.333333	1	0.083875
36.350000	1	0.082625
36.366667	1	0.081625
36.383333	1	0.079875
36.400000	1	0.078250
36.416667	1	0.077250
36.433333	1	0.075750
36.450000	1	0.074000
36.466667	1	0.072125
36.483333	1	0.070500
36.500000	1	0.069500
36.516667	1	0.067500
36.533333	1	0.065000
36.550000	1	0.064000
36.566667	1	0.062375
36.583333	1	0.060250
36.600000	1	0.058000
36.616667	1	0.056250
36.633333	1	0.054625
36.650000	1	0.052500
36.666667	1	0.050000
36.683333	1	0.048125
36.700000	1	0.045625
36.716667	1	0.043375
36.733333	1	0.041125
36.750000	1	0.038250
36.766667	1	0.035625
36.783333	1	0.033250
36.800000	1	0.030375
36.816667	1	0.028125
36.833333	1	0.024875
36.850000	1	0.022125
36.866667	1	0.019125
36.883333	1	0.016250
36.900000	1	0.013250
36.916667	1	0.011000
36.933333	1	0.008000
36.950000	1	0.005250
36.966667	1	0.003000
36.983333	1	0.000000
37.000000	1	-0.002625
37.016667	1	-0.005875
37.033333	1	-0.008125
37.050000	1	-0.010500
37.066667	1	-0.012875
37.083333	1	-0.015875
37.100000	1	-0.018375
37.116667	1	-0.020750
37.133333	1	-0.023125
37.150000	1	-0.024875
37.166667	1	-0.027250
37.183333	1	-0.029125
37.200000	1	-0.030500
37.216667	1	-0.032250
37.233333	1	-0.033750
37.250000	1	-0.034875
37.266667	1	-0.036750
37.283333	1	-0.038000
37.300000	1	-0.038750
37.316667	1	-0.039500
37.333333	1	-0.040125
37.350000	1	-0.040500
37.366667	1	-0.040625
37.383333	1	-0.041250
37.400000	1	-0.041125
37.416667	1	-0.040375
37.433333	1	-0.040375
37.450000	1	-0.040500
37.466667	1	-0.040125
37.483333	1	-0.040000
37.500000	1	-0.039750
37.516667	1	-0.039125
37.533333	1	-0.039375
37.550000	1	-0.039125
37.566667	1	-0.038500
37.583333	1	-0.038125
37.600000	1	-0.037125
37.616667	1	-0.036250
37.633333	1	-0.035750
37.650000	1	-0.034500
37.666667	1	-0.033625
37.683333	1	-0.033125
37.700000	1	-0.032625
37.716667	1	-0.031875
37.733333	1	-0.030875
37.750000	1	-0.030500
37.766667	1	-0.029625
37.783333	1	-0.028875
37.800000	1	-0.028375
37.816667	1	-0.027375
37.833333	1	-0.026375
37.850000	1	-0.026250
37.866667	1	-0.026000
37.883333	1	-0.025125
37.900000	1	-0.023875
37.916667	1	-0.023375
37.933333	1	-0.022250
37.950000	1	-0.021125
37.966667	1	-0.020625
37.983333	1	-0.020625
38.000000	1	-0.020750
38.016667	1	-0.020000
38.033333	1	-0.020375
38.050000	1	-0.020375
38.066667	1	-0.019750
38.083333	1	-0.019250
38.100000	1	-0.018500
38.116667	1	-0.018375
38.133333	1	-0.018625
38.150000	1	-0.019000
38.166667	1	-0.019125
38.183333	1	-0.019875
38.200000	1	-0.019625
38.216667	1	-0.020125
38.233333	1	-0.021250
38.250000	1	-0.021625
38.266667	1	-0.021750
38.283333	1	-0.022250
38.300000	1	-0.023375
38.316667	1	-0.024250
38.333333	1	-0.025500
38.350000	1	-0.026875
38.366667	1	-0.028125
38.383333	1	-0.028625
38.400000	1	-0.030000
38.416667	1	-0.031375
38.433333	1	-0.032875
38.450000	1	-0.034375
38.466667	1	-0.036250
38.483333	1	-0.038250
38.500000	1	-0.040000
38.516667	1	-0.042000
38.533333	1	-0.043750
38.550000	1	-0.046125
38.566667	1	-0.048250
38.583333	1	-0.050500
38.600000	1	-0.051750
38.616667	1	-0.054125
38.633333	1	-0.056625
38.650000	1	-0.058500
38.666667	1	-0.060625
38.683333	1	-0.062500
38.700000	1	-0.065125
38.716667	1	-0.067875
38.733333	1	-0.069375
38.750000	1	-0.071625
38.766667	1	-0.074000
38.783333	1	-0.076125
38.800000	1	-0.077375
38.816667	1	-0.078875
38.833333	1	-0.081500
38.850000	1	-0.083250
38.866667	1	-0.084125
38.883333	1	-0.085875
38.900000	1	-0.087500
38.916667	1	-0.088250
38.933333	1	-0.089250
38.950000	1	-0.090375
38.966667	1	-0.091875
38.983333	1	-0.093125
39.000000	1	-0.093125
39.016667	1	-0.093125
39.033333	1	-0.093500
39.050000	1	-0.093750
39.066667	1	-0.094250
39.083333	1	-0.095625
39.100000	1	-0.095000
39.116667	1	-0.095250
39.133333	1	-0.094750
39.150000	1	-0.094000
39.166667	1	-0.093250
39.183333	1	-0.093125
39.200000	1	-0.093125
39.216667	1	-0.092375
39.233333	1	-0.091375
39.250000	1	-0.090000
39.266667	1	-0.089500
39.283333	1	-0.088125
39.300000	1	-0.087375
39.316667	1	-0.086125
39.333333	1	-0.084375
39.350000	1	-0.083375
39.366667	1	-0.082125
39.383333	1	-0.080000
39.400000	1	-0.078000
39.416667	1	-0.076375
39.433333	1	-0.074375
39.450000	1	-0.072500
39.466667	1	-0.070500
39.483333	1	-0.067875
39.500000	1	-0.066375
39.516667	1	-0.064000
39.533333	1	-0.062000
39.550000	1	-0.060500
39.566667	1	-0.058625
39.583333	1	-0.057000
39.600000	1	-0.054875
39.616667	1	-0.053125
39.633333	1	-0.050750
39.650000	1	-0.048000
39.666667	1	-0.045250
39.683333	1	-0.043375
39.700000	1	-0.041500
39.716667	1	-0.039750
39.733333	1	-0.038000
39.750000	1	-0.036375
39.766667	1	-0.034625
39.783333	1	-0.032375
39.800000	1	-0.030750
39.816667	1	-0.028625
39.833333	1	-0.026875
39.850000	1	-0.024500
39.866667	1	-0.022875
39.883333	1	-0.021125
39.900000	1	-0.020000
39.916667	1	-0.018750
39.933333	1	-0.018000
39.950000	1	-0.016750
39.966667	1	-0.016000
39.983333	1	-0.014750
40.000000	1	-0.013500
