File Path	chrom://marshall/Chromeleon7/HPLC_Ultimate_3000/Users/markusar/20230107.seq/409.smp/RI_1.channel/RI_1.chm
Channel	RI_1

Injection Information:
Data Vault	Chromeleon7
Injection	ri1.1
Injection Number	10
Position	RB2
Comment	
Processing Method	
Instrument Method	std_method
Type	Unknown
Status	Finished
Injection Date	07.01.2023
Injection Time	22:02:48
Injection Volume (µl)	20.000
Dilution Factor	1.0000
Weight	1.0000

Chromatogram Data Information:
Time Min. (min)	0.000000
Time Max. (min)	40.000000
Data Points	2401
Detector	RI
Generating Data System	Chromeleon 7.2.5.9507
Exporting Data System	Chromeleon 7.2.5.0
Operator	Instrument Controller
Signal Quantity	Refractive 
Signal Unit	µRIU
Signal Min.	-0.086375
Signal Max.	110.741500
Channel	RI_1
Driver Name	RID520Driver.dll
Channel Type	Evaluation
Min. Step (s)	1
Max. Step (s)	1
Average Step (s)	1

Signal Parameter Information:
Signal Info	

Chromatogram Data:
Time (min)	Step (s)	Value (µRIU)
0.000000	n.a.	0.124625
0.016667	1	0.126000
0.033333	1	0.128375
0.050000	1	0.130375
0.066667	1	0.131750
0.083333	1	0.134000
0.100000	1	0.135125
0.116667	1	0.136375
0.133333	1	0.137875
0.150000	1	0.138125
0.166667	1	0.139375
0.183333	1	0.140375
0.200000	1	0.141625
0.216667	1	0.142750
0.233333	1	0.143500
0.250000	1	0.143000
0.266667	1	0.143625
0.283333	1	0.143875
0.300000	1	0.144500
0.316667	1	0.144625
0.333333	1	0.144750
0.350000	1	0.145125
0.366667	1	0.145375
0.383333	1	0.145500
0.400000	1	0.145250
0.416667	1	0.144500
0.433333	1	0.144000
0.450000	1	0.143125
0.466667	1	0.141750
0.483333	1	0.140750
0.500000	1	0.139000
0.516667	1	0.137375
0.533333	1	0.136375
0.550000	1	0.135250
0.566667	1	0.134000
0.583333	1	0.132375
0.600000	1	0.131125
0.616667	1	0.130750
0.633333	1	0.130000
0.650000	1	0.129250
0.666667	1	0.128250
0.683333	1	0.127250
0.700000	1	0.125250
0.716667	1	0.122875
0.733333	1	0.121000
0.750000	1	0.118375
0.766667	1	0.115750
0.783333	1	0.112750
0.800000	1	0.109625
0.816667	1	0.106625
0.833333	1	0.103875
0.850000	1	0.101375
0.866667	1	0.098375
0.883333	1	0.095750
0.900000	1	0.093500
0.916667	1	0.090250
0.933333	1	0.087625
0.950000	1	0.085500
0.966667	1	0.083125
0.983333	1	0.081375
1.000000	1	0.079125
1.016667	1	0.076625
1.033333	1	0.074500
1.050000	1	0.072375
1.066667	1	0.070750
1.083333	1	0.069375
1.100000	1	0.067375
1.116667	1	0.065625
1.133333	1	0.063625
1.150000	1	0.062375
1.166667	1	0.061000
1.183333	1	0.058875
1.200000	1	0.057250
1.216667	1	0.055750
1.233333	1	0.053625
1.250000	1	0.052125
1.266667	1	0.050375
1.283333	1	0.048375
1.300000	1	0.046375
1.316667	1	0.044750
1.333333	1	0.043250
1.350000	1	0.041250
1.366667	1	0.039000
1.383333	1	0.037000
1.400000	1	0.034875
1.416667	1	0.032625
1.433333	1	0.030500
1.450000	1	0.029375
1.466667	1	0.027250
1.483333	1	0.025250
1.500000	1	0.023000
1.516667	1	0.021125
1.533333	1	0.019250
1.550000	1	0.017125
1.566667	1	0.015000
1.583333	1	0.012750
1.600000	1	0.010625
1.616667	1	0.007875
1.633333	1	0.004875
1.650000	1	0.003000
1.666667	1	0.000625
1.683333	1	-0.001375
1.700000	1	-0.003625
1.716667	1	-0.005375
1.733333	1	-0.007375
1.750000	1	-0.009750
1.766667	1	-0.012000
1.783333	1	-0.014875
1.800000	1	-0.016375
1.816667	1	-0.018875
1.833333	1	-0.020750
1.850000	1	-0.022875
1.866667	1	-0.025375
1.883333	1	-0.027500
1.900000	1	-0.029250
1.916667	1	-0.031000
1.933333	1	-0.032500
1.950000	1	-0.034875
1.966667	1	-0.037125
1.983333	1	-0.039000
2.000000	1	-0.041500
2.016667	1	-0.043875
2.033333	1	-0.046125
2.050000	1	-0.047750
2.066667	1	-0.049625
2.083333	1	-0.051375
2.100000	1	-0.052625
2.116667	1	-0.054750
2.133333	1	-0.056750
2.150000	1	-0.058625
2.166667	1	-0.060750
2.183333	1	-0.062000
2.200000	1	-0.064000
2.216667	1	-0.065500
2.233333	1	-0.066750
2.250000	1	-0.068625
2.266667	1	-0.070375
2.283333	1	-0.071500
2.300000	1	-0.073000
2.316667	1	-0.074375
2.333333	1	-0.075250
2.350000	1	-0.076000
2.366667	1	-0.077375
2.383333	1	-0.078625
2.400000	1	-0.079500
2.416667	1	-0.080500
2.433333	1	-0.081375
2.450000	1	-0.082500
2.466667	1	-0.083375
2.483333	1	-0.084000
2.500000	1	-0.084500
2.516667	1	-0.084750
2.533333	1	-0.085500
2.550000	1	-0.085500
2.566667	1	-0.085625
2.583333	1	-0.086000
2.600000	1	-0.085750
2.616667	1	-0.086250
2.633333	1	-0.086125
2.650000	1	-0.086375
2.666667	1	-0.086250
2.683333	1	-0.086250
2.700000	1	-0.085375
2.716667	1	-0.085375
2.733333	1	-0.085000
2.750000	1	-0.084500
2.766667	1	-0.084375
2.783333	1	-0.083375
2.800000	1	-0.082875
2.816667	1	-0.081750
2.833333	1	-0.081250
2.850000	1	-0.080000
2.866667	1	-0.079000
2.883333	1	-0.078000
2.900000	1	-0.076875
2.916667	1	-0.075875
2.933333	1	-0.074500
2.950000	1	-0.073375
2.966667	1	-0.071625
2.983333	1	-0.069875
3.000000	1	-0.068125
3.016667	1	-0.066875
3.033333	1	-0.065125
3.050000	1	-0.064375
3.066667	1	-0.062625
3.083333	1	-0.061000
3.100000	1	-0.059750
3.116667	1	-0.058125
3.133333	1	-0.056875
3.150000	1	-0.055625
3.166667	1	-0.054000
3.183333	1	-0.052250
3.200000	1	-0.050375
3.216667	1	-0.048125
3.233333	1	-0.045625
3.250000	1	-0.044625
3.266667	1	-0.042750
3.283333	1	-0.041000
3.300000	1	-0.039375
3.316667	1	-0.037875
3.333333	1	-0.036375
3.350000	1	-0.034750
3.366667	1	-0.033375
3.383333	1	-0.031375
3.400000	1	-0.029500
3.416667	1	-0.027500
3.433333	1	-0.025750
3.450000	1	-0.023375
3.466667	1	-0.021625
3.483333	1	-0.019875
3.500000	1	-0.018000
3.516667	1	-0.016375
3.533333	1	-0.014875
3.550000	1	-0.013125
3.566667	1	-0.011500
3.583333	1	-0.009875
3.600000	1	-0.008625
3.616667	1	-0.006875
3.633333	1	-0.005500
3.650000	1	-0.003875
3.666667	1	-0.002625
3.683333	1	-0.001500
3.700000	1	-0.000250
3.716667	1	0.000750
3.733333	1	0.001625
3.750000	1	0.002625
3.766667	1	0.003250
3.783333	1	0.004125
3.800000	1	0.004750
3.816667	1	0.005500
3.833333	1	0.006375
3.850000	1	0.007250
3.866667	1	0.007500
3.883333	1	0.008250
3.900000	1	0.008625
3.916667	1	0.009750
3.933333	1	0.010750
3.950000	1	0.011375
3.966667	1	0.011875
3.983333	1	0.012000
4.000000	1	0.012875
4.016667	1	0.013500
4.033333	1	0.014500
4.050000	1	0.015500
4.066667	1	0.016375
4.083333	1	0.016875
4.100000	1	0.017500
4.116667	1	0.018125
4.133333	1	0.019000
4.150000	1	0.014375
4.166667	1	0.020500
4.183333	1	0.020875
4.200000	1	0.021250
4.216667	1	0.021750
4.233333	1	0.023000
4.250000	1	0.023750
4.266667	1	0.024250
4.283333	1	0.025125
4.300000	1	0.025875
4.316667	1	0.026750
4.333333	1	0.027000
4.350000	1	0.026750
4.366667	1	0.026875
4.383333	1	0.026625
4.400000	1	0.027500
4.416667	1	0.028125
4.433333	1	0.027375
4.450000	1	0.027500
4.466667	1	0.027250
4.483333	1	0.027625
4.500000	1	0.027625
4.516667	1	0.027625
4.533333	1	0.027500
4.550000	1	0.027125
4.566667	1	0.026875
4.583333	1	0.026125
4.600000	1	0.026000
4.616667	1	0.025500
4.633333	1	0.024750
4.650000	1	0.024875
4.666667	1	0.024625
4.683333	1	0.024500
4.700000	1	0.024250
4.716667	1	0.023750
4.733333	1	0.023750
4.750000	1	0.023750
4.766667	1	0.023250
4.783333	1	0.022625
4.800000	1	0.022250
4.816667	1	0.022500
4.833333	1	0.022125
4.850000	1	0.021500
4.866667	1	0.021750
4.883333	1	0.021125
4.900000	1	0.021000
4.916667	1	0.020125
4.933333	1	0.019250
4.950000	1	0.018875
4.966667	1	0.018500
4.983333	1	0.018500
5.000000	1	0.018250
5.016667	1	0.018125
5.033333	1	0.017000
5.050000	1	0.016125
5.066667	1	0.015750
5.083333	1	0.015375
5.100000	1	0.015250
5.116667	1	0.014750
5.133333	1	0.014500
5.150000	1	0.014000
5.166667	1	0.013125
5.183333	1	0.012875
5.200000	1	0.012500
5.216667	1	0.012750
5.233333	1	0.012750
5.250000	1	0.012250
5.266667	1	0.011875
5.283333	1	0.011875
5.300000	1	0.011875
5.316667	1	0.011875
5.333333	1	0.011500
5.350000	1	0.011250
5.366667	1	0.011625
5.383333	1	0.012250
5.400000	1	0.012000
5.416667	1	0.012875
5.433333	1	0.013375
5.450000	1	0.013500
5.466667	1	0.014125
5.483333	1	0.014500
5.500000	1	0.015750
5.516667	1	0.016250
5.533333	1	0.017000
5.550000	1	0.017750
5.566667	1	0.018250
5.583333	1	0.019250
5.600000	1	0.019875
5.616667	1	0.021625
5.633333	1	0.023000
5.650000	1	0.025250
5.666667	1	0.026875
5.683333	1	0.028250
5.700000	1	0.030125
5.716667	1	0.032250
5.733333	1	0.034125
5.750000	1	0.035750
5.766667	1	0.037750
5.783333	1	0.039875
5.800000	1	0.042250
5.816667	1	0.045125
5.833333	1	0.047750
5.850000	1	0.050125
5.866667	1	0.052000
5.883333	1	0.054625
5.900000	1	0.056750
5.916667	1	0.059125
5.933333	1	0.061375
5.950000	1	0.063375
5.966667	1	0.065875
5.983333	1	0.067500
6.000000	1	0.069875
6.016667	1	0.071750
6.033333	1	0.073625
6.050000	1	0.074875
6.066667	1	0.077000
6.083333	1	0.078875
6.100000	1	0.080875
6.116667	1	0.083000
6.133333	1	0.084375
6.150000	1	0.085750
6.166667	1	0.087375
6.183333	1	0.089000
6.200000	1	0.090375
6.216667	1	0.091500
6.233333	1	0.092875
6.250000	1	0.093750
6.266667	1	0.095250
6.283333	1	0.096375
6.300000	1	0.096875
6.316667	1	0.098125
6.333333	1	0.098875
6.350000	1	0.100250
6.366667	1	0.100875
6.383333	1	0.101625
6.400000	1	0.102625
6.416667	1	0.103250
6.433333	1	0.104500
6.450000	1	0.104625
6.466667	1	0.105250
6.483333	1	0.105500
6.500000	1	0.105875
6.516667	1	0.106500
6.533333	1	0.107125
6.550000	1	0.107500
6.566667	1	0.107875
6.583333	1	0.108375
6.600000	1	0.108875
6.616667	1	0.108750
6.633333	1	0.108500
6.650000	1	0.108125
6.666667	1	0.108250
6.683333	1	0.108375
6.700000	1	0.108250
6.716667	1	0.107625
6.733333	1	0.107625
6.750000	1	0.107000
6.766667	1	0.106500
6.783333	1	0.106500
6.800000	1	0.106000
6.816667	1	0.105750
6.833333	1	0.105125
6.850000	1	0.104750
6.866667	1	0.104875
6.883333	1	0.104250
6.900000	1	0.103375
6.916667	1	0.102625
6.933333	1	0.102500
6.950000	1	0.103000
6.966667	1	0.102875
6.983333	1	0.103000
7.000000	1	0.103125
7.016667	1	0.103500
7.033333	1	0.104000
7.050000	1	0.104375
7.066667	1	0.105000
7.083333	1	0.105500
7.100000	1	0.106000
7.116667	1	0.107500
7.133333	1	0.108250
7.150000	1	0.109250
7.166667	1	0.110750
7.183333	1	0.111875
7.200000	1	0.113250
7.216667	1	0.114250
7.233333	1	0.116125
7.250000	1	0.118500
7.266667	1	0.120125
7.283333	1	0.122125
7.300000	1	0.124375
7.316667	1	0.125125
7.333333	1	0.127125
7.350000	1	0.128750
7.366667	1	0.129875
7.383333	1	0.131250
7.400000	1	0.133250
7.416667	1	0.135375
7.433333	1	0.137000
7.450000	1	0.138875
7.466667	1	0.140375
7.483333	1	0.142500
7.500000	1	0.144375
7.516667	1	0.146125
7.533333	1	0.147500
7.550000	1	0.148750
7.566667	1	0.149750
7.583333	1	0.151250
7.600000	1	0.152375
7.616667	1	0.153500
7.633333	1	0.155250
7.650000	1	0.156375
7.666667	1	0.157250
7.683333	1	0.158500
7.700000	1	0.159125
7.716667	1	0.159875
7.733333	1	0.160375
7.750000	1	0.160250
7.766667	1	0.160375
7.783333	1	0.161500
7.800000	1	0.162750
7.816667	1	0.163250
7.833333	1	0.164000
7.850000	1	0.164750
7.866667	1	0.164375
7.883333	1	0.164500
7.900000	1	0.164500
7.916667	1	0.164375
7.933333	1	0.163750
7.950000	1	0.164000
7.966667	1	0.164500
7.983333	1	0.164375
8.000000	1	0.164625
8.016667	1	0.164000
8.033333	1	0.164000
8.050000	1	0.163250
8.066667	1	0.163375
8.083333	1	0.162375
8.100000	1	0.161875
8.116667	1	0.160375
8.133333	1	0.160250
8.150000	1	0.159000
8.166667	1	0.157500
8.183333	1	0.155750
8.200000	1	0.154375
8.216667	1	0.152750
8.233333	1	0.151125
8.250000	1	0.149250
8.266667	1	0.146875
8.283333	1	0.145000
8.300000	1	0.143250
8.316667	1	0.141000
8.333333	1	0.138750
8.350000	1	0.136625
8.366667	1	0.135000
8.383333	1	0.131750
8.400000	1	0.129750
8.416667	1	0.127500
8.433333	1	0.125375
8.450000	1	0.123500
8.466667	1	0.121000
8.483333	1	0.119125
8.500000	1	0.117000
8.516667	1	0.115000
8.533333	1	0.113625
8.550000	1	0.111625
8.566667	1	0.109500
8.583333	1	0.107000
8.600000	1	0.105625
8.616667	1	0.104125
8.633333	1	0.102625
8.650000	1	0.101500
8.666667	1	0.099125
8.683333	1	0.097625
8.700000	1	0.097375
8.716667	1	0.095500
8.733333	1	0.094125
8.750000	1	0.093250
8.766667	1	0.092875
8.783333	1	0.091375
8.800000	1	0.090375
8.816667	1	0.089750
8.833333	1	0.089250
8.850000	1	0.088625
8.866667	1	0.088125
8.883333	1	0.087750
8.900000	1	0.088125
8.916667	1	0.087750
8.933333	1	0.088250
8.950000	1	0.087625
8.966667	1	0.087875
8.983333	1	0.088500
9.000000	1	0.089000
9.016667	1	0.089250
9.033333	1	0.089625
9.050000	1	0.090625
9.066667	1	0.091125
9.083333	1	0.092500
9.100000	1	0.093875
9.116667	1	0.095500
9.133333	1	0.096375
9.150000	1	0.097500
9.166667	1	0.099750
9.183333	1	0.100875
9.200000	1	0.102375
9.216667	1	0.104375
9.233333	1	0.106500
9.250000	1	0.107875
9.266667	1	0.109625
9.283333	1	0.111750
9.300000	1	0.114125
9.316667	1	0.116500
9.333333	1	0.118625
9.350000	1	0.121125
9.366667	1	0.124000
9.383333	1	0.127000
9.400000	1	0.129500
9.416667	1	0.131875
9.433333	1	0.135125
9.450000	1	0.137500
9.466667	1	0.140625
9.483333	1	0.144250
9.500000	1	0.147875
9.516667	1	0.151875
9.533333	1	0.155875
9.550000	1	0.160000
9.566667	1	0.164625
9.583333	1	0.169000
9.600000	1	0.174375
9.616667	1	0.179500
9.633333	1	0.185250
9.650000	1	0.191625
9.666667	1	0.198875
9.683333	1	0.206750
9.700000	1	0.215500
9.716667	1	0.225375
9.733333	1	0.236500
9.750000	1	0.249000
9.766667	1	0.263750
9.783333	1	0.280875
9.800000	1	0.301125
9.816667	1	0.323625
9.833333	1	0.349500
9.850000	1	0.377875
9.866667	1	0.410250
9.883333	1	0.446500
9.900000	1	0.486250
9.916667	1	0.528375
9.933333	1	0.573875
9.950000	1	0.622125
9.966667	1	0.674125
9.983333	1	0.729625
10.000000	1	0.790625
10.016667	1	0.856000
10.033333	1	0.924750
10.050000	1	0.992125
10.066667	1	1.051625
10.083333	1	1.094750
10.100000	1	1.115000
10.116667	1	1.107750
10.133333	1	1.077125
10.150000	1	1.032500
10.166667	1	0.993000
10.183333	1	0.981000
10.200000	1	1.026750
10.216667	1	1.165000
10.233333	1	1.434250
10.250000	1	1.875625
10.266667	1	2.532625
10.283333	1	3.451000
10.300000	1	4.676750
10.316667	1	6.254250
10.333333	1	8.227250
10.350000	1	10.635125
10.366667	1	13.513000
10.383333	1	16.891250
10.400000	1	20.799250
10.416667	1	25.255500
10.433333	1	30.269875
10.450000	1	35.834500
10.466667	1	41.937625
10.483333	1	48.538375
10.500000	1	55.570375
10.516667	1	62.925500
10.533333	1	70.450000
10.550000	1	77.952250
10.566667	1	85.205125
10.583333	1	91.970125
10.600000	1	98.003875
10.616667	1	103.078375
10.633333	1	106.992250
10.650000	1	109.586375
10.666667	1	110.741500
10.683333	1	110.379875
10.700000	1	108.473625
10.716667	1	105.062250
10.733333	1	100.266625
10.750000	1	94.288625
10.766667	1	87.398875
10.783333	1	79.898875
10.800000	1	72.100000
10.816667	1	64.294125
10.833333	1	56.740750
10.850000	1	49.642250
10.866667	1	43.144625
10.883333	1	37.338750
10.900000	1	32.265125
10.916667	1	27.920625
10.933333	1	24.267125
10.950000	1	21.239500
10.966667	1	18.760875
10.983333	1	16.748125
11.000000	1	15.121750
11.016667	1	13.806125
11.033333	1	12.739375
11.050000	1	11.866250
11.066667	1	11.141625
11.083333	1	10.528375
11.100000	1	9.999375
11.116667	1	9.532250
11.133333	1	9.111000
11.150000	1	8.722625
11.166667	1	8.358750
11.183333	1	8.012250
11.200000	1	7.679750
11.216667	1	7.359750
11.233333	1	7.051125
11.250000	1	6.752125
11.266667	1	6.463375
11.283333	1	6.186000
11.300000	1	5.920125
11.316667	1	5.667000
11.333333	1	5.426875
11.350000	1	5.202250
11.366667	1	4.993375
11.383333	1	4.800750
11.400000	1	4.626500
11.416667	1	4.471875
11.433333	1	4.336125
11.450000	1	4.218375
11.466667	1	4.118625
11.483333	1	4.034625
11.500000	1	3.965000
11.516667	1	3.905500
11.533333	1	3.854250
11.550000	1	3.809125
11.566667	1	3.768000
11.583333	1	3.729875
11.600000	1	3.692500
11.616667	1	3.655750
11.633333	1	3.620250
11.650000	1	3.585250
11.666667	1	3.550875
11.683333	1	3.516750
11.700000	1	3.484250
11.716667	1	3.451875
11.733333	1	3.419375
11.750000	1	3.385875
11.766667	1	3.351125
11.783333	1	3.315250
11.800000	1	3.276500
11.816667	1	3.236500
11.833333	1	3.195250
11.850000	1	3.152000
11.866667	1	3.108875
11.883333	1	3.065750
11.900000	1	3.022750
11.916667	1	2.980750
11.933333	1	2.939000
11.950000	1	2.898000
11.966667	1	2.857875
11.983333	1	2.818875
12.000000	1	2.780125
12.016667	1	2.742625
12.033333	1	2.705500
12.050000	1	2.668625
12.066667	1	2.632375
12.083333	1	2.597125
12.100000	1	2.562625
12.116667	1	2.528000
12.133333	1	2.494250
12.150000	1	2.462500
12.166667	1	2.431000
12.183333	1	2.400500
12.200000	1	2.372125
12.216667	1	2.344500
12.233333	1	2.319125
12.250000	1	2.296125
12.266667	1	2.275375
12.283333	1	2.257000
12.300000	1	2.241875
12.316667	1	2.229500
12.333333	1	2.221375
12.350000	1	2.218625
12.366667	1	2.222625
12.383333	1	2.233625
12.400000	1	2.253875
12.416667	1	2.283875
12.433333	1	2.326875
12.450000	1	2.385375
12.466667	1	2.461125
12.483333	1	2.557625
12.500000	1	2.678375
12.516667	1	2.828375
12.533333	1	3.013250
12.550000	1	3.234750
12.566667	1	3.497500
12.583333	1	3.804375
12.600000	1	4.157125
12.616667	1	4.554125
12.633333	1	4.993625
12.650000	1	5.470250
12.666667	1	5.981625
12.683333	1	6.521250
12.700000	1	7.082250
12.716667	1	7.658250
12.733333	1	8.244875
12.750000	1	8.836125
12.766667	1	9.430500
12.783333	1	10.025750
12.800000	1	10.620625
12.816667	1	11.214625
12.833333	1	11.809000
12.850000	1	12.405750
12.866667	1	13.005250
12.883333	1	13.607875
12.900000	1	14.212000
12.916667	1	14.816000
12.933333	1	15.416125
12.950000	1	16.006375
12.966667	1	16.578250
12.983333	1	17.124500
13.000000	1	17.636250
13.016667	1	18.105375
13.033333	1	18.524500
13.050000	1	18.888125
13.066667	1	19.190375
13.083333	1	19.427750
13.100000	1	19.597750
13.116667	1	19.700125
13.133333	1	19.735000
13.150000	1	19.705000
13.166667	1	19.614375
13.183333	1	19.467625
13.200000	1	19.269000
13.216667	1	19.024375
13.233333	1	18.739625
13.250000	1	18.419375
13.266667	1	18.069375
13.283333	1	17.694000
13.300000	1	17.299625
13.316667	1	16.889250
13.333333	1	16.467500
13.350000	1	16.038000
13.366667	1	15.602625
13.383333	1	15.164375
13.400000	1	14.725625
13.416667	1	14.288250
13.433333	1	13.853500
13.450000	1	13.419875
13.466667	1	12.987875
13.483333	1	12.555875
13.500000	1	12.122875
13.516667	1	11.686625
13.533333	1	11.247000
13.550000	1	10.800250
13.566667	1	10.345625
13.583333	1	9.884375
13.600000	1	9.416625
13.616667	1	8.945375
13.633333	1	8.477250
13.650000	1	8.017375
13.666667	1	7.572500
13.683333	1	7.149000
13.700000	1	6.752875
13.716667	1	6.389500
13.733333	1	6.062250
13.750000	1	5.773375
13.766667	1	5.521750
13.783333	1	5.307000
13.800000	1	5.124750
13.816667	1	4.971750
13.833333	1	4.842875
13.850000	1	4.734000
13.866667	1	4.640375
13.883333	1	4.558750
13.900000	1	4.486750
13.916667	1	4.422000
13.933333	1	4.363750
13.950000	1	4.310000
13.966667	1	4.260375
13.983333	1	4.214750
14.000000	1	4.171875
14.016667	1	4.130125
14.033333	1	4.090250
14.050000	1	4.049875
14.066667	1	4.007625
14.083333	1	3.962625
14.100000	1	3.914375
14.116667	1	3.859750
14.133333	1	3.798875
14.150000	1	3.731000
14.166667	1	3.656000
14.183333	1	3.574500
14.200000	1	3.488375
14.216667	1	3.399250
14.233333	1	3.309000
14.250000	1	3.218125
14.266667	1	3.130750
14.283333	1	3.047750
14.300000	1	2.972000
14.316667	1	2.905375
14.333333	1	2.849875
14.350000	1	2.808000
14.366667	1	2.780500
14.383333	1	2.769250
14.400000	1	2.774750
14.416667	1	2.799000
14.433333	1	2.841875
14.450000	1	2.904000
14.466667	1	2.986125
14.483333	1	3.089000
14.500000	1	3.211125
14.516667	1	3.354125
14.533333	1	3.516625
14.550000	1	3.698625
14.566667	1	3.900000
14.583333	1	4.119875
14.600000	1	4.355625
14.616667	1	4.607625
14.633333	1	4.874750
14.650000	1	5.153750
14.666667	1	5.441375
14.683333	1	5.736125
14.700000	1	6.032750
14.716667	1	6.328500
14.733333	1	6.619875
14.750000	1	6.905000
14.766667	1	7.183750
14.783333	1	7.455875
14.800000	1	7.726375
14.816667	1	8.000625
14.833333	1	8.288375
14.850000	1	8.598125
14.866667	1	8.943875
14.883333	1	9.337750
14.900000	1	9.791250
14.916667	1	10.313250
14.933333	1	10.911250
14.950000	1	11.585250
14.966667	1	12.332375
14.983333	1	13.142625
15.000000	1	14.002750
15.016667	1	14.895125
15.033333	1	15.801000
15.050000	1	16.700625
15.066667	1	17.574125
15.083333	1	18.405375
15.100000	1	19.179750
15.116667	1	19.887875
15.133333	1	20.521750
15.150000	1	21.078500
15.166667	1	21.554625
15.183333	1	21.949625
15.200000	1	22.263000
15.216667	1	22.493750
15.233333	1	22.638875
15.250000	1	22.697000
15.266667	1	22.664125
15.283333	1	22.536375
15.300000	1	22.311375
15.316667	1	21.987500
15.333333	1	21.564875
15.350000	1	21.047625
15.366667	1	20.441875
15.383333	1	19.757000
15.400000	1	19.003250
15.416667	1	18.190000
15.433333	1	17.330250
15.450000	1	16.438250
15.466667	1	15.525125
15.483333	1	14.603125
15.500000	1	13.684750
15.516667	1	12.778375
15.533333	1	11.894750
15.550000	1	11.042000
15.566667	1	10.227500
15.583333	1	9.455750
15.600000	1	8.731250
15.616667	1	8.057250
15.633333	1	7.434375
15.650000	1	6.863875
15.666667	1	6.344750
15.683333	1	5.877875
15.700000	1	5.458625
15.716667	1	5.086125
15.733333	1	4.757500
15.750000	1	4.469250
15.766667	1	4.218250
15.783333	1	4.001750
15.800000	1	3.815125
15.816667	1	3.656625
15.833333	1	3.524250
15.850000	1	3.415750
15.866667	1	3.328875
15.883333	1	3.262875
15.900000	1	3.215875
15.916667	1	3.187750
15.933333	1	3.175875
15.950000	1	3.179625
15.966667	1	3.197500
15.983333	1	3.227750
16.000000	1	3.267875
16.016667	1	3.316625
16.033333	1	3.373000
16.050000	1	3.435125
16.066667	1	3.502750
16.083333	1	3.573875
16.100000	1	3.650375
16.116667	1	3.733000
16.133333	1	3.824000
16.150000	1	3.925500
16.166667	1	4.040125
16.183333	1	4.171000
16.200000	1	4.321000
16.216667	1	4.491375
16.233333	1	4.682750
16.250000	1	4.895500
16.266667	1	5.125250
16.283333	1	5.369250
16.300000	1	5.622000
16.316667	1	5.878625
16.333333	1	6.133250
16.350000	1	6.378125
16.366667	1	6.610000
16.383333	1	6.823250
16.400000	1	7.015375
16.416667	1	7.184000
16.433333	1	7.328000
16.450000	1	7.448750
16.466667	1	7.545750
16.483333	1	7.619500
16.500000	1	7.672250
16.516667	1	7.703750
16.533333	1	7.714875
16.550000	1	7.706625
16.566667	1	7.678375
16.583333	1	7.629375
16.600000	1	7.560000
16.616667	1	7.469625
16.633333	1	7.357875
16.650000	1	7.225125
16.666667	1	7.070500
16.683333	1	6.896250
16.700000	1	6.702625
16.716667	1	6.491750
16.733333	1	6.267375
16.750000	1	6.030625
16.766667	1	5.785875
16.783333	1	5.535625
16.800000	1	5.283125
16.816667	1	5.030125
16.833333	1	4.780250
16.850000	1	4.535375
16.866667	1	4.298250
16.883333	1	4.069250
16.900000	1	3.851375
16.916667	1	3.645375
16.933333	1	3.452000
16.950000	1	3.271750
16.966667	1	3.105750
16.983333	1	2.953250
17.000000	1	2.813250
17.016667	1	2.685875
17.033333	1	2.570875
17.050000	1	2.468000
17.066667	1	2.375625
17.083333	1	2.294375
17.100000	1	2.221375
17.116667	1	2.157500
17.133333	1	2.100625
17.150000	1	2.050250
17.166667	1	2.006750
17.183333	1	1.967875
17.200000	1	1.934000
17.216667	1	1.904250
17.233333	1	1.877000
17.250000	1	1.852125
17.266667	1	1.830250
17.283333	1	1.809250
17.300000	1	1.790000
17.316667	1	1.772125
17.333333	1	1.754500
17.350000	1	1.738375
17.366667	1	1.722750
17.383333	1	1.708125
17.400000	1	1.693375
17.416667	1	1.679625
17.433333	1	1.666375
17.450000	1	1.653375
17.466667	1	1.641250
17.483333	1	1.629750
17.500000	1	1.618375
17.516667	1	1.607375
17.533333	1	1.596875
17.550000	1	1.586125
17.566667	1	1.576750
17.583333	1	1.568250
17.600000	1	1.560250
17.616667	1	1.552750
17.633333	1	1.545875
17.650000	1	1.539250
17.666667	1	1.533875
17.683333	1	1.529250
17.700000	1	1.525875
17.716667	1	1.522875
17.733333	1	1.521375
17.750000	1	1.521500
17.766667	1	1.522625
17.783333	1	1.525375
17.800000	1	1.529250
17.816667	1	1.535625
17.833333	1	1.543125
17.850000	1	1.553125
17.866667	1	1.564750
17.883333	1	1.578250
17.900000	1	1.593375
17.916667	1	1.610375
17.933333	1	1.628625
17.950000	1	1.648625
17.966667	1	1.669750
17.983333	1	1.691750
18.000000	1	1.714625
18.016667	1	1.737000
18.033333	1	1.759750
18.050000	1	1.783375
18.066667	1	1.806125
18.083333	1	1.828375
18.100000	1	1.850125
18.116667	1	1.871000
18.133333	1	1.891500
18.150000	1	1.910625
18.166667	1	1.928375
18.183333	1	1.945250
18.200000	1	1.960625
18.216667	1	1.974250
18.233333	1	1.986125
18.250000	1	1.995750
18.266667	1	2.004250
18.283333	1	2.009375
18.300000	1	2.012500
18.316667	1	2.013250
18.333333	1	2.011500
18.350000	1	2.008000
18.366667	1	2.002250
18.383333	1	1.994000
18.400000	1	1.984125
18.416667	1	1.972000
18.433333	1	1.958750
18.450000	1	1.944500
18.466667	1	1.928125
18.483333	1	1.910875
18.500000	1	1.892375
18.516667	1	1.873000
18.533333	1	1.853125
18.550000	1	1.833000
18.566667	1	1.811500
18.583333	1	1.790375
18.600000	1	1.769000
18.616667	1	1.747000
18.633333	1	1.725250
18.650000	1	1.702500
18.666667	1	1.679250
18.683333	1	1.656875
18.700000	1	1.633750
18.716667	1	1.611375
18.733333	1	1.588750
18.750000	1	1.566875
18.766667	1	1.544250
18.783333	1	1.522750
18.800000	1	1.501750
18.816667	1	1.480875
18.833333	1	1.461000
18.850000	1	1.441375
18.866667	1	1.423625
18.883333	1	1.406000
18.900000	1	1.388625
18.916667	1	1.372000
18.933333	1	1.355875
18.950000	1	1.340875
18.966667	1	1.325750
18.983333	1	1.311625
19.000000	1	1.297500
19.016667	1	1.284125
19.033333	1	1.271000
19.050000	1	1.259625
19.066667	1	1.248750
19.083333	1	1.238750
19.100000	1	1.229875
19.116667	1	1.223625
19.133333	1	1.218625
19.150000	1	1.215500
19.166667	1	1.215500
19.183333	1	1.218125
19.200000	1	1.223375
19.216667	1	1.231625
19.233333	1	1.243125
19.250000	1	1.258250
19.266667	1	1.276375
19.283333	1	1.296875
19.300000	1	1.321000
19.316667	1	1.347500
19.333333	1	1.376250
19.350000	1	1.407125
19.366667	1	1.439125
19.383333	1	1.472125
19.400000	1	1.505750
19.416667	1	1.539750
19.433333	1	1.573375
19.450000	1	1.606000
19.466667	1	1.638000
19.483333	1	1.668625
19.500000	1	1.697500
19.516667	1	1.724125
19.533333	1	1.749625
19.550000	1	1.773250
19.566667	1	1.794250
19.583333	1	1.813000
19.600000	1	1.829625
19.616667	1	1.843375
19.633333	1	1.854250
19.650000	1	1.862750
19.666667	1	1.868750
19.683333	1	1.871250
19.700000	1	1.870750
19.716667	1	1.866875
19.733333	1	1.859625
19.750000	1	1.849375
19.766667	1	1.836625
19.783333	1	1.820250
19.800000	1	1.801875
19.816667	1	1.780875
19.833333	1	1.757375
19.850000	1	1.732250
19.866667	1	1.705375
19.883333	1	1.676750
19.900000	1	1.647500
19.916667	1	1.618750
19.933333	1	1.590125
19.950000	1	1.562125
19.966667	1	1.535375
19.983333	1	1.510250
20.000000	1	1.485750
20.016667	1	1.463875
20.033333	1	1.443625
20.050000	1	1.425750
20.066667	1	1.410500
20.083333	1	1.397000
20.100000	1	1.386125
20.116667	1	1.377125
20.133333	1	1.370000
20.150000	1	1.364625
20.166667	1	1.361375
20.183333	1	1.359500
20.200000	1	1.359125
20.216667	1	1.360000
20.233333	1	1.362000
20.250000	1	1.364500
20.266667	1	1.369625
20.283333	1	1.374875
20.300000	1	1.381750
20.316667	1	1.389750
20.333333	1	1.399250
20.350000	1	1.409250
20.366667	1	1.422500
20.383333	1	1.437250
20.400000	1	1.454500
20.416667	1	1.472750
20.433333	1	1.492750
20.450000	1	1.515250
20.466667	1	1.540000
20.483333	1	1.566875
20.500000	1	1.595000
20.516667	1	1.624875
20.533333	1	1.655875
20.550000	1	1.688750
20.566667	1	1.721500
20.583333	1	1.754375
20.600000	1	1.787125
20.616667	1	1.818750
20.633333	1	1.849125
20.650000	1	1.877000
20.666667	1	1.903500
20.683333	1	1.927750
20.700000	1	1.949375
20.716667	1	1.968875
20.733333	1	1.986250
20.750000	1	2.002500
20.766667	1	2.016750
20.783333	1	2.028625
20.800000	1	2.039375
20.816667	1	2.049250
20.833333	1	2.058000
20.850000	1	2.065875
20.866667	1	2.072125
20.883333	1	2.078375
20.900000	1	2.083375
20.916667	1	2.087250
20.933333	1	2.090750
20.950000	1	2.093375
20.966667	1	2.094875
20.983333	1	2.094500
21.000000	1	2.093375
21.016667	1	2.089500
21.033333	1	2.085125
21.050000	1	2.077750
21.066667	1	2.067625
21.083333	1	2.055000
21.100000	1	2.040750
21.116667	1	2.024000
21.133333	1	2.006125
21.150000	1	1.986500
21.166667	1	1.964375
21.183333	1	1.941125
21.200000	1	1.916625
21.216667	1	1.892000
21.233333	1	1.867125
21.250000	1	1.841125
21.266667	1	1.816125
21.283333	1	1.791875
21.300000	1	1.767500
21.316667	1	1.744750
21.333333	1	1.722375
21.350000	1	1.700875
21.366667	1	1.679875
21.383333	1	1.658875
21.400000	1	1.637125
21.416667	1	1.615250
21.433333	1	1.591000
21.450000	1	1.566875
21.466667	1	1.541375
21.483333	1	1.514250
21.500000	1	1.485250
21.516667	1	1.453875
21.533333	1	1.421000
21.550000	1	1.386250
21.566667	1	1.350250
21.583333	1	1.313750
21.600000	1	1.276375
21.616667	1	1.237500
21.633333	1	1.198000
21.650000	1	1.158125
21.666667	1	1.119625
21.683333	1	1.081375
21.700000	1	1.044250
21.716667	1	1.008375
21.733333	1	0.973125
21.750000	1	0.939750
21.766667	1	0.908500
21.783333	1	0.878625
21.800000	1	0.850375
21.816667	1	0.825000
21.833333	1	0.801000
21.850000	1	0.779375
21.866667	1	0.759750
21.883333	1	0.741500
21.900000	1	0.725875
21.916667	1	0.712750
21.933333	1	0.701000
21.950000	1	0.691000
21.966667	1	0.681875
21.983333	1	0.675500
22.000000	1	0.671250
22.016667	1	0.668125
22.033333	1	0.666125
22.050000	1	0.666000
22.066667	1	0.666250
22.083333	1	0.667875
22.100000	1	0.671000
22.116667	1	0.674375
22.133333	1	0.677875
22.150000	1	0.682875
22.166667	1	0.688750
22.183333	1	0.694875
22.200000	1	0.700875
22.216667	1	0.706250
22.233333	1	0.711750
22.250000	1	0.717250
22.266667	1	0.722500
22.283333	1	0.727125
22.300000	1	0.731375
22.316667	1	0.735875
22.333333	1	0.739125
22.350000	1	0.742375
22.366667	1	0.745250
22.383333	1	0.746750
22.400000	1	0.749500
22.416667	1	0.750500
22.433333	1	0.751125
22.450000	1	0.750750
22.466667	1	0.750125
22.483333	1	0.748875
22.500000	1	0.746750
22.516667	1	0.744375
22.533333	1	0.741625
22.550000	1	0.738500
22.566667	1	0.734500
22.583333	1	0.730625
22.600000	1	0.725875
22.616667	1	0.721375
22.633333	1	0.716375
22.650000	1	0.712125
22.666667	1	0.707125
22.683333	1	0.702125
22.700000	1	0.697750
22.716667	1	0.693000
22.733333	1	0.689000
22.750000	1	0.685750
22.766667	1	0.683500
22.783333	1	0.681125
22.800000	1	0.679625
22.816667	1	0.678625
22.833333	1	0.678625
22.850000	1	0.679250
22.866667	1	0.680000
22.883333	1	0.681250
22.900000	1	0.683625
22.916667	1	0.686250
22.933333	1	0.689125
22.950000	1	0.692250
22.966667	1	0.695500
22.983333	1	0.698500
23.000000	1	0.701250
23.016667	1	0.703125
23.033333	1	0.705125
23.050000	1	0.706750
23.066667	1	0.708125
23.083333	1	0.709750
23.100000	1	0.711625
23.116667	1	0.711750
23.133333	1	0.710875
23.150000	1	0.710250
23.166667	1	0.709000
23.183333	1	0.707375
23.200000	1	0.704750
23.216667	1	0.701750
23.233333	1	0.698500
23.250000	1	0.694625
23.266667	1	0.690250
23.283333	1	0.685375
23.300000	1	0.679750
23.316667	1	0.673375
23.333333	1	0.666750
23.350000	1	0.660250
23.366667	1	0.652750
23.383333	1	0.644750
23.400000	1	0.636375
23.416667	1	0.628125
23.433333	1	0.618625
23.450000	1	0.610125
23.466667	1	0.601625
23.483333	1	0.592250
23.500000	1	0.583000
23.516667	1	0.574000
23.533333	1	0.564500
23.550000	1	0.555500
23.566667	1	0.546875
23.583333	1	0.538250
23.600000	1	0.530000
23.616667	1	0.522375
23.633333	1	0.515500
23.650000	1	0.508250
23.666667	1	0.502000
23.683333	1	0.496250
23.700000	1	0.491500
23.716667	1	0.486875
23.733333	1	0.483875
23.750000	1	0.481750
23.766667	1	0.481375
23.783333	1	0.482625
23.800000	1	0.485500
23.816667	1	0.490375
23.833333	1	0.497750
23.850000	1	0.507500
23.866667	1	0.519750
23.883333	1	0.533875
23.900000	1	0.551375
23.916667	1	0.571250
23.933333	1	0.594250
23.950000	1	0.619375
23.966667	1	0.647250
23.983333	1	0.676250
24.000000	1	0.708250
24.016667	1	0.741750
24.033333	1	0.776375
24.050000	1	0.812000
24.066667	1	0.848500
24.083333	1	0.884750
24.100000	1	0.921250
24.116667	1	0.957750
24.133333	1	0.993250
24.150000	1	1.028625
24.166667	1	1.061625
24.183333	1	1.093875
24.200000	1	1.125125
24.216667	1	1.154000
24.233333	1	1.180625
24.250000	1	1.205750
24.266667	1	1.230000
24.283333	1	1.251500
24.300000	1	1.270625
24.316667	1	1.288000
24.333333	1	1.303375
24.350000	1	1.316250
24.366667	1	1.326875
24.383333	1	1.335125
24.400000	1	1.341000
24.416667	1	1.343750
24.433333	1	1.343375
24.450000	1	1.340625
24.466667	1	1.335250
24.483333	1	1.326375
24.500000	1	1.315500
24.516667	1	1.302375
24.533333	1	1.286625
24.550000	1	1.268750
24.566667	1	1.249250
24.583333	1	1.227750
24.600000	1	1.204500
24.616667	1	1.181000
24.633333	1	1.156500
24.650000	1	1.131875
24.666667	1	1.107500
24.683333	1	1.082375
24.700000	1	1.058750
24.716667	1	1.036000
24.733333	1	1.013500
24.750000	1	0.992875
24.766667	1	0.972750
24.783333	1	0.954875
24.800000	1	0.937375
24.816667	1	0.921625
24.833333	1	0.907000
24.850000	1	0.894250
24.866667	1	0.882875
24.883333	1	0.872250
24.900000	1	0.862625
24.916667	1	0.854500
24.933333	1	0.847125
24.950000	1	0.841375
24.966667	1	0.835000
24.983333	1	0.829250
25.000000	1	0.824000
25.016667	1	0.818500
25.033333	1	0.813625
25.050000	1	0.808000
25.066667	1	0.802125
25.083333	1	0.796625
25.100000	1	0.790375
25.116667	1	0.783625
25.133333	1	0.776000
25.150000	1	0.767625
25.166667	1	0.758875
25.183333	1	0.749500
25.200000	1	0.738625
25.216667	1	0.726750
25.233333	1	0.714250
25.250000	1	0.700875
25.266667	1	0.686625
25.283333	1	0.671625
25.300000	1	0.656500
25.316667	1	0.640500
25.333333	1	0.624250
25.350000	1	0.607500
25.366667	1	0.589625
25.383333	1	0.572875
25.400000	1	0.555625
25.416667	1	0.538500
25.433333	1	0.521250
25.450000	1	0.504625
25.466667	1	0.488625
25.483333	1	0.473625
25.500000	1	0.459000
25.516667	1	0.445125
25.533333	1	0.432125
25.550000	1	0.419875
25.566667	1	0.408000
25.583333	1	0.397250
25.600000	1	0.387000
25.616667	1	0.378500
25.633333	1	0.370250
25.650000	1	0.362750
25.666667	1	0.356625
25.683333	1	0.351250
25.700000	1	0.346750
25.716667	1	0.343375
25.733333	1	0.339875
25.750000	1	0.337250
25.766667	1	0.334750
25.783333	1	0.333500
25.800000	1	0.333125
25.816667	1	0.332500
25.833333	1	0.332500
25.850000	1	0.333125
25.866667	1	0.334375
25.883333	1	0.335500
25.900000	1	0.337000
25.916667	1	0.338625
25.933333	1	0.341125
25.950000	1	0.343625
25.966667	1	0.346500
25.983333	1	0.349750
26.000000	1	0.351750
26.016667	1	0.355500
26.033333	1	0.358000
26.050000	1	0.360750
26.066667	1	0.364000
26.083333	1	0.367375
26.100000	1	0.370500
26.116667	1	0.373250
26.133333	1	0.376000
26.150000	1	0.378750
26.166667	1	0.380875
26.183333	1	0.383750
26.200000	1	0.386000
26.216667	1	0.388500
26.233333	1	0.390875
26.250000	1	0.393750
26.266667	1	0.396500
26.283333	1	0.398375
26.300000	1	0.400750
26.316667	1	0.403250
26.333333	1	0.406375
26.350000	1	0.409125
26.366667	1	0.412000
26.383333	1	0.414875
26.400000	1	0.418375
26.416667	1	0.421250
26.433333	1	0.424500
26.450000	1	0.428000
26.466667	1	0.431750
26.483333	1	0.436375
26.500000	1	0.440625
26.516667	1	0.444750
26.533333	1	0.449250
26.550000	1	0.454500
26.566667	1	0.458375
26.583333	1	0.462625
26.600000	1	0.467875
26.616667	1	0.472375
26.633333	1	0.476500
26.650000	1	0.481000
26.666667	1	0.485375
26.683333	1	0.490125
26.700000	1	0.494000
26.716667	1	0.497750
26.733333	1	0.501250
26.750000	1	0.504375
26.766667	1	0.508000
26.783333	1	0.510375
26.800000	1	0.512000
26.816667	1	0.513875
26.833333	1	0.515500
26.850000	1	0.517000
26.866667	1	0.518250
26.883333	1	0.518375
26.900000	1	0.518625
26.916667	1	0.518625
26.933333	1	0.518250
26.950000	1	0.517625
26.966667	1	0.516000
26.983333	1	0.514625
27.000000	1	0.512000
27.016667	1	0.509875
27.033333	1	0.507625
27.050000	1	0.504875
27.066667	1	0.502125
27.083333	1	0.499000
27.100000	1	0.495875
27.116667	1	0.492625
27.133333	1	0.489125
27.150000	1	0.485375
27.166667	1	0.481750
27.183333	1	0.477750
27.200000	1	0.472750
27.216667	1	0.467875
27.233333	1	0.462625
27.250000	1	0.457500
27.266667	1	0.451750
27.283333	1	0.445125
27.300000	1	0.438625
27.316667	1	0.432000
27.333333	1	0.425875
27.350000	1	0.419250
27.366667	1	0.412375
27.383333	1	0.404375
27.400000	1	0.396500
27.416667	1	0.388750
27.433333	1	0.381375
27.450000	1	0.373750
27.466667	1	0.366375
27.483333	1	0.358625
27.500000	1	0.351000
27.516667	1	0.342875
27.533333	1	0.335750
27.550000	1	0.328875
27.566667	1	0.321875
27.583333	1	0.315125
27.600000	1	0.308625
27.616667	1	0.302750
27.633333	1	0.297375
27.650000	1	0.293750
27.666667	1	0.290500
27.683333	1	0.287250
27.700000	1	0.286500
27.716667	1	0.287000
27.733333	1	0.288250
27.750000	1	0.291500
27.766667	1	0.296625
27.783333	1	0.305125
27.800000	1	0.316500
27.816667	1	0.331000
27.833333	1	0.349125
27.850000	1	0.370500
27.866667	1	0.396250
27.883333	1	0.428250
27.900000	1	0.465125
27.916667	1	0.507375
27.933333	1	0.554875
27.950000	1	0.608875
27.966667	1	0.669750
27.983333	1	0.735750
28.000000	1	0.808875
28.016667	1	0.887000
28.033333	1	0.970625
28.050000	1	1.060000
28.066667	1	1.153625
28.083333	1	1.251875
28.100000	1	1.353250
28.116667	1	1.456625
28.133333	1	1.562375
28.150000	1	1.669250
28.166667	1	1.775625
28.183333	1	1.881625
28.200000	1	1.985750
28.216667	1	2.087875
28.233333	1	2.187375
28.250000	1	2.282500
28.266667	1	2.373625
28.283333	1	2.460125
28.300000	1	2.542125
28.316667	1	2.618750
28.333333	1	2.690500
28.350000	1	2.756750
28.366667	1	2.817125
28.383333	1	2.873000
28.400000	1	2.924500
28.416667	1	2.969875
28.433333	1	3.010875
28.450000	1	3.047125
28.466667	1	3.078625
28.483333	1	3.105125
28.500000	1	3.126500
28.516667	1	3.143375
28.533333	1	3.154500
28.550000	1	3.160625
28.566667	1	3.161125
28.583333	1	3.155750
28.600000	1	3.144875
28.616667	1	3.126250
28.633333	1	3.101125
28.650000	1	3.069000
28.666667	1	3.029125
28.683333	1	2.982875
28.700000	1	2.928875
28.716667	1	2.867750
28.733333	1	2.799125
28.750000	1	2.724500
28.766667	1	2.642500
28.783333	1	2.554750
28.800000	1	2.461625
28.816667	1	2.363500
28.833333	1	2.261375
28.850000	1	2.156000
28.866667	1	2.048000
28.883333	1	1.939250
28.900000	1	1.828000
28.916667	1	1.717500
28.933333	1	1.608125
28.950000	1	1.499500
28.966667	1	1.393375
28.983333	1	1.290875
29.000000	1	1.191625
29.016667	1	1.096250
29.033333	1	1.005375
29.050000	1	0.919375
29.066667	1	0.837250
29.083333	1	0.759875
29.100000	1	0.687500
29.116667	1	0.621750
29.133333	1	0.560375
29.150000	1	0.503750
29.166667	1	0.451750
29.183333	1	0.404125
29.200000	1	0.361125
29.216667	1	0.322625
29.233333	1	0.287500
29.250000	1	0.256250
29.266667	1	0.228375
29.283333	1	0.203125
29.300000	1	0.181500
29.316667	1	0.162750
29.333333	1	0.146125
29.350000	1	0.131500
29.366667	1	0.118875
29.383333	1	0.108625
29.400000	1	0.100500
29.416667	1	0.093500
29.433333	1	0.088125
29.450000	1	0.083875
29.466667	1	0.081000
29.483333	1	0.080500
29.500000	1	0.080875
29.516667	1	0.082500
29.533333	1	0.085125
29.550000	1	0.088250
29.566667	1	0.092250
29.583333	1	0.097000
29.600000	1	0.103000
29.616667	1	0.109875
29.633333	1	0.117125
29.650000	1	0.125625
29.666667	1	0.134875
29.683333	1	0.144625
29.700000	1	0.154375
29.716667	1	0.165875
29.733333	1	0.176875
29.750000	1	0.188625
29.766667	1	0.200875
29.783333	1	0.213375
29.800000	1	0.226625
29.816667	1	0.239875
29.833333	1	0.253125
29.850000	1	0.266125
29.866667	1	0.279750
29.883333	1	0.293125
29.900000	1	0.306500
29.916667	1	0.319625
29.933333	1	0.332625
29.950000	1	0.345125
29.966667	1	0.357500
29.983333	1	0.369125
30.000000	1	0.380750
30.016667	1	0.391875
30.033333	1	0.402500
30.050000	1	0.411875
30.066667	1	0.421375
30.083333	1	0.429750
30.100000	1	0.438750
30.116667	1	0.446500
30.133333	1	0.453875
30.150000	1	0.461125
30.166667	1	0.467500
30.183333	1	0.473625
30.200000	1	0.478375
30.216667	1	0.483500
30.233333	1	0.488000
30.250000	1	0.492750
30.266667	1	0.496375
30.283333	1	0.499625
30.300000	1	0.502625
30.316667	1	0.504875
30.333333	1	0.507375
30.350000	1	0.509375
30.366667	1	0.510875
30.383333	1	0.511625
30.400000	1	0.512625
30.416667	1	0.513375
30.433333	1	0.513625
30.450000	1	0.513375
30.466667	1	0.513250
30.483333	1	0.512375
30.500000	1	0.510500
30.516667	1	0.508375
30.533333	1	0.507125
30.550000	1	0.504500
30.566667	1	0.502125
30.583333	1	0.499875
30.600000	1	0.497000
30.616667	1	0.494125
30.633333	1	0.490750
30.650000	1	0.487875
30.666667	1	0.484375
30.683333	1	0.481625
30.700000	1	0.478375
30.716667	1	0.474625
30.733333	1	0.471500
30.750000	1	0.468875
30.766667	1	0.466000
30.783333	1	0.463625
30.800000	1	0.461375
30.816667	1	0.458875
30.833333	1	0.457000
30.850000	1	0.455625
30.866667	1	0.454625
30.883333	1	0.453875
30.900000	1	0.453375
30.916667	1	0.453500
30.933333	1	0.453625
30.950000	1	0.454625
30.966667	1	0.455375
30.983333	1	0.456750
31.000000	1	0.458125
31.016667	1	0.460000
31.033333	1	0.461625
31.050000	1	0.464000
31.066667	1	0.466250
31.083333	1	0.468625
31.100000	1	0.470750
31.116667	1	0.472500
31.133333	1	0.475000
31.150000	1	0.477250
31.166667	1	0.479750
31.183333	1	0.481750
31.200000	1	0.484250
31.216667	1	0.487000
31.233333	1	0.488750
31.250000	1	0.490750
31.266667	1	0.492625
31.283333	1	0.494500
31.300000	1	0.495500
31.316667	1	0.497125
31.333333	1	0.498625
31.350000	1	0.499875
31.366667	1	0.500875
31.383333	1	0.501875
31.400000	1	0.502500
31.416667	1	0.503875
31.433333	1	0.504750
31.450000	1	0.505250
31.466667	1	0.505750
31.483333	1	0.506125
31.500000	1	0.505875
31.516667	1	0.505375
31.533333	1	0.504750
31.550000	1	0.503250
31.566667	1	0.502000
31.583333	1	0.501000
31.600000	1	0.498875
31.616667	1	0.497125
31.633333	1	0.494875
31.650000	1	0.492000
31.666667	1	0.489000
31.683333	1	0.486375
31.700000	1	0.483125
31.716667	1	0.480125
31.733333	1	0.476375
31.750000	1	0.472750
31.766667	1	0.468750
31.783333	1	0.464875
31.800000	1	0.461000
31.816667	1	0.458000
31.833333	1	0.454625
31.850000	1	0.451875
31.866667	1	0.448875
31.883333	1	0.445250
31.900000	1	0.442500
31.916667	1	0.440750
31.933333	1	0.438500
31.950000	1	0.436750
31.966667	1	0.435625
31.983333	1	0.435250
32.000000	1	0.435000
32.016667	1	0.435875
32.033333	1	0.436750
32.050000	1	0.438125
32.066667	1	0.440625
32.083333	1	0.443250
32.100000	1	0.446875
32.116667	1	0.450500
32.133333	1	0.455250
32.150000	1	0.460250
32.166667	1	0.465500
32.183333	1	0.471500
32.200000	1	0.478750
32.216667	1	0.486500
32.233333	1	0.493500
32.250000	1	0.500625
32.266667	1	0.508625
32.283333	1	0.516625
32.300000	1	0.524750
32.316667	1	0.533000
32.333333	1	0.541125
32.350000	1	0.549125
32.366667	1	0.557125
32.383333	1	0.565875
32.400000	1	0.574375
32.416667	1	0.583375
32.433333	1	0.591500
32.450000	1	0.598500
32.466667	1	0.606500
32.483333	1	0.613625
32.500000	1	0.620500
32.516667	1	0.627500
32.533333	1	0.634125
32.550000	1	0.640250
32.566667	1	0.645875
32.583333	1	0.650250
32.600000	1	0.655125
32.616667	1	0.659500
32.633333	1	0.663000
32.650000	1	0.666000
32.666667	1	0.668750
32.683333	1	0.670375
32.700000	1	0.671625
32.716667	1	0.672125
32.733333	1	0.672375
32.750000	1	0.671750
32.766667	1	0.670375
32.783333	1	0.668250
32.800000	1	0.665875
32.816667	1	0.662750
32.833333	1	0.658750
32.850000	1	0.654625
32.866667	1	0.649625
32.883333	1	0.643625
32.900000	1	0.636750
32.916667	1	0.629875
32.933333	1	0.622500
32.950000	1	0.613375
32.966667	1	0.604750
32.983333	1	0.595750
33.000000	1	0.585750
33.016667	1	0.575750
33.033333	1	0.564875
33.050000	1	0.553500
33.066667	1	0.540750
33.083333	1	0.528125
33.100000	1	0.515000
33.116667	1	0.501625
33.133333	1	0.488250
33.150000	1	0.474875
33.166667	1	0.461000
33.183333	1	0.447375
33.200000	1	0.432875
33.216667	1	0.418375
33.233333	1	0.404375
33.250000	1	0.389625
33.266667	1	0.374875
33.283333	1	0.360500
33.300000	1	0.344750
33.316667	1	0.330250
33.333333	1	0.315750
33.350000	1	0.300750
33.366667	1	0.286625
33.383333	1	0.272250
33.400000	1	0.258875
33.416667	1	0.245125
33.433333	1	0.231500
33.450000	1	0.218625
33.466667	1	0.205875
33.483333	1	0.193625
33.500000	1	0.182500
33.516667	1	0.171250
33.533333	1	0.160000
33.550000	1	0.149875
33.566667	1	0.140375
33.583333	1	0.131000
33.600000	1	0.121250
33.616667	1	0.113000
33.633333	1	0.105250
33.650000	1	0.096875
33.666667	1	0.089500
33.683333	1	0.083875
33.700000	1	0.078000
33.716667	1	0.071875
33.733333	1	0.066875
33.750000	1	0.061875
33.766667	1	0.057500
33.783333	1	0.053375
33.800000	1	0.050000
33.816667	1	0.046625
33.833333	1	0.043250
33.850000	1	0.040500
33.866667	1	0.037875
33.883333	1	0.035625
33.900000	1	0.032625
33.916667	1	0.030500
33.933333	1	0.028625
33.950000	1	0.027375
33.966667	1	0.026375
33.983333	1	0.026000
34.000000	1	0.024625
34.016667	1	0.023625
34.033333	1	0.022875
34.050000	1	0.021750
34.066667	1	0.020750
34.083333	1	0.021250
34.100000	1	0.021875
34.116667	1	0.022750
34.133333	1	0.022625
34.150000	1	0.023125
34.166667	1	0.024125
34.183333	1	0.025250
34.200000	1	0.026500
34.216667	1	0.028125
34.233333	1	0.029375
34.250000	1	0.031250
34.266667	1	0.033250
34.283333	1	0.035500
34.300000	1	0.039125
34.316667	1	0.042750
34.333333	1	0.046625
34.350000	1	0.050750
34.366667	1	0.055000
34.383333	1	0.059125
34.400000	1	0.064125
34.416667	1	0.069125
34.433333	1	0.074375
34.450000	1	0.080500
34.466667	1	0.086500
34.483333	1	0.092625
34.500000	1	0.098750
34.516667	1	0.105250
34.533333	1	0.111875
34.550000	1	0.118375
34.566667	1	0.125375
34.583333	1	0.131875
34.600000	1	0.138250
34.616667	1	0.144875
34.633333	1	0.152000
34.650000	1	0.158375
34.666667	1	0.164375
34.683333	1	0.170500
34.700000	1	0.176500
34.716667	1	0.182625
34.733333	1	0.188875
34.750000	1	0.194500
34.766667	1	0.199250
34.783333	1	0.204250
34.800000	1	0.208875
34.816667	1	0.213375
34.833333	1	0.217125
34.850000	1	0.221000
34.866667	1	0.223750
34.883333	1	0.226500
34.900000	1	0.228750
34.916667	1	0.231250
34.933333	1	0.233125
34.950000	1	0.235000
34.966667	1	0.236375
34.983333	1	0.237375
35.000000	1	0.237875
35.016667	1	0.238125
35.033333	1	0.237875
35.050000	1	0.237750
35.066667	1	0.236500
35.083333	1	0.234750
35.100000	1	0.233250
35.116667	1	0.230875
35.133333	1	0.227875
35.150000	1	0.225000
35.166667	1	0.221000
35.183333	1	0.217125
35.200000	1	0.212625
35.216667	1	0.208250
35.233333	1	0.203375
35.250000	1	0.199250
35.266667	1	0.194000
35.283333	1	0.188750
35.300000	1	0.183250
35.316667	1	0.177125
35.333333	1	0.171375
35.350000	1	0.164750
35.366667	1	0.158125
35.383333	1	0.152000
35.400000	1	0.145375
35.416667	1	0.138750
35.433333	1	0.132625
35.450000	1	0.126375
35.466667	1	0.120625
35.483333	1	0.115375
35.500000	1	0.109250
35.516667	1	0.104125
35.533333	1	0.099125
35.550000	1	0.094625
35.566667	1	0.090250
35.583333	1	0.085875
35.600000	1	0.081250
35.616667	1	0.077250
35.633333	1	0.074250
35.650000	1	0.071000
35.666667	1	0.068500
35.683333	1	0.066000
35.700000	1	0.063250
35.716667	1	0.061375
35.733333	1	0.059750
35.750000	1	0.058250
35.766667	1	0.057125
35.783333	1	0.056250
35.800000	1	0.055750
35.816667	1	0.055250
35.833333	1	0.055000
35.850000	1	0.054250
35.866667	1	0.054750
35.883333	1	0.054750
35.900000	1	0.055250
35.916667	1	0.055625
35.933333	1	0.057250
35.950000	1	0.058500
35.966667	1	0.060125
35.983333	1	0.061875
36.000000	1	0.062625
36.016667	1	0.064875
36.033333	1	0.066750
36.050000	1	0.068250
36.066667	1	0.070375
36.083333	1	0.073000
36.100000	1	0.075625
36.116667	1	0.078250
36.133333	1	0.081125
36.150000	1	0.083750
36.166667	1	0.086500
36.183333	1	0.089750
36.200000	1	0.092625
36.216667	1	0.095875
36.233333	1	0.098500
36.250000	1	0.102125
36.266667	1	0.105125
36.283333	1	0.108750
36.300000	1	0.112875
36.316667	1	0.116250
36.333333	1	0.120250
36.350000	1	0.123750
36.366667	1	0.127375
36.383333	1	0.131500
36.400000	1	0.135375
36.416667	1	0.139875
36.433333	1	0.143625
36.450000	1	0.147625
36.466667	1	0.151250
36.483333	1	0.154250
36.500000	1	0.158000
36.516667	1	0.161000
36.533333	1	0.164750
36.550000	1	0.168500
36.566667	1	0.171500
36.583333	1	0.174875
36.600000	1	0.178125
36.616667	1	0.181375
36.633333	1	0.184625
36.650000	1	0.187375
36.666667	1	0.190000
36.683333	1	0.192750
36.700000	1	0.195625
36.716667	1	0.198750
36.733333	1	0.201000
36.750000	1	0.203250
36.766667	1	0.205500
36.783333	1	0.207625
36.800000	1	0.209625
36.816667	1	0.211875
36.833333	1	0.214625
36.850000	1	0.216875
36.866667	1	0.218375
36.883333	1	0.220375
36.900000	1	0.221875
36.916667	1	0.224000
36.933333	1	0.225750
36.950000	1	0.227375
36.966667	1	0.228625
36.983333	1	0.229750
37.000000	1	0.231125
37.016667	1	0.231750
37.033333	1	0.232500
37.050000	1	0.232500
37.066667	1	0.233000
37.083333	1	0.232875
37.100000	1	0.232375
37.116667	1	0.232125
37.133333	1	0.231375
37.150000	1	0.231125
37.166667	1	0.229750
37.183333	1	0.228125
37.200000	1	0.226125
37.216667	1	0.223500
37.233333	1	0.221000
37.250000	1	0.218375
37.266667	1	0.215500
37.283333	1	0.212625
37.300000	1	0.209250
37.316667	1	0.206000
37.333333	1	0.202375
37.350000	1	0.198750
37.366667	1	0.195125
37.383333	1	0.191375
37.400000	1	0.187125
37.416667	1	0.182125
37.433333	1	0.177250
37.450000	1	0.171750
37.466667	1	0.166875
37.483333	1	0.162250
37.500000	1	0.157750
37.516667	1	0.152875
37.533333	1	0.147625
37.550000	1	0.142625
37.566667	1	0.137000
37.583333	1	0.131750
37.600000	1	0.126875
37.616667	1	0.122000
37.633333	1	0.116875
37.650000	1	0.111375
37.666667	1	0.106125
37.683333	1	0.100750
37.700000	1	0.095750
37.716667	1	0.090250
37.733333	1	0.084750
37.750000	1	0.080250
37.766667	1	0.075000
37.783333	1	0.069750
37.800000	1	0.065125
37.816667	1	0.060125
37.833333	1	0.055375
37.850000	1	0.050500
37.866667	1	0.045250
37.883333	1	0.040375
37.900000	1	0.036000
37.916667	1	0.031125
37.933333	1	0.026500
37.950000	1	0.022625
37.966667	1	0.018875
37.983333	1	0.014625
38.000000	1	0.010375
38.016667	1	0.005875
38.033333	1	0.002500
38.050000	1	-0.001125
38.066667	1	-0.005500
38.083333	1	-0.009000
38.100000	1	-0.012000
38.116667	1	-0.014875
38.133333	1	-0.018375
38.150000	1	-0.021625
38.166667	1	-0.023750
38.183333	1	-0.026125
38.200000	1	-0.027875
38.216667	1	-0.030000
38.233333	1	-0.031875
38.250000	1	-0.033500
38.266667	1	-0.035500
38.283333	1	-0.037375
38.300000	1	-0.038875
38.316667	1	-0.039500
38.333333	1	-0.040875
38.350000	1	-0.042250
38.366667	1	-0.042625
38.383333	1	-0.043750
38.400000	1	-0.044000
38.416667	1	-0.044625
38.433333	1	-0.044250
38.450000	1	-0.044875
38.466667	1	-0.043750
38.483333	1	-0.044125
38.500000	1	-0.044000
38.516667	1	-0.044375
38.533333	1	-0.043750
38.550000	1	-0.043750
38.566667	1	-0.043125
38.583333	1	-0.042750
38.600000	1	-0.043000
38.616667	1	-0.042750
38.633333	1	-0.042500
38.650000	1	-0.042500
38.666667	1	-0.042250
38.683333	1	-0.042000
38.700000	1	-0.042125
38.716667	1	-0.041875
38.733333	1	-0.041625
38.750000	1	-0.041125
38.766667	1	-0.040500
38.783333	1	-0.039875
38.800000	1	-0.040000
38.816667	1	-0.040250
38.833333	1	-0.040250
38.850000	1	-0.040125
38.866667	1	-0.039250
38.883333	1	-0.038875
38.900000	1	-0.038250
38.916667	1	-0.037750
38.933333	1	-0.037625
38.950000	1	-0.037750
38.966667	1	-0.037750
38.983333	1	-0.036750
39.000000	1	-0.035875
39.016667	1	-0.036250
39.033333	1	-0.036250
39.050000	1	-0.036375
39.066667	1	-0.036125
39.083333	1	-0.035625
39.100000	1	-0.035375
39.116667	1	-0.034875
39.133333	1	-0.034750
39.150000	1	-0.034000
39.166667	1	-0.033375
39.183333	1	-0.033000
39.200000	1	-0.032250
39.216667	1	-0.032500
39.233333	1	-0.032750
39.250000	1	-0.032250
39.266667	1	-0.032000
39.283333	1	-0.032000
39.300000	1	-0.031625
39.316667	1	-0.031625
39.333333	1	-0.031500
39.350000	1	-0.030500
39.366667	1	-0.029875
39.383333	1	-0.029625
39.400000	1	-0.029500
39.416667	1	-0.029125
39.433333	1	-0.028625
39.450000	1	-0.028875
39.466667	1	-0.028875
39.483333	1	-0.029000
39.500000	1	-0.028375
39.516667	1	-0.027875
39.533333	1	-0.027875
39.550000	1	-0.027375
39.566667	1	-0.027125
39.583333	1	-0.026375
39.600000	1	-0.025500
39.616667	1	-0.025625
39.633333	1	-0.025125
39.650000	1	-0.025000
39.666667	1	-0.024500
39.683333	1	-0.023750
39.700000	1	-0.022625
39.716667	1	-0.022250
39.733333	1	-0.021750
39.750000	1	-0.021000
39.766667	1	-0.020000
39.783333	1	-0.018750
39.800000	1	-0.018250
39.816667	1	-0.017375
39.833333	1	-0.016750
39.850000	1	-0.015375
39.866667	1	-0.014375
39.883333	1	-0.014125
39.900000	1	-0.013375
39.916667	1	-0.012375
39.933333	1	-0.011125
39.950000	1	-0.010250
39.966667	1	-0.009125
39.983333	1	-0.008000
40.000000	1	-0.006750
