File Path	chrom://marshall/Chromeleon7/HPLC_Ultimate_3000/Users/markusar/20230107.seq/495.smp/RI_1.channel/RI_1.chm
Channel	RI_1

Injection Information:
Data Vault	Chromeleon7
Injection	ri2.1
Injection Number	14
Position	RB6
Comment	
Processing Method	
Instrument Method	std_method
Type	Unknown
Status	Finished
Injection Date	08.01.2023
Injection Time	00:46:41
Injection Volume (µl)	20.000
Dilution Factor	1.0000
Weight	1.0000

Chromatogram Data Information:
Time Min. (min)	0.000000
Time Max. (min)	40.000000
Data Points	2401
Detector	RI
Generating Data System	Chromeleon 7.2.5.9507
Exporting Data System	Chromeleon 7.2.5.0
Operator	Instrument Controller
Signal Quantity	Refractive 
Signal Unit	µRIU
Signal Min.	-0.058750
Signal Max.	110.011750
Channel	RI_1
Driver Name	RID520Driver.dll
Channel Type	Evaluation
Min. Step (s)	1
Max. Step (s)	1
Average Step (s)	1

Signal Parameter Information:
Signal Info	

Chromatogram Data:
Time (min)	Step (s)	Value (µRIU)
0.000000	n.a.	0.136875
0.016667	1	0.138750
0.033333	1	0.140500
0.050000	1	0.142750
0.066667	1	0.145250
0.083333	1	0.146750
0.100000	1	0.148500
0.116667	1	0.150250
0.133333	1	0.152000
0.150000	1	0.153375
0.166667	1	0.154875
0.183333	1	0.155875
0.200000	1	0.156250
0.216667	1	0.157375
0.233333	1	0.159000
0.250000	1	0.160000
0.266667	1	0.161000
0.283333	1	0.161250
0.300000	1	0.161875
0.316667	1	0.162250
0.333333	1	0.161625
0.350000	1	0.161500
0.366667	1	0.161375
0.383333	1	0.161625
0.400000	1	0.160875
0.416667	1	0.161000
0.433333	1	0.160250
0.450000	1	0.159500
0.466667	1	0.158875
0.483333	1	0.158125
0.500000	1	0.156750
0.516667	1	0.155750
0.533333	1	0.155250
0.550000	1	0.154500
0.566667	1	0.153250
0.583333	1	0.152625
0.600000	1	0.151875
0.616667	1	0.151750
0.633333	1	0.151000
0.650000	1	0.151125
0.666667	1	0.151250
0.683333	1	0.150500
0.700000	1	0.149500
0.716667	1	0.148375
0.733333	1	0.147000
0.750000	1	0.145000
0.766667	1	0.143000
0.783333	1	0.142000
0.800000	1	0.139500
0.816667	1	0.136500
0.833333	1	0.134000
0.850000	1	0.131750
0.866667	1	0.129875
0.883333	1	0.127125
0.900000	1	0.124750
0.916667	1	0.123000
0.933333	1	0.121125
0.950000	1	0.119250
0.966667	1	0.117125
0.983333	1	0.115375
1.000000	1	0.113625
1.016667	1	0.111625
1.033333	1	0.108875
1.050000	1	0.107250
1.066667	1	0.105500
1.083333	1	0.103625
1.100000	1	0.101750
1.116667	1	0.100000
1.133333	1	0.098000
1.150000	1	0.096375
1.166667	1	0.095000
1.183333	1	0.093625
1.200000	1	0.091750
1.216667	1	0.090000
1.233333	1	0.088250
1.250000	1	0.085875
1.266667	1	0.083875
1.283333	1	0.081500
1.300000	1	0.079375
1.316667	1	0.077500
1.333333	1	0.075250
1.350000	1	0.073250
1.366667	1	0.071125
1.383333	1	0.069250
1.400000	1	0.067250
1.416667	1	0.065000
1.433333	1	0.062875
1.450000	1	0.060500
1.466667	1	0.058875
1.483333	1	0.057250
1.500000	1	0.054375
1.516667	1	0.051750
1.533333	1	0.050375
1.550000	1	0.047875
1.566667	1	0.045500
1.583333	1	0.043625
1.600000	1	0.042375
1.616667	1	0.041000
1.633333	1	0.039125
1.650000	1	0.037375
1.666667	1	0.035125
1.683333	1	0.032875
1.700000	1	0.030625
1.716667	1	0.029125
1.733333	1	0.026750
1.750000	1	0.025625
1.766667	1	0.024000
1.783333	1	0.021750
1.800000	1	0.019250
1.816667	1	0.017500
1.833333	1	0.016000
1.850000	1	0.014000
1.866667	1	0.011625
1.883333	1	0.009750
1.900000	1	0.007500
1.916667	1	0.005500
1.933333	1	0.003125
1.950000	1	0.000750
1.966667	1	-0.001250
1.983333	1	-0.002750
2.000000	1	-0.005375
2.016667	1	-0.007625
2.033333	1	-0.010250
2.050000	1	-0.012500
2.066667	1	-0.014500
2.083333	1	-0.017000
2.100000	1	-0.019125
2.116667	1	-0.020875
2.133333	1	-0.022375
2.150000	1	-0.024250
2.166667	1	-0.026125
2.183333	1	-0.028000
2.200000	1	-0.029875
2.216667	1	-0.032125
2.233333	1	-0.033750
2.250000	1	-0.035125
2.266667	1	-0.036250
2.283333	1	-0.037625
2.300000	1	-0.039500
2.316667	1	-0.040000
2.333333	1	-0.041250
2.350000	1	-0.042750
2.366667	1	-0.043750
2.383333	1	-0.045375
2.400000	1	-0.046375
2.416667	1	-0.046500
2.433333	1	-0.047250
2.450000	1	-0.048250
2.466667	1	-0.048875
2.483333	1	-0.049250
2.500000	1	-0.049875
2.516667	1	-0.051000
2.533333	1	-0.051625
2.550000	1	-0.052500
2.566667	1	-0.052625
2.583333	1	-0.053125
2.600000	1	-0.053750
2.616667	1	-0.054000
2.633333	1	-0.054625
2.650000	1	-0.055000
2.666667	1	-0.055375
2.683333	1	-0.055625
2.700000	1	-0.056500
2.716667	1	-0.056750
2.733333	1	-0.057375
2.750000	1	-0.057500
2.766667	1	-0.058250
2.783333	1	-0.058625
2.800000	1	-0.058750
2.816667	1	-0.058500
2.833333	1	-0.058250
2.850000	1	-0.058000
2.866667	1	-0.058250
2.883333	1	-0.058000
2.900000	1	-0.057375
2.916667	1	-0.057000
2.933333	1	-0.056875
2.950000	1	-0.056750
2.966667	1	-0.056625
2.983333	1	-0.056500
3.000000	1	-0.055750
3.016667	1	-0.055125
3.033333	1	-0.053750
3.050000	1	-0.052375
3.066667	1	-0.050875
3.083333	1	-0.050125
3.100000	1	-0.049250
3.116667	1	-0.047250
3.133333	1	-0.046125
3.150000	1	-0.045000
3.166667	1	-0.043625
3.183333	1	-0.042625
3.200000	1	-0.041125
3.216667	1	-0.039375
3.233333	1	-0.037625
3.250000	1	-0.035750
3.266667	1	-0.033750
3.283333	1	-0.031500
3.300000	1	-0.029625
3.316667	1	-0.027875
3.333333	1	-0.025125
3.350000	1	-0.023375
3.366667	1	-0.021375
3.383333	1	-0.019000
3.400000	1	-0.017125
3.416667	1	-0.014875
3.433333	1	-0.012125
3.450000	1	-0.010250
3.466667	1	-0.008375
3.483333	1	-0.006875
3.500000	1	-0.004625
3.516667	1	-0.002375
3.533333	1	-0.000625
3.550000	1	0.001000
3.566667	1	0.002500
3.583333	1	0.004125
3.600000	1	0.005500
3.616667	1	0.007375
3.633333	1	0.009375
3.650000	1	0.011250
3.666667	1	0.012750
3.683333	1	0.014500
3.700000	1	0.016125
3.716667	1	0.018000
3.733333	1	0.019750
3.750000	1	0.021125
3.766667	1	0.023125
3.783333	1	0.025250
3.800000	1	0.026625
3.816667	1	0.027375
3.833333	1	0.028625
3.850000	1	0.029625
3.866667	1	0.030250
3.883333	1	0.031250
3.900000	1	0.032875
3.916667	1	0.034000
3.933333	1	0.035250
3.950000	1	0.036125
3.966667	1	0.037250
3.983333	1	0.038000
4.000000	1	0.039000
4.016667	1	0.039875
4.033333	1	0.040750
4.050000	1	0.041375
4.066667	1	0.042000
4.083333	1	0.043250
4.100000	1	0.044000
4.116667	1	0.044375
4.133333	1	0.044875
4.150000	1	0.045750
4.166667	1	0.046625
4.183333	1	0.046625
4.200000	1	0.047250
4.216667	1	0.047750
4.233333	1	0.048125
4.250000	1	0.048375
4.266667	1	0.047750
4.283333	1	0.048125
4.300000	1	0.048375
4.316667	1	0.048750
4.333333	1	0.049000
4.350000	1	0.048875
4.366667	1	0.048750
4.383333	1	0.048875
4.400000	1	0.048500
4.416667	1	0.047875
4.433333	1	0.047750
4.450000	1	0.047750
4.466667	1	0.047375
4.483333	1	0.046125
4.500000	1	0.045750
4.516667	1	0.045625
4.533333	1	0.045125
4.550000	1	0.044250
4.566667	1	0.043625
4.583333	1	0.043000
4.600000	1	0.043125
4.616667	1	0.042750
4.633333	1	0.042875
4.650000	1	0.042625
4.666667	1	0.042500
4.683333	1	0.041875
4.700000	1	0.041250
4.716667	1	0.041625
4.733333	1	0.040875
4.750000	1	0.040000
4.766667	1	0.039875
4.783333	1	0.039875
4.800000	1	0.039875
4.816667	1	0.040375
4.833333	1	0.040125
4.850000	1	0.040250
4.866667	1	0.039500
4.883333	1	0.038875
4.900000	1	0.038750
4.916667	1	0.038500
4.933333	1	0.038125
4.950000	1	0.038375
4.966667	1	0.038250
4.983333	1	0.038125
5.000000	1	0.038875
5.016667	1	0.038250
5.033333	1	0.038125
5.050000	1	0.037750
5.066667	1	0.038500
5.083333	1	0.037625
5.100000	1	0.038125
5.116667	1	0.037875
5.133333	1	0.038625
5.150000	1	0.039125
5.166667	1	0.037750
5.183333	1	0.037750
5.200000	1	0.037625
5.216667	1	0.038125
5.233333	1	0.038500
5.250000	1	0.038750
5.266667	1	0.039125
5.283333	1	0.039250
5.300000	1	0.039000
5.316667	1	0.038750
5.333333	1	0.038750
5.350000	1	0.039125
5.366667	1	0.039125
5.383333	1	0.039875
5.400000	1	0.040000
5.416667	1	0.040625
5.433333	1	0.040875
5.450000	1	0.041375
5.466667	1	0.042000
5.483333	1	0.042625
5.500000	1	0.043750
5.516667	1	0.044500
5.533333	1	0.045500
5.550000	1	0.046125
5.566667	1	0.047250
5.583333	1	0.048000
5.600000	1	0.050125
5.616667	1	0.051375
5.633333	1	0.053125
5.650000	1	0.054125
5.666667	1	0.055750
5.683333	1	0.057000
5.700000	1	0.059000
5.716667	1	0.060125
5.733333	1	0.061875
5.750000	1	0.063750
5.766667	1	0.065625
5.783333	1	0.067500
5.800000	1	0.070000
5.816667	1	0.072500
5.833333	1	0.074500
5.850000	1	0.076375
5.866667	1	0.078375
5.883333	1	0.080125
5.900000	1	0.082000
5.916667	1	0.084125
5.933333	1	0.086625
5.950000	1	0.088750
5.966667	1	0.091000
5.983333	1	0.093375
6.000000	1	0.096125
6.016667	1	0.098750
6.033333	1	0.100500
6.050000	1	0.102875
6.066667	1	0.104750
6.083333	1	0.106875
6.100000	1	0.108875
6.116667	1	0.110750
6.133333	1	0.112500
6.150000	1	0.114875
6.166667	1	0.117750
6.183333	1	0.120000
6.200000	1	0.122500
6.216667	1	0.125125
6.233333	1	0.127625
6.250000	1	0.129875
6.266667	1	0.131875
6.283333	1	0.134250
6.300000	1	0.136125
6.316667	1	0.137000
6.333333	1	0.138250
6.350000	1	0.140875
6.366667	1	0.142875
6.383333	1	0.144500
6.400000	1	0.146125
6.416667	1	0.147125
6.433333	1	0.148375
6.450000	1	0.150000
6.466667	1	0.151125
6.483333	1	0.151500
6.500000	1	0.152000
6.516667	1	0.152500
6.533333	1	0.153375
6.550000	1	0.153625
6.566667	1	0.154250
6.583333	1	0.154750
6.600000	1	0.155250
6.616667	1	0.155625
6.633333	1	0.155750
6.650000	1	0.155750
6.666667	1	0.155875
6.683333	1	0.155875
6.700000	1	0.155500
6.716667	1	0.155500
6.733333	1	0.155500
6.750000	1	0.155125
6.766667	1	0.154750
6.783333	1	0.154125
6.800000	1	0.153500
6.816667	1	0.153125
6.833333	1	0.152750
6.850000	1	0.152750
6.866667	1	0.152375
6.883333	1	0.152125
6.900000	1	0.152500
6.916667	1	0.152375
6.933333	1	0.151875
6.950000	1	0.151875
6.966667	1	0.151500
6.983333	1	0.151125
7.000000	1	0.150750
7.016667	1	0.150375
7.033333	1	0.151000
7.050000	1	0.150375
7.066667	1	0.150625
7.083333	1	0.150625
7.100000	1	0.150875
7.116667	1	0.151000
7.133333	1	0.151625
7.150000	1	0.152500
7.166667	1	0.153125
7.183333	1	0.153750
7.200000	1	0.154250
7.216667	1	0.155375
7.233333	1	0.156125
7.250000	1	0.156750
7.266667	1	0.157125
7.283333	1	0.157375
7.300000	1	0.158000
7.316667	1	0.158375
7.333333	1	0.159750
7.350000	1	0.160875
7.366667	1	0.162250
7.383333	1	0.163375
7.400000	1	0.164875
7.416667	1	0.166250
7.433333	1	0.167625
7.450000	1	0.168875
7.466667	1	0.170000
7.483333	1	0.172000
7.500000	1	0.173625
7.516667	1	0.174625
7.533333	1	0.175625
7.550000	1	0.177000
7.566667	1	0.178375
7.583333	1	0.179750
7.600000	1	0.181875
7.616667	1	0.182875
7.633333	1	0.184375
7.650000	1	0.185250
7.666667	1	0.186500
7.683333	1	0.188625
7.700000	1	0.190375
7.716667	1	0.191250
7.733333	1	0.192625
7.750000	1	0.194000
7.766667	1	0.195625
7.783333	1	0.196750
7.800000	1	0.198000
7.816667	1	0.198875
7.833333	1	0.199375
7.850000	1	0.200875
7.866667	1	0.202875
7.883333	1	0.203500
7.900000	1	0.204750
7.916667	1	0.205375
7.933333	1	0.206500
7.950000	1	0.206625
7.966667	1	0.206250
7.983333	1	0.207250
8.000000	1	0.208250
8.016667	1	0.208375
8.033333	1	0.208750
8.050000	1	0.208375
8.066667	1	0.208250
8.083333	1	0.208125
8.100000	1	0.208250
8.116667	1	0.208500
8.133333	1	0.207375
8.150000	1	0.206375
8.166667	1	0.205875
8.183333	1	0.205875
8.200000	1	0.205750
8.216667	1	0.204250
8.233333	1	0.203000
8.250000	1	0.202000
8.266667	1	0.200750
8.283333	1	0.199625
8.300000	1	0.198500
8.316667	1	0.197625
8.333333	1	0.196250
8.350000	1	0.195250
8.366667	1	0.193375
8.383333	1	0.191875
8.400000	1	0.190375
8.416667	1	0.188875
8.433333	1	0.187750
8.450000	1	0.186625
8.466667	1	0.185000
8.483333	1	0.183500
8.500000	1	0.181500
8.516667	1	0.179875
8.533333	1	0.178250
8.550000	1	0.176375
8.566667	1	0.175000
8.583333	1	0.173875
8.600000	1	0.171750
8.616667	1	0.171375
8.633333	1	0.169500
8.650000	1	0.168125
8.666667	1	0.167125
8.683333	1	0.166125
8.700000	1	0.164875
8.716667	1	0.163750
8.733333	1	0.162375
8.750000	1	0.161625
8.766667	1	0.161125
8.783333	1	0.161125
8.800000	1	0.160375
8.816667	1	0.159250
8.833333	1	0.158250
8.850000	1	0.157125
8.866667	1	0.157125
8.883333	1	0.157375
8.900000	1	0.157875
8.916667	1	0.157875
8.933333	1	0.157875
8.950000	1	0.157500
8.966667	1	0.158000
8.983333	1	0.158000
9.000000	1	0.158875
9.016667	1	0.159500
9.033333	1	0.160250
9.050000	1	0.160875
9.066667	1	0.161500
9.083333	1	0.162375
9.100000	1	0.163375
9.116667	1	0.164250
9.133333	1	0.165375
9.150000	1	0.166750
9.166667	1	0.167875
9.183333	1	0.169250
9.200000	1	0.170375
9.216667	1	0.171750
9.233333	1	0.173000
9.250000	1	0.174750
9.266667	1	0.177125
9.283333	1	0.178625
9.300000	1	0.181125
9.316667	1	0.182875
9.333333	1	0.185000
9.350000	1	0.186875
9.366667	1	0.189500
9.383333	1	0.192625
9.400000	1	0.195250
9.416667	1	0.198125
9.433333	1	0.200875
9.450000	1	0.203625
9.466667	1	0.206125
9.483333	1	0.209125
9.500000	1	0.213250
9.516667	1	0.216750
9.533333	1	0.220500
9.550000	1	0.224375
9.566667	1	0.228750
9.583333	1	0.233375
9.600000	1	0.238000
9.616667	1	0.242750
9.633333	1	0.248875
9.650000	1	0.255125
9.666667	1	0.261750
9.683333	1	0.268750
9.700000	1	0.276375
9.716667	1	0.285125
9.733333	1	0.296250
9.750000	1	0.308000
9.766667	1	0.321250
9.783333	1	0.337500
9.800000	1	0.355750
9.816667	1	0.376625
9.833333	1	0.401125
9.850000	1	0.428500
9.866667	1	0.459250
9.883333	1	0.493625
9.900000	1	0.531750
9.916667	1	0.573375
9.933333	1	0.619375
9.950000	1	0.667875
9.966667	1	0.720125
9.983333	1	0.775750
10.000000	1	0.836375
10.016667	1	0.902000
10.033333	1	0.971125
10.050000	1	1.040500
10.066667	1	1.105000
10.083333	1	1.155625
10.100000	1	1.185375
10.116667	1	1.189000
10.133333	1	1.168750
10.150000	1	1.132250
10.166667	1	1.096375
10.183333	1	1.081500
10.200000	1	1.117750
10.216667	1	1.237625
10.233333	1	1.479375
10.250000	1	1.882375
10.266667	1	2.491250
10.283333	1	3.351000
10.300000	1	4.506500
10.316667	1	6.004625
10.333333	1	7.888125
10.350000	1	10.197625
10.366667	1	12.968625
10.383333	1	16.232375
10.400000	1	20.017625
10.416667	1	24.346000
10.433333	1	29.227125
10.450000	1	34.654875
10.466667	1	40.619375
10.483333	1	47.083000
10.500000	1	53.983125
10.516667	1	61.216125
10.533333	1	68.640250
10.550000	1	76.072500
10.566667	1	83.297875
10.583333	1	90.084750
10.600000	1	96.201625
10.616667	1	101.425500
10.633333	1	105.558625
10.650000	1	108.440625
10.666667	1	109.953125
10.683333	1	110.011750
10.700000	1	108.579125
10.716667	1	105.669500
10.733333	1	101.369875
10.750000	1	95.845000
10.766667	1	89.334000
10.783333	1	82.117375
10.800000	1	74.497125
10.816667	1	66.767125
10.833333	1	59.193375
10.850000	1	51.998250
10.866667	1	45.341375
10.883333	1	39.335625
10.900000	1	34.037750
10.916667	1	29.463000
10.933333	1	25.583000
10.950000	1	22.345250
10.966667	1	19.678125
10.983333	1	17.502875
11.000000	1	15.738625
11.016667	1	14.310625
11.033333	1	13.152250
11.050000	1	12.206875
11.066667	1	11.426000
11.083333	1	10.770500
11.100000	1	10.210375
11.116667	1	9.719875
11.133333	1	9.280750
11.150000	1	8.879500
11.166667	1	8.505000
11.183333	1	8.150375
11.200000	1	7.812250
11.216667	1	7.486375
11.233333	1	7.172500
11.250000	1	6.868625
11.266667	1	6.575750
11.283333	1	6.293625
11.300000	1	6.023625
11.316667	1	5.766000
11.333333	1	5.521500
11.350000	1	5.291000
11.366667	1	5.076125
11.383333	1	4.877750
11.400000	1	4.697750
11.416667	1	4.535750
11.433333	1	4.392625
11.450000	1	4.268500
11.466667	1	4.163375
11.483333	1	4.074000
11.500000	1	3.998875
11.516667	1	3.935125
11.533333	1	3.879750
11.550000	1	3.831625
11.566667	1	3.788875
11.583333	1	3.748125
11.600000	1	3.709125
11.616667	1	3.671250
11.633333	1	3.634500
11.650000	1	3.598250
11.666667	1	3.563125
11.683333	1	3.529375
11.700000	1	3.495750
11.716667	1	3.462750
11.733333	1	3.429375
11.750000	1	3.395125
11.766667	1	3.359875
11.783333	1	3.323125
11.800000	1	3.284375
11.816667	1	3.244250
11.833333	1	3.202750
11.850000	1	3.160375
11.866667	1	3.117250
11.883333	1	3.074250
11.900000	1	3.031250
11.916667	1	2.988000
11.933333	1	2.946000
11.950000	1	2.904500
11.966667	1	2.864375
11.983333	1	2.825125
12.000000	1	2.786875
12.016667	1	2.749375
12.033333	1	2.712375
12.050000	1	2.675875
12.066667	1	2.640250
12.083333	1	2.604750
12.100000	1	2.570250
12.116667	1	2.536000
12.133333	1	2.502500
12.150000	1	2.469875
12.166667	1	2.438375
12.183333	1	2.408375
12.200000	1	2.379500
12.216667	1	2.352500
12.233333	1	2.326375
12.250000	1	2.302875
12.266667	1	2.281500
12.283333	1	2.263500
12.300000	1	2.247375
12.316667	1	2.234375
12.333333	1	2.225375
12.350000	1	2.222500
12.366667	1	2.224875
12.383333	1	2.234750
12.400000	1	2.253625
12.416667	1	2.281750
12.433333	1	2.322250
12.450000	1	2.377250
12.466667	1	2.449250
12.483333	1	2.541375
12.500000	1	2.657750
12.516667	1	2.802250
12.533333	1	2.978625
12.550000	1	3.192375
12.566667	1	3.446875
12.583333	1	3.745000
12.600000	1	4.087625
12.616667	1	4.475000
12.633333	1	4.904500
12.650000	1	5.374000
12.666667	1	5.878375
12.683333	1	6.411375
12.700000	1	6.967250
12.716667	1	7.540500
12.733333	1	8.125125
12.750000	1	8.716500
12.766667	1	9.310625
12.783333	1	9.906250
12.800000	1	10.501875
12.816667	1	11.097250
12.833333	1	11.693500
12.850000	1	12.290625
12.866667	1	12.890375
12.883333	1	13.493000
12.900000	1	14.096125
12.916667	1	14.700000
12.933333	1	15.298125
12.950000	1	15.884500
12.966667	1	16.451875
12.983333	1	16.991625
13.000000	1	17.495750
13.016667	1	17.956750
13.033333	1	18.365750
13.050000	1	18.719625
13.066667	1	19.012875
13.083333	1	19.241625
13.100000	1	19.404625
13.116667	1	19.502125
13.133333	1	19.534250
13.150000	1	19.504375
13.166667	1	19.415750
13.183333	1	19.273125
13.200000	1	19.080500
13.216667	1	18.844000
13.233333	1	18.570125
13.250000	1	18.262875
13.266667	1	17.928250
13.283333	1	17.569625
13.300000	1	17.192875
13.316667	1	16.801500
13.333333	1	16.399250
13.350000	1	15.989250
13.366667	1	15.574625
13.383333	1	15.157750
13.400000	1	14.741500
13.416667	1	14.326875
13.433333	1	13.914750
13.450000	1	13.503750
13.466667	1	13.094750
13.483333	1	12.686875
13.500000	1	12.277750
13.516667	1	11.867500
13.533333	1	11.453250
13.550000	1	11.033250
13.566667	1	10.605875
13.583333	1	10.168500
13.600000	1	9.723625
13.616667	1	9.272375
13.633333	1	8.817375
13.650000	1	8.364500
13.666667	1	7.919625
13.683333	1	7.489625
13.700000	1	7.081625
13.716667	1	6.700500
13.733333	1	6.351250
13.750000	1	6.036000
13.766667	1	5.756875
13.783333	1	5.513125
13.800000	1	5.303250
13.816667	1	5.123375
13.833333	1	4.969375
13.850000	1	4.837250
13.866667	1	4.724500
13.883333	1	4.625500
13.900000	1	4.538500
13.916667	1	4.460500
13.933333	1	4.391375
13.950000	1	4.328750
13.966667	1	4.272000
13.983333	1	4.219750
14.000000	1	4.172375
14.016667	1	4.127375
14.033333	1	4.085750
14.050000	1	4.044625
14.066667	1	4.003250
14.083333	1	3.959750
14.100000	1	3.912750
14.116667	1	3.861500
14.133333	1	3.804250
14.150000	1	3.740250
14.166667	1	3.670500
14.183333	1	3.594125
14.200000	1	3.512125
14.216667	1	3.426500
14.233333	1	3.338375
14.250000	1	3.250625
14.266667	1	3.164625
14.283333	1	3.081875
14.300000	1	3.007000
14.316667	1	2.940625
14.333333	1	2.885375
14.350000	1	2.841750
14.366667	1	2.812875
14.383333	1	2.798625
14.400000	1	2.801875
14.416667	1	2.823375
14.433333	1	2.863000
14.450000	1	2.921375
14.466667	1	3.000250
14.483333	1	3.099500
14.500000	1	3.219125
14.516667	1	3.358750
14.533333	1	3.518125
14.550000	1	3.697000
14.566667	1	3.895375
14.583333	1	4.110750
14.600000	1	4.343375
14.616667	1	4.592250
14.633333	1	4.854500
14.650000	1	5.129250
14.666667	1	5.413000
14.683333	1	5.701250
14.700000	1	5.991625
14.716667	1	6.280875
14.733333	1	6.564625
14.750000	1	6.841875
14.766667	1	7.111250
14.783333	1	7.374875
14.800000	1	7.636500
14.816667	1	7.901375
14.833333	1	8.178125
14.850000	1	8.478000
14.866667	1	8.812500
14.883333	1	9.193500
14.900000	1	9.633500
14.916667	1	10.142875
14.933333	1	10.726875
14.950000	1	11.388875
14.966667	1	12.124750
14.983333	1	12.927125
15.000000	1	13.781875
15.016667	1	14.673375
15.033333	1	15.584500
15.050000	1	16.493750
15.066667	1	17.382375
15.083333	1	18.233875
15.100000	1	19.033125
15.116667	1	19.768250
15.133333	1	20.433125
15.150000	1	21.023500
15.166667	1	21.535125
15.183333	1	21.967125
15.200000	1	22.318125
15.216667	1	22.587125
15.233333	1	22.772625
15.250000	1	22.870875
15.266667	1	22.878000
15.283333	1	22.789500
15.300000	1	22.602375
15.316667	1	22.313750
15.333333	1	21.923250
15.350000	1	21.433500
15.366667	1	20.849875
15.383333	1	20.180625
15.400000	1	19.436000
15.416667	1	18.628000
15.433333	1	17.769250
15.450000	1	16.871750
15.466667	1	15.949000
15.483333	1	15.014500
15.500000	1	14.079875
15.516667	1	13.156625
15.533333	1	12.254625
15.550000	1	11.381375
15.566667	1	10.545750
15.583333	1	9.753250
15.600000	1	9.008000
15.616667	1	8.313000
15.633333	1	7.669500
15.650000	1	7.080500
15.666667	1	6.542875
15.683333	1	6.057125
15.700000	1	5.621125
15.716667	1	5.233125
15.733333	1	4.889750
15.750000	1	4.588375
15.766667	1	4.324750
15.783333	1	4.096375
15.800000	1	3.899750
15.816667	1	3.732000
15.833333	1	3.591250
15.850000	1	3.475125
15.866667	1	3.381750
15.883333	1	3.309750
15.900000	1	3.258500
15.916667	1	3.226000
15.933333	1	3.211750
15.950000	1	3.212875
15.966667	1	3.228875
15.983333	1	3.258500
16.000000	1	3.298500
16.016667	1	3.348375
16.033333	1	3.406125
16.050000	1	3.470000
16.066667	1	3.538750
16.083333	1	3.612875
16.100000	1	3.691625
16.116667	1	3.776500
16.133333	1	3.868875
16.150000	1	3.971625
16.166667	1	4.087000
16.183333	1	4.218500
16.200000	1	4.367875
16.216667	1	4.537625
16.233333	1	4.729500
16.250000	1	4.941375
16.266667	1	5.171750
16.283333	1	5.416125
16.300000	1	5.669750
16.316667	1	5.927750
16.333333	1	6.183750
16.350000	1	6.432125
16.366667	1	6.667250
16.383333	1	6.885250
16.400000	1	7.082375
16.416667	1	7.256125
16.433333	1	7.405500
16.450000	1	7.531500
16.466667	1	7.634375
16.483333	1	7.714875
16.500000	1	7.773125
16.516667	1	7.809125
16.533333	1	7.824875
16.550000	1	7.820250
16.566667	1	7.795750
16.583333	1	7.750875
16.600000	1	7.685625
16.616667	1	7.598500
16.633333	1	7.489375
16.650000	1	7.358875
16.666667	1	7.206625
16.683333	1	7.033750
16.700000	1	6.841875
16.716667	1	6.631625
16.733333	1	6.406375
16.750000	1	6.167875
16.766667	1	5.920375
16.783333	1	5.667125
16.800000	1	5.410500
16.816667	1	5.153125
16.833333	1	4.897500
16.850000	1	4.647125
16.866667	1	4.403250
16.883333	1	4.168000
16.900000	1	3.943625
16.916667	1	3.731250
16.933333	1	3.531000
16.950000	1	3.344625
16.966667	1	3.171500
16.983333	1	3.012250
17.000000	1	2.867375
17.016667	1	2.735125
17.033333	1	2.615750
17.050000	1	2.507500
17.066667	1	2.410625
17.083333	1	2.324750
17.100000	1	2.248875
17.116667	1	2.180875
17.133333	1	2.121375
17.150000	1	2.068500
17.166667	1	2.022000
17.183333	1	1.980625
17.200000	1	1.944750
17.216667	1	1.911625
17.233333	1	1.883125
17.250000	1	1.857625
17.266667	1	1.834125
17.283333	1	1.813250
17.300000	1	1.792750
17.316667	1	1.773500
17.333333	1	1.755875
17.350000	1	1.740000
17.366667	1	1.723875
17.383333	1	1.708000
17.400000	1	1.693625
17.416667	1	1.679500
17.433333	1	1.666500
17.450000	1	1.654375
17.466667	1	1.642000
17.483333	1	1.631000
17.500000	1	1.620250
17.516667	1	1.610000
17.533333	1	1.599625
17.550000	1	1.589625
17.566667	1	1.580750
17.583333	1	1.572500
17.600000	1	1.564625
17.616667	1	1.557875
17.633333	1	1.550625
17.650000	1	1.544250
17.666667	1	1.538750
17.683333	1	1.534750
17.700000	1	1.531250
17.716667	1	1.529000
17.733333	1	1.528625
17.750000	1	1.529250
17.766667	1	1.530250
17.783333	1	1.533500
17.800000	1	1.538875
17.816667	1	1.545500
17.833333	1	1.554750
17.850000	1	1.565625
17.866667	1	1.578000
17.883333	1	1.591625
17.900000	1	1.607750
17.916667	1	1.626000
17.933333	1	1.644875
17.950000	1	1.665125
17.966667	1	1.687000
17.983333	1	1.709875
18.000000	1	1.733750
18.016667	1	1.757750
18.033333	1	1.782750
18.050000	1	1.808000
18.066667	1	1.833000
18.083333	1	1.857375
18.100000	1	1.881125
18.116667	1	1.904250
18.133333	1	1.926375
18.150000	1	1.947375
18.166667	1	1.967125
18.183333	1	1.985375
18.200000	1	2.002250
18.216667	1	2.017500
18.233333	1	2.031625
18.250000	1	2.043875
18.266667	1	2.053500
18.283333	1	2.061000
18.300000	1	2.065500
18.316667	1	2.068375
18.333333	1	2.069250
18.350000	1	2.067375
18.366667	1	2.062750
18.383333	1	2.056250
18.400000	1	2.048500
18.416667	1	2.038125
18.433333	1	2.025500
18.450000	1	2.011375
18.466667	1	1.996125
18.483333	1	1.980500
18.500000	1	1.963125
18.516667	1	1.943625
18.533333	1	1.924000
18.550000	1	1.903875
18.566667	1	1.883625
18.583333	1	1.862375
18.600000	1	1.841000
18.616667	1	1.819000
18.633333	1	1.797125
18.650000	1	1.774125
18.666667	1	1.751250
18.683333	1	1.728500
18.700000	1	1.705500
18.716667	1	1.681750
18.733333	1	1.658500
18.750000	1	1.635625
18.766667	1	1.613500
18.783333	1	1.591750
18.800000	1	1.569625
18.816667	1	1.548250
18.833333	1	1.528250
18.850000	1	1.508625
18.866667	1	1.489250
18.883333	1	1.470250
18.900000	1	1.451375
18.916667	1	1.433500
18.933333	1	1.416125
18.950000	1	1.399375
18.966667	1	1.383000
18.983333	1	1.367375
19.000000	1	1.351625
19.016667	1	1.337250
19.033333	1	1.323750
19.050000	1	1.310875
19.066667	1	1.299500
19.083333	1	1.288500
19.100000	1	1.279250
19.116667	1	1.271375
19.133333	1	1.265500
19.150000	1	1.261250
19.166667	1	1.260375
19.183333	1	1.261125
19.200000	1	1.265125
19.216667	1	1.269125
19.233333	1	1.281500
19.250000	1	1.294875
19.266667	1	1.311125
19.283333	1	1.330750
19.300000	1	1.353625
19.316667	1	1.379125
19.333333	1	1.407125
19.350000	1	1.436500
19.366667	1	1.467375
19.383333	1	1.499500
19.400000	1	1.532625
19.416667	1	1.565375
19.433333	1	1.598750
19.450000	1	1.630875
19.466667	1	1.662000
19.483333	1	1.692250
19.500000	1	1.720500
19.516667	1	1.747000
19.533333	1	1.773125
19.550000	1	1.797250
19.566667	1	1.818625
19.583333	1	1.837500
19.600000	1	1.854500
19.616667	1	1.869250
19.633333	1	1.880500
19.650000	1	1.889750
19.666667	1	1.896500
19.683333	1	1.900125
19.700000	1	1.899750
19.716667	1	1.896875
19.733333	1	1.891000
19.750000	1	1.881750
19.766667	1	1.869125
19.783333	1	1.853625
19.800000	1	1.836250
19.816667	1	1.815625
19.833333	1	1.792250
19.850000	1	1.767125
19.866667	1	1.741125
19.883333	1	1.713750
19.900000	1	1.685250
19.916667	1	1.656750
19.933333	1	1.628375
19.950000	1	1.600125
19.966667	1	1.573125
19.983333	1	1.548375
20.000000	1	1.525250
20.016667	1	1.503375
20.033333	1	1.483250
20.050000	1	1.466250
20.066667	1	1.450625
20.083333	1	1.437125
20.100000	1	1.425750
20.116667	1	1.417375
20.133333	1	1.410875
20.150000	1	1.404125
20.166667	1	1.401375
20.183333	1	1.399750
20.200000	1	1.399625
20.216667	1	1.400625
20.233333	1	1.402750
20.250000	1	1.406375
20.266667	1	1.411750
20.283333	1	1.417750
20.300000	1	1.424125
20.316667	1	1.432500
20.333333	1	1.442500
20.350000	1	1.453125
20.366667	1	1.466125
20.383333	1	1.480375
20.400000	1	1.496625
20.416667	1	1.514625
20.433333	1	1.534250
20.450000	1	1.556375
20.466667	1	1.580625
20.483333	1	1.607375
20.500000	1	1.635125
20.516667	1	1.664875
20.533333	1	1.695625
20.550000	1	1.727500
20.566667	1	1.760500
20.583333	1	1.792375
20.600000	1	1.824250
20.616667	1	1.854500
20.633333	1	1.884875
20.650000	1	1.912875
20.666667	1	1.939625
20.683333	1	1.963375
20.700000	1	1.985625
20.716667	1	2.006625
20.733333	1	2.024625
20.750000	1	2.040750
20.766667	1	2.055000
20.783333	1	2.068000
20.800000	1	2.080125
20.816667	1	2.090625
20.833333	1	2.100000
20.850000	1	2.108500
20.866667	1	2.115250
20.883333	1	2.121625
20.900000	1	2.126875
20.916667	1	2.131625
20.933333	1	2.135125
20.950000	1	2.137875
20.966667	1	2.138875
20.983333	1	2.139125
21.000000	1	2.136500
21.016667	1	2.133375
21.033333	1	2.127375
21.050000	1	2.119750
21.066667	1	2.109000
21.083333	1	2.096000
21.100000	1	2.080750
21.116667	1	2.063125
21.133333	1	2.043000
21.150000	1	2.021750
21.166667	1	1.998250
21.183333	1	1.973500
21.200000	1	1.948250
21.216667	1	1.922250
21.233333	1	1.896125
21.250000	1	1.869375
21.266667	1	1.843250
21.283333	1	1.817500
21.300000	1	1.793000
21.316667	1	1.768375
21.333333	1	1.744625
21.350000	1	1.721375
21.366667	1	1.699500
21.383333	1	1.677125
21.400000	1	1.653625
21.416667	1	1.629875
21.433333	1	1.606125
21.450000	1	1.580500
21.466667	1	1.553750
21.483333	1	1.525000
21.500000	1	1.495125
21.516667	1	1.463500
21.533333	1	1.430250
21.550000	1	1.395625
21.566667	1	1.358500
21.583333	1	1.320625
21.600000	1	1.281125
21.616667	1	1.242125
21.633333	1	1.202000
21.650000	1	1.161750
21.666667	1	1.122125
21.683333	1	1.083125
21.700000	1	1.044750
21.716667	1	1.007625
21.733333	1	0.971875
21.750000	1	0.939000
21.766667	1	0.907125
21.783333	1	0.876625
21.800000	1	0.848500
21.816667	1	0.822625
21.833333	1	0.799375
21.850000	1	0.777500
21.866667	1	0.757625
21.883333	1	0.739875
21.900000	1	0.723000
21.916667	1	0.708125
21.933333	1	0.696125
21.950000	1	0.686250
21.966667	1	0.677625
21.983333	1	0.670500
22.000000	1	0.665875
22.016667	1	0.662500
22.033333	1	0.660250
22.050000	1	0.659500
22.066667	1	0.660000
22.083333	1	0.661500
22.100000	1	0.663750
22.116667	1	0.667875
22.133333	1	0.672125
22.150000	1	0.677250
22.166667	1	0.682500
22.183333	1	0.688000
22.200000	1	0.694250
22.216667	1	0.700875
22.233333	1	0.706125
22.250000	1	0.712000
22.266667	1	0.718000
22.283333	1	0.722875
22.300000	1	0.728000
22.316667	1	0.733000
22.333333	1	0.737875
22.350000	1	0.741375
22.366667	1	0.744750
22.383333	1	0.747375
22.400000	1	0.749750
22.416667	1	0.751250
22.433333	1	0.752500
22.450000	1	0.753625
22.466667	1	0.753750
22.483333	1	0.753625
22.500000	1	0.752875
22.516667	1	0.751500
22.533333	1	0.750125
22.550000	1	0.747625
22.566667	1	0.745625
22.583333	1	0.742625
22.600000	1	0.738875
22.616667	1	0.735000
22.633333	1	0.730250
22.650000	1	0.726375
22.666667	1	0.722000
22.683333	1	0.717625
22.700000	1	0.713875
22.716667	1	0.710375
22.733333	1	0.707500
22.750000	1	0.704250
22.766667	1	0.702625
22.783333	1	0.700500
22.800000	1	0.699750
22.816667	1	0.699750
22.833333	1	0.699500
22.850000	1	0.700625
22.866667	1	0.701375
22.883333	1	0.704000
22.900000	1	0.705875
22.916667	1	0.709000
22.933333	1	0.711625
22.950000	1	0.714500
22.966667	1	0.718125
22.983333	1	0.721750
23.000000	1	0.725125
23.016667	1	0.728250
23.033333	1	0.731125
23.050000	1	0.733500
23.066667	1	0.735000
23.083333	1	0.736875
23.100000	1	0.738125
23.116667	1	0.739125
23.133333	1	0.739000
23.150000	1	0.739000
23.166667	1	0.738375
23.183333	1	0.737625
23.200000	1	0.735500
23.216667	1	0.734125
23.233333	1	0.731500
23.250000	1	0.728000
23.266667	1	0.724750
23.283333	1	0.720125
23.300000	1	0.715250
23.316667	1	0.709875
23.333333	1	0.705250
23.350000	1	0.699625
23.366667	1	0.693125
23.383333	1	0.686125
23.400000	1	0.679125
23.416667	1	0.671250
23.433333	1	0.663000
23.450000	1	0.654875
23.466667	1	0.646000
23.483333	1	0.637375
23.500000	1	0.629000
23.516667	1	0.620500
23.533333	1	0.612375
23.550000	1	0.603375
23.566667	1	0.594750
23.583333	1	0.586125
23.600000	1	0.577750
23.616667	1	0.570625
23.633333	1	0.563125
23.650000	1	0.555000
23.666667	1	0.548500
23.683333	1	0.543375
23.700000	1	0.538625
23.716667	1	0.534500
23.733333	1	0.530875
23.750000	1	0.528250
23.766667	1	0.527375
23.783333	1	0.528375
23.800000	1	0.531375
23.816667	1	0.535750
23.833333	1	0.542250
23.850000	1	0.551500
23.866667	1	0.562875
23.883333	1	0.576500
23.900000	1	0.592375
23.916667	1	0.611500
23.933333	1	0.633875
23.950000	1	0.658250
23.966667	1	0.685500
23.983333	1	0.714625
24.000000	1	0.745625
24.016667	1	0.778125
24.033333	1	0.812500
24.050000	1	0.847750
24.066667	1	0.884250
24.083333	1	0.920500
24.100000	1	0.956375
24.116667	1	0.992375
24.133333	1	1.027375
24.150000	1	1.062750
24.166667	1	1.096500
24.183333	1	1.128500
24.200000	1	1.159750
24.216667	1	1.189500
24.233333	1	1.216875
24.250000	1	1.242125
24.266667	1	1.266500
24.283333	1	1.288375
24.300000	1	1.308000
24.316667	1	1.326375
24.333333	1	1.342000
24.350000	1	1.356125
24.366667	1	1.367750
24.383333	1	1.376250
24.400000	1	1.381875
24.416667	1	1.385625
24.433333	1	1.385625
24.450000	1	1.382750
24.466667	1	1.377750
24.483333	1	1.370125
24.500000	1	1.359875
24.516667	1	1.346750
24.533333	1	1.331000
24.550000	1	1.312750
24.566667	1	1.292875
24.583333	1	1.271375
24.600000	1	1.249000
24.616667	1	1.225125
24.633333	1	1.200875
24.650000	1	1.175250
24.666667	1	1.150375
24.683333	1	1.125875
24.700000	1	1.101500
24.716667	1	1.077500
24.733333	1	1.054500
24.750000	1	1.032375
24.766667	1	1.012750
24.783333	1	0.994500
24.800000	1	0.977750
24.816667	1	0.960625
24.833333	1	0.946500
24.850000	1	0.933625
24.866667	1	0.922250
24.883333	1	0.911375
24.900000	1	0.901875
24.916667	1	0.893750
24.933333	1	0.886125
24.950000	1	0.879250
24.966667	1	0.873250
24.983333	1	0.867125
25.000000	1	0.861500
25.016667	1	0.856625
25.033333	1	0.851625
25.050000	1	0.846625
25.066667	1	0.841000
25.083333	1	0.835500
25.100000	1	0.829125
25.116667	1	0.822375
25.133333	1	0.814875
25.150000	1	0.806500
25.166667	1	0.797875
25.183333	1	0.788625
25.200000	1	0.778000
25.216667	1	0.766000
25.233333	1	0.753625
25.250000	1	0.740000
25.266667	1	0.725750
25.283333	1	0.710625
25.300000	1	0.695125
25.316667	1	0.679375
25.333333	1	0.663125
25.350000	1	0.646375
25.366667	1	0.629125
25.383333	1	0.611750
25.400000	1	0.595000
25.416667	1	0.577875
25.433333	1	0.560750
25.450000	1	0.544625
25.466667	1	0.528750
25.483333	1	0.513750
25.500000	1	0.499000
25.516667	1	0.485000
25.533333	1	0.471625
25.550000	1	0.459625
25.566667	1	0.448500
25.583333	1	0.437750
25.600000	1	0.427875
25.616667	1	0.418500
25.633333	1	0.410875
25.650000	1	0.403500
25.666667	1	0.397125
25.683333	1	0.391750
25.700000	1	0.387250
25.716667	1	0.382750
25.733333	1	0.379500
25.750000	1	0.377500
25.766667	1	0.375875
25.783333	1	0.374375
25.800000	1	0.373375
25.816667	1	0.372500
25.833333	1	0.372625
25.850000	1	0.372875
25.866667	1	0.374000
25.883333	1	0.375375
25.900000	1	0.377250
25.916667	1	0.379000
25.933333	1	0.380875
25.950000	1	0.383625
25.966667	1	0.387000
25.983333	1	0.390125
26.000000	1	0.393125
26.016667	1	0.396500
26.033333	1	0.399375
26.050000	1	0.402875
26.066667	1	0.406125
26.083333	1	0.410000
26.100000	1	0.412750
26.116667	1	0.416250
26.133333	1	0.419625
26.150000	1	0.422625
26.166667	1	0.425125
26.183333	1	0.428000
26.200000	1	0.430625
26.216667	1	0.433250
26.233333	1	0.435875
26.250000	1	0.438500
26.266667	1	0.441375
26.283333	1	0.444250
26.300000	1	0.448000
26.316667	1	0.450625
26.333333	1	0.453375
26.350000	1	0.456375
26.366667	1	0.459625
26.383333	1	0.463000
26.400000	1	0.465500
26.416667	1	0.468500
26.433333	1	0.472125
26.450000	1	0.476125
26.466667	1	0.480500
26.483333	1	0.484375
26.500000	1	0.488500
26.516667	1	0.493000
26.533333	1	0.497625
26.550000	1	0.502000
26.566667	1	0.506750
26.583333	1	0.511875
26.600000	1	0.516000
26.616667	1	0.521375
26.633333	1	0.526375
26.650000	1	0.530875
26.666667	1	0.535375
26.683333	1	0.540125
26.700000	1	0.544375
26.716667	1	0.548625
26.733333	1	0.553000
26.750000	1	0.556875
26.766667	1	0.560125
26.783333	1	0.562750
26.800000	1	0.565750
26.816667	1	0.568750
26.833333	1	0.571000
26.850000	1	0.572750
26.866667	1	0.574375
26.883333	1	0.574875
26.900000	1	0.576000
26.916667	1	0.576000
26.933333	1	0.575250
26.950000	1	0.575000
26.966667	1	0.573875
26.983333	1	0.572750
27.000000	1	0.571000
27.016667	1	0.569250
27.033333	1	0.566250
27.050000	1	0.564875
27.066667	1	0.562000
27.083333	1	0.559125
27.100000	1	0.556125
27.116667	1	0.553000
27.133333	1	0.549000
27.150000	1	0.544750
27.166667	1	0.540000
27.183333	1	0.535250
27.200000	1	0.530500
27.216667	1	0.525500
27.233333	1	0.519500
27.250000	1	0.513750
27.266667	1	0.508000
27.283333	1	0.502000
27.300000	1	0.495250
27.316667	1	0.488375
27.333333	1	0.481125
27.350000	1	0.473375
27.366667	1	0.465500
27.383333	1	0.457500
27.400000	1	0.449375
27.416667	1	0.441875
27.433333	1	0.433500
27.450000	1	0.425500
27.466667	1	0.417625
27.483333	1	0.409125
27.500000	1	0.401125
27.516667	1	0.393125
27.533333	1	0.386125
27.550000	1	0.378250
27.566667	1	0.371000
27.583333	1	0.363125
27.600000	1	0.356000
27.616667	1	0.349875
27.633333	1	0.344750
27.650000	1	0.339125
27.666667	1	0.335000
27.683333	1	0.331500
27.700000	1	0.329375
27.716667	1	0.328750
27.733333	1	0.329125
27.750000	1	0.331875
27.766667	1	0.335750
27.783333	1	0.342750
27.800000	1	0.352625
27.816667	1	0.366375
27.833333	1	0.382750
27.850000	1	0.403750
27.866667	1	0.429500
27.883333	1	0.459875
27.900000	1	0.495875
27.916667	1	0.536625
27.933333	1	0.584000
27.950000	1	0.637000
27.966667	1	0.695875
27.983333	1	0.760750
28.000000	1	0.831375
28.016667	1	0.908625
28.033333	1	0.990625
28.050000	1	1.078875
28.066667	1	1.172125
28.083333	1	1.268500
28.100000	1	1.368875
28.116667	1	1.471125
28.133333	1	1.575375
28.150000	1	1.680125
28.166667	1	1.785500
28.183333	1	1.889750
28.200000	1	1.993125
28.216667	1	2.094750
28.233333	1	2.193250
28.250000	1	2.287875
28.266667	1	2.378375
28.283333	1	2.464500
28.300000	1	2.546500
28.316667	1	2.623000
28.333333	1	2.694625
28.350000	1	2.761250
28.366667	1	2.823125
28.383333	1	2.879875
28.400000	1	2.931375
28.416667	1	2.978250
28.433333	1	3.020250
28.450000	1	3.057875
28.466667	1	3.090750
28.483333	1	3.118875
28.500000	1	3.142000
28.516667	1	3.160375
28.533333	1	3.173625
28.550000	1	3.180625
28.566667	1	3.182000
28.583333	1	3.177500
28.600000	1	3.167125
28.616667	1	3.149500
28.633333	1	3.125000
28.650000	1	3.093625
28.666667	1	3.055125
28.683333	1	3.009375
28.700000	1	2.955750
28.716667	1	2.895375
28.733333	1	2.826375
28.750000	1	2.750500
28.766667	1	2.668125
28.783333	1	2.579625
28.800000	1	2.485375
28.816667	1	2.386625
28.833333	1	2.283750
28.850000	1	2.176500
28.866667	1	2.067375
28.883333	1	1.956875
28.900000	1	1.845125
28.916667	1	1.733500
28.933333	1	1.622000
28.950000	1	1.512125
28.966667	1	1.405125
28.983333	1	1.300625
29.000000	1	1.200375
29.016667	1	1.103125
29.033333	1	1.010500
29.050000	1	0.921500
29.066667	1	0.838250
29.083333	1	0.760000
29.100000	1	0.686250
29.116667	1	0.619000
29.133333	1	0.555875
29.150000	1	0.497375
29.166667	1	0.443375
29.183333	1	0.394125
29.200000	1	0.350000
29.216667	1	0.309250
29.233333	1	0.273000
29.250000	1	0.241125
29.266667	1	0.211125
29.283333	1	0.185625
29.300000	1	0.162500
29.316667	1	0.141875
29.333333	1	0.123875
29.350000	1	0.108000
29.366667	1	0.094375
29.383333	1	0.082750
29.400000	1	0.072750
29.416667	1	0.064500
29.433333	1	0.058500
29.450000	1	0.053000
29.466667	1	0.049500
29.483333	1	0.046875
29.500000	1	0.046000
29.516667	1	0.046625
29.533333	1	0.047875
29.550000	1	0.050875
29.566667	1	0.054250
29.583333	1	0.059250
29.600000	1	0.065750
29.616667	1	0.072250
29.633333	1	0.079875
29.650000	1	0.088750
29.666667	1	0.099000
29.683333	1	0.109375
29.700000	1	0.121500
29.716667	1	0.132875
29.733333	1	0.145500
29.750000	1	0.158375
29.766667	1	0.172375
29.783333	1	0.186375
29.800000	1	0.200750
29.816667	1	0.215250
29.833333	1	0.230375
29.850000	1	0.245000
29.866667	1	0.259500
29.883333	1	0.274250
29.900000	1	0.288875
29.916667	1	0.303250
29.933333	1	0.317250
29.950000	1	0.331125
29.966667	1	0.344125
29.983333	1	0.357125
30.000000	1	0.369375
30.016667	1	0.380500
30.033333	1	0.390875
30.050000	1	0.401375
30.066667	1	0.411250
30.083333	1	0.420625
30.100000	1	0.428750
30.116667	1	0.436250
30.133333	1	0.443125
30.150000	1	0.449250
30.166667	1	0.455375
30.183333	1	0.460375
30.200000	1	0.465250
30.216667	1	0.469500
30.233333	1	0.473375
30.250000	1	0.476375
30.266667	1	0.479125
30.283333	1	0.481750
30.300000	1	0.483875
30.316667	1	0.485125
30.333333	1	0.485250
30.350000	1	0.485625
30.366667	1	0.486375
30.383333	1	0.486375
30.400000	1	0.485875
30.416667	1	0.485125
30.433333	1	0.484250
30.450000	1	0.482875
30.466667	1	0.481500
30.483333	1	0.480000
30.500000	1	0.477875
30.516667	1	0.475000
30.533333	1	0.472875
30.550000	1	0.469750
30.566667	1	0.466625
30.583333	1	0.464000
30.600000	1	0.461000
30.616667	1	0.457625
30.633333	1	0.454750
30.650000	1	0.451875
30.666667	1	0.449000
30.683333	1	0.446375
30.700000	1	0.443000
30.716667	1	0.440750
30.733333	1	0.438000
30.750000	1	0.435500
30.766667	1	0.433500
30.783333	1	0.432250
30.800000	1	0.430750
30.816667	1	0.430000
30.833333	1	0.429375
30.850000	1	0.429000
30.866667	1	0.428500
30.883333	1	0.429250
30.900000	1	0.430375
30.916667	1	0.432125
30.933333	1	0.434500
30.950000	1	0.437000
30.966667	1	0.439375
30.983333	1	0.442000
31.000000	1	0.444750
31.016667	1	0.448125
31.033333	1	0.451875
31.050000	1	0.456000
31.066667	1	0.459750
31.083333	1	0.463625
31.100000	1	0.467625
31.116667	1	0.471500
31.133333	1	0.475500
31.150000	1	0.479625
31.166667	1	0.483875
31.183333	1	0.488125
31.200000	1	0.492500
31.216667	1	0.496375
31.233333	1	0.499750
31.250000	1	0.503750
31.266667	1	0.507625
31.283333	1	0.511375
31.300000	1	0.515500
31.316667	1	0.518875
31.333333	1	0.521625
31.350000	1	0.524875
31.366667	1	0.527125
31.383333	1	0.529625
31.400000	1	0.531875
31.416667	1	0.534000
31.433333	1	0.535125
31.450000	1	0.537000
31.466667	1	0.537875
31.483333	1	0.538750
31.500000	1	0.539000
31.516667	1	0.539250
31.533333	1	0.539375
31.550000	1	0.538500
31.566667	1	0.537750
31.583333	1	0.536250
31.600000	1	0.535125
31.616667	1	0.533375
31.633333	1	0.530625
31.650000	1	0.528125
31.666667	1	0.524875
31.683333	1	0.521500
31.700000	1	0.517875
31.716667	1	0.514625
31.733333	1	0.509750
31.750000	1	0.505375
31.766667	1	0.501750
31.783333	1	0.497625
31.800000	1	0.493625
31.816667	1	0.490000
31.833333	1	0.485250
31.850000	1	0.480625
31.866667	1	0.477375
31.883333	1	0.473625
31.900000	1	0.470625
31.916667	1	0.467625
31.933333	1	0.465500
31.950000	1	0.462875
31.966667	1	0.461000
31.983333	1	0.459500
32.000000	1	0.458250
32.016667	1	0.457750
32.033333	1	0.458000
32.050000	1	0.458125
32.066667	1	0.458625
32.083333	1	0.460750
32.100000	1	0.463625
32.116667	1	0.466375
32.133333	1	0.469500
32.150000	1	0.473000
32.166667	1	0.478125
32.183333	1	0.483375
32.200000	1	0.489375
32.216667	1	0.495125
32.233333	1	0.501125
32.250000	1	0.507500
32.266667	1	0.515000
32.283333	1	0.522375
32.300000	1	0.529625
32.316667	1	0.537125
32.333333	1	0.544875
32.350000	1	0.553000
32.366667	1	0.560625
32.383333	1	0.568125
32.400000	1	0.575500
32.416667	1	0.583750
32.433333	1	0.591000
32.450000	1	0.598000
32.466667	1	0.605000
32.483333	1	0.611750
32.500000	1	0.618000
32.516667	1	0.624250
32.533333	1	0.630250
32.550000	1	0.636500
32.566667	1	0.641625
32.583333	1	0.646250
32.600000	1	0.650625
32.616667	1	0.654750
32.633333	1	0.658375
32.650000	1	0.660875
32.666667	1	0.663625
32.683333	1	0.665125
32.700000	1	0.666375
32.716667	1	0.666500
32.733333	1	0.666500
32.750000	1	0.666625
32.766667	1	0.665500
32.783333	1	0.664250
32.800000	1	0.661375
32.816667	1	0.658625
32.833333	1	0.655000
32.850000	1	0.651000
32.866667	1	0.646750
32.883333	1	0.640375
32.900000	1	0.633625
32.916667	1	0.626750
32.933333	1	0.619250
32.950000	1	0.611125
32.966667	1	0.601875
32.983333	1	0.592625
33.000000	1	0.583000
33.016667	1	0.572750
33.033333	1	0.561250
33.050000	1	0.550625
33.066667	1	0.538875
33.083333	1	0.526750
33.100000	1	0.514125
33.116667	1	0.501625
33.133333	1	0.488000
33.150000	1	0.475000
33.166667	1	0.461125
33.183333	1	0.447000
33.200000	1	0.433375
33.216667	1	0.419375
33.233333	1	0.405125
33.250000	1	0.390375
33.266667	1	0.375500
33.283333	1	0.361625
33.300000	1	0.347375
33.316667	1	0.332625
33.333333	1	0.318500
33.350000	1	0.304625
33.366667	1	0.290625
33.383333	1	0.276375
33.400000	1	0.263625
33.416667	1	0.251125
33.433333	1	0.238375
33.450000	1	0.225750
33.466667	1	0.213625
33.483333	1	0.202250
33.500000	1	0.191250
33.516667	1	0.180625
33.533333	1	0.170375
33.550000	1	0.160250
33.566667	1	0.151500
33.583333	1	0.142500
33.600000	1	0.133750
33.616667	1	0.125500
33.633333	1	0.117750
33.650000	1	0.110625
33.666667	1	0.104500
33.683333	1	0.098250
33.700000	1	0.092000
33.716667	1	0.086875
33.733333	1	0.081750
33.750000	1	0.076875
33.766667	1	0.071750
33.783333	1	0.068000
33.800000	1	0.064375
33.816667	1	0.060625
33.833333	1	0.057125
33.850000	1	0.054625
33.866667	1	0.052000
33.883333	1	0.049625
33.900000	1	0.046750
33.916667	1	0.044250
33.933333	1	0.042250
33.950000	1	0.041000
33.966667	1	0.040125
33.983333	1	0.037875
34.000000	1	0.036625
34.016667	1	0.035625
34.033333	1	0.034750
34.050000	1	0.034250
34.066667	1	0.033750
34.083333	1	0.033250
34.100000	1	0.033250
34.116667	1	0.033625
34.133333	1	0.034375
34.150000	1	0.034875
34.166667	1	0.035500
34.183333	1	0.036625
34.200000	1	0.038000
34.216667	1	0.039375
34.233333	1	0.041375
34.250000	1	0.043250
34.266667	1	0.046000
34.283333	1	0.048625
34.300000	1	0.052250
34.316667	1	0.055875
34.333333	1	0.059250
34.350000	1	0.063625
34.366667	1	0.066875
34.383333	1	0.070625
34.400000	1	0.075250
34.416667	1	0.080000
34.433333	1	0.085500
34.450000	1	0.090875
34.466667	1	0.096000
34.483333	1	0.101750
34.500000	1	0.107750
34.516667	1	0.113875
34.533333	1	0.120000
34.550000	1	0.126375
34.566667	1	0.132625
34.583333	1	0.138750
34.600000	1	0.145375
34.616667	1	0.150625
34.633333	1	0.156125
34.650000	1	0.162250
34.666667	1	0.168125
34.683333	1	0.173625
34.700000	1	0.179500
34.716667	1	0.184875
34.733333	1	0.190125
34.750000	1	0.195000
34.766667	1	0.200375
34.783333	1	0.204750
34.800000	1	0.208500
34.816667	1	0.213125
34.833333	1	0.217000
34.850000	1	0.220500
34.866667	1	0.223875
34.883333	1	0.226625
34.900000	1	0.229375
34.916667	1	0.232000
34.933333	1	0.234125
34.950000	1	0.236375
34.966667	1	0.237750
34.983333	1	0.239500
35.000000	1	0.240750
35.016667	1	0.241875
35.033333	1	0.242375
35.050000	1	0.242250
35.066667	1	0.242125
35.083333	1	0.241500
35.100000	1	0.240000
35.116667	1	0.238625
35.133333	1	0.236500
35.150000	1	0.234625
35.166667	1	0.231750
35.183333	1	0.228750
35.200000	1	0.225625
35.216667	1	0.221375
35.233333	1	0.217000
35.250000	1	0.212250
35.266667	1	0.207500
35.283333	1	0.202000
35.300000	1	0.197000
35.316667	1	0.191375
35.333333	1	0.185625
35.350000	1	0.179750
35.366667	1	0.173375
35.383333	1	0.166750
35.400000	1	0.161000
35.416667	1	0.154750
35.433333	1	0.149125
35.450000	1	0.142375
35.466667	1	0.136250
35.483333	1	0.131000
35.500000	1	0.125625
35.516667	1	0.120250
35.533333	1	0.115500
35.550000	1	0.110625
35.566667	1	0.106000
35.583333	1	0.101625
35.600000	1	0.097750
35.616667	1	0.094500
35.633333	1	0.091750
35.650000	1	0.089250
35.666667	1	0.087000
35.683333	1	0.084750
35.700000	1	0.083000
35.716667	1	0.081500
35.733333	1	0.081000
35.750000	1	0.080625
35.766667	1	0.080125
35.783333	1	0.079250
35.800000	1	0.079125
35.816667	1	0.078875
35.833333	1	0.079500
35.850000	1	0.080375
35.866667	1	0.080875
35.883333	1	0.082125
35.900000	1	0.082750
35.916667	1	0.084375
35.933333	1	0.085750
35.950000	1	0.086750
35.966667	1	0.089250
35.983333	1	0.091500
36.000000	1	0.093125
36.016667	1	0.095500
36.033333	1	0.097500
36.050000	1	0.099250
36.066667	1	0.101000
36.083333	1	0.103125
36.100000	1	0.106000
36.116667	1	0.108875
36.133333	1	0.112500
36.150000	1	0.114875
36.166667	1	0.118125
36.183333	1	0.121375
36.200000	1	0.124750
36.216667	1	0.127000
36.233333	1	0.131250
36.250000	1	0.134500
36.266667	1	0.138250
36.283333	1	0.142250
36.300000	1	0.146500
36.316667	1	0.150625
36.333333	1	0.154375
36.350000	1	0.158375
36.366667	1	0.162625
36.383333	1	0.166625
36.400000	1	0.170750
36.416667	1	0.175000
36.433333	1	0.179000
36.450000	1	0.183125
36.466667	1	0.187000
36.483333	1	0.191250
36.500000	1	0.195375
36.516667	1	0.199500
36.533333	1	0.202750
36.550000	1	0.207125
36.566667	1	0.210625
36.583333	1	0.214000
36.600000	1	0.217250
36.616667	1	0.220375
36.633333	1	0.223500
36.650000	1	0.226500
36.666667	1	0.228750
36.683333	1	0.231625
36.700000	1	0.234375
36.716667	1	0.236625
36.733333	1	0.239000
36.750000	1	0.241125
36.766667	1	0.244375
36.783333	1	0.247375
36.800000	1	0.248875
36.816667	1	0.250250
36.833333	1	0.252375
36.850000	1	0.254125
36.866667	1	0.255500
36.883333	1	0.257250
36.900000	1	0.258750
36.916667	1	0.260125
36.933333	1	0.261500
36.950000	1	0.262125
36.966667	1	0.262375
36.983333	1	0.263000
37.000000	1	0.263375
37.016667	1	0.263500
37.033333	1	0.264000
37.050000	1	0.263500
37.066667	1	0.263375
37.083333	1	0.263125
37.100000	1	0.261875
37.116667	1	0.261125
37.133333	1	0.260125
37.150000	1	0.258625
37.166667	1	0.256500
37.183333	1	0.254625
37.200000	1	0.252625
37.216667	1	0.250000
37.233333	1	0.247250
37.250000	1	0.244250
37.266667	1	0.240875
37.283333	1	0.237125
37.300000	1	0.234125
37.316667	1	0.230250
37.333333	1	0.226000
37.350000	1	0.221750
37.366667	1	0.217375
37.383333	1	0.212375
37.400000	1	0.208125
37.416667	1	0.203375
37.433333	1	0.198375
37.450000	1	0.193250
37.466667	1	0.189125
37.483333	1	0.183875
37.500000	1	0.177750
37.516667	1	0.172000
37.533333	1	0.167000
37.550000	1	0.160875
37.566667	1	0.155500
37.583333	1	0.150625
37.600000	1	0.145250
37.616667	1	0.139875
37.633333	1	0.133875
37.650000	1	0.127875
37.666667	1	0.122875
37.683333	1	0.118375
37.700000	1	0.113250
37.716667	1	0.107625
37.733333	1	0.102875
37.750000	1	0.098125
37.766667	1	0.092750
37.783333	1	0.087750
37.800000	1	0.083000
37.816667	1	0.078125
37.833333	1	0.072875
37.850000	1	0.067875
37.866667	1	0.063875
37.883333	1	0.059625
37.900000	1	0.056000
37.916667	1	0.051875
37.933333	1	0.047875
37.950000	1	0.044250
37.966667	1	0.040625
37.983333	1	0.037375
38.000000	1	0.033125
38.016667	1	0.029750
38.033333	1	0.026875
38.050000	1	0.024500
38.066667	1	0.022125
38.083333	1	0.019625
38.100000	1	0.016750
38.116667	1	0.013875
38.133333	1	0.012000
38.150000	1	0.010125
38.166667	1	0.008625
38.183333	1	0.006625
38.200000	1	0.004750
38.216667	1	0.003125
38.233333	1	0.001875
38.250000	1	0.000375
38.266667	1	-0.000625
38.283333	1	-0.001375
38.300000	1	-0.002125
38.316667	1	-0.002750
38.333333	1	-0.003500
38.350000	1	-0.004125
38.366667	1	-0.004375
38.383333	1	-0.004875
38.400000	1	-0.005125
38.416667	1	-0.005250
38.433333	1	-0.005500
38.450000	1	-0.005625
38.466667	1	-0.005750
38.483333	1	-0.005625
38.500000	1	-0.005125
38.516667	1	-0.004750
38.533333	1	-0.004875
38.550000	1	-0.004625
38.566667	1	-0.004625
38.583333	1	-0.004000
38.600000	1	-0.004250
38.616667	1	-0.004375
38.633333	1	-0.004875
38.650000	1	-0.004875
38.666667	1	-0.005625
38.683333	1	-0.005125
38.700000	1	-0.005250
38.716667	1	-0.005125
38.733333	1	-0.005500
38.750000	1	-0.005375
38.766667	1	-0.005375
38.783333	1	-0.005000
38.800000	1	-0.005250
38.816667	1	-0.005375
38.833333	1	-0.005875
38.850000	1	-0.005750
38.866667	1	-0.006125
38.883333	1	-0.006500
38.900000	1	-0.006250
38.916667	1	-0.006000
38.933333	1	-0.006125
38.950000	1	-0.005875
38.966667	1	-0.006375
38.983333	1	-0.007250
39.000000	1	-0.007750
39.016667	1	-0.008125
39.033333	1	-0.008125
39.050000	1	-0.007875
39.066667	1	-0.006875
39.083333	1	-0.007125
39.100000	1	-0.006750
39.116667	1	-0.007250
39.133333	1	-0.007250
39.150000	1	-0.007625
39.166667	1	-0.008000
39.183333	1	-0.008000
39.200000	1	-0.008000
39.216667	1	-0.007875
39.233333	1	-0.007750
39.250000	1	-0.008250
39.266667	1	-0.008375
39.283333	1	-0.008750
39.300000	1	-0.009000
39.316667	1	-0.009125
39.333333	1	-0.009750
39.350000	1	-0.009500
39.366667	1	-0.009625
39.383333	1	-0.010250
39.400000	1	-0.011250
39.416667	1	-0.011750
39.433333	1	-0.012125
39.450000	1	-0.012375
39.466667	1	-0.013000
39.483333	1	-0.013250
39.500000	1	-0.013625
39.516667	1	-0.014125
39.533333	1	-0.014250
39.550000	1	-0.013750
39.566667	1	-0.014500
39.583333	1	-0.014875
39.600000	1	-0.014375
39.616667	1	-0.013750
39.633333	1	-0.013250
39.650000	1	-0.013375
39.666667	1	-0.013625
39.683333	1	-0.013250
39.700000	1	-0.013750
39.716667	1	-0.013750
39.733333	1	-0.013625
39.750000	1	-0.013250
39.766667	1	-0.012875
39.783333	1	-0.012875
39.800000	1	-0.012625
39.816667	1	-0.012000
39.833333	1	-0.012375
39.850000	1	-0.011750
39.866667	1	-0.011625
39.883333	1	-0.011125
39.900000	1	-0.010875
39.916667	1	-0.009625
39.933333	1	-0.009750
39.950000	1	-0.009000
39.966667	1	-0.008750
39.983333	1	-0.009000
40.000000	1	-0.008625
