File Path	chrom://marshall/Chromeleon7/HPLC_Ultimate_3000/Users/markusar/20221226.seq/540.smp/RI_1.channel/RI_1.chm
Channel	RI_1

Injection Information:
Data Vault	Chromeleon7
Injection	ri4
Injection Number	5
Position	RA5
Comment	
Processing Method	
Instrument Method	std_method
Type	Unknown
Status	Finished
Injection Date	26.12.2022
Injection Time	18:54:25
Injection Volume (µl)	20.000
Dilution Factor	1.0000
Weight	1.0000

Chromatogram Data Information:
Time Min. (min)	0.000000
Time Max. (min)	40.000000
Data Points	2401
Detector	RI
Generating Data System	Chromeleon 7.2.5.9507
Exporting Data System	Chromeleon 7.2.5.0
Operator	Instrument Controller
Signal Quantity	Refractive 
Signal Unit	µRIU
Signal Min.	-0.031625
Signal Max.	101.746750
Channel	RI_1
Driver Name	RID520Driver.dll
Channel Type	Evaluation
Min. Step (s)	1
Max. Step (s)	1
Average Step (s)	1

Signal Parameter Information:
Signal Info	

Chromatogram Data:
Time (min)	Step (s)	Value (µRIU)
0.000000	n.a.	0.128500
0.016667	1	0.128750
0.033333	1	0.129750
0.050000	1	0.130500
0.066667	1	0.130750
0.083333	1	0.131125
0.100000	1	0.131625
0.116667	1	0.131500
0.133333	1	0.130750
0.150000	1	0.130125
0.166667	1	0.130375
0.183333	1	0.130500
0.200000	1	0.129750
0.216667	1	0.128625
0.233333	1	0.127875
0.250000	1	0.127875
0.266667	1	0.126875
0.283333	1	0.124250
0.300000	1	0.120625
0.316667	1	0.115875
0.333333	1	0.114000
0.350000	1	0.114625
0.366667	1	0.117750
0.383333	1	0.120750
0.400000	1	0.121750
0.416667	1	0.122250
0.433333	1	0.121875
0.450000	1	0.121500
0.466667	1	0.119625
0.483333	1	0.116000
0.500000	1	0.111125
0.516667	1	0.105875
0.533333	1	0.101125
0.550000	1	0.097375
0.566667	1	0.094500
0.583333	1	0.092125
0.600000	1	0.089500
0.616667	1	0.086875
0.633333	1	0.085250
0.650000	1	0.083125
0.666667	1	0.081375
0.683333	1	0.079000
0.700000	1	0.077625
0.716667	1	0.076125
0.733333	1	0.074500
0.750000	1	0.073125
0.766667	1	0.072500
0.783333	1	0.071625
0.800000	1	0.070250
0.816667	1	0.069125
0.833333	1	0.068875
0.850000	1	0.067750
0.866667	1	0.067250
0.883333	1	0.067000
0.900000	1	0.067000
0.916667	1	0.066750
0.933333	1	0.066500
0.950000	1	0.066625
0.966667	1	0.066500
0.983333	1	0.067125
1.000000	1	0.067000
1.016667	1	0.066750
1.033333	1	0.066750
1.050000	1	0.066750
1.066667	1	0.067125
1.083333	1	0.067125
1.100000	1	0.067250
1.116667	1	0.068125
1.133333	1	0.068000
1.150000	1	0.068000
1.166667	1	0.068625
1.183333	1	0.068500
1.200000	1	0.068625
1.216667	1	0.068125
1.233333	1	0.068125
1.250000	1	0.068000
1.266667	1	0.067875
1.283333	1	0.067500
1.300000	1	0.067125
1.316667	1	0.067000
1.333333	1	0.066750
1.350000	1	0.066125
1.366667	1	0.065875
1.383333	1	0.064500
1.400000	1	0.063750
1.416667	1	0.062750
1.433333	1	0.062000
1.450000	1	0.061500
1.466667	1	0.061250
1.483333	1	0.059750
1.500000	1	0.057875
1.516667	1	0.057125
1.533333	1	0.055875
1.550000	1	0.054625
1.566667	1	0.053000
1.583333	1	0.051625
1.600000	1	0.050500
1.616667	1	0.049250
1.633333	1	0.047625
1.650000	1	0.046500
1.666667	1	0.044750
1.683333	1	0.043875
1.700000	1	0.042750
1.716667	1	0.041500
1.733333	1	0.039375
1.750000	1	0.038125
1.766667	1	0.037125
1.783333	1	0.036125
1.800000	1	0.034750
1.816667	1	0.033750
1.833333	1	0.032250
1.850000	1	0.030375
1.866667	1	0.029125
1.883333	1	0.027625
1.900000	1	0.026250
1.916667	1	0.024625
1.933333	1	0.023250
1.950000	1	0.022000
1.966667	1	0.021125
1.983333	1	0.020000
2.000000	1	0.018625
2.016667	1	0.017875
2.033333	1	0.017250
2.050000	1	0.016625
2.066667	1	0.014875
2.083333	1	0.012750
2.100000	1	0.011250
2.116667	1	0.009125
2.133333	1	0.007875
2.150000	1	0.006500
2.166667	1	0.005000
2.183333	1	0.003375
2.200000	1	0.001625
2.216667	1	0.000000
2.233333	1	-0.000875
2.250000	1	-0.003250
2.266667	1	-0.004750
2.283333	1	-0.006125
2.300000	1	-0.007500
2.316667	1	-0.009000
2.333333	1	-0.010250
2.350000	1	-0.011500
2.366667	1	-0.012625
2.383333	1	-0.013875
2.400000	1	-0.016000
2.416667	1	-0.017875
2.433333	1	-0.019500
2.450000	1	-0.020375
2.466667	1	-0.022125
2.483333	1	-0.022875
2.500000	1	-0.023875
2.516667	1	-0.025125
2.533333	1	-0.026000
2.550000	1	-0.027000
2.566667	1	-0.028125
2.583333	1	-0.028625
2.600000	1	-0.029750
2.616667	1	-0.030250
2.633333	1	-0.030750
2.650000	1	-0.031125
2.666667	1	-0.031625
2.683333	1	-0.031625
2.700000	1	-0.031375
2.716667	1	-0.030500
2.733333	1	-0.030875
2.750000	1	-0.031500
2.766667	1	-0.030375
2.783333	1	-0.029750
2.800000	1	-0.029125
2.816667	1	-0.028125
2.833333	1	-0.027625
2.850000	1	-0.026750
2.866667	1	-0.025750
2.883333	1	-0.024625
2.900000	1	-0.022875
2.916667	1	-0.021000
2.933333	1	-0.018750
2.950000	1	-0.016750
2.966667	1	-0.015625
2.983333	1	-0.013750
3.000000	1	-0.012375
3.016667	1	-0.010500
3.033333	1	-0.009000
3.050000	1	-0.006750
3.066667	1	-0.004500
3.083333	1	-0.002625
3.100000	1	-0.001375
3.116667	1	0.000000
3.133333	1	0.002500
3.150000	1	0.004875
3.166667	1	0.007125
3.183333	1	0.008875
3.200000	1	0.010750
3.216667	1	0.012750
3.233333	1	0.014125
3.250000	1	0.015875
3.266667	1	0.017625
3.283333	1	0.020125
3.300000	1	0.021875
3.316667	1	0.024375
3.333333	1	0.026000
3.350000	1	0.028125
3.366667	1	0.030000
3.383333	1	0.031750
3.400000	1	0.033250
3.416667	1	0.035500
3.433333	1	0.036750
3.450000	1	0.038250
3.466667	1	0.040500
3.483333	1	0.041750
3.500000	1	0.042875
3.516667	1	0.043875
3.533333	1	0.045250
3.550000	1	0.046375
3.566667	1	0.047750
3.583333	1	0.049375
3.600000	1	0.049750
3.616667	1	0.051375
3.633333	1	0.052375
3.650000	1	0.053875
3.666667	1	0.054875
3.683333	1	0.055875
3.700000	1	0.056875
3.716667	1	0.057500
3.733333	1	0.058875
3.750000	1	0.060375
3.766667	1	0.061375
3.783333	1	0.062500
3.800000	1	0.063375
3.816667	1	0.063875
3.833333	1	0.065250
3.850000	1	0.065875
3.866667	1	0.066750
3.883333	1	0.068500
3.900000	1	0.069625
3.916667	1	0.071000
3.933333	1	0.072500
3.950000	1	0.073500
3.966667	1	0.074375
3.983333	1	0.076250
4.000000	1	0.077625
4.016667	1	0.079125
4.033333	1	0.080000
4.050000	1	0.081750
4.066667	1	0.083875
4.083333	1	0.084625
4.100000	1	0.085500
4.116667	1	0.086875
4.133333	1	0.088625
4.150000	1	0.089250
4.166667	1	0.089875
4.183333	1	0.091125
4.200000	1	0.092500
4.216667	1	0.093750
4.233333	1	0.094375
4.250000	1	0.095375
4.266667	1	0.096000
4.283333	1	0.096875
4.300000	1	0.097625
4.316667	1	0.098500
4.333333	1	0.099500
4.350000	1	0.100250
4.366667	1	0.101625
4.383333	1	0.102375
4.400000	1	0.102875
4.416667	1	0.103750
4.433333	1	0.105250
4.450000	1	0.105375
4.466667	1	0.105000
4.483333	1	0.106000
4.500000	1	0.106250
4.516667	1	0.106125
4.533333	1	0.106750
4.550000	1	0.107125
4.566667	1	0.107375
4.583333	1	0.107500
4.600000	1	0.107500
4.616667	1	0.107375
4.633333	1	0.107250
4.650000	1	0.107000
4.666667	1	0.106625
4.683333	1	0.106375
4.700000	1	0.105875
4.716667	1	0.105500
4.733333	1	0.105750
4.750000	1	0.105375
4.766667	1	0.104375
4.783333	1	0.103750
4.800000	1	0.103125
4.816667	1	0.102250
4.833333	1	0.100875
4.850000	1	0.100500
4.866667	1	0.099750
4.883333	1	0.099000
4.900000	1	0.097875
4.916667	1	0.097125
4.933333	1	0.096500
4.950000	1	0.095125
4.966667	1	0.093750
4.983333	1	0.093250
5.000000	1	0.092125
5.016667	1	0.090875
5.033333	1	0.090750
5.050000	1	0.089875
5.066667	1	0.088875
5.083333	1	0.088125
5.100000	1	0.087125
5.116667	1	0.086750
5.133333	1	0.086750
5.150000	1	0.086000
5.166667	1	0.086250
5.183333	1	0.085750
5.200000	1	0.086000
5.216667	1	0.086125
5.233333	1	0.085625
5.250000	1	0.085875
5.266667	1	0.086875
5.283333	1	0.087375
5.300000	1	0.088500
5.316667	1	0.089000
5.333333	1	0.089500
5.350000	1	0.090500
5.366667	1	0.091375
5.383333	1	0.092375
5.400000	1	0.094125
5.416667	1	0.095625
5.433333	1	0.096500
5.450000	1	0.098000
5.466667	1	0.099000
5.483333	1	0.100750
5.500000	1	0.102875
5.516667	1	0.105625
5.533333	1	0.107625
5.550000	1	0.110375
5.566667	1	0.112000
5.583333	1	0.114375
5.600000	1	0.116250
5.616667	1	0.117750
5.633333	1	0.120000
5.650000	1	0.122250
5.666667	1	0.124375
5.683333	1	0.126375
5.700000	1	0.128250
5.716667	1	0.130375
5.733333	1	0.132500
5.750000	1	0.134500
5.766667	1	0.136250
5.783333	1	0.138000
5.800000	1	0.139375
5.816667	1	0.141125
5.833333	1	0.142375
5.850000	1	0.144375
5.866667	1	0.145625
5.883333	1	0.147375
5.900000	1	0.149250
5.916667	1	0.151375
5.933333	1	0.152625
5.950000	1	0.153250
5.966667	1	0.154250
5.983333	1	0.155625
6.000000	1	0.156375
6.016667	1	0.157625
6.033333	1	0.159000
6.050000	1	0.160250
6.066667	1	0.161625
6.083333	1	0.163250
6.100000	1	0.164125
6.116667	1	0.165375
6.133333	1	0.166500
6.150000	1	0.167625
6.166667	1	0.169250
6.183333	1	0.170125
6.200000	1	0.171125
6.216667	1	0.172000
6.233333	1	0.172750
6.250000	1	0.173750
6.266667	1	0.174625
6.283333	1	0.175625
6.300000	1	0.176250
6.316667	1	0.177500
6.333333	1	0.178625
6.350000	1	0.179000
6.366667	1	0.179625
6.383333	1	0.180375
6.400000	1	0.181750
6.416667	1	0.182500
6.433333	1	0.183000
6.450000	1	0.184000
6.466667	1	0.185125
6.483333	1	0.185625
6.500000	1	0.186500
6.516667	1	0.186500
6.533333	1	0.187625
6.550000	1	0.187625
6.566667	1	0.187750
6.583333	1	0.188625
6.600000	1	0.188625
6.616667	1	0.188625
6.633333	1	0.188750
6.650000	1	0.189500
6.666667	1	0.190125
6.683333	1	0.190500
6.700000	1	0.189875
6.716667	1	0.191125
6.733333	1	0.191750
6.750000	1	0.192500
6.766667	1	0.192875
6.783333	1	0.193500
6.800000	1	0.194250
6.816667	1	0.195500
6.833333	1	0.196125
6.850000	1	0.196250
6.866667	1	0.196875
6.883333	1	0.198125
6.900000	1	0.199375
6.916667	1	0.200125
6.933333	1	0.201125
6.950000	1	0.202125
6.966667	1	0.203375
6.983333	1	0.203375
7.000000	1	0.204125
7.016667	1	0.204375
7.033333	1	0.204250
7.050000	1	0.205375
7.066667	1	0.206625
7.083333	1	0.207875
7.100000	1	0.208750
7.116667	1	0.209750
7.133333	1	0.210375
7.150000	1	0.211000
7.166667	1	0.211375
7.183333	1	0.212125
7.200000	1	0.212875
7.216667	1	0.213250
7.233333	1	0.214250
7.250000	1	0.214750
7.266667	1	0.215500
7.283333	1	0.216000
7.300000	1	0.216875
7.316667	1	0.217875
7.333333	1	0.218125
7.350000	1	0.217750
7.366667	1	0.218875
7.383333	1	0.219125
7.400000	1	0.219000
7.416667	1	0.219500
7.433333	1	0.220500
7.450000	1	0.220750
7.466667	1	0.221125
7.483333	1	0.221750
7.500000	1	0.221500
7.516667	1	0.221500
7.533333	1	0.222000
7.550000	1	0.221750
7.566667	1	0.221875
7.583333	1	0.221500
7.600000	1	0.221875
7.616667	1	0.221875
7.633333	1	0.222250
7.650000	1	0.221875
7.666667	1	0.221500
7.683333	1	0.221250
7.700000	1	0.220125
7.716667	1	0.220000
7.733333	1	0.219250
7.750000	1	0.218875
7.766667	1	0.218125
7.783333	1	0.217250
7.800000	1	0.216500
7.816667	1	0.216000
7.833333	1	0.215000
7.850000	1	0.214625
7.866667	1	0.214000
7.883333	1	0.212750
7.900000	1	0.212000
7.916667	1	0.210250
7.933333	1	0.209000
7.950000	1	0.207625
7.966667	1	0.206625
7.983333	1	0.204875
8.000000	1	0.203250
8.016667	1	0.201375
8.033333	1	0.200000
8.050000	1	0.198125
8.066667	1	0.195875
8.083333	1	0.194125
8.100000	1	0.192125
8.116667	1	0.190000
8.133333	1	0.187375
8.150000	1	0.184625
8.166667	1	0.182000
8.183333	1	0.179625
8.200000	1	0.176750
8.216667	1	0.173500
8.233333	1	0.170500
8.250000	1	0.168000
8.266667	1	0.164875
8.283333	1	0.162375
8.300000	1	0.160250
8.316667	1	0.157000
8.333333	1	0.154250
8.350000	1	0.151375
8.366667	1	0.148750
8.383333	1	0.146625
8.400000	1	0.143375
8.416667	1	0.140750
8.433333	1	0.138625
8.450000	1	0.136375
8.466667	1	0.134500
8.483333	1	0.132500
8.500000	1	0.130625
8.516667	1	0.128875
8.533333	1	0.127500
8.550000	1	0.126250
8.566667	1	0.124750
8.583333	1	0.123375
8.600000	1	0.122125
8.616667	1	0.121000
8.633333	1	0.120875
8.650000	1	0.120375
8.666667	1	0.119625
8.683333	1	0.119375
8.700000	1	0.119125
8.716667	1	0.119000
8.733333	1	0.118750
8.750000	1	0.118875
8.766667	1	0.119000
8.783333	1	0.119375
8.800000	1	0.119500
8.816667	1	0.120000
8.833333	1	0.121000
8.850000	1	0.121250
8.866667	1	0.122125
8.883333	1	0.123125
8.900000	1	0.124000
8.916667	1	0.125625
8.933333	1	0.126500
8.950000	1	0.127375
8.966667	1	0.128375
8.983333	1	0.129625
9.000000	1	0.131250
9.016667	1	0.132750
9.033333	1	0.134250
9.050000	1	0.136000
9.066667	1	0.137500
9.083333	1	0.138750
9.100000	1	0.140750
9.116667	1	0.142750
9.133333	1	0.145125
9.150000	1	0.147125
9.166667	1	0.149250
9.183333	1	0.151375
9.200000	1	0.153625
9.216667	1	0.156250
9.233333	1	0.159375
9.250000	1	0.162625
9.266667	1	0.165500
9.283333	1	0.168750
9.300000	1	0.172125
9.316667	1	0.175875
9.333333	1	0.179250
9.350000	1	0.183625
9.366667	1	0.187750
9.383333	1	0.191875
9.400000	1	0.196000
9.416667	1	0.201500
9.433333	1	0.207000
9.450000	1	0.213000
9.466667	1	0.219375
9.483333	1	0.227000
9.500000	1	0.235375
9.516667	1	0.244125
9.533333	1	0.254125
9.550000	1	0.265625
9.566667	1	0.279125
9.583333	1	0.295000
9.600000	1	0.313625
9.616667	1	0.334875
9.633333	1	0.359500
9.650000	1	0.388500
9.666667	1	0.421250
9.683333	1	0.458500
9.700000	1	0.500875
9.716667	1	0.547875
9.733333	1	0.600375
9.750000	1	0.658500
9.766667	1	0.722375
9.783333	1	0.790375
9.800000	1	0.857250
9.816667	1	0.914125
9.833333	1	0.947125
9.850000	1	0.941375
9.866667	1	0.892250
9.883333	1	0.812250
9.900000	1	0.736875
9.916667	1	0.717125
9.933333	1	0.817500
9.950000	1	1.098125
9.966667	1	1.613250
9.983333	1	2.409000
10.000000	1	3.521375
10.016667	1	4.982625
10.033333	1	6.816500
10.050000	1	9.041250
10.066667	1	11.668125
10.083333	1	14.707625
10.100000	1	18.160750
10.116667	1	22.019625
10.133333	1	26.265625
10.150000	1	30.867125
10.166667	1	35.780000
10.183333	1	40.950250
10.200000	1	46.325500
10.216667	1	51.849250
10.233333	1	57.461500
10.250000	1	63.094000
10.266667	1	68.684875
10.283333	1	74.166375
10.300000	1	79.459625
10.316667	1	84.468500
10.333333	1	89.081000
10.350000	1	93.169125
10.366667	1	96.600625
10.383333	1	99.244750
10.400000	1	100.989375
10.416667	1	101.746750
10.433333	1	101.457375
10.450000	1	100.097250
10.466667	1	97.667750
10.483333	1	94.196375
10.500000	1	89.734875
10.516667	1	84.366625
10.533333	1	78.202500
10.550000	1	71.383500
10.566667	1	64.093500
10.583333	1	56.582250
10.600000	1	49.169125
10.616667	1	42.195375
10.633333	1	35.948375
10.650000	1	30.595500
10.666667	1	26.163125
10.683333	1	22.581375
10.700000	1	19.730625
10.716667	1	17.479000
10.733333	1	15.703750
10.750000	1	14.299875
10.766667	1	13.185125
10.783333	1	12.295125
10.800000	1	11.581500
10.816667	1	11.006000
10.833333	1	10.538250
10.850000	1	10.153375
10.866667	1	9.829500
10.883333	1	9.548625
10.900000	1	9.293875
10.916667	1	9.053000
10.933333	1	8.814625
10.950000	1	8.569375
10.966667	1	8.311000
10.983333	1	8.035250
11.000000	1	7.739250
11.016667	1	7.424125
11.033333	1	7.093750
11.050000	1	6.753500
11.066667	1	6.410375
11.083333	1	6.071875
11.100000	1	5.745375
11.116667	1	5.437875
11.133333	1	5.152625
11.150000	1	4.892250
11.166667	1	4.657875
11.183333	1	4.448875
11.200000	1	4.264000
11.216667	1	4.101875
11.233333	1	3.959875
11.250000	1	3.836250
11.266667	1	3.730000
11.283333	1	3.638125
11.300000	1	3.558000
11.316667	1	3.490250
11.333333	1	3.432500
11.350000	1	3.384375
11.366667	1	3.344125
11.383333	1	3.311375
11.400000	1	3.285250
11.416667	1	3.262875
11.433333	1	3.243875
11.450000	1	3.226375
11.466667	1	3.210000
11.483333	1	3.192875
11.500000	1	3.173500
11.516667	1	3.152500
11.533333	1	3.128625
11.550000	1	3.101250
11.566667	1	3.071625
11.583333	1	3.040375
11.600000	1	3.007875
11.616667	1	2.974125
11.633333	1	2.940250
11.650000	1	2.907000
11.666667	1	2.874000
11.683333	1	2.841125
11.700000	1	2.809000
11.716667	1	2.778375
11.733333	1	2.748750
11.750000	1	2.721250
11.766667	1	2.694625
11.783333	1	2.670000
11.800000	1	2.646625
11.816667	1	2.625500
11.833333	1	2.605250
11.850000	1	2.586750
11.866667	1	2.568250
11.883333	1	2.550500
11.900000	1	2.533125
11.916667	1	2.515000
11.933333	1	2.495625
11.950000	1	2.474750
11.966667	1	2.453625
11.983333	1	2.430375
12.000000	1	2.405750
12.016667	1	2.381125
12.033333	1	2.355875
12.050000	1	2.330875
12.066667	1	2.307875
12.083333	1	2.288750
12.100000	1	2.273000
12.116667	1	2.263375
12.133333	1	2.260750
12.150000	1	2.268875
12.166667	1	2.288125
12.183333	1	2.320500
12.200000	1	2.367500
12.216667	1	2.430875
12.233333	1	2.513625
12.250000	1	2.618500
12.266667	1	2.748250
12.283333	1	2.906000
12.300000	1	3.093375
12.316667	1	3.314250
12.333333	1	3.569000
12.350000	1	3.857000
12.366667	1	4.179000
12.383333	1	4.532500
12.400000	1	4.914625
12.416667	1	5.324750
12.433333	1	5.760250
12.450000	1	6.220125
12.466667	1	6.702250
12.483333	1	7.207125
12.500000	1	7.733000
12.516667	1	8.278375
12.533333	1	8.840750
12.550000	1	9.416250
12.566667	1	9.998500
12.583333	1	10.582375
12.600000	1	11.161625
12.616667	1	11.727875
12.633333	1	12.276250
12.650000	1	12.799875
12.666667	1	13.292500
12.683333	1	13.751000
12.700000	1	14.169375
12.716667	1	14.544375
12.733333	1	14.873375
12.750000	1	15.153750
12.766667	1	15.385000
12.783333	1	15.565375
12.800000	1	15.695875
12.816667	1	15.777000
12.833333	1	15.809750
12.850000	1	15.795875
12.866667	1	15.740375
12.883333	1	15.646750
12.900000	1	15.518750
12.916667	1	15.364250
12.933333	1	15.187250
12.950000	1	14.994125
12.966667	1	14.791000
12.983333	1	14.581000
13.000000	1	14.367250
13.016667	1	14.150125
13.033333	1	13.932625
13.050000	1	13.715750
13.066667	1	13.499750
13.083333	1	13.285375
13.100000	1	13.074000
13.116667	1	12.865750
13.133333	1	12.661875
13.150000	1	12.463375
13.166667	1	12.269000
13.183333	1	12.079375
13.200000	1	11.893250
13.216667	1	11.710750
13.233333	1	11.531375
13.250000	1	11.354500
13.266667	1	11.179375
13.283333	1	11.005500
13.300000	1	10.832125
13.316667	1	10.656750
13.333333	1	10.480750
13.350000	1	10.303000
13.366667	1	10.123750
13.383333	1	9.943250
13.400000	1	9.760750
13.416667	1	9.577000
13.433333	1	9.389875
13.450000	1	9.200750
13.466667	1	9.007750
13.483333	1	8.809625
13.500000	1	8.604500
13.516667	1	8.389625
13.533333	1	8.162750
13.550000	1	7.920375
13.566667	1	7.661500
13.583333	1	7.383875
13.600000	1	7.086875
13.616667	1	6.771625
13.633333	1	6.439500
13.650000	1	6.095125
13.666667	1	5.748375
13.683333	1	5.414750
13.700000	1	5.109625
13.716667	1	4.847125
13.733333	1	4.632250
13.750000	1	4.459750
13.766667	1	4.325000
13.783333	1	4.219625
13.800000	1	4.135500
13.816667	1	4.068375
13.833333	1	4.013500
13.850000	1	3.967125
13.866667	1	3.928125
13.883333	1	3.893875
13.900000	1	3.862125
13.916667	1	3.832625
13.933333	1	3.803000
13.950000	1	3.772500
13.966667	1	3.741000
13.983333	1	3.706625
14.000000	1	3.669375
14.016667	1	3.630000
14.033333	1	3.587500
14.050000	1	3.544000
14.066667	1	3.500750
14.083333	1	3.459375
14.100000	1	3.422500
14.116667	1	3.391250
14.133333	1	3.367875
14.150000	1	3.354125
14.166667	1	3.352875
14.183333	1	3.365125
14.200000	1	3.391625
14.216667	1	3.433625
14.233333	1	3.491625
14.250000	1	3.565125
14.266667	1	3.654250
14.283333	1	3.758500
14.300000	1	3.876875
14.316667	1	4.006875
14.333333	1	4.147125
14.350000	1	4.296375
14.366667	1	4.452750
14.383333	1	4.614000
14.400000	1	4.778750
14.416667	1	4.944500
14.433333	1	5.109375
14.450000	1	5.271125
14.466667	1	5.427500
14.483333	1	5.578750
14.500000	1	5.723625
14.516667	1	5.863375
14.533333	1	5.999625
14.550000	1	6.136750
14.566667	1	6.281250
14.583333	1	6.440500
14.600000	1	6.623500
14.616667	1	6.838500
14.633333	1	7.094125
14.650000	1	7.396625
14.666667	1	7.751500
14.683333	1	8.157875
14.700000	1	8.615500
14.716667	1	9.117250
14.733333	1	9.658875
14.750000	1	10.231000
14.766667	1	10.826375
14.783333	1	11.439750
14.800000	1	12.066500
14.816667	1	12.706125
14.833333	1	13.360250
14.850000	1	14.029875
14.866667	1	14.716500
14.883333	1	15.420000
14.900000	1	16.138250
14.916667	1	16.863875
14.933333	1	17.586250
14.950000	1	18.293500
14.966667	1	18.970125
14.983333	1	19.599500
15.000000	1	20.165000
15.016667	1	20.653375
15.033333	1	21.051125
15.050000	1	21.344875
15.066667	1	21.525750
15.083333	1	21.587000
15.100000	1	21.522875
15.116667	1	21.331125
15.133333	1	21.012750
15.150000	1	20.569000
15.166667	1	20.006000
15.183333	1	19.331875
15.200000	1	18.558250
15.216667	1	17.697875
15.233333	1	16.764875
15.250000	1	15.775250
15.266667	1	14.746875
15.283333	1	13.697250
15.300000	1	12.647250
15.316667	1	11.621750
15.333333	1	10.641625
15.350000	1	9.725500
15.366667	1	8.883500
15.383333	1	8.121750
15.400000	1	7.437375
15.416667	1	6.826500
15.433333	1	6.284875
15.450000	1	5.806750
15.466667	1	5.387500
15.483333	1	5.021750
15.500000	1	4.704250
15.516667	1	4.430500
15.533333	1	4.196000
15.550000	1	3.997000
15.566667	1	3.830125
15.583333	1	3.693250
15.600000	1	3.582750
15.616667	1	3.497125
15.633333	1	3.434250
15.650000	1	3.392250
15.666667	1	3.369000
15.683333	1	3.361750
15.700000	1	3.367500
15.716667	1	3.386000
15.733333	1	3.413375
15.750000	1	3.449500
15.766667	1	3.492250
15.783333	1	3.539750
15.800000	1	3.592625
15.816667	1	3.650250
15.833333	1	3.712625
15.850000	1	3.781625
15.866667	1	3.858250
15.883333	1	3.945875
15.900000	1	4.046500
15.916667	1	4.160875
15.933333	1	4.290875
15.950000	1	4.436875
15.966667	1	4.597000
15.983333	1	4.770500
16.000000	1	4.954625
16.016667	1	5.145750
16.033333	1	5.340250
16.050000	1	5.534625
16.066667	1	5.726375
16.083333	1	5.912625
16.100000	1	6.093250
16.116667	1	6.267250
16.133333	1	6.436375
16.150000	1	6.599875
16.166667	1	6.759375
16.183333	1	6.915750
16.200000	1	7.067375
16.216667	1	7.215125
16.233333	1	7.356875
16.250000	1	7.490250
16.266667	1	7.613125
16.283333	1	7.722625
16.300000	1	7.816250
16.316667	1	7.891125
16.333333	1	7.945750
16.350000	1	7.977250
16.366667	1	7.983375
16.383333	1	7.964250
16.400000	1	7.917875
16.416667	1	7.842750
16.433333	1	7.740500
16.450000	1	7.608375
16.466667	1	7.448000
16.483333	1	7.259750
16.500000	1	7.044375
16.516667	1	6.806250
16.533333	1	6.547750
16.550000	1	6.273125
16.566667	1	5.986750
16.583333	1	5.693500
16.600000	1	5.398000
16.616667	1	5.105500
16.633333	1	4.819625
16.650000	1	4.544000
16.666667	1	4.282875
16.683333	1	4.038250
16.700000	1	3.811500
16.716667	1	3.604125
16.733333	1	3.415875
16.750000	1	3.246250
16.766667	1	3.095250
16.783333	1	2.962500
16.800000	1	2.845750
16.816667	1	2.743125
16.833333	1	2.653250
16.850000	1	2.574875
16.866667	1	2.507000
16.883333	1	2.448250
16.900000	1	2.396375
16.916667	1	2.350625
16.933333	1	2.311000
16.950000	1	2.274250
16.966667	1	2.241250
16.983333	1	2.211125
17.000000	1	2.183250
17.016667	1	2.156625
17.033333	1	2.131875
17.050000	1	2.108375
17.066667	1	2.087125
17.083333	1	2.066375
17.100000	1	2.048000
17.116667	1	2.030250
17.133333	1	2.013125
17.150000	1	1.997000
17.166667	1	1.982375
17.183333	1	1.968750
17.200000	1	1.956625
17.216667	1	1.945375
17.233333	1	1.934375
17.250000	1	1.924750
17.266667	1	1.915125
17.283333	1	1.906750
17.300000	1	1.899500
17.316667	1	1.891875
17.333333	1	1.884750
17.350000	1	1.878000
17.366667	1	1.871500
17.383333	1	1.865625
17.400000	1	1.859500
17.416667	1	1.854000
17.433333	1	1.849125
17.450000	1	1.845375
17.466667	1	1.842125
17.483333	1	1.839750
17.500000	1	1.838750
17.516667	1	1.838250
17.533333	1	1.840250
17.550000	1	1.842375
17.566667	1	1.845875
17.583333	1	1.851750
17.600000	1	1.858625
17.616667	1	1.867125
17.633333	1	1.878250
17.650000	1	1.890875
17.666667	1	1.904875
17.683333	1	1.920750
17.700000	1	1.938125
17.716667	1	1.956375
17.733333	1	1.976625
17.750000	1	1.998125
17.766667	1	2.020875
17.783333	1	2.044125
17.800000	1	2.068375
17.816667	1	2.094625
17.833333	1	2.120625
17.850000	1	2.147250
17.866667	1	2.174500
17.883333	1	2.201875
17.900000	1	2.229000
17.916667	1	2.256750
17.933333	1	2.283500
17.950000	1	2.308875
17.966667	1	2.333125
17.983333	1	2.355875
18.000000	1	2.376875
18.016667	1	2.396375
18.033333	1	2.413625
18.050000	1	2.429125
18.066667	1	2.442250
18.083333	1	2.452875
18.100000	1	2.460875
18.116667	1	2.467125
18.133333	1	2.469000
18.150000	1	2.469000
18.166667	1	2.467250
18.183333	1	2.462625
18.200000	1	2.456125
18.216667	1	2.447375
18.233333	1	2.435875
18.250000	1	2.422750
18.266667	1	2.407875
18.283333	1	2.390375
18.300000	1	2.372250
18.316667	1	2.351750
18.333333	1	2.330000
18.350000	1	2.307625
18.366667	1	2.284250
18.383333	1	2.260625
18.400000	1	2.236000
18.416667	1	2.211625
18.433333	1	2.186500
18.450000	1	2.161750
18.466667	1	2.137250
18.483333	1	2.112750
18.500000	1	2.088375
18.516667	1	2.064875
18.533333	1	2.041875
18.550000	1	2.019500
18.566667	1	1.996875
18.583333	1	1.975000
18.600000	1	1.953375
18.616667	1	1.932750
18.633333	1	1.912750
18.650000	1	1.892625
18.666667	1	1.873625
18.683333	1	1.854875
18.700000	1	1.837125
18.716667	1	1.820125
18.733333	1	1.803250
18.750000	1	1.787250
18.766667	1	1.772750
18.783333	1	1.758250
18.800000	1	1.744625
18.816667	1	1.732250
18.833333	1	1.721250
18.850000	1	1.711625
18.866667	1	1.702750
18.883333	1	1.696375
18.900000	1	1.691000
18.916667	1	1.688250
18.933333	1	1.687250
18.950000	1	1.689125
18.966667	1	1.692125
18.983333	1	1.699125
19.000000	1	1.707125
19.016667	1	1.717000
19.033333	1	1.728625
19.050000	1	1.742875
19.066667	1	1.758500
19.083333	1	1.776125
19.100000	1	1.794500
19.116667	1	1.813250
19.133333	1	1.834750
19.150000	1	1.856250
19.166667	1	1.879000
19.183333	1	1.903500
19.200000	1	1.928750
19.216667	1	1.954500
19.233333	1	1.981625
19.250000	1	2.008875
19.266667	1	2.037125
19.283333	1	2.065750
19.300000	1	2.094250
19.316667	1	2.122500
19.333333	1	2.150875
19.350000	1	2.178000
19.366667	1	2.204750
19.383333	1	2.229375
19.400000	1	2.253250
19.416667	1	2.275750
19.433333	1	2.295625
19.450000	1	2.314000
19.466667	1	2.329750
19.483333	1	2.343250
19.500000	1	2.353625
19.516667	1	2.360750
19.533333	1	2.364875
19.550000	1	2.366375
19.566667	1	2.364000
19.583333	1	2.358750
19.600000	1	2.349375
19.616667	1	2.337875
19.633333	1	2.323000
19.650000	1	2.305375
19.666667	1	2.284750
19.683333	1	2.261125
19.700000	1	2.235375
19.716667	1	2.207875
19.733333	1	2.180250
19.750000	1	2.150875
19.766667	1	2.120750
19.783333	1	2.090875
19.800000	1	2.061875
19.816667	1	2.033125
19.833333	1	2.004875
19.850000	1	1.978500
19.866667	1	1.953875
19.883333	1	1.931000
19.900000	1	1.911000
19.916667	1	1.893250
19.933333	1	1.878500
19.950000	1	1.866250
19.966667	1	1.858250
19.983333	1	1.852750
20.000000	1	1.850750
20.016667	1	1.852375
20.033333	1	1.856625
20.050000	1	1.864625
20.066667	1	1.875125
20.083333	1	1.889375
20.100000	1	1.906000
20.116667	1	1.924500
20.133333	1	1.945125
20.150000	1	1.968250
20.166667	1	1.992875
20.183333	1	2.018875
20.200000	1	2.046000
20.216667	1	2.073625
20.233333	1	2.101250
20.250000	1	2.127500
20.266667	1	2.153375
20.283333	1	2.177000
20.300000	1	2.199125
20.316667	1	2.219750
20.333333	1	2.238625
20.350000	1	2.255125
20.366667	1	2.269750
20.383333	1	2.283375
20.400000	1	2.296000
20.416667	1	2.307750
20.433333	1	2.320250
20.450000	1	2.333375
20.466667	1	2.348875
20.483333	1	2.364875
20.500000	1	2.384125
20.516667	1	2.405500
20.533333	1	2.431000
20.550000	1	2.459750
20.566667	1	2.492625
20.583333	1	2.530375
20.600000	1	2.572250
20.616667	1	2.619125
20.633333	1	2.670375
20.650000	1	2.726500
20.666667	1	2.787000
20.683333	1	2.850000
20.700000	1	2.915875
20.716667	1	2.983125
20.733333	1	3.050875
20.750000	1	3.118625
20.766667	1	3.184125
20.783333	1	3.247375
20.800000	1	3.306750
20.816667	1	3.361875
20.833333	1	3.414500
20.850000	1	3.463750
20.866667	1	3.509375
20.883333	1	3.552500
20.900000	1	3.595125
20.916667	1	3.637125
20.933333	1	3.680750
20.950000	1	3.725000
20.966667	1	3.772375
20.983333	1	3.822375
21.000000	1	3.875125
21.016667	1	3.929625
21.033333	1	3.986250
21.050000	1	4.043125
21.066667	1	4.100125
21.083333	1	4.155250
21.100000	1	4.207750
21.116667	1	4.256250
21.133333	1	4.300375
21.150000	1	4.337750
21.166667	1	4.367250
21.183333	1	4.388000
21.200000	1	4.398000
21.216667	1	4.397250
21.233333	1	4.383625
21.250000	1	4.356250
21.266667	1	4.315500
21.283333	1	4.260500
21.300000	1	4.191250
21.316667	1	4.108250
21.333333	1	4.011375
21.350000	1	3.902750
21.366667	1	3.783500
21.383333	1	3.654750
21.400000	1	3.519625
21.416667	1	3.378625
21.433333	1	3.234000
21.450000	1	3.088500
21.466667	1	2.942875
21.483333	1	2.799500
21.500000	1	2.661000
21.516667	1	2.527000
21.533333	1	2.399750
21.550000	1	2.280875
21.566667	1	2.169000
21.583333	1	2.066000
21.600000	1	1.971125
21.616667	1	1.885250
21.633333	1	1.807125
21.650000	1	1.737375
21.666667	1	1.675250
21.683333	1	1.620375
21.700000	1	1.573000
21.716667	1	1.531125
21.733333	1	1.494375
21.750000	1	1.463000
21.766667	1	1.436375
21.783333	1	1.413000
21.800000	1	1.393875
21.816667	1	1.377375
21.833333	1	1.363750
21.850000	1	1.352375
21.866667	1	1.343375
21.883333	1	1.335750
21.900000	1	1.330125
21.916667	1	1.326375
21.933333	1	1.323500
21.950000	1	1.321250
21.966667	1	1.319875
21.983333	1	1.319875
22.000000	1	1.320125
22.016667	1	1.321000
22.033333	1	1.323000
22.050000	1	1.325500
22.066667	1	1.327625
22.083333	1	1.330125
22.100000	1	1.333000
22.116667	1	1.336125
22.133333	1	1.339125
22.150000	1	1.342000
22.166667	1	1.345250
22.183333	1	1.347875
22.200000	1	1.350375
22.216667	1	1.352125
22.233333	1	1.354125
22.250000	1	1.355625
22.266667	1	1.356125
22.283333	1	1.356375
22.300000	1	1.355875
22.316667	1	1.354250
22.333333	1	1.352500
22.350000	1	1.349625
22.366667	1	1.346500
22.383333	1	1.343250
22.400000	1	1.338750
22.416667	1	1.334750
22.433333	1	1.330000
22.450000	1	1.325250
22.466667	1	1.320125
22.483333	1	1.316000
22.500000	1	1.311375
22.516667	1	1.306875
22.533333	1	1.302750
22.550000	1	1.299250
22.566667	1	1.296250
22.583333	1	1.294000
22.600000	1	1.292125
22.616667	1	1.290500
22.633333	1	1.289500
22.650000	1	1.289625
22.666667	1	1.289625
22.683333	1	1.290625
22.700000	1	1.292625
22.716667	1	1.294750
22.733333	1	1.297250
22.750000	1	1.299750
22.766667	1	1.302750
22.783333	1	1.306000
22.800000	1	1.310250
22.816667	1	1.313625
22.833333	1	1.317500
22.850000	1	1.320125
22.866667	1	1.322375
22.883333	1	1.325500
22.900000	1	1.327875
22.916667	1	1.329875
22.933333	1	1.331250
22.950000	1	1.332250
22.966667	1	1.332875
22.983333	1	1.333250
23.000000	1	1.332125
23.016667	1	1.331000
23.033333	1	1.329875
23.050000	1	1.328125
23.066667	1	1.324875
23.083333	1	1.321875
23.100000	1	1.317125
23.116667	1	1.312625
23.133333	1	1.307250
23.150000	1	1.301250
23.166667	1	1.295375
23.183333	1	1.288625
23.200000	1	1.281125
23.216667	1	1.273625
23.233333	1	1.265375
23.250000	1	1.257000
23.266667	1	1.249000
23.283333	1	1.240625
23.300000	1	1.232500
23.316667	1	1.224375
23.333333	1	1.215875
23.350000	1	1.208375
23.366667	1	1.201750
23.383333	1	1.195250
23.400000	1	1.189750
23.416667	1	1.184875
23.433333	1	1.181125
23.450000	1	1.178500
23.466667	1	1.178000
23.483333	1	1.179000
23.500000	1	1.181375
23.516667	1	1.185875
23.533333	1	1.192250
23.550000	1	1.201250
23.566667	1	1.212875
23.583333	1	1.225875
23.600000	1	1.241875
23.616667	1	1.259000
23.633333	1	1.278500
23.650000	1	1.300000
23.666667	1	1.323375
23.683333	1	1.348500
23.700000	1	1.374375
23.716667	1	1.401000
23.733333	1	1.429250
23.750000	1	1.458750
23.766667	1	1.488625
23.783333	1	1.519750
23.800000	1	1.551500
23.816667	1	1.583625
23.833333	1	1.616750
23.850000	1	1.652000
23.866667	1	1.688250
23.883333	1	1.725000
23.900000	1	1.763625
23.916667	1	1.803125
23.933333	1	1.843750
23.950000	1	1.884375
23.966667	1	1.925750
23.983333	1	1.966875
24.000000	1	2.008750
24.016667	1	2.050125
24.033333	1	2.090625
24.050000	1	2.130125
24.066667	1	2.168625
24.083333	1	2.204875
24.100000	1	2.238875
24.116667	1	2.270500
24.133333	1	2.299125
24.150000	1	2.323750
24.166667	1	2.344750
24.183333	1	2.361125
24.200000	1	2.373250
24.216667	1	2.380375
24.233333	1	2.383000
24.250000	1	2.379750
24.266667	1	2.371625
24.283333	1	2.358125
24.300000	1	2.339875
24.316667	1	2.316000
24.333333	1	2.288375
24.350000	1	2.257125
24.366667	1	2.220500
24.383333	1	2.180250
24.400000	1	2.137750
24.416667	1	2.093875
24.433333	1	2.048625
24.450000	1	2.002125
24.466667	1	1.956125
24.483333	1	1.910875
24.500000	1	1.866375
24.516667	1	1.823750
24.533333	1	1.782875
24.550000	1	1.744750
24.566667	1	1.708875
24.583333	1	1.676500
24.600000	1	1.647625
24.616667	1	1.621625
24.633333	1	1.598625
24.650000	1	1.578500
24.666667	1	1.561375
24.683333	1	1.546750
24.700000	1	1.535125
24.716667	1	1.525125
24.733333	1	1.517000
24.750000	1	1.509875
24.766667	1	1.504500
24.783333	1	1.499750
24.800000	1	1.496000
24.816667	1	1.491750
24.833333	1	1.488000
24.850000	1	1.484875
24.866667	1	1.481500
24.883333	1	1.477625
24.900000	1	1.473000
24.916667	1	1.467125
24.933333	1	1.460500
24.950000	1	1.452250
24.966667	1	1.442875
24.983333	1	1.432875
25.000000	1	1.421000
25.016667	1	1.408625
25.033333	1	1.395250
25.050000	1	1.380750
25.066667	1	1.364625
25.083333	1	1.347750
25.100000	1	1.331125
25.116667	1	1.313500
25.133333	1	1.294375
25.150000	1	1.274875
25.166667	1	1.255625
25.183333	1	1.236000
25.200000	1	1.217000
25.216667	1	1.198625
25.233333	1	1.180250
25.250000	1	1.162125
25.266667	1	1.144875
25.283333	1	1.129000
25.300000	1	1.112875
25.316667	1	1.098375
25.333333	1	1.084750
25.350000	1	1.072500
25.366667	1	1.061375
25.383333	1	1.051500
25.400000	1	1.042875
25.416667	1	1.034875
25.433333	1	1.026500
25.450000	1	1.020500
25.466667	1	1.015625
25.483333	1	1.011375
25.500000	1	1.008250
25.516667	1	1.005875
25.533333	1	1.004875
25.550000	1	1.004125
25.566667	1	1.003500
25.583333	1	1.004000
25.600000	1	1.005500
25.616667	1	1.007375
25.633333	1	1.009000
25.650000	1	1.011125
25.666667	1	1.013500
25.683333	1	1.016250
25.700000	1	1.018750
25.716667	1	1.021750
25.733333	1	1.024750
25.750000	1	1.028625
25.766667	1	1.032375
25.783333	1	1.036500
25.800000	1	1.039750
25.816667	1	1.043875
25.833333	1	1.047500
25.850000	1	1.051375
25.866667	1	1.054750
25.883333	1	1.058375
25.900000	1	1.061625
25.916667	1	1.065625
25.933333	1	1.069125
25.950000	1	1.072500
25.966667	1	1.076375
25.983333	1	1.080500
26.000000	1	1.084125
26.016667	1	1.086875
26.033333	1	1.090375
26.050000	1	1.094250
26.066667	1	1.098250
26.083333	1	1.101875
26.100000	1	1.105625
26.116667	1	1.109750
26.133333	1	1.114000
26.150000	1	1.118500
26.166667	1	1.122375
26.183333	1	1.126625
26.200000	1	1.130875
26.216667	1	1.134500
26.233333	1	1.138750
26.250000	1	1.143125
26.266667	1	1.147500
26.283333	1	1.151875
26.300000	1	1.156250
26.316667	1	1.161125
26.333333	1	1.165750
26.350000	1	1.169500
26.366667	1	1.174625
26.383333	1	1.178375
26.400000	1	1.182250
26.416667	1	1.185125
26.433333	1	1.189000
26.450000	1	1.193000
26.466667	1	1.196000
26.483333	1	1.199125
26.500000	1	1.201750
26.516667	1	1.204250
26.533333	1	1.207125
26.550000	1	1.209625
26.566667	1	1.211625
26.583333	1	1.213875
26.600000	1	1.215625
26.616667	1	1.217125
26.633333	1	1.218125
26.650000	1	1.218750
26.666667	1	1.218625
26.683333	1	1.218750
26.700000	1	1.218625
26.716667	1	1.218000
26.733333	1	1.216500
26.750000	1	1.215250
26.766667	1	1.214000
26.783333	1	1.211875
26.800000	1	1.208750
26.816667	1	1.205750
26.833333	1	1.202250
26.850000	1	1.198875
26.866667	1	1.194625
26.883333	1	1.189875
26.900000	1	1.184375
26.916667	1	1.179125
26.933333	1	1.173000
26.950000	1	1.166625
26.966667	1	1.160250
26.983333	1	1.153000
27.000000	1	1.146000
27.016667	1	1.137875
27.033333	1	1.129750
27.050000	1	1.122250
27.066667	1	1.114375
27.083333	1	1.106000
27.100000	1	1.098125
27.116667	1	1.089875
27.133333	1	1.082000
27.150000	1	1.073750
27.166667	1	1.066250
27.183333	1	1.058250
27.200000	1	1.050250
27.216667	1	1.042625
27.233333	1	1.035500
27.250000	1	1.029875
27.266667	1	1.024375
27.283333	1	1.019125
27.300000	1	1.014500
27.316667	1	1.010125
27.333333	1	1.006500
27.350000	1	1.003750
27.366667	1	1.002000
27.383333	1	1.001625
27.400000	1	1.001875
27.416667	1	1.003750
27.433333	1	1.006875
27.450000	1	1.011125
27.466667	1	1.018125
27.483333	1	1.026375
27.500000	1	1.037250
27.516667	1	1.050375
27.533333	1	1.066625
27.550000	1	1.085500
27.566667	1	1.107000
27.583333	1	1.132000
27.600000	1	1.160250
27.616667	1	1.191500
27.633333	1	1.226875
27.650000	1	1.265375
27.666667	1	1.305750
27.683333	1	1.350125
27.700000	1	1.397625
27.716667	1	1.447875
27.733333	1	1.501250
27.750000	1	1.556500
27.766667	1	1.613500
27.783333	1	1.672500
27.800000	1	1.733000
27.816667	1	1.795500
27.833333	1	1.858000
27.850000	1	1.922500
27.866667	1	1.988000
27.883333	1	2.053875
27.900000	1	2.121000
27.916667	1	2.189125
27.933333	1	2.257500
27.950000	1	2.326750
27.966667	1	2.397500
27.983333	1	2.468875
28.000000	1	2.540625
28.016667	1	2.613500
28.033333	1	2.687250
28.050000	1	2.761375
28.066667	1	2.836125
28.083333	1	2.910875
28.100000	1	2.985875
28.116667	1	3.060875
28.133333	1	3.134375
28.150000	1	3.206750
28.166667	1	3.278250
28.183333	1	3.347250
28.200000	1	3.414250
28.216667	1	3.478875
28.233333	1	3.539875
28.250000	1	3.597250
28.266667	1	3.651250
28.283333	1	3.700750
28.300000	1	3.745750
28.316667	1	3.785250
28.333333	1	3.820000
28.350000	1	3.849250
28.366667	1	3.871875
28.383333	1	3.888375
28.400000	1	3.896750
28.416667	1	3.898375
28.433333	1	3.892375
28.450000	1	3.878875
28.466667	1	3.857500
28.483333	1	3.827500
28.500000	1	3.789125
28.516667	1	3.742125
28.533333	1	3.687125
28.550000	1	3.623750
28.566667	1	3.552125
28.583333	1	3.472875
28.600000	1	3.386250
28.616667	1	3.291625
28.633333	1	3.191625
28.650000	1	3.086500
28.666667	1	2.976375
28.683333	1	2.863375
28.700000	1	2.746750
28.716667	1	2.630000
28.733333	1	2.512375
28.750000	1	2.394625
28.766667	1	2.279000
28.783333	1	2.165875
28.800000	1	2.056375
28.816667	1	1.951250
28.833333	1	1.850625
28.850000	1	1.754375
28.866667	1	1.664125
28.883333	1	1.579875
28.900000	1	1.502000
28.916667	1	1.429125
28.933333	1	1.363125
28.950000	1	1.302875
28.966667	1	1.248250
28.983333	1	1.199375
29.000000	1	1.155250
29.016667	1	1.116125
29.033333	1	1.081250
29.050000	1	1.051125
29.066667	1	1.024250
29.083333	1	1.000875
29.100000	1	0.980750
29.116667	1	0.963875
29.133333	1	0.949125
29.150000	1	0.936625
29.166667	1	0.926625
29.183333	1	0.918375
29.200000	1	0.911500
29.216667	1	0.906875
29.233333	1	0.903250
29.250000	1	0.901375
29.266667	1	0.900500
29.283333	1	0.900250
29.300000	1	0.901625
29.316667	1	0.903375
29.333333	1	0.906000
29.350000	1	0.909125
29.366667	1	0.912875
29.383333	1	0.918000
29.400000	1	0.923750
29.416667	1	0.929375
29.433333	1	0.936500
29.450000	1	0.943875
29.466667	1	0.951750
29.483333	1	0.960000
29.500000	1	0.968375
29.516667	1	0.977000
29.533333	1	0.986000
29.550000	1	0.995750
29.566667	1	1.006000
29.583333	1	1.016375
29.600000	1	1.027000
29.616667	1	1.037625
29.633333	1	1.047500
29.650000	1	1.058250
29.666667	1	1.068875
29.683333	1	1.080000
29.700000	1	1.090625
29.716667	1	1.100625
29.733333	1	1.111500
29.750000	1	1.121625
29.766667	1	1.131875
29.783333	1	1.142750
29.800000	1	1.152625
29.816667	1	1.162500
29.833333	1	1.171875
29.850000	1	1.181125
29.866667	1	1.190250
29.883333	1	1.199125
29.900000	1	1.207375
29.916667	1	1.215625
29.933333	1	1.223750
29.950000	1	1.231500
29.966667	1	1.238250
29.983333	1	1.245000
30.000000	1	1.251375
30.016667	1	1.256125
30.033333	1	1.260875
30.050000	1	1.265375
30.066667	1	1.269875
30.083333	1	1.273750
30.100000	1	1.277000
30.116667	1	1.280500
30.133333	1	1.282875
30.150000	1	1.284375
30.166667	1	1.286000
30.183333	1	1.286625
30.200000	1	1.287625
30.216667	1	1.287625
30.233333	1	1.286625
30.250000	1	1.285750
30.266667	1	1.284000
30.283333	1	1.283000
30.300000	1	1.280875
30.316667	1	1.278750
30.333333	1	1.276125
30.350000	1	1.273125
30.366667	1	1.270500
30.383333	1	1.267000
30.400000	1	1.264375
30.416667	1	1.260625
30.433333	1	1.257875
30.450000	1	1.253625
30.466667	1	1.249625
30.483333	1	1.245750
30.500000	1	1.242375
30.516667	1	1.239500
30.533333	1	1.236375
30.550000	1	1.232500
30.566667	1	1.229375
30.583333	1	1.227375
30.600000	1	1.225125
30.616667	1	1.223000
30.633333	1	1.220750
30.650000	1	1.219250
30.666667	1	1.217250
30.683333	1	1.216250
30.700000	1	1.215750
30.716667	1	1.214875
30.733333	1	1.214875
30.750000	1	1.215125
30.766667	1	1.215375
30.783333	1	1.215750
30.800000	1	1.216375
30.816667	1	1.217625
30.833333	1	1.218875
30.850000	1	1.221000
30.866667	1	1.222250
30.883333	1	1.224125
30.900000	1	1.226500
30.916667	1	1.228625
30.933333	1	1.230750
30.950000	1	1.234125
30.966667	1	1.237125
30.983333	1	1.239875
31.000000	1	1.243000
31.016667	1	1.245625
31.033333	1	1.249625
31.050000	1	1.253000
31.066667	1	1.256250
31.083333	1	1.260375
31.100000	1	1.263875
31.116667	1	1.267875
31.133333	1	1.271125
31.150000	1	1.274250
31.166667	1	1.277500
31.183333	1	1.280625
31.200000	1	1.283375
31.216667	1	1.286375
31.233333	1	1.289625
31.250000	1	1.292125
31.266667	1	1.294375
31.283333	1	1.296875
31.300000	1	1.299125
31.316667	1	1.300750
31.333333	1	1.301000
31.350000	1	1.301625
31.366667	1	1.301500
31.383333	1	1.301375
31.400000	1	1.300625
31.416667	1	1.299375
31.433333	1	1.297500
31.450000	1	1.296000
31.466667	1	1.293250
31.483333	1	1.291375
31.500000	1	1.288250
31.516667	1	1.285250
31.533333	1	1.282125
31.550000	1	1.278375
31.566667	1	1.275000
31.583333	1	1.271375
31.600000	1	1.268125
31.616667	1	1.264625
31.633333	1	1.262000
31.650000	1	1.258625
31.666667	1	1.255625
31.683333	1	1.252875
31.700000	1	1.250875
31.716667	1	1.249250
31.733333	1	1.248000
31.750000	1	1.247000
31.766667	1	1.246625
31.783333	1	1.246375
31.800000	1	1.247750
31.816667	1	1.248625
31.833333	1	1.250250
31.850000	1	1.252125
31.866667	1	1.254875
31.883333	1	1.257500
31.900000	1	1.261000
31.916667	1	1.264875
31.933333	1	1.269375
31.950000	1	1.273250
31.966667	1	1.277875
31.983333	1	1.282750
32.000000	1	1.288500
32.016667	1	1.294875
32.033333	1	1.300875
32.050000	1	1.306625
32.066667	1	1.312750
32.083333	1	1.318875
32.100000	1	1.326000
32.116667	1	1.333125
32.133333	1	1.340250
32.150000	1	1.347500
32.166667	1	1.355125
32.183333	1	1.362750
32.200000	1	1.368750
32.216667	1	1.375375
32.233333	1	1.382000
32.250000	1	1.389375
32.266667	1	1.396500
32.283333	1	1.404000
32.300000	1	1.410375
32.316667	1	1.416250
32.333333	1	1.422250
32.350000	1	1.428250
32.366667	1	1.434125
32.383333	1	1.439125
32.400000	1	1.444125
32.416667	1	1.448875
32.433333	1	1.453000
32.450000	1	1.457250
32.466667	1	1.461250
32.483333	1	1.464000
32.500000	1	1.466625
32.516667	1	1.469000
32.533333	1	1.470625
32.550000	1	1.471875
32.566667	1	1.472500
32.583333	1	1.472500
32.600000	1	1.472375
32.616667	1	1.471000
32.633333	1	1.469250
32.650000	1	1.466500
32.666667	1	1.463875
32.683333	1	1.460875
32.700000	1	1.456625
32.716667	1	1.451125
32.733333	1	1.445500
32.750000	1	1.438625
32.766667	1	1.431250
32.783333	1	1.423250
32.800000	1	1.414875
32.816667	1	1.405750
32.833333	1	1.395125
32.850000	1	1.384875
32.866667	1	1.374250
32.883333	1	1.362250
32.900000	1	1.350000
32.916667	1	1.337375
32.933333	1	1.324125
32.950000	1	1.310375
32.966667	1	1.296375
32.983333	1	1.282125
33.000000	1	1.267625
33.016667	1	1.252250
33.033333	1	1.237250
33.050000	1	1.222750
33.066667	1	1.206875
33.083333	1	1.191250
33.100000	1	1.176125
33.116667	1	1.161125
33.133333	1	1.145375
33.150000	1	1.130500
33.166667	1	1.115500
33.183333	1	1.100875
33.200000	1	1.086250
33.216667	1	1.072625
33.233333	1	1.059375
33.250000	1	1.046250
33.266667	1	1.033625
33.283333	1	1.020875
33.300000	1	1.009375
33.316667	1	0.997375
33.333333	1	0.986750
33.350000	1	0.975750
33.366667	1	0.966500
33.383333	1	0.957500
33.400000	1	0.948625
33.416667	1	0.940375
33.433333	1	0.932000
33.450000	1	0.925250
33.466667	1	0.918375
33.483333	1	0.912250
33.500000	1	0.906625
33.516667	1	0.901750
33.533333	1	0.897500
33.550000	1	0.893375
33.566667	1	0.889250
33.583333	1	0.884875
33.600000	1	0.881625
33.616667	1	0.878875
33.633333	1	0.877125
33.650000	1	0.874375
33.666667	1	0.872750
33.683333	1	0.871875
33.700000	1	0.871250
33.716667	1	0.870500
33.733333	1	0.870500
33.750000	1	0.871000
33.766667	1	0.872125
33.783333	1	0.874000
33.800000	1	0.876375
33.816667	1	0.879375
33.833333	1	0.882750
33.850000	1	0.886750
33.866667	1	0.891625
33.883333	1	0.896875
33.900000	1	0.903625
33.916667	1	0.910875
33.933333	1	0.918750
33.950000	1	0.926750
33.966667	1	0.936000
33.983333	1	0.945500
34.000000	1	0.955375
34.016667	1	0.966125
34.033333	1	0.977250
34.050000	1	0.989000
34.066667	1	1.001375
34.083333	1	1.014750
34.100000	1	1.029000
34.116667	1	1.043375
34.133333	1	1.057875
34.150000	1	1.072125
34.166667	1	1.087125
34.183333	1	1.102500
34.200000	1	1.118125
34.216667	1	1.134875
34.233333	1	1.151875
34.250000	1	1.168000
34.266667	1	1.184875
34.283333	1	1.202250
34.300000	1	1.220250
34.316667	1	1.238750
34.333333	1	1.257125
34.350000	1	1.276250
34.366667	1	1.295250
34.383333	1	1.314000
34.400000	1	1.333375
34.416667	1	1.352750
34.433333	1	1.372875
34.450000	1	1.392500
34.466667	1	1.411875
34.483333	1	1.431125
34.500000	1	1.450250
34.516667	1	1.469250
34.533333	1	1.488000
34.550000	1	1.505875
34.566667	1	1.523750
34.583333	1	1.541875
34.600000	1	1.558500
34.616667	1	1.574375
34.633333	1	1.589500
34.650000	1	1.602625
34.666667	1	1.615875
34.683333	1	1.627875
34.700000	1	1.639000
34.716667	1	1.647875
34.733333	1	1.656500
34.750000	1	1.663375
34.766667	1	1.668875
34.783333	1	1.672000
34.800000	1	1.674125
34.816667	1	1.674500
34.833333	1	1.673250
34.850000	1	1.670625
34.866667	1	1.665125
34.883333	1	1.657875
34.900000	1	1.649375
34.916667	1	1.640000
34.933333	1	1.627500
34.950000	1	1.614375
34.966667	1	1.599250
34.983333	1	1.582375
35.000000	1	1.564500
35.016667	1	1.544750
35.033333	1	1.523875
35.050000	1	1.501875
35.066667	1	1.479125
35.083333	1	1.455625
35.100000	1	1.431125
35.116667	1	1.406625
35.133333	1	1.381625
35.150000	1	1.356750
35.166667	1	1.331125
35.183333	1	1.306125
35.200000	1	1.281375
35.216667	1	1.256500
35.233333	1	1.232375
35.250000	1	1.208750
35.266667	1	1.186250
35.283333	1	1.164125
35.300000	1	1.144000
35.316667	1	1.123750
35.333333	1	1.104000
35.350000	1	1.085875
35.366667	1	1.068875
35.383333	1	1.053125
35.400000	1	1.038500
35.416667	1	1.024875
35.433333	1	1.012250
35.450000	1	1.000750
35.466667	1	0.990500
35.483333	1	0.981375
35.500000	1	0.973250
35.516667	1	0.965875
35.533333	1	0.958250
35.550000	1	0.952375
35.566667	1	0.947000
35.583333	1	0.942875
35.600000	1	0.939625
35.616667	1	0.936500
35.633333	1	0.934250
35.650000	1	0.932875
35.666667	1	0.931500
35.683333	1	0.930250
35.700000	1	0.930000
35.716667	1	0.929500
35.733333	1	0.930375
35.750000	1	0.931125
35.766667	1	0.931500
35.783333	1	0.932750
35.800000	1	0.933875
35.816667	1	0.935875
35.833333	1	0.937500
35.850000	1	0.939500
35.866667	1	0.942375
35.883333	1	0.944625
35.900000	1	0.947000
35.916667	1	0.949000
35.933333	1	0.951750
35.950000	1	0.953875
35.966667	1	0.956625
35.983333	1	0.960000
36.000000	1	0.963000
36.016667	1	0.965875
36.033333	1	0.969125
36.050000	1	0.971875
36.066667	1	0.974500
36.083333	1	0.977625
36.100000	1	0.980750
36.116667	1	0.983750
36.133333	1	0.986625
36.150000	1	0.989375
36.166667	1	0.992875
36.183333	1	0.996625
36.200000	1	0.999875
36.216667	1	1.003000
36.233333	1	1.005500
36.250000	1	1.008750
36.266667	1	1.011875
36.283333	1	1.014750
36.300000	1	1.017375
36.316667	1	1.020500
36.333333	1	1.023375
36.350000	1	1.026875
36.366667	1	1.030500
36.383333	1	1.033500
36.400000	1	1.036625
36.416667	1	1.039625
36.433333	1	1.042750
36.450000	1	1.045000
36.466667	1	1.048000
36.483333	1	1.051000
36.500000	1	1.053375
36.516667	1	1.056250
36.533333	1	1.058625
36.550000	1	1.060250
36.566667	1	1.062375
36.583333	1	1.064500
36.600000	1	1.066125
36.616667	1	1.068125
36.633333	1	1.069375
36.650000	1	1.071125
36.666667	1	1.072625
36.683333	1	1.073500
36.700000	1	1.074500
36.716667	1	1.075500
36.733333	1	1.076125
36.750000	1	1.077000
36.766667	1	1.077250
36.783333	1	1.077250
36.800000	1	1.077625
36.816667	1	1.077875
36.833333	1	1.078000
36.850000	1	1.077375
36.866667	1	1.077250
36.883333	1	1.076750
36.900000	1	1.076125
36.916667	1	1.075500
36.933333	1	1.074750
36.950000	1	1.073625
36.966667	1	1.072125
36.983333	1	1.070625
37.000000	1	1.069625
37.016667	1	1.067625
37.033333	1	1.066000
37.050000	1	1.064750
37.066667	1	1.062625
37.083333	1	1.060625
37.100000	1	1.058875
37.116667	1	1.056750
37.133333	1	1.054875
37.150000	1	1.052625
37.166667	1	1.050250
37.183333	1	1.048250
37.200000	1	1.045625
37.216667	1	1.043625
37.233333	1	1.041375
37.250000	1	1.037875
37.266667	1	1.035625
37.283333	1	1.032500
37.300000	1	1.029750
37.316667	1	1.026750
37.333333	1	1.023875
37.350000	1	1.020875
37.366667	1	1.017750
37.383333	1	1.014500
37.400000	1	1.011125
37.416667	1	1.007875
37.433333	1	1.004250
37.450000	1	1.000750
37.466667	1	0.998000
37.483333	1	0.993875
37.500000	1	0.991000
37.516667	1	0.987250
37.533333	1	0.983625
37.550000	1	0.979250
37.566667	1	0.975750
37.583333	1	0.971500
37.600000	1	0.967875
37.616667	1	0.964000
37.633333	1	0.960250
37.650000	1	0.956500
37.666667	1	0.953000
37.683333	1	0.948875
37.700000	1	0.945125
37.716667	1	0.941750
37.733333	1	0.938500
37.750000	1	0.935000
37.766667	1	0.931375
37.783333	1	0.929000
37.800000	1	0.926000
37.816667	1	0.923250
37.833333	1	0.920500
37.850000	1	0.918250
37.866667	1	0.915875
37.883333	1	0.912625
37.900000	1	0.910000
37.916667	1	0.908500
37.933333	1	0.906625
37.950000	1	0.904750
37.966667	1	0.903375
37.983333	1	0.902000
38.000000	1	0.900875
38.016667	1	0.899125
38.033333	1	0.897500
38.050000	1	0.896250
38.066667	1	0.896000
38.083333	1	0.895125
38.100000	1	0.894750
38.116667	1	0.894375
38.133333	1	0.894375
38.150000	1	0.894125
38.166667	1	0.893250
38.183333	1	0.893125
38.200000	1	0.892625
38.216667	1	0.892500
38.233333	1	0.891750
38.250000	1	0.891250
38.266667	1	0.891375
38.283333	1	0.890750
38.300000	1	0.891000
38.316667	1	0.890375
38.333333	1	0.889500
38.350000	1	0.888750
38.366667	1	0.888500
38.383333	1	0.887875
38.400000	1	0.887500
38.416667	1	0.886750
38.433333	1	0.886625
38.450000	1	0.885750
38.466667	1	0.885000
38.483333	1	0.884500
38.500000	1	0.884250
38.516667	1	0.883750
38.533333	1	0.882750
38.550000	1	0.882250
38.566667	1	0.881875
38.583333	1	0.881375
38.600000	1	0.880500
38.616667	1	0.880375
38.633333	1	0.879125
38.650000	1	0.878500
38.666667	1	0.877625
38.683333	1	0.877375
38.700000	1	0.876500
38.716667	1	0.876125
38.733333	1	0.875375
38.750000	1	0.874500
38.766667	1	0.874000
38.783333	1	0.873000
38.800000	1	0.872500
38.816667	1	0.872000
38.833333	1	0.871500
38.850000	1	0.871250
38.866667	1	0.871000
38.883333	1	0.870875
38.900000	1	0.870500
38.916667	1	0.870000
38.933333	1	0.869250
38.950000	1	0.868875
38.966667	1	0.868125
38.983333	1	0.867750
39.000000	1	0.867500
39.016667	1	0.866625
39.033333	1	0.865750
39.050000	1	0.865750
39.066667	1	0.864875
39.083333	1	0.864875
39.100000	1	0.865125
39.116667	1	0.865125
39.133333	1	0.864625
39.150000	1	0.865000
39.166667	1	0.865125
39.183333	1	0.865000
39.200000	1	0.864125
39.216667	1	0.863750
39.233333	1	0.864250
39.250000	1	0.865125
39.266667	1	0.865625
39.283333	1	0.865875
39.300000	1	0.865750
39.316667	1	0.866250
39.333333	1	0.866750
39.350000	1	0.866875
39.366667	1	0.867875
39.383333	1	0.869000
39.400000	1	0.869375
39.416667	1	0.870125
39.433333	1	0.871125
39.450000	1	0.871500
39.466667	1	0.872375
39.483333	1	0.873250
39.500000	1	0.873875
39.516667	1	0.875250
39.533333	1	0.876000
39.550000	1	0.876500
39.566667	1	0.877750
39.583333	1	0.878750
39.600000	1	0.880125
39.616667	1	0.880625
39.633333	1	0.881750
39.650000	1	0.883500
39.666667	1	0.884500
39.683333	1	0.885750
39.700000	1	0.885875
39.716667	1	0.887125
39.733333	1	0.888625
39.750000	1	0.889750
39.766667	1	0.891125
39.783333	1	0.892625
39.800000	1	0.893750
39.816667	1	0.894750
39.833333	1	0.896000
39.850000	1	0.898125
39.866667	1	0.899250
39.883333	1	0.900375
39.900000	1	0.902000
39.916667	1	0.903250
39.933333	1	0.905125
39.950000	1	0.906250
39.966667	1	0.908125
39.983333	1	0.909875
40.000000	1	0.911375
