File Path	chrom://marshall/Chromeleon7/HPLC_Ultimate_3000/Users/markusar/20230610_CMO_FP11_FP12.seq/913.smp/RI_1.channel/RI_1.chm
Channel	RI_1

Injection Information:
Data Vault	Chromeleon7
Injection	FP12_2_S3
Injection Number	28
Position	BC3
Comment	
Processing Method	
Instrument Method	run_25B_method
Type	Unknown
Status	Finished
Injection Date	11.06.2023
Injection Time	13:09:59
Injection Volume (µl)	20.000
Dilution Factor	1.0000
Weight	1.0000

Chromatogram Data Information:
Time Min. (min)	0.000000
Time Max. (min)	40.000000
Data Points	2401
Detector	RI
Generating Data System	Chromeleon 7.2.5.9507
Exporting Data System	Chromeleon 7.2.5.0
Operator	Instrument Controller
Signal Quantity	Refractive 
Signal Unit	µRIU
Signal Min.	-0.417750
Signal Max.	48.787000
Channel	RI_1
Driver Name	RID520Driver.dll
Channel Type	Evaluation
Min. Step (s)	1
Max. Step (s)	1
Average Step (s)	1

Signal Parameter Information:
Signal Info	

Chromatogram Data:
Time (min)	Step (s)	Value (µRIU)
0.000000	n.a.	-0.023625
0.016667	1	-0.024375
0.033333	1	-0.024375
0.050000	1	-0.025250
0.066667	1	-0.026125
0.083333	1	-0.026750
0.100000	1	-0.027500
0.116667	1	-0.028125
0.133333	1	-0.028500
0.150000	1	-0.029000
0.166667	1	-0.029500
0.183333	1	-0.029875
0.200000	1	-0.030250
0.216667	1	-0.030125
0.233333	1	-0.030625
0.250000	1	-0.030875
0.266667	1	-0.030875
0.283333	1	-0.031375
0.300000	1	-0.031750
0.316667	1	-0.033125
0.333333	1	-0.035875
0.350000	1	-0.039625
0.366667	1	-0.042750
0.383333	1	-0.043625
0.400000	1	-0.041375
0.416667	1	-0.038000
0.433333	1	-0.034375
0.450000	1	-0.031375
0.466667	1	-0.028250
0.483333	1	-0.026375
0.500000	1	-0.024500
0.516667	1	-0.023125
0.533333	1	-0.022125
0.550000	1	-0.022375
0.566667	1	-0.024625
0.583333	1	-0.026750
0.600000	1	-0.028250
0.616667	1	-0.029875
0.633333	1	-0.031125
0.650000	1	-0.032500
0.666667	1	-0.033500
0.683333	1	-0.033625
0.700000	1	-0.034375
0.716667	1	-0.035000
0.733333	1	-0.035500
0.750000	1	-0.036125
0.766667	1	-0.036000
0.783333	1	-0.035625
0.800000	1	-0.036125
0.816667	1	-0.036750
0.833333	1	-0.036875
0.850000	1	-0.037250
0.866667	1	-0.037125
0.883333	1	-0.037625
0.900000	1	-0.037375
0.916667	1	-0.037875
0.933333	1	-0.037375
0.950000	1	-0.036875
0.966667	1	-0.037250
0.983333	1	-0.037500
1.000000	1	-0.037250
1.016667	1	-0.037875
1.033333	1	-0.038375
1.050000	1	-0.038750
1.066667	1	-0.038125
1.083333	1	-0.038750
1.100000	1	-0.039250
1.116667	1	-0.039375
1.133333	1	-0.039750
1.150000	1	-0.040250
1.166667	1	-0.040875
1.183333	1	-0.041625
1.200000	1	-0.041500
1.216667	1	-0.042000
1.233333	1	-0.042500
1.250000	1	-0.042750
1.266667	1	-0.043250
1.283333	1	-0.042875
1.300000	1	-0.043250
1.316667	1	-0.043750
1.333333	1	-0.043625
1.350000	1	-0.043875
1.366667	1	-0.043875
1.383333	1	-0.044250
1.400000	1	-0.044250
1.416667	1	-0.044625
1.433333	1	-0.044375
1.450000	1	-0.044500
1.466667	1	-0.044750
1.483333	1	-0.044750
1.500000	1	-0.045000
1.516667	1	-0.045625
1.533333	1	-0.045750
1.550000	1	-0.046500
1.566667	1	-0.046750
1.583333	1	-0.047625
1.600000	1	-0.047750
1.616667	1	-0.047375
1.633333	1	-0.047875
1.650000	1	-0.048250
1.666667	1	-0.047625
1.683333	1	-0.048375
1.700000	1	-0.048000
1.716667	1	-0.048250
1.733333	1	-0.048875
1.750000	1	-0.049250
1.766667	1	-0.049000
1.783333	1	-0.049625
1.800000	1	-0.049000
1.816667	1	-0.049250
1.833333	1	-0.048875
1.850000	1	-0.048625
1.866667	1	-0.048375
1.883333	1	-0.048250
1.900000	1	-0.048000
1.916667	1	-0.048125
1.933333	1	-0.047250
1.950000	1	-0.047625
1.966667	1	-0.047125
1.983333	1	-0.046500
2.000000	1	-0.045875
2.016667	1	-0.045125
2.033333	1	-0.044250
2.050000	1	-0.043250
2.066667	1	-0.042500
2.083333	1	-0.041500
2.100000	1	-0.041375
2.116667	1	-0.040625
2.133333	1	-0.039750
2.150000	1	-0.038875
2.166667	1	-0.037875
2.183333	1	-0.036875
2.200000	1	-0.035500
2.216667	1	-0.034375
2.233333	1	-0.032625
2.250000	1	-0.031750
2.266667	1	-0.030625
2.283333	1	-0.029500
2.300000	1	-0.028250
2.316667	1	-0.027500
2.333333	1	-0.026250
2.350000	1	-0.025625
2.366667	1	-0.024625
2.383333	1	-0.023625
2.400000	1	-0.022250
2.416667	1	-0.020750
2.433333	1	-0.020000
2.450000	1	-0.018625
2.466667	1	-0.017250
2.483333	1	-0.016375
2.500000	1	-0.015375
2.516667	1	-0.014375
2.533333	1	-0.013125
2.550000	1	-0.011875
2.566667	1	-0.011375
2.583333	1	-0.010375
2.600000	1	-0.008750
2.616667	1	-0.007625
2.633333	1	-0.006375
2.650000	1	-0.005375
2.666667	1	-0.004125
2.683333	1	-0.003250
2.700000	1	-0.001625
2.716667	1	-0.000125
2.733333	1	0.000500
2.750000	1	0.002000
2.766667	1	0.003125
2.783333	1	0.003750
2.800000	1	0.004375
2.816667	1	0.005250
2.833333	1	0.006875
2.850000	1	0.008125
2.866667	1	0.009500
2.883333	1	0.010125
2.900000	1	0.011250
2.916667	1	0.011375
2.933333	1	0.012125
2.950000	1	0.013125
2.966667	1	0.013750
2.983333	1	0.014125
3.000000	1	0.014375
3.016667	1	0.015125
3.033333	1	0.015375
3.050000	1	0.015625
3.066667	1	0.015375
3.083333	1	0.016125
3.100000	1	0.015875
3.116667	1	0.016125
3.133333	1	0.015375
3.150000	1	0.015000
3.166667	1	0.015250
3.183333	1	0.014875
3.200000	1	0.014000
3.216667	1	0.013125
3.233333	1	0.012625
3.250000	1	0.012250
3.266667	1	0.011625
3.283333	1	0.010750
3.300000	1	0.010125
3.316667	1	0.008875
3.333333	1	0.007875
3.350000	1	0.007375
3.366667	1	0.006000
3.383333	1	0.005000
3.400000	1	0.003375
3.416667	1	0.002625
3.433333	1	0.001500
3.450000	1	0.000625
3.466667	1	0.000250
3.483333	1	-0.001500
3.500000	1	-0.002500
3.516667	1	-0.003500
3.533333	1	-0.004250
3.550000	1	-0.005375
3.566667	1	-0.006625
3.583333	1	-0.006875
3.600000	1	-0.007500
3.616667	1	-0.008000
3.633333	1	-0.008625
3.650000	1	-0.009625
3.666667	1	-0.009875
3.683333	1	-0.011000
3.700000	1	-0.011875
3.716667	1	-0.011875
3.733333	1	-0.012250
3.750000	1	-0.013125
3.766667	1	-0.014250
3.783333	1	-0.014750
3.800000	1	-0.016000
3.816667	1	-0.017000
3.833333	1	-0.017500
3.850000	1	-0.019000
3.866667	1	-0.019750
3.883333	1	-0.020500
3.900000	1	-0.022000
3.916667	1	-0.022625
3.933333	1	-0.023375
3.950000	1	-0.025000
3.966667	1	-0.026375
3.983333	1	-0.028125
4.000000	1	-0.029750
4.016667	1	-0.031250
4.033333	1	-0.032125
4.050000	1	-0.033250
4.066667	1	-0.033875
4.083333	1	-0.035625
4.100000	1	-0.037000
4.116667	1	-0.038125
4.133333	1	-0.039125
4.150000	1	-0.040125
4.166667	1	-0.041750
4.183333	1	-0.043000
4.200000	1	-0.043500
4.216667	1	-0.044500
4.233333	1	-0.045500
4.250000	1	-0.046750
4.266667	1	-0.047500
4.283333	1	-0.048750
4.300000	1	-0.049500
4.316667	1	-0.050750
4.333333	1	-0.051625
4.350000	1	-0.052625
4.366667	1	-0.052750
4.383333	1	-0.053125
4.400000	1	-0.053500
4.416667	1	-0.053250
4.433333	1	-0.054375
4.450000	1	-0.055000
4.466667	1	-0.054875
4.483333	1	-0.054625
4.500000	1	-0.054875
4.516667	1	-0.055375
4.533333	1	-0.054875
4.550000	1	-0.054250
4.566667	1	-0.053500
4.583333	1	-0.053750
4.600000	1	-0.053625
4.616667	1	-0.052375
4.633333	1	-0.051500
4.650000	1	-0.051125
4.666667	1	-0.050000
4.683333	1	-0.049250
4.700000	1	-0.048250
4.716667	1	-0.046625
4.733333	1	-0.045125
4.750000	1	-0.044125
4.766667	1	-0.042375
4.783333	1	-0.040250
4.800000	1	-0.038750
4.816667	1	-0.037250
4.833333	1	-0.035000
4.850000	1	-0.032625
4.866667	1	-0.030000
4.883333	1	-0.028250
4.900000	1	-0.025500
4.916667	1	-0.022500
4.933333	1	-0.020250
4.950000	1	-0.017000
4.966667	1	-0.014250
4.983333	1	-0.012375
5.000000	1	-0.009250
5.016667	1	-0.006500
5.033333	1	-0.004000
5.050000	1	-0.000250
5.066667	1	0.002625
5.083333	1	0.005250
5.100000	1	0.008875
5.116667	1	0.011750
5.133333	1	0.014250
5.150000	1	0.016250
5.166667	1	0.018750
5.183333	1	0.021250
5.200000	1	0.024125
5.216667	1	0.026500
5.233333	1	0.028750
5.250000	1	0.030625
5.266667	1	0.032625
5.283333	1	0.034125
5.300000	1	0.036125
5.316667	1	0.037250
5.333333	1	0.038875
5.350000	1	0.039875
5.366667	1	0.041000
5.383333	1	0.042000
5.400000	1	0.043250
5.416667	1	0.043625
5.433333	1	0.044500
5.450000	1	0.044375
5.466667	1	0.044375
5.483333	1	0.044000
5.500000	1	0.044750
5.516667	1	0.045250
5.533333	1	0.045375
5.550000	1	0.045375
5.566667	1	0.045250
5.583333	1	0.045000
5.600000	1	0.045250
5.616667	1	0.045000
5.633333	1	0.044625
5.650000	1	0.044875
5.666667	1	0.044250
5.683333	1	0.043875
5.700000	1	0.044000
5.716667	1	0.044250
5.733333	1	0.044500
5.750000	1	0.044125
5.766667	1	0.044375
5.783333	1	0.044375
5.800000	1	0.044625
5.816667	1	0.045125
5.833333	1	0.045750
5.850000	1	0.046500
5.866667	1	0.046875
5.883333	1	0.047125
5.900000	1	0.048625
5.916667	1	0.049375
5.933333	1	0.049875
5.950000	1	0.051250
5.966667	1	0.052750
5.983333	1	0.053750
6.000000	1	0.054500
6.016667	1	0.055250
6.033333	1	0.057250
6.050000	1	0.058250
6.066667	1	0.059875
6.083333	1	0.061375
6.100000	1	0.062625
6.116667	1	0.064375
6.133333	1	0.066250
6.150000	1	0.068125
6.166667	1	0.069750
6.183333	1	0.071500
6.200000	1	0.073625
6.216667	1	0.075375
6.233333	1	0.076500
6.250000	1	0.078875
6.266667	1	0.081000
6.283333	1	0.082750
6.300000	1	0.085125
6.316667	1	0.086625
6.333333	1	0.087875
6.350000	1	0.090125
6.366667	1	0.091875
6.383333	1	0.094500
6.400000	1	0.096625
6.416667	1	0.098750
6.433333	1	0.100375
6.450000	1	0.102250
6.466667	1	0.103375
6.483333	1	0.104500
6.500000	1	0.106625
6.516667	1	0.108250
6.533333	1	0.110625
6.550000	1	0.112250
6.566667	1	0.113375
6.583333	1	0.114875
6.600000	1	0.115875
6.616667	1	0.116875
6.633333	1	0.117875
6.650000	1	0.118500
6.666667	1	0.119250
6.683333	1	0.119750
6.700000	1	0.120250
6.716667	1	0.120750
6.733333	1	0.121250
6.750000	1	0.121000
6.766667	1	0.121500
6.783333	1	0.120875
6.800000	1	0.121000
6.816667	1	0.119500
6.833333	1	0.118000
6.850000	1	0.116500
6.866667	1	0.114875
6.883333	1	0.112750
6.900000	1	0.110875
6.916667	1	0.108625
6.933333	1	0.106750
6.950000	1	0.104750
6.966667	1	0.101750
6.983333	1	0.099375
7.000000	1	0.096125
7.016667	1	0.093000
7.033333	1	0.090250
7.050000	1	0.086875
7.066667	1	0.083375
7.083333	1	0.080125
7.100000	1	0.076500
7.116667	1	0.073500
7.133333	1	0.070250
7.150000	1	0.067250
7.166667	1	0.063750
7.183333	1	0.059750
7.200000	1	0.056375
7.216667	1	0.052750
7.233333	1	0.048500
7.250000	1	0.045500
7.266667	1	0.042250
7.283333	1	0.039750
7.300000	1	0.036875
7.316667	1	0.033875
7.333333	1	0.030500
7.350000	1	0.027750
7.366667	1	0.025125
7.383333	1	0.022125
7.400000	1	0.019875
7.416667	1	0.017500
7.433333	1	0.015375
7.450000	1	0.013250
7.466667	1	0.011125
7.483333	1	0.009000
7.500000	1	0.007375
7.516667	1	0.005500
7.533333	1	0.004000
7.550000	1	0.002875
7.566667	1	0.002500
7.583333	1	0.001625
7.600000	1	0.000000
7.616667	1	-0.000625
7.633333	1	-0.002125
7.650000	1	-0.002375
7.666667	1	-0.002750
7.683333	1	-0.003250
7.700000	1	-0.003125
7.716667	1	-0.003125
7.733333	1	-0.002875
7.750000	1	-0.002750
7.766667	1	-0.002625
7.783333	1	-0.002250
7.800000	1	-0.002625
7.816667	1	-0.002125
7.833333	1	-0.001125
7.850000	1	-0.001000
7.866667	1	0.000250
7.883333	1	0.001250
7.900000	1	0.002125
7.916667	1	0.003250
7.933333	1	0.004500
7.950000	1	0.006125
7.966667	1	0.008500
7.983333	1	0.009750
8.000000	1	0.011125
8.016667	1	0.012625
8.033333	1	0.014000
8.050000	1	0.015625
8.066667	1	0.017500
8.083333	1	0.019875
8.100000	1	0.022125
8.116667	1	0.024625
8.133333	1	0.026750
8.150000	1	0.029500
8.166667	1	0.032000
8.183333	1	0.034375
8.200000	1	0.036500
8.216667	1	0.039375
8.233333	1	0.041625
8.250000	1	0.044000
8.266667	1	0.046125
8.283333	1	0.048625
8.300000	1	0.051125
8.316667	1	0.053000
8.333333	1	0.055625
8.350000	1	0.058625
8.366667	1	0.060500
8.383333	1	0.063750
8.400000	1	0.066250
8.416667	1	0.068750
8.433333	1	0.070875
8.450000	1	0.073875
8.466667	1	0.075875
8.483333	1	0.078250
8.500000	1	0.080250
8.516667	1	0.082625
8.533333	1	0.085250
8.550000	1	0.087625
8.566667	1	0.089750
8.583333	1	0.091875
8.600000	1	0.093625
8.616667	1	0.095625
8.633333	1	0.097875
8.650000	1	0.099875
8.666667	1	0.100750
8.683333	1	0.102000
8.700000	1	0.104125
8.716667	1	0.106125
8.733333	1	0.107125
8.750000	1	0.108375
8.766667	1	0.109375
8.783333	1	0.111000
8.800000	1	0.111750
8.816667	1	0.112125
8.833333	1	0.112500
8.850000	1	0.113375
8.866667	1	0.113125
8.883333	1	0.113875
8.900000	1	0.113875
8.916667	1	0.114000
8.933333	1	0.114500
8.950000	1	0.114500
8.966667	1	0.115000
8.983333	1	0.114375
9.000000	1	0.113875
9.016667	1	0.112750
9.033333	1	0.112875
9.050000	1	0.112750
9.066667	1	0.112750
9.083333	1	0.112500
9.100000	1	0.111375
9.116667	1	0.110625
9.133333	1	0.109500
9.150000	1	0.108750
9.166667	1	0.108125
9.183333	1	0.107750
9.200000	1	0.106750
9.216667	1	0.106250
9.233333	1	0.106125
9.250000	1	0.105375
9.266667	1	0.105250
9.283333	1	0.105125
9.300000	1	0.104250
9.316667	1	0.103125
9.333333	1	0.102750
9.350000	1	0.102625
9.366667	1	0.102250
9.383333	1	0.102000
9.400000	1	0.101375
9.416667	1	0.100875
9.433333	1	0.100500
9.450000	1	0.100625
9.466667	1	0.101375
9.483333	1	0.101500
9.500000	1	0.102250
9.516667	1	0.102625
9.533333	1	0.104125
9.550000	1	0.106000
9.566667	1	0.108000
9.583333	1	0.111250
9.600000	1	0.114500
9.616667	1	0.119375
9.633333	1	0.125125
9.650000	1	0.133125
9.666667	1	0.142375
9.683333	1	0.154125
9.700000	1	0.167750
9.716667	1	0.183500
9.733333	1	0.201250
9.750000	1	0.222625
9.766667	1	0.246500
9.783333	1	0.273875
9.800000	1	0.306500
9.816667	1	0.343625
9.833333	1	0.383875
9.850000	1	0.425625
9.866667	1	0.465000
9.883333	1	0.498875
9.900000	1	0.526500
9.916667	1	0.549125
9.933333	1	0.575750
9.950000	1	0.622125
9.966667	1	0.711375
9.983333	1	0.872625
10.000000	1	1.136125
10.016667	1	1.530625
10.033333	1	2.083375
10.050000	1	2.813500
10.066667	1	3.739500
10.083333	1	4.871375
10.100000	1	6.216625
10.116667	1	7.773875
10.133333	1	9.535125
10.150000	1	11.483750
10.166667	1	13.596125
10.183333	1	15.843125
10.200000	1	18.191000
10.216667	1	20.607375
10.233333	1	23.057000
10.250000	1	25.501875
10.266667	1	27.903750
10.283333	1	30.217875
10.300000	1	32.384625
10.316667	1	34.326375
10.333333	1	35.940625
10.350000	1	37.106875
10.366667	1	37.700750
10.383333	1	37.616625
10.400000	1	36.796875
10.416667	1	35.254625
10.433333	1	33.086125
10.450000	1	30.459000
10.466667	1	27.569250
10.483333	1	24.612875
10.500000	1	21.750750
10.516667	1	19.092000
10.533333	1	16.695375
10.550000	1	14.574625
10.566667	1	12.719750
10.583333	1	11.106000
10.600000	1	9.705250
10.616667	1	8.492500
10.633333	1	7.447125
10.650000	1	6.551375
10.666667	1	5.787000
10.683333	1	5.139500
10.700000	1	4.594375
10.716667	1	4.137750
10.733333	1	3.754250
10.750000	1	3.432875
10.766667	1	3.162000
10.783333	1	2.932750
10.800000	1	2.735875
10.816667	1	2.566375
10.833333	1	2.418250
10.850000	1	2.287125
10.866667	1	2.171875
10.883333	1	2.069375
10.900000	1	1.976750
10.916667	1	1.892750
10.933333	1	1.815875
10.950000	1	1.746500
10.966667	1	1.682125
10.983333	1	1.623125
11.000000	1	1.567875
11.016667	1	1.516625
11.033333	1	1.469250
11.050000	1	1.425250
11.066667	1	1.384375
11.083333	1	1.346875
11.100000	1	1.310625
11.116667	1	1.277250
11.133333	1	1.245750
11.150000	1	1.215750
11.166667	1	1.187625
11.183333	1	1.161875
11.200000	1	1.137125
11.216667	1	1.114000
11.233333	1	1.093125
11.250000	1	1.073125
11.266667	1	1.054625
11.283333	1	1.037125
11.300000	1	1.021125
11.316667	1	1.005750
11.333333	1	0.992125
11.350000	1	0.979375
11.366667	1	0.967875
11.383333	1	0.956625
11.400000	1	0.946875
11.416667	1	0.938000
11.433333	1	0.930375
11.450000	1	0.923375
11.466667	1	0.917750
11.483333	1	0.912625
11.500000	1	0.908625
11.516667	1	0.905250
11.533333	1	0.902750
11.550000	1	0.900500
11.566667	1	0.899750
11.583333	1	0.898875
11.600000	1	0.899375
11.616667	1	0.900375
11.633333	1	0.902000
11.650000	1	0.904500
11.666667	1	0.907125
11.683333	1	0.909500
11.700000	1	0.912750
11.716667	1	0.916375
11.733333	1	0.919125
11.750000	1	0.922125
11.766667	1	0.924375
11.783333	1	0.927125
11.800000	1	0.929625
11.816667	1	0.932875
11.833333	1	0.935500
11.850000	1	0.938250
11.866667	1	0.941000
11.883333	1	0.943875
11.900000	1	0.947125
11.916667	1	0.950750
11.933333	1	0.954375
11.950000	1	0.958500
11.966667	1	0.963125
11.983333	1	0.968500
12.000000	1	0.975750
12.016667	1	0.983875
12.033333	1	0.993625
12.050000	1	1.005625
12.066667	1	1.019750
12.083333	1	1.039125
12.100000	1	1.064250
12.116667	1	1.095250
12.133333	1	1.134000
12.150000	1	1.183000
12.166667	1	1.243375
12.183333	1	1.317750
12.200000	1	1.408375
12.216667	1	1.515875
12.233333	1	1.642625
12.250000	1	1.789875
12.266667	1	1.959500
12.283333	1	2.153500
12.300000	1	2.374000
12.316667	1	2.621500
12.333333	1	2.898750
12.350000	1	3.206500
12.366667	1	3.545750
12.383333	1	3.917125
12.400000	1	4.320875
12.416667	1	4.756000
12.433333	1	5.220875
12.450000	1	5.713750
12.466667	1	6.231250
12.483333	1	6.767750
12.500000	1	7.318250
12.516667	1	7.874250
12.533333	1	8.426250
12.550000	1	8.963625
12.566667	1	9.477125
12.583333	1	9.959875
12.600000	1	10.404875
12.616667	1	10.807125
12.633333	1	11.163875
12.650000	1	11.474625
12.666667	1	11.735750
12.683333	1	11.946000
12.700000	1	12.105750
12.716667	1	12.213875
12.733333	1	12.270125
12.750000	1	12.274250
12.766667	1	12.226250
12.783333	1	12.126000
12.800000	1	11.973125
12.816667	1	11.771000
12.833333	1	11.525875
12.850000	1	11.244500
12.866667	1	10.936750
12.883333	1	10.609625
12.900000	1	10.266125
12.916667	1	9.907000
12.933333	1	9.530125
12.950000	1	9.133375
12.966667	1	8.716250
12.983333	1	8.279375
13.000000	1	7.825750
13.016667	1	7.360000
13.033333	1	6.884250
13.050000	1	6.399000
13.066667	1	5.901375
13.083333	1	5.388875
13.100000	1	4.860625
13.116667	1	4.322375
13.133333	1	3.787750
13.150000	1	3.280875
13.166667	1	2.828000
13.183333	1	2.445125
13.200000	1	2.136750
13.216667	1	1.895500
13.233333	1	1.707875
13.250000	1	1.561125
13.266667	1	1.444875
13.283333	1	1.350500
13.300000	1	1.272875
13.316667	1	1.206750
13.333333	1	1.150625
13.350000	1	1.101250
13.366667	1	1.057000
13.383333	1	1.017125
13.400000	1	0.982375
13.416667	1	0.949375
13.433333	1	0.919625
13.450000	1	0.892250
13.466667	1	0.867000
13.483333	1	0.843875
13.500000	1	0.823125
13.516667	1	0.804125
13.533333	1	0.786875
13.550000	1	0.770875
13.566667	1	0.757000
13.583333	1	0.745500
13.600000	1	0.735375
13.616667	1	0.726750
13.633333	1	0.720000
13.650000	1	0.714125
13.666667	1	0.709750
13.683333	1	0.706500
13.700000	1	0.704250
13.716667	1	0.703500
13.733333	1	0.703000
13.750000	1	0.703000
13.766667	1	0.703125
13.783333	1	0.704125
13.800000	1	0.705000
13.816667	1	0.704875
13.833333	1	0.704125
13.850000	1	0.702875
13.866667	1	0.700375
13.883333	1	0.696625
13.900000	1	0.691125
13.916667	1	0.684125
13.933333	1	0.676125
13.950000	1	0.666750
13.966667	1	0.657625
13.983333	1	0.648500
14.000000	1	0.638250
14.016667	1	0.628125
14.033333	1	0.618250
14.050000	1	0.609125
14.066667	1	0.600625
14.083333	1	0.591500
14.100000	1	0.583750
14.116667	1	0.576500
14.133333	1	0.570625
14.150000	1	0.565875
14.166667	1	0.561375
14.183333	1	0.557875
14.200000	1	0.555125
14.216667	1	0.553500
14.233333	1	0.552750
14.250000	1	0.554375
14.266667	1	0.557125
14.283333	1	0.560500
14.300000	1	0.565875
14.316667	1	0.573375
14.333333	1	0.582750
14.350000	1	0.594875
14.366667	1	0.610000
14.383333	1	0.628375
14.400000	1	0.651125
14.416667	1	0.679125
14.433333	1	0.712125
14.450000	1	0.751375
14.466667	1	0.799125
14.483333	1	0.856000
14.500000	1	0.924000
14.516667	1	1.006125
14.533333	1	1.104875
14.550000	1	1.226500
14.566667	1	1.375000
14.583333	1	1.558750
14.600000	1	1.786625
14.616667	1	2.069625
14.633333	1	2.421750
14.650000	1	2.858375
14.666667	1	3.397875
14.683333	1	4.057250
14.700000	1	4.856000
14.716667	1	5.810750
14.733333	1	6.937625
14.750000	1	8.249000
14.766667	1	9.754500
14.783333	1	11.456375
14.800000	1	13.354250
14.816667	1	15.442500
14.833333	1	17.710500
14.850000	1	20.141250
14.866667	1	22.712375
14.883333	1	25.392125
14.900000	1	28.147875
14.916667	1	30.937375
14.933333	1	33.714500
14.950000	1	36.428125
14.966667	1	39.019750
14.983333	1	41.429250
15.000000	1	43.594125
15.016667	1	45.453625
15.033333	1	46.948375
15.050000	1	48.027250
15.066667	1	48.648375
15.083333	1	48.787000
15.100000	1	48.432500
15.116667	1	47.598625
15.133333	1	46.314625
15.150000	1	44.625125
15.166667	1	42.589875
15.183333	1	40.277375
15.200000	1	37.759750
15.216667	1	35.107500
15.233333	1	32.387250
15.250000	1	29.662500
15.266667	1	26.988125
15.283333	1	24.409750
15.300000	1	21.964000
15.316667	1	19.675875
15.333333	1	17.563000
15.350000	1	15.631750
15.366667	1	13.883375
15.383333	1	12.315000
15.400000	1	10.916500
15.416667	1	9.677500
15.433333	1	8.584500
15.450000	1	7.625000
15.466667	1	6.785875
15.483333	1	6.055375
15.500000	1	5.421000
15.516667	1	4.872250
15.533333	1	4.397750
15.550000	1	3.989625
15.566667	1	3.639000
15.583333	1	3.338250
15.600000	1	3.080125
15.616667	1	2.859250
15.633333	1	2.669625
15.650000	1	2.506875
15.666667	1	2.367625
15.683333	1	2.248000
15.700000	1	2.145375
15.716667	1	2.056750
15.733333	1	1.980250
15.750000	1	1.912750
15.766667	1	1.852000
15.783333	1	1.797375
15.800000	1	1.746500
15.816667	1	1.698125
15.833333	1	1.651250
15.850000	1	1.605750
15.866667	1	1.560875
15.883333	1	1.516375
15.900000	1	1.473000
15.916667	1	1.430125
15.933333	1	1.388250
15.950000	1	1.347250
15.966667	1	1.307625
15.983333	1	1.270500
16.000000	1	1.234625
16.016667	1	1.200875
16.033333	1	1.169000
16.050000	1	1.139500
16.066667	1	1.112250
16.083333	1	1.087875
16.100000	1	1.065375
16.116667	1	1.045000
16.133333	1	1.026125
16.150000	1	1.009750
16.166667	1	0.995500
16.183333	1	0.982500
16.200000	1	0.970625
16.216667	1	0.961500
16.233333	1	0.953625
16.250000	1	0.947000
16.266667	1	0.940875
16.283333	1	0.936125
16.300000	1	0.932125
16.316667	1	0.929000
16.333333	1	0.926250
16.350000	1	0.923125
16.366667	1	0.921250
16.383333	1	0.920000
16.400000	1	0.917875
16.416667	1	0.915625
16.433333	1	0.913625
16.450000	1	0.911250
16.466667	1	0.908875
16.483333	1	0.906375
16.500000	1	0.903375
16.516667	1	0.900625
16.533333	1	0.898000
16.550000	1	0.895500
16.566667	1	0.893500
16.583333	1	0.891625
16.600000	1	0.890375
16.616667	1	0.889375
16.633333	1	0.889500
16.650000	1	0.889125
16.666667	1	0.889875
16.683333	1	0.891250
16.700000	1	0.892750
16.716667	1	0.895875
16.733333	1	0.898875
16.750000	1	0.902000
16.766667	1	0.905750
16.783333	1	0.909125
16.800000	1	0.912875
16.816667	1	0.917250
16.833333	1	0.921750
16.850000	1	0.925500
16.866667	1	0.929875
16.883333	1	0.933375
16.900000	1	0.937125
16.916667	1	0.940375
16.933333	1	0.944000
16.950000	1	0.946750
16.966667	1	0.948750
16.983333	1	0.950875
17.000000	1	0.952000
17.016667	1	0.953375
17.033333	1	0.954125
17.050000	1	0.954750
17.066667	1	0.954500
17.083333	1	0.953500
17.100000	1	0.953250
17.116667	1	0.952875
17.133333	1	0.953000
17.150000	1	0.952625
17.166667	1	0.952250
17.183333	1	0.952000
17.200000	1	0.950875
17.216667	1	0.949875
17.233333	1	0.949125
17.250000	1	0.947375
17.266667	1	0.944750
17.283333	1	0.941500
17.300000	1	0.937125
17.316667	1	0.933750
17.333333	1	0.928000
17.350000	1	0.922500
17.366667	1	0.915875
17.383333	1	0.909375
17.400000	1	0.902000
17.416667	1	0.894625
17.433333	1	0.887750
17.450000	1	0.880750
17.466667	1	0.874125
17.483333	1	0.868125
17.500000	1	0.862375
17.516667	1	0.857375
17.533333	1	0.853250
17.550000	1	0.850500
17.566667	1	0.848875
17.583333	1	0.848375
17.600000	1	0.848750
17.616667	1	0.850125
17.633333	1	0.853375
17.650000	1	0.858625
17.666667	1	0.864250
17.683333	1	0.871000
17.700000	1	0.879250
17.716667	1	0.889375
17.733333	1	0.900250
17.750000	1	0.911250
17.766667	1	0.923500
17.783333	1	0.936125
17.800000	1	0.949500
17.816667	1	0.962500
17.833333	1	0.975750
17.850000	1	0.988375
17.866667	1	1.001125
17.883333	1	1.013250
17.900000	1	1.025375
17.916667	1	1.035125
17.933333	1	1.044750
17.950000	1	1.053750
17.966667	1	1.060625
17.983333	1	1.066000
18.000000	1	1.070250
18.016667	1	1.072875
18.033333	1	1.073125
18.050000	1	1.072250
18.066667	1	1.068875
18.083333	1	1.064500
18.100000	1	1.058625
18.116667	1	1.051375
18.133333	1	1.042750
18.150000	1	1.032750
18.166667	1	1.021875
18.183333	1	1.011250
18.200000	1	0.999625
18.216667	1	0.987125
18.233333	1	0.974750
18.250000	1	0.962875
18.266667	1	0.951375
18.283333	1	0.939000
18.300000	1	0.927625
18.316667	1	0.917125
18.333333	1	0.906750
18.350000	1	0.897625
18.366667	1	0.889000
18.383333	1	0.880250
18.400000	1	0.873250
18.416667	1	0.867250
18.433333	1	0.861750
18.450000	1	0.857000
18.466667	1	0.852375
18.483333	1	0.849625
18.500000	1	0.846875
18.516667	1	0.845375
18.533333	1	0.844500
18.550000	1	0.843625
18.566667	1	0.844125
18.583333	1	0.844875
18.600000	1	0.846375
18.616667	1	0.848125
18.633333	1	0.849375
18.650000	1	0.850625
18.666667	1	0.853000
18.683333	1	0.855375
18.700000	1	0.858250
18.716667	1	0.861250
18.733333	1	0.864875
18.750000	1	0.868375
18.766667	1	0.872125
18.783333	1	0.876750
18.800000	1	0.882000
18.816667	1	0.887750
18.833333	1	0.893500
18.850000	1	0.899875
18.866667	1	0.908250
18.883333	1	0.916750
18.900000	1	0.926125
18.916667	1	0.936750
18.933333	1	0.948875
18.950000	1	0.961875
18.966667	1	0.977250
18.983333	1	0.993625
19.000000	1	1.011000
19.016667	1	1.030500
19.033333	1	1.051500
19.050000	1	1.074250
19.066667	1	1.099375
19.083333	1	1.125250
19.100000	1	1.153500
19.116667	1	1.182875
19.133333	1	1.214000
19.150000	1	1.246250
19.166667	1	1.279125
19.183333	1	1.313625
19.200000	1	1.347750
19.216667	1	1.381625
19.233333	1	1.414375
19.250000	1	1.445750
19.266667	1	1.475000
19.283333	1	1.502000
19.300000	1	1.526125
19.316667	1	1.547125
19.333333	1	1.564500
19.350000	1	1.577500
19.366667	1	1.586000
19.383333	1	1.588625
19.400000	1	1.587625
19.416667	1	1.580500
19.433333	1	1.568625
19.450000	1	1.551500
19.466667	1	1.530750
19.483333	1	1.506000
19.500000	1	1.477250
19.516667	1	1.445250
19.533333	1	1.411250
19.550000	1	1.375500
19.566667	1	1.338125
19.583333	1	1.300500
19.600000	1	1.261875
19.616667	1	1.223250
19.633333	1	1.185625
19.650000	1	1.149125
19.666667	1	1.114750
19.683333	1	1.081750
19.700000	1	1.051750
19.716667	1	1.024250
19.733333	1	0.999375
19.750000	1	0.977750
19.766667	1	0.959500
19.783333	1	0.943500
19.800000	1	0.930250
19.816667	1	0.920125
19.833333	1	0.913250
19.850000	1	0.909000
19.866667	1	0.907625
19.883333	1	0.909625
19.900000	1	0.913750
19.916667	1	0.919750
19.933333	1	0.928375
19.950000	1	0.938500
19.966667	1	0.951375
19.983333	1	0.965125
20.000000	1	0.980750
20.016667	1	0.996375
20.033333	1	1.012625
20.050000	1	1.029625
20.066667	1	1.046625
20.083333	1	1.062875
20.100000	1	1.079750
20.116667	1	1.095500
20.133333	1	1.110750
20.150000	1	1.124375
20.166667	1	1.137250
20.183333	1	1.149000
20.200000	1	1.160250
20.216667	1	1.170375
20.233333	1	1.180000
20.250000	1	1.189625
20.266667	1	1.198500
20.283333	1	1.207500
20.300000	1	1.217000
20.316667	1	1.225625
20.333333	1	1.235375
20.350000	1	1.245250
20.366667	1	1.256250
20.383333	1	1.268375
20.400000	1	1.280875
20.416667	1	1.294250
20.433333	1	1.308500
20.450000	1	1.323250
20.466667	1	1.338375
20.483333	1	1.353500
20.500000	1	1.369875
20.516667	1	1.385875
20.533333	1	1.402125
20.550000	1	1.417750
20.566667	1	1.432875
20.583333	1	1.448000
20.600000	1	1.461250
20.616667	1	1.473000
20.633333	1	1.484250
20.650000	1	1.494875
20.666667	1	1.504375
20.683333	1	1.513500
20.700000	1	1.522375
20.716667	1	1.531375
20.733333	1	1.541375
20.750000	1	1.551750
20.766667	1	1.564500
20.783333	1	1.578375
20.800000	1	1.593875
20.816667	1	1.611250
20.833333	1	1.631875
20.850000	1	1.655375
20.866667	1	1.681125
20.883333	1	1.710250
20.900000	1	1.740625
20.916667	1	1.772375
20.933333	1	1.805750
20.950000	1	1.839375
20.966667	1	1.872250
20.983333	1	1.903125
21.000000	1	1.930750
21.016667	1	1.954250
21.033333	1	1.972500
21.050000	1	1.985250
21.066667	1	1.990875
21.083333	1	1.988875
21.100000	1	1.979375
21.116667	1	1.962250
21.133333	1	1.936625
21.150000	1	1.904125
21.166667	1	1.864000
21.183333	1	1.817625
21.200000	1	1.765875
21.216667	1	1.708500
21.233333	1	1.648375
21.250000	1	1.585875
21.266667	1	1.522375
21.283333	1	1.458625
21.300000	1	1.396375
21.316667	1	1.334625
21.333333	1	1.274750
21.350000	1	1.217875
21.366667	1	1.164250
21.383333	1	1.113375
21.400000	1	1.066500
21.416667	1	1.022750
21.433333	1	0.982750
21.450000	1	0.947000
21.466667	1	0.914125
21.483333	1	0.884375
21.500000	1	0.858500
21.516667	1	0.834750
21.533333	1	0.813750
21.550000	1	0.795250
21.566667	1	0.778625
21.583333	1	0.764000
21.600000	1	0.751000
21.616667	1	0.740375
21.633333	1	0.730625
21.650000	1	0.722125
21.666667	1	0.714625
21.683333	1	0.708125
21.700000	1	0.703000
21.716667	1	0.698375
21.733333	1	0.694250
21.750000	1	0.690750
21.766667	1	0.688750
21.783333	1	0.686625
21.800000	1	0.684750
21.816667	1	0.683500
21.833333	1	0.683000
21.850000	1	0.682875
21.866667	1	0.683375
21.883333	1	0.684375
21.900000	1	0.685375
21.916667	1	0.687500
21.933333	1	0.689875
21.950000	1	0.692250
21.966667	1	0.696000
21.983333	1	0.699000
22.000000	1	0.701125
22.016667	1	0.703750
22.033333	1	0.707875
22.050000	1	0.711875
22.066667	1	0.715625
22.083333	1	0.718625
22.100000	1	0.722500
22.116667	1	0.725125
22.133333	1	0.727750
22.150000	1	0.730250
22.166667	1	0.732875
22.183333	1	0.734125
22.200000	1	0.734875
22.216667	1	0.735625
22.233333	1	0.735625
22.250000	1	0.735500
22.266667	1	0.735125
22.283333	1	0.733875
22.300000	1	0.732750
22.316667	1	0.732500
22.333333	1	0.731500
22.350000	1	0.730250
22.366667	1	0.729000
22.383333	1	0.727875
22.400000	1	0.727250
22.416667	1	0.726875
22.433333	1	0.726750
22.450000	1	0.727000
22.466667	1	0.728500
22.483333	1	0.729625
22.500000	1	0.732875
22.516667	1	0.735375
22.533333	1	0.738250
22.550000	1	0.741250
22.566667	1	0.745000
22.583333	1	0.749250
22.600000	1	0.753625
22.616667	1	0.758500
22.633333	1	0.762875
22.650000	1	0.767125
22.666667	1	0.772250
22.683333	1	0.776250
22.700000	1	0.780750
22.716667	1	0.784750
22.733333	1	0.789000
22.750000	1	0.792250
22.766667	1	0.795000
22.783333	1	0.797750
22.800000	1	0.799625
22.816667	1	0.801375
22.833333	1	0.802500
22.850000	1	0.803000
22.866667	1	0.802125
22.883333	1	0.801125
22.900000	1	0.800250
22.916667	1	0.798750
22.933333	1	0.796250
22.950000	1	0.792875
22.966667	1	0.789000
22.983333	1	0.784750
23.000000	1	0.780625
23.016667	1	0.776000
23.033333	1	0.771750
23.050000	1	0.767250
23.066667	1	0.761625
23.083333	1	0.757000
23.100000	1	0.752125
23.116667	1	0.748000
23.133333	1	0.743250
23.150000	1	0.739000
23.166667	1	0.735000
23.183333	1	0.732000
23.200000	1	0.729500
23.216667	1	0.727500
23.233333	1	0.727000
23.250000	1	0.726875
23.266667	1	0.727875
23.283333	1	0.729750
23.300000	1	0.731875
23.316667	1	0.736500
23.333333	1	0.742000
23.350000	1	0.748875
23.366667	1	0.757375
23.383333	1	0.767000
23.400000	1	0.780125
23.416667	1	0.795625
23.433333	1	0.813625
23.450000	1	0.835250
23.466667	1	0.858750
23.483333	1	0.887000
23.500000	1	0.919500
23.516667	1	0.957000
23.533333	1	1.000375
23.550000	1	1.049625
23.566667	1	1.104375
23.583333	1	1.166125
23.600000	1	1.235375
23.616667	1	1.312375
23.633333	1	1.397750
23.650000	1	1.491500
23.666667	1	1.594375
23.683333	1	1.705875
23.700000	1	1.826375
23.716667	1	1.956375
23.733333	1	2.095750
23.750000	1	2.243000
23.766667	1	2.398125
23.783333	1	2.560625
23.800000	1	2.729875
23.816667	1	2.904375
23.833333	1	3.082875
23.850000	1	3.263750
23.866667	1	3.445375
23.883333	1	3.626000
23.900000	1	3.803125
23.916667	1	3.975375
23.933333	1	4.139250
23.950000	1	4.292375
23.966667	1	4.432250
23.983333	1	4.556500
24.000000	1	4.663250
24.016667	1	4.750250
24.033333	1	4.816125
24.050000	1	4.858625
24.066667	1	4.878000
24.083333	1	4.874500
24.100000	1	4.845875
24.116667	1	4.795875
24.133333	1	4.723250
24.150000	1	4.630000
24.166667	1	4.518000
24.183333	1	4.388750
24.200000	1	4.245500
24.216667	1	4.090875
24.233333	1	3.927500
24.250000	1	3.758250
24.266667	1	3.585000
24.283333	1	3.409500
24.300000	1	3.235625
24.316667	1	3.063375
24.333333	1	2.895000
24.350000	1	2.732250
24.366667	1	2.577125
24.383333	1	2.428625
24.400000	1	2.289375
24.416667	1	2.159000
24.433333	1	2.037875
24.450000	1	1.926250
24.466667	1	1.823375
24.483333	1	1.729750
24.500000	1	1.642750
24.516667	1	1.564500
24.533333	1	1.493000
24.550000	1	1.428000
24.566667	1	1.368250
24.583333	1	1.314875
24.600000	1	1.266375
24.616667	1	1.221625
24.633333	1	1.180500
24.650000	1	1.143375
24.666667	1	1.109250
24.683333	1	1.076625
24.700000	1	1.046750
24.716667	1	1.018125
24.733333	1	0.991375
24.750000	1	0.965625
24.766667	1	0.940375
24.783333	1	0.916250
24.800000	1	0.893000
24.816667	1	0.870750
24.833333	1	0.849750
24.850000	1	0.829125
24.866667	1	0.808750
24.883333	1	0.789125
24.900000	1	0.770500
24.916667	1	0.752625
24.933333	1	0.735250
24.950000	1	0.718250
24.966667	1	0.703125
24.983333	1	0.687875
25.000000	1	0.673750
25.016667	1	0.661000
25.033333	1	0.649250
25.050000	1	0.638125
25.066667	1	0.628750
25.083333	1	0.619500
25.100000	1	0.610875
25.116667	1	0.603125
25.133333	1	0.596625
25.150000	1	0.590500
25.166667	1	0.585500
25.183333	1	0.581125
25.200000	1	0.577375
25.216667	1	0.574375
25.233333	1	0.572000
25.250000	1	0.570375
25.266667	1	0.569375
25.283333	1	0.568500
25.300000	1	0.568250
25.316667	1	0.568875
25.333333	1	0.569750
25.350000	1	0.570250
25.366667	1	0.571500
25.383333	1	0.573750
25.400000	1	0.575625
25.416667	1	0.577125
25.433333	1	0.579250
25.450000	1	0.581625
25.466667	1	0.583750
25.483333	1	0.586125
25.500000	1	0.588250
25.516667	1	0.590375
25.533333	1	0.592750
25.550000	1	0.594500
25.566667	1	0.595875
25.583333	1	0.597250
25.600000	1	0.599375
25.616667	1	0.600750
25.633333	1	0.601625
25.650000	1	0.602125
25.666667	1	0.602625
25.683333	1	0.602750
25.700000	1	0.603250
25.716667	1	0.603250
25.733333	1	0.603250
25.750000	1	0.603250
25.766667	1	0.602750
25.783333	1	0.601625
25.800000	1	0.600375
25.816667	1	0.600000
25.833333	1	0.598625
25.850000	1	0.598250
25.866667	1	0.597500
25.883333	1	0.596500
25.900000	1	0.595875
25.916667	1	0.595125
25.933333	1	0.594125
25.950000	1	0.593375
25.966667	1	0.592125
25.983333	1	0.591625
26.000000	1	0.590625
26.016667	1	0.589750
26.033333	1	0.589625
26.050000	1	0.589500
26.066667	1	0.589500
26.083333	1	0.590000
26.100000	1	0.589625
26.116667	1	0.589750
26.133333	1	0.590000
26.150000	1	0.591000
26.166667	1	0.591125
26.183333	1	0.591625
26.200000	1	0.593000
26.216667	1	0.594125
26.233333	1	0.594750
26.250000	1	0.596375
26.266667	1	0.597750
26.283333	1	0.599750
26.300000	1	0.600625
26.316667	1	0.601625
26.333333	1	0.602625
26.350000	1	0.603625
26.366667	1	0.604750
26.383333	1	0.605625
26.400000	1	0.605625
26.416667	1	0.606000
26.433333	1	0.605750
26.450000	1	0.605250
26.466667	1	0.605125
26.483333	1	0.604500
26.500000	1	0.603250
26.516667	1	0.601000
26.533333	1	0.598000
26.550000	1	0.594625
26.566667	1	0.591250
26.583333	1	0.587250
26.600000	1	0.582875
26.616667	1	0.577875
26.633333	1	0.572625
26.650000	1	0.567375
26.666667	1	0.561875
26.683333	1	0.555750
26.700000	1	0.549875
26.716667	1	0.543250
26.733333	1	0.536750
26.750000	1	0.530375
26.766667	1	0.524125
26.783333	1	0.517375
26.800000	1	0.511250
26.816667	1	0.504625
26.833333	1	0.498375
26.850000	1	0.492375
26.866667	1	0.487125
26.883333	1	0.482250
26.900000	1	0.477125
26.916667	1	0.472500
26.933333	1	0.468000
26.950000	1	0.463625
26.966667	1	0.459625
26.983333	1	0.456000
27.000000	1	0.454250
27.016667	1	0.452250
27.033333	1	0.451000
27.050000	1	0.449625
27.066667	1	0.449500
27.083333	1	0.450000
27.100000	1	0.450375
27.116667	1	0.451500
27.133333	1	0.453000
27.150000	1	0.455625
27.166667	1	0.458875
27.183333	1	0.462250
27.200000	1	0.466500
27.216667	1	0.470875
27.233333	1	0.476625
27.250000	1	0.483875
27.266667	1	0.491875
27.283333	1	0.500125
27.300000	1	0.509375
27.316667	1	0.519625
27.333333	1	0.531500
27.350000	1	0.544875
27.366667	1	0.559625
27.383333	1	0.574750
27.400000	1	0.593375
27.416667	1	0.613250
27.433333	1	0.635625
27.450000	1	0.660750
27.466667	1	0.687500
27.483333	1	0.717750
27.500000	1	0.751750
27.516667	1	0.787750
27.533333	1	0.828875
27.550000	1	0.873500
27.566667	1	0.922625
27.583333	1	0.975750
27.600000	1	1.033875
27.616667	1	1.096500
27.633333	1	1.164750
27.650000	1	1.237375
27.666667	1	1.316375
27.683333	1	1.400875
27.700000	1	1.490500
27.716667	1	1.585750
27.733333	1	1.685375
27.750000	1	1.790750
27.766667	1	1.901000
27.783333	1	2.015000
27.800000	1	2.133625
27.816667	1	2.255125
27.833333	1	2.379500
27.850000	1	2.506625
27.866667	1	2.635125
27.883333	1	2.764625
27.900000	1	2.893250
27.916667	1	3.020250
27.933333	1	3.144500
27.950000	1	3.265000
27.966667	1	3.381125
27.983333	1	3.490500
28.000000	1	3.592750
28.016667	1	3.685875
28.033333	1	3.768750
28.050000	1	3.841500
28.066667	1	3.901625
28.083333	1	3.949125
28.100000	1	3.981625
28.116667	1	3.999000
28.133333	1	4.001125
28.150000	1	3.988000
28.166667	1	3.960250
28.183333	1	3.917250
28.200000	1	3.859000
28.216667	1	3.786125
28.233333	1	3.699500
28.250000	1	3.600500
28.266667	1	3.489750
28.283333	1	3.368875
28.300000	1	3.239000
28.316667	1	3.101875
28.333333	1	2.959625
28.350000	1	2.813625
28.366667	1	2.664500
28.383333	1	2.514500
28.400000	1	2.365250
28.416667	1	2.217125
28.433333	1	2.071625
28.450000	1	1.929125
28.466667	1	1.790125
28.483333	1	1.655125
28.500000	1	1.526000
28.516667	1	1.402500
28.533333	1	1.283625
28.550000	1	1.170875
28.566667	1	1.063875
28.583333	1	0.962000
28.600000	1	0.865375
28.616667	1	0.773250
28.633333	1	0.686500
28.650000	1	0.602875
28.666667	1	0.524375
28.683333	1	0.448500
28.700000	1	0.377000
28.716667	1	0.308875
28.733333	1	0.243750
28.750000	1	0.182375
28.766667	1	0.123750
28.783333	1	0.068125
28.800000	1	0.014625
28.816667	1	-0.036000
28.833333	1	-0.084125
28.850000	1	-0.128625
28.866667	1	-0.170875
28.883333	1	-0.210125
28.900000	1	-0.246625
28.916667	1	-0.278750
28.933333	1	-0.309000
28.950000	1	-0.335250
28.966667	1	-0.358250
28.983333	1	-0.377625
29.000000	1	-0.394000
29.016667	1	-0.405375
29.033333	1	-0.413125
29.050000	1	-0.417125
29.066667	1	-0.417750
29.083333	1	-0.414750
29.100000	1	-0.407625
29.116667	1	-0.398000
29.133333	1	-0.384375
29.150000	1	-0.367750
29.166667	1	-0.347875
29.183333	1	-0.325125
29.200000	1	-0.299875
29.216667	1	-0.272250
29.233333	1	-0.242125
29.250000	1	-0.210250
29.266667	1	-0.177000
29.283333	1	-0.142375
29.300000	1	-0.107125
29.316667	1	-0.070875
29.333333	1	-0.034250
29.350000	1	0.003375
29.366667	1	0.040875
29.383333	1	0.077875
29.400000	1	0.114750
29.416667	1	0.150875
29.433333	1	0.186250
29.450000	1	0.220375
29.466667	1	0.253750
29.483333	1	0.285375
29.500000	1	0.315625
29.516667	1	0.344375
29.533333	1	0.372250
29.550000	1	0.398375
29.566667	1	0.422500
29.583333	1	0.444625
29.600000	1	0.465750
29.616667	1	0.485750
29.633333	1	0.503750
29.650000	1	0.519500
29.666667	1	0.534250
29.683333	1	0.547125
29.700000	1	0.558750
29.716667	1	0.568250
29.733333	1	0.577250
29.750000	1	0.584750
29.766667	1	0.590875
29.783333	1	0.595500
29.800000	1	0.599875
29.816667	1	0.603125
29.833333	1	0.605000
29.850000	1	0.606375
29.866667	1	0.607125
29.883333	1	0.606500
29.900000	1	0.605500
29.916667	1	0.604000
29.933333	1	0.602250
29.950000	1	0.600125
29.966667	1	0.597500
29.983333	1	0.594875
30.000000	1	0.592875
30.016667	1	0.590500
30.033333	1	0.587125
30.050000	1	0.584250
30.066667	1	0.581250
30.083333	1	0.578750
30.100000	1	0.576750
30.116667	1	0.575000
30.133333	1	0.574000
30.150000	1	0.573125
30.166667	1	0.573000
30.183333	1	0.573500
30.200000	1	0.574875
30.216667	1	0.577125
30.233333	1	0.580000
30.250000	1	0.583375
30.266667	1	0.588000
30.283333	1	0.593500
30.300000	1	0.600125
30.316667	1	0.607625
30.333333	1	0.616750
30.350000	1	0.627000
30.366667	1	0.638375
30.383333	1	0.651000
30.400000	1	0.665250
30.416667	1	0.681250
30.433333	1	0.699250
30.450000	1	0.719000
30.466667	1	0.740250
30.483333	1	0.763375
30.500000	1	0.787875
30.516667	1	0.813625
30.533333	1	0.840875
30.550000	1	0.869875
30.566667	1	0.901000
30.583333	1	0.933000
30.600000	1	0.966875
30.616667	1	1.000625
30.633333	1	1.036250
30.650000	1	1.071750
30.666667	1	1.108375
30.683333	1	1.145250
30.700000	1	1.181250
30.716667	1	1.216750
30.733333	1	1.252000
30.750000	1	1.285500
30.766667	1	1.317250
30.783333	1	1.348125
30.800000	1	1.376250
30.816667	1	1.401500
30.833333	1	1.424625
30.850000	1	1.444000
30.866667	1	1.460250
30.883333	1	1.472875
30.900000	1	1.482125
30.916667	1	1.485875
30.933333	1	1.486750
30.950000	1	1.483500
30.966667	1	1.476375
30.983333	1	1.465125
31.000000	1	1.449750
31.016667	1	1.430750
31.033333	1	1.408125
31.050000	1	1.382500
31.066667	1	1.354000
31.083333	1	1.322375
31.100000	1	1.289500
31.116667	1	1.254125
31.133333	1	1.216750
31.150000	1	1.178625
31.166667	1	1.139500
31.183333	1	1.100000
31.200000	1	1.060500
31.216667	1	1.021000
31.233333	1	0.981750
31.250000	1	0.942750
31.266667	1	0.904750
31.283333	1	0.867625
31.300000	1	0.831625
31.316667	1	0.796750
31.333333	1	0.763250
31.350000	1	0.732000
31.366667	1	0.702625
31.383333	1	0.674000
31.400000	1	0.646500
31.416667	1	0.621500
31.433333	1	0.598375
31.450000	1	0.575750
31.466667	1	0.555375
31.483333	1	0.536375
31.500000	1	0.518875
31.516667	1	0.502750
31.533333	1	0.488125
31.550000	1	0.474500
31.566667	1	0.462125
31.583333	1	0.450750
31.600000	1	0.440375
31.616667	1	0.431375
31.633333	1	0.422750
31.650000	1	0.415125
31.666667	1	0.408625
31.683333	1	0.402750
31.700000	1	0.397625
31.716667	1	0.393625
31.733333	1	0.390000
31.750000	1	0.387375
31.766667	1	0.384250
31.783333	1	0.382875
31.800000	1	0.381625
31.816667	1	0.381000
31.833333	1	0.380875
31.850000	1	0.380625
31.866667	1	0.380875
31.883333	1	0.381625
31.900000	1	0.382625
31.916667	1	0.383625
31.933333	1	0.384750
31.950000	1	0.386125
31.966667	1	0.387500
31.983333	1	0.388750
32.000000	1	0.390000
32.016667	1	0.391625
32.033333	1	0.392500
32.050000	1	0.392500
32.066667	1	0.392750
32.083333	1	0.392750
32.100000	1	0.392625
32.116667	1	0.391875
32.133333	1	0.390750
32.150000	1	0.390000
32.166667	1	0.388375
32.183333	1	0.386375
32.200000	1	0.383125
32.216667	1	0.379750
32.233333	1	0.376500
32.250000	1	0.372500
32.266667	1	0.367500
32.283333	1	0.362500
32.300000	1	0.356875
32.316667	1	0.351750
32.333333	1	0.345750
32.350000	1	0.339625
32.366667	1	0.333500
32.383333	1	0.327375
32.400000	1	0.320000
32.416667	1	0.313000
32.433333	1	0.306125
32.450000	1	0.299000
32.466667	1	0.292000
32.483333	1	0.285250
32.500000	1	0.278500
32.516667	1	0.272125
32.533333	1	0.265875
32.550000	1	0.260000
32.566667	1	0.254500
32.583333	1	0.248750
32.600000	1	0.243000
32.616667	1	0.237625
32.633333	1	0.232750
32.650000	1	0.228125
32.666667	1	0.223250
32.683333	1	0.218500
32.700000	1	0.214250
32.716667	1	0.210375
32.733333	1	0.206750
32.750000	1	0.203250
32.766667	1	0.200000
32.783333	1	0.196375
32.800000	1	0.192750
32.816667	1	0.189125
32.833333	1	0.186250
32.850000	1	0.182875
32.866667	1	0.179750
32.883333	1	0.177250
32.900000	1	0.173625
32.916667	1	0.170625
32.933333	1	0.167625
32.950000	1	0.164625
32.966667	1	0.161875
32.983333	1	0.158875
33.000000	1	0.156375
33.016667	1	0.152750
33.033333	1	0.149125
33.050000	1	0.145750
33.066667	1	0.142875
33.083333	1	0.139875
33.100000	1	0.137250
33.116667	1	0.134375
33.133333	1	0.131000
33.150000	1	0.128000
33.166667	1	0.125000
33.183333	1	0.121875
33.200000	1	0.119125
33.216667	1	0.116125
33.233333	1	0.113500
33.250000	1	0.110750
33.266667	1	0.107375
33.283333	1	0.105125
33.300000	1	0.103000
33.316667	1	0.101000
33.333333	1	0.099250
33.350000	1	0.097250
33.366667	1	0.095625
33.383333	1	0.094500
33.400000	1	0.093000
33.416667	1	0.091750
33.433333	1	0.090125
33.450000	1	0.089875
33.466667	1	0.090000
33.483333	1	0.089250
33.500000	1	0.089500
33.516667	1	0.090000
33.533333	1	0.091375
33.550000	1	0.092250
33.566667	1	0.093750
33.583333	1	0.095250
33.600000	1	0.097625
33.616667	1	0.100125
33.633333	1	0.102750
33.650000	1	0.105375
33.666667	1	0.109875
33.683333	1	0.114375
33.700000	1	0.119750
33.716667	1	0.125375
33.733333	1	0.131375
33.750000	1	0.138375
33.766667	1	0.145500
33.783333	1	0.153750
33.800000	1	0.162125
33.816667	1	0.171375
33.833333	1	0.181625
33.850000	1	0.193000
33.866667	1	0.205125
33.883333	1	0.217125
33.900000	1	0.231375
33.916667	1	0.245875
33.933333	1	0.261750
33.950000	1	0.278500
33.966667	1	0.296000
33.983333	1	0.314500
34.000000	1	0.334125
34.016667	1	0.354500
34.033333	1	0.374750
34.050000	1	0.396500
34.066667	1	0.419625
34.083333	1	0.443125
34.100000	1	0.467625
34.116667	1	0.492375
34.133333	1	0.518125
34.150000	1	0.544750
34.166667	1	0.571250
34.183333	1	0.597125
34.200000	1	0.623875
34.216667	1	0.650375
34.233333	1	0.676500
34.250000	1	0.702250
34.266667	1	0.727500
34.283333	1	0.751875
34.300000	1	0.775250
34.316667	1	0.797625
34.333333	1	0.818500
34.350000	1	0.837750
34.366667	1	0.855625
34.383333	1	0.872250
34.400000	1	0.885750
34.416667	1	0.897000
34.433333	1	0.907125
34.450000	1	0.915375
34.466667	1	0.920250
34.483333	1	0.923125
34.500000	1	0.924000
34.516667	1	0.922750
34.533333	1	0.918875
34.550000	1	0.912625
34.566667	1	0.905125
34.583333	1	0.894125
34.600000	1	0.881375
34.616667	1	0.866125
34.633333	1	0.850375
34.650000	1	0.833000
34.666667	1	0.813375
34.683333	1	0.792875
34.700000	1	0.770750
34.716667	1	0.748625
34.733333	1	0.725500
34.750000	1	0.702000
34.766667	1	0.677500
34.783333	1	0.653625
34.800000	1	0.628750
34.816667	1	0.604625
34.833333	1	0.580625
34.850000	1	0.557625
34.866667	1	0.535500
34.883333	1	0.513375
34.900000	1	0.491500
34.916667	1	0.471000
34.933333	1	0.450875
34.950000	1	0.432000
34.966667	1	0.414250
34.983333	1	0.397125
35.000000	1	0.381250
35.016667	1	0.367000
35.033333	1	0.353625
35.050000	1	0.340250
35.066667	1	0.328250
35.083333	1	0.317250
35.100000	1	0.307250
35.116667	1	0.297875
35.133333	1	0.289500
35.150000	1	0.281250
35.166667	1	0.274875
35.183333	1	0.268750
35.200000	1	0.263125
35.216667	1	0.257500
35.233333	1	0.253125
35.250000	1	0.249250
35.266667	1	0.245625
35.283333	1	0.242875
35.300000	1	0.240375
35.316667	1	0.238750
35.333333	1	0.237000
35.350000	1	0.235625
35.366667	1	0.235000
35.383333	1	0.233750
35.400000	1	0.232750
35.416667	1	0.231125
35.433333	1	0.230625
35.450000	1	0.230500
35.466667	1	0.230500
35.483333	1	0.229875
35.500000	1	0.229875
35.516667	1	0.230000
35.533333	1	0.229875
35.550000	1	0.230125
35.566667	1	0.229500
35.583333	1	0.229375
35.600000	1	0.229750
35.616667	1	0.229375
35.633333	1	0.229250
35.650000	1	0.229125
35.666667	1	0.228750
35.683333	1	0.227875
35.700000	1	0.227750
35.716667	1	0.227875
35.733333	1	0.228000
35.750000	1	0.228000
35.766667	1	0.227375
35.783333	1	0.226375
35.800000	1	0.225625
35.816667	1	0.225000
35.833333	1	0.224375
35.850000	1	0.224125
35.866667	1	0.223500
35.883333	1	0.223000
35.900000	1	0.222500
35.916667	1	0.222375
35.933333	1	0.222125
35.950000	1	0.221125
35.966667	1	0.219750
35.983333	1	0.218750
36.000000	1	0.217875
36.016667	1	0.216625
36.033333	1	0.215750
36.050000	1	0.215500
36.066667	1	0.214875
36.083333	1	0.213500
36.100000	1	0.212750
36.116667	1	0.211625
36.133333	1	0.210000
36.150000	1	0.209625
36.166667	1	0.208750
36.183333	1	0.207625
36.200000	1	0.206250
36.216667	1	0.204375
36.233333	1	0.202750
36.250000	1	0.201375
36.266667	1	0.199750
36.283333	1	0.198250
36.300000	1	0.197000
36.316667	1	0.195750
36.333333	1	0.194250
36.350000	1	0.192500
36.366667	1	0.190250
36.383333	1	0.188500
36.400000	1	0.187000
36.416667	1	0.185375
36.433333	1	0.184375
36.450000	1	0.182125
36.466667	1	0.180000
36.483333	1	0.178375
36.500000	1	0.176875
36.516667	1	0.175125
36.533333	1	0.173750
36.550000	1	0.171625
36.566667	1	0.169500
36.583333	1	0.167250
36.600000	1	0.164750
36.616667	1	0.162250
36.633333	1	0.159625
36.650000	1	0.157500
36.666667	1	0.155125
36.683333	1	0.152125
36.700000	1	0.149250
36.716667	1	0.147000
36.733333	1	0.143750
36.750000	1	0.140625
36.766667	1	0.138000
36.783333	1	0.134750
36.800000	1	0.131500
36.816667	1	0.128125
36.833333	1	0.124875
36.850000	1	0.121750
36.866667	1	0.117875
36.883333	1	0.114750
36.900000	1	0.111625
36.916667	1	0.108375
36.933333	1	0.105000
36.950000	1	0.102000
36.966667	1	0.098625
36.983333	1	0.095250
37.000000	1	0.092000
37.016667	1	0.088250
37.033333	1	0.085500
37.050000	1	0.081750
37.066667	1	0.078375
37.083333	1	0.075250
37.100000	1	0.072125
37.116667	1	0.069000
37.133333	1	0.066125
37.150000	1	0.063125
37.166667	1	0.060250
37.183333	1	0.057375
37.200000	1	0.054375
37.216667	1	0.051375
37.233333	1	0.048625
37.250000	1	0.046625
37.266667	1	0.043750
37.283333	1	0.041625
37.300000	1	0.039125
37.316667	1	0.037000
37.333333	1	0.035375
37.350000	1	0.033750
37.366667	1	0.031250
37.383333	1	0.029500
37.400000	1	0.027375
37.416667	1	0.025750
37.433333	1	0.024000
37.450000	1	0.022500
37.466667	1	0.021875
37.483333	1	0.021000
37.500000	1	0.019375
37.516667	1	0.018625
37.533333	1	0.017625
37.550000	1	0.016250
37.566667	1	0.015625
37.583333	1	0.014875
37.600000	1	0.014625
37.616667	1	0.014750
37.633333	1	0.014250
37.650000	1	0.014375
37.666667	1	0.014875
37.683333	1	0.014500
37.700000	1	0.013875
37.716667	1	0.013875
37.733333	1	0.014625
37.750000	1	0.014625
37.766667	1	0.015000
37.783333	1	0.015375
37.800000	1	0.016000
37.816667	1	0.016750
37.833333	1	0.018000
37.850000	1	0.018375
37.866667	1	0.018875
37.883333	1	0.019625
37.900000	1	0.020875
37.916667	1	0.022125
37.933333	1	0.023500
37.950000	1	0.024625
37.966667	1	0.024625
37.983333	1	0.025375
38.000000	1	0.026500
38.016667	1	0.027125
38.033333	1	0.027875
38.050000	1	0.029375
38.066667	1	0.030875
38.083333	1	0.032250
38.100000	1	0.033125
38.116667	1	0.034750
38.133333	1	0.034750
38.150000	1	0.035625
38.166667	1	0.036375
38.183333	1	0.037250
38.200000	1	0.038000
38.216667	1	0.038875
38.233333	1	0.039375
38.250000	1	0.040375
38.266667	1	0.040375
38.283333	1	0.041000
38.300000	1	0.041625
38.316667	1	0.041625
38.333333	1	0.041375
38.350000	1	0.041500
38.366667	1	0.042000
38.383333	1	0.041625
38.400000	1	0.041250
38.416667	1	0.041125
38.433333	1	0.040500
38.450000	1	0.040375
38.466667	1	0.040125
38.483333	1	0.039875
38.500000	1	0.039250
38.516667	1	0.038250
38.533333	1	0.037250
38.550000	1	0.036250
38.566667	1	0.035375
38.583333	1	0.034125
38.600000	1	0.032750
38.616667	1	0.031625
38.633333	1	0.030500
38.650000	1	0.029625
38.666667	1	0.027875
38.683333	1	0.026875
38.700000	1	0.026125
38.716667	1	0.025125
38.733333	1	0.024000
38.750000	1	0.023375
38.766667	1	0.022125
38.783333	1	0.020500
38.800000	1	0.019625
38.816667	1	0.018750
38.833333	1	0.018000
38.850000	1	0.017750
38.866667	1	0.016875
38.883333	1	0.015750
38.900000	1	0.014750
38.916667	1	0.013750
38.933333	1	0.013500
38.950000	1	0.013000
38.966667	1	0.011875
38.983333	1	0.011875
39.000000	1	0.011500
39.016667	1	0.011500
39.033333	1	0.011375
39.050000	1	0.011125
39.066667	1	0.010875
39.083333	1	0.011125
39.100000	1	0.010750
39.116667	1	0.010750
39.133333	1	0.011250
39.150000	1	0.011500
39.166667	1	0.012000
39.183333	1	0.012375
39.200000	1	0.012875
39.216667	1	0.012500
39.233333	1	0.013625
39.250000	1	0.013750
39.266667	1	0.013750
39.283333	1	0.014000
39.300000	1	0.014875
39.316667	1	0.015500
39.333333	1	0.015500
39.350000	1	0.016000
39.366667	1	0.016375
39.383333	1	0.016875
39.400000	1	0.017125
39.416667	1	0.018000
39.433333	1	0.018500
39.450000	1	0.018875
39.466667	1	0.019250
39.483333	1	0.019250
39.500000	1	0.020375
39.516667	1	0.020625
39.533333	1	0.021000
39.550000	1	0.021250
39.566667	1	0.021625
39.583333	1	0.022500
39.600000	1	0.022875
39.616667	1	0.024125
39.633333	1	0.024750
39.650000	1	0.025750
39.666667	1	0.026500
39.683333	1	0.026875
39.700000	1	0.027500
39.716667	1	0.028500
39.733333	1	0.028875
39.750000	1	0.029875
39.766667	1	0.031375
39.783333	1	0.032125
39.800000	1	0.033500
39.816667	1	0.034375
39.833333	1	0.035375
39.850000	1	0.036500
39.866667	1	0.037500
39.883333	1	0.038375
39.900000	1	0.039875
39.916667	1	0.040750
39.933333	1	0.042125
39.950000	1	0.042750
39.966667	1	0.043625
39.983333	1	0.043875
40.000000	1	0.045250
