File Path	chrom://990-75db15j/XVault/Ultimate_3000/1256/20230531_CMO_stabTest _FP08_FP09.seq/177.smp/RI_1.channel/RI_1.chm
Channel	RI_1

Injection Information:
Data Vault	XVault
Injection	FP08_2_s3
Injection Number	31
Position	BD9
Comment	
Processing Method	
Instrument Method	run_25B_method
Type	Unknown
Status	Finished
Injection Date	02.06.2023
Injection Time	09:13:55
Injection Volume (µl)	20.000
Dilution Factor	1.0000
Weight	1.0000

Chromatogram Data Information:
Time Min. (min)	0.000000
Time Max. (min)	40.000000
Data Points	2401
Detector	RI
Generating Data System	Chromeleon 7.2.5.9507
Exporting Data System	Chromeleon 7.2.5.0
Operator	Instrument Controller
Signal Quantity	Refractive 
Signal Unit	µRIU
Signal Min.	-0.503375
Signal Max.	53.931875
Channel	RI_1
Driver Name	RID520Driver.dll
Channel Type	Evaluation
Min. Step (s)	1
Max. Step (s)	1
Average Step (s)	1

Signal Parameter Information:
Signal Info	

Chromatogram Data:
Time (min)	Step (s)	Value (µRIU)
0.000000	n.a.	0.003250
0.016667	1	0.003125
0.033333	1	0.002750
0.050000	1	0.003125
0.066667	1	0.002750
0.083333	1	0.001875
0.100000	1	0.001125
0.116667	1	0.000875
0.133333	1	0.000250
0.150000	1	0.000000
0.166667	1	-0.000750
0.183333	1	-0.001250
0.200000	1	-0.001875
0.216667	1	-0.002250
0.233333	1	-0.003625
0.250000	1	-0.004250
0.266667	1	-0.005375
0.283333	1	-0.006375
0.300000	1	-0.009375
0.316667	1	-0.013500
0.333333	1	-0.017250
0.350000	1	-0.017875
0.366667	1	-0.015875
0.383333	1	-0.012375
0.400000	1	-0.009125
0.416667	1	-0.006625
0.433333	1	-0.004375
0.450000	1	-0.002875
0.466667	1	-0.001250
0.483333	1	-0.001500
0.500000	1	-0.002875
0.516667	1	-0.005375
0.533333	1	-0.007625
0.550000	1	-0.009125
0.566667	1	-0.010375
0.583333	1	-0.012125
0.600000	1	-0.013000
0.616667	1	-0.013625
0.633333	1	-0.014500
0.650000	1	-0.014750
0.666667	1	-0.015250
0.683333	1	-0.015875
0.700000	1	-0.016250
0.716667	1	-0.016500
0.733333	1	-0.016625
0.750000	1	-0.017125
0.766667	1	-0.018125
0.783333	1	-0.018375
0.800000	1	-0.018750
0.816667	1	-0.018625
0.833333	1	-0.018625
0.850000	1	-0.018875
0.866667	1	-0.018375
0.883333	1	-0.018500
0.900000	1	-0.018875
0.916667	1	-0.019375
0.933333	1	-0.019875
0.950000	1	-0.020250
0.966667	1	-0.019875
0.983333	1	-0.020250
1.000000	1	-0.020500
1.016667	1	-0.021500
1.033333	1	-0.021250
1.050000	1	-0.021375
1.066667	1	-0.021250
1.083333	1	-0.022125
1.100000	1	-0.022125
1.116667	1	-0.022750
1.133333	1	-0.022875
1.150000	1	-0.023625
1.166667	1	-0.024625
1.183333	1	-0.025375
1.200000	1	-0.025750
1.216667	1	-0.026000
1.233333	1	-0.026875
1.250000	1	-0.028125
1.266667	1	-0.028625
1.283333	1	-0.030000
1.300000	1	-0.030750
1.316667	1	-0.031250
1.333333	1	-0.032125
1.350000	1	-0.032875
1.366667	1	-0.033250
1.383333	1	-0.034250
1.400000	1	-0.035250
1.416667	1	-0.035625
1.433333	1	-0.036375
1.450000	1	-0.036125
1.466667	1	-0.037500
1.483333	1	-0.037000
1.500000	1	-0.037125
1.516667	1	-0.037750
1.533333	1	-0.037750
1.550000	1	-0.037250
1.566667	1	-0.036750
1.583333	1	-0.036625
1.600000	1	-0.035625
1.616667	1	-0.035375
1.633333	1	-0.035000
1.650000	1	-0.034500
1.666667	1	-0.033750
1.683333	1	-0.032875
1.700000	1	-0.032750
1.716667	1	-0.032250
1.733333	1	-0.031375
1.750000	1	-0.030625
1.766667	1	-0.029500
1.783333	1	-0.028625
1.800000	1	-0.027500
1.816667	1	-0.026500
1.833333	1	-0.026500
1.850000	1	-0.025375
1.866667	1	-0.024375
1.883333	1	-0.023625
1.900000	1	-0.023125
1.916667	1	-0.022750
1.933333	1	-0.022125
1.950000	1	-0.021375
1.966667	1	-0.021125
1.983333	1	-0.020750
2.000000	1	-0.020125
2.016667	1	-0.019625
2.033333	1	-0.019125
2.050000	1	-0.018250
2.066667	1	-0.018250
2.083333	1	-0.017375
2.100000	1	-0.017000
2.116667	1	-0.016000
2.133333	1	-0.016250
2.150000	1	-0.015500
2.166667	1	-0.015375
2.183333	1	-0.014625
2.200000	1	-0.014000
2.216667	1	-0.013625
2.233333	1	-0.013375
2.250000	1	-0.012625
2.266667	1	-0.011500
2.283333	1	-0.010375
2.300000	1	-0.010000
2.316667	1	-0.009000
2.333333	1	-0.008125
2.350000	1	-0.007250
2.366667	1	-0.006750
2.383333	1	-0.006000
2.400000	1	-0.005125
2.416667	1	-0.003500
2.433333	1	-0.002000
2.450000	1	-0.000375
2.466667	1	0.001000
2.483333	1	0.001500
2.500000	1	0.002875
2.516667	1	0.004875
2.533333	1	0.005625
2.550000	1	0.007125
2.566667	1	0.007625
2.583333	1	0.008625
2.600000	1	0.009750
2.616667	1	0.010750
2.633333	1	0.011875
2.650000	1	0.012375
2.666667	1	0.013375
2.683333	1	0.014500
2.700000	1	0.015625
2.716667	1	0.015500
2.733333	1	0.015500
2.750000	1	0.015625
2.766667	1	0.016250
2.783333	1	0.016250
2.800000	1	0.016750
2.816667	1	0.017375
2.833333	1	0.017750
2.850000	1	0.017875
2.866667	1	0.017875
2.883333	1	0.017500
2.900000	1	0.016875
2.916667	1	0.017375
2.933333	1	0.017875
2.950000	1	0.017875
2.966667	1	0.017625
2.983333	1	0.017750
3.000000	1	0.017500
3.016667	1	0.018250
3.033333	1	0.018500
3.050000	1	0.018250
3.066667	1	0.018375
3.083333	1	0.019000
3.100000	1	0.019125
3.116667	1	0.018750
3.133333	1	0.018750
3.150000	1	0.018500
3.166667	1	0.018375
3.183333	1	0.018250
3.200000	1	0.018375
3.216667	1	0.018000
3.233333	1	0.017750
3.250000	1	0.017375
3.266667	1	0.017500
3.283333	1	0.017625
3.300000	1	0.017500
3.316667	1	0.017375
3.333333	1	0.017375
3.350000	1	0.017500
3.366667	1	0.016625
3.383333	1	0.016625
3.400000	1	0.016625
3.416667	1	0.016375
3.433333	1	0.016000
3.450000	1	0.015875
3.466667	1	0.015125
3.483333	1	0.014625
3.500000	1	0.013875
3.516667	1	0.013500
3.533333	1	0.012375
3.550000	1	0.012000
3.566667	1	0.011750
3.583333	1	0.010750
3.600000	1	0.011000
3.616667	1	0.010875
3.633333	1	0.009875
3.650000	1	0.009250
3.666667	1	0.008750
3.683333	1	0.008500
3.700000	1	0.007750
3.716667	1	0.007625
3.733333	1	0.007250
3.750000	1	0.007250
3.766667	1	0.007250
3.783333	1	0.007000
3.800000	1	0.006500
3.816667	1	0.006750
3.833333	1	0.006875
3.850000	1	0.006625
3.866667	1	0.005875
3.883333	1	0.005625
3.900000	1	0.005625
3.916667	1	0.005125
3.933333	1	0.005375
3.950000	1	0.005375
3.966667	1	0.005250
3.983333	1	0.005000
4.000000	1	0.004250
4.016667	1	0.004000
4.033333	1	0.003125
4.050000	1	0.002375
4.066667	1	0.002125
4.083333	1	0.001500
4.100000	1	0.000500
4.116667	1	-0.000375
4.133333	1	-0.001375
4.150000	1	-0.002000
4.166667	1	-0.002375
4.183333	1	-0.002750
4.200000	1	-0.003125
4.216667	1	-0.004000
4.233333	1	-0.005125
4.250000	1	-0.006250
4.266667	1	-0.006875
4.283333	1	-0.008000
4.300000	1	-0.008750
4.316667	1	-0.009875
4.333333	1	-0.010875
4.350000	1	-0.011875
4.366667	1	-0.012375
4.383333	1	-0.012250
4.400000	1	-0.013500
4.416667	1	-0.013625
4.433333	1	-0.013750
4.450000	1	-0.014750
4.466667	1	-0.015250
4.483333	1	-0.015750
4.500000	1	-0.015875
4.516667	1	-0.016500
4.533333	1	-0.016125
4.550000	1	-0.016000
4.566667	1	-0.015625
4.583333	1	-0.015500
4.600000	1	-0.015000
4.616667	1	-0.014625
4.633333	1	-0.014750
4.650000	1	-0.013875
4.666667	1	-0.014000
4.683333	1	-0.013250
4.700000	1	-0.011875
4.716667	1	-0.011000
4.733333	1	-0.010125
4.750000	1	-0.009125
4.766667	1	-0.007625
4.783333	1	-0.005625
4.800000	1	-0.003625
4.816667	1	-0.001625
4.833333	1	-0.000250
4.850000	1	0.001000
4.866667	1	0.002375
4.883333	1	0.003625
4.900000	1	0.005750
4.916667	1	0.007250
4.933333	1	0.009250
4.950000	1	0.011625
4.966667	1	0.014625
4.983333	1	0.017750
5.000000	1	0.019625
5.016667	1	0.021875
5.033333	1	0.023625
5.050000	1	0.025625
5.066667	1	0.027500
5.083333	1	0.029375
5.100000	1	0.031375
5.116667	1	0.033375
5.133333	1	0.034875
5.150000	1	0.036875
5.166667	1	0.038875
5.183333	1	0.040875
5.200000	1	0.042500
5.216667	1	0.044625
5.233333	1	0.046625
5.250000	1	0.048375
5.266667	1	0.050500
5.283333	1	0.052250
5.300000	1	0.053375
5.316667	1	0.054500
5.333333	1	0.056125
5.350000	1	0.057750
5.366667	1	0.059500
5.383333	1	0.060625
5.400000	1	0.062250
5.416667	1	0.062625
5.433333	1	0.063125
5.450000	1	0.063375
5.466667	1	0.064125
5.483333	1	0.064375
5.500000	1	0.064625
5.516667	1	0.064625
5.533333	1	0.064000
5.550000	1	0.064250
5.566667	1	0.063750
5.583333	1	0.063875
5.600000	1	0.063500
5.616667	1	0.062750
5.633333	1	0.061375
5.650000	1	0.060250
5.666667	1	0.059125
5.683333	1	0.057875
5.700000	1	0.056500
5.716667	1	0.055000
5.733333	1	0.053500
5.750000	1	0.052375
5.766667	1	0.050750
5.783333	1	0.049125
5.800000	1	0.048000
5.816667	1	0.046625
5.833333	1	0.045000
5.850000	1	0.044125
5.866667	1	0.042125
5.883333	1	0.040375
5.900000	1	0.038750
5.916667	1	0.037625
5.933333	1	0.036250
5.950000	1	0.035250
5.966667	1	0.034250
5.983333	1	0.033125
6.000000	1	0.032500
6.016667	1	0.031750
6.033333	1	0.031250
6.050000	1	0.030250
6.066667	1	0.029750
6.083333	1	0.029625
6.100000	1	0.029500
6.116667	1	0.029750
6.133333	1	0.029625
6.150000	1	0.029875
6.166667	1	0.030375
6.183333	1	0.031000
6.200000	1	0.032000
6.216667	1	0.033375
6.233333	1	0.034625
6.250000	1	0.035250
6.266667	1	0.036875
6.283333	1	0.037875
6.300000	1	0.039000
6.316667	1	0.040750
6.333333	1	0.042125
6.350000	1	0.043500
6.366667	1	0.045125
6.383333	1	0.046875
6.400000	1	0.048625
6.416667	1	0.050125
6.433333	1	0.051500
6.450000	1	0.053250
6.466667	1	0.054375
6.483333	1	0.056125
6.500000	1	0.058125
6.516667	1	0.059875
6.533333	1	0.061750
6.550000	1	0.063500
6.566667	1	0.065250
6.583333	1	0.067250
6.600000	1	0.069250
6.616667	1	0.071000
6.633333	1	0.072625
6.650000	1	0.074000
6.666667	1	0.075125
6.683333	1	0.076875
6.700000	1	0.077750
6.716667	1	0.079125
6.733333	1	0.081000
6.750000	1	0.083250
6.766667	1	0.084875
6.783333	1	0.085875
6.800000	1	0.087500
6.816667	1	0.088500
6.833333	1	0.089500
6.850000	1	0.090375
6.866667	1	0.091000
6.883333	1	0.092125
6.900000	1	0.092875
6.916667	1	0.093375
6.933333	1	0.093125
6.950000	1	0.094000
6.966667	1	0.094000
6.983333	1	0.093750
7.000000	1	0.093625
7.016667	1	0.093500
7.033333	1	0.093375
7.050000	1	0.092750
7.066667	1	0.091375
7.083333	1	0.090750
7.100000	1	0.089375
7.116667	1	0.088625
7.133333	1	0.087500
7.150000	1	0.085875
7.166667	1	0.083875
7.183333	1	0.082250
7.200000	1	0.080625
7.216667	1	0.078250
7.233333	1	0.075625
7.250000	1	0.072750
7.266667	1	0.069500
7.283333	1	0.067000
7.300000	1	0.063875
7.316667	1	0.061375
7.333333	1	0.058125
7.350000	1	0.055125
7.366667	1	0.052000
7.383333	1	0.048625
7.400000	1	0.045250
7.416667	1	0.041875
7.433333	1	0.038625
7.450000	1	0.035375
7.466667	1	0.032375
7.483333	1	0.029000
7.500000	1	0.025125
7.516667	1	0.022125
7.533333	1	0.019750
7.550000	1	0.017875
7.566667	1	0.015375
7.583333	1	0.012750
7.600000	1	0.011125
7.616667	1	0.009125
7.633333	1	0.007250
7.650000	1	0.005875
7.666667	1	0.004500
7.683333	1	0.003750
7.700000	1	0.002250
7.716667	1	0.002000
7.733333	1	0.001375
7.750000	1	0.001375
7.766667	1	0.001125
7.783333	1	0.001500
7.800000	1	0.001000
7.816667	1	0.001250
7.833333	1	0.001375
7.850000	1	0.002000
7.866667	1	0.002375
7.883333	1	0.002875
7.900000	1	0.003125
7.916667	1	0.003875
7.933333	1	0.004375
7.950000	1	0.005500
7.966667	1	0.006000
7.983333	1	0.006625
8.000000	1	0.007125
8.016667	1	0.008375
8.033333	1	0.009125
8.050000	1	0.009000
8.066667	1	0.009500
8.083333	1	0.010250
8.100000	1	0.010500
8.116667	1	0.011125
8.133333	1	0.012250
8.150000	1	0.013250
8.166667	1	0.014500
8.183333	1	0.015250
8.200000	1	0.015875
8.216667	1	0.016625
8.233333	1	0.017625
8.250000	1	0.018000
8.266667	1	0.018500
8.283333	1	0.019250
8.300000	1	0.020875
8.316667	1	0.022500
8.333333	1	0.023625
8.350000	1	0.025125
8.366667	1	0.026500
8.383333	1	0.027875
8.400000	1	0.028875
8.416667	1	0.030500
8.433333	1	0.032375
8.450000	1	0.034500
8.466667	1	0.036250
8.483333	1	0.037625
8.500000	1	0.039750
8.516667	1	0.041375
8.533333	1	0.042375
8.550000	1	0.045000
8.566667	1	0.046750
8.583333	1	0.048000
8.600000	1	0.049500
8.616667	1	0.050500
8.633333	1	0.051500
8.650000	1	0.052625
8.666667	1	0.053875
8.683333	1	0.054875
8.700000	1	0.055750
8.716667	1	0.056250
8.733333	1	0.057125
8.750000	1	0.058375
8.766667	1	0.059250
8.783333	1	0.059875
8.800000	1	0.059875
8.816667	1	0.060125
8.833333	1	0.060500
8.850000	1	0.060750
8.866667	1	0.060750
8.883333	1	0.061125
8.900000	1	0.060875
8.916667	1	0.060750
8.933333	1	0.060875
8.950000	1	0.061375
8.966667	1	0.061375
8.983333	1	0.060250
9.000000	1	0.060000
9.016667	1	0.060125
9.033333	1	0.060500
9.050000	1	0.060500
9.066667	1	0.060750
9.083333	1	0.060125
9.100000	1	0.060250
9.116667	1	0.060875
9.133333	1	0.061250
9.150000	1	0.061375
9.166667	1	0.061375
9.183333	1	0.061250
9.200000	1	0.061500
9.216667	1	0.062125
9.233333	1	0.063125
9.250000	1	0.063875
9.266667	1	0.064125
9.283333	1	0.065250
9.300000	1	0.065875
9.316667	1	0.066500
9.333333	1	0.067750
9.350000	1	0.068750
9.366667	1	0.069250
9.383333	1	0.070750
9.400000	1	0.073000
9.416667	1	0.074875
9.433333	1	0.077875
9.450000	1	0.080625
9.466667	1	0.083375
9.483333	1	0.087250
9.500000	1	0.091875
9.516667	1	0.098000
9.533333	1	0.105250
9.550000	1	0.113125
9.566667	1	0.122125
9.583333	1	0.132375
9.600000	1	0.144000
9.616667	1	0.157000
9.633333	1	0.173000
9.650000	1	0.190875
9.666667	1	0.210375
9.683333	1	0.231875
9.700000	1	0.255750
9.716667	1	0.281500
9.733333	1	0.308875
9.750000	1	0.336000
9.766667	1	0.362125
9.783333	1	0.385250
9.800000	1	0.405000
9.816667	1	0.420625
9.833333	1	0.430250
9.850000	1	0.433375
9.866667	1	0.428250
9.883333	1	0.414125
9.900000	1	0.395500
9.916667	1	0.383250
9.933333	1	0.403250
9.950000	1	0.497750
9.966667	1	0.721250
9.983333	1	1.135625
10.000000	1	1.800625
10.016667	1	2.771375
10.033333	1	4.088500
10.050000	1	5.779125
10.066667	1	7.857500
10.083333	1	10.326000
10.100000	1	13.171125
10.116667	1	16.369500
10.133333	1	19.878375
10.150000	1	23.635125
10.166667	1	27.555125
10.183333	1	31.519875
10.200000	1	35.385125
10.216667	1	38.969250
10.233333	1	42.064000
10.250000	1	44.449500
10.266667	1	45.932375
10.283333	1	46.378750
10.300000	1	45.743625
10.316667	1	44.088000
10.333333	1	41.572000
10.350000	1	38.425250
10.366667	1	34.904875
10.383333	1	31.258000
10.400000	1	27.683875
10.416667	1	24.326250
10.433333	1	21.274875
10.450000	1	18.568250
10.466667	1	16.205875
10.483333	1	14.167750
10.500000	1	12.419500
10.516667	1	10.923500
10.533333	1	9.642875
10.550000	1	8.544375
10.566667	1	7.601375
10.583333	1	6.789500
10.600000	1	6.091000
10.616667	1	5.489750
10.633333	1	4.972250
10.650000	1	4.527625
10.666667	1	4.145875
10.683333	1	3.816875
10.700000	1	3.532500
10.716667	1	3.285500
10.733333	1	3.070625
10.750000	1	2.881250
10.766667	1	2.712000
10.783333	1	2.560250
10.800000	1	2.424250
10.816667	1	2.300875
10.833333	1	2.188750
10.850000	1	2.086375
10.866667	1	1.993125
10.883333	1	1.907750
10.900000	1	1.830000
10.916667	1	1.758625
10.933333	1	1.692375
10.950000	1	1.631250
10.966667	1	1.574375
10.983333	1	1.521500
11.000000	1	1.473250
11.016667	1	1.427750
11.033333	1	1.385250
11.050000	1	1.346000
11.066667	1	1.309625
11.083333	1	1.276375
11.100000	1	1.245375
11.116667	1	1.215625
11.133333	1	1.188000
11.150000	1	1.162500
11.166667	1	1.139125
11.183333	1	1.115500
11.200000	1	1.094375
11.216667	1	1.074875
11.233333	1	1.055750
11.250000	1	1.038375
11.266667	1	1.021125
11.283333	1	1.005375
11.300000	1	0.989750
11.316667	1	0.975125
11.333333	1	0.960375
11.350000	1	0.946500
11.366667	1	0.933375
11.383333	1	0.921875
11.400000	1	0.910375
11.416667	1	0.900000
11.433333	1	0.890375
11.450000	1	0.881250
11.466667	1	0.873750
11.483333	1	0.867000
11.500000	1	0.861500
11.516667	1	0.856500
11.533333	1	0.852500
11.550000	1	0.849875
11.566667	1	0.848000
11.583333	1	0.847000
11.600000	1	0.847000
11.616667	1	0.846000
11.633333	1	0.846500
11.650000	1	0.847375
11.666667	1	0.848000
11.683333	1	0.848875
11.700000	1	0.849625
11.716667	1	0.849500
11.733333	1	0.849375
11.750000	1	0.850125
11.766667	1	0.850625
11.783333	1	0.851125
11.800000	1	0.852375
11.816667	1	0.853875
11.833333	1	0.856750
11.850000	1	0.860625
11.866667	1	0.866000
11.883333	1	0.872000
11.900000	1	0.880875
11.916667	1	0.891000
11.933333	1	0.903500
11.950000	1	0.918125
11.966667	1	0.934625
11.983333	1	0.955125
12.000000	1	0.978250
12.016667	1	1.004750
12.033333	1	1.034250
12.050000	1	1.068500
12.066667	1	1.107625
12.083333	1	1.153625
12.100000	1	1.207625
12.116667	1	1.271250
12.133333	1	1.347250
12.150000	1	1.438000
12.166667	1	1.545250
12.183333	1	1.671250
12.200000	1	1.818125
12.216667	1	1.987875
12.233333	1	2.181125
12.250000	1	2.399875
12.266667	1	2.646125
12.283333	1	2.919500
12.300000	1	3.222500
12.316667	1	3.557000
12.333333	1	3.926375
12.350000	1	4.331625
12.366667	1	4.777000
12.383333	1	5.264750
12.400000	1	5.794750
12.416667	1	6.366250
12.433333	1	6.974875
12.450000	1	7.613125
12.466667	1	8.269375
12.483333	1	8.928000
12.500000	1	9.569375
12.516667	1	10.168875
12.533333	1	10.702750
12.550000	1	11.147875
12.566667	1	11.490500
12.583333	1	11.722125
12.600000	1	11.846750
12.616667	1	11.872625
12.633333	1	11.816000
12.650000	1	11.690250
12.666667	1	11.509375
12.683333	1	11.286750
12.700000	1	11.034125
12.716667	1	10.760750
12.733333	1	10.473750
12.750000	1	10.179125
12.766667	1	9.881875
12.783333	1	9.586000
12.800000	1	9.294125
12.816667	1	9.008250
12.833333	1	8.729625
12.850000	1	8.459500
12.866667	1	8.196250
12.883333	1	7.940000
12.900000	1	7.689000
12.916667	1	7.442500
12.933333	1	7.198500
12.950000	1	6.956375
12.966667	1	6.713250
12.983333	1	6.466250
13.000000	1	6.214375
13.016667	1	5.955125
13.033333	1	5.686750
13.050000	1	5.405875
13.066667	1	5.108500
13.083333	1	4.792500
13.100000	1	4.453375
13.116667	1	4.091125
13.133333	1	3.708250
13.150000	1	3.314250
13.166667	1	2.925750
13.183333	1	2.564500
13.200000	1	2.247125
13.216667	1	1.982875
13.233333	1	1.770625
13.250000	1	1.602375
13.266667	1	1.468375
13.283333	1	1.360625
13.300000	1	1.272500
13.316667	1	1.199875
13.333333	1	1.138375
13.350000	1	1.085750
13.366667	1	1.039750
13.383333	1	0.999500
13.400000	1	0.963875
13.416667	1	0.932625
13.433333	1	0.904500
13.450000	1	0.879500
13.466667	1	0.856750
13.483333	1	0.836875
13.500000	1	0.819750
13.516667	1	0.804375
13.533333	1	0.792375
13.550000	1	0.782625
13.566667	1	0.775125
13.583333	1	0.769125
13.600000	1	0.765375
13.616667	1	0.762625
13.633333	1	0.760750
13.650000	1	0.759125
13.666667	1	0.758000
13.683333	1	0.755500
13.700000	1	0.752125
13.716667	1	0.747625
13.733333	1	0.742125
13.750000	1	0.735375
13.766667	1	0.726750
13.783333	1	0.717875
13.800000	1	0.707125
13.816667	1	0.695875
13.833333	1	0.683750
13.850000	1	0.670625
13.866667	1	0.658125
13.883333	1	0.644625
13.900000	1	0.632750
13.916667	1	0.620625
13.933333	1	0.608750
13.950000	1	0.597000
13.966667	1	0.587125
13.983333	1	0.577625
14.000000	1	0.568500
14.016667	1	0.560500
14.033333	1	0.553375
14.050000	1	0.547625
14.066667	1	0.542875
14.083333	1	0.539375
14.100000	1	0.536000
14.116667	1	0.534750
14.133333	1	0.534250
14.150000	1	0.535250
14.166667	1	0.538625
14.183333	1	0.544375
14.200000	1	0.552375
14.216667	1	0.563000
14.233333	1	0.576500
14.250000	1	0.594375
14.266667	1	0.617125
14.283333	1	0.645750
14.300000	1	0.681000
14.316667	1	0.722500
14.333333	1	0.773500
14.350000	1	0.834125
14.366667	1	0.906250
14.383333	1	0.990625
14.400000	1	1.089625
14.416667	1	1.203875
14.433333	1	1.336375
14.450000	1	1.487500
14.466667	1	1.660875
14.483333	1	1.858625
14.500000	1	2.083000
14.516667	1	2.337875
14.533333	1	2.628125
14.550000	1	2.958750
14.566667	1	3.337750
14.583333	1	3.774375
14.600000	1	4.282875
14.616667	1	4.879125
14.633333	1	5.586375
14.650000	1	6.431875
14.666667	1	7.447500
14.683333	1	8.670875
14.700000	1	10.140500
14.716667	1	11.891875
14.733333	1	13.956250
14.750000	1	16.355750
14.766667	1	19.096125
14.783333	1	22.161625
14.800000	1	25.517750
14.816667	1	29.104375
14.833333	1	32.838125
14.850000	1	36.611625
14.866667	1	40.301250
14.883333	1	43.773625
14.900000	1	46.895750
14.916667	1	49.548500
14.933333	1	51.633000
14.950000	1	53.078625
14.966667	1	53.846750
14.983333	1	53.931875
15.000000	1	53.359000
15.016667	1	52.179625
15.033333	1	50.464875
15.050000	1	48.300625
15.066667	1	45.780500
15.083333	1	43.003000
15.100000	1	40.061375
15.116667	1	37.042125
15.133333	1	34.016875
15.150000	1	31.047000
15.166667	1	28.180875
15.183333	1	25.458750
15.200000	1	22.903375
15.216667	1	20.529000
15.233333	1	18.343625
15.250000	1	16.348125
15.266667	1	14.538375
15.283333	1	12.909000
15.300000	1	11.449750
15.316667	1	10.151500
15.333333	1	9.000625
15.350000	1	7.985625
15.366667	1	7.093750
15.383333	1	6.313875
15.400000	1	5.633750
15.416667	1	5.041500
15.433333	1	4.528875
15.450000	1	4.085250
15.466667	1	3.703125
15.483333	1	3.376000
15.500000	1	3.097375
15.516667	1	2.860250
15.533333	1	2.660750
15.550000	1	2.492500
15.566667	1	2.349875
15.583333	1	2.229375
15.600000	1	2.127500
15.616667	1	2.038875
15.633333	1	1.962375
15.650000	1	1.893125
15.666667	1	1.828625
15.683333	1	1.768500
15.700000	1	1.710750
15.716667	1	1.654375
15.733333	1	1.599375
15.750000	1	1.544375
15.766667	1	1.491125
15.783333	1	1.438000
15.800000	1	1.387000
15.816667	1	1.337125
15.833333	1	1.289250
15.850000	1	1.243500
15.866667	1	1.199375
15.883333	1	1.158250
15.900000	1	1.119500
15.916667	1	1.083125
15.933333	1	1.048875
15.950000	1	1.017875
15.966667	1	0.989000
15.983333	1	0.962500
16.000000	1	0.938625
16.016667	1	0.916875
16.033333	1	0.897375
16.050000	1	0.880125
16.066667	1	0.865125
16.083333	1	0.851750
16.100000	1	0.841375
16.116667	1	0.832500
16.133333	1	0.824500
16.150000	1	0.818625
16.166667	1	0.813625
16.183333	1	0.809000
16.200000	1	0.806250
16.216667	1	0.803875
16.233333	1	0.802000
16.250000	1	0.799500
16.266667	1	0.796625
16.283333	1	0.794500
16.300000	1	0.792500
16.316667	1	0.789625
16.333333	1	0.787250
16.350000	1	0.784125
16.366667	1	0.781000
16.383333	1	0.778875
16.400000	1	0.777250
16.416667	1	0.775375
16.433333	1	0.774000
16.450000	1	0.773125
16.466667	1	0.773250
16.483333	1	0.773000
16.500000	1	0.774375
16.516667	1	0.776000
16.533333	1	0.778625
16.550000	1	0.780875
16.566667	1	0.784625
16.583333	1	0.788375
16.600000	1	0.793500
16.616667	1	0.798125
16.633333	1	0.803750
16.650000	1	0.809750
16.666667	1	0.815375
16.683333	1	0.821750
16.700000	1	0.827875
16.716667	1	0.834250
16.733333	1	0.840250
16.750000	1	0.846250
16.766667	1	0.850875
16.783333	1	0.856250
16.800000	1	0.860875
16.816667	1	0.864125
16.833333	1	0.866250
16.850000	1	0.867000
16.866667	1	0.866625
16.883333	1	0.865750
16.900000	1	0.865250
16.916667	1	0.864000
16.933333	1	0.862125
16.950000	1	0.860375
16.966667	1	0.859250
16.983333	1	0.858375
17.000000	1	0.858875
17.016667	1	0.859125
17.033333	1	0.860250
17.050000	1	0.861500
17.066667	1	0.863250
17.083333	1	0.864375
17.100000	1	0.865375
17.116667	1	0.866125
17.133333	1	0.866000
17.150000	1	0.864625
17.166667	1	0.863000
17.183333	1	0.859625
17.200000	1	0.856375
17.216667	1	0.851375
17.233333	1	0.845250
17.250000	1	0.837750
17.266667	1	0.829250
17.283333	1	0.820625
17.300000	1	0.811875
17.316667	1	0.803125
17.333333	1	0.794250
17.350000	1	0.785000
17.366667	1	0.776000
17.383333	1	0.767375
17.400000	1	0.759625
17.416667	1	0.752500
17.433333	1	0.746625
17.450000	1	0.742125
17.466667	1	0.737500
17.483333	1	0.734375
17.500000	1	0.732875
17.516667	1	0.732250
17.533333	1	0.733500
17.550000	1	0.736375
17.566667	1	0.740750
17.583333	1	0.747125
17.600000	1	0.754625
17.616667	1	0.763750
17.633333	1	0.773625
17.650000	1	0.785250
17.666667	1	0.797125
17.683333	1	0.810375
17.700000	1	0.825125
17.716667	1	0.839750
17.733333	1	0.855000
17.750000	1	0.870125
17.766667	1	0.885250
17.783333	1	0.899375
17.800000	1	0.914000
17.816667	1	0.926625
17.833333	1	0.938250
17.850000	1	0.948625
17.866667	1	0.956875
17.883333	1	0.963125
17.900000	1	0.967250
17.916667	1	0.969500
17.933333	1	0.969500
17.950000	1	0.967500
17.966667	1	0.962875
17.983333	1	0.956875
18.000000	1	0.949125
18.016667	1	0.939750
18.033333	1	0.928625
18.050000	1	0.916250
18.066667	1	0.902750
18.083333	1	0.889250
18.100000	1	0.875000
18.116667	1	0.860125
18.133333	1	0.845250
18.150000	1	0.830500
18.166667	1	0.815875
18.183333	1	0.802125
18.200000	1	0.788125
18.216667	1	0.775250
18.233333	1	0.762625
18.250000	1	0.751000
18.266667	1	0.739625
18.283333	1	0.729000
18.300000	1	0.719750
18.316667	1	0.711750
18.333333	1	0.704375
18.350000	1	0.698125
18.366667	1	0.692625
18.383333	1	0.688000
18.400000	1	0.684250
18.416667	1	0.681250
18.433333	1	0.678875
18.450000	1	0.677250
18.466667	1	0.675750
18.483333	1	0.674875
18.500000	1	0.673750
18.516667	1	0.673375
18.533333	1	0.674250
18.550000	1	0.674750
18.566667	1	0.676375
18.583333	1	0.677625
18.600000	1	0.679875
18.616667	1	0.682125
18.633333	1	0.685375
18.650000	1	0.689000
18.666667	1	0.693250
18.683333	1	0.698125
18.700000	1	0.703750
18.716667	1	0.710000
18.733333	1	0.716500
18.750000	1	0.723750
18.766667	1	0.730625
18.783333	1	0.738750
18.800000	1	0.748000
18.816667	1	0.757250
18.833333	1	0.767125
18.850000	1	0.777125
18.866667	1	0.787750
18.883333	1	0.800125
18.900000	1	0.813375
18.916667	1	0.827750
18.933333	1	0.844000
18.950000	1	0.862000
18.966667	1	0.882500
18.983333	1	0.905375
19.000000	1	0.930500
19.016667	1	0.958000
19.033333	1	0.988625
19.050000	1	1.021000
19.066667	1	1.055750
19.083333	1	1.093750
19.100000	1	1.132875
19.116667	1	1.173000
19.133333	1	1.213375
19.150000	1	1.253500
19.166667	1	1.292500
19.183333	1	1.329125
19.200000	1	1.362125
19.216667	1	1.391250
19.233333	1	1.416875
19.250000	1	1.436750
19.266667	1	1.451000
19.283333	1	1.459375
19.300000	1	1.461625
19.316667	1	1.457750
19.333333	1	1.447375
19.350000	1	1.430875
19.366667	1	1.409250
19.383333	1	1.382500
19.400000	1	1.352125
19.416667	1	1.317500
19.433333	1	1.279625
19.450000	1	1.239125
19.466667	1	1.197125
19.483333	1	1.153750
19.500000	1	1.110625
19.516667	1	1.067750
19.533333	1	1.026250
19.550000	1	0.986000
19.566667	1	0.947500
19.583333	1	0.911000
19.600000	1	0.876750
19.616667	1	0.845625
19.633333	1	0.817375
19.650000	1	0.791875
19.666667	1	0.769375
19.683333	1	0.750875
19.700000	1	0.735375
19.716667	1	0.724000
19.733333	1	0.716125
19.750000	1	0.711375
19.766667	1	0.710500
19.783333	1	0.711750
19.800000	1	0.717375
19.816667	1	0.725375
19.833333	1	0.735375
19.850000	1	0.747500
19.866667	1	0.761875
19.883333	1	0.777625
19.900000	1	0.794375
19.916667	1	0.811500
19.933333	1	0.828875
19.950000	1	0.845750
19.966667	1	0.861750
19.983333	1	0.876125
20.000000	1	0.889375
20.016667	1	0.900625
20.033333	1	0.909875
20.050000	1	0.916625
20.066667	1	0.922875
20.083333	1	0.926875
20.100000	1	0.929875
20.116667	1	0.932000
20.133333	1	0.933000
20.150000	1	0.934125
20.166667	1	0.935375
20.183333	1	0.936250
20.200000	1	0.938000
20.216667	1	0.942000
20.233333	1	0.946250
20.250000	1	0.952125
20.266667	1	0.960500
20.283333	1	0.970875
20.300000	1	0.983500
20.316667	1	0.998875
20.333333	1	1.015250
20.350000	1	1.033500
20.366667	1	1.053000
20.383333	1	1.073500
20.400000	1	1.094125
20.416667	1	1.114875
20.433333	1	1.134750
20.450000	1	1.153000
20.466667	1	1.170375
20.483333	1	1.185375
20.500000	1	1.198125
20.516667	1	1.208750
20.533333	1	1.216875
20.550000	1	1.222375
20.566667	1	1.226500
20.583333	1	1.228625
20.600000	1	1.231375
20.616667	1	1.233875
20.633333	1	1.237875
20.650000	1	1.244625
20.666667	1	1.255000
20.683333	1	1.269625
20.700000	1	1.291000
20.716667	1	1.318625
20.733333	1	1.354375
20.750000	1	1.397750
20.766667	1	1.450375
20.783333	1	1.511750
20.800000	1	1.580625
20.816667	1	1.656750
20.833333	1	1.738250
20.850000	1	1.823750
20.866667	1	1.910250
20.883333	1	1.995625
20.900000	1	2.077375
20.916667	1	2.152625
20.933333	1	2.218000
20.950000	1	2.273250
20.966667	1	2.314625
20.983333	1	2.341000
21.000000	1	2.351875
21.016667	1	2.346750
21.033333	1	2.324875
21.050000	1	2.287375
21.066667	1	2.236500
21.083333	1	2.173375
21.100000	1	2.098875
21.116667	1	2.016125
21.133333	1	1.926125
21.150000	1	1.831500
21.166667	1	1.734125
21.183333	1	1.635125
21.200000	1	1.536875
21.216667	1	1.440625
21.233333	1	1.347500
21.250000	1	1.258625
21.266667	1	1.174125
21.283333	1	1.095375
21.300000	1	1.021875
21.316667	1	0.953500
21.333333	1	0.890875
21.350000	1	0.834000
21.366667	1	0.782625
21.383333	1	0.735750
21.400000	1	0.693500
21.416667	1	0.655750
21.433333	1	0.622250
21.450000	1	0.592125
21.466667	1	0.566000
21.483333	1	0.542500
21.500000	1	0.522375
21.516667	1	0.504500
21.533333	1	0.488500
21.550000	1	0.474625
21.566667	1	0.462375
21.583333	1	0.450875
21.600000	1	0.441125
21.616667	1	0.432500
21.633333	1	0.424750
21.650000	1	0.418625
21.666667	1	0.413250
21.683333	1	0.408250
21.700000	1	0.404375
21.716667	1	0.400250
21.733333	1	0.396875
21.750000	1	0.395000
21.766667	1	0.392750
21.783333	1	0.391250
21.800000	1	0.390125
21.816667	1	0.389875
21.833333	1	0.390375
21.850000	1	0.391000
21.866667	1	0.392500
21.883333	1	0.394375
21.900000	1	0.396625
21.916667	1	0.398750
21.933333	1	0.401875
21.950000	1	0.404000
21.966667	1	0.407000
21.983333	1	0.409750
22.000000	1	0.412500
22.016667	1	0.415250
22.033333	1	0.417625
22.050000	1	0.418250
22.066667	1	0.419625
22.083333	1	0.420250
22.100000	1	0.419750
22.116667	1	0.419500
22.133333	1	0.418625
22.150000	1	0.417750
22.166667	1	0.416750
22.183333	1	0.415500
22.200000	1	0.414250
22.216667	1	0.412625
22.233333	1	0.411250
22.250000	1	0.409375
22.266667	1	0.408375
22.283333	1	0.407750
22.300000	1	0.407500
22.316667	1	0.407500
22.333333	1	0.408500
22.350000	1	0.409750
22.366667	1	0.411000
22.383333	1	0.413000
22.400000	1	0.416000
22.416667	1	0.418750
22.433333	1	0.421625
22.450000	1	0.425750
22.466667	1	0.429375
22.483333	1	0.433625
22.500000	1	0.438250
22.516667	1	0.442875
22.533333	1	0.447500
22.550000	1	0.451375
22.566667	1	0.455250
22.583333	1	0.459625
22.600000	1	0.464250
22.616667	1	0.467625
22.633333	1	0.470500
22.650000	1	0.473375
22.666667	1	0.476000
22.683333	1	0.478125
22.700000	1	0.479750
22.716667	1	0.480750
22.733333	1	0.481375
22.750000	1	0.480750
22.766667	1	0.480125
22.783333	1	0.478625
22.800000	1	0.476500
22.816667	1	0.473875
22.833333	1	0.470875
22.850000	1	0.467125
22.866667	1	0.463500
22.883333	1	0.458875
22.900000	1	0.454625
22.916667	1	0.450375
22.933333	1	0.445375
22.950000	1	0.440125
22.966667	1	0.435500
22.983333	1	0.431625
23.000000	1	0.427750
23.016667	1	0.424375
23.033333	1	0.421625
23.050000	1	0.419250
23.066667	1	0.418000
23.083333	1	0.417500
23.100000	1	0.418500
23.116667	1	0.420875
23.133333	1	0.423750
23.150000	1	0.427750
23.166667	1	0.433000
23.183333	1	0.439625
23.200000	1	0.447750
23.216667	1	0.457875
23.233333	1	0.469125
23.250000	1	0.482625
23.266667	1	0.497875
23.283333	1	0.514625
23.300000	1	0.533125
23.316667	1	0.554125
23.333333	1	0.577250
23.350000	1	0.603000
23.366667	1	0.631250
23.383333	1	0.662625
23.400000	1	0.697125
23.416667	1	0.735250
23.433333	1	0.776625
23.450000	1	0.822875
23.466667	1	0.873500
23.483333	1	0.929750
23.500000	1	0.992000
23.516667	1	1.062375
23.533333	1	1.141250
23.550000	1	1.229125
23.566667	1	1.327500
23.583333	1	1.437000
23.600000	1	1.558250
23.616667	1	1.693750
23.633333	1	1.843625
23.650000	1	2.007625
23.666667	1	2.185500
23.683333	1	2.378625
23.700000	1	2.584500
23.716667	1	2.803000
23.733333	1	3.031750
23.750000	1	3.268875
23.766667	1	3.510500
23.783333	1	3.753625
23.800000	1	3.993500
23.816667	1	4.227250
23.833333	1	4.448500
23.850000	1	4.653875
23.866667	1	4.839875
23.883333	1	5.002375
23.900000	1	5.137375
23.916667	1	5.241875
23.933333	1	5.314750
23.950000	1	5.354000
23.966667	1	5.360125
23.983333	1	5.332000
24.000000	1	5.271375
24.016667	1	5.181125
24.033333	1	5.063000
24.050000	1	4.920000
24.066667	1	4.755250
24.083333	1	4.572375
24.100000	1	4.375000
24.116667	1	4.166875
24.133333	1	3.951625
24.150000	1	3.732375
24.166667	1	3.512750
24.183333	1	3.294750
24.200000	1	3.082000
24.216667	1	2.876500
24.233333	1	2.678875
24.250000	1	2.491000
24.266667	1	2.314375
24.283333	1	2.149375
24.300000	1	1.995000
24.316667	1	1.853125
24.333333	1	1.722000
24.350000	1	1.602500
24.366667	1	1.493250
24.383333	1	1.394875
24.400000	1	1.306250
24.416667	1	1.226750
24.433333	1	1.154250
24.450000	1	1.090250
24.466667	1	1.033250
24.483333	1	0.981125
24.500000	1	0.934625
24.516667	1	0.892250
24.533333	1	0.853500
24.550000	1	0.818125
24.566667	1	0.785250
24.583333	1	0.755000
24.600000	1	0.726625
24.616667	1	0.699625
24.633333	1	0.674000
24.650000	1	0.649375
24.666667	1	0.626000
24.683333	1	0.603750
24.700000	1	0.581250
24.716667	1	0.559625
24.733333	1	0.539125
24.750000	1	0.518625
24.766667	1	0.498625
24.783333	1	0.478875
24.800000	1	0.459875
24.816667	1	0.441000
24.833333	1	0.422500
24.850000	1	0.405625
24.866667	1	0.389500
24.883333	1	0.374000
24.900000	1	0.359250
24.916667	1	0.344875
24.933333	1	0.331500
24.950000	1	0.318750
24.966667	1	0.306625
24.983333	1	0.296000
25.000000	1	0.286000
25.016667	1	0.278125
25.033333	1	0.269625
25.050000	1	0.262875
25.066667	1	0.256750
25.083333	1	0.251375
25.100000	1	0.246500
25.116667	1	0.243250
25.133333	1	0.240125
25.150000	1	0.237500
25.166667	1	0.235750
25.183333	1	0.234375
25.200000	1	0.233375
25.216667	1	0.233500
25.233333	1	0.233625
25.250000	1	0.234250
25.266667	1	0.235500
25.283333	1	0.237000
25.300000	1	0.239375
25.316667	1	0.241250
25.333333	1	0.243375
25.350000	1	0.245250
25.366667	1	0.247500
25.383333	1	0.250375
25.400000	1	0.253375
25.416667	1	0.256250
25.433333	1	0.259500
25.450000	1	0.261875
25.466667	1	0.264625
25.483333	1	0.266875
25.500000	1	0.269250
25.516667	1	0.271500
25.533333	1	0.273625
25.550000	1	0.274750
25.566667	1	0.276125
25.583333	1	0.277625
25.600000	1	0.278125
25.616667	1	0.278750
25.633333	1	0.279750
25.650000	1	0.280625
25.666667	1	0.280625
25.683333	1	0.280875
25.700000	1	0.280500
25.716667	1	0.279750
25.733333	1	0.280125
25.750000	1	0.279750
25.766667	1	0.279375
25.783333	1	0.278750
25.800000	1	0.277625
25.816667	1	0.276750
25.833333	1	0.274625
25.850000	1	0.273000
25.866667	1	0.271375
25.883333	1	0.269750
25.900000	1	0.267750
25.916667	1	0.264875
25.933333	1	0.262000
25.950000	1	0.259000
25.966667	1	0.255625
25.983333	1	0.251875
26.000000	1	0.247375
26.016667	1	0.242750
26.033333	1	0.238250
26.050000	1	0.232875
26.066667	1	0.227750
26.083333	1	0.222500
26.100000	1	0.218000
26.116667	1	0.212750
26.133333	1	0.207875
26.150000	1	0.203500
26.166667	1	0.198500
26.183333	1	0.194625
26.200000	1	0.190875
26.216667	1	0.187875
26.233333	1	0.184750
26.250000	1	0.182750
26.266667	1	0.181250
26.283333	1	0.180250
26.300000	1	0.180375
26.316667	1	0.180125
26.333333	1	0.180750
26.350000	1	0.181750
26.366667	1	0.183625
26.383333	1	0.185750
26.400000	1	0.188375
26.416667	1	0.191000
26.433333	1	0.193500
26.450000	1	0.195750
26.466667	1	0.199125
26.483333	1	0.202125
26.500000	1	0.205375
26.516667	1	0.208000
26.533333	1	0.210625
26.550000	1	0.212875
26.566667	1	0.215375
26.583333	1	0.217500
26.600000	1	0.218750
26.616667	1	0.220000
26.633333	1	0.220500
26.650000	1	0.221750
26.666667	1	0.223125
26.683333	1	0.223500
26.700000	1	0.224250
26.716667	1	0.224750
26.733333	1	0.225000
26.750000	1	0.224625
26.766667	1	0.225000
26.783333	1	0.225625
26.800000	1	0.225125
26.816667	1	0.225875
26.833333	1	0.226875
26.850000	1	0.227875
26.866667	1	0.228750
26.883333	1	0.230250
26.900000	1	0.231750
26.916667	1	0.233625
26.933333	1	0.236125
26.950000	1	0.239000
26.966667	1	0.241375
26.983333	1	0.244250
27.000000	1	0.247750
27.016667	1	0.252125
27.033333	1	0.256250
27.050000	1	0.260625
27.066667	1	0.265625
27.083333	1	0.272000
27.100000	1	0.278375
27.116667	1	0.285625
27.133333	1	0.291750
27.150000	1	0.299250
27.166667	1	0.307000
27.183333	1	0.315750
27.200000	1	0.325375
27.216667	1	0.336000
27.233333	1	0.346500
27.250000	1	0.357750
27.266667	1	0.370000
27.283333	1	0.382500
27.300000	1	0.395625
27.316667	1	0.409625
27.333333	1	0.424875
27.350000	1	0.440375
27.366667	1	0.457250
27.383333	1	0.475125
27.400000	1	0.494750
27.416667	1	0.515750
27.433333	1	0.538125
27.450000	1	0.562750
27.466667	1	0.589625
27.483333	1	0.618125
27.500000	1	0.649625
27.516667	1	0.684000
27.533333	1	0.721875
27.550000	1	0.764250
27.566667	1	0.811625
27.583333	1	0.863750
27.600000	1	0.921500
27.616667	1	0.984250
27.633333	1	1.053625
27.650000	1	1.129375
27.666667	1	1.211500
27.683333	1	1.300375
27.700000	1	1.397000
27.716667	1	1.499875
27.733333	1	1.610250
27.750000	1	1.725250
27.766667	1	1.845500
27.783333	1	1.971500
27.800000	1	2.100500
27.816667	1	2.231875
27.833333	1	2.363625
27.850000	1	2.495500
27.866667	1	2.624750
27.883333	1	2.750250
27.900000	1	2.869625
27.916667	1	2.982000
27.933333	1	3.084750
27.950000	1	3.176125
27.966667	1	3.256000
27.983333	1	3.322125
28.000000	1	3.372625
28.016667	1	3.408250
28.033333	1	3.427000
28.050000	1	3.428375
28.066667	1	3.412125
28.083333	1	3.378500
28.100000	1	3.329625
28.116667	1	3.264000
28.133333	1	3.184250
28.150000	1	3.090625
28.166667	1	2.985625
28.183333	1	2.871125
28.200000	1	2.747000
28.216667	1	2.616125
28.233333	1	2.480375
28.250000	1	2.340500
28.266667	1	2.199125
28.283333	1	2.057750
28.300000	1	1.916750
28.316667	1	1.777625
28.333333	1	1.642500
28.350000	1	1.511625
28.366667	1	1.386250
28.383333	1	1.266500
28.400000	1	1.152125
28.416667	1	1.044375
28.433333	1	0.943250
28.450000	1	0.848375
28.466667	1	0.758625
28.483333	1	0.674250
28.500000	1	0.594875
28.516667	1	0.521000
28.533333	1	0.451625
28.550000	1	0.386125
28.566667	1	0.324500
28.583333	1	0.266875
28.600000	1	0.211625
28.616667	1	0.158875
28.633333	1	0.109250
28.650000	1	0.061625
28.666667	1	0.015750
28.683333	1	-0.029000
28.700000	1	-0.072125
28.716667	1	-0.113500
28.733333	1	-0.152875
28.750000	1	-0.191125
28.766667	1	-0.228000
28.783333	1	-0.263250
28.800000	1	-0.296500
28.816667	1	-0.327375
28.833333	1	-0.356750
28.850000	1	-0.383500
28.866667	1	-0.407750
28.883333	1	-0.429250
28.900000	1	-0.448500
28.916667	1	-0.465500
28.933333	1	-0.479250
28.950000	1	-0.490125
28.966667	1	-0.497375
28.983333	1	-0.502000
29.000000	1	-0.503375
29.016667	1	-0.501625
29.033333	1	-0.496875
29.050000	1	-0.488375
29.066667	1	-0.477250
29.083333	1	-0.463500
29.100000	1	-0.447375
29.116667	1	-0.427875
29.133333	1	-0.405750
29.150000	1	-0.381625
29.166667	1	-0.356125
29.183333	1	-0.328500
29.200000	1	-0.299750
29.216667	1	-0.270625
29.233333	1	-0.239875
29.250000	1	-0.207875
29.266667	1	-0.176500
29.283333	1	-0.144500
29.300000	1	-0.112375
29.316667	1	-0.080125
29.333333	1	-0.048125
29.350000	1	-0.017125
29.366667	1	0.013875
29.383333	1	0.044375
29.400000	1	0.073875
29.416667	1	0.102750
29.433333	1	0.130500
29.450000	1	0.156250
29.466667	1	0.181750
29.483333	1	0.206750
29.500000	1	0.229500
29.516667	1	0.250875
29.533333	1	0.271125
29.550000	1	0.289750
29.566667	1	0.307375
29.583333	1	0.323750
29.600000	1	0.339000
29.616667	1	0.352250
29.633333	1	0.364750
29.650000	1	0.375125
29.666667	1	0.384750
29.683333	1	0.392125
29.700000	1	0.398625
29.716667	1	0.404875
29.733333	1	0.409125
29.750000	1	0.412375
29.766667	1	0.415000
29.783333	1	0.416500
29.800000	1	0.417375
29.816667	1	0.417500
29.833333	1	0.417375
29.850000	1	0.415750
29.866667	1	0.413125
29.883333	1	0.410625
29.900000	1	0.407250
29.916667	1	0.403375
29.933333	1	0.399750
29.950000	1	0.396000
29.966667	1	0.392250
29.983333	1	0.388125
30.000000	1	0.383875
30.016667	1	0.380375
30.033333	1	0.376125
30.050000	1	0.372250
30.066667	1	0.368750
30.083333	1	0.364750
30.100000	1	0.360875
30.116667	1	0.357375
30.133333	1	0.353625
30.150000	1	0.351625
30.166667	1	0.348875
30.183333	1	0.345750
30.200000	1	0.343875
30.216667	1	0.341250
30.233333	1	0.338625
30.250000	1	0.336125
30.266667	1	0.334375
30.283333	1	0.331875
30.300000	1	0.330875
30.316667	1	0.328750
30.333333	1	0.327125
30.350000	1	0.325625
30.366667	1	0.324000
30.383333	1	0.322750
30.400000	1	0.321625
30.416667	1	0.321125
30.433333	1	0.320625
30.450000	1	0.320500
30.466667	1	0.321250
30.483333	1	0.322625
30.500000	1	0.323625
30.516667	1	0.324750
30.533333	1	0.326500
30.550000	1	0.329375
30.566667	1	0.331875
30.583333	1	0.334500
30.600000	1	0.337375
30.616667	1	0.341375
30.633333	1	0.345000
30.650000	1	0.349125
30.666667	1	0.353500
30.683333	1	0.357625
30.700000	1	0.362125
30.716667	1	0.366500
30.733333	1	0.371375
30.750000	1	0.375625
30.766667	1	0.379625
30.783333	1	0.383125
30.800000	1	0.387000
30.816667	1	0.389875
30.833333	1	0.391250
30.850000	1	0.392875
30.866667	1	0.393375
30.883333	1	0.393750
30.900000	1	0.393125
30.916667	1	0.391500
30.933333	1	0.389000
30.950000	1	0.386000
30.966667	1	0.382625
30.983333	1	0.378375
31.000000	1	0.372750
31.016667	1	0.366750
31.033333	1	0.360250
31.050000	1	0.353500
31.066667	1	0.346250
31.083333	1	0.339000
31.100000	1	0.330625
31.116667	1	0.322500
31.133333	1	0.314500
31.150000	1	0.305250
31.166667	1	0.297125
31.183333	1	0.288750
31.200000	1	0.280875
31.216667	1	0.272875
31.233333	1	0.265250
31.250000	1	0.258250
31.266667	1	0.251625
31.283333	1	0.245375
31.300000	1	0.238875
31.316667	1	0.232500
31.333333	1	0.227000
31.350000	1	0.223000
31.366667	1	0.219000
31.383333	1	0.214750
31.400000	1	0.211625
31.416667	1	0.208625
31.433333	1	0.205250
31.450000	1	0.203625
31.466667	1	0.201250
31.483333	1	0.200250
31.500000	1	0.199625
31.516667	1	0.199125
31.533333	1	0.199125
31.550000	1	0.199500
31.566667	1	0.200000
31.583333	1	0.201000
31.600000	1	0.202375
31.616667	1	0.204500
31.633333	1	0.206125
31.650000	1	0.208000
31.666667	1	0.210875
31.683333	1	0.213875
31.700000	1	0.217250
31.716667	1	0.220625
31.733333	1	0.224500
31.750000	1	0.228625
31.766667	1	0.232750
31.783333	1	0.237375
31.800000	1	0.242000
31.816667	1	0.246750
31.833333	1	0.251625
31.850000	1	0.257000
31.866667	1	0.262000
31.883333	1	0.267500
31.900000	1	0.272250
31.916667	1	0.277375
31.933333	1	0.282875
31.950000	1	0.288000
31.966667	1	0.292625
31.983333	1	0.297250
32.000000	1	0.301125
32.016667	1	0.305375
32.033333	1	0.309250
32.050000	1	0.312250
32.066667	1	0.315375
32.083333	1	0.317375
32.100000	1	0.319000
32.116667	1	0.320000
32.133333	1	0.320375
32.150000	1	0.320500
32.166667	1	0.319625
32.183333	1	0.318000
32.200000	1	0.315875
32.216667	1	0.314125
32.233333	1	0.311000
32.250000	1	0.307375
32.266667	1	0.303875
32.283333	1	0.299750
32.300000	1	0.295250
32.316667	1	0.289875
32.333333	1	0.284125
32.350000	1	0.278875
32.366667	1	0.274125
32.383333	1	0.267750
32.400000	1	0.261875
32.416667	1	0.256250
32.433333	1	0.249625
32.450000	1	0.242375
32.466667	1	0.236375
32.483333	1	0.230000
32.500000	1	0.224875
32.516667	1	0.218500
32.533333	1	0.212500
32.550000	1	0.206750
32.566667	1	0.200125
32.583333	1	0.194625
32.600000	1	0.188000
32.616667	1	0.182500
32.633333	1	0.176125
32.650000	1	0.170500
32.666667	1	0.164250
32.683333	1	0.158625
32.700000	1	0.152250
32.716667	1	0.146375
32.733333	1	0.139500
32.750000	1	0.133875
32.766667	1	0.127875
32.783333	1	0.122125
32.800000	1	0.117125
32.816667	1	0.111125
32.833333	1	0.105000
32.850000	1	0.099375
32.866667	1	0.093750
32.883333	1	0.088750
32.900000	1	0.083625
32.916667	1	0.078750
32.933333	1	0.074125
32.950000	1	0.069125
32.966667	1	0.064625
32.983333	1	0.060875
33.000000	1	0.057500
33.016667	1	0.053875
33.033333	1	0.050125
33.050000	1	0.047500
33.066667	1	0.045375
33.083333	1	0.043125
33.100000	1	0.041125
33.116667	1	0.038875
33.133333	1	0.037250
33.150000	1	0.036125
33.166667	1	0.034625
33.183333	1	0.034000
33.200000	1	0.034250
33.216667	1	0.033500
33.233333	1	0.033625
33.250000	1	0.033875
33.266667	1	0.034750
33.283333	1	0.035250
33.300000	1	0.035750
33.316667	1	0.036750
33.333333	1	0.038250
33.350000	1	0.039875
33.366667	1	0.042750
33.383333	1	0.044625
33.400000	1	0.046125
33.416667	1	0.048625
33.433333	1	0.051625
33.450000	1	0.054500
33.466667	1	0.058250
33.483333	1	0.061500
33.500000	1	0.064625
33.516667	1	0.068875
33.533333	1	0.073000
33.550000	1	0.078000
33.566667	1	0.082750
33.583333	1	0.087250
33.600000	1	0.093125
33.616667	1	0.099250
33.633333	1	0.105500
33.650000	1	0.112875
33.666667	1	0.119500
33.683333	1	0.126250
33.700000	1	0.134375
33.716667	1	0.142750
33.733333	1	0.152375
33.750000	1	0.162375
33.766667	1	0.173625
33.783333	1	0.185250
33.800000	1	0.197875
33.816667	1	0.211250
33.833333	1	0.225375
33.850000	1	0.240750
33.866667	1	0.256750
33.883333	1	0.274125
33.900000	1	0.293250
33.916667	1	0.313125
33.933333	1	0.335500
33.950000	1	0.358750
33.966667	1	0.383000
33.983333	1	0.409375
34.000000	1	0.436375
34.016667	1	0.465250
34.033333	1	0.494875
34.050000	1	0.525625
34.066667	1	0.558000
34.083333	1	0.592000
34.100000	1	0.626125
34.116667	1	0.660625
34.133333	1	0.695750
34.150000	1	0.731125
34.166667	1	0.766250
34.183333	1	0.800625
34.200000	1	0.833875
34.216667	1	0.866500
34.233333	1	0.897625
34.250000	1	0.927250
34.266667	1	0.954375
34.283333	1	0.979500
34.300000	1	1.001750
34.316667	1	1.021125
34.333333	1	1.037125
34.350000	1	1.050250
34.366667	1	1.059875
34.383333	1	1.066000
34.400000	1	1.068125
34.416667	1	1.067000
34.433333	1	1.062625
34.450000	1	1.054750
34.466667	1	1.043375
34.483333	1	1.028375
34.500000	1	1.011250
34.516667	1	0.991625
34.533333	1	0.969000
34.550000	1	0.943500
34.566667	1	0.916375
34.583333	1	0.888250
34.600000	1	0.858000
34.616667	1	0.826625
34.633333	1	0.793875
34.650000	1	0.760625
34.666667	1	0.727125
34.683333	1	0.693375
34.700000	1	0.660500
34.716667	1	0.627625
34.733333	1	0.595125
34.750000	1	0.563250
34.766667	1	0.532125
34.783333	1	0.502250
34.800000	1	0.473625
34.816667	1	0.447000
34.833333	1	0.420750
34.850000	1	0.396500
34.866667	1	0.373000
34.883333	1	0.351500
34.900000	1	0.331125
34.916667	1	0.312000
34.933333	1	0.294625
34.950000	1	0.278500
34.966667	1	0.263375
34.983333	1	0.249250
35.000000	1	0.236500
35.016667	1	0.225500
35.033333	1	0.215000
35.050000	1	0.205750
35.066667	1	0.197750
35.083333	1	0.191500
35.100000	1	0.185750
35.116667	1	0.181125
35.133333	1	0.176000
35.150000	1	0.172750
35.166667	1	0.169125
35.183333	1	0.165750
35.200000	1	0.163875
35.216667	1	0.162125
35.233333	1	0.161000
35.250000	1	0.159375
35.266667	1	0.159875
35.283333	1	0.159750
35.300000	1	0.159625
35.316667	1	0.160000
35.333333	1	0.160500
35.350000	1	0.161250
35.366667	1	0.162250
35.383333	1	0.162875
35.400000	1	0.163250
35.416667	1	0.163750
35.433333	1	0.165125
35.450000	1	0.165375
35.466667	1	0.165750
35.483333	1	0.166875
35.500000	1	0.167250
35.516667	1	0.167750
35.533333	1	0.167625
35.550000	1	0.167750
35.566667	1	0.167000
35.583333	1	0.167000
35.600000	1	0.166625
35.616667	1	0.166375
35.633333	1	0.166250
35.650000	1	0.165750
35.666667	1	0.165375
35.683333	1	0.165250
35.700000	1	0.164000
35.716667	1	0.163375
35.733333	1	0.163000
35.750000	1	0.162500
35.766667	1	0.161750
35.783333	1	0.160750
35.800000	1	0.160375
35.816667	1	0.159500
35.833333	1	0.158875
35.850000	1	0.157875
35.866667	1	0.157000
35.883333	1	0.155875
35.900000	1	0.155500
35.916667	1	0.154750
35.933333	1	0.154500
35.950000	1	0.153500
35.966667	1	0.153250
35.983333	1	0.152250
36.000000	1	0.151750
36.016667	1	0.151875
36.033333	1	0.151250
36.050000	1	0.150500
36.066667	1	0.150000
36.083333	1	0.149875
36.100000	1	0.149375
36.116667	1	0.148625
36.133333	1	0.148125
36.150000	1	0.148250
36.166667	1	0.147625
36.183333	1	0.147250
36.200000	1	0.146375
36.216667	1	0.145875
36.233333	1	0.144500
36.250000	1	0.143625
36.266667	1	0.143125
36.283333	1	0.142125
36.300000	1	0.141375
36.316667	1	0.140750
36.333333	1	0.140000
36.350000	1	0.138500
36.366667	1	0.136625
36.383333	1	0.135625
36.400000	1	0.133875
36.416667	1	0.132125
36.433333	1	0.131250
36.450000	1	0.129625
36.466667	1	0.128375
36.483333	1	0.127375
36.500000	1	0.125750
36.516667	1	0.124375
36.533333	1	0.123500
36.550000	1	0.122000
36.566667	1	0.120375
36.583333	1	0.118750
36.600000	1	0.117375
36.616667	1	0.115625
36.633333	1	0.114125
36.650000	1	0.112500
36.666667	1	0.111125
36.683333	1	0.109375
36.700000	1	0.107500
36.716667	1	0.106125
36.733333	1	0.103875
36.750000	1	0.102500
36.766667	1	0.099750
36.783333	1	0.097250
36.800000	1	0.094875
36.816667	1	0.092875
36.833333	1	0.090250
36.850000	1	0.087375
36.866667	1	0.084375
36.883333	1	0.081250
36.900000	1	0.078875
36.916667	1	0.076000
36.933333	1	0.073375
36.950000	1	0.070125
36.966667	1	0.067750
36.983333	1	0.065500
37.000000	1	0.062250
37.016667	1	0.059000
37.033333	1	0.056250
37.050000	1	0.053250
37.066667	1	0.050750
37.083333	1	0.047750
37.100000	1	0.045750
37.116667	1	0.043000
37.133333	1	0.041125
37.150000	1	0.038750
37.166667	1	0.036625
37.183333	1	0.034375
37.200000	1	0.032875
37.216667	1	0.031000
37.233333	1	0.030000
37.250000	1	0.028750
37.266667	1	0.027625
37.283333	1	0.026500
37.300000	1	0.025500
37.316667	1	0.023875
37.333333	1	0.022875
37.350000	1	0.021000
37.366667	1	0.019500
37.383333	1	0.018875
37.400000	1	0.017500
37.416667	1	0.016500
37.433333	1	0.015625
37.450000	1	0.014375
37.466667	1	0.013375
37.483333	1	0.012750
37.500000	1	0.012000
37.516667	1	0.011125
37.533333	1	0.009625
37.550000	1	0.008500
37.566667	1	0.006875
37.583333	1	0.006125
37.600000	1	0.005000
37.616667	1	0.004125
37.633333	1	0.002875
37.650000	1	0.002375
37.666667	1	0.001000
37.683333	1	-0.000250
37.700000	1	-0.001000
37.716667	1	-0.001625
37.733333	1	-0.003250
37.750000	1	-0.004250
37.766667	1	-0.005750
37.783333	1	-0.006250
37.800000	1	-0.007625
37.816667	1	-0.008625
37.833333	1	-0.009750
37.850000	1	-0.010250
37.866667	1	-0.010625
37.883333	1	-0.011875
37.900000	1	-0.012625
37.916667	1	-0.012750
37.933333	1	-0.014000
37.950000	1	-0.014000
37.966667	1	-0.014125
37.983333	1	-0.013875
38.000000	1	-0.013875
38.016667	1	-0.013625
38.033333	1	-0.013500
38.050000	1	-0.012875
38.066667	1	-0.012500
38.083333	1	-0.011500
38.100000	1	-0.010625
38.116667	1	-0.009500
38.133333	1	-0.009000
38.150000	1	-0.007500
38.166667	1	-0.006625
38.183333	1	-0.005750
38.200000	1	-0.004625
38.216667	1	-0.004125
38.233333	1	-0.003625
38.250000	1	-0.002750
38.266667	1	-0.001250
38.283333	1	0.000125
38.300000	1	0.001500
38.316667	1	0.002875
38.333333	1	0.003750
38.350000	1	0.005000
38.366667	1	0.006250
38.383333	1	0.007375
38.400000	1	0.008375
38.416667	1	0.008875
38.433333	1	0.010250
38.450000	1	0.011125
38.466667	1	0.011875
38.483333	1	0.012625
38.500000	1	0.013500
38.516667	1	0.014500
38.533333	1	0.015125
38.550000	1	0.016125
38.566667	1	0.016625
38.583333	1	0.017125
38.600000	1	0.017625
38.616667	1	0.018375
38.633333	1	0.018750
38.650000	1	0.019125
38.666667	1	0.019250
38.683333	1	0.019000
38.700000	1	0.019625
38.716667	1	0.020000
38.733333	1	0.019625
38.750000	1	0.019500
38.766667	1	0.019500
38.783333	1	0.019250
38.800000	1	0.019625
38.816667	1	0.019750
38.833333	1	0.020375
38.850000	1	0.020375
38.866667	1	0.021250
38.883333	1	0.021500
38.900000	1	0.021500
38.916667	1	0.021375
38.933333	1	0.021625
38.950000	1	0.021750
38.966667	1	0.022125
38.983333	1	0.022125
39.000000	1	0.022500
39.016667	1	0.022125
39.033333	1	0.022250
39.050000	1	0.022500
39.066667	1	0.023125
39.083333	1	0.023375
39.100000	1	0.023750
39.116667	1	0.023625
39.133333	1	0.023375
39.150000	1	0.023000
39.166667	1	0.022875
39.183333	1	0.023125
39.200000	1	0.023000
39.216667	1	0.023125
39.233333	1	0.022750
39.250000	1	0.022625
39.266667	1	0.022750
39.283333	1	0.022750
39.300000	1	0.021875
39.316667	1	0.021625
39.333333	1	0.021500
39.350000	1	0.021750
39.366667	1	0.021625
39.383333	1	0.021250
39.400000	1	0.020625
39.416667	1	0.019875
39.433333	1	0.020000
39.450000	1	0.019500
39.466667	1	0.019750
39.483333	1	0.019375
39.500000	1	0.019625
39.516667	1	0.020125
39.533333	1	0.019500
39.550000	1	0.019500
39.566667	1	0.019875
39.583333	1	0.019750
39.600000	1	0.020875
39.616667	1	0.021125
39.633333	1	0.021875
39.650000	1	0.022500
39.666667	1	0.022375
39.683333	1	0.022500
39.700000	1	0.022750
39.716667	1	0.023000
39.733333	1	0.023875
39.750000	1	0.024625
39.766667	1	0.025125
39.783333	1	0.025250
39.800000	1	0.026500
39.816667	1	0.026875
39.833333	1	0.027500
39.850000	1	0.028250
39.866667	1	0.029000
39.883333	1	0.030500
39.900000	1	0.030875
39.916667	1	0.032375
39.933333	1	0.033375
39.950000	1	0.034125
39.966667	1	0.035250
39.983333	1	0.036500
40.000000	1	0.037375
