File Path	chrom://990-75db15j/XVault/Ultimate_3000/1256/20230531_CMO_stabTest _FP08_FP09.seq/622.smp/RI_1.channel/RI_1.chm
Channel	RI_1

Injection Information:
Data Vault	XVault
Injection	FP09__2_s3
Injection Number	62
Position	BC2
Comment	
Processing Method	
Instrument Method	run_25B_method
Type	Unknown
Status	Finished
Injection Date	03.06.2023
Injection Time	07:23:50
Injection Volume (µl)	20.000
Dilution Factor	1.0000
Weight	1.0000

Chromatogram Data Information:
Time Min. (min)	0.000000
Time Max. (min)	40.000000
Data Points	2401
Detector	RI
Generating Data System	Chromeleon 7.2.5.9507
Exporting Data System	Chromeleon 7.2.5.0
Operator	Instrument Controller
Signal Quantity	Refractive 
Signal Unit	µRIU
Signal Min.	-0.649875
Signal Max.	61.867625
Channel	RI_1
Driver Name	RID520Driver.dll
Channel Type	Evaluation
Min. Step (s)	1
Max. Step (s)	1
Average Step (s)	1

Signal Parameter Information:
Signal Info	

Chromatogram Data:
Time (min)	Step (s)	Value (µRIU)
0.000000	n.a.	-0.036625
0.016667	1	-0.038750
0.033333	1	-0.040750
0.050000	1	-0.042500
0.066667	1	-0.044375
0.083333	1	-0.045750
0.100000	1	-0.047250
0.116667	1	-0.048875
0.133333	1	-0.051000
0.150000	1	-0.052750
0.166667	1	-0.054000
0.183333	1	-0.055375
0.200000	1	-0.056500
0.216667	1	-0.058250
0.233333	1	-0.059375
0.250000	1	-0.060750
0.266667	1	-0.062000
0.283333	1	-0.065000
0.300000	1	-0.069125
0.316667	1	-0.074250
0.333333	1	-0.077500
0.350000	1	-0.077500
0.366667	1	-0.075125
0.383333	1	-0.072500
0.400000	1	-0.069125
0.416667	1	-0.066875
0.433333	1	-0.065375
0.450000	1	-0.064125
0.466667	1	-0.064375
0.483333	1	-0.066500
0.500000	1	-0.069000
0.516667	1	-0.071875
0.533333	1	-0.074875
0.550000	1	-0.076875
0.566667	1	-0.078375
0.583333	1	-0.080250
0.600000	1	-0.082125
0.616667	1	-0.083250
0.633333	1	-0.084625
0.650000	1	-0.085750
0.666667	1	-0.086750
0.683333	1	-0.086750
0.700000	1	-0.087375
0.716667	1	-0.088000
0.733333	1	-0.088000
0.750000	1	-0.088125
0.766667	1	-0.087750
0.783333	1	-0.087125
0.800000	1	-0.086875
0.816667	1	-0.086500
0.833333	1	-0.086500
0.850000	1	-0.085250
0.866667	1	-0.084875
0.883333	1	-0.083625
0.900000	1	-0.082750
0.916667	1	-0.082000
0.933333	1	-0.081250
0.950000	1	-0.080500
0.966667	1	-0.079750
0.983333	1	-0.078750
1.000000	1	-0.077625
1.016667	1	-0.076000
1.033333	1	-0.074875
1.050000	1	-0.073625
1.066667	1	-0.072500
1.083333	1	-0.071125
1.100000	1	-0.069625
1.116667	1	-0.068500
1.133333	1	-0.067500
1.150000	1	-0.066250
1.166667	1	-0.065625
1.183333	1	-0.065000
1.200000	1	-0.063625
1.216667	1	-0.062875
1.233333	1	-0.062375
1.250000	1	-0.061875
1.266667	1	-0.061375
1.283333	1	-0.060125
1.300000	1	-0.060375
1.316667	1	-0.060625
1.333333	1	-0.059750
1.350000	1	-0.059750
1.366667	1	-0.059875
1.383333	1	-0.059750
1.400000	1	-0.059500
1.416667	1	-0.059500
1.433333	1	-0.060125
1.450000	1	-0.060250
1.466667	1	-0.060250
1.483333	1	-0.060125
1.500000	1	-0.060250
1.516667	1	-0.061000
1.533333	1	-0.061000
1.550000	1	-0.061750
1.566667	1	-0.061875
1.583333	1	-0.062000
1.600000	1	-0.062250
1.616667	1	-0.063125
1.633333	1	-0.064000
1.650000	1	-0.064375
1.666667	1	-0.064500
1.683333	1	-0.064750
1.700000	1	-0.065125
1.716667	1	-0.066000
1.733333	1	-0.066750
1.750000	1	-0.067625
1.766667	1	-0.068250
1.783333	1	-0.068625
1.800000	1	-0.069125
1.816667	1	-0.069250
1.833333	1	-0.068875
1.850000	1	-0.069250
1.866667	1	-0.069250
1.883333	1	-0.068875
1.900000	1	-0.069000
1.916667	1	-0.069125
1.933333	1	-0.068500
1.950000	1	-0.068500
1.966667	1	-0.068000
1.983333	1	-0.067500
2.000000	1	-0.067625
2.016667	1	-0.067500
2.033333	1	-0.067625
2.050000	1	-0.066875
2.066667	1	-0.067000
2.083333	1	-0.067000
2.100000	1	-0.067375
2.116667	1	-0.067375
2.133333	1	-0.068250
2.150000	1	-0.068250
2.166667	1	-0.068375
2.183333	1	-0.068375
2.200000	1	-0.069000
2.216667	1	-0.068625
2.233333	1	-0.068250
2.250000	1	-0.067625
2.266667	1	-0.068125
2.283333	1	-0.068000
2.300000	1	-0.068250
2.316667	1	-0.068375
2.333333	1	-0.068000
2.350000	1	-0.068250
2.366667	1	-0.067875
2.383333	1	-0.067625
2.400000	1	-0.068000
2.416667	1	-0.067750
2.433333	1	-0.067875
2.450000	1	-0.067875
2.466667	1	-0.067250
2.483333	1	-0.067375
2.500000	1	-0.067125
2.516667	1	-0.067375
2.533333	1	-0.067250
2.550000	1	-0.066750
2.566667	1	-0.066875
2.583333	1	-0.066125
2.600000	1	-0.066250
2.616667	1	-0.065500
2.633333	1	-0.065000
2.650000	1	-0.065000
2.666667	1	-0.064625
2.683333	1	-0.063625
2.700000	1	-0.063375
2.716667	1	-0.063000
2.733333	1	-0.063375
2.750000	1	-0.063500
2.766667	1	-0.063625
2.783333	1	-0.062625
2.800000	1	-0.062250
2.816667	1	-0.061500
2.833333	1	-0.060625
2.850000	1	-0.060000
2.866667	1	-0.059500
2.883333	1	-0.059000
2.900000	1	-0.058500
2.916667	1	-0.057875
2.933333	1	-0.057375
2.950000	1	-0.056625
2.966667	1	-0.056625
2.983333	1	-0.056250
3.000000	1	-0.055875
3.016667	1	-0.055375
3.033333	1	-0.055000
3.050000	1	-0.054375
3.066667	1	-0.054625
3.083333	1	-0.055375
3.100000	1	-0.055625
3.116667	1	-0.056125
3.133333	1	-0.056000
3.150000	1	-0.056500
3.166667	1	-0.057375
3.183333	1	-0.057375
3.200000	1	-0.058125
3.216667	1	-0.058250
3.233333	1	-0.058625
3.250000	1	-0.058875
3.266667	1	-0.059000
3.283333	1	-0.059625
3.300000	1	-0.060250
3.316667	1	-0.060625
3.333333	1	-0.060875
3.350000	1	-0.061000
3.366667	1	-0.061000
3.383333	1	-0.061125
3.400000	1	-0.061750
3.416667	1	-0.061375
3.433333	1	-0.061125
3.450000	1	-0.060875
3.466667	1	-0.061125
3.483333	1	-0.061125
3.500000	1	-0.061375
3.516667	1	-0.060875
3.533333	1	-0.060125
3.550000	1	-0.059625
3.566667	1	-0.059875
3.583333	1	-0.059250
3.600000	1	-0.058875
3.616667	1	-0.058500
3.633333	1	-0.057875
3.650000	1	-0.057250
3.666667	1	-0.056875
3.683333	1	-0.056375
3.700000	1	-0.055125
3.716667	1	-0.054750
3.733333	1	-0.053375
3.750000	1	-0.052750
3.766667	1	-0.052500
3.783333	1	-0.052000
3.800000	1	-0.051375
3.816667	1	-0.050750
3.833333	1	-0.050625
3.850000	1	-0.050875
3.866667	1	-0.050500
3.883333	1	-0.050500
3.900000	1	-0.049750
3.916667	1	-0.050000
3.933333	1	-0.049625
3.950000	1	-0.049500
3.966667	1	-0.049125
3.983333	1	-0.049250
4.000000	1	-0.049875
4.016667	1	-0.050125
4.033333	1	-0.050250
4.050000	1	-0.050750
4.066667	1	-0.051625
4.083333	1	-0.052125
4.100000	1	-0.053000
4.116667	1	-0.053625
4.133333	1	-0.054500
4.150000	1	-0.055125
4.166667	1	-0.056000
4.183333	1	-0.056625
4.200000	1	-0.057250
4.216667	1	-0.057875
4.233333	1	-0.058625
4.250000	1	-0.059625
4.266667	1	-0.060125
4.283333	1	-0.061125
4.300000	1	-0.061500
4.316667	1	-0.062500
4.333333	1	-0.063000
4.350000	1	-0.063125
4.366667	1	-0.064125
4.383333	1	-0.064750
4.400000	1	-0.064625
4.416667	1	-0.064625
4.433333	1	-0.065000
4.450000	1	-0.065500
4.466667	1	-0.064875
4.483333	1	-0.064625
4.500000	1	-0.064250
4.516667	1	-0.064625
4.533333	1	-0.064000
4.550000	1	-0.063250
4.566667	1	-0.062750
4.583333	1	-0.062500
4.600000	1	-0.061125
4.616667	1	-0.060375
4.633333	1	-0.059375
4.650000	1	-0.058250
4.666667	1	-0.058000
4.683333	1	-0.056750
4.700000	1	-0.055250
4.716667	1	-0.054625
4.733333	1	-0.052875
4.750000	1	-0.051750
4.766667	1	-0.050375
4.783333	1	-0.048750
4.800000	1	-0.047250
4.816667	1	-0.045625
4.833333	1	-0.043750
4.850000	1	-0.041750
4.866667	1	-0.039000
4.883333	1	-0.036875
4.900000	1	-0.034750
4.916667	1	-0.033000
4.933333	1	-0.030625
4.950000	1	-0.028125
4.966667	1	-0.026125
4.983333	1	-0.023750
5.000000	1	-0.021000
5.016667	1	-0.018875
5.033333	1	-0.016000
5.050000	1	-0.013625
5.066667	1	-0.010375
5.083333	1	-0.008375
5.100000	1	-0.006125
5.116667	1	-0.004000
5.133333	1	-0.002000
5.150000	1	0.000000
5.166667	1	0.001625
5.183333	1	0.003250
5.200000	1	0.005125
5.216667	1	0.006625
5.233333	1	0.007875
5.250000	1	0.008125
5.266667	1	0.008125
5.283333	1	0.008625
5.300000	1	0.009875
5.316667	1	0.009875
5.333333	1	0.009625
5.350000	1	0.009875
5.366667	1	0.010000
5.383333	1	0.010125
5.400000	1	0.009125
5.416667	1	0.009000
5.433333	1	0.008750
5.450000	1	0.007625
5.466667	1	0.006625
5.483333	1	0.006250
5.500000	1	0.005875
5.516667	1	0.004875
5.533333	1	0.003625
5.550000	1	0.002375
5.566667	1	0.001750
5.583333	1	0.000875
5.600000	1	0.000375
5.616667	1	-0.000250
5.633333	1	-0.000625
5.650000	1	-0.001625
5.666667	1	-0.002250
5.683333	1	-0.002375
5.700000	1	-0.003125
5.716667	1	-0.004000
5.733333	1	-0.005500
5.750000	1	-0.005375
5.766667	1	-0.005625
5.783333	1	-0.005750
5.800000	1	-0.005625
5.816667	1	-0.006125
5.833333	1	-0.006125
5.850000	1	-0.006375
5.866667	1	-0.006125
5.883333	1	-0.006250
5.900000	1	-0.005625
5.916667	1	-0.005500
5.933333	1	-0.005125
5.950000	1	-0.004625
5.966667	1	-0.004250
5.983333	1	-0.003125
6.000000	1	-0.002375
6.016667	1	-0.002125
6.033333	1	-0.001000
6.050000	1	-0.000875
6.066667	1	-0.000125
6.083333	1	0.000750
6.100000	1	0.002125
6.116667	1	0.003125
6.133333	1	0.005000
6.150000	1	0.006625
6.166667	1	0.008125
6.183333	1	0.010875
6.200000	1	0.012875
6.216667	1	0.014750
6.233333	1	0.016750
6.250000	1	0.018875
6.266667	1	0.020750
6.283333	1	0.023250
6.300000	1	0.025125
6.316667	1	0.027375
6.333333	1	0.030000
6.350000	1	0.033500
6.366667	1	0.036125
6.383333	1	0.038875
6.400000	1	0.041500
6.416667	1	0.044500
6.433333	1	0.047375
6.450000	1	0.049375
6.466667	1	0.051625
6.483333	1	0.054250
6.500000	1	0.056500
6.516667	1	0.058750
6.533333	1	0.060750
6.550000	1	0.063250
6.566667	1	0.065750
6.583333	1	0.067375
6.600000	1	0.069750
6.616667	1	0.071375
6.633333	1	0.073000
6.650000	1	0.074125
6.666667	1	0.074750
6.683333	1	0.075500
6.700000	1	0.076000
6.716667	1	0.076750
6.733333	1	0.077000
6.750000	1	0.077125
6.766667	1	0.077125
6.783333	1	0.076750
6.800000	1	0.075500
6.816667	1	0.073750
6.833333	1	0.072625
6.850000	1	0.070625
6.866667	1	0.068000
6.883333	1	0.066000
6.900000	1	0.064000
6.916667	1	0.061125
6.933333	1	0.058125
6.950000	1	0.055250
6.966667	1	0.051875
6.983333	1	0.048750
7.000000	1	0.044875
7.016667	1	0.041250
7.033333	1	0.038000
7.050000	1	0.034125
7.066667	1	0.030375
7.083333	1	0.026750
7.100000	1	0.023125
7.116667	1	0.019375
7.133333	1	0.015750
7.150000	1	0.012375
7.166667	1	0.008000
7.183333	1	0.004250
7.200000	1	0.000500
7.216667	1	-0.003375
7.233333	1	-0.006875
7.250000	1	-0.009875
7.266667	1	-0.013250
7.283333	1	-0.017000
7.300000	1	-0.019875
7.316667	1	-0.023500
7.333333	1	-0.026250
7.350000	1	-0.028750
7.366667	1	-0.031125
7.383333	1	-0.033250
7.400000	1	-0.036125
7.416667	1	-0.038750
7.433333	1	-0.040750
7.450000	1	-0.042500
7.466667	1	-0.044375
7.483333	1	-0.046000
7.500000	1	-0.047875
7.516667	1	-0.049250
7.533333	1	-0.050750
7.550000	1	-0.052500
7.566667	1	-0.053875
7.583333	1	-0.054500
7.600000	1	-0.055125
7.616667	1	-0.055500
7.633333	1	-0.055750
7.650000	1	-0.056250
7.666667	1	-0.056250
7.683333	1	-0.056125
7.700000	1	-0.056125
7.716667	1	-0.056000
7.733333	1	-0.055625
7.750000	1	-0.055625
7.766667	1	-0.055500
7.783333	1	-0.055250
7.800000	1	-0.054000
7.816667	1	-0.053625
7.833333	1	-0.053125
7.850000	1	-0.051875
7.866667	1	-0.050750
7.883333	1	-0.050000
7.900000	1	-0.048625
7.916667	1	-0.047500
7.933333	1	-0.046125
7.950000	1	-0.044625
7.966667	1	-0.043125
7.983333	1	-0.042250
8.000000	1	-0.040125
8.016667	1	-0.038750
8.033333	1	-0.036750
8.050000	1	-0.035125
8.066667	1	-0.032875
8.083333	1	-0.030625
8.100000	1	-0.028250
8.116667	1	-0.026500
8.133333	1	-0.023625
8.150000	1	-0.021000
8.166667	1	-0.019250
8.183333	1	-0.017500
8.200000	1	-0.014625
8.216667	1	-0.012500
8.233333	1	-0.009875
8.250000	1	-0.007625
8.266667	1	-0.004750
8.283333	1	-0.002250
8.300000	1	-0.000125
8.316667	1	0.002375
8.333333	1	0.004375
8.350000	1	0.006500
8.366667	1	0.009125
8.383333	1	0.010625
8.400000	1	0.012250
8.416667	1	0.014750
8.433333	1	0.016500
8.450000	1	0.018125
8.466667	1	0.019625
8.483333	1	0.021250
8.500000	1	0.022875
8.516667	1	0.025375
8.533333	1	0.027375
8.550000	1	0.029000
8.566667	1	0.030875
8.583333	1	0.032625
8.600000	1	0.033875
8.616667	1	0.034625
8.633333	1	0.036125
8.650000	1	0.037000
8.666667	1	0.038500
8.683333	1	0.039625
8.700000	1	0.040625
8.716667	1	0.041500
8.733333	1	0.043000
8.750000	1	0.043625
8.766667	1	0.044000
8.783333	1	0.044750
8.800000	1	0.045000
8.816667	1	0.045000
8.833333	1	0.045375
8.850000	1	0.045625
8.866667	1	0.045875
8.883333	1	0.045750
8.900000	1	0.045000
8.916667	1	0.045125
8.933333	1	0.044250
8.950000	1	0.044125
8.966667	1	0.044125
8.983333	1	0.043625
9.000000	1	0.043000
9.016667	1	0.042250
9.033333	1	0.042000
9.050000	1	0.041500
9.066667	1	0.041000
9.083333	1	0.040125
9.100000	1	0.039625
9.116667	1	0.039625
9.133333	1	0.039625
9.150000	1	0.040000
9.166667	1	0.039500
9.183333	1	0.038625
9.200000	1	0.038000
9.216667	1	0.037625
9.233333	1	0.037500
9.250000	1	0.037250
9.266667	1	0.037750
9.283333	1	0.037000
9.300000	1	0.036500
9.316667	1	0.035875
9.333333	1	0.036500
9.350000	1	0.036750
9.366667	1	0.037125
9.383333	1	0.037125
9.400000	1	0.038375
9.416667	1	0.039500
9.433333	1	0.040375
9.450000	1	0.042375
9.466667	1	0.044750
9.483333	1	0.048000
9.500000	1	0.051875
9.516667	1	0.056375
9.533333	1	0.063250
9.550000	1	0.070000
9.566667	1	0.078500
9.583333	1	0.087625
9.600000	1	0.098125
9.616667	1	0.110250
9.633333	1	0.124375
9.650000	1	0.141125
9.666667	1	0.159750
9.683333	1	0.180625
9.700000	1	0.203125
9.716667	1	0.227375
9.733333	1	0.252250
9.750000	1	0.277250
9.766667	1	0.301375
9.783333	1	0.323750
9.800000	1	0.342625
9.816667	1	0.356750
9.833333	1	0.365750
9.850000	1	0.366750
9.866667	1	0.359375
9.883333	1	0.339625
9.900000	1	0.311875
9.916667	1	0.289125
9.933333	1	0.300000
9.950000	1	0.389750
9.966667	1	0.618000
9.983333	1	1.048000
10.000000	1	1.744000
10.016667	1	2.759375
10.033333	1	4.135625
10.050000	1	5.896000
10.066667	1	8.053875
10.083333	1	10.607375
10.100000	1	13.542125
10.116667	1	16.828625
10.133333	1	20.419000
10.150000	1	24.243625
10.166667	1	28.209875
10.183333	1	32.195375
10.200000	1	36.050625
10.216667	1	39.593250
10.233333	1	42.620500
10.250000	1	44.928500
10.266667	1	46.347250
10.283333	1	46.765625
10.300000	1	46.159125
10.316667	1	44.599750
10.333333	1	42.238250
10.350000	1	39.282375
10.366667	1	35.964750
10.383333	1	32.502000
10.400000	1	29.076500
10.416667	1	25.822750
10.433333	1	22.826875
10.450000	1	20.133625
10.466667	1	17.750375
10.483333	1	15.665875
10.500000	1	13.854250
10.516667	1	12.285125
10.533333	1	10.926375
10.550000	1	9.747500
10.566667	1	8.721125
10.583333	1	7.824875
10.600000	1	7.041125
10.616667	1	6.355625
10.633333	1	5.756125
10.650000	1	5.232625
10.666667	1	4.775000
10.683333	1	4.377000
10.700000	1	4.029750
10.716667	1	3.725500
10.733333	1	3.458875
10.750000	1	3.224500
10.766667	1	3.018000
10.783333	1	2.833750
10.800000	1	2.669500
10.816667	1	2.521875
10.833333	1	2.388500
10.850000	1	2.267625
10.866667	1	2.157875
10.883333	1	2.057375
10.900000	1	1.965625
10.916667	1	1.881000
10.933333	1	1.804125
10.950000	1	1.733875
10.966667	1	1.668875
10.983333	1	1.609125
11.000000	1	1.554375
11.016667	1	1.504375
11.033333	1	1.457750
11.050000	1	1.415375
11.066667	1	1.375500
11.083333	1	1.339250
11.100000	1	1.305875
11.116667	1	1.275500
11.133333	1	1.246875
11.150000	1	1.220500
11.166667	1	1.196750
11.183333	1	1.173500
11.200000	1	1.151625
11.216667	1	1.131875
11.233333	1	1.113500
11.250000	1	1.095875
11.266667	1	1.079250
11.283333	1	1.063750
11.300000	1	1.049125
11.316667	1	1.035500
11.333333	1	1.022125
11.350000	1	1.009125
11.366667	1	0.997250
11.383333	1	0.985125
11.400000	1	0.974125
11.416667	1	0.964375
11.433333	1	0.955625
11.450000	1	0.947500
11.466667	1	0.940625
11.483333	1	0.934625
11.500000	1	0.929750
11.516667	1	0.926125
11.533333	1	0.924125
11.550000	1	0.922750
11.566667	1	0.922250
11.583333	1	0.921875
11.600000	1	0.922625
11.616667	1	0.923875
11.633333	1	0.925500
11.650000	1	0.927125
11.666667	1	0.928250
11.683333	1	0.929750
11.700000	1	0.931500
11.716667	1	0.933000
11.733333	1	0.933625
11.750000	1	0.934125
11.766667	1	0.934500
11.783333	1	0.935500
11.800000	1	0.936375
11.816667	1	0.938250
11.833333	1	0.940375
11.850000	1	0.943125
11.866667	1	0.947500
11.883333	1	0.953625
11.900000	1	0.961875
11.916667	1	0.971750
11.933333	1	0.983625
11.950000	1	0.998750
11.966667	1	1.015375
11.983333	1	1.035375
12.000000	1	1.058250
12.016667	1	1.083875
12.033333	1	1.113875
12.050000	1	1.146625
12.066667	1	1.185125
12.083333	1	1.228625
12.100000	1	1.279875
12.116667	1	1.340375
12.133333	1	1.413500
12.150000	1	1.500250
12.166667	1	1.603750
12.183333	1	1.726500
12.200000	1	1.870875
12.216667	1	2.037375
12.233333	1	2.228250
12.250000	1	2.445250
12.266667	1	2.689375
12.283333	1	2.963625
12.300000	1	3.267625
12.316667	1	3.604750
12.333333	1	3.977625
12.350000	1	4.389500
12.366667	1	4.842125
12.383333	1	5.338000
12.400000	1	5.877250
12.416667	1	6.457875
12.433333	1	7.074125
12.450000	1	7.718125
12.466667	1	8.378000
12.483333	1	9.035875
12.500000	1	9.669750
12.516667	1	10.257250
12.533333	1	10.774125
12.550000	1	11.200750
12.566667	1	11.525125
12.583333	1	11.744125
12.600000	1	11.860500
12.616667	1	11.885875
12.633333	1	11.832500
12.650000	1	11.713875
12.666667	1	11.546250
12.683333	1	11.339625
12.700000	1	11.105750
12.716667	1	10.854000
12.733333	1	10.590500
12.750000	1	10.321250
12.766667	1	10.052000
12.783333	1	9.784625
12.800000	1	9.522000
12.816667	1	9.266000
12.833333	1	9.017125
12.850000	1	8.776750
12.866667	1	8.542750
12.883333	1	8.316125
12.900000	1	8.095375
12.916667	1	7.879750
12.933333	1	7.668250
12.950000	1	7.458000
12.966667	1	7.249000
12.983333	1	7.039250
13.000000	1	6.827875
13.016667	1	6.612625
13.033333	1	6.391875
13.050000	1	6.162875
13.066667	1	5.924625
13.083333	1	5.673500
13.100000	1	5.408125
13.116667	1	5.125875
13.133333	1	4.823750
13.150000	1	4.499750
13.166667	1	4.151500
13.183333	1	3.781750
13.200000	1	3.396875
13.216667	1	3.011500
13.233333	1	2.644250
13.250000	1	2.315000
13.266667	1	2.035750
13.283333	1	1.808125
13.300000	1	1.626875
13.316667	1	1.482750
13.333333	1	1.368125
13.350000	1	1.275625
13.366667	1	1.199375
13.383333	1	1.136750
13.400000	1	1.083750
13.416667	1	1.038500
13.433333	1	1.000375
13.450000	1	0.966625
13.466667	1	0.936875
13.483333	1	0.912000
13.500000	1	0.890250
13.516667	1	0.871250
13.533333	1	0.855625
13.550000	1	0.842875
13.566667	1	0.833000
13.583333	1	0.825125
13.600000	1	0.819375
13.616667	1	0.815875
13.633333	1	0.813375
13.650000	1	0.812875
13.666667	1	0.811500
13.683333	1	0.810500
13.700000	1	0.808875
13.716667	1	0.805875
13.733333	1	0.802375
13.750000	1	0.798250
13.766667	1	0.792000
13.783333	1	0.784375
13.800000	1	0.775625
13.816667	1	0.765250
13.833333	1	0.754500
13.850000	1	0.742250
13.866667	1	0.729625
13.883333	1	0.716625
13.900000	1	0.703250
13.916667	1	0.690125
13.933333	1	0.677375
13.950000	1	0.664375
13.966667	1	0.651625
13.983333	1	0.639500
14.000000	1	0.628500
14.016667	1	0.618250
14.033333	1	0.608750
14.050000	1	0.601000
14.066667	1	0.593250
14.083333	1	0.587250
14.100000	1	0.581875
14.116667	1	0.577625
14.133333	1	0.575250
14.150000	1	0.574875
14.166667	1	0.576250
14.183333	1	0.579625
14.200000	1	0.585375
14.216667	1	0.594250
14.233333	1	0.606375
14.250000	1	0.622625
14.266667	1	0.643750
14.283333	1	0.670125
14.300000	1	0.703875
14.316667	1	0.745875
14.333333	1	0.796750
14.350000	1	0.858625
14.366667	1	0.932500
14.383333	1	1.020125
14.400000	1	1.124000
14.416667	1	1.244875
14.433333	1	1.384875
14.450000	1	1.547125
14.466667	1	1.733500
14.483333	1	1.947750
14.500000	1	2.193125
14.516667	1	2.473625
14.533333	1	2.793875
14.550000	1	3.161625
14.566667	1	3.585000
14.583333	1	4.075750
14.600000	1	4.648375
14.616667	1	5.323625
14.633333	1	6.127625
14.650000	1	7.091625
14.666667	1	8.252875
14.683333	1	9.651125
14.700000	1	11.330000
14.716667	1	13.328875
14.733333	1	15.683375
14.750000	1	18.417500
14.766667	1	21.538000
14.783333	1	25.025500
14.800000	1	28.842000
14.816667	1	32.921500
14.833333	1	37.171750
14.850000	1	41.474375
14.866667	1	45.692625
14.883333	1	49.678875
14.900000	1	53.286500
14.916667	1	56.380750
14.933333	1	58.851000
14.950000	1	60.614625
14.966667	1	61.623250
14.983333	1	61.867625
15.000000	1	61.371125
15.016667	1	60.185500
15.033333	1	58.386500
15.050000	1	56.065250
15.066667	1	53.326000
15.083333	1	50.273875
15.100000	1	47.015625
15.116667	1	43.644875
15.133333	1	40.243500
15.150000	1	36.881250
15.166667	1	33.619000
15.183333	1	30.500875
15.200000	1	27.555625
15.216667	1	24.802375
15.233333	1	22.253000
15.250000	1	19.909375
15.266667	1	17.772500
15.283333	1	15.835750
15.300000	1	14.091000
15.316667	1	12.526250
15.333333	1	11.130375
15.350000	1	9.891125
15.366667	1	8.795500
15.383333	1	7.829750
15.400000	1	6.981750
15.416667	1	6.238750
15.433333	1	5.590500
15.450000	1	5.026250
15.466667	1	4.537375
15.483333	1	4.115000
15.500000	1	3.753000
15.516667	1	3.443125
15.533333	1	3.177875
15.550000	1	2.952750
15.566667	1	2.761625
15.583333	1	2.599375
15.600000	1	2.460625
15.616667	1	2.342125
15.633333	1	2.237750
15.650000	1	2.145750
15.666667	1	2.062125
15.683333	1	1.985250
15.700000	1	1.913250
15.716667	1	1.844625
15.733333	1	1.778625
15.750000	1	1.715000
15.766667	1	1.653250
15.783333	1	1.593375
15.800000	1	1.535500
15.816667	1	1.479750
15.833333	1	1.426750
15.850000	1	1.376000
15.866667	1	1.327750
15.883333	1	1.282000
15.900000	1	1.239125
15.916667	1	1.199000
15.933333	1	1.161875
15.950000	1	1.127625
15.966667	1	1.095750
15.983333	1	1.066625
16.000000	1	1.039500
16.016667	1	1.014875
16.033333	1	0.993375
16.050000	1	0.973500
16.066667	1	0.956375
16.083333	1	0.941375
16.100000	1	0.928500
16.116667	1	0.916750
16.133333	1	0.906875
16.150000	1	0.898500
16.166667	1	0.891875
16.183333	1	0.886375
16.200000	1	0.881875
16.216667	1	0.877750
16.233333	1	0.874250
16.250000	1	0.870125
16.266667	1	0.866375
16.283333	1	0.862625
16.300000	1	0.859125
16.316667	1	0.855000
16.333333	1	0.849625
16.350000	1	0.843875
16.366667	1	0.838500
16.383333	1	0.833125
16.400000	1	0.828250
16.416667	1	0.823125
16.433333	1	0.819125
16.450000	1	0.815000
16.466667	1	0.811125
16.483333	1	0.808000
16.500000	1	0.805625
16.516667	1	0.803750
16.533333	1	0.803000
16.550000	1	0.802625
16.566667	1	0.803625
16.583333	1	0.804750
16.600000	1	0.806625
16.616667	1	0.809125
16.633333	1	0.812500
16.650000	1	0.816625
16.666667	1	0.820750
16.683333	1	0.825375
16.700000	1	0.830750
16.716667	1	0.836375
16.733333	1	0.841500
16.750000	1	0.847250
16.766667	1	0.852250
16.783333	1	0.856250
16.800000	1	0.859625
16.816667	1	0.862500
16.833333	1	0.864250
16.850000	1	0.865500
16.866667	1	0.865500
16.883333	1	0.865125
16.900000	1	0.863625
16.916667	1	0.862125
16.933333	1	0.860875
16.950000	1	0.859750
16.966667	1	0.858875
16.983333	1	0.858125
17.000000	1	0.857875
17.016667	1	0.858625
17.033333	1	0.859250
17.050000	1	0.860125
17.066667	1	0.861000
17.083333	1	0.861500
17.100000	1	0.861750
17.116667	1	0.861750
17.133333	1	0.860625
17.150000	1	0.859000
17.166667	1	0.855500
17.183333	1	0.851500
17.200000	1	0.846500
17.216667	1	0.839500
17.233333	1	0.832125
17.250000	1	0.824000
17.266667	1	0.815375
17.283333	1	0.805625
17.300000	1	0.795875
17.316667	1	0.786000
17.333333	1	0.776250
17.350000	1	0.768125
17.366667	1	0.759500
17.383333	1	0.750875
17.400000	1	0.743750
17.416667	1	0.736500
17.433333	1	0.731375
17.450000	1	0.726250
17.466667	1	0.723875
17.483333	1	0.722000
17.500000	1	0.722000
17.516667	1	0.723750
17.533333	1	0.726750
17.550000	1	0.731625
17.566667	1	0.738375
17.583333	1	0.746250
17.600000	1	0.756000
17.616667	1	0.767500
17.633333	1	0.779500
17.650000	1	0.792875
17.666667	1	0.807375
17.683333	1	0.822750
17.700000	1	0.838625
17.716667	1	0.855000
17.733333	1	0.870625
17.750000	1	0.887375
17.766667	1	0.903250
17.783333	1	0.919250
17.800000	1	0.934375
17.816667	1	0.948250
17.833333	1	0.960250
17.850000	1	0.970875
17.866667	1	0.979500
17.883333	1	0.986125
17.900000	1	0.991000
17.916667	1	0.993375
17.933333	1	0.993625
17.950000	1	0.992375
17.966667	1	0.988625
17.983333	1	0.982625
18.000000	1	0.975250
18.016667	1	0.965875
18.033333	1	0.955500
18.050000	1	0.943250
18.066667	1	0.930875
18.083333	1	0.917500
18.100000	1	0.903625
18.116667	1	0.889625
18.133333	1	0.875250
18.150000	1	0.861250
18.166667	1	0.847625
18.183333	1	0.834375
18.200000	1	0.822125
18.216667	1	0.809375
18.233333	1	0.798000
18.250000	1	0.787500
18.266667	1	0.778250
18.283333	1	0.769375
18.300000	1	0.761625
18.316667	1	0.754750
18.333333	1	0.749750
18.350000	1	0.745625
18.366667	1	0.741750
18.383333	1	0.739625
18.400000	1	0.738375
18.416667	1	0.737375
18.433333	1	0.736125
18.450000	1	0.735875
18.466667	1	0.735625
18.483333	1	0.735875
18.500000	1	0.736625
18.516667	1	0.737875
18.533333	1	0.739000
18.550000	1	0.740500
18.566667	1	0.741875
18.583333	1	0.744625
18.600000	1	0.746750
18.616667	1	0.750000
18.633333	1	0.752875
18.650000	1	0.756500
18.666667	1	0.759875
18.683333	1	0.764000
18.700000	1	0.768875
18.716667	1	0.774750
18.733333	1	0.780750
18.750000	1	0.787625
18.766667	1	0.795375
18.783333	1	0.803000
18.800000	1	0.811250
18.816667	1	0.819750
18.833333	1	0.829625
18.850000	1	0.839625
18.866667	1	0.851500
18.883333	1	0.864250
18.900000	1	0.878375
18.916667	1	0.893750
18.933333	1	0.911750
18.950000	1	0.931875
18.966667	1	0.953875
18.983333	1	0.978250
19.000000	1	1.005625
19.016667	1	1.035125
19.033333	1	1.068125
19.050000	1	1.103375
19.066667	1	1.141000
19.083333	1	1.180750
19.100000	1	1.221625
19.116667	1	1.263000
19.133333	1	1.303875
19.150000	1	1.344875
19.166667	1	1.383750
19.183333	1	1.419750
19.200000	1	1.451750
19.216667	1	1.478875
19.233333	1	1.499875
19.250000	1	1.516125
19.266667	1	1.525625
19.283333	1	1.529250
19.300000	1	1.526125
19.316667	1	1.516125
19.333333	1	1.499625
19.350000	1	1.478250
19.366667	1	1.450875
19.383333	1	1.419375
19.400000	1	1.383125
19.416667	1	1.343625
19.433333	1	1.302000
19.450000	1	1.256875
19.466667	1	1.211875
19.483333	1	1.165500
19.500000	1	1.119625
19.516667	1	1.074375
19.533333	1	1.030750
19.550000	1	0.989125
19.566667	1	0.948875
19.583333	1	0.910500
19.600000	1	0.875000
19.616667	1	0.842375
19.633333	1	0.812625
19.650000	1	0.786000
19.666667	1	0.762750
19.683333	1	0.743250
19.700000	1	0.726750
19.716667	1	0.714500
19.733333	1	0.705500
19.750000	1	0.700125
19.766667	1	0.698375
19.783333	1	0.699625
19.800000	1	0.703625
19.816667	1	0.711500
19.833333	1	0.722375
19.850000	1	0.735000
19.866667	1	0.750375
19.883333	1	0.768875
19.900000	1	0.787500
19.916667	1	0.807000
19.933333	1	0.826625
19.950000	1	0.846625
19.966667	1	0.865750
19.983333	1	0.883750
20.000000	1	0.900750
20.016667	1	0.915375
20.033333	1	0.928375
20.050000	1	0.939625
20.066667	1	0.948750
20.083333	1	0.956250
20.100000	1	0.962125
20.116667	1	0.967125
20.133333	1	0.970000
20.150000	1	0.972500
20.166667	1	0.975125
20.183333	1	0.977750
20.200000	1	0.981375
20.216667	1	0.985625
20.233333	1	0.991125
20.250000	1	0.997875
20.266667	1	1.006250
20.283333	1	1.017000
20.300000	1	1.030500
20.316667	1	1.045750
20.333333	1	1.062750
20.350000	1	1.081750
20.366667	1	1.102000
20.383333	1	1.122500
20.400000	1	1.143250
20.416667	1	1.163500
20.433333	1	1.182875
20.450000	1	1.200375
20.466667	1	1.215875
20.483333	1	1.228500
20.500000	1	1.238500
20.516667	1	1.245500
20.533333	1	1.250125
20.550000	1	1.251000
20.566667	1	1.248875
20.583333	1	1.245750
20.600000	1	1.240250
20.616667	1	1.234500
20.633333	1	1.228125
20.650000	1	1.223375
20.666667	1	1.220125
20.683333	1	1.220500
20.700000	1	1.224750
20.716667	1	1.233250
20.733333	1	1.246125
20.750000	1	1.265375
20.766667	1	1.289875
20.783333	1	1.319250
20.800000	1	1.353125
20.816667	1	1.390875
20.833333	1	1.431250
20.850000	1	1.472750
20.866667	1	1.513875
20.883333	1	1.553500
20.900000	1	1.588250
20.916667	1	1.617500
20.933333	1	1.640750
20.950000	1	1.656375
20.966667	1	1.662625
20.983333	1	1.659125
21.000000	1	1.646875
21.016667	1	1.624750
21.033333	1	1.594625
21.050000	1	1.556250
21.066667	1	1.510750
21.083333	1	1.459625
21.100000	1	1.403750
21.116667	1	1.344375
21.133333	1	1.283125
21.150000	1	1.220750
21.166667	1	1.158375
21.183333	1	1.097125
21.200000	1	1.036875
21.216667	1	0.978625
21.233333	1	0.923375
21.250000	1	0.871000
21.266667	1	0.821750
21.283333	1	0.777125
21.300000	1	0.735375
21.316667	1	0.697375
21.333333	1	0.662000
21.350000	1	0.630875
21.366667	1	0.602250
21.383333	1	0.576500
21.400000	1	0.553750
21.416667	1	0.533250
21.433333	1	0.515750
21.450000	1	0.499625
21.466667	1	0.485375
21.483333	1	0.472750
21.500000	1	0.461750
21.516667	1	0.452000
21.533333	1	0.443625
21.550000	1	0.436250
21.566667	1	0.429250
21.583333	1	0.423500
21.600000	1	0.417875
21.616667	1	0.412625
21.633333	1	0.408250
21.650000	1	0.403625
21.666667	1	0.399000
21.683333	1	0.395000
21.700000	1	0.391250
21.716667	1	0.388250
21.733333	1	0.385375
21.750000	1	0.383250
21.766667	1	0.381125
21.783333	1	0.380250
21.800000	1	0.379625
21.816667	1	0.379250
21.833333	1	0.379375
21.850000	1	0.380125
21.866667	1	0.380500
21.883333	1	0.382250
21.900000	1	0.384125
21.916667	1	0.386500
21.933333	1	0.388625
21.950000	1	0.391250
21.966667	1	0.393500
21.983333	1	0.396375
22.000000	1	0.397750
22.016667	1	0.400375
22.033333	1	0.402750
22.050000	1	0.405000
22.066667	1	0.406375
22.083333	1	0.407250
22.100000	1	0.407875
22.116667	1	0.408375
22.133333	1	0.408625
22.150000	1	0.409000
22.166667	1	0.408875
22.183333	1	0.408500
22.200000	1	0.407750
22.216667	1	0.407750
22.233333	1	0.407875
22.250000	1	0.407750
22.266667	1	0.408625
22.283333	1	0.409125
22.300000	1	0.410500
22.316667	1	0.412250
22.333333	1	0.415000
22.350000	1	0.418000
22.366667	1	0.422125
22.383333	1	0.426375
22.400000	1	0.430625
22.416667	1	0.435625
22.433333	1	0.440625
22.450000	1	0.445750
22.466667	1	0.451750
22.483333	1	0.457500
22.500000	1	0.463750
22.516667	1	0.469750
22.533333	1	0.475875
22.550000	1	0.482125
22.566667	1	0.488125
22.583333	1	0.493750
22.600000	1	0.499000
22.616667	1	0.504125
22.633333	1	0.509000
22.650000	1	0.513750
22.666667	1	0.517250
22.683333	1	0.520750
22.700000	1	0.524375
22.716667	1	0.526250
22.733333	1	0.528125
22.750000	1	0.529500
22.766667	1	0.529125
22.783333	1	0.528750
22.800000	1	0.527125
22.816667	1	0.525000
22.833333	1	0.522750
22.850000	1	0.519500
22.866667	1	0.515875
22.883333	1	0.511750
22.900000	1	0.507500
22.916667	1	0.502750
22.933333	1	0.497875
22.950000	1	0.492500
22.966667	1	0.487000
22.983333	1	0.481750
23.000000	1	0.477125
23.016667	1	0.472125
23.033333	1	0.468625
23.050000	1	0.465000
23.066667	1	0.461750
23.083333	1	0.459250
23.100000	1	0.457500
23.116667	1	0.457125
23.133333	1	0.457375
23.150000	1	0.458875
23.166667	1	0.461250
23.183333	1	0.464500
23.200000	1	0.469125
23.216667	1	0.475750
23.233333	1	0.483500
23.250000	1	0.493000
23.266667	1	0.504125
23.283333	1	0.516750
23.300000	1	0.531750
23.316667	1	0.548875
23.333333	1	0.567625
23.350000	1	0.589125
23.366667	1	0.612750
23.383333	1	0.639625
23.400000	1	0.669125
23.416667	1	0.701750
23.433333	1	0.738625
23.450000	1	0.779625
23.466667	1	0.825625
23.483333	1	0.877125
23.500000	1	0.934500
23.516667	1	0.999125
23.533333	1	1.071750
23.550000	1	1.154500
23.566667	1	1.246875
23.583333	1	1.349625
23.600000	1	1.464125
23.616667	1	1.592125
23.633333	1	1.732375
23.650000	1	1.885875
23.666667	1	2.052625
23.683333	1	2.232750
23.700000	1	2.424500
23.716667	1	2.626500
23.733333	1	2.837875
23.750000	1	3.054750
23.766667	1	3.275250
23.783333	1	3.494500
23.800000	1	3.710125
23.816667	1	3.918250
23.833333	1	4.114250
23.850000	1	4.294250
23.866667	1	4.454000
23.883333	1	4.591250
23.900000	1	4.702625
23.916667	1	4.786000
23.933333	1	4.839500
23.950000	1	4.863250
23.966667	1	4.856875
23.983333	1	4.821500
24.000000	1	4.757000
24.016667	1	4.666250
24.033333	1	4.551875
24.050000	1	4.416625
24.066667	1	4.263000
24.083333	1	4.095250
24.100000	1	3.916500
24.116667	1	3.728875
24.133333	1	3.536375
24.150000	1	3.341625
24.166667	1	3.146750
24.183333	1	2.955125
24.200000	1	2.769375
24.216667	1	2.589500
24.233333	1	2.418750
24.250000	1	2.257125
24.266667	1	2.105500
24.283333	1	1.964000
24.300000	1	1.833250
24.316667	1	1.712750
24.333333	1	1.602750
24.350000	1	1.502375
24.366667	1	1.411500
24.383333	1	1.328500
24.400000	1	1.254000
24.416667	1	1.187000
24.433333	1	1.126625
24.450000	1	1.072500
24.466667	1	1.023375
24.483333	1	0.979625
24.500000	1	0.939250
24.516667	1	0.901875
24.533333	1	0.867500
24.550000	1	0.836000
24.566667	1	0.806125
24.583333	1	0.777875
24.600000	1	0.750250
24.616667	1	0.724625
24.633333	1	0.700000
24.650000	1	0.675875
24.666667	1	0.652625
24.683333	1	0.629500
24.700000	1	0.607250
24.716667	1	0.585625
24.733333	1	0.564125
24.750000	1	0.543125
24.766667	1	0.522500
24.783333	1	0.503125
24.800000	1	0.483375
24.816667	1	0.464750
24.833333	1	0.447375
24.850000	1	0.430375
24.866667	1	0.414250
24.883333	1	0.398875
24.900000	1	0.384375
24.916667	1	0.370375
24.933333	1	0.357500
24.950000	1	0.345500
24.966667	1	0.334625
24.983333	1	0.324750
25.000000	1	0.316125
25.016667	1	0.307875
25.033333	1	0.300375
25.050000	1	0.294250
25.066667	1	0.288750
25.083333	1	0.283500
25.100000	1	0.278875
25.116667	1	0.275750
25.133333	1	0.273500
25.150000	1	0.270750
25.166667	1	0.269750
25.183333	1	0.269250
25.200000	1	0.269000
25.216667	1	0.269750
25.233333	1	0.270375
25.250000	1	0.270875
25.266667	1	0.272750
25.283333	1	0.274000
25.300000	1	0.276250
25.316667	1	0.278625
25.333333	1	0.280625
25.350000	1	0.282500
25.366667	1	0.284625
25.383333	1	0.287000
25.400000	1	0.289250
25.416667	1	0.291375
25.433333	1	0.293625
25.450000	1	0.294625
25.466667	1	0.297250
25.483333	1	0.299125
25.500000	1	0.300375
25.516667	1	0.300500
25.533333	1	0.301125
25.550000	1	0.301125
25.566667	1	0.300375
25.583333	1	0.299750
25.600000	1	0.298375
25.616667	1	0.296750
25.633333	1	0.295875
25.650000	1	0.294875
25.666667	1	0.293500
25.683333	1	0.292250
25.700000	1	0.290375
25.716667	1	0.287750
25.733333	1	0.284875
25.750000	1	0.282625
25.766667	1	0.279375
25.783333	1	0.275375
25.800000	1	0.271375
25.816667	1	0.268125
25.833333	1	0.264250
25.850000	1	0.260125
25.866667	1	0.256500
25.883333	1	0.251750
25.900000	1	0.247125
25.916667	1	0.242250
25.933333	1	0.237125
25.950000	1	0.231250
25.966667	1	0.226375
25.983333	1	0.221125
26.000000	1	0.215875
26.016667	1	0.210375
26.033333	1	0.204375
26.050000	1	0.199125
26.066667	1	0.193625
26.083333	1	0.188750
26.100000	1	0.183875
26.116667	1	0.179375
26.133333	1	0.174750
26.150000	1	0.171000
26.166667	1	0.168000
26.183333	1	0.165500
26.200000	1	0.162750
26.216667	1	0.161375
26.233333	1	0.160750
26.250000	1	0.160875
26.266667	1	0.161000
26.283333	1	0.162250
26.300000	1	0.163625
26.316667	1	0.165250
26.333333	1	0.167125
26.350000	1	0.170000
26.366667	1	0.173625
26.383333	1	0.176125
26.400000	1	0.179375
26.416667	1	0.183125
26.433333	1	0.186625
26.450000	1	0.189250
26.466667	1	0.192000
26.483333	1	0.194125
26.500000	1	0.196750
26.516667	1	0.198000
26.533333	1	0.200000
26.550000	1	0.201625
26.566667	1	0.203125
26.583333	1	0.203250
26.600000	1	0.203875
26.616667	1	0.203375
26.633333	1	0.203500
26.650000	1	0.202625
26.666667	1	0.202500
26.683333	1	0.201750
26.700000	1	0.200500
26.716667	1	0.199875
26.733333	1	0.199000
26.750000	1	0.198625
26.766667	1	0.197750
26.783333	1	0.197625
26.800000	1	0.196625
26.816667	1	0.196625
26.833333	1	0.196250
26.850000	1	0.197250
26.866667	1	0.198125
26.883333	1	0.199250
26.900000	1	0.200375
26.916667	1	0.202000
26.933333	1	0.204000
26.950000	1	0.206625
26.966667	1	0.210000
26.983333	1	0.213500
27.000000	1	0.217625
27.016667	1	0.222000
27.033333	1	0.227500
27.050000	1	0.233375
27.066667	1	0.239625
27.083333	1	0.246875
27.100000	1	0.254250
27.116667	1	0.262250
27.133333	1	0.271125
27.150000	1	0.279250
27.166667	1	0.289625
27.183333	1	0.300625
27.200000	1	0.312750
27.216667	1	0.324750
27.233333	1	0.338250
27.250000	1	0.352000
27.266667	1	0.367250
27.283333	1	0.383125
27.300000	1	0.400625
27.316667	1	0.419125
27.333333	1	0.438375
27.350000	1	0.459500
27.366667	1	0.482500
27.383333	1	0.507000
27.400000	1	0.533125
27.416667	1	0.561250
27.433333	1	0.591625
27.450000	1	0.624625
27.466667	1	0.660250
27.483333	1	0.700125
27.500000	1	0.743500
27.516667	1	0.791500
27.533333	1	0.843875
27.550000	1	0.901500
27.566667	1	0.965000
27.583333	1	1.034250
27.600000	1	1.110500
27.616667	1	1.194250
27.633333	1	1.285250
27.650000	1	1.384375
27.666667	1	1.491000
27.683333	1	1.605250
27.700000	1	1.727250
27.716667	1	1.855875
27.733333	1	1.990750
27.750000	1	2.131000
27.766667	1	2.276375
27.783333	1	2.425125
27.800000	1	2.575500
27.816667	1	2.727625
27.833333	1	2.877750
27.850000	1	3.024750
27.866667	1	3.167625
27.883333	1	3.303500
27.900000	1	3.431000
27.916667	1	3.547000
27.933333	1	3.650375
27.950000	1	3.739125
27.966667	1	3.811500
27.983333	1	3.866875
28.000000	1	3.903625
28.016667	1	3.921750
28.033333	1	3.919375
28.050000	1	3.897625
28.066667	1	3.857000
28.083333	1	3.797625
28.100000	1	3.720375
28.116667	1	3.626750
28.133333	1	3.518375
28.150000	1	3.396500
28.166667	1	3.263375
28.183333	1	3.120625
28.200000	1	2.970250
28.216667	1	2.814625
28.233333	1	2.654750
28.250000	1	2.493625
28.266667	1	2.330875
28.283333	1	2.170500
28.300000	1	2.012750
28.316667	1	1.858125
28.333333	1	1.708750
28.350000	1	1.565625
28.366667	1	1.428125
28.383333	1	1.297000
28.400000	1	1.172375
28.416667	1	1.055000
28.433333	1	0.944125
28.450000	1	0.839125
28.466667	1	0.740500
28.483333	1	0.647375
28.500000	1	0.559000
28.516667	1	0.475750
28.533333	1	0.396750
28.550000	1	0.321750
28.566667	1	0.251000
28.583333	1	0.183375
28.600000	1	0.118625
28.616667	1	0.056750
28.633333	1	-0.003250
28.650000	1	-0.060875
28.666667	1	-0.115875
28.683333	1	-0.169875
28.700000	1	-0.221125
28.716667	1	-0.270375
28.733333	1	-0.317125
28.750000	1	-0.361250
28.766667	1	-0.403250
28.783333	1	-0.442875
28.800000	1	-0.479000
28.816667	1	-0.511875
28.833333	1	-0.541875
28.850000	1	-0.568625
28.866667	1	-0.591375
28.883333	1	-0.611125
28.900000	1	-0.626750
28.916667	1	-0.638500
28.933333	1	-0.646500
28.950000	1	-0.649875
28.966667	1	-0.649500
28.983333	1	-0.645500
29.000000	1	-0.636750
29.016667	1	-0.624750
29.033333	1	-0.609250
29.050000	1	-0.589625
29.066667	1	-0.567750
29.083333	1	-0.542625
29.100000	1	-0.515750
29.116667	1	-0.486000
29.133333	1	-0.454375
29.150000	1	-0.421125
29.166667	1	-0.385625
29.183333	1	-0.349250
29.200000	1	-0.312375
29.216667	1	-0.274250
29.233333	1	-0.236000
29.250000	1	-0.198000
29.266667	1	-0.158750
29.283333	1	-0.121000
29.300000	1	-0.083625
29.316667	1	-0.046500
29.333333	1	-0.010250
29.350000	1	0.025125
29.366667	1	0.059125
29.383333	1	0.092000
29.400000	1	0.123500
29.416667	1	0.153500
29.433333	1	0.182750
29.450000	1	0.210500
29.466667	1	0.236000
29.483333	1	0.260375
29.500000	1	0.282375
29.516667	1	0.303250
29.533333	1	0.322250
29.550000	1	0.339500
29.566667	1	0.356000
29.583333	1	0.370000
29.600000	1	0.382875
29.616667	1	0.394750
29.633333	1	0.403875
29.650000	1	0.412500
29.666667	1	0.419875
29.683333	1	0.425375
29.700000	1	0.430375
29.716667	1	0.433750
29.733333	1	0.435625
29.750000	1	0.436750
29.766667	1	0.436750
29.783333	1	0.436875
29.800000	1	0.435125
29.816667	1	0.433375
29.833333	1	0.430500
29.850000	1	0.427875
29.866667	1	0.424625
29.883333	1	0.420625
29.900000	1	0.417375
29.916667	1	0.413875
29.933333	1	0.410125
29.950000	1	0.405750
29.966667	1	0.401875
29.983333	1	0.397625
30.000000	1	0.394000
30.016667	1	0.390125
30.033333	1	0.385375
30.050000	1	0.381750
30.066667	1	0.378375
30.083333	1	0.374625
30.100000	1	0.371250
30.116667	1	0.367875
30.133333	1	0.364875
30.150000	1	0.362750
30.166667	1	0.360000
30.183333	1	0.357250
30.200000	1	0.354875
30.216667	1	0.352875
30.233333	1	0.350500
30.250000	1	0.349000
30.266667	1	0.347125
30.283333	1	0.345625
30.300000	1	0.344125
30.316667	1	0.343375
30.333333	1	0.342875
30.350000	1	0.342375
30.366667	1	0.342625
30.383333	1	0.342625
30.400000	1	0.343875
30.416667	1	0.344500
30.433333	1	0.346375
30.450000	1	0.348125
30.466667	1	0.350500
30.483333	1	0.353125
30.500000	1	0.356625
30.516667	1	0.360750
30.533333	1	0.364625
30.550000	1	0.370000
30.566667	1	0.375000
30.583333	1	0.380375
30.600000	1	0.385125
30.616667	1	0.390000
30.633333	1	0.395375
30.650000	1	0.400875
30.666667	1	0.405625
30.683333	1	0.410125
30.700000	1	0.414625
30.716667	1	0.418000
30.733333	1	0.420750
30.750000	1	0.423125
30.766667	1	0.424250
30.783333	1	0.423750
30.800000	1	0.422875
30.816667	1	0.421500
30.833333	1	0.418875
30.850000	1	0.414875
30.866667	1	0.410000
30.883333	1	0.404750
30.900000	1	0.397500
30.916667	1	0.390250
30.933333	1	0.382000
30.950000	1	0.373125
30.966667	1	0.364250
30.983333	1	0.354500
31.000000	1	0.343625
31.016667	1	0.332750
31.033333	1	0.321375
31.050000	1	0.309375
31.066667	1	0.297625
31.083333	1	0.286250
31.100000	1	0.275375
31.116667	1	0.264750
31.133333	1	0.253500
31.150000	1	0.243500
31.166667	1	0.233750
31.183333	1	0.223875
31.200000	1	0.214750
31.216667	1	0.206000
31.233333	1	0.197875
31.250000	1	0.190500
31.266667	1	0.182875
31.283333	1	0.176625
31.300000	1	0.170625
31.316667	1	0.165250
31.333333	1	0.160750
31.350000	1	0.156625
31.366667	1	0.153250
31.383333	1	0.150000
31.400000	1	0.147750
31.416667	1	0.146125
31.433333	1	0.144000
31.450000	1	0.142625
31.466667	1	0.142625
31.483333	1	0.142625
31.500000	1	0.142875
31.516667	1	0.144125
31.533333	1	0.145375
31.550000	1	0.146625
31.566667	1	0.148750
31.583333	1	0.150875
31.600000	1	0.153125
31.616667	1	0.156125
31.633333	1	0.159500
31.650000	1	0.163125
31.666667	1	0.166625
31.683333	1	0.170875
31.700000	1	0.175750
31.716667	1	0.180625
31.733333	1	0.185375
31.750000	1	0.190500
31.766667	1	0.195500
31.783333	1	0.200500
31.800000	1	0.206625
31.816667	1	0.212750
31.833333	1	0.218500
31.850000	1	0.224000
31.866667	1	0.229000
31.883333	1	0.234125
31.900000	1	0.239500
31.916667	1	0.244250
31.933333	1	0.248750
31.950000	1	0.252625
31.966667	1	0.256375
31.983333	1	0.259875
32.000000	1	0.262750
32.016667	1	0.264500
32.033333	1	0.266375
32.050000	1	0.266500
32.066667	1	0.266750
32.083333	1	0.266250
32.100000	1	0.265000
32.116667	1	0.262625
32.133333	1	0.259875
32.150000	1	0.256375
32.166667	1	0.253625
32.183333	1	0.249750
32.200000	1	0.244250
32.216667	1	0.238750
32.233333	1	0.233125
32.250000	1	0.227500
32.266667	1	0.221625
32.283333	1	0.215000
32.300000	1	0.208125
32.316667	1	0.202000
32.333333	1	0.196000
32.350000	1	0.189750
32.366667	1	0.183125
32.383333	1	0.176875
32.400000	1	0.170875
32.416667	1	0.165000
32.433333	1	0.159500
32.450000	1	0.153875
32.466667	1	0.148750
32.483333	1	0.144250
32.500000	1	0.139000
32.516667	1	0.135375
32.533333	1	0.132375
32.550000	1	0.129000
32.566667	1	0.125375
32.583333	1	0.122625
32.600000	1	0.120125
32.616667	1	0.117125
32.633333	1	0.114750
32.650000	1	0.111625
32.666667	1	0.108500
32.683333	1	0.106000
32.700000	1	0.103500
32.716667	1	0.100875
32.733333	1	0.098250
32.750000	1	0.095250
32.766667	1	0.092750
32.783333	1	0.089625
32.800000	1	0.087375
32.816667	1	0.084250
32.833333	1	0.081625
32.850000	1	0.078625
32.866667	1	0.075875
32.883333	1	0.072875
32.900000	1	0.069625
32.916667	1	0.066500
32.933333	1	0.064125
32.950000	1	0.061750
32.966667	1	0.059625
32.983333	1	0.056500
33.000000	1	0.053875
33.016667	1	0.051625
33.033333	1	0.049125
33.050000	1	0.046250
33.066667	1	0.044000
33.083333	1	0.041125
33.100000	1	0.039500
33.116667	1	0.038625
33.133333	1	0.037875
33.150000	1	0.036250
33.166667	1	0.035250
33.183333	1	0.034250
33.200000	1	0.032625
33.216667	1	0.031500
33.233333	1	0.030625
33.250000	1	0.030250
33.266667	1	0.029875
33.283333	1	0.030000
33.300000	1	0.029500
33.316667	1	0.028750
33.333333	1	0.028750
33.350000	1	0.028625
33.366667	1	0.029250
33.383333	1	0.029750
33.400000	1	0.029875
33.416667	1	0.030500
33.433333	1	0.030625
33.450000	1	0.031625
33.466667	1	0.032250
33.483333	1	0.032625
33.500000	1	0.034375
33.516667	1	0.035750
33.533333	1	0.037375
33.550000	1	0.039250
33.566667	1	0.041750
33.583333	1	0.043625
33.600000	1	0.045625
33.616667	1	0.048250
33.633333	1	0.051125
33.650000	1	0.054375
33.666667	1	0.057500
33.683333	1	0.061125
33.700000	1	0.066000
33.716667	1	0.071125
33.733333	1	0.075875
33.750000	1	0.082000
33.766667	1	0.088125
33.783333	1	0.095250
33.800000	1	0.103125
33.816667	1	0.111750
33.833333	1	0.120375
33.850000	1	0.129750
33.866667	1	0.139750
33.883333	1	0.150875
33.900000	1	0.162625
33.916667	1	0.176125
33.933333	1	0.190125
33.950000	1	0.204750
33.966667	1	0.221125
33.983333	1	0.237375
34.000000	1	0.255000
34.016667	1	0.274250
34.033333	1	0.293625
34.050000	1	0.313625
34.066667	1	0.334000
34.083333	1	0.355000
34.100000	1	0.377000
34.116667	1	0.398750
34.133333	1	0.420875
34.150000	1	0.442625
34.166667	1	0.465125
34.183333	1	0.486250
34.200000	1	0.507250
34.216667	1	0.526625
34.233333	1	0.545500
34.250000	1	0.562250
34.266667	1	0.578000
34.283333	1	0.591875
34.300000	1	0.604500
34.316667	1	0.614375
34.333333	1	0.622875
34.350000	1	0.628500
34.366667	1	0.632250
34.383333	1	0.634625
34.400000	1	0.634000
34.416667	1	0.631875
34.433333	1	0.627000
34.450000	1	0.620750
34.466667	1	0.612375
34.483333	1	0.601750
34.500000	1	0.589875
34.516667	1	0.576500
34.533333	1	0.561500
34.550000	1	0.545875
34.566667	1	0.529625
34.583333	1	0.512250
34.600000	1	0.493875
34.616667	1	0.475250
34.633333	1	0.456500
34.650000	1	0.437250
34.666667	1	0.417750
34.683333	1	0.398375
34.700000	1	0.379500
34.716667	1	0.360625
34.733333	1	0.343000
34.750000	1	0.326125
34.766667	1	0.310250
34.783333	1	0.294500
34.800000	1	0.278750
34.816667	1	0.265125
34.833333	1	0.251625
34.850000	1	0.238875
34.866667	1	0.227500
34.883333	1	0.216750
34.900000	1	0.206875
34.916667	1	0.197250
34.933333	1	0.189250
34.950000	1	0.182125
34.966667	1	0.175375
34.983333	1	0.168750
35.000000	1	0.163750
35.016667	1	0.158750
35.033333	1	0.154500
35.050000	1	0.151625
35.066667	1	0.148500
35.083333	1	0.146125
35.100000	1	0.144125
35.116667	1	0.142875
35.133333	1	0.141500
35.150000	1	0.141000
35.166667	1	0.140750
35.183333	1	0.140250
35.200000	1	0.140250
35.216667	1	0.140625
35.233333	1	0.140750
35.250000	1	0.141625
35.266667	1	0.141500
35.283333	1	0.141625
35.300000	1	0.142125
35.316667	1	0.143375
35.333333	1	0.143875
35.350000	1	0.145250
35.366667	1	0.145875
35.383333	1	0.146750
35.400000	1	0.147250
35.416667	1	0.147750
35.433333	1	0.148125
35.450000	1	0.148250
35.466667	1	0.148625
35.483333	1	0.149000
35.500000	1	0.148625
35.516667	1	0.148750
35.533333	1	0.149000
35.550000	1	0.148375
35.566667	1	0.147250
35.583333	1	0.146500
35.600000	1	0.145500
35.616667	1	0.144750
35.633333	1	0.143500
35.650000	1	0.141625
35.666667	1	0.141375
35.683333	1	0.140250
35.700000	1	0.138375
35.716667	1	0.137000
35.733333	1	0.135750
35.750000	1	0.134250
35.766667	1	0.132875
35.783333	1	0.132000
35.800000	1	0.130125
35.816667	1	0.128500
35.833333	1	0.126625
35.850000	1	0.125375
35.866667	1	0.123375
35.883333	1	0.121875
35.900000	1	0.120375
35.916667	1	0.119375
35.933333	1	0.117375
35.950000	1	0.116375
35.966667	1	0.114500
35.983333	1	0.113000
36.000000	1	0.111375
36.016667	1	0.109750
36.033333	1	0.107625
36.050000	1	0.106000
36.066667	1	0.104375
36.083333	1	0.103000
36.100000	1	0.101625
36.116667	1	0.100000
36.133333	1	0.098625
36.150000	1	0.096750
36.166667	1	0.095375
36.183333	1	0.093750
36.200000	1	0.092125
36.216667	1	0.090625
36.233333	1	0.089250
36.250000	1	0.087625
36.266667	1	0.086375
36.283333	1	0.084875
36.300000	1	0.083875
36.316667	1	0.082000
36.333333	1	0.080875
36.350000	1	0.079125
36.366667	1	0.077500
36.383333	1	0.075625
36.400000	1	0.074750
36.416667	1	0.073625
36.433333	1	0.072000
36.450000	1	0.070750
36.466667	1	0.069625
36.483333	1	0.068500
36.500000	1	0.066750
36.516667	1	0.065750
36.533333	1	0.064250
36.550000	1	0.063250
36.566667	1	0.061250
36.583333	1	0.059250
36.600000	1	0.057500
36.616667	1	0.055750
36.633333	1	0.054125
36.650000	1	0.052250
36.666667	1	0.050125
36.683333	1	0.047875
36.700000	1	0.045250
36.716667	1	0.043375
36.733333	1	0.040500
36.750000	1	0.037750
36.766667	1	0.034625
36.783333	1	0.031500
36.800000	1	0.028250
36.816667	1	0.025875
36.833333	1	0.023375
36.850000	1	0.020500
36.866667	1	0.018125
36.883333	1	0.014875
36.900000	1	0.012375
36.916667	1	0.010000
36.933333	1	0.008000
36.950000	1	0.005375
36.966667	1	0.003125
36.983333	1	0.000750
37.000000	1	-0.001500
37.016667	1	-0.002875
37.033333	1	-0.005250
37.050000	1	-0.007250
37.066667	1	-0.009250
37.083333	1	-0.010750
37.100000	1	-0.012625
37.116667	1	-0.014375
37.133333	1	-0.016000
37.150000	1	-0.017625
37.166667	1	-0.019250
37.183333	1	-0.020750
37.200000	1	-0.021750
37.216667	1	-0.023000
37.233333	1	-0.023500
37.250000	1	-0.024750
37.266667	1	-0.026625
37.283333	1	-0.027500
37.300000	1	-0.028000
37.316667	1	-0.028500
37.333333	1	-0.029875
37.350000	1	-0.030500
37.366667	1	-0.031500
37.383333	1	-0.031875
37.400000	1	-0.032125
37.416667	1	-0.032625
37.433333	1	-0.033250
37.450000	1	-0.033125
37.466667	1	-0.033750
37.483333	1	-0.034250
37.500000	1	-0.034250
37.516667	1	-0.034125
37.533333	1	-0.034625
37.550000	1	-0.035000
37.566667	1	-0.035000
37.583333	1	-0.035000
37.600000	1	-0.034500
37.616667	1	-0.034375
37.633333	1	-0.033875
37.650000	1	-0.033875
37.666667	1	-0.033500
37.683333	1	-0.033250
37.700000	1	-0.032750
37.716667	1	-0.032250
37.733333	1	-0.031000
37.750000	1	-0.030125
37.766667	1	-0.028750
37.783333	1	-0.028875
37.800000	1	-0.028500
37.816667	1	-0.028750
37.833333	1	-0.027375
37.850000	1	-0.026125
37.866667	1	-0.025000
37.883333	1	-0.023375
37.900000	1	-0.022625
37.916667	1	-0.021750
37.933333	1	-0.020875
37.950000	1	-0.019500
37.966667	1	-0.018125
37.983333	1	-0.017500
38.000000	1	-0.016875
38.016667	1	-0.015375
38.033333	1	-0.014000
38.050000	1	-0.012625
38.066667	1	-0.012250
38.083333	1	-0.011250
38.100000	1	-0.010250
38.116667	1	-0.009375
38.133333	1	-0.008250
38.150000	1	-0.007875
38.166667	1	-0.007000
38.183333	1	-0.006125
38.200000	1	-0.005750
38.216667	1	-0.004750
38.233333	1	-0.004250
38.250000	1	-0.004750
38.266667	1	-0.004625
38.283333	1	-0.004000
38.300000	1	-0.004250
38.316667	1	-0.004125
38.333333	1	-0.004500
38.350000	1	-0.004375
38.366667	1	-0.004250
38.383333	1	-0.005000
38.400000	1	-0.006000
38.416667	1	-0.006750
38.433333	1	-0.006500
38.450000	1	-0.006625
38.466667	1	-0.006625
38.483333	1	-0.007750
38.500000	1	-0.007875
38.516667	1	-0.009000
38.533333	1	-0.009500
38.550000	1	-0.011125
38.566667	1	-0.011875
38.583333	1	-0.012750
38.600000	1	-0.014000
38.616667	1	-0.014625
38.633333	1	-0.015125
38.650000	1	-0.015750
38.666667	1	-0.016750
38.683333	1	-0.018125
38.700000	1	-0.018875
38.716667	1	-0.019500
38.733333	1	-0.020500
38.750000	1	-0.021500
38.766667	1	-0.022375
38.783333	1	-0.023000
38.800000	1	-0.023625
38.816667	1	-0.024375
38.833333	1	-0.024875
38.850000	1	-0.026125
38.866667	1	-0.026375
38.883333	1	-0.026625
38.900000	1	-0.027625
38.916667	1	-0.028500
38.933333	1	-0.029750
38.950000	1	-0.030500
38.966667	1	-0.031000
38.983333	1	-0.031625
39.000000	1	-0.033000
39.016667	1	-0.034250
39.033333	1	-0.035000
39.050000	1	-0.035750
39.066667	1	-0.036750
39.083333	1	-0.038000
39.100000	1	-0.038500
39.116667	1	-0.039000
39.133333	1	-0.039500
39.150000	1	-0.040375
39.166667	1	-0.040750
39.183333	1	-0.041125
39.200000	1	-0.041000
39.216667	1	-0.041625
39.233333	1	-0.041625
39.250000	1	-0.042125
39.266667	1	-0.042000
39.283333	1	-0.041750
39.300000	1	-0.041625
39.316667	1	-0.040625
39.333333	1	-0.039875
39.350000	1	-0.038625
39.366667	1	-0.038125
39.383333	1	-0.037500
39.400000	1	-0.036625
39.416667	1	-0.035125
39.433333	1	-0.034500
39.450000	1	-0.032875
39.466667	1	-0.031750
39.483333	1	-0.030500
39.500000	1	-0.029625
39.516667	1	-0.028125
39.533333	1	-0.027000
39.550000	1	-0.026375
39.566667	1	-0.025375
39.583333	1	-0.024125
39.600000	1	-0.022500
39.616667	1	-0.021125
39.633333	1	-0.019250
39.650000	1	-0.018750
39.666667	1	-0.017500
39.683333	1	-0.016625
39.700000	1	-0.015625
39.716667	1	-0.014125
39.733333	1	-0.013750
39.750000	1	-0.012750
39.766667	1	-0.011500
39.783333	1	-0.010125
39.800000	1	-0.009125
39.816667	1	-0.008500
39.833333	1	-0.007125
39.850000	1	-0.006625
39.866667	1	-0.005375
39.883333	1	-0.004375
39.900000	1	-0.003625
39.916667	1	-0.003250
39.933333	1	-0.002375
39.950000	1	-0.001500
39.966667	1	-0.001250
39.983333	1	-0.000875
40.000000	1	-0.000500
