File Path	chrom://marshall/Chromeleon7/HPLC_Ultimate_3000/Users/markusar/20230610_CMO_FP11_FP12.seq/705.smp/RI_1.channel/RI_1.chm
Channel	RI_1

Injection Information:
Data Vault	Chromeleon7
Injection	FP12_2_S2
Injection Number	27
Position	BC2
Comment	
Processing Method	
Instrument Method	run_25B_method
Type	Unknown
Status	Finished
Injection Date	11.06.2023
Injection Time	12:29:01
Injection Volume (µl)	20.000
Dilution Factor	1.0000
Weight	1.0000

Chromatogram Data Information:
Time Min. (min)	0.000000
Time Max. (min)	40.000000
Data Points	2401
Detector	RI
Generating Data System	Chromeleon 7.2.5.9507
Exporting Data System	Chromeleon 7.2.5.0
Operator	Instrument Controller
Signal Quantity	Refractive 
Signal Unit	µRIU
Signal Min.	-0.667375
Signal Max.	52.889000
Channel	RI_1
Driver Name	RID520Driver.dll
Channel Type	Evaluation
Min. Step (s)	1
Max. Step (s)	1
Average Step (s)	1

Signal Parameter Information:
Signal Info	

Chromatogram Data:
Time (min)	Step (s)	Value (µRIU)
0.000000	n.a.	-0.011500
0.016667	1	-0.013000
0.033333	1	-0.014375
0.050000	1	-0.015875
0.066667	1	-0.017500
0.083333	1	-0.019375
0.100000	1	-0.021125
0.116667	1	-0.023250
0.133333	1	-0.025375
0.150000	1	-0.026375
0.166667	1	-0.027250
0.183333	1	-0.028750
0.200000	1	-0.030625
0.216667	1	-0.032250
0.233333	1	-0.034250
0.250000	1	-0.036125
0.266667	1	-0.038125
0.283333	1	-0.039875
0.300000	1	-0.042250
0.316667	1	-0.044375
0.333333	1	-0.047250
0.350000	1	-0.051875
0.366667	1	-0.056625
0.383333	1	-0.059375
0.400000	1	-0.059625
0.416667	1	-0.057500
0.433333	1	-0.054750
0.450000	1	-0.052250
0.466667	1	-0.050375
0.483333	1	-0.048750
0.500000	1	-0.047125
0.516667	1	-0.046250
0.533333	1	-0.045625
0.550000	1	-0.046875
0.566667	1	-0.048500
0.583333	1	-0.051000
0.600000	1	-0.054000
0.616667	1	-0.056000
0.633333	1	-0.058000
0.650000	1	-0.058875
0.666667	1	-0.060250
0.683333	1	-0.061375
0.700000	1	-0.062375
0.716667	1	-0.062750
0.733333	1	-0.063125
0.750000	1	-0.063875
0.766667	1	-0.065500
0.783333	1	-0.066000
0.800000	1	-0.066125
0.816667	1	-0.066250
0.833333	1	-0.066500
0.850000	1	-0.066125
0.866667	1	-0.065000
0.883333	1	-0.065125
0.900000	1	-0.065625
0.916667	1	-0.065500
0.933333	1	-0.064875
0.950000	1	-0.064500
0.966667	1	-0.062875
0.983333	1	-0.062750
1.000000	1	-0.062625
1.016667	1	-0.062375
1.033333	1	-0.061750
1.050000	1	-0.061375
1.066667	1	-0.061125
1.083333	1	-0.061000
1.100000	1	-0.060250
1.116667	1	-0.059625
1.133333	1	-0.058750
1.150000	1	-0.058000
1.166667	1	-0.058125
1.183333	1	-0.057750
1.200000	1	-0.057000
1.216667	1	-0.056250
1.233333	1	-0.055625
1.250000	1	-0.054625
1.266667	1	-0.053125
1.283333	1	-0.053500
1.300000	1	-0.052750
1.316667	1	-0.052500
1.333333	1	-0.051375
1.350000	1	-0.050750
1.366667	1	-0.050125
1.383333	1	-0.049625
1.400000	1	-0.049000
1.416667	1	-0.048250
1.433333	1	-0.047625
1.450000	1	-0.046625
1.466667	1	-0.045375
1.483333	1	-0.045125
1.500000	1	-0.044625
1.516667	1	-0.043750
1.533333	1	-0.043500
1.550000	1	-0.043375
1.566667	1	-0.043000
1.583333	1	-0.042375
1.600000	1	-0.042125
1.616667	1	-0.041875
1.633333	1	-0.042125
1.650000	1	-0.042375
1.666667	1	-0.042500
1.683333	1	-0.042750
1.700000	1	-0.041500
1.716667	1	-0.042000
1.733333	1	-0.043000
1.750000	1	-0.043125
1.766667	1	-0.043500
1.783333	1	-0.044625
1.800000	1	-0.045500
1.816667	1	-0.046125
1.833333	1	-0.047125
1.850000	1	-0.047625
1.866667	1	-0.048000
1.883333	1	-0.048500
1.900000	1	-0.049250
1.916667	1	-0.050375
1.933333	1	-0.051125
1.950000	1	-0.051000
1.966667	1	-0.051750
1.983333	1	-0.052500
2.000000	1	-0.053375
2.016667	1	-0.053875
2.033333	1	-0.054250
2.050000	1	-0.054250
2.066667	1	-0.054500
2.083333	1	-0.054500
2.100000	1	-0.054750
2.116667	1	-0.055000
2.133333	1	-0.054750
2.150000	1	-0.054125
2.166667	1	-0.053625
2.183333	1	-0.053000
2.200000	1	-0.052625
2.216667	1	-0.052250
2.233333	1	-0.051750
2.250000	1	-0.051125
2.266667	1	-0.050375
2.283333	1	-0.049875
2.300000	1	-0.048375
2.316667	1	-0.047625
2.333333	1	-0.046625
2.350000	1	-0.046000
2.366667	1	-0.044375
2.383333	1	-0.042875
2.400000	1	-0.041000
2.416667	1	-0.040000
2.433333	1	-0.038875
2.450000	1	-0.037750
2.466667	1	-0.036000
2.483333	1	-0.034625
2.500000	1	-0.033125
2.516667	1	-0.031625
2.533333	1	-0.030500
2.550000	1	-0.029625
2.566667	1	-0.028250
2.583333	1	-0.026500
2.600000	1	-0.025250
2.616667	1	-0.023750
2.633333	1	-0.022250
2.650000	1	-0.021000
2.666667	1	-0.019375
2.683333	1	-0.017750
2.700000	1	-0.016000
2.716667	1	-0.014250
2.733333	1	-0.013000
2.750000	1	-0.011625
2.766667	1	-0.009750
2.783333	1	-0.008375
2.800000	1	-0.007500
2.816667	1	-0.006000
2.833333	1	-0.005125
2.850000	1	-0.003375
2.866667	1	-0.002375
2.883333	1	-0.001750
2.900000	1	-0.001250
2.916667	1	-0.000250
2.933333	1	0.000125
2.950000	1	0.000750
2.966667	1	0.000875
2.983333	1	0.002000
3.000000	1	0.002375
3.016667	1	0.002750
3.033333	1	0.003500
3.050000	1	0.004250
3.066667	1	0.004375
3.083333	1	0.004250
3.100000	1	0.003375
3.116667	1	0.003875
3.133333	1	0.003625
3.150000	1	0.003625
3.166667	1	0.002875
3.183333	1	0.002000
3.200000	1	0.002000
3.216667	1	0.001500
3.233333	1	0.000875
3.250000	1	0.000500
3.266667	1	0.000375
3.283333	1	-0.001375
3.300000	1	-0.002375
3.316667	1	-0.003875
3.333333	1	-0.005000
3.350000	1	-0.006125
3.366667	1	-0.007125
3.383333	1	-0.008000
3.400000	1	-0.008750
3.416667	1	-0.009750
3.433333	1	-0.010875
3.450000	1	-0.012125
3.466667	1	-0.013375
3.483333	1	-0.015125
3.500000	1	-0.016625
3.516667	1	-0.017125
3.533333	1	-0.018500
3.550000	1	-0.019625
3.566667	1	-0.020375
3.583333	1	-0.021375
3.600000	1	-0.023000
3.616667	1	-0.024375
3.633333	1	-0.025125
3.650000	1	-0.025750
3.666667	1	-0.026500
3.683333	1	-0.027750
3.700000	1	-0.028375
3.716667	1	-0.029000
3.733333	1	-0.029625
3.750000	1	-0.030250
3.766667	1	-0.030625
3.783333	1	-0.031250
3.800000	1	-0.031625
3.816667	1	-0.032500
3.833333	1	-0.032125
3.850000	1	-0.033125
3.866667	1	-0.033000
3.883333	1	-0.033500
3.900000	1	-0.034000
3.916667	1	-0.034750
3.933333	1	-0.034625
3.950000	1	-0.034625
3.966667	1	-0.034625
3.983333	1	-0.034375
4.000000	1	-0.034375
4.016667	1	-0.034375
4.033333	1	-0.033500
4.050000	1	-0.033500
4.066667	1	-0.034250
4.083333	1	-0.034375
4.100000	1	-0.034625
4.116667	1	-0.033875
4.133333	1	-0.034000
4.150000	1	-0.034000
4.166667	1	-0.033875
4.183333	1	-0.033250
4.200000	1	-0.033125
4.216667	1	-0.033000
4.233333	1	-0.033250
4.250000	1	-0.033000
4.266667	1	-0.032750
4.283333	1	-0.033250
4.300000	1	-0.033000
4.316667	1	-0.032875
4.333333	1	-0.032125
4.350000	1	-0.031875
4.366667	1	-0.031250
4.383333	1	-0.030625
4.400000	1	-0.029875
4.416667	1	-0.029500
4.433333	1	-0.029375
4.450000	1	-0.028875
4.466667	1	-0.028250
4.483333	1	-0.027500
4.500000	1	-0.026500
4.516667	1	-0.025250
4.533333	1	-0.024750
4.550000	1	-0.024000
4.566667	1	-0.022750
4.583333	1	-0.022000
4.600000	1	-0.020750
4.616667	1	-0.019375
4.633333	1	-0.017625
4.650000	1	-0.016375
4.666667	1	-0.015500
4.683333	1	-0.014000
4.700000	1	-0.012500
4.716667	1	-0.010875
4.733333	1	-0.009625
4.750000	1	-0.007625
4.766667	1	-0.006000
4.783333	1	-0.005000
4.800000	1	-0.003125
4.816667	1	-0.001250
4.833333	1	0.001500
4.850000	1	0.003375
4.866667	1	0.004875
4.883333	1	0.006750
4.900000	1	0.008625
4.916667	1	0.009750
4.933333	1	0.011625
4.950000	1	0.013250
4.966667	1	0.016000
4.983333	1	0.018375
5.000000	1	0.021000
5.016667	1	0.023000
5.033333	1	0.025125
5.050000	1	0.027125
5.066667	1	0.028875
5.083333	1	0.030750
5.100000	1	0.032125
5.116667	1	0.033625
5.133333	1	0.034875
5.150000	1	0.036250
5.166667	1	0.037625
5.183333	1	0.039625
5.200000	1	0.041000
5.216667	1	0.042125
5.233333	1	0.043250
5.250000	1	0.044125
5.266667	1	0.044250
5.283333	1	0.046000
5.300000	1	0.046375
5.316667	1	0.047000
5.333333	1	0.047000
5.350000	1	0.047250
5.366667	1	0.047375
5.383333	1	0.047000
5.400000	1	0.047625
5.416667	1	0.047000
5.433333	1	0.046375
5.450000	1	0.045375
5.466667	1	0.044250
5.483333	1	0.043250
5.500000	1	0.042750
5.516667	1	0.041875
5.533333	1	0.040375
5.550000	1	0.039125
5.566667	1	0.037625
5.583333	1	0.036375
5.600000	1	0.035000
5.616667	1	0.033625
5.633333	1	0.032375
5.650000	1	0.031000
5.666667	1	0.029500
5.683333	1	0.028125
5.700000	1	0.026500
5.716667	1	0.025625
5.733333	1	0.024000
5.750000	1	0.023125
5.766667	1	0.022000
5.783333	1	0.020750
5.800000	1	0.020125
5.816667	1	0.018500
5.833333	1	0.018625
5.850000	1	0.018000
5.866667	1	0.016625
5.883333	1	0.015750
5.900000	1	0.015875
5.916667	1	0.015875
5.933333	1	0.015875
5.950000	1	0.016000
5.966667	1	0.016625
5.983333	1	0.016375
6.000000	1	0.016625
6.016667	1	0.017500
6.033333	1	0.017625
6.050000	1	0.018875
6.066667	1	0.019875
6.083333	1	0.020875
6.100000	1	0.021375
6.116667	1	0.022375
6.133333	1	0.023875
6.150000	1	0.025625
6.166667	1	0.026875
6.183333	1	0.027875
6.200000	1	0.029625
6.216667	1	0.031125
6.233333	1	0.032875
6.250000	1	0.034375
6.266667	1	0.035625
6.283333	1	0.038000
6.300000	1	0.040625
6.316667	1	0.042625
6.333333	1	0.044750
6.350000	1	0.046375
6.366667	1	0.048000
6.383333	1	0.051125
6.400000	1	0.053875
6.416667	1	0.057000
6.433333	1	0.058750
6.450000	1	0.061375
6.466667	1	0.063750
6.483333	1	0.066250
6.500000	1	0.068625
6.516667	1	0.070750
6.533333	1	0.073500
6.550000	1	0.075750
6.566667	1	0.078500
6.583333	1	0.080875
6.600000	1	0.082875
6.616667	1	0.085125
6.633333	1	0.087375
6.650000	1	0.089750
6.666667	1	0.091625
6.683333	1	0.093125
6.700000	1	0.095250
6.716667	1	0.096750
6.733333	1	0.098750
6.750000	1	0.100125
6.766667	1	0.100500
6.783333	1	0.101125
6.800000	1	0.102375
6.816667	1	0.103125
6.833333	1	0.103750
6.850000	1	0.104375
6.866667	1	0.104750
6.883333	1	0.104625
6.900000	1	0.104000
6.916667	1	0.103500
6.933333	1	0.102875
6.950000	1	0.101625
6.966667	1	0.100875
6.983333	1	0.099500
7.000000	1	0.098125
7.016667	1	0.096375
7.033333	1	0.094875
7.050000	1	0.093125
7.066667	1	0.091375
7.083333	1	0.089125
7.100000	1	0.086625
7.116667	1	0.084250
7.133333	1	0.082125
7.150000	1	0.079000
7.166667	1	0.076125
7.183333	1	0.073625
7.200000	1	0.071125
7.216667	1	0.067625
7.233333	1	0.064125
7.250000	1	0.061375
7.266667	1	0.058625
7.283333	1	0.055500
7.300000	1	0.052250
7.316667	1	0.049125
7.333333	1	0.046625
7.350000	1	0.044125
7.366667	1	0.041375
7.383333	1	0.038625
7.400000	1	0.036250
7.416667	1	0.033625
7.433333	1	0.031250
7.450000	1	0.028750
7.466667	1	0.026250
7.483333	1	0.023875
7.500000	1	0.022375
7.516667	1	0.020750
7.533333	1	0.018625
7.550000	1	0.016375
7.566667	1	0.015000
7.583333	1	0.013875
7.600000	1	0.012625
7.616667	1	0.011000
7.633333	1	0.009250
7.650000	1	0.007750
7.666667	1	0.006875
7.683333	1	0.005250
7.700000	1	0.004375
7.716667	1	0.003875
7.733333	1	0.002250
7.750000	1	0.001875
7.766667	1	0.000750
7.783333	1	0.000375
7.800000	1	0.000000
7.816667	1	0.000000
7.833333	1	-0.000375
7.850000	1	-0.000875
7.866667	1	-0.001000
7.883333	1	-0.001125
7.900000	1	-0.000875
7.916667	1	-0.000750
7.933333	1	-0.000500
7.950000	1	0.000000
7.966667	1	0.000000
7.983333	1	0.000000
8.000000	1	0.000750
8.016667	1	0.001375
8.033333	1	0.002625
8.050000	1	0.003125
8.066667	1	0.003875
8.083333	1	0.005375
8.100000	1	0.006625
8.116667	1	0.007750
8.133333	1	0.009250
8.150000	1	0.011125
8.166667	1	0.012500
8.183333	1	0.014625
8.200000	1	0.016500
8.216667	1	0.018250
8.233333	1	0.020000
8.250000	1	0.021250
8.266667	1	0.023625
8.283333	1	0.025500
8.300000	1	0.027250
8.316667	1	0.028500
8.333333	1	0.029875
8.350000	1	0.032125
8.366667	1	0.034250
8.383333	1	0.036750
8.400000	1	0.038875
8.416667	1	0.040500
8.433333	1	0.042250
8.450000	1	0.044375
8.466667	1	0.046500
8.483333	1	0.048125
8.500000	1	0.049875
8.516667	1	0.051375
8.533333	1	0.053375
8.550000	1	0.054875
8.566667	1	0.056625
8.583333	1	0.057500
8.600000	1	0.058625
8.616667	1	0.060125
8.633333	1	0.060500
8.650000	1	0.061125
8.666667	1	0.062125
8.683333	1	0.063375
8.700000	1	0.063750
8.716667	1	0.064125
8.733333	1	0.064250
8.750000	1	0.064875
8.766667	1	0.065500
8.783333	1	0.065875
8.800000	1	0.065500
8.816667	1	0.065000
8.833333	1	0.064375
8.850000	1	0.064125
8.866667	1	0.063875
8.883333	1	0.063250
8.900000	1	0.063000
8.916667	1	0.063500
8.933333	1	0.062750
8.950000	1	0.062500
8.966667	1	0.061500
8.983333	1	0.061375
9.000000	1	0.060625
9.016667	1	0.060125
9.033333	1	0.060250
9.050000	1	0.060125
9.066667	1	0.059375
9.083333	1	0.058250
9.100000	1	0.057750
9.116667	1	0.058000
9.133333	1	0.058125
9.150000	1	0.057750
9.166667	1	0.057375
9.183333	1	0.056125
9.200000	1	0.055750
9.216667	1	0.055250
9.233333	1	0.055250
9.250000	1	0.055000
9.266667	1	0.055000
9.283333	1	0.054750
9.300000	1	0.054875
9.316667	1	0.054375
9.333333	1	0.054000
9.350000	1	0.054000
9.366667	1	0.054125
9.383333	1	0.054375
9.400000	1	0.054625
9.416667	1	0.054375
9.433333	1	0.054625
9.450000	1	0.055750
9.466667	1	0.056875
9.483333	1	0.058250
9.500000	1	0.059625
9.516667	1	0.061875
9.533333	1	0.064250
9.550000	1	0.066875
9.566667	1	0.070500
9.583333	1	0.074375
9.600000	1	0.078375
9.616667	1	0.083875
9.633333	1	0.091250
9.650000	1	0.099375
9.666667	1	0.109375
9.683333	1	0.121000
9.700000	1	0.134625
9.716667	1	0.150125
9.733333	1	0.168500
9.750000	1	0.189250
9.766667	1	0.213875
9.783333	1	0.241250
9.800000	1	0.272750
9.816667	1	0.308875
9.833333	1	0.348500
9.850000	1	0.390125
9.866667	1	0.431250
9.883333	1	0.468250
9.900000	1	0.497625
9.916667	1	0.521375
9.933333	1	0.545250
9.950000	1	0.583875
9.966667	1	0.657625
9.983333	1	0.793875
10.000000	1	1.023250
10.016667	1	1.375875
10.033333	1	1.879000
10.050000	1	2.557250
10.066667	1	3.429750
10.083333	1	4.510875
10.100000	1	5.809750
10.116667	1	7.329125
10.133333	1	9.063375
10.150000	1	10.999250
10.166667	1	13.115375
10.183333	1	15.384875
10.200000	1	17.775125
10.216667	1	20.251375
10.233333	1	22.778625
10.250000	1	25.322125
10.266667	1	27.841000
10.283333	1	30.293875
10.300000	1	32.626125
10.316667	1	34.766875
10.333333	1	36.620625
10.350000	1	38.068250
10.366667	1	38.979625
10.383333	1	39.229750
10.400000	1	38.731250
10.416667	1	37.460625
10.433333	1	35.479250
10.450000	1	32.931250
10.466667	1	30.014500
10.483333	1	26.939250
10.500000	1	23.894500
10.516667	1	21.021250
10.533333	1	18.403625
10.550000	1	16.074250
10.566667	1	14.030500
10.583333	1	12.251250
10.600000	1	10.704375
10.616667	1	9.362875
10.633333	1	8.201875
10.650000	1	7.202500
10.666667	1	6.345125
10.683333	1	5.615500
10.700000	1	4.998750
10.716667	1	4.479875
10.733333	1	4.044000
10.750000	1	3.678625
10.766667	1	3.371625
10.783333	1	3.112125
10.800000	1	2.891000
10.816667	1	2.700500
10.833333	1	2.535125
10.850000	1	2.391375
10.866667	1	2.264125
10.883333	1	2.150750
10.900000	1	2.049875
10.916667	1	1.958250
10.933333	1	1.874875
10.950000	1	1.799375
10.966667	1	1.730250
10.983333	1	1.666125
11.000000	1	1.606875
11.016667	1	1.551375
11.033333	1	1.500125
11.050000	1	1.452125
11.066667	1	1.407500
11.083333	1	1.365750
11.100000	1	1.327000
11.116667	1	1.290500
11.133333	1	1.256125
11.150000	1	1.224250
11.166667	1	1.193375
11.183333	1	1.165625
11.200000	1	1.138875
11.216667	1	1.114125
11.233333	1	1.091000
11.250000	1	1.069125
11.266667	1	1.048750
11.283333	1	1.029375
11.300000	1	1.012000
11.316667	1	0.995750
11.333333	1	0.980625
11.350000	1	0.966875
11.366667	1	0.954000
11.383333	1	0.942000
11.400000	1	0.930875
11.416667	1	0.921125
11.433333	1	0.911750
11.450000	1	0.904125
11.466667	1	0.896875
11.483333	1	0.891250
11.500000	1	0.886375
11.516667	1	0.882250
11.533333	1	0.879375
11.550000	1	0.877000
11.566667	1	0.875375
11.583333	1	0.875500
11.600000	1	0.875375
11.616667	1	0.875875
11.633333	1	0.877625
11.650000	1	0.880000
11.666667	1	0.882250
11.683333	1	0.884875
11.700000	1	0.888375
11.716667	1	0.891500
11.733333	1	0.894000
11.750000	1	0.897250
11.766667	1	0.899250
11.783333	1	0.902250
11.800000	1	0.905500
11.816667	1	0.907875
11.833333	1	0.910375
11.850000	1	0.912500
11.866667	1	0.914500
11.883333	1	0.916500
11.900000	1	0.919125
11.916667	1	0.921750
11.933333	1	0.924625
11.950000	1	0.928000
11.966667	1	0.932375
11.983333	1	0.936750
12.000000	1	0.942500
12.016667	1	0.949750
12.033333	1	0.958500
12.050000	1	0.969000
12.066667	1	0.981625
12.083333	1	0.998375
12.100000	1	1.019750
12.116667	1	1.047250
12.133333	1	1.082875
12.150000	1	1.127375
12.166667	1	1.182875
12.183333	1	1.252125
12.200000	1	1.336875
12.216667	1	1.437500
12.233333	1	1.556500
12.250000	1	1.696875
12.266667	1	1.858500
12.283333	1	2.044250
12.300000	1	2.254750
12.316667	1	2.493000
12.333333	1	2.760250
12.350000	1	3.058250
12.366667	1	3.388375
12.383333	1	3.751250
12.400000	1	4.146875
12.416667	1	4.574500
12.433333	1	5.033000
12.450000	1	5.521500
12.466667	1	6.037000
12.483333	1	6.575000
12.500000	1	7.130750
12.516667	1	7.695625
12.533333	1	8.262125
12.550000	1	8.817875
12.566667	1	9.354750
12.583333	1	9.862875
12.600000	1	10.334375
12.616667	1	10.764875
12.633333	1	11.149875
12.650000	1	11.486125
12.666667	1	11.772625
12.683333	1	12.007125
12.700000	1	12.190500
12.716667	1	12.322250
12.733333	1	12.402375
12.750000	1	12.431625
12.766667	1	12.411375
12.783333	1	12.340125
12.800000	1	12.220000
12.816667	1	12.051250
12.833333	1	11.837125
12.850000	1	11.583500
12.866667	1	11.298875
12.883333	1	10.991500
12.900000	1	10.668750
12.916667	1	10.332375
12.933333	1	9.982250
12.950000	1	9.614375
12.966667	1	9.227875
12.983333	1	8.820875
13.000000	1	8.395500
13.016667	1	7.954250
13.033333	1	7.501000
13.050000	1	7.036500
13.066667	1	6.562125
13.083333	1	6.075250
13.100000	1	5.573875
13.116667	1	5.055625
13.133333	1	4.522750
13.150000	1	3.985750
13.166667	1	3.464500
13.183333	1	2.984500
13.200000	1	2.568750
13.216667	1	2.227000
13.233333	1	1.956375
13.250000	1	1.746250
13.266667	1	1.582000
13.283333	1	1.452125
13.300000	1	1.349000
13.316667	1	1.264000
13.333333	1	1.193250
13.350000	1	1.132625
13.366667	1	1.080375
13.383333	1	1.034875
13.400000	1	0.993750
13.416667	1	0.957125
13.433333	1	0.924000
13.450000	1	0.893375
13.466667	1	0.865750
13.483333	1	0.840250
13.500000	1	0.817125
13.516667	1	0.796250
13.533333	1	0.776750
13.550000	1	0.759875
13.566667	1	0.744000
13.583333	1	0.730500
13.600000	1	0.718375
13.616667	1	0.708375
13.633333	1	0.699500
13.650000	1	0.692375
13.666667	1	0.686625
13.683333	1	0.681625
13.700000	1	0.678375
13.716667	1	0.675625
13.733333	1	0.673750
13.750000	1	0.673125
13.766667	1	0.672750
13.783333	1	0.672375
13.800000	1	0.672125
13.816667	1	0.671875
13.833333	1	0.671625
13.850000	1	0.669250
13.866667	1	0.666250
13.883333	1	0.661500
13.900000	1	0.655125
13.916667	1	0.647875
13.933333	1	0.639500
13.950000	1	0.629625
13.966667	1	0.618875
13.983333	1	0.607875
14.000000	1	0.596375
14.016667	1	0.585375
14.033333	1	0.575250
14.050000	1	0.564125
14.066667	1	0.554250
14.083333	1	0.544375
14.100000	1	0.535375
14.116667	1	0.526875
14.133333	1	0.518875
14.150000	1	0.512000
14.166667	1	0.505750
14.183333	1	0.501125
14.200000	1	0.498250
14.216667	1	0.495625
14.233333	1	0.494625
14.250000	1	0.494500
14.266667	1	0.496500
14.283333	1	0.500125
14.300000	1	0.505000
14.316667	1	0.512000
14.333333	1	0.522125
14.350000	1	0.534375
14.366667	1	0.549625
14.383333	1	0.569125
14.400000	1	0.592750
14.416667	1	0.620500
14.433333	1	0.655375
14.450000	1	0.696500
14.466667	1	0.745125
14.483333	1	0.804375
14.500000	1	0.875375
14.516667	1	0.959750
14.533333	1	1.062250
14.550000	1	1.186375
14.566667	1	1.337500
14.583333	1	1.523125
14.600000	1	1.752750
14.616667	1	2.036625
14.633333	1	2.388875
14.650000	1	2.825250
14.666667	1	3.363875
14.683333	1	4.024625
14.700000	1	4.827500
14.716667	1	5.790250
14.733333	1	6.931250
14.750000	1	8.267500
14.766667	1	9.808875
14.783333	1	11.561625
14.800000	1	13.526625
14.816667	1	15.701875
14.833333	1	18.077500
14.850000	1	20.638875
14.866667	1	23.363750
14.883333	1	26.224000
14.900000	1	29.184625
14.916667	1	32.202375
14.933333	1	35.230750
14.950000	1	38.216500
14.966667	1	41.099000
14.983333	1	43.811250
15.000000	1	46.285750
15.016667	1	48.455875
15.033333	1	50.255875
15.050000	1	51.626375
15.066667	1	52.515875
15.083333	1	52.889000
15.100000	1	52.728625
15.116667	1	52.036125
15.133333	1	50.838500
15.150000	1	49.175500
15.166667	1	47.107125
15.183333	1	44.706875
15.200000	1	42.051625
15.216667	1	39.217125
15.233333	1	36.279875
15.250000	1	33.310125
15.266667	1	30.370500
15.283333	1	27.516750
15.300000	1	24.792875
15.316667	1	22.231750
15.333333	1	19.854250
15.350000	1	17.672000
15.366667	1	15.689250
15.383333	1	13.903125
15.400000	1	12.306250
15.416667	1	10.887000
15.433333	1	9.632750
15.450000	1	8.529500
15.466667	1	7.562500
15.483333	1	6.719000
15.500000	1	5.985625
15.516667	1	5.349625
15.533333	1	4.799875
15.550000	1	4.326000
15.566667	1	3.918000
15.583333	1	3.567250
15.600000	1	3.267125
15.616667	1	3.009250
15.633333	1	2.787500
15.650000	1	2.597500
15.666667	1	2.434125
15.683333	1	2.294500
15.700000	1	2.174000
15.716667	1	2.069750
15.733333	1	1.980125
15.750000	1	1.900875
15.766667	1	1.830375
15.783333	1	1.767375
15.800000	1	1.709000
15.816667	1	1.654250
15.833333	1	1.601875
15.850000	1	1.551500
15.866667	1	1.501875
15.883333	1	1.453250
15.900000	1	1.405000
15.916667	1	1.357375
15.933333	1	1.311625
15.950000	1	1.267125
15.966667	1	1.224125
15.983333	1	1.182250
16.000000	1	1.142625
16.016667	1	1.106000
16.033333	1	1.070750
16.050000	1	1.038000
16.066667	1	1.008500
16.083333	1	0.981000
16.100000	1	0.955000
16.116667	1	0.931875
16.133333	1	0.911250
16.150000	1	0.892750
16.166667	1	0.876125
16.183333	1	0.862125
16.200000	1	0.849125
16.216667	1	0.838625
16.233333	1	0.829125
16.250000	1	0.820625
16.266667	1	0.814000
16.283333	1	0.809000
16.300000	1	0.804625
16.316667	1	0.800500
16.333333	1	0.798375
16.350000	1	0.796500
16.366667	1	0.795250
16.383333	1	0.793375
16.400000	1	0.792000
16.416667	1	0.790875
16.433333	1	0.789875
16.450000	1	0.788625
16.466667	1	0.786875
16.483333	1	0.785000
16.500000	1	0.783250
16.516667	1	0.781250
16.533333	1	0.779875
16.550000	1	0.778500
16.566667	1	0.776875
16.583333	1	0.775625
16.600000	1	0.775375
16.616667	1	0.776000
16.633333	1	0.777125
16.650000	1	0.778500
16.666667	1	0.780500
16.683333	1	0.782875
16.700000	1	0.786000
16.716667	1	0.790500
16.733333	1	0.795250
16.750000	1	0.799750
16.766667	1	0.804750
16.783333	1	0.809875
16.800000	1	0.815375
16.816667	1	0.820875
16.833333	1	0.826625
16.850000	1	0.832500
16.866667	1	0.837375
16.883333	1	0.842500
16.900000	1	0.847125
16.916667	1	0.851500
16.933333	1	0.855250
16.950000	1	0.858750
16.966667	1	0.861750
16.983333	1	0.864375
17.000000	1	0.866125
17.016667	1	0.867375
17.033333	1	0.868000
17.050000	1	0.869000
17.066667	1	0.869125
17.083333	1	0.868375
17.100000	1	0.867375
17.116667	1	0.866250
17.133333	1	0.865500
17.150000	1	0.863500
17.166667	1	0.862500
17.183333	1	0.861125
17.200000	1	0.859500
17.216667	1	0.857875
17.233333	1	0.856000
17.250000	1	0.853125
17.266667	1	0.849500
17.283333	1	0.845625
17.300000	1	0.840500
17.316667	1	0.834250
17.333333	1	0.828625
17.350000	1	0.821500
17.366667	1	0.813500
17.383333	1	0.805125
17.400000	1	0.796750
17.416667	1	0.788500
17.433333	1	0.780125
17.450000	1	0.771625
17.466667	1	0.763500
17.483333	1	0.755625
17.500000	1	0.748000
17.516667	1	0.741625
17.533333	1	0.736000
17.550000	1	0.732125
17.566667	1	0.728750
17.583333	1	0.726750
17.600000	1	0.726125
17.616667	1	0.727375
17.633333	1	0.729250
17.650000	1	0.732875
17.666667	1	0.738250
17.683333	1	0.744375
17.700000	1	0.752375
17.716667	1	0.760875
17.733333	1	0.771375
17.750000	1	0.782625
17.766667	1	0.794250
17.783333	1	0.806500
17.800000	1	0.819875
17.816667	1	0.833500
17.833333	1	0.847375
17.850000	1	0.861250
17.866667	1	0.874500
17.883333	1	0.886375
17.900000	1	0.898375
17.916667	1	0.909750
17.933333	1	0.920375
17.950000	1	0.929500
17.966667	1	0.937125
17.983333	1	0.942500
18.000000	1	0.947500
18.016667	1	0.950750
18.033333	1	0.952000
18.050000	1	0.950875
18.066667	1	0.948875
18.083333	1	0.945000
18.100000	1	0.938750
18.116667	1	0.931000
18.133333	1	0.922375
18.150000	1	0.913000
18.166667	1	0.901875
18.183333	1	0.890250
18.200000	1	0.878000
18.216667	1	0.865375
18.233333	1	0.852125
18.250000	1	0.838125
18.266667	1	0.825500
18.283333	1	0.812750
18.300000	1	0.800750
18.316667	1	0.789375
18.333333	1	0.778750
18.350000	1	0.768000
18.366667	1	0.758375
18.383333	1	0.749125
18.400000	1	0.741500
18.416667	1	0.734625
18.433333	1	0.727750
18.450000	1	0.722125
18.466667	1	0.717375
18.483333	1	0.713125
18.500000	1	0.709500
18.516667	1	0.707250
18.533333	1	0.706125
18.550000	1	0.704625
18.566667	1	0.704875
18.583333	1	0.704750
18.600000	1	0.705500
18.616667	1	0.706000
18.633333	1	0.706625
18.650000	1	0.707750
18.666667	1	0.709500
18.683333	1	0.711125
18.700000	1	0.713500
18.716667	1	0.716125
18.733333	1	0.719125
18.750000	1	0.722125
18.766667	1	0.725625
18.783333	1	0.729375
18.800000	1	0.733250
18.816667	1	0.737875
18.833333	1	0.743625
18.850000	1	0.750125
18.866667	1	0.757125
18.883333	1	0.764375
18.900000	1	0.773375
18.916667	1	0.783250
18.933333	1	0.794625
18.950000	1	0.806500
18.966667	1	0.820125
18.983333	1	0.835000
19.000000	1	0.851875
19.016667	1	0.870000
19.033333	1	0.889375
19.050000	1	0.912125
19.066667	1	0.936500
19.083333	1	0.963250
19.100000	1	0.989875
19.116667	1	1.018625
19.133333	1	1.049500
19.150000	1	1.081875
19.166667	1	1.114750
19.183333	1	1.148250
19.200000	1	1.183000
19.216667	1	1.217625
19.233333	1	1.251375
19.250000	1	1.283625
19.266667	1	1.314250
19.283333	1	1.342375
19.300000	1	1.367250
19.316667	1	1.388875
19.333333	1	1.407000
19.350000	1	1.420500
19.366667	1	1.429125
19.383333	1	1.433125
19.400000	1	1.431375
19.416667	1	1.424500
19.433333	1	1.412500
19.450000	1	1.395625
19.466667	1	1.373125
19.483333	1	1.346750
19.500000	1	1.316375
19.516667	1	1.282000
19.533333	1	1.245500
19.550000	1	1.206875
19.566667	1	1.167125
19.583333	1	1.126125
19.600000	1	1.083875
19.616667	1	1.041500
19.633333	1	1.000000
19.650000	1	0.959500
19.666667	1	0.920500
19.683333	1	0.884625
19.700000	1	0.850250
19.716667	1	0.818750
19.733333	1	0.790500
19.750000	1	0.765375
19.766667	1	0.743000
19.783333	1	0.724000
19.800000	1	0.707750
19.816667	1	0.695250
19.833333	1	0.684875
19.850000	1	0.678375
19.866667	1	0.675375
19.883333	1	0.675125
19.900000	1	0.677375
19.916667	1	0.682125
19.933333	1	0.689250
19.950000	1	0.699000
19.966667	1	0.711000
19.983333	1	0.724000
20.000000	1	0.739500
20.016667	1	0.755750
20.033333	1	0.772750
20.050000	1	0.789875
20.066667	1	0.807500
20.083333	1	0.824125
20.100000	1	0.841375
20.116667	1	0.857250
20.133333	1	0.873250
20.150000	1	0.888375
20.166667	1	0.903000
20.183333	1	0.915625
20.200000	1	0.927500
20.216667	1	0.938750
20.233333	1	0.948750
20.250000	1	0.958625
20.266667	1	0.967875
20.283333	1	0.977250
20.300000	1	0.986625
20.316667	1	0.995500
20.333333	1	1.005125
20.350000	1	1.015125
20.366667	1	1.026250
20.383333	1	1.038250
20.400000	1	1.050750
20.416667	1	1.064375
20.433333	1	1.078750
20.450000	1	1.094125
20.466667	1	1.109125
20.483333	1	1.125250
20.500000	1	1.141750
20.516667	1	1.158500
20.533333	1	1.174500
20.550000	1	1.190625
20.566667	1	1.206625
20.583333	1	1.221375
20.600000	1	1.235250
20.616667	1	1.247375
20.633333	1	1.258750
20.650000	1	1.269875
20.666667	1	1.280125
20.683333	1	1.289875
20.700000	1	1.298750
20.716667	1	1.306500
20.733333	1	1.315750
20.750000	1	1.325875
20.766667	1	1.336750
20.783333	1	1.349500
20.800000	1	1.364250
20.816667	1	1.381000
20.833333	1	1.400375
20.850000	1	1.422625
20.866667	1	1.448625
20.883333	1	1.477375
20.900000	1	1.508125
20.916667	1	1.540375
20.933333	1	1.574375
20.950000	1	1.608500
20.966667	1	1.642250
20.983333	1	1.674375
21.000000	1	1.703625
21.016667	1	1.729375
21.033333	1	1.750750
21.050000	1	1.765750
21.066667	1	1.773625
21.083333	1	1.774375
21.100000	1	1.766875
21.116667	1	1.751250
21.133333	1	1.727125
21.150000	1	1.694875
21.166667	1	1.655375
21.183333	1	1.608750
21.200000	1	1.555500
21.216667	1	1.497500
21.233333	1	1.436375
21.250000	1	1.371875
21.266667	1	1.306625
21.283333	1	1.239000
21.300000	1	1.172375
21.316667	1	1.107500
21.333333	1	1.044750
21.350000	1	0.984750
21.366667	1	0.927750
21.383333	1	0.873375
21.400000	1	0.822625
21.416667	1	0.775875
21.433333	1	0.732875
21.450000	1	0.693875
21.466667	1	0.658500
21.483333	1	0.625375
21.500000	1	0.597375
21.516667	1	0.572125
21.533333	1	0.549000
21.550000	1	0.528250
21.566667	1	0.510500
21.583333	1	0.494625
21.600000	1	0.481000
21.616667	1	0.469500
21.633333	1	0.458375
21.650000	1	0.448750
21.666667	1	0.440000
21.683333	1	0.432625
21.700000	1	0.426000
21.716667	1	0.421125
21.733333	1	0.417000
21.750000	1	0.413500
21.766667	1	0.410125
21.783333	1	0.407000
21.800000	1	0.404500
21.816667	1	0.402250
21.833333	1	0.401000
21.850000	1	0.399500
21.866667	1	0.398875
21.883333	1	0.398875
21.900000	1	0.399250
21.916667	1	0.399375
21.933333	1	0.400250
21.950000	1	0.401875
21.966667	1	0.403875
21.983333	1	0.406625
22.000000	1	0.409250
22.016667	1	0.411000
22.033333	1	0.412875
22.050000	1	0.415750
22.066667	1	0.418500
22.083333	1	0.421000
22.100000	1	0.422625
22.116667	1	0.424875
22.133333	1	0.427250
22.150000	1	0.428250
22.166667	1	0.429750
22.183333	1	0.431500
22.200000	1	0.432125
22.216667	1	0.431875
22.233333	1	0.431375
22.250000	1	0.430875
22.266667	1	0.430125
22.283333	1	0.428875
22.300000	1	0.428000
22.316667	1	0.426500
22.333333	1	0.425500
22.350000	1	0.424125
22.366667	1	0.422750
22.383333	1	0.421625
22.400000	1	0.420625
22.416667	1	0.420000
22.433333	1	0.420250
22.450000	1	0.420625
22.466667	1	0.421625
22.483333	1	0.423250
22.500000	1	0.425250
22.516667	1	0.427375
22.533333	1	0.431250
22.550000	1	0.435000
22.566667	1	0.439125
22.583333	1	0.444125
22.600000	1	0.448125
22.616667	1	0.452750
22.633333	1	0.457625
22.650000	1	0.462250
22.666667	1	0.466750
22.683333	1	0.471375
22.700000	1	0.475875
22.716667	1	0.480750
22.733333	1	0.485250
22.750000	1	0.489500
22.766667	1	0.492875
22.783333	1	0.495625
22.800000	1	0.497750
22.816667	1	0.500125
22.833333	1	0.501250
22.850000	1	0.501750
22.866667	1	0.502375
22.883333	1	0.502000
22.900000	1	0.501875
22.916667	1	0.500500
22.933333	1	0.498375
22.950000	1	0.496250
22.966667	1	0.492875
22.983333	1	0.489125
23.000000	1	0.485000
23.016667	1	0.480375
23.033333	1	0.476250
23.050000	1	0.471500
23.066667	1	0.466125
23.083333	1	0.460875
23.100000	1	0.456625
23.116667	1	0.452125
23.133333	1	0.448250
23.150000	1	0.444375
23.166667	1	0.441000
23.183333	1	0.437750
23.200000	1	0.435250
23.216667	1	0.433125
23.233333	1	0.431375
23.250000	1	0.431625
23.266667	1	0.431875
23.283333	1	0.432875
23.300000	1	0.435625
23.316667	1	0.439625
23.333333	1	0.444750
23.350000	1	0.451625
23.366667	1	0.459250
23.383333	1	0.469125
23.400000	1	0.481000
23.416667	1	0.494750
23.433333	1	0.511375
23.450000	1	0.531750
23.466667	1	0.555000
23.483333	1	0.581625
23.500000	1	0.612125
23.516667	1	0.647000
23.533333	1	0.688000
23.550000	1	0.734125
23.566667	1	0.786875
23.583333	1	0.846125
23.600000	1	0.912875
23.616667	1	0.986500
23.633333	1	1.068250
23.650000	1	1.158750
23.666667	1	1.258500
23.683333	1	1.367125
23.700000	1	1.484250
23.716667	1	1.610750
23.733333	1	1.746750
23.750000	1	1.891000
23.766667	1	2.043875
23.783333	1	2.204125
23.800000	1	2.371375
23.816667	1	2.545500
23.833333	1	2.723625
23.850000	1	2.904375
23.866667	1	3.086750
23.883333	1	3.268375
23.900000	1	3.447625
23.916667	1	3.622750
23.933333	1	3.790875
23.950000	1	3.949125
23.966667	1	4.095750
23.983333	1	4.227000
24.000000	1	4.340125
24.016667	1	4.434375
24.033333	1	4.508125
24.050000	1	4.559000
24.066667	1	4.586500
24.083333	1	4.590500
24.100000	1	4.570750
24.116667	1	4.527750
24.133333	1	4.461500
24.150000	1	4.374500
24.166667	1	4.267625
24.183333	1	4.143625
24.200000	1	4.004875
24.216667	1	3.853375
24.233333	1	3.691375
24.250000	1	3.523250
24.266667	1	3.349500
24.283333	1	3.173750
24.300000	1	2.998375
24.316667	1	2.824500
24.333333	1	2.654375
24.350000	1	2.489375
24.366667	1	2.330875
24.383333	1	2.180500
24.400000	1	2.038375
24.416667	1	1.905125
24.433333	1	1.781500
24.450000	1	1.667000
24.466667	1	1.561750
24.483333	1	1.465250
24.500000	1	1.377500
24.516667	1	1.296500
24.533333	1	1.223375
24.550000	1	1.157250
24.566667	1	1.097000
24.583333	1	1.042625
24.600000	1	0.993000
24.616667	1	0.947375
24.633333	1	0.906500
24.650000	1	0.868500
24.666667	1	0.833625
24.683333	1	0.801250
24.700000	1	0.770875
24.716667	1	0.742375
24.733333	1	0.715125
24.750000	1	0.689250
24.766667	1	0.663875
24.783333	1	0.639250
24.800000	1	0.616125
24.816667	1	0.593875
24.833333	1	0.573000
24.850000	1	0.551625
24.866667	1	0.531625
24.883333	1	0.511875
24.900000	1	0.492375
24.916667	1	0.473500
24.933333	1	0.456625
24.950000	1	0.439875
24.966667	1	0.423625
24.983333	1	0.408000
25.000000	1	0.394125
25.016667	1	0.380375
25.033333	1	0.367500
25.050000	1	0.355875
25.066667	1	0.345250
25.083333	1	0.335375
25.100000	1	0.326375
25.116667	1	0.318125
25.133333	1	0.310125
25.150000	1	0.304000
25.166667	1	0.297875
25.183333	1	0.292750
25.200000	1	0.288250
25.216667	1	0.285375
25.233333	1	0.282875
25.250000	1	0.281375
25.266667	1	0.279875
25.283333	1	0.278875
25.300000	1	0.279250
25.316667	1	0.279375
25.333333	1	0.279625
25.350000	1	0.280625
25.366667	1	0.282125
25.383333	1	0.283750
25.400000	1	0.286125
25.416667	1	0.288375
25.433333	1	0.290750
25.450000	1	0.293250
25.466667	1	0.296000
25.483333	1	0.298500
25.500000	1	0.300750
25.516667	1	0.303375
25.533333	1	0.306125
25.550000	1	0.307750
25.566667	1	0.310125
25.583333	1	0.312000
25.600000	1	0.313625
25.616667	1	0.315500
25.633333	1	0.316500
25.650000	1	0.318250
25.666667	1	0.319875
25.683333	1	0.320625
25.700000	1	0.321375
25.716667	1	0.321750
25.733333	1	0.322125
25.750000	1	0.321750
25.766667	1	0.321500
25.783333	1	0.321250
25.800000	1	0.321250
25.816667	1	0.321250
25.833333	1	0.321125
25.850000	1	0.320875
25.866667	1	0.320500
25.883333	1	0.319875
25.900000	1	0.318875
25.916667	1	0.319000
25.933333	1	0.318250
25.950000	1	0.318000
25.966667	1	0.317875
25.983333	1	0.317750
26.000000	1	0.317375
26.016667	1	0.317875
26.033333	1	0.317500
26.050000	1	0.317500
26.066667	1	0.317625
26.083333	1	0.317750
26.100000	1	0.318125
26.116667	1	0.318500
26.133333	1	0.319625
26.150000	1	0.320125
26.166667	1	0.321125
26.183333	1	0.322125
26.200000	1	0.322750
26.216667	1	0.323375
26.233333	1	0.325250
26.250000	1	0.326750
26.266667	1	0.328250
26.283333	1	0.329625
26.300000	1	0.331125
26.316667	1	0.332875
26.333333	1	0.334000
26.350000	1	0.335500
26.366667	1	0.336625
26.383333	1	0.337500
26.400000	1	0.338250
26.416667	1	0.338375
26.433333	1	0.338500
26.450000	1	0.337875
26.466667	1	0.337750
26.483333	1	0.336250
26.500000	1	0.334875
26.516667	1	0.332875
26.533333	1	0.331000
26.550000	1	0.327875
26.566667	1	0.324375
26.583333	1	0.320750
26.600000	1	0.316500
26.616667	1	0.311875
26.633333	1	0.306875
26.650000	1	0.301500
26.666667	1	0.295250
26.683333	1	0.289875
26.700000	1	0.283500
26.716667	1	0.276875
26.733333	1	0.270375
26.750000	1	0.263375
26.766667	1	0.256625
26.783333	1	0.249875
26.800000	1	0.243875
26.816667	1	0.237125
26.833333	1	0.230750
26.850000	1	0.225125
26.866667	1	0.219625
26.883333	1	0.214250
26.900000	1	0.208625
26.916667	1	0.204000
26.933333	1	0.199375
26.950000	1	0.195250
26.966667	1	0.191250
26.983333	1	0.188625
27.000000	1	0.186875
27.016667	1	0.185375
27.033333	1	0.183625
27.050000	1	0.182750
27.066667	1	0.182125
27.083333	1	0.182375
27.100000	1	0.183125
27.116667	1	0.184250
27.133333	1	0.185750
27.150000	1	0.187750
27.166667	1	0.190875
27.183333	1	0.194500
27.200000	1	0.198375
27.216667	1	0.203375
27.233333	1	0.209000
27.250000	1	0.215875
27.266667	1	0.223375
27.283333	1	0.231500
27.300000	1	0.240625
27.316667	1	0.251000
27.333333	1	0.262750
27.350000	1	0.276000
27.366667	1	0.290375
27.383333	1	0.306000
27.400000	1	0.323875
27.416667	1	0.343625
27.433333	1	0.365750
27.450000	1	0.390125
27.466667	1	0.417625
27.483333	1	0.447625
27.500000	1	0.481000
27.516667	1	0.518000
27.533333	1	0.558000
27.550000	1	0.601750
27.566667	1	0.650500
27.583333	1	0.703750
27.600000	1	0.762000
27.616667	1	0.825125
27.633333	1	0.893250
27.650000	1	0.967375
27.666667	1	1.046500
27.683333	1	1.132000
27.700000	1	1.222500
27.716667	1	1.318500
27.733333	1	1.420375
27.750000	1	1.526875
27.766667	1	1.639250
27.783333	1	1.756125
27.800000	1	1.877375
27.816667	1	2.001875
27.833333	1	2.129750
27.850000	1	2.260875
27.866667	1	2.394500
27.883333	1	2.528375
27.900000	1	2.662875
27.916667	1	2.796125
27.933333	1	2.927250
27.950000	1	3.055000
27.966667	1	3.178250
27.983333	1	3.295250
28.000000	1	3.405250
28.016667	1	3.506875
28.033333	1	3.598375
28.050000	1	3.679250
28.066667	1	3.748000
28.083333	1	3.804250
28.100000	1	3.845125
28.116667	1	3.871125
28.133333	1	3.882125
28.150000	1	3.876875
28.166667	1	3.855000
28.183333	1	3.817125
28.200000	1	3.763750
28.216667	1	3.695750
28.233333	1	3.613000
28.250000	1	3.516875
28.266667	1	3.407125
28.283333	1	3.286875
28.300000	1	3.157125
28.316667	1	3.018875
28.333333	1	2.874250
28.350000	1	2.724875
28.366667	1	2.572875
28.383333	1	2.418500
28.400000	1	2.264500
28.416667	1	2.111500
28.433333	1	1.959750
28.450000	1	1.811250
28.466667	1	1.666125
28.483333	1	1.524875
28.500000	1	1.389250
28.516667	1	1.259000
28.533333	1	1.134750
28.550000	1	1.016250
28.566667	1	0.903375
28.583333	1	0.796500
28.600000	1	0.694250
28.616667	1	0.597875
28.633333	1	0.506375
28.650000	1	0.419625
28.666667	1	0.337000
28.683333	1	0.257625
28.700000	1	0.182125
28.716667	1	0.111375
28.733333	1	0.042875
28.750000	1	-0.021875
28.766667	1	-0.083125
28.783333	1	-0.141875
28.800000	1	-0.197625
28.816667	1	-0.250500
28.833333	1	-0.300875
28.850000	1	-0.348750
28.866667	1	-0.393500
28.883333	1	-0.435500
28.900000	1	-0.474250
28.916667	1	-0.509375
28.933333	1	-0.542000
28.950000	1	-0.571125
28.966667	1	-0.596000
28.983333	1	-0.617625
29.000000	1	-0.635125
29.016667	1	-0.648750
29.033333	1	-0.658625
29.050000	1	-0.664875
29.066667	1	-0.667375
29.083333	1	-0.665750
29.100000	1	-0.660375
29.116667	1	-0.650875
29.133333	1	-0.639375
29.150000	1	-0.623250
29.166667	1	-0.604125
29.183333	1	-0.582000
29.200000	1	-0.556750
29.216667	1	-0.529625
29.233333	1	-0.499250
29.250000	1	-0.467000
29.266667	1	-0.433625
29.283333	1	-0.398625
29.300000	1	-0.362625
29.316667	1	-0.325000
29.333333	1	-0.286625
29.350000	1	-0.248125
29.366667	1	-0.209375
29.383333	1	-0.170750
29.400000	1	-0.132625
29.416667	1	-0.094625
29.433333	1	-0.058000
29.450000	1	-0.022250
29.466667	1	0.012500
29.483333	1	0.046500
29.500000	1	0.078750
29.516667	1	0.109750
29.533333	1	0.139000
29.550000	1	0.167500
29.566667	1	0.193750
29.583333	1	0.218375
29.600000	1	0.242000
29.616667	1	0.263375
29.633333	1	0.283500
29.650000	1	0.302125
29.666667	1	0.318000
29.683333	1	0.333500
29.700000	1	0.346875
29.716667	1	0.359000
29.733333	1	0.370125
29.750000	1	0.378875
29.766667	1	0.386625
29.783333	1	0.392875
29.800000	1	0.398750
29.816667	1	0.403125
29.833333	1	0.406625
29.850000	1	0.409250
29.866667	1	0.410875
29.883333	1	0.411500
29.900000	1	0.410875
29.916667	1	0.409875
29.933333	1	0.408875
29.950000	1	0.407875
29.966667	1	0.406250
29.983333	1	0.404000
30.000000	1	0.402000
30.016667	1	0.399125
30.033333	1	0.396375
30.050000	1	0.392750
30.066667	1	0.389625
30.083333	1	0.387375
30.100000	1	0.384375
30.116667	1	0.381750
30.133333	1	0.379000
30.150000	1	0.376375
30.166667	1	0.375000
30.183333	1	0.373125
30.200000	1	0.371875
30.216667	1	0.371250
30.233333	1	0.370125
30.250000	1	0.370375
30.266667	1	0.369750
30.283333	1	0.370125
30.300000	1	0.370750
30.316667	1	0.372375
30.333333	1	0.374625
30.350000	1	0.377500
30.366667	1	0.380875
30.383333	1	0.384625
30.400000	1	0.389000
30.416667	1	0.394500
30.433333	1	0.400500
30.450000	1	0.406875
30.466667	1	0.414500
30.483333	1	0.422375
30.500000	1	0.430875
30.516667	1	0.440000
30.533333	1	0.450125
30.550000	1	0.460500
30.566667	1	0.472500
30.583333	1	0.484375
30.600000	1	0.496875
30.616667	1	0.510250
30.633333	1	0.523875
30.650000	1	0.538125
30.666667	1	0.552250
30.683333	1	0.566750
30.700000	1	0.581250
30.716667	1	0.595125
30.733333	1	0.608500
30.750000	1	0.622250
30.766667	1	0.635125
30.783333	1	0.647125
30.800000	1	0.658875
30.816667	1	0.669250
30.833333	1	0.677875
30.850000	1	0.685250
30.866667	1	0.690500
30.883333	1	0.694750
30.900000	1	0.697250
30.916667	1	0.697875
30.933333	1	0.697125
30.950000	1	0.694750
30.966667	1	0.691500
30.983333	1	0.685500
31.000000	1	0.677750
31.016667	1	0.668875
31.033333	1	0.658250
31.050000	1	0.645375
31.066667	1	0.631875
31.083333	1	0.617000
31.100000	1	0.601625
31.116667	1	0.584875
31.133333	1	0.567625
31.150000	1	0.550375
31.166667	1	0.532250
31.183333	1	0.513250
31.200000	1	0.494875
31.216667	1	0.476875
31.233333	1	0.458625
31.250000	1	0.440875
31.266667	1	0.423375
31.283333	1	0.406250
31.300000	1	0.390250
31.316667	1	0.374125
31.333333	1	0.358625
31.350000	1	0.344625
31.366667	1	0.331250
31.383333	1	0.318250
31.400000	1	0.306125
31.416667	1	0.294875
31.433333	1	0.284875
31.450000	1	0.275625
31.466667	1	0.266750
31.483333	1	0.259375
31.500000	1	0.251875
31.516667	1	0.245125
31.533333	1	0.239500
31.550000	1	0.234250
31.566667	1	0.229875
31.583333	1	0.226000
31.600000	1	0.223000
31.616667	1	0.219875
31.633333	1	0.218000
31.650000	1	0.215625
31.666667	1	0.214625
31.683333	1	0.214250
31.700000	1	0.213500
31.716667	1	0.213750
31.733333	1	0.214375
31.750000	1	0.214750
31.766667	1	0.216625
31.783333	1	0.218750
31.800000	1	0.221000
31.816667	1	0.223625
31.833333	1	0.226000
31.850000	1	0.228375
31.866667	1	0.231250
31.883333	1	0.235000
31.900000	1	0.237500
31.916667	1	0.240625
31.933333	1	0.243500
31.950000	1	0.246625
31.966667	1	0.250000
31.983333	1	0.253000
32.000000	1	0.255625
32.016667	1	0.258875
32.033333	1	0.261125
32.050000	1	0.263000
32.066667	1	0.264625
32.083333	1	0.265875
32.100000	1	0.266375
32.116667	1	0.266250
32.133333	1	0.266250
32.150000	1	0.265375
32.166667	1	0.264500
32.183333	1	0.263125
32.200000	1	0.261250
32.216667	1	0.258875
32.233333	1	0.255250
32.250000	1	0.250625
32.266667	1	0.246250
32.283333	1	0.240875
32.300000	1	0.236000
32.316667	1	0.229250
32.333333	1	0.223125
32.350000	1	0.216375
32.366667	1	0.210000
32.383333	1	0.202875
32.400000	1	0.195625
32.416667	1	0.189500
32.433333	1	0.182375
32.450000	1	0.174875
32.466667	1	0.167500
32.483333	1	0.160125
32.500000	1	0.153625
32.516667	1	0.147000
32.533333	1	0.140250
32.550000	1	0.133500
32.566667	1	0.127625
32.583333	1	0.121750
32.600000	1	0.116125
32.616667	1	0.110625
32.633333	1	0.104750
32.650000	1	0.099625
32.666667	1	0.095500
32.683333	1	0.091250
32.700000	1	0.087375
32.716667	1	0.083250
32.733333	1	0.080000
32.750000	1	0.076500
32.766667	1	0.073500
32.783333	1	0.071375
32.800000	1	0.068875
32.816667	1	0.065875
32.833333	1	0.063500
32.850000	1	0.061250
32.866667	1	0.059000
32.883333	1	0.056750
32.900000	1	0.054125
32.916667	1	0.051125
32.933333	1	0.049250
32.950000	1	0.047875
32.966667	1	0.046125
32.983333	1	0.044000
33.000000	1	0.042375
33.016667	1	0.040125
33.033333	1	0.038250
33.050000	1	0.036000
33.066667	1	0.033875
33.083333	1	0.032250
33.100000	1	0.030375
33.116667	1	0.028125
33.133333	1	0.026750
33.150000	1	0.025125
33.166667	1	0.023000
33.183333	1	0.021500
33.200000	1	0.019750
33.216667	1	0.018125
33.233333	1	0.017125
33.250000	1	0.015750
33.266667	1	0.014375
33.283333	1	0.013125
33.300000	1	0.011750
33.316667	1	0.011625
33.333333	1	0.010500
33.350000	1	0.009375
33.366667	1	0.008750
33.383333	1	0.009000
33.400000	1	0.008875
33.416667	1	0.008375
33.433333	1	0.008125
33.450000	1	0.007875
33.466667	1	0.008125
33.483333	1	0.008875
33.500000	1	0.009625
33.516667	1	0.010500
33.533333	1	0.011250
33.550000	1	0.012500
33.566667	1	0.013875
33.583333	1	0.015125
33.600000	1	0.017250
33.616667	1	0.019625
33.633333	1	0.021750
33.650000	1	0.024625
33.666667	1	0.027500
33.683333	1	0.030625
33.700000	1	0.034500
33.716667	1	0.038500
33.733333	1	0.043250
33.750000	1	0.048000
33.766667	1	0.053250
33.783333	1	0.060000
33.800000	1	0.066500
33.816667	1	0.073000
33.833333	1	0.080875
33.850000	1	0.088625
33.866667	1	0.097625
33.883333	1	0.107750
33.900000	1	0.117250
33.916667	1	0.128500
33.933333	1	0.140375
33.950000	1	0.152125
33.966667	1	0.165250
33.983333	1	0.178875
34.000000	1	0.193250
34.016667	1	0.208625
34.033333	1	0.224375
34.050000	1	0.241000
34.066667	1	0.257875
34.083333	1	0.275375
34.100000	1	0.293375
34.116667	1	0.312500
34.133333	1	0.332500
34.150000	1	0.352625
34.166667	1	0.372750
34.183333	1	0.392500
34.200000	1	0.413000
34.216667	1	0.433500
34.233333	1	0.453750
34.250000	1	0.473625
34.266667	1	0.493500
34.283333	1	0.512875
34.300000	1	0.531250
34.316667	1	0.549250
34.333333	1	0.565875
34.350000	1	0.581375
34.366667	1	0.596625
34.383333	1	0.610375
34.400000	1	0.621875
34.416667	1	0.632375
34.433333	1	0.640250
34.450000	1	0.647375
34.466667	1	0.652500
34.483333	1	0.656500
34.500000	1	0.658750
34.516667	1	0.658875
34.533333	1	0.657500
34.550000	1	0.653625
34.566667	1	0.649250
34.583333	1	0.642000
34.600000	1	0.633500
34.616667	1	0.623000
34.633333	1	0.611625
34.650000	1	0.599125
34.666667	1	0.585000
34.683333	1	0.570125
34.700000	1	0.554125
34.716667	1	0.538000
34.733333	1	0.521125
34.750000	1	0.503500
34.766667	1	0.485500
34.783333	1	0.467375
34.800000	1	0.449500
34.816667	1	0.431750
34.833333	1	0.413875
34.850000	1	0.396750
34.866667	1	0.379250
34.883333	1	0.362750
34.900000	1	0.346750
34.916667	1	0.331750
34.933333	1	0.316750
34.950000	1	0.303000
34.966667	1	0.290250
34.983333	1	0.278125
35.000000	1	0.266125
35.016667	1	0.255250
35.033333	1	0.244125
35.050000	1	0.234000
35.066667	1	0.225250
35.083333	1	0.217375
35.100000	1	0.210125
35.116667	1	0.203625
35.133333	1	0.198000
35.150000	1	0.192875
35.166667	1	0.187625
35.183333	1	0.183625
35.200000	1	0.179250
35.216667	1	0.175375
35.233333	1	0.172500
35.250000	1	0.169375
35.266667	1	0.167250
35.283333	1	0.164750
35.300000	1	0.163250
35.316667	1	0.162625
35.333333	1	0.161625
35.350000	1	0.160750
35.366667	1	0.160000
35.383333	1	0.159375
35.400000	1	0.159000
35.416667	1	0.158000
35.433333	1	0.157500
35.450000	1	0.156875
35.466667	1	0.155875
35.483333	1	0.154875
35.500000	1	0.154500
35.516667	1	0.153875
35.533333	1	0.153750
35.550000	1	0.152875
35.566667	1	0.151625
35.583333	1	0.151625
35.600000	1	0.151000
35.616667	1	0.150625
35.633333	1	0.149875
35.650000	1	0.149000
35.666667	1	0.147750
35.683333	1	0.146625
35.700000	1	0.145750
35.716667	1	0.145125
35.733333	1	0.144250
35.750000	1	0.143125
35.766667	1	0.141875
35.783333	1	0.140625
35.800000	1	0.139500
35.816667	1	0.138875
35.833333	1	0.138125
35.850000	1	0.137125
35.866667	1	0.136250
35.883333	1	0.136000
35.900000	1	0.135250
35.916667	1	0.134375
35.933333	1	0.133875
35.950000	1	0.133375
35.966667	1	0.131875
35.983333	1	0.131500
36.000000	1	0.131125
36.016667	1	0.130375
36.033333	1	0.129750
36.050000	1	0.129250
36.066667	1	0.129625
36.083333	1	0.129375
36.100000	1	0.129250
36.116667	1	0.128500
36.133333	1	0.128500
36.150000	1	0.127625
36.166667	1	0.127375
36.183333	1	0.127000
36.200000	1	0.127000
36.216667	1	0.126250
36.233333	1	0.125625
36.250000	1	0.124875
36.266667	1	0.124500
36.283333	1	0.124125
36.300000	1	0.123250
36.316667	1	0.123125
36.333333	1	0.121875
36.350000	1	0.121250
36.366667	1	0.119875
36.383333	1	0.119125
36.400000	1	0.117875
36.416667	1	0.117125
36.433333	1	0.116250
36.450000	1	0.115625
36.466667	1	0.114500
36.483333	1	0.113375
36.500000	1	0.112000
36.516667	1	0.110250
36.533333	1	0.109000
36.550000	1	0.108000
36.566667	1	0.106750
36.583333	1	0.105375
36.600000	1	0.104250
36.616667	1	0.101750
36.633333	1	0.099875
36.650000	1	0.097625
36.666667	1	0.096375
36.683333	1	0.094000
36.700000	1	0.092250
36.716667	1	0.089750
36.733333	1	0.088000
36.750000	1	0.085750
36.766667	1	0.083000
36.783333	1	0.080750
36.800000	1	0.077875
36.816667	1	0.075250
36.833333	1	0.072125
36.850000	1	0.069125
36.866667	1	0.066125
36.883333	1	0.063375
36.900000	1	0.060375
36.916667	1	0.057125
36.933333	1	0.054250
36.950000	1	0.051000
36.966667	1	0.047875
36.983333	1	0.044375
37.000000	1	0.041125
37.016667	1	0.037625
37.033333	1	0.034375
37.050000	1	0.031250
37.066667	1	0.027875
37.083333	1	0.024875
37.100000	1	0.021625
37.116667	1	0.018375
37.133333	1	0.015375
37.150000	1	0.012000
37.166667	1	0.009125
37.183333	1	0.006000
37.200000	1	0.003750
37.216667	1	0.001125
37.233333	1	-0.000875
37.250000	1	-0.003625
37.266667	1	-0.006375
37.283333	1	-0.008250
37.300000	1	-0.010125
37.316667	1	-0.012125
37.333333	1	-0.013625
37.350000	1	-0.015000
37.366667	1	-0.016375
37.383333	1	-0.018250
37.400000	1	-0.019375
37.416667	1	-0.020375
37.433333	1	-0.021125
37.450000	1	-0.021625
37.466667	1	-0.022750
37.483333	1	-0.023250
37.500000	1	-0.023625
37.516667	1	-0.023375
37.533333	1	-0.023500
37.550000	1	-0.024250
37.566667	1	-0.024375
37.583333	1	-0.023625
37.600000	1	-0.023625
37.616667	1	-0.022875
37.633333	1	-0.022250
37.650000	1	-0.021375
37.666667	1	-0.020625
37.683333	1	-0.019875
37.700000	1	-0.018625
37.716667	1	-0.016500
37.733333	1	-0.016125
37.750000	1	-0.015250
37.766667	1	-0.013750
37.783333	1	-0.012375
37.800000	1	-0.011375
37.816667	1	-0.009625
37.833333	1	-0.008500
37.850000	1	-0.007000
37.866667	1	-0.006250
37.883333	1	-0.004875
37.900000	1	-0.003625
37.916667	1	-0.002750
37.933333	1	-0.001250
37.950000	1	0.000250
37.966667	1	0.002125
37.983333	1	0.003125
38.000000	1	0.005125
38.016667	1	0.006625
38.033333	1	0.008500
38.050000	1	0.009750
38.066667	1	0.010625
38.083333	1	0.012000
38.100000	1	0.013750
38.116667	1	0.015125
38.133333	1	0.016750
38.150000	1	0.018250
38.166667	1	0.019625
38.183333	1	0.020875
38.200000	1	0.022875
38.216667	1	0.024125
38.233333	1	0.025125
38.250000	1	0.026000
38.266667	1	0.026625
38.283333	1	0.027625
38.300000	1	0.028625
38.316667	1	0.029375
38.333333	1	0.029750
38.350000	1	0.030875
38.366667	1	0.031375
38.383333	1	0.031625
38.400000	1	0.032750
38.416667	1	0.033125
38.433333	1	0.032500
38.450000	1	0.032625
38.466667	1	0.032500
38.483333	1	0.032625
38.500000	1	0.032250
38.516667	1	0.032125
38.533333	1	0.031875
38.550000	1	0.031250
38.566667	1	0.030875
38.583333	1	0.030375
38.600000	1	0.028750
38.616667	1	0.027750
38.633333	1	0.026625
38.650000	1	0.025375
38.666667	1	0.024125
38.683333	1	0.023250
38.700000	1	0.022000
38.716667	1	0.020250
38.733333	1	0.019125
38.750000	1	0.017625
38.766667	1	0.016625
38.783333	1	0.014875
38.800000	1	0.013250
38.816667	1	0.012000
38.833333	1	0.010750
38.850000	1	0.009875
38.866667	1	0.008250
38.883333	1	0.006500
38.900000	1	0.005125
38.916667	1	0.003625
38.933333	1	0.002375
38.950000	1	0.000750
38.966667	1	-0.000750
38.983333	1	-0.002250
39.000000	1	-0.003500
39.016667	1	-0.004250
39.033333	1	-0.005125
39.050000	1	-0.006500
39.066667	1	-0.007375
39.083333	1	-0.008250
39.100000	1	-0.008750
39.116667	1	-0.009625
39.133333	1	-0.010000
39.150000	1	-0.010500
39.166667	1	-0.011500
39.183333	1	-0.011500
39.200000	1	-0.011375
39.216667	1	-0.012125
39.233333	1	-0.012375
39.250000	1	-0.012000
39.266667	1	-0.012750
39.283333	1	-0.012875
39.300000	1	-0.012625
39.316667	1	-0.013125
39.333333	1	-0.013500
39.350000	1	-0.014000
39.366667	1	-0.013750
39.383333	1	-0.013375
39.400000	1	-0.012500
39.416667	1	-0.013000
39.433333	1	-0.012750
39.450000	1	-0.012750
39.466667	1	-0.012750
39.483333	1	-0.012500
39.500000	1	-0.012250
39.516667	1	-0.012125
39.533333	1	-0.011625
39.550000	1	-0.011750
39.566667	1	-0.011875
39.583333	1	-0.011500
39.600000	1	-0.011000
39.616667	1	-0.010500
39.633333	1	-0.009875
39.650000	1	-0.008750
39.666667	1	-0.007625
39.683333	1	-0.007125
39.700000	1	-0.006250
39.716667	1	-0.005375
39.733333	1	-0.004625
39.750000	1	-0.002875
39.766667	1	-0.001875
39.783333	1	-0.000625
39.800000	1	0.000500
39.816667	1	0.001750
39.833333	1	0.003625
39.850000	1	0.005625
39.866667	1	0.007625
39.883333	1	0.009500
39.900000	1	0.010625
39.916667	1	0.012125
39.933333	1	0.013875
39.950000	1	0.015750
39.966667	1	0.017625
39.983333	1	0.019125
40.000000	1	0.021000
