[Header]
Application Name,LabSolutions
Version,5.97 SP1
Data File Name,C:\Users\cremerlab\Desktop\Richa\Aug 2nd 2023 lac suc cal in water\lac suc cal water 2.5mM_822023_001_004.lcd
Output Date,8/2/2023
Output Time,3:06:31 PM

[File Information]
Type,Data File
Generated,8/2/2023 2:36:09 PM
Generated by,System Administrator
Modified,8/2/2023 3:06:31 PM
Modified by,System Administrator

[Sample Information]
Operator Name,System Administrator
Acquired,8/2/2023 2:36:30 PM
Sample Type,1:Standard
Level,1
Sample Name,230802_lactate_5mM001
Sample ID,001
ISTD Amount1,1
ISTD Amount2,1
ISTD Amount3,1
ISTD Amount4,1
ISTD Amount5,1
ISTD Amount6,1
ISTD Amount7,1
ISTD Amount8,1
ISTD Amount9,1
ISTD Amount10,1
ISTD Amount11,1
ISTD Amount12,1
ISTD Amount13,1
ISTD Amount14,1
ISTD Amount15,1
ISTD Amount16,1
ISTD Amount17,1
ISTD Amount18,1
ISTD Amount19,1
ISTD Amount20,1
ISTD Amount21,1
ISTD Amount22,1
ISTD Amount23,1
ISTD Amount24,1
ISTD Amount25,1
ISTD Amount26,1
ISTD Amount27,1
ISTD Amount28,1
ISTD Amount29,1
ISTD Amount30,1
ISTD Amount31,1
ISTD Amount32,1
Sample Amount,1
Dilution Factor,1
Vial#,3
Injection Volume,20

[Original Files]
Data File,C:\Users\cremerlab\Desktop\Richa\Aug 2nd 2023 lac suc cal in water\lac suc cal water 2.5mM_822023_001_004.lcd
Method File,C:\Users\cremerlab\Desktop\Richa\organic_acids_excretion.lcm
Batch File,C:\Users\cremerlab\Desktop\Richa\Aug 2nd 2023 lac suc cal in water\lac suc cal water 2.5mM.lcb
Report Format File,c:\LabSolutions\System\DEFAULT.lsr

[File Description]


[Configuration]
Instrument Name,HPLC-PC-Instrument1
Instrument #,1
Line #,1
# of Detectors,2
Detector ID,Detector A,Detector B
Detector Name,Detector A,Detector B
# of Channels,1,1

[LC Chromatogram(Detector A-Ch1)]
Interval(msec),500
# of Points,3601
Start Time(min),0.000
End Time(min),30.000
Intensity Units,mV
Intensity Multiplier,0.001
Wavelength(nm),254nm
R.Time (min),Intensity
0.00000,0
0.00833,0
0.01667,0
0.02500,0
0.03333,1
0.04167,1
0.05000,1
0.05833,-0
0.06667,-1
0.07500,-1
0.08333,-2
0.09167,-2
0.10000,-1
0.10833,-1
0.11667,-1
0.12500,-1
0.13333,0
0.14167,1
0.15000,1
0.15833,1
0.16667,0
0.17500,-0
0.18333,-1
0.19167,-2
0.20000,-2
0.20833,-1
0.21667,-1
0.22500,0
0.23333,0
0.24167,-0
0.25000,-1
0.25833,-2
0.26667,-3
0.27500,-3
0.28333,-3
0.29167,-4
0.30000,-4
0.30833,-4
0.31667,-4
0.32500,-4
0.33333,-4
0.34167,-4
0.35000,-4
0.35833,-4
0.36667,-3
0.37500,-3
0.38333,-4
0.39167,-4
0.40000,-3
0.40833,-3
0.41667,-3
0.42500,-3
0.43333,-2
0.44167,-2
0.45000,-3
0.45833,-3
0.46667,-3
0.47500,-3
0.48333,-3
0.49167,-3
0.50000,-2
0.50833,-2
0.51667,-2
0.52500,-2
0.53333,-2
0.54167,-3
0.55000,-4
0.55833,-5
0.56667,-5
0.57500,-5
0.58333,-4
0.59167,-3
0.60000,-3
0.60833,-2
0.61667,-2
0.62500,-3
0.63333,-3
0.64167,-4
0.65000,-5
0.65833,-5
0.66667,-6
0.67500,-6
0.68333,-5
0.69167,-4
0.70000,-4
0.70833,-5
0.71667,-5
0.72500,-6
0.73333,-6
0.74167,-6
0.75000,-6
0.75833,-6
0.76667,-6
0.77500,-5
0.78333,-5
0.79167,-4
0.80000,-3
0.80833,-4
0.81667,-5
0.82500,-5
0.83333,-5
0.84167,-4
0.85000,-4
0.85833,-4
0.86667,-4
0.87500,-4
0.88333,-5
0.89167,-6
0.90000,-7
0.90833,-7
0.91667,-6
0.92500,-6
0.93333,-6
0.94167,-6
0.95000,-6
0.95833,-5
0.96667,-5
0.97500,-6
0.98333,-6
0.99167,-7
1.00000,-7
1.00833,-8
1.01667,-7
1.02500,-6
1.03333,-5
1.04167,-5
1.05000,-5
1.05833,-5
1.06667,-5
1.07500,-5
1.08333,-5
1.09167,-5
1.10000,-5
1.10833,-5
1.11667,-6
1.12500,-6
1.13333,-5
1.14167,-5
1.15000,-5
1.15833,-6
1.16667,-6
1.17500,-7
1.18333,-7
1.19167,-7
1.20000,-7
1.20833,-6
1.21667,-6
1.22500,-7
1.23333,-7
1.24167,-7
1.25000,-7
1.25833,-7
1.26667,-7
1.27500,-7
1.28333,-7
1.29167,-7
1.30000,-6
1.30833,-5
1.31667,-4
1.32500,-5
1.33333,-5
1.34167,-6
1.35000,-7
1.35833,-7
1.36667,-7
1.37500,-6
1.38333,-7
1.39167,-6
1.40000,-6
1.40833,-5
1.41667,-5
1.42500,-5
1.43333,-4
1.44167,-4
1.45000,-4
1.45833,-3
1.46667,-3
1.47500,-4
1.48333,-4
1.49167,-5
1.50000,-6
1.50833,-6
1.51667,-6
1.52500,-6
1.53333,-6
1.54167,-6
1.55000,-6
1.55833,-5
1.56667,-5
1.57500,-4
1.58333,-4
1.59167,-4
1.60000,-5
1.60833,-5
1.61667,-5
1.62500,-5
1.63333,-4
1.64167,-4
1.65000,-5
1.65833,-5
1.66667,-5
1.67500,-5
1.68333,-6
1.69167,-6
1.70000,-5
1.70833,-5
1.71667,-5
1.72500,-6
1.73333,-6
1.74167,-6
1.75000,-6
1.75833,-6
1.76667,-7
1.77500,-7
1.78333,-7
1.79167,-6
1.80000,-7
1.80833,-6
1.81667,-7
1.82500,-7
1.83333,-7
1.84167,-6
1.85000,-6
1.85833,-6
1.86667,-6
1.87500,-6
1.88333,-6
1.89167,-6
1.90000,-7
1.90833,-7
1.91667,-6
1.92500,-6
1.93333,-6
1.94167,-6
1.95000,-6
1.95833,-7
1.96667,-9
1.97500,-9
1.98333,-9
1.99167,-8
2.00000,-8
2.00833,-8
2.01667,-8
2.02500,-7
2.03333,-7
2.04167,-8
2.05000,-7
2.05833,-7
2.06667,-7
2.07500,-7
2.08333,-7
2.09167,-7
2.10000,-7
2.10833,-6
2.11667,-6
2.12500,-5
2.13333,-5
2.14167,-6
2.15000,-6
2.15833,-7
2.16667,-7
2.17500,-6
2.18333,-6
2.19167,-6
2.20000,-6
2.20833,-6
2.21667,-5
2.22500,-5
2.23333,-5
2.24167,-5
2.25000,-5
2.25833,-5
2.26667,-5
2.27500,-5
2.28333,-6
2.29167,-6
2.30000,-5
2.30833,-5
2.31667,-4
2.32500,-4
2.33333,-5
2.34167,-6
2.35000,-7
2.35833,-6
2.36667,-5
2.37500,-6
2.38333,-6
2.39167,-6
2.40000,-6
2.40833,-6
2.41667,-5
2.42500,-5
2.43333,-6
2.44167,-7
2.45000,-6
2.45833,-5
2.46667,-6
2.47500,-5
2.48333,-5
2.49167,-5
2.50000,-5
2.50833,-5
2.51667,-4
2.52500,-5
2.53333,-5
2.54167,-5
2.55000,-5
2.55833,-6
2.56667,-6
2.57500,-5
2.58333,-4
2.59167,-3
2.60000,-2
2.60833,-3
2.61667,-4
2.62500,-4
2.63333,-4
2.64167,-5
2.65000,-5
2.65833,-5
2.66667,-4
2.67500,-4
2.68333,-4
2.69167,-4
2.70000,-4
2.70833,-5
2.71667,-5
2.72500,-6
2.73333,-6
2.74167,-7
2.75000,-6
2.75833,-5
2.76667,-5
2.77500,-5
2.78333,-5
2.79167,-6
2.80000,-6
2.80833,-6
2.81667,-5
2.82500,-4
2.83333,-3
2.84167,-2
2.85000,-2
2.85833,-2
2.86667,-2
2.87500,-3
2.88333,-3
2.89167,-4
2.90000,-4
2.90833,-4
2.91667,-3
2.92500,-3
2.93333,-3
2.94167,-3
2.95000,-3
2.95833,-4
2.96667,-4
2.97500,-4
2.98333,-3
2.99167,-3
3.00000,-4
3.00833,-4
3.01667,-4
3.02500,-4
3.03333,-3
3.04167,-2
3.05000,-1
3.05833,-1
3.06667,-1
3.07500,-1
3.08333,-1
3.09167,-1
3.10000,-1
3.10833,-2
3.11667,-2
3.12500,-2
3.13333,-3
3.14167,-3
3.15000,-3
3.15833,-2
3.16667,-1
3.17500,-2
3.18333,-2
3.19167,-1
3.20000,-2
3.20833,-2
3.21667,-2
3.22500,-3
3.23333,-3
3.24167,-3
3.25000,-4
3.25833,-4
3.26667,-3
3.27500,-2
3.28333,-1
3.29167,-1
3.30000,-1
3.30833,-1
3.31667,-1
3.32500,0
3.33333,0
3.34167,0
3.35000,0
3.35833,-0
3.36667,-0
3.37500,0
3.38333,1
3.39167,1
3.40000,1
3.40833,0
3.41667,1
3.42500,1
3.43333,1
3.44167,2
3.45000,2
3.45833,1
3.46667,1
3.47500,-0
3.48333,-1
3.49167,-0
3.50000,0
3.50833,0
3.51667,0
3.52500,0
3.53333,-0
3.54167,-0
3.55000,0
3.55833,1
3.56667,2
3.57500,3
3.58333,3
3.59167,3
3.60000,2
3.60833,2
3.61667,2
3.62500,2
3.63333,2
3.64167,2
3.65000,2
3.65833,2
3.66667,3
3.67500,2
3.68333,1
3.69167,2
3.70000,2
3.70833,2
3.71667,3
3.72500,2
3.73333,3
3.74167,3
3.75000,3
3.75833,3
3.76667,3
3.77500,2
3.78333,2
3.79167,3
3.80000,3
3.80833,3
3.81667,3
3.82500,3
3.83333,3
3.84167,2
3.85000,2
3.85833,2
3.86667,2
3.87500,2
3.88333,1
3.89167,1
3.90000,1
3.90833,2
3.91667,3
3.92500,3
3.93333,2
3.94167,1
3.95000,0
3.95833,-0
3.96667,0
3.97500,1
3.98333,1
3.99167,1
4.00000,1
4.00833,2
4.01667,3
4.02500,4
4.03333,4
4.04167,3
4.05000,3
4.05833,3
4.06667,3
4.07500,3
4.08333,3
4.09167,3
4.10000,3
4.10833,4
4.11667,4
4.12500,4
4.13333,4
4.14167,3
4.15000,3
4.15833,4
4.16667,4
4.17500,3
4.18333,3
4.19167,2
4.20000,2
4.20833,3
4.21667,3
4.22500,3
4.23333,2
4.24167,2
4.25000,2
4.25833,2
4.26667,3
4.27500,2
4.28333,2
4.29167,2
4.30000,2
4.30833,2
4.31667,2
4.32500,1
4.33333,2
4.34167,2
4.35000,3
4.35833,4
4.36667,4
4.37500,4
4.38333,4
4.39167,3
4.40000,2
4.40833,3
4.41667,4
4.42500,4
4.43333,4
4.44167,3
4.45000,3
4.45833,2
4.46667,3
4.47500,3
4.48333,2
4.49167,1
4.50000,2
4.50833,2
4.51667,1
4.52500,0
4.53333,1
4.54167,2
4.55000,2
4.55833,2
4.56667,2
4.57500,2
4.58333,2
4.59167,2
4.60000,1
4.60833,1
4.61667,1
4.62500,1
4.63333,1
4.64167,1
4.65000,1
4.65833,1
4.66667,1
4.67500,1
4.68333,1
4.69167,0
4.70000,-1
4.70833,-2
4.71667,-1
4.72500,0
4.73333,0
4.74167,0
4.75000,-0
4.75833,-0
4.76667,-0
4.77500,-0
4.78333,-0
4.79167,-0
4.80000,0
4.80833,-0
4.81667,-1
4.82500,-2
4.83333,-2
4.84167,-1
4.85000,-1
4.85833,-2
4.86667,-2
4.87500,-3
4.88333,-4
4.89167,-4
4.90000,-4
4.90833,-4
4.91667,-4
4.92500,-4
4.93333,-4
4.94167,-4
4.95000,-5
4.95833,-5
4.96667,-5
4.97500,-5
4.98333,-5
4.99167,-5
5.00000,-6
5.00833,-7
5.01667,-7
5.02500,-8
5.03333,-8
5.04167,-8
5.05000,-8
5.05833,-8
5.06667,-8
5.07500,-9
5.08333,-9
5.09167,-9
5.10000,-8
5.10833,-8
5.11667,-8
5.12500,-9
5.13333,-9
5.14167,-9
5.15000,-10
5.15833,-10
5.16667,-9
5.17500,-8
5.18333,-8
5.19167,-9
5.20000,-10
5.20833,-12
5.21667,-13
5.22500,-13
5.23333,-13
5.24167,-14
5.25000,-14
5.25833,-14
5.26667,-13
5.27500,-13
5.28333,-13
5.29167,-13
5.30000,-14
5.30833,-15
5.31667,-15
5.32500,-16
5.33333,-17
5.34167,-18
5.35000,-18
5.35833,-17
5.36667,-17
5.37500,-17
5.38333,-17
5.39167,-17
5.40000,-17
5.40833,-18
5.41667,-19
5.42500,-19
5.43333,-20
5.44167,-20
5.45000,-21
5.45833,-21
5.46667,-22
5.47500,-22
5.48333,-23
5.49167,-24
5.50000,-24
5.50833,-24
5.51667,-25
5.52500,-25
5.53333,-25
5.54167,-25
5.55000,-25
5.55833,-25
5.56667,-26
5.57500,-26
5.58333,-25
5.59167,-26
5.60000,-27
5.60833,-28
5.61667,-29
5.62500,-29
5.63333,-30
5.64167,-31
5.65000,-32
5.65833,-32
5.66667,-31
5.67500,-31
5.68333,-31
5.69167,-32
5.70000,-32
5.70833,-32
5.71667,-32
5.72500,-33
5.73333,-34
5.74167,-34
5.75000,-34
5.75833,-36
5.76667,-36
5.77500,-37
5.78333,-38
5.79167,-38
5.80000,-37
5.80833,-37
5.81667,-37
5.82500,-37
5.83333,-38
5.84167,-39
5.85000,-39
5.85833,-39
5.86667,-40
5.87500,-41
5.88333,-42
5.89167,-44
5.90000,-44
5.90833,-44
5.91667,-44
5.92500,-44
5.93333,-45
5.94167,-45
5.95000,-46
5.95833,-47
5.96667,-47
5.97500,-47
5.98333,-48
5.99167,-48
6.00000,-49
6.00833,-50
6.01667,-51
6.02500,-52
6.03333,-52
6.04167,-52
6.05000,-52
6.05833,-52
6.06667,-52
6.07500,-53
6.08333,-54
6.09167,-54
6.10000,-54
6.10833,-55
6.11667,-57
6.12500,-57
6.13333,-57
6.14167,-57
6.15000,-57
6.15833,-57
6.16667,-58
6.17500,-60
6.18333,-61
6.19167,-61
6.20000,-61
6.20833,-62
6.21667,-62
6.22500,-63
6.23333,-63
6.24167,-64
6.25000,-64
6.25833,-64
6.26667,-64
6.27500,-65
6.28333,-65
6.29167,-66
6.30000,-66
6.30833,-67
6.31667,-68
6.32500,-69
6.33333,-69
6.34167,-70
6.35000,-72
6.35833,-73
6.36667,-74
6.37500,-75
6.38333,-75
6.39167,-75
6.40000,-74
6.40833,-73
6.41667,-73
6.42500,-74
6.43333,-75
6.44167,-76
6.45000,-78
6.45833,-79
6.46667,-81
6.47500,-81
6.48333,-80
6.49167,-80
6.50000,-81
6.50833,-81
6.51667,-80
6.52500,-81
6.53333,-83
6.54167,-84
6.55000,-85
6.55833,-87
6.56667,-87
6.57500,-87
6.58333,-88
6.59167,-88
6.60000,-88
6.60833,-89
6.61667,-90
6.62500,-90
6.63333,-91
6.64167,-91
6.65000,-92
6.65833,-93
6.66667,-94
6.67500,-94
6.68333,-95
6.69167,-96
6.70000,-96
6.70833,-96
6.71667,-95
6.72500,-96
6.73333,-97
6.74167,-98
6.75000,-99
6.75833,-100
6.76667,-102
6.77500,-102
6.78333,-102
6.79167,-102
6.80000,-104
6.80833,-105
6.81667,-106
6.82500,-106
6.83333,-105
6.84167,-105
6.85000,-106
6.85833,-106
6.86667,-107
6.87500,-107
6.88333,-108
6.89167,-109
6.90000,-110
6.90833,-111
6.91667,-112
6.92500,-114
6.93333,-114
6.94167,-115
6.95000,-116
6.95833,-116
6.96667,-116
6.97500,-116
6.98333,-116
6.99167,-117
7.00000,-117
7.00833,-117
7.01667,-118
7.02500,-119
7.03333,-120
7.04167,-121
7.05000,-122
7.05833,-122
7.06667,-123
7.07500,-124
7.08333,-125
7.09167,-125
7.10000,-126
7.10833,-126
7.11667,-127
7.12500,-127
7.13333,-128
7.14167,-128
7.15000,-128
7.15833,-129
7.16667,-129
7.17500,-130
7.18333,-132
7.19167,-133
7.20000,-133
7.20833,-134
7.21667,-134
7.22500,-134
7.23333,-134
7.24167,-134
7.25000,-136
7.25833,-137
7.26667,-138
7.27500,-140
7.28333,-140
7.29167,-141
7.30000,-142
7.30833,-143
7.31667,-144
7.32500,-144
7.33333,-144
7.34167,-145
7.35000,-145
7.35833,-145
7.36667,-146
7.37500,-146
7.38333,-147
7.39167,-147
7.40000,-147
7.40833,-149
7.41667,-150
7.42500,-151
7.43333,-151
7.44167,-151
7.45000,-152
7.45833,-153
7.46667,-153
7.47500,-153
7.48333,-153
7.49167,-154
7.50000,-155
7.50833,-156
7.51667,-156
7.52500,-157
7.53333,-157
7.54167,-157
7.55000,-158
7.55833,-158
7.56667,-159
7.57500,-160
7.58333,-161
7.59167,-161
7.60000,-161
7.60833,-162
7.61667,-163
7.62500,-165
7.63333,-166
7.64167,-166
7.65000,-167
7.65833,-168
7.66667,-169
7.67500,-170
7.68333,-170
7.69167,-170
7.70000,-171
7.70833,-172
7.71667,-173
7.72500,-173
7.73333,-173
7.74167,-174
7.75000,-174
7.75833,-175
7.76667,-176
7.77500,-175
7.78333,-175
7.79167,-176
7.80000,-177
7.80833,-178
7.81667,-180
7.82500,-180
7.83333,-181
7.84167,-182
7.85000,-182
7.85833,-183
7.86667,-183
7.87500,-185
7.88333,-186
7.89167,-185
7.90000,-185
7.90833,-185
7.91667,-185
7.92500,-186
7.93333,-186
7.94167,-187
7.95000,-188
7.95833,-190
7.96667,-191
7.97500,-191
7.98333,-192
7.99167,-193
8.00000,-194
8.00833,-195
8.01667,-195
8.02500,-195
8.03333,-195
8.04167,-195
8.05000,-195
8.05833,-196
8.06667,-197
8.07500,-199
8.08333,-200
8.09167,-200
8.10000,-200
8.10833,-200
8.11667,-201
8.12500,-202
8.13333,-202
8.14167,-202
8.15000,-202
8.15833,-203
8.16667,-203
8.17500,-204
8.18333,-204
8.19167,-205
8.20000,-205
8.20833,-206
8.21667,-206
8.22500,-207
8.23333,-208
8.24167,-208
8.25000,-208
8.25833,-209
8.26667,-210
8.27500,-210
8.28333,-211
8.29167,-213
8.30000,-214
8.30833,-214
8.31667,-214
8.32500,-214
8.33333,-215
8.34167,-216
8.35000,-216
8.35833,-216
8.36667,-217
8.37500,-218
8.38333,-219
8.39167,-220
8.40000,-219
8.40833,-219
8.41667,-218
8.42500,-218
8.43333,-219
8.44167,-220
8.45000,-220
8.45833,-220
8.46667,-222
8.47500,-223
8.48333,-224
8.49167,-225
8.50000,-225
8.50833,-225
8.51667,-225
8.52500,-226
8.53333,-226
8.54167,-227
8.55000,-227
8.55833,-227
8.56667,-227
8.57500,-228
8.58333,-228
8.59167,-228
8.60000,-229
8.60833,-230
8.61667,-230
8.62500,-231
8.63333,-232
8.64167,-232
8.65000,-232
8.65833,-233
8.66667,-234
8.67500,-234
8.68333,-234
8.69167,-234
8.70000,-235
8.70833,-236
8.71667,-235
8.72500,-235
8.73333,-235
8.74167,-236
8.75000,-237
8.75833,-238
8.76667,-239
8.77500,-240
8.78333,-240
8.79167,-240
8.80000,-240
8.80833,-241
8.81667,-242
8.82500,-243
8.83333,-243
8.84167,-243
8.85000,-244
8.85833,-244
8.86667,-244
8.87500,-244
8.88333,-244
8.89167,-244
8.90000,-244
8.90833,-244
8.91667,-244
8.92500,-244
8.93333,-245
8.94167,-245
8.95000,-245
8.95833,-246
8.96667,-247
8.97500,-248
8.98333,-247
8.99167,-247
9.00000,-247
9.00833,-248
9.01667,-248
9.02500,-248
9.03333,-249
9.04167,-249
9.05000,-251
9.05833,-252
9.06667,-253
9.07500,-253
9.08333,-253
9.09167,-253
9.10000,-253
9.10833,-253
9.11667,-255
9.12500,-255
9.13333,-256
9.14167,-256
9.15000,-256
9.15833,-256
9.16667,-256
9.17500,-257
9.18333,-258
9.19167,-257
9.20000,-257
9.20833,-257
9.21667,-257
9.22500,-259
9.23333,-260
9.24167,-260
9.25000,-261
9.25833,-261
9.26667,-261
9.27500,-261
9.28333,-261
9.29167,-261
9.30000,-261
9.30833,-262
9.31667,-262
9.32500,-262
9.33333,-262
9.34167,-263
9.35000,-263
9.35833,-264
9.36667,-264
9.37500,-264
9.38333,-265
9.39167,-265
9.40000,-265
9.40833,-264
9.41667,-264
9.42500,-264
9.43333,-264
9.44167,-265
9.45000,-264
9.45833,-265
9.46667,-266
9.47500,-267
9.48333,-267
9.49167,-267
9.50000,-268
9.50833,-268
9.51667,-268
9.52500,-269
9.53333,-269
9.54167,-268
9.55000,-268
9.55833,-269
9.56667,-269
9.57500,-269
9.58333,-269
9.59167,-269
9.60000,-270
9.60833,-271
9.61667,-271
9.62500,-271
9.63333,-270
9.64167,-270
9.65000,-271
9.65833,-272
9.66667,-273
9.67500,-274
9.68333,-275
9.69167,-275
9.70000,-275
9.70833,-275
9.71667,-275
9.72500,-275
9.73333,-275
9.74167,-275
9.75000,-274
9.75833,-275
9.76667,-275
9.77500,-276
9.78333,-276
9.79167,-276
9.80000,-276
9.80833,-277
9.81667,-277
9.82500,-277
9.83333,-276
9.84167,-276
9.85000,-276
9.85833,-277
9.86667,-278
9.87500,-278
9.88333,-278
9.89167,-278
9.90000,-278
9.90833,-279
9.91667,-279
9.92500,-279
9.93333,-280
9.94167,-280
9.95000,-280
9.95833,-280
9.96667,-279
9.97500,-280
9.98333,-280
9.99167,-280
10.00000,-280
10.00833,-279
10.01667,-279
10.02500,-280
10.03333,-280
10.04167,-281
10.05000,-280
10.05833,-278
10.06667,-277
10.07500,-275
10.08333,-274
10.09167,-273
10.10000,-272
10.10833,-271
10.11667,-270
10.12500,-269
10.13333,-267
10.14167,-264
10.15000,-263
10.15833,-262
10.16667,-261
10.17500,-261
10.18333,-261
10.19167,-260
10.20000,-260
10.20833,-261
10.21667,-262
10.22500,-263
10.23333,-264
10.24167,-266
10.25000,-270
10.25833,-273
10.26667,-277
10.27500,-281
10.28333,-285
10.29167,-289
10.30000,-294
10.30833,-299
10.31667,-304
10.32500,-309
10.33333,-313
10.34167,-317
10.35000,-322
10.35833,-327
10.36667,-332
10.37500,-337
10.38333,-341
10.39167,-345
10.40000,-349
10.40833,-351
10.41667,-354
10.42500,-357
10.43333,-360
10.44167,-363
10.45000,-365
10.45833,-367
10.46667,-369
10.47500,-370
10.48333,-371
10.49167,-371
10.50000,-372
10.50833,-372
10.51667,-372
10.52500,-371
10.53333,-370
10.54167,-369
10.55000,-367
10.55833,-365
10.56667,-363
10.57500,-361
10.58333,-358
10.59167,-355
10.60000,-352
10.60833,-349
10.61667,-346
10.62500,-342
10.63333,-339
10.64167,-335
10.65000,-331
10.65833,-328
10.66667,-325
10.67500,-321
10.68333,-319
10.69167,-316
10.70000,-313
10.70833,-310
10.71667,-307
10.72500,-304
10.73333,-301
10.74167,-299
10.75000,-297
10.75833,-295
10.76667,-292
10.77500,-290
10.78333,-288
10.79167,-287
10.80000,-286
10.80833,-285
10.81667,-284
10.82500,-282
10.83333,-282
10.84167,-281
10.85000,-279
10.85833,-278
10.86667,-278
10.87500,-277
10.88333,-276
10.89167,-275
10.90000,-274
10.90833,-273
10.91667,-273
10.92500,-272
10.93333,-272
10.94167,-272
10.95000,-272
10.95833,-273
10.96667,-273
10.97500,-274
10.98333,-275
10.99167,-274
11.00000,-274
11.00833,-273
11.01667,-274
11.02500,-274
11.03333,-275
11.04167,-276
11.05000,-276
11.05833,-276
11.06667,-276
11.07500,-275
11.08333,-275
11.09167,-276
11.10000,-276
11.10833,-276
11.11667,-277
11.12500,-276
11.13333,-276
11.14167,-277
11.15000,-276
11.15833,-276
11.16667,-276
11.17500,-276
11.18333,-276
11.19167,-276
11.20000,-275
11.20833,-274
11.21667,-274
11.22500,-275
11.23333,-276
11.24167,-277
11.25000,-277
11.25833,-277
11.26667,-277
11.27500,-277
11.28333,-277
11.29167,-278
11.30000,-279
11.30833,-279
11.31667,-279
11.32500,-279
11.33333,-279
11.34167,-279
11.35000,-280
11.35833,-280
11.36667,-280
11.37500,-281
11.38333,-281
11.39167,-280
11.40000,-281
11.40833,-281
11.41667,-282
11.42500,-282
11.43333,-281
11.44167,-281
11.45000,-281
11.45833,-281
11.46667,-280
11.47500,-281
11.48333,-282
11.49167,-282
11.50000,-283
11.50833,-283
11.51667,-283
11.52500,-282
11.53333,-282
11.54167,-282
11.55000,-283
11.55833,-283
11.56667,-284
11.57500,-284
11.58333,-285
11.59167,-285
11.60000,-285
11.60833,-284
11.61667,-284
11.62500,-284
11.63333,-285
11.64167,-285
11.65000,-286
11.65833,-286
11.66667,-286
11.67500,-285
11.68333,-286
11.69167,-286
11.70000,-286
11.70833,-286
11.71667,-286
11.72500,-286
11.73333,-286
11.74167,-286
11.75000,-286
11.75833,-286
11.76667,-286
11.77500,-286
11.78333,-287
11.79167,-288
11.80000,-288
11.80833,-288
11.81667,-289
11.82500,-289
11.83333,-289
11.84167,-288
11.85000,-287
11.85833,-286
11.86667,-287
11.87500,-287
11.88333,-288
11.89167,-289
11.90000,-290
11.90833,-291
11.91667,-291
11.92500,-291
11.93333,-290
11.94167,-290
11.95000,-290
11.95833,-289
11.96667,-288
11.97500,-288
11.98333,-289
11.99167,-289
12.00000,-290
12.00833,-290
12.01667,-289
12.02500,-289
12.03333,-290
12.04167,-291
12.05000,-291
12.05833,-292
12.06667,-292
12.07500,-292
12.08333,-292
12.09167,-292
12.10000,-291
12.10833,-291
12.11667,-292
12.12500,-292
12.13333,-292
12.14167,-292
12.15000,-292
12.15833,-292
12.16667,-292
12.17500,-293
12.18333,-293
12.19167,-294
12.20000,-294
12.20833,-294
12.21667,-295
12.22500,-296
12.23333,-296
12.24167,-295
12.25000,-295
12.25833,-295
12.26667,-296
12.27500,-296
12.28333,-295
12.29167,-295
12.30000,-296
12.30833,-295
12.31667,-295
12.32500,-296
12.33333,-295
12.34167,-296
12.35000,-296
12.35833,-296
12.36667,-297
12.37500,-297
12.38333,-298
12.39167,-298
12.40000,-298
12.40833,-297
12.41667,-297
12.42500,-296
12.43333,-296
12.44167,-296
12.45000,-297
12.45833,-297
12.46667,-298
12.47500,-298
12.48333,-298
12.49167,-299
12.50000,-299
12.50833,-300
12.51667,-300
12.52500,-299
12.53333,-300
12.54167,-300
12.55000,-300
12.55833,-300
12.56667,-300
12.57500,-299
12.58333,-299
12.59167,-299
12.60000,-300
12.60833,-300
12.61667,-300
12.62500,-299
12.63333,-299
12.64167,-300
12.65000,-301
12.65833,-301
12.66667,-301
12.67500,-301
12.68333,-301
12.69167,-301
12.70000,-301
12.70833,-301
12.71667,-301
12.72500,-301
12.73333,-301
12.74167,-302
12.75000,-301
12.75833,-301
12.76667,-301
12.77500,-301
12.78333,-301
12.79167,-302
12.80000,-302
12.80833,-302
12.81667,-302
12.82500,-303
12.83333,-303
12.84167,-304
12.85000,-303
12.85833,-303
12.86667,-304
12.87500,-304
12.88333,-305
12.89167,-304
12.90000,-304
12.90833,-305
12.91667,-305
12.92500,-305
12.93333,-305
12.94167,-305
12.95000,-305
12.95833,-306
12.96667,-306
12.97500,-305
12.98333,-305
12.99167,-305
13.00000,-305
13.00833,-306
13.01667,-306
13.02500,-306
13.03333,-306
13.04167,-306
13.05000,-306
13.05833,-306
13.06667,-306
13.07500,-306
13.08333,-306
13.09167,-307
13.10000,-308
13.10833,-308
13.11667,-309
13.12500,-309
13.13333,-310
13.14167,-309
13.15000,-309
13.15833,-308
13.16667,-307
13.17500,-307
13.18333,-306
13.19167,-306
13.20000,-305
13.20833,-305
13.21667,-306
13.22500,-307
13.23333,-308
13.24167,-308
13.25000,-308
13.25833,-309
13.26667,-310
13.27500,-310
13.28333,-310
13.29167,-310
13.30000,-311
13.30833,-311
13.31667,-311
13.32500,-311
13.33333,-311
13.34167,-312
13.35000,-310
13.35833,-309
13.36667,-309
13.37500,-309
13.38333,-309
13.39167,-309
13.40000,-311
13.40833,-311
13.41667,-310
13.42500,-310
13.43333,-310
13.44167,-309
13.45000,-309
13.45833,-309
13.46667,-309
13.47500,-310
13.48333,-310
13.49167,-310
13.50000,-310
13.50833,-310
13.51667,-312
13.52500,-313
13.53333,-314
13.54167,-314
13.55000,-315
13.55833,-316
13.56667,-316
13.57500,-315
13.58333,-313
13.59167,-313
13.60000,-314
13.60833,-314
13.61667,-313
13.62500,-312
13.63333,-313
13.64167,-314
13.65000,-314
13.65833,-314
13.66667,-315
13.67500,-315
13.68333,-314
13.69167,-314
13.70000,-314
13.70833,-314
13.71667,-314
13.72500,-314
13.73333,-315
13.74167,-315
13.75000,-315
13.75833,-315
13.76667,-315
13.77500,-315
13.78333,-315
13.79167,-315
13.80000,-315
13.80833,-316
13.81667,-317
13.82500,-317
13.83333,-317
13.84167,-317
13.85000,-318
13.85833,-318
13.86667,-319
13.87500,-318
13.88333,-318
13.89167,-318
13.90000,-318
13.90833,-318
13.91667,-318
13.92500,-319
13.93333,-318
13.94167,-317
13.95000,-317
13.95833,-318
13.96667,-318
13.97500,-319
13.98333,-319
13.99167,-319
14.00000,-319
14.00833,-318
14.01667,-319
14.02500,-319
14.03333,-319
14.04167,-319
14.05000,-319
14.05833,-319
14.06667,-320
14.07500,-320
14.08333,-320
14.09167,-319
14.10000,-318
14.10833,-318
14.11667,-318
14.12500,-318
14.13333,-318
14.14167,-318
14.15000,-318
14.15833,-318
14.16667,-318
14.17500,-318
14.18333,-318
14.19167,-319
14.20000,-320
14.20833,-318
14.21667,-316
14.22500,-315
14.23333,-315
14.24167,-315
14.25000,-315
14.25833,-315
14.26667,-315
14.27500,-315
14.28333,-315
14.29167,-316
14.30000,-317
14.30833,-317
14.31667,-317
14.32500,-317
14.33333,-317
14.34167,-316
14.35000,-315
14.35833,-316
14.36667,-315
14.37500,-315
14.38333,-316
14.39167,-316
14.40000,-315
14.40833,-316
14.41667,-315
14.42500,-316
14.43333,-316
14.44167,-316
14.45000,-316
14.45833,-316
14.46667,-317
14.47500,-317
14.48333,-318
14.49167,-317
14.50000,-316
14.50833,-315
14.51667,-314
14.52500,-315
14.53333,-315
14.54167,-315
14.55000,-315
14.55833,-315
14.56667,-315
14.57500,-316
14.58333,-317
14.59167,-317
14.60000,-318
14.60833,-319
14.61667,-318
14.62500,-318
14.63333,-319
14.64167,-319
14.65000,-318
14.65833,-317
14.66667,-317
14.67500,-317
14.68333,-317
14.69167,-317
14.70000,-317
14.70833,-318
14.71667,-318
14.72500,-318
14.73333,-318
14.74167,-318
14.75000,-318
14.75833,-317
14.76667,-318
14.77500,-319
14.78333,-320
14.79167,-320
14.80000,-320
14.80833,-321
14.81667,-321
14.82500,-321
14.83333,-321
14.84167,-322
14.85000,-322
14.85833,-323
14.86667,-323
14.87500,-323
14.88333,-323
14.89167,-323
14.90000,-323
14.90833,-323
14.91667,-323
14.92500,-324
14.93333,-323
14.94167,-323
14.95000,-324
14.95833,-325
14.96667,-325
14.97500,-324
14.98333,-324
14.99167,-324
15.00000,-324
15.00833,-324
15.01667,-325
15.02500,-326
15.03333,-326
15.04167,-326
15.05000,-324
15.05833,-323
15.06667,-324
15.07500,-325
15.08333,-326
15.09167,-325
15.10000,-326
15.10833,-327
15.11667,-327
15.12500,-327
15.13333,-327
15.14167,-326
15.15000,-327
15.15833,-327
15.16667,-327
15.17500,-326
15.18333,-325
15.19167,-325
15.20000,-325
15.20833,-325
15.21667,-325
15.22500,-326
15.23333,-327
15.24167,-328
15.25000,-328
15.25833,-328
15.26667,-327
15.27500,-326
15.28333,-326
15.29167,-328
15.30000,-329
15.30833,-328
15.31667,-327
15.32500,-327
15.33333,-327
15.34167,-327
15.35000,-327
15.35833,-327
15.36667,-327
15.37500,-328
15.38333,-328
15.39167,-328
15.40000,-328
15.40833,-329
15.41667,-329
15.42500,-328
15.43333,-328
15.44167,-329
15.45000,-329
15.45833,-329
15.46667,-328
15.47500,-328
15.48333,-328
15.49167,-328
15.50000,-329
15.50833,-329
15.51667,-330
15.52500,-330
15.53333,-329
15.54167,-330
15.55000,-330
15.55833,-330
15.56667,-330
15.57500,-330
15.58333,-329
15.59167,-329
15.60000,-328
15.60833,-328
15.61667,-329
15.62500,-329
15.63333,-330
15.64167,-331
15.65000,-331
15.65833,-331
15.66667,-330
15.67500,-330
15.68333,-330
15.69167,-330
15.70000,-330
15.70833,-330
15.71667,-330
15.72500,-330
15.73333,-330
15.74167,-330
15.75000,-330
15.75833,-330
15.76667,-330
15.77500,-330
15.78333,-330
15.79167,-330
15.80000,-331
15.80833,-331
15.81667,-331
15.82500,-332
15.83333,-332
15.84167,-333
15.85000,-332
15.85833,-332
15.86667,-332
15.87500,-331
15.88333,-331
15.89167,-331
15.90000,-331
15.90833,-332
15.91667,-333
15.92500,-333
15.93333,-333
15.94167,-333
15.95000,-332
15.95833,-333
15.96667,-332
15.97500,-332
15.98333,-332
15.99167,-332
16.00000,-333
16.00833,-334
16.01667,-333
16.02500,-333
16.03333,-333
16.04167,-332
16.05000,-332
16.05833,-332
16.06667,-331
16.07500,-331
16.08333,-332
16.09167,-332
16.10000,-332
16.10833,-332
16.11667,-332
16.12500,-332
16.13333,-332
16.14167,-332
16.15000,-332
16.15833,-333
16.16667,-333
16.17500,-333
16.18333,-333
16.19167,-333
16.20000,-332
16.20833,-332
16.21667,-333
16.22500,-333
16.23333,-332
16.24167,-333
16.25000,-333
16.25833,-334
16.26667,-334
16.27500,-333
16.28333,-332
16.29167,-332
16.30000,-332
16.30833,-332
16.31667,-333
16.32500,-333
16.33333,-333
16.34167,-334
16.35000,-335
16.35833,-334
16.36667,-334
16.37500,-333
16.38333,-333
16.39167,-333
16.40000,-333
16.40833,-333
16.41667,-333
16.42500,-333
16.43333,-332
16.44167,-332
16.45000,-333
16.45833,-333
16.46667,-334
16.47500,-335
16.48333,-335
16.49167,-334
16.50000,-334
16.50833,-334
16.51667,-334
16.52500,-334
16.53333,-333
16.54167,-333
16.55000,-333
16.55833,-332
16.56667,-332
16.57500,-333
16.58333,-333
16.59167,-333
16.60000,-333
16.60833,-333
16.61667,-334
16.62500,-334
16.63333,-334
16.64167,-334
16.65000,-334
16.65833,-334
16.66667,-334
16.67500,-334
16.68333,-335
16.69167,-335
16.70000,-335
16.70833,-335
16.71667,-336
16.72500,-335
16.73333,-335
16.74167,-335
16.75000,-334
16.75833,-334
16.76667,-334
16.77500,-334
16.78333,-335
16.79167,-335
16.80000,-334
16.80833,-334
16.81667,-334
16.82500,-334
16.83333,-335
16.84167,-335
16.85000,-334
16.85833,-335
16.86667,-335
16.87500,-335
16.88333,-335
16.89167,-334
16.90000,-334
16.90833,-334
16.91667,-333
16.92500,-333
16.93333,-333
16.94167,-333
16.95000,-334
16.95833,-334
16.96667,-334
16.97500,-333
16.98333,-333
16.99167,-333
17.00000,-333
17.00833,-333
17.01667,-333
17.02500,-334
17.03333,-334
17.04167,-334
17.05000,-335
17.05833,-335
17.06667,-334
17.07500,-334
17.08333,-334
17.09167,-334
17.10000,-335
17.10833,-335
17.11667,-335
17.12500,-334
17.13333,-334
17.14167,-333
17.15000,-333
17.15833,-333
17.16667,-333
17.17500,-334
17.18333,-333
17.19167,-333
17.20000,-334
17.20833,-334
17.21667,-334
17.22500,-334
17.23333,-333
17.24167,-333
17.25000,-332
17.25833,-332
17.26667,-332
17.27500,-333
17.28333,-333
17.29167,-333
17.30000,-333
17.30833,-332
17.31667,-333
17.32500,-333
17.33333,-333
17.34167,-333
17.35000,-333
17.35833,-333
17.36667,-334
17.37500,-334
17.38333,-333
17.39167,-333
17.40000,-333
17.40833,-333
17.41667,-334
17.42500,-335
17.43333,-334
17.44167,-333
17.45000,-333
17.45833,-334
17.46667,-335
17.47500,-335
17.48333,-335
17.49167,-335
17.50000,-335
17.50833,-335
17.51667,-335
17.52500,-336
17.53333,-335
17.54167,-335
17.55000,-336
17.55833,-337
17.56667,-337
17.57500,-337
17.58333,-337
17.59167,-337
17.60000,-337
17.60833,-335
17.61667,-335
17.62500,-335
17.63333,-336
17.64167,-336
17.65000,-336
17.65833,-336
17.66667,-336
17.67500,-335
17.68333,-334
17.69167,-334
17.70000,-334
17.70833,-334
17.71667,-335
17.72500,-335
17.73333,-335
17.74167,-335
17.75000,-335
17.75833,-335
17.76667,-334
17.77500,-334
17.78333,-334
17.79167,-334
17.80000,-333
17.80833,-333
17.81667,-334
17.82500,-335
17.83333,-334
17.84167,-333
17.85000,-333
17.85833,-334
17.86667,-334
17.87500,-334
17.88333,-334
17.89167,-333
17.90000,-332
17.90833,-332
17.91667,-331
17.92500,-331
17.93333,-332
17.94167,-332
17.95000,-332
17.95833,-332
17.96667,-331
17.97500,-331
17.98333,-330
17.99167,-330
18.00000,-331
18.00833,-330
18.01667,-330
18.02500,-330
18.03333,-330
18.04167,-329
18.05000,-329
18.05833,-327
18.06667,-327
18.07500,-327
18.08333,-325
18.09167,-324
18.10000,-324
18.10833,-324
18.11667,-324
18.12500,-324
18.13333,-323
18.14167,-323
18.15000,-323
18.15833,-323
18.16667,-323
18.17500,-322
18.18333,-321
18.19167,-320
18.20000,-318
18.20833,-317
18.21667,-318
18.22500,-318
18.23333,-318
18.24167,-318
18.25000,-318
18.25833,-318
18.26667,-318
18.27500,-318
18.28333,-317
18.29167,-317
18.30000,-317
18.30833,-316
18.31667,-315
18.32500,-315
18.33333,-315
18.34167,-313
18.35000,-313
18.35833,-314
18.36667,-315
18.37500,-315
18.38333,-315
18.39167,-315
18.40000,-314
18.40833,-314
18.41667,-315
18.42500,-315
18.43333,-315
18.44167,-314
18.45000,-315
18.45833,-315
18.46667,-314
18.47500,-316
18.48333,-317
18.49167,-318
18.50000,-319
18.50833,-318
18.51667,-319
18.52500,-319
18.53333,-319
18.54167,-319
18.55000,-319
18.55833,-319
18.56667,-320
18.57500,-321
18.58333,-321
18.59167,-321
18.60000,-322
18.60833,-322
18.61667,-322
18.62500,-323
18.63333,-323
18.64167,-323
18.65000,-324
18.65833,-325
18.66667,-325
18.67500,-325
18.68333,-326
18.69167,-326
18.70000,-326
18.70833,-325
18.71667,-326
18.72500,-327
18.73333,-328
18.74167,-329
18.75000,-329
18.75833,-328
18.76667,-328
18.77500,-328
18.78333,-328
18.79167,-328
18.80000,-328
18.80833,-327
18.81667,-327
18.82500,-328
18.83333,-328
18.84167,-328
18.85000,-327
18.85833,-328
18.86667,-327
18.87500,-327
18.88333,-328
18.89167,-328
18.90000,-328
18.90833,-329
18.91667,-328
18.92500,-327
18.93333,-326
18.94167,-325
18.95000,-325
18.95833,-325
18.96667,-324
18.97500,-324
18.98333,-324
18.99167,-324
19.00000,-323
19.00833,-322
19.01667,-322
19.02500,-322
19.03333,-322
19.04167,-321
19.05000,-320
19.05833,-320
19.06667,-320
19.07500,-320
19.08333,-320
19.09167,-319
19.10000,-318
19.10833,-317
19.11667,-316
19.12500,-315
19.13333,-316
19.14167,-317
19.15000,-317
19.15833,-316
19.16667,-315
19.17500,-315
19.18333,-316
19.19167,-316
19.20000,-316
19.20833,-315
19.21667,-315
19.22500,-316
19.23333,-315
19.24167,-315
19.25000,-313
19.25833,-313
19.26667,-313
19.27500,-314
19.28333,-315
19.29167,-315
19.30000,-315
19.30833,-314
19.31667,-314
19.32500,-314
19.33333,-314
19.34167,-314
19.35000,-314
19.35833,-315
19.36667,-315
19.37500,-315
19.38333,-316
19.39167,-317
19.40000,-316
19.40833,-316
19.41667,-316
19.42500,-316
19.43333,-316
19.44167,-316
19.45000,-316
19.45833,-317
19.46667,-317
19.47500,-318
19.48333,-318
19.49167,-318
19.50000,-318
19.50833,-318
19.51667,-319
19.52500,-319
19.53333,-319
19.54167,-319
19.55000,-320
19.55833,-320
19.56667,-321
19.57500,-322
19.58333,-323
19.59167,-322
19.60000,-322
19.60833,-322
19.61667,-323
19.62500,-324
19.63333,-326
19.64167,-326
19.65000,-327
19.65833,-327
19.66667,-327
19.67500,-327
19.68333,-328
19.69167,-328
19.70000,-329
19.70833,-329
19.71667,-328
19.72500,-327
19.73333,-328
19.74167,-330
19.75000,-331
19.75833,-331
19.76667,-330
19.77500,-330
19.78333,-330
19.79167,-331
19.80000,-332
19.80833,-332
19.81667,-332
19.82500,-332
19.83333,-333
19.84167,-333
19.85000,-332
19.85833,-332
19.86667,-333
19.87500,-334
19.88333,-334
19.89167,-334
19.90000,-334
19.90833,-334
19.91667,-334
19.92500,-335
19.93333,-335
19.94167,-335
19.95000,-336
19.95833,-336
19.96667,-336
19.97500,-337
19.98333,-336
19.99167,-337
20.00000,-337
20.00833,-336
20.01667,-335
20.02500,-335
20.03333,-335
20.04167,-335
20.05000,-336
20.05833,-336
20.06667,-336
20.07500,-336
20.08333,-336
20.09167,-336
20.10000,-336
20.10833,-336
20.11667,-336
20.12500,-337
20.13333,-337
20.14167,-337
20.15000,-337
20.15833,-338
20.16667,-338
20.17500,-338
20.18333,-338
20.19167,-338
20.20000,-338
20.20833,-338
20.21667,-337
20.22500,-337
20.23333,-336
20.24167,-337
20.25000,-337
20.25833,-337
20.26667,-338
20.27500,-337
20.28333,-337
20.29167,-336
20.30000,-336
20.30833,-337
20.31667,-338
20.32500,-337
20.33333,-336
20.34167,-335
20.35000,-336
20.35833,-336
20.36667,-336
20.37500,-335
20.38333,-334
20.39167,-333
20.40000,-333
20.40833,-332
20.41667,-332
20.42500,-332
20.43333,-331
20.44167,-331
20.45000,-330
20.45833,-329
20.46667,-328
20.47500,-327
20.48333,-325
20.49167,-324
20.50000,-323
20.50833,-321
20.51667,-319
20.52500,-318
20.53333,-317
20.54167,-315
20.55000,-312
20.55833,-309
20.56667,-306
20.57500,-303
20.58333,-300
20.59167,-297
20.60000,-295
20.60833,-292
20.61667,-290
20.62500,-287
20.63333,-283
20.64167,-279
20.65000,-277
20.65833,-274
20.66667,-272
20.67500,-269
20.68333,-267
20.69167,-265
20.70000,-262
20.70833,-259
20.71667,-257
20.72500,-256
20.73333,-254
20.74167,-253
20.75000,-251
20.75833,-250
20.76667,-248
20.77500,-246
20.78333,-244
20.79167,-243
20.80000,-242
20.80833,-241
20.81667,-240
20.82500,-240
20.83333,-240
20.84167,-239
20.85000,-238
20.85833,-237
20.86667,-236
20.87500,-235
20.88333,-235
20.89167,-234
20.90000,-234
20.90833,-233
20.91667,-232
20.92500,-233
20.93333,-233
20.94167,-233
20.95000,-232
20.95833,-233
20.96667,-233
20.97500,-232
20.98333,-233
20.99167,-233
21.00000,-235
21.00833,-235
21.01667,-235
21.02500,-236
21.03333,-235
21.04167,-235
21.05000,-236
21.05833,-237
21.06667,-239
21.07500,-239
21.08333,-240
21.09167,-241
21.10000,-243
21.10833,-245
21.11667,-246
21.12500,-247
21.13333,-248
21.14167,-249
21.15000,-251
21.15833,-253
21.16667,-255
21.17500,-258
21.18333,-261
21.19167,-263
21.20000,-266
21.20833,-269
21.21667,-271
21.22500,-272
21.23333,-274
21.24167,-277
21.25000,-280
21.25833,-283
21.26667,-286
21.27500,-288
21.28333,-291
21.29167,-293
21.30000,-296
21.30833,-298
21.31667,-300
21.32500,-301
21.33333,-303
21.34167,-305
21.35000,-308
21.35833,-311
21.36667,-314
21.37500,-316
21.38333,-318
21.39167,-320
21.40000,-322
21.40833,-324
21.41667,-326
21.42500,-327
21.43333,-328
21.44167,-330
21.45000,-332
21.45833,-333
21.46667,-334
21.47500,-335
21.48333,-336
21.49167,-338
21.50000,-339
21.50833,-340
21.51667,-340
21.52500,-341
21.53333,-342
21.54167,-342
21.55000,-343
21.55833,-344
21.56667,-345
21.57500,-345
21.58333,-345
21.59167,-347
21.60000,-348
21.60833,-348
21.61667,-348
21.62500,-348
21.63333,-349
21.64167,-349
21.65000,-350
21.65833,-351
21.66667,-351
21.67500,-352
21.68333,-352
21.69167,-352
21.70000,-352
21.70833,-352
21.71667,-352
21.72500,-352
21.73333,-353
21.74167,-353
21.75000,-353
21.75833,-354
21.76667,-354
21.77500,-354
21.78333,-354
21.79167,-354
21.80000,-353
21.80833,-352
21.81667,-353
21.82500,-355
21.83333,-355
21.84167,-356
21.85000,-357
21.85833,-357
21.86667,-356
21.87500,-356
21.88333,-356
21.89167,-357
21.90000,-357
21.90833,-357
21.91667,-356
21.92500,-355
21.93333,-355
21.94167,-355
21.95000,-355
21.95833,-356
21.96667,-357
21.97500,-358
21.98333,-359
21.99167,-359
22.00000,-358
22.00833,-358
22.01667,-357
22.02500,-358
22.03333,-359
22.04167,-359
22.05000,-359
22.05833,-358
22.06667,-358
22.07500,-358
22.08333,-358
22.09167,-357
22.10000,-357
22.10833,-358
22.11667,-357
22.12500,-358
22.13333,-359
22.14167,-359
22.15000,-360
22.15833,-361
22.16667,-360
22.17500,-359
22.18333,-360
22.19167,-361
22.20000,-360
22.20833,-359
22.21667,-360
22.22500,-360
22.23333,-361
22.24167,-362
22.25000,-362
22.25833,-362
22.26667,-361
22.27500,-360
22.28333,-360
22.29167,-361
22.30000,-361
22.30833,-361
22.31667,-361
22.32500,-362
22.33333,-362
22.34167,-362
22.35000,-361
22.35833,-360
22.36667,-361
22.37500,-361
22.38333,-362
22.39167,-362
22.40000,-363
22.40833,-363
22.41667,-362
22.42500,-361
22.43333,-360
22.44167,-361
22.45000,-361
22.45833,-362
22.46667,-363
22.47500,-363
22.48333,-363
22.49167,-363
22.50000,-363
22.50833,-362
22.51667,-362
22.52500,-362
22.53333,-363
22.54167,-364
22.55000,-364
22.55833,-364
22.56667,-364
22.57500,-365
22.58333,-366
22.59167,-365
22.60000,-364
22.60833,-363
22.61667,-363
22.62500,-362
22.63333,-362
22.64167,-363
22.65000,-364
22.65833,-365
22.66667,-365
22.67500,-365
22.68333,-366
22.69167,-365
22.70000,-365
22.70833,-365
22.71667,-365
22.72500,-365
22.73333,-365
22.74167,-366
22.75000,-367
22.75833,-367
22.76667,-367
22.77500,-367
22.78333,-366
22.79167,-366
22.80000,-366
22.80833,-366
22.81667,-366
22.82500,-366
22.83333,-366
22.84167,-365
22.85000,-365
22.85833,-366
22.86667,-366
22.87500,-366
22.88333,-365
22.89167,-364
22.90000,-365
22.90833,-366
22.91667,-366
22.92500,-367
22.93333,-368
22.94167,-368
22.95000,-367
22.95833,-367
22.96667,-367
22.97500,-367
22.98333,-367
22.99167,-367
23.00000,-367
23.00833,-368
23.01667,-368
23.02500,-368
23.03333,-367
23.04167,-367
23.05000,-368
23.05833,-369
23.06667,-370
23.07500,-369
23.08333,-368
23.09167,-368
23.10000,-368
23.10833,-369
23.11667,-369
23.12500,-369
23.13333,-369
23.14167,-370
23.15000,-370
23.15833,-369
23.16667,-369
23.17500,-369
23.18333,-369
23.19167,-370
23.20000,-370
23.20833,-370
23.21667,-370
23.22500,-370
23.23333,-370
23.24167,-370
23.25000,-369
23.25833,-369
23.26667,-369
23.27500,-369
23.28333,-369
23.29167,-369
23.30000,-370
23.30833,-370
23.31667,-369
23.32500,-369
23.33333,-369
23.34167,-370
23.35000,-370
23.35833,-370
23.36667,-371
23.37500,-371
23.38333,-371
23.39167,-371
23.40000,-371
23.40833,-372
23.41667,-372
23.42500,-371
23.43333,-371
23.44167,-371
23.45000,-372
23.45833,-372
23.46667,-371
23.47500,-370
23.48333,-371
23.49167,-371
23.50000,-371
23.50833,-370
23.51667,-370
23.52500,-370
23.53333,-371
23.54167,-372
23.55000,-372
23.55833,-372
23.56667,-373
23.57500,-373
23.58333,-373
23.59167,-373
23.60000,-374
23.60833,-373
23.61667,-372
23.62500,-371
23.63333,-372
23.64167,-372
23.65000,-372
23.65833,-371
23.66667,-371
23.67500,-372
23.68333,-372
23.69167,-373
23.70000,-373
23.70833,-373
23.71667,-373
23.72500,-373
23.73333,-372
23.74167,-372
23.75000,-371
23.75833,-372
23.76667,-372
23.77500,-372
23.78333,-373
23.79167,-373
23.80000,-373
23.80833,-374
23.81667,-374
23.82500,-375
23.83333,-375
23.84167,-374
23.85000,-374
23.85833,-374
23.86667,-374
23.87500,-374
23.88333,-374
23.89167,-374
23.90000,-374
23.90833,-374
23.91667,-374
23.92500,-375
23.93333,-374
23.94167,-374
23.95000,-373
23.95833,-373
23.96667,-372
23.97500,-372
23.98333,-372
23.99167,-371
24.00000,-372
24.00833,-372
24.01667,-373
24.02500,-373
24.03333,-374
24.04167,-375
24.05000,-374
24.05833,-374
24.06667,-375
24.07500,-374
24.08333,-374
24.09167,-373
24.10000,-373
24.10833,-374
24.11667,-374
24.12500,-374
24.13333,-373
24.14167,-372
24.15000,-373
24.15833,-374
24.16667,-376
24.17500,-376
24.18333,-375
24.19167,-374
24.20000,-374
24.20833,-374
24.21667,-375
24.22500,-376
24.23333,-376
24.24167,-375
24.25000,-375
24.25833,-375
24.26667,-375
24.27500,-375
24.28333,-375
24.29167,-374
24.30000,-373
24.30833,-373
24.31667,-373
24.32500,-373
24.33333,-374
24.34167,-375
24.35000,-376
24.35833,-376
24.36667,-376
24.37500,-376
24.38333,-375
24.39167,-376
24.40000,-376
24.40833,-377
24.41667,-377
24.42500,-377
24.43333,-377
24.44167,-377
24.45000,-377
24.45833,-376
24.46667,-377
24.47500,-377
24.48333,-378
24.49167,-378
24.50000,-378
24.50833,-378
24.51667,-378
24.52500,-378
24.53333,-378
24.54167,-378
24.55000,-379
24.55833,-379
24.56667,-379
24.57500,-378
24.58333,-378
24.59167,-378
24.60000,-379
24.60833,-379
24.61667,-379
24.62500,-379
24.63333,-378
24.64167,-378
24.65000,-378
24.65833,-379
24.66667,-379
24.67500,-378
24.68333,-378
24.69167,-379
24.70000,-379
24.70833,-379
24.71667,-380
24.72500,-379
24.73333,-378
24.74167,-378
24.75000,-377
24.75833,-378
24.76667,-378
24.77500,-377
24.78333,-377
24.79167,-377
24.80000,-377
24.80833,-378
24.81667,-379
24.82500,-380
24.83333,-380
24.84167,-381
24.85000,-381
24.85833,-380
24.86667,-379
24.87500,-379
24.88333,-379
24.89167,-380
24.90000,-380
24.90833,-379
24.91667,-379
24.92500,-379
24.93333,-380
24.94167,-380
24.95000,-380
24.95833,-380
24.96667,-380
24.97500,-379
24.98333,-379
24.99167,-379
25.00000,-379
25.00833,-380
25.01667,-380
25.02500,-379
25.03333,-379
25.04167,-379
25.05000,-379
25.05833,-380
25.06667,-380
25.07500,-380
25.08333,-380
25.09167,-380
25.10000,-381
25.10833,-380
25.11667,-379
25.12500,-379
25.13333,-379
25.14167,-379
25.15000,-379
25.15833,-380
25.16667,-381
25.17500,-381
25.18333,-381
25.19167,-381
25.20000,-380
25.20833,-379
25.21667,-379
25.22500,-379
25.23333,-378
25.24167,-378
25.25000,-379
25.25833,-381
25.26667,-382
25.27500,-382
25.28333,-382
25.29167,-383
25.30000,-383
25.30833,-383
25.31667,-384
25.32500,-384
25.33333,-384
25.34167,-383
25.35000,-382
25.35833,-382
25.36667,-382
25.37500,-382
25.38333,-382
25.39167,-382
25.40000,-383
25.40833,-383
25.41667,-383
25.42500,-383
25.43333,-383
25.44167,-382
25.45000,-381
25.45833,-381
25.46667,-382
25.47500,-382
25.48333,-382
25.49167,-382
25.50000,-382
25.50833,-382
25.51667,-381
25.52500,-381
25.53333,-380
25.54167,-379
25.55000,-380
25.55833,-380
25.56667,-381
25.57500,-381
25.58333,-382
25.59167,-382
25.60000,-382
25.60833,-382
25.61667,-381
25.62500,-381
25.63333,-381
25.64167,-381
25.65000,-381
25.65833,-381
25.66667,-381
25.67500,-382
25.68333,-382
25.69167,-382
25.70000,-381
25.70833,-381
25.71667,-382
25.72500,-383
25.73333,-382
25.74167,-382
25.75000,-381
25.75833,-381
25.76667,-380
25.77500,-381
25.78333,-381
25.79167,-381
25.80000,-381
25.80833,-381
25.81667,-382
25.82500,-382
25.83333,-383
25.84167,-383
25.85000,-383
25.85833,-382
25.86667,-382
25.87500,-382
25.88333,-382
25.89167,-383
25.90000,-383
25.90833,-383
25.91667,-382
25.92500,-382
25.93333,-382
25.94167,-381
25.95000,-381
25.95833,-381
25.96667,-381
25.97500,-383
25.98333,-385
25.99167,-385
26.00000,-384
26.00833,-383
26.01667,-383
26.02500,-383
26.03333,-384
26.04167,-384
26.05000,-383
26.05833,-383
26.06667,-383
26.07500,-383
26.08333,-383
26.09167,-384
26.10000,-384
26.10833,-384
26.11667,-383
26.12500,-383
26.13333,-382
26.14167,-381
26.15000,-382
26.15833,-383
26.16667,-384
26.17500,-384
26.18333,-384
26.19167,-384
26.20000,-384
26.20833,-384
26.21667,-384
26.22500,-383
26.23333,-383
26.24167,-383
26.25000,-384
26.25833,-384
26.26667,-384
26.27500,-384
26.28333,-382
26.29167,-383
26.30000,-383
26.30833,-382
26.31667,-383
26.32500,-384
26.33333,-384
26.34167,-384
26.35000,-384
26.35833,-384
26.36667,-383
26.37500,-382
26.38333,-382
26.39167,-382
26.40000,-382
26.40833,-382
26.41667,-382
26.42500,-383
26.43333,-383
26.44167,-383
26.45000,-383
26.45833,-383
26.46667,-384
26.47500,-384
26.48333,-384
26.49167,-384
26.50000,-383
26.50833,-383
26.51667,-383
26.52500,-383
26.53333,-383
26.54167,-384
26.55000,-384
26.55833,-384
26.56667,-385
26.57500,-384
26.58333,-384
26.59167,-384
26.60000,-384
26.60833,-384
26.61667,-384
26.62500,-384
26.63333,-384
26.64167,-384
26.65000,-384
26.65833,-384
26.66667,-384
26.67500,-384
26.68333,-384
26.69167,-384
26.70000,-383
26.70833,-382
26.71667,-382
26.72500,-383
26.73333,-383
26.74167,-383
26.75000,-382
26.75833,-382
26.76667,-383
26.77500,-382
26.78333,-381
26.79167,-381
26.80000,-383
26.80833,-383
26.81667,-383
26.82500,-383
26.83333,-383
26.84167,-382
26.85000,-383
26.85833,-383
26.86667,-383
26.87500,-383
26.88333,-383
26.89167,-383
26.90000,-383
26.90833,-383
26.91667,-383
26.92500,-382
26.93333,-383
26.94167,-383
26.95000,-382
26.95833,-382
26.96667,-383
26.97500,-383
26.98333,-383
26.99167,-383
27.00000,-383
27.00833,-383
27.01667,-383
27.02500,-383
27.03333,-382
27.04167,-382
27.05000,-381
27.05833,-382
27.06667,-382
27.07500,-382
27.08333,-383
27.09167,-383
27.10000,-384
27.10833,-384
27.11667,-384
27.12500,-383
27.13333,-382
27.14167,-382
27.15000,-382
27.15833,-382
27.16667,-382
27.17500,-381
27.18333,-381
27.19167,-382
27.20000,-382
27.20833,-382
27.21667,-382
27.22500,-382
27.23333,-383
27.24167,-383
27.25000,-383
27.25833,-384
27.26667,-384
27.27500,-384
27.28333,-383
27.29167,-382
27.30000,-381
27.30833,-381
27.31667,-381
27.32500,-381
27.33333,-381
27.34167,-380
27.35000,-381
27.35833,-381
27.36667,-381
27.37500,-381
27.38333,-381
27.39167,-381
27.40000,-381
27.40833,-381
27.41667,-381
27.42500,-381
27.43333,-381
27.44167,-382
27.45000,-382
27.45833,-382
27.46667,-383
27.47500,-384
27.48333,-384
27.49167,-384
27.50000,-383
27.50833,-384
27.51667,-384
27.52500,-384
27.53333,-383
27.54167,-383
27.55000,-383
27.55833,-382
27.56667,-382
27.57500,-381
27.58333,-381
27.59167,-381
27.60000,-381
27.60833,-381
27.61667,-381
27.62500,-381
27.63333,-381
27.64167,-381
27.65000,-381
27.65833,-380
27.66667,-380
27.67500,-380
27.68333,-381
27.69167,-382
27.70000,-383
27.70833,-383
27.71667,-383
27.72500,-384
27.73333,-384
27.74167,-384
27.75000,-383
27.75833,-382
27.76667,-382
27.77500,-382
27.78333,-382
27.79167,-382
27.80000,-382
27.80833,-383
27.81667,-383
27.82500,-383
27.83333,-382
27.84167,-381
27.85000,-380
27.85833,-380
27.86667,-379
27.87500,-380
27.88333,-381
27.89167,-381
27.90000,-381
27.90833,-381
27.91667,-381
27.92500,-380
27.93333,-380
27.94167,-381
27.95000,-380
27.95833,-380
27.96667,-380
27.97500,-380
27.98333,-381
27.99167,-381
28.00000,-381
28.00833,-381
28.01667,-381
28.02500,-381
28.03333,-380
28.04167,-380
28.05000,-380
28.05833,-379
28.06667,-380
28.07500,-381
28.08333,-381
28.09167,-380
28.10000,-379
28.10833,-379
28.11667,-380
28.12500,-380
28.13333,-380
28.14167,-380
28.15000,-380
28.15833,-380
28.16667,-380
28.17500,-379
28.18333,-380
28.19167,-380
28.20000,-380
28.20833,-380
28.21667,-380
28.22500,-380
28.23333,-379
28.24167,-379
28.25000,-379
28.25833,-379
28.26667,-380
28.27500,-379
28.28333,-379
28.29167,-379
28.30000,-379
28.30833,-379
28.31667,-379
28.32500,-378
28.33333,-377
28.34167,-377
28.35000,-377
28.35833,-378
28.36667,-378
28.37500,-377
28.38333,-378
28.39167,-378
28.40000,-378
28.40833,-378
28.41667,-377
28.42500,-376
28.43333,-375
28.44167,-375
28.45000,-376
28.45833,-376
28.46667,-376
28.47500,-376
28.48333,-377
28.49167,-377
28.50000,-377
28.50833,-376
28.51667,-376
28.52500,-377
28.53333,-376
28.54167,-375
28.55000,-375
28.55833,-375
28.56667,-375
28.57500,-374
28.58333,-374
28.59167,-373
28.60000,-372
28.60833,-373
28.61667,-373
28.62500,-373
28.63333,-373
28.64167,-373
28.65000,-372
28.65833,-372
28.66667,-371
28.67500,-372
28.68333,-372
28.69167,-372
28.70000,-373
28.70833,-373
28.71667,-373
28.72500,-373
28.73333,-373
28.74167,-373
28.75000,-374
28.75833,-374
28.76667,-373
28.77500,-373
28.78333,-374
28.79167,-374
28.80000,-374
28.80833,-374
28.81667,-374
28.82500,-374
28.83333,-374
28.84167,-374
28.85000,-373
28.85833,-374
28.86667,-375
28.87500,-374
28.88333,-375
28.89167,-375
28.90000,-375
28.90833,-375
28.91667,-375
28.92500,-376
28.93333,-375
28.94167,-375
28.95000,-375
28.95833,-375
28.96667,-375
28.97500,-377
28.98333,-378
28.99167,-378
29.00000,-379
29.00833,-379
29.01667,-378
29.02500,-378
29.03333,-377
29.04167,-377
29.05000,-376
29.05833,-376
29.06667,-376
29.07500,-377
29.08333,-377
29.09167,-378
29.10000,-378
29.10833,-379
29.11667,-379
29.12500,-379
29.13333,-379
29.14167,-379
29.15000,-380
29.15833,-380
29.16667,-380
29.17500,-380
29.18333,-380
29.19167,-380
29.20000,-380
29.20833,-380
29.21667,-381
29.22500,-381
29.23333,-380
29.24167,-379
29.25000,-378
29.25833,-378
29.26667,-378
29.27500,-379
29.28333,-379
29.29167,-380
29.30000,-379
29.30833,-379
29.31667,-380
29.32500,-381
29.33333,-381
29.34167,-382
29.35000,-382
29.35833,-382
29.36667,-381
29.37500,-381
29.38333,-381
29.39167,-381
29.40000,-381
29.40833,-380
29.41667,-380
29.42500,-381
29.43333,-382
29.44167,-382
29.45000,-381
29.45833,-381
29.46667,-380
29.47500,-380
29.48333,-381
29.49167,-382
29.50000,-382
29.50833,-381
29.51667,-381
29.52500,-381
29.53333,-381
29.54167,-381
29.55000,-380
29.55833,-380
29.56667,-380
29.57500,-380
29.58333,-380
29.59167,-380
29.60000,-381
29.60833,-381
29.61667,-381
29.62500,-380
29.63333,-380
29.64167,-381
29.65000,-381
29.65833,-381
29.66667,-382
29.67500,-382
29.68333,-382
29.69167,-382
29.70000,-382
29.70833,-381
29.71667,-381
29.72500,-381
29.73333,-380
29.74167,-381
29.75000,-382
29.75833,-382
29.76667,-382
29.77500,-381
29.78333,-380
29.79167,-381
29.80000,-382
29.80833,-381
29.81667,-381
29.82500,-381
29.83333,-382
29.84167,-382
29.85000,-382
29.85833,-383
29.86667,-383
29.87500,-383
29.88333,-383
29.89167,-383
29.90000,-383
29.90833,-382
29.91667,-383
29.92500,-383
29.93333,-383
29.94167,-381
29.95000,-380
29.95833,-380
29.96667,-380
29.97500,-380
29.98333,-381
29.99167,-381
30.00000,-382

[LC Chromatogram(Detector B-Ch1)]
Interval(msec),500
# of Points,3601
Start Time(min),0.000
End Time(min),30.000
Intensity Units,mV
Intensity Multiplier,0.001
R.Time (min),Intensity
0.00000,3
0.00833,3
0.01667,0
0.02500,1
0.03333,1
0.04167,1
0.05000,1
0.05833,1
0.06667,1
0.07500,1
0.08333,1
0.09167,1
0.10000,2
0.10833,2
0.11667,2
0.12500,2
0.13333,1
0.14167,1
0.15000,1
0.15833,1
0.16667,1
0.17500,1
0.18333,1
0.19167,1
0.20000,1
0.20833,2
0.21667,2
0.22500,2
0.23333,2
0.24167,2
0.25000,2
0.25833,2
0.26667,2
0.27500,2
0.28333,2
0.29167,2
0.30000,2
0.30833,2
0.31667,2
0.32500,2
0.33333,1
0.34167,1
0.35000,1
0.35833,1
0.36667,1
0.37500,2
0.38333,2
0.39167,1
0.40000,1
0.40833,1
0.41667,1
0.42500,1
0.43333,1
0.44167,1
0.45000,1
0.45833,2
0.46667,2
0.47500,2
0.48333,2
0.49167,2
0.50000,3
0.50833,3
0.51667,2
0.52500,2
0.53333,2
0.54167,2
0.55000,2
0.55833,3
0.56667,3
0.57500,3
0.58333,3
0.59167,3
0.60000,3
0.60833,3
0.61667,3
0.62500,2
0.63333,2
0.64167,2
0.65000,2
0.65833,2
0.66667,2
0.67500,2
0.68333,1
0.69167,1
0.70000,2
0.70833,2
0.71667,2
0.72500,2
0.73333,2
0.74167,2
0.75000,2
0.75833,2
0.76667,2
0.77500,2
0.78333,2
0.79167,2
0.80000,2
0.80833,2
0.81667,2
0.82500,2
0.83333,2
0.84167,2
0.85000,2
0.85833,2
0.86667,2
0.87500,2
0.88333,3
0.89167,3
0.90000,3
0.90833,3
0.91667,3
0.92500,3
0.93333,3
0.94167,3
0.95000,2
0.95833,2
0.96667,2
0.97500,2
0.98333,2
0.99167,2
1.00000,2
1.00833,2
1.01667,2
1.02500,2
1.03333,3
1.04167,3
1.05000,3
1.05833,3
1.06667,3
1.07500,3
1.08333,3
1.09167,3
1.10000,4
1.10833,4
1.11667,4
1.12500,4
1.13333,4
1.14167,4
1.15000,3
1.15833,3
1.16667,3
1.17500,3
1.18333,3
1.19167,3
1.20000,3
1.20833,3
1.21667,3
1.22500,3
1.23333,4
1.24167,4
1.25000,5
1.25833,5
1.26667,5
1.27500,5
1.28333,5
1.29167,5
1.30000,5
1.30833,5
1.31667,5
1.32500,5
1.33333,5
1.34167,5
1.35000,5
1.35833,5
1.36667,5
1.37500,5
1.38333,4
1.39167,4
1.40000,4
1.40833,4
1.41667,4
1.42500,4
1.43333,4
1.44167,4
1.45000,4
1.45833,4
1.46667,4
1.47500,4
1.48333,4
1.49167,4
1.50000,4
1.50833,4
1.51667,5
1.52500,5
1.53333,4
1.54167,4
1.55000,4
1.55833,4
1.56667,4
1.57500,4
1.58333,4
1.59167,5
1.60000,5
1.60833,4
1.61667,4
1.62500,4
1.63333,4
1.64167,4
1.65000,4
1.65833,4
1.66667,4
1.67500,5
1.68333,5
1.69167,5
1.70000,5
1.70833,5
1.71667,5
1.72500,5
1.73333,5
1.74167,5
1.75000,5
1.75833,5
1.76667,4
1.77500,4
1.78333,5
1.79167,5
1.80000,5
1.80833,5
1.81667,4
1.82500,4
1.83333,4
1.84167,5
1.85000,5
1.85833,5
1.86667,5
1.87500,5
1.88333,5
1.89167,5
1.90000,5
1.90833,5
1.91667,5
1.92500,4
1.93333,5
1.94167,5
1.95000,5
1.95833,5
1.96667,5
1.97500,5
1.98333,5
1.99167,4
2.00000,4
2.00833,4
2.01667,4
2.02500,3
2.03333,4
2.04167,4
2.05000,4
2.05833,4
2.06667,4
2.07500,4
2.08333,4
2.09167,4
2.10000,4
2.10833,5
2.11667,5
2.12500,5
2.13333,5
2.14167,5
2.15000,4
2.15833,4
2.16667,4
2.17500,4
2.18333,3
2.19167,3
2.20000,3
2.20833,3
2.21667,3
2.22500,2
2.23333,2
2.24167,2
2.25000,1
2.25833,1
2.26667,2
2.27500,2
2.28333,2
2.29167,2
2.30000,2
2.30833,2
2.31667,1
2.32500,1
2.33333,1
2.34167,1
2.35000,0
2.35833,0
2.36667,0
2.37500,0
2.38333,-0
2.39167,-0
2.40000,-0
2.40833,-0
2.41667,-0
2.42500,-0
2.43333,-0
2.44167,-0
2.45000,-0
2.45833,-1
2.46667,-1
2.47500,-1
2.48333,-1
2.49167,-1
2.50000,-1
2.50833,-2
2.51667,-2
2.52500,-2
2.53333,-2
2.54167,-2
2.55000,-2
2.55833,-2
2.56667,-2
2.57500,-2
2.58333,-2
2.59167,-2
2.60000,-2
2.60833,-2
2.61667,-3
2.62500,-3
2.63333,-3
2.64167,-3
2.65000,-3
2.65833,-3
2.66667,-3
2.67500,-3
2.68333,-3
2.69167,-3
2.70000,-4
2.70833,-4
2.71667,-4
2.72500,-4
2.73333,-4
2.74167,-4
2.75000,-3
2.75833,-4
2.76667,-4
2.77500,-4
2.78333,-4
2.79167,-4
2.80000,-4
2.80833,-4
2.81667,-4
2.82500,-4
2.83333,-4
2.84167,-4
2.85000,-4
2.85833,-4
2.86667,-4
2.87500,-4
2.88333,-4
2.89167,-4
2.90000,-4
2.90833,-3
2.91667,-3
2.92500,-3
2.93333,-4
2.94167,-4
2.95000,-4
2.95833,-4
2.96667,-4
2.97500,-4
2.98333,-3
2.99167,-3
3.00000,-3
3.00833,-3
3.01667,-3
3.02500,-3
3.03333,-3
3.04167,-3
3.05000,-3
3.05833,-3
3.06667,-3
3.07500,-3
3.08333,-3
3.09167,-3
3.10000,-3
3.10833,-3
3.11667,-3
3.12500,-2
3.13333,-2
3.14167,-2
3.15000,-2
3.15833,-2
3.16667,-2
3.17500,-2
3.18333,-2
3.19167,-2
3.20000,-2
3.20833,-1
3.21667,-1
3.22500,-0
3.23333,0
3.24167,0
3.25000,0
3.25833,-0
3.26667,-0
3.27500,-0
3.28333,-0
3.29167,0
3.30000,0
3.30833,0
3.31667,0
3.32500,0
3.33333,0
3.34167,0
3.35000,0
3.35833,-0
3.36667,0
3.37500,0
3.38333,1
3.39167,1
3.40000,1
3.40833,1
3.41667,1
3.42500,1
3.43333,1
3.44167,1
3.45000,2
3.45833,2
3.46667,2
3.47500,2
3.48333,2
3.49167,2
3.50000,1
3.50833,1
3.51667,1
3.52500,0
3.53333,0
3.54167,1
3.55000,1
3.55833,1
3.56667,2
3.57500,2
3.58333,2
3.59167,2
3.60000,2
3.60833,2
3.61667,2
3.62500,2
3.63333,2
3.64167,2
3.65000,2
3.65833,2
3.66667,2
3.67500,2
3.68333,2
3.69167,2
3.70000,2
3.70833,2
3.71667,1
3.72500,1
3.73333,2
3.74167,2
3.75000,2
3.75833,2
3.76667,2
3.77500,2
3.78333,2
3.79167,2
3.80000,2
3.80833,2
3.81667,2
3.82500,2
3.83333,2
3.84167,2
3.85000,2
3.85833,2
3.86667,2
3.87500,2
3.88333,2
3.89167,2
3.90000,2
3.90833,2
3.91667,2
3.92500,2
3.93333,2
3.94167,2
3.95000,2
3.95833,2
3.96667,2
3.97500,2
3.98333,2
3.99167,3
4.00000,3
4.00833,2
4.01667,2
4.02500,2
4.03333,2
4.04167,3
4.05000,3
4.05833,3
4.06667,3
4.07500,3
4.08333,3
4.09167,3
4.10000,3
4.10833,3
4.11667,2
4.12500,2
4.13333,2
4.14167,2
4.15000,2
4.15833,2
4.16667,2
4.17500,2
4.18333,3
4.19167,3
4.20000,2
4.20833,2
4.21667,2
4.22500,2
4.23333,2
4.24167,1
4.25000,1
4.25833,2
4.26667,2
4.27500,2
4.28333,2
4.29167,3
4.30000,3
4.30833,3
4.31667,2
4.32500,3
4.33333,3
4.34167,3
4.35000,3
4.35833,3
4.36667,3
4.37500,3
4.38333,3
4.39167,3
4.40000,3
4.40833,2
4.41667,2
4.42500,2
4.43333,2
4.44167,2
4.45000,2
4.45833,3
4.46667,3
4.47500,4
4.48333,4
4.49167,4
4.50000,4
4.50833,4
4.51667,4
4.52500,4
4.53333,3
4.54167,3
4.55000,3
4.55833,3
4.56667,3
4.57500,3
4.58333,3
4.59167,3
4.60000,3
4.60833,3
4.61667,3
4.62500,3
4.63333,3
4.64167,2
4.65000,2
4.65833,3
4.66667,2
4.67500,2
4.68333,2
4.69167,2
4.70000,3
4.70833,3
4.71667,3
4.72500,3
4.73333,3
4.74167,3
4.75000,3
4.75833,3
4.76667,3
4.77500,3
4.78333,3
4.79167,3
4.80000,3
4.80833,3
4.81667,3
4.82500,3
4.83333,4
4.84167,4
4.85000,4
4.85833,4
4.86667,4
4.87500,4
4.88333,4
4.89167,3
4.90000,3
4.90833,3
4.91667,3
4.92500,2
4.93333,2
4.94167,3
4.95000,3
4.95833,3
4.96667,3
4.97500,3
4.98333,3
4.99167,3
5.00000,3
5.00833,3
5.01667,3
5.02500,3
5.03333,3
5.04167,3
5.05000,3
5.05833,3
5.06667,2
5.07500,2
5.08333,2
5.09167,3
5.10000,3
5.10833,3
5.11667,3
5.12500,3
5.13333,3
5.14167,3
5.15000,3
5.15833,3
5.16667,3
5.17500,3
5.18333,2
5.19167,3
5.20000,3
5.20833,3
5.21667,3
5.22500,3
5.23333,3
5.24167,3
5.25000,3
5.25833,3
5.26667,3
5.27500,3
5.28333,4
5.29167,4
5.30000,4
5.30833,4
5.31667,4
5.32500,4
5.33333,3
5.34167,3
5.35000,2
5.35833,3
5.36667,3
5.37500,3
5.38333,3
5.39167,4
5.40000,4
5.40833,4
5.41667,4
5.42500,4
5.43333,4
5.44167,4
5.45000,4
5.45833,5
5.46667,5
5.47500,4
5.48333,4
5.49167,4
5.50000,4
5.50833,4
5.51667,3
5.52500,3
5.53333,3
5.54167,3
5.55000,3
5.55833,4
5.56667,4
5.57500,4
5.58333,4
5.59167,4
5.60000,4
5.60833,4
5.61667,4
5.62500,4
5.63333,4
5.64167,4
5.65000,4
5.65833,5
5.66667,4
5.67500,4
5.68333,4
5.69167,3
5.70000,3
5.70833,3
5.71667,3
5.72500,3
5.73333,4
5.74167,4
5.75000,4
5.75833,4
5.76667,4
5.77500,4
5.78333,4
5.79167,5
5.80000,5
5.80833,5
5.81667,5
5.82500,5
5.83333,5
5.84167,5
5.85000,5
5.85833,5
5.86667,5
5.87500,5
5.88333,5
5.89167,5
5.90000,4
5.90833,4
5.91667,5
5.92500,5
5.93333,5
5.94167,5
5.95000,5
5.95833,5
5.96667,5
5.97500,6
5.98333,6
5.99167,6
6.00000,5
6.00833,5
6.01667,6
6.02500,6
6.03333,6
6.04167,6
6.05000,6
6.05833,6
6.06667,6
6.07500,6
6.08333,6
6.09167,6
6.10000,6
6.10833,7
6.11667,7
6.12500,7
6.13333,7
6.14167,7
6.15000,8
6.15833,8
6.16667,8
6.17500,8
6.18333,8
6.19167,8
6.20000,8
6.20833,8
6.21667,7
6.22500,7
6.23333,7
6.24167,7
6.25000,7
6.25833,8
6.26667,8
6.27500,8
6.28333,8
6.29167,8
6.30000,8
6.30833,8
6.31667,8
6.32500,8
6.33333,8
6.34167,8
6.35000,8
6.35833,8
6.36667,8
6.37500,8
6.38333,9
6.39167,9
6.40000,9
6.40833,9
6.41667,8
6.42500,8
6.43333,8
6.44167,8
6.45000,9
6.45833,9
6.46667,9
6.47500,9
6.48333,9
6.49167,9
6.50000,10
6.50833,10
6.51667,10
6.52500,10
6.53333,10
6.54167,10
6.55000,10
6.55833,10
6.56667,10
6.57500,10
6.58333,10
6.59167,10
6.60000,11
6.60833,11
6.61667,11
6.62500,11
6.63333,11
6.64167,11
6.65000,11
6.65833,11
6.66667,10
6.67500,10
6.68333,10
6.69167,10
6.70000,10
6.70833,10
6.71667,10
6.72500,10
6.73333,10
6.74167,10
6.75000,10
6.75833,10
6.76667,11
6.77500,11
6.78333,11
6.79167,11
6.80000,11
6.80833,11
6.81667,11
6.82500,11
6.83333,11
6.84167,10
6.85000,10
6.85833,11
6.86667,11
6.87500,11
6.88333,11
6.89167,11
6.90000,11
6.90833,11
6.91667,11
6.92500,11
6.93333,11
6.94167,11
6.95000,11
6.95833,11
6.96667,11
6.97500,11
6.98333,11
6.99167,11
7.00000,10
7.00833,10
7.01667,10
7.02500,10
7.03333,10
7.04167,10
7.05000,10
7.05833,10
7.06667,10
7.07500,10
7.08333,10
7.09167,9
7.10000,9
7.10833,10
7.11667,10
7.12500,10
7.13333,10
7.14167,9
7.15000,9
7.15833,9
7.16667,9
7.17500,9
7.18333,9
7.19167,8
7.20000,8
7.20833,8
7.21667,8
7.22500,8
7.23333,9
7.24167,9
7.25000,9
7.25833,9
7.26667,9
7.27500,9
7.28333,9
7.29167,9
7.30000,9
7.30833,9
7.31667,9
7.32500,9
7.33333,8
7.34167,8
7.35000,7
7.35833,7
7.36667,7
7.37500,7
7.38333,7
7.39167,7
7.40000,7
7.40833,7
7.41667,7
7.42500,7
7.43333,7
7.44167,7
7.45000,7
7.45833,7
7.46667,7
7.47500,7
7.48333,7
7.49167,7
7.50000,6
7.50833,7
7.51667,7
7.52500,6
7.53333,6
7.54167,6
7.55000,5
7.55833,6
7.56667,6
7.57500,6
7.58333,5
7.59167,5
7.60000,5
7.60833,5
7.61667,5
7.62500,5
7.63333,5
7.64167,5
7.65000,5
7.65833,5
7.66667,5
7.67500,5
7.68333,5
7.69167,5
7.70000,5
7.70833,5
7.71667,5
7.72500,5
7.73333,5
7.74167,5
7.75000,5
7.75833,5
7.76667,4
7.77500,4
7.78333,4
7.79167,4
7.80000,4
7.80833,4
7.81667,4
7.82500,3
7.83333,3
7.84167,3
7.85000,3
7.85833,3
7.86667,3
7.87500,3
7.88333,3
7.89167,3
7.90000,3
7.90833,3
7.91667,3
7.92500,2
7.93333,2
7.94167,2
7.95000,2
7.95833,2
7.96667,1
7.97500,1
7.98333,1
7.99167,1
8.00000,1
8.00833,2
8.01667,2
8.02500,2
8.03333,3
8.04167,3
8.05000,3
8.05833,2
8.06667,2
8.07500,1
8.08333,1
8.09167,2
8.10000,2
8.10833,2
8.11667,2
8.12500,1
8.13333,1
8.14167,1
8.15000,0
8.15833,-0
8.16667,-0
8.17500,0
8.18333,0
8.19167,1
8.20000,1
8.20833,1
8.21667,1
8.22500,1
8.23333,1
8.24167,1
8.25000,1
8.25833,2
8.26667,2
8.27500,2
8.28333,1
8.29167,1
8.30000,1
8.30833,0
8.31667,0
8.32500,0
8.33333,1
8.34167,1
8.35000,0
8.35833,0
8.36667,-0
8.37500,-0
8.38333,0
8.39167,0
8.40000,0
8.40833,0
8.41667,0
8.42500,0
8.43333,0
8.44167,0
8.45000,0
8.45833,1
8.46667,1
8.47500,0
8.48333,0
8.49167,-0
8.50000,-0
8.50833,-0
8.51667,0
8.52500,-0
8.53333,-0
8.54167,-0
8.55000,-0
8.55833,-0
8.56667,-0
8.57500,-0
8.58333,0
8.59167,0
8.60000,0
8.60833,0
8.61667,0
8.62500,-0
8.63333,-0
8.64167,0
8.65000,0
8.65833,0
8.66667,0
8.67500,0
8.68333,0
8.69167,0
8.70000,1
8.70833,1
8.71667,0
8.72500,-0
8.73333,-0
8.74167,-0
8.75000,-0
8.75833,-0
8.76667,-0
8.77500,-1
8.78333,-1
8.79167,-1
8.80000,-1
8.80833,-1
8.81667,-1
8.82500,-1
8.83333,-0
8.84167,-0
8.85000,-0
8.85833,-0
8.86667,-0
8.87500,-0
8.88333,-0
8.89167,-0
8.90000,-0
8.90833,-0
8.91667,-0
8.92500,-1
8.93333,-1
8.94167,-1
8.95000,-1
8.95833,-1
8.96667,-1
8.97500,-1
8.98333,-1
8.99167,-1
9.00000,-1
9.00833,-1
9.01667,-1
9.02500,-1
9.03333,-1
9.04167,-1
9.05000,-1
9.05833,-1
9.06667,-1
9.07500,-1
9.08333,-1
9.09167,-1
9.10000,-1
9.10833,-1
9.11667,-1
9.12500,-0
9.13333,-0
9.14167,-0
9.15000,-0
9.15833,-0
9.16667,-0
9.17500,-0
9.18333,-0
9.19167,-0
9.20000,-1
9.20833,-1
9.21667,-1
9.22500,-1
9.23333,-1
9.24167,-1
9.25000,-1
9.25833,-1
9.26667,-1
9.27500,-1
9.28333,-1
9.29167,-1
9.30000,-1
9.30833,-1
9.31667,-1
9.32500,-1
9.33333,-1
9.34167,-1
9.35000,-1
9.35833,-1
9.36667,-1
9.37500,-1
9.38333,-1
9.39167,-1
9.40000,-1
9.40833,-1
9.41667,-1
9.42500,-1
9.43333,-1
9.44167,-1
9.45000,-1
9.45833,-1
9.46667,-1
9.47500,-2
9.48333,-2
9.49167,-1
9.50000,-1
9.50833,-1
9.51667,-1
9.52500,-1
9.53333,-1
9.54167,-1
9.55000,-1
9.55833,-1
9.56667,-1
9.57500,-1
9.58333,-1
9.59167,-1
9.60000,-2
9.60833,-2
9.61667,-1
9.62500,-1
9.63333,-1
9.64167,-1
9.65000,-1
9.65833,-1
9.66667,-1
9.67500,-1
9.68333,-1
9.69167,-1
9.70000,-1
9.70833,-1
9.71667,-1
9.72500,-1
9.73333,-1
9.74167,-1
9.75000,-1
9.75833,-1
9.76667,-1
9.77500,-1
9.78333,-0
9.79167,-0
9.80000,-0
9.80833,-0
9.81667,-0
9.82500,-0
9.83333,-0
9.84167,-1
9.85000,-1
9.85833,-1
9.86667,-1
9.87500,-1
9.88333,-1
9.89167,-1
9.90000,-1
9.90833,-1
9.91667,-1
9.92500,-1
9.93333,-1
9.94167,-0
9.95000,-0
9.95833,-0
9.96667,-0
9.97500,-0
9.98333,-0
9.99167,-0
10.00000,0
10.00833,0
10.01667,0
10.02500,-0
10.03333,-1
10.04167,-1
10.05000,-1
10.05833,-1
10.06667,-1
10.07500,-0
10.08333,-0
10.09167,0
10.10000,0
10.10833,0
10.11667,0
10.12500,0
10.13333,0
10.14167,0
10.15000,-0
10.15833,-0
10.16667,-1
10.17500,-1
10.18333,-0
10.19167,-0
10.20000,-0
10.20833,-0
10.21667,-0
10.22500,-0
10.23333,0
10.24167,0
10.25000,-0
10.25833,-0
10.26667,-0
10.27500,-0
10.28333,-0
10.29167,-0
10.30000,-0
10.30833,-0
10.31667,-0
10.32500,0
10.33333,0
10.34167,0
10.35000,0
10.35833,0
10.36667,0
10.37500,-0
10.38333,0
10.39167,0
10.40000,0
10.40833,-0
10.41667,-1
10.42500,-1
10.43333,-2
10.44167,-3
10.45000,-5
10.45833,-7
10.46667,-9
10.47500,-13
10.48333,-18
10.49167,-25
10.50000,-33
10.50833,-44
10.51667,-58
10.52500,-76
10.53333,-97
10.54167,-122
10.55000,-153
10.55833,-190
10.56667,-234
10.57500,-285
10.58333,-344
10.59167,-412
10.60000,-489
10.60833,-574
10.61667,-669
10.62500,-773
10.63333,-886
10.64167,-1007
10.65000,-1137
10.65833,-1275
10.66667,-1419
10.67500,-1569
10.68333,-1723
10.69167,-1881
10.70000,-2041
10.70833,-2202
10.71667,-2363
10.72500,-2523
10.73333,-2681
10.74167,-2836
10.75000,-2987
10.75833,-3132
10.76667,-3272
10.77500,-3405
10.78333,-3532
10.79167,-3650
10.80000,-3761
10.80833,-3863
10.81667,-3957
10.82500,-4041
10.83333,-4116
10.84167,-4182
10.85000,-4237
10.85833,-4283
10.86667,-4319
10.87500,-4344
10.88333,-4359
10.89167,-4363
10.90000,-4358
10.90833,-4342
10.91667,-4316
10.92500,-4280
10.93333,-4235
10.94167,-4181
10.95000,-4118
10.95833,-4048
10.96667,-3970
10.97500,-3885
10.98333,-3794
10.99167,-3697
11.00000,-3596
11.00833,-3490
11.01667,-3381
11.02500,-3270
11.03333,-3156
11.04167,-3042
11.05000,-2927
11.05833,-2812
11.06667,-2697
11.07500,-2583
11.08333,-2470
11.09167,-2360
11.10000,-2251
11.10833,-2145
11.11667,-2042
11.12500,-1941
11.13333,-1844
11.14167,-1750
11.15000,-1659
11.15833,-1572
11.16667,-1489
11.17500,-1408
11.18333,-1332
11.19167,-1259
11.20000,-1190
11.20833,-1124
11.21667,-1061
11.22500,-1001
11.23333,-945
11.24167,-891
11.25000,-840
11.25833,-791
11.26667,-746
11.27500,-703
11.28333,-663
11.29167,-625
11.30000,-589
11.30833,-555
11.31667,-523
11.32500,-493
11.33333,-464
11.34167,-438
11.35000,-412
11.35833,-389
11.36667,-367
11.37500,-346
11.38333,-326
11.39167,-308
11.40000,-291
11.40833,-275
11.41667,-259
11.42500,-245
11.43333,-231
11.44167,-219
11.45000,-207
11.45833,-196
11.46667,-186
11.47500,-176
11.48333,-168
11.49167,-159
11.50000,-151
11.50833,-144
11.51667,-137
11.52500,-130
11.53333,-123
11.54167,-117
11.55000,-111
11.55833,-106
11.56667,-101
11.57500,-96
11.58333,-92
11.59167,-88
11.60000,-84
11.60833,-81
11.61667,-77
11.62500,-74
11.63333,-71
11.64167,-68
11.65000,-65
11.65833,-63
11.66667,-60
11.67500,-58
11.68333,-56
11.69167,-54
11.70000,-52
11.70833,-51
11.71667,-49
11.72500,-48
11.73333,-47
11.74167,-45
11.75000,-44
11.75833,-43
11.76667,-41
11.77500,-40
11.78333,-39
11.79167,-38
11.80000,-37
11.80833,-36
11.81667,-35
11.82500,-34
11.83333,-33
11.84167,-32
11.85000,-31
11.85833,-31
11.86667,-30
11.87500,-30
11.88333,-29
11.89167,-29
11.90000,-28
11.90833,-27
11.91667,-27
11.92500,-26
11.93333,-25
11.94167,-25
11.95000,-25
11.95833,-24
11.96667,-24
11.97500,-24
11.98333,-24
11.99167,-23
12.00000,-23
12.00833,-22
12.01667,-22
12.02500,-22
12.03333,-21
12.04167,-21
12.05000,-21
12.05833,-20
12.06667,-20
12.07500,-19
12.08333,-19
12.09167,-19
12.10000,-18
12.10833,-18
12.11667,-18
12.12500,-18
12.13333,-17
12.14167,-17
12.15000,-17
12.15833,-18
12.16667,-17
12.17500,-17
12.18333,-17
12.19167,-16
12.20000,-16
12.20833,-16
12.21667,-16
12.22500,-16
12.23333,-16
12.24167,-16
12.25000,-16
12.25833,-16
12.26667,-16
12.27500,-16
12.28333,-16
12.29167,-15
12.30000,-15
12.30833,-14
12.31667,-14
12.32500,-14
12.33333,-14
12.34167,-13
12.35000,-13
12.35833,-13
12.36667,-13
12.37500,-13
12.38333,-13
12.39167,-13
12.40000,-13
12.40833,-13
12.41667,-13
12.42500,-13
12.43333,-13
12.44167,-13
12.45000,-12
12.45833,-12
12.46667,-12
12.47500,-12
12.48333,-12
12.49167,-12
12.50000,-12
12.50833,-12
12.51667,-11
12.52500,-11
12.53333,-11
12.54167,-11
12.55000,-11
12.55833,-11
12.56667,-10
12.57500,-10
12.58333,-10
12.59167,-10
12.60000,-10
12.60833,-10
12.61667,-9
12.62500,-9
12.63333,-9
12.64167,-9
12.65000,-8
12.65833,-9
12.66667,-9
12.67500,-9
12.68333,-9
12.69167,-8
12.70000,-8
12.70833,-9
12.71667,-9
12.72500,-9
12.73333,-9
12.74167,-8
12.75000,-8
12.75833,-8
12.76667,-8
12.77500,-8
12.78333,-8
12.79167,-8
12.80000,-8
12.80833,-8
12.81667,-8
12.82500,-8
12.83333,-7
12.84167,-7
12.85000,-7
12.85833,-7
12.86667,-6
12.87500,-6
12.88333,-6
12.89167,-6
12.90000,-6
12.90833,-6
12.91667,-6
12.92500,-6
12.93333,-6
12.94167,-6
12.95000,-6
12.95833,-6
12.96667,-6
12.97500,-7
12.98333,-7
12.99167,-7
13.00000,-6
13.00833,-6
13.01667,-7
13.02500,-6
13.03333,-6
13.04167,-6
13.05000,-6
13.05833,-6
13.06667,-6
13.07500,-6
13.08333,-6
13.09167,-5
13.10000,-5
13.10833,-4
13.11667,-4
13.12500,-5
13.13333,-5
13.14167,-5
13.15000,-5
13.15833,-5
13.16667,-5
13.17500,-5
13.18333,-5
13.19167,-5
13.20000,-5
13.20833,-5
13.21667,-5
13.22500,-5
13.23333,-6
13.24167,-6
13.25000,-5
13.25833,-5
13.26667,-4
13.27500,-4
13.28333,-4
13.29167,-3
13.30000,-3
13.30833,-3
13.31667,-3
13.32500,-3
13.33333,-3
13.34167,-3
13.35000,-3
13.35833,-3
13.36667,-4
13.37500,-4
13.38333,-4
13.39167,-5
13.40000,-5
13.40833,-5
13.41667,-4
13.42500,-4
13.43333,-4
13.44167,-4
13.45000,-4
13.45833,-3
13.46667,-3
13.47500,-3
13.48333,-2
13.49167,-2
13.50000,-3
13.50833,-3
13.51667,-3
13.52500,-2
13.53333,-2
13.54167,-2
13.55000,-2
13.55833,-2
13.56667,-2
13.57500,-2
13.58333,-3
13.59167,-3
13.60000,-3
13.60833,-3
13.61667,-3
13.62500,-2
13.63333,-2
13.64167,-2
13.65000,-2
13.65833,-2
13.66667,-2
13.67500,-1
13.68333,-1
13.69167,-1
13.70000,-1
13.70833,-1
13.71667,-1
13.72500,-1
13.73333,-2
13.74167,-2
13.75000,-2
13.75833,-2
13.76667,-1
13.77500,-1
13.78333,-1
13.79167,-1
13.80000,-1
13.80833,-1
13.81667,-1
13.82500,-1
13.83333,-1
13.84167,-1
13.85000,-1
13.85833,-1
13.86667,-1
13.87500,-1
13.88333,-1
13.89167,-1
13.90000,-1
13.90833,-1
13.91667,-0
13.92500,-0
13.93333,-0
13.94167,-0
13.95000,-0
13.95833,-1
13.96667,-0
13.97500,-0
13.98333,-0
13.99167,-0
14.00000,-0
14.00833,0
14.01667,-0
14.02500,-0
14.03333,-0
14.04167,0
14.05000,-0
14.05833,-0
14.06667,-0
14.07500,-0
14.08333,-0
14.09167,-0
14.10000,-0
14.10833,-0
14.11667,-0
14.12500,0
14.13333,0
14.14167,-0
14.15000,-0
14.15833,-0
14.16667,-0
14.17500,-0
14.18333,-0
14.19167,-0
14.20000,-1
14.20833,-1
14.21667,-1
14.22500,-0
14.23333,0
14.24167,0
14.25000,0
14.25833,-0
14.26667,-0
14.27500,-0
14.28333,-0
14.29167,-0
14.30000,-0
14.30833,-0
14.31667,-0
14.32500,-0
14.33333,0
14.34167,-0
14.35000,-0
14.35833,-0
14.36667,0
14.37500,0
14.38333,-0
14.39167,-0
14.40000,-0
14.40833,-0
14.41667,0
14.42500,0
14.43333,1
14.44167,1
14.45000,1
14.45833,1
14.46667,1
14.47500,1
14.48333,1
14.49167,1
14.50000,1
14.50833,1
14.51667,1
14.52500,1
14.53333,1
14.54167,1
14.55000,1
14.55833,0
14.56667,0
14.57500,1
14.58333,1
14.59167,1
14.60000,2
14.60833,2
14.61667,1
14.62500,1
14.63333,1
14.64167,1
14.65000,1
14.65833,1
14.66667,1
14.67500,1
14.68333,1
14.69167,1
14.70000,1
14.70833,2
14.71667,2
14.72500,2
14.73333,2
14.74167,2
14.75000,2
14.75833,2
14.76667,2
14.77500,2
14.78333,2
14.79167,2
14.80000,3
14.80833,3
14.81667,3
14.82500,3
14.83333,3
14.84167,3
14.85000,3
14.85833,3
14.86667,3
14.87500,3
14.88333,3
14.89167,3
14.90000,3
14.90833,3
14.91667,3
14.92500,4
14.93333,4
14.94167,4
14.95000,4
14.95833,4
14.96667,4
14.97500,4
14.98333,4
14.99167,4
15.00000,4
15.00833,4
15.01667,3
15.02500,3
15.03333,3
15.04167,3
15.05000,3
15.05833,3
15.06667,3
15.07500,3
15.08333,3
15.09167,2
15.10000,2
15.10833,2
15.11667,2
15.12500,2
15.13333,3
15.14167,3
15.15000,3
15.15833,3
15.16667,3
15.17500,3
15.18333,3
15.19167,3
15.20000,3
15.20833,3
15.21667,3
15.22500,3
15.23333,3
15.24167,3
15.25000,3
15.25833,2
15.26667,2
15.27500,2
15.28333,2
15.29167,2
15.30000,2
15.30833,3
15.31667,3
15.32500,3
15.33333,3
15.34167,3
15.35000,2
15.35833,2
15.36667,1
15.37500,1
15.38333,1
15.39167,2
15.40000,2
15.40833,2
15.41667,2
15.42500,2
15.43333,2
15.44167,2
15.45000,2
15.45833,2
15.46667,2
15.47500,2
15.48333,2
15.49167,2
15.50000,3
15.50833,3
15.51667,2
15.52500,2
15.53333,2
15.54167,2
15.55000,2
15.55833,2
15.56667,3
15.57500,3
15.58333,3
15.59167,3
15.60000,3
15.60833,3
15.61667,3
15.62500,3
15.63333,3
15.64167,3
15.65000,2
15.65833,2
15.66667,2
15.67500,2
15.68333,2
15.69167,2
15.70000,2
15.70833,2
15.71667,2
15.72500,2
15.73333,2
15.74167,2
15.75000,2
15.75833,2
15.76667,3
15.77500,3
15.78333,3
15.79167,3
15.80000,3
15.80833,3
15.81667,3
15.82500,3
15.83333,3
15.84167,3
15.85000,3
15.85833,3
15.86667,3
15.87500,3
15.88333,3
15.89167,3
15.90000,3
15.90833,3
15.91667,3
15.92500,4
15.93333,3
15.94167,3
15.95000,3
15.95833,3
15.96667,3
15.97500,4
15.98333,4
15.99167,4
16.00000,3
16.00833,3
16.01667,4
16.02500,4
16.03333,4
16.04167,3
16.05000,3
16.05833,4
16.06667,4
16.07500,3
16.08333,3
16.09167,3
16.10000,3
16.10833,3
16.11667,3
16.12500,4
16.13333,4
16.14167,4
16.15000,4
16.15833,4
16.16667,4
16.17500,4
16.18333,4
16.19167,4
16.20000,4
16.20833,4
16.21667,4
16.22500,4
16.23333,4
16.24167,4
16.25000,4
16.25833,4
16.26667,4
16.27500,4
16.28333,4
16.29167,3
16.30000,3
16.30833,3
16.31667,4
16.32500,4
16.33333,4
16.34167,4
16.35000,4
16.35833,4
16.36667,4
16.37500,4
16.38333,4
16.39167,4
16.40000,4
16.40833,4
16.41667,4
16.42500,4
16.43333,4
16.44167,4
16.45000,4
16.45833,4
16.46667,4
16.47500,4
16.48333,4
16.49167,4
16.50000,5
16.50833,4
16.51667,4
16.52500,4
16.53333,4
16.54167,4
16.55000,4
16.55833,3
16.56667,3
16.57500,3
16.58333,3
16.59167,3
16.60000,3
16.60833,4
16.61667,4
16.62500,4
16.63333,4
16.64167,4
16.65000,4
16.65833,4
16.66667,4
16.67500,4
16.68333,4
16.69167,4
16.70000,4
16.70833,4
16.71667,4
16.72500,4
16.73333,4
16.74167,4
16.75000,4
16.75833,3
16.76667,3
16.77500,4
16.78333,4
16.79167,4
16.80000,4
16.80833,4
16.81667,5
16.82500,5
16.83333,5
16.84167,5
16.85000,5
16.85833,4
16.86667,4
16.87500,4
16.88333,4
16.89167,4
16.90000,4
16.90833,4
16.91667,4
16.92500,4
16.93333,4
16.94167,4
16.95000,4
16.95833,4
16.96667,4
16.97500,4
16.98333,4
16.99167,4
17.00000,4
17.00833,4
17.01667,5
17.02500,5
17.03333,5
17.04167,5
17.05000,5
17.05833,5
17.06667,5
17.07500,5
17.08333,5
17.09167,5
17.10000,5
17.10833,5
17.11667,5
17.12500,5
17.13333,4
17.14167,4
17.15000,4
17.15833,4
17.16667,4
17.17500,4
17.18333,4
17.19167,5
17.20000,5
17.20833,5
17.21667,5
17.22500,5
17.23333,5
17.24167,5
17.25000,4
17.25833,4
17.26667,4
17.27500,4
17.28333,4
17.29167,4
17.30000,4
17.30833,4
17.31667,4
17.32500,4
17.33333,4
17.34167,4
17.35000,4
17.35833,4
17.36667,4
17.37500,5
17.38333,5
17.39167,5
17.40000,5
17.40833,6
17.41667,6
17.42500,6
17.43333,5
17.44167,5
17.45000,5
17.45833,5
17.46667,5
17.47500,5
17.48333,5
17.49167,6
17.50000,6
17.50833,5
17.51667,5
17.52500,5
17.53333,5
17.54167,5
17.55000,5
17.55833,5
17.56667,4
17.57500,4
17.58333,5
17.59167,5
17.60000,5
17.60833,5
17.61667,5
17.62500,5
17.63333,5
17.64167,5
17.65000,5
17.65833,5
17.66667,6
17.67500,6
17.68333,6
17.69167,5
17.70000,6
17.70833,6
17.71667,6
17.72500,7
17.73333,7
17.74167,7
17.75000,7
17.75833,7
17.76667,6
17.77500,6
17.78333,6
17.79167,6
17.80000,6
17.80833,6
17.81667,6
17.82500,7
17.83333,7
17.84167,7
17.85000,7
17.85833,6
17.86667,6
17.87500,6
17.88333,5
17.89167,6
17.90000,6
17.90833,6
17.91667,6
17.92500,6
17.93333,6
17.94167,6
17.95000,6
17.95833,6
17.96667,6
17.97500,7
17.98333,7
17.99167,6
18.00000,6
18.00833,6
18.01667,6
18.02500,7
18.03333,7
18.04167,7
18.05000,6
18.05833,6
18.06667,6
18.07500,6
18.08333,6
18.09167,6
18.10000,6
18.10833,7
18.11667,7
18.12500,7
18.13333,7
18.14167,7
18.15000,7
18.15833,8
18.16667,9
18.17500,10
18.18333,11
18.19167,12
18.20000,13
18.20833,14
18.21667,15
18.22500,17
18.23333,18
18.24167,20
18.25000,21
18.25833,23
18.26667,25
18.27500,27
18.28333,30
18.29167,33
18.30000,36
18.30833,40
18.31667,44
18.32500,49
18.33333,54
18.34167,59
18.35000,64
18.35833,70
18.36667,75
18.37500,81
18.38333,87
18.39167,94
18.40000,101
18.40833,108
18.41667,115
18.42500,123
18.43333,131
18.44167,139
18.45000,147
18.45833,156
18.46667,164
18.47500,173
18.48333,181
18.49167,190
18.50000,200
18.50833,209
18.51667,217
18.52500,226
18.53333,235
18.54167,244
18.55000,253
18.55833,261
18.56667,269
18.57500,277
18.58333,285
18.59167,293
18.60000,300
18.60833,307
18.61667,313
18.62500,319
18.63333,326
18.64167,331
18.65000,337
18.65833,342
18.66667,347
18.67500,351
18.68333,356
18.69167,360
18.70000,365
18.70833,369
18.71667,372
18.72500,375
18.73333,377
18.74167,380
18.75000,382
18.75833,384
18.76667,386
18.77500,387
18.78333,388
18.79167,389
18.80000,390
18.80833,391
18.81667,391
18.82500,391
18.83333,391
18.84167,390
18.85000,390
18.85833,389
18.86667,387
18.87500,386
18.88333,384
18.89167,381
18.90000,379
18.90833,376
18.91667,373
18.92500,370
18.93333,366
18.94167,363
18.95000,359
18.95833,355
18.96667,350
18.97500,346
18.98333,341
18.99167,336
19.00000,332
19.00833,326
19.01667,320
19.02500,315
19.03333,310
19.04167,305
19.05000,299
19.05833,294
19.06667,288
19.07500,282
19.08333,276
19.09167,271
19.10000,266
19.10833,260
19.11667,255
19.12500,250
19.13333,246
19.14167,242
19.15000,238
19.15833,234
19.16667,230
19.17500,227
19.18333,225
19.19167,222
19.20000,220
19.20833,218
19.21667,217
19.22500,216
19.23333,215
19.24167,216
19.25000,216
19.25833,217
19.26667,219
19.27500,222
19.28333,225
19.29167,228
19.30000,232
19.30833,236
19.31667,241
19.32500,246
19.33333,251
19.34167,257
19.35000,263
19.35833,270
19.36667,277
19.37500,284
19.38333,291
19.39167,299
19.40000,306
19.40833,314
19.41667,322
19.42500,331
19.43333,339
19.44167,347
19.45000,356
19.45833,364
19.46667,372
19.47500,379
19.48333,387
19.49167,394
19.50000,402
19.50833,410
19.51667,417
19.52500,424
19.53333,431
19.54167,437
19.55000,443
19.55833,449
19.56667,455
19.57500,460
19.58333,465
19.59167,470
19.60000,474
19.60833,478
19.61667,482
19.62500,486
19.63333,488
19.64167,491
19.65000,493
19.65833,496
19.66667,498
19.67500,500
19.68333,502
19.69167,503
19.70000,504
19.70833,505
19.71667,505
19.72500,505
19.73333,506
19.74167,506
19.75000,505
19.75833,504
19.76667,503
19.77500,501
19.78333,499
19.79167,497
19.80000,494
19.80833,491
19.81667,489
19.82500,486
19.83333,483
19.84167,479
19.85000,475
19.85833,471
19.86667,466
19.87500,462
19.88333,457
19.89167,452
19.90000,446
19.90833,440
19.91667,434
19.92500,428
19.93333,422
19.94167,415
19.95000,408
19.95833,401
19.96667,394
19.97500,387
19.98333,380
19.99167,373
20.00000,366
20.00833,358
20.01667,351
20.02500,343
20.03333,336
20.04167,329
20.05000,321
20.05833,314
20.06667,307
20.07500,300
20.08333,293
20.09167,286
20.10000,280
20.10833,273
20.11667,266
20.12500,260
20.13333,253
20.14167,248
20.15000,242
20.15833,236
20.16667,230
20.17500,225
20.18333,220
20.19167,215
20.20000,210
20.20833,206
20.21667,202
20.22500,197
20.23333,193
20.24167,189
20.25000,186
20.25833,182
20.26667,180
20.27500,177
20.28333,174
20.29167,172
20.30000,169
20.30833,166
20.31667,164
20.32500,162
20.33333,160
20.34167,158
20.35000,156
20.35833,154
20.36667,153
20.37500,151
20.38333,150
20.39167,149
20.40000,148
20.40833,147
20.41667,146
20.42500,145
20.43333,145
20.44167,144
20.45000,143
20.45833,143
20.46667,142
20.47500,141
20.48333,141
20.49167,140
20.50000,140
20.50833,140
20.51667,140
20.52500,140
20.53333,140
20.54167,140
20.55000,140
20.55833,140
20.56667,140
20.57500,140
20.58333,141
20.59167,141
20.60000,142
20.60833,142
20.61667,143
20.62500,143
20.63333,144
20.64167,144
20.65000,145
20.65833,146
20.66667,148
20.67500,149
20.68333,151
20.69167,153
20.70000,155
20.70833,158
20.71667,160
20.72500,164
20.73333,168
20.74167,173
20.75000,179
20.75833,185
20.76667,192
20.77500,200
20.78333,209
20.79167,219
20.80000,230
20.80833,242
20.81667,256
20.82500,272
20.83333,288
20.84167,307
20.85000,327
20.85833,350
20.86667,374
20.87500,399
20.88333,427
20.89167,456
20.90000,488
20.90833,523
20.91667,559
20.92500,597
20.93333,637
20.94167,679
20.95000,722
20.95833,767
20.96667,814
20.97500,863
20.98333,913
20.99167,965
21.00000,1018
21.00833,1072
21.01667,1126
21.02500,1182
21.03333,1237
21.04167,1293
21.05000,1349
21.05833,1404
21.06667,1460
21.07500,1515
21.08333,1569
21.09167,1622
21.10000,1674
21.10833,1725
21.11667,1774
21.12500,1823
21.13333,1869
21.14167,1914
21.15000,1958
21.15833,1999
21.16667,2039
21.17500,2077
21.18333,2113
21.19167,2147
21.20000,2179
21.20833,2209
21.21667,2238
21.22500,2265
21.23333,2291
21.24167,2315
21.25000,2337
21.25833,2357
21.26667,2376
21.27500,2394
21.28333,2410
21.29167,2425
21.30000,2439
21.30833,2452
21.31667,2463
21.32500,2472
21.33333,2481
21.34167,2489
21.35000,2496
21.35833,2501
21.36667,2505
21.37500,2507
21.38333,2508
21.39167,2508
21.40000,2507
21.40833,2504
21.41667,2500
21.42500,2494
21.43333,2486
21.44167,2477
21.45000,2467
21.45833,2454
21.46667,2440
21.47500,2423
21.48333,2405
21.49167,2385
21.50000,2362
21.50833,2338
21.51667,2312
21.52500,2285
21.53333,2255
21.54167,2224
21.55000,2191
21.55833,2155
21.56667,2118
21.57500,2080
21.58333,2040
21.59167,1999
21.60000,1956
21.60833,1912
21.61667,1867
21.62500,1822
21.63333,1775
21.64167,1727
21.65000,1679
21.65833,1630
21.66667,1581
21.67500,1531
21.68333,1481
21.69167,1431
21.70000,1382
21.70833,1333
21.71667,1284
21.72500,1236
21.73333,1189
21.74167,1142
21.75000,1095
21.75833,1050
21.76667,1005
21.77500,961
21.78333,919
21.79167,877
21.80000,836
21.80833,797
21.81667,759
21.82500,722
21.83333,687
21.84167,653
21.85000,620
21.85833,589
21.86667,559
21.87500,530
21.88333,502
21.89167,475
21.90000,450
21.90833,426
21.91667,403
21.92500,381
21.93333,360
21.94167,341
21.95000,322
21.95833,305
21.96667,289
21.97500,273
21.98333,258
21.99167,245
22.00000,232
22.00833,220
22.01667,208
22.02500,197
22.03333,186
22.04167,177
22.05000,168
22.05833,160
22.06667,152
22.07500,144
22.08333,137
22.09167,131
22.10000,125
22.10833,119
22.11667,114
22.12500,109
22.13333,105
22.14167,100
22.15000,97
22.15833,93
22.16667,90
22.17500,87
22.18333,84
22.19167,82
22.20000,79
22.20833,77
22.21667,75
22.22500,73
22.23333,71
22.24167,69
22.25000,67
22.25833,65
22.26667,63
22.27500,62
22.28333,60
22.29167,59
22.30000,58
22.30833,57
22.31667,56
22.32500,55
22.33333,54
22.34167,54
22.35000,53
22.35833,52
22.36667,52
22.37500,51
22.38333,50
22.39167,49
22.40000,48
22.40833,48
22.41667,47
22.42500,47
22.43333,47
22.44167,47
22.45000,46
22.45833,46
22.46667,45
22.47500,45
22.48333,45
22.49167,44
22.50000,44
22.50833,44
22.51667,43
22.52500,43
22.53333,42
22.54167,42
22.55000,42
22.55833,42
22.56667,42
22.57500,41
22.58333,41
22.59167,41
22.60000,41
22.60833,40
22.61667,40
22.62500,40
22.63333,39
22.64167,39
22.65000,38
22.65833,38
22.66667,38
22.67500,38
22.68333,38
22.69167,38
22.70000,38
22.70833,38
22.71667,37
22.72500,37
22.73333,37
22.74167,37
22.75000,37
22.75833,37
22.76667,37
22.77500,36
22.78333,36
22.79167,35
22.80000,35
22.80833,35
22.81667,35
22.82500,35
22.83333,35
22.84167,35
22.85000,35
22.85833,35
22.86667,35
22.87500,34
22.88333,34
22.89167,34
22.90000,33
22.90833,33
22.91667,33
22.92500,33
22.93333,33
22.94167,33
22.95000,32
22.95833,32
22.96667,32
22.97500,32
22.98333,31
22.99167,31
23.00000,31
23.00833,30
23.01667,30
23.02500,30
23.03333,30
23.04167,30
23.05000,30
23.05833,31
23.06667,31
23.07500,31
23.08333,31
23.09167,31
23.10000,31
23.10833,30
23.11667,29
23.12500,29
23.13333,28
23.14167,28
23.15000,28
23.15833,29
23.16667,29
23.17500,29
23.18333,29
23.19167,29
23.20000,28
23.20833,28
23.21667,28
23.22500,28
23.23333,27
23.24167,27
23.25000,27
23.25833,27
23.26667,27
23.27500,27
23.28333,27
23.29167,27
23.30000,27
23.30833,27
23.31667,26
23.32500,26
23.33333,26
23.34167,26
23.35000,26
23.35833,26
23.36667,26
23.37500,26
23.38333,26
23.39167,27
23.40000,27
23.40833,26
23.41667,26
23.42500,26
23.43333,26
23.44167,26
23.45000,26
23.45833,25
23.46667,25
23.47500,25
23.48333,25
23.49167,26
23.50000,26
23.50833,25
23.51667,25
23.52500,25
23.53333,25
23.54167,25
23.55000,25
23.55833,25
23.56667,24
23.57500,25
23.58333,25
23.59167,24
23.60000,24
23.60833,24
23.61667,24
23.62500,24
23.63333,24
23.64167,24
23.65000,23
23.65833,23
23.66667,23
23.67500,24
23.68333,24
23.69167,23
23.70000,23
23.70833,23
23.71667,23
23.72500,23
23.73333,23
23.74167,23
23.75000,23
23.75833,23
23.76667,23
23.77500,23
23.78333,23
23.79167,23
23.80000,23
23.80833,23
23.81667,23
23.82500,23
23.83333,23
23.84167,23
23.85000,23
23.85833,23
23.86667,23
23.87500,23
23.88333,23
23.89167,23
23.90000,22
23.90833,22
23.91667,22
23.92500,22
23.93333,21
23.94167,21
23.95000,22
23.95833,22
23.96667,22
23.97500,21
23.98333,21
23.99167,22
24.00000,22
24.00833,22
24.01667,22
24.02500,22
24.03333,22
24.04167,22
24.05000,22
24.05833,22
24.06667,22
24.07500,21
24.08333,21
24.09167,21
24.10000,21
24.10833,21
24.11667,21
24.12500,21
24.13333,21
24.14167,21
24.15000,21
24.15833,21
24.16667,20
24.17500,20
24.18333,21
24.19167,21
24.20000,21
24.20833,21
24.21667,21
24.22500,20
24.23333,20
24.24167,20
24.25000,20
24.25833,20
24.26667,20
24.27500,20
24.28333,20
24.29167,19
24.30000,19
24.30833,20
24.31667,19
24.32500,19
24.33333,19
24.34167,20
24.35000,20
24.35833,20
24.36667,20
24.37500,20
24.38333,20
24.39167,20
24.40000,20
24.40833,20
24.41667,20
24.42500,20
24.43333,20
24.44167,20
24.45000,20
24.45833,21
24.46667,21
24.47500,21
24.48333,21
24.49167,21
24.50000,21
24.50833,21
24.51667,21
24.52500,22
24.53333,22
24.54167,22
24.55000,22
24.55833,22
24.56667,22
24.57500,22
24.58333,22
24.59167,22
24.60000,22
24.60833,22
24.61667,22
24.62500,22
24.63333,22
24.64167,23
24.65000,23
24.65833,23
24.66667,22
24.67500,22
24.68333,22
24.69167,22
24.70000,22
24.70833,21
24.71667,21
24.72500,21
24.73333,21
24.74167,22
24.75000,22
24.75833,22
24.76667,23
24.77500,23
24.78333,23
24.79167,23
24.80000,23
24.80833,23
24.81667,23
24.82500,23
24.83333,23
24.84167,23
24.85000,23
24.85833,22
24.86667,22
24.87500,23
24.88333,23
24.89167,23
24.90000,23
24.90833,23
24.91667,22
24.92500,22
24.93333,22
24.94167,22
24.95000,23
24.95833,23
24.96667,23
24.97500,23
24.98333,23
24.99167,22
25.00000,22
25.00833,22
25.01667,22
25.02500,21
25.03333,21
25.04167,21
25.05000,21
25.05833,21
25.06667,21
25.07500,21
25.08333,20
25.09167,20
25.10000,20
25.10833,20
25.11667,21
25.12500,21
25.13333,20
25.14167,20
25.15000,20
25.15833,20
25.16667,19
25.17500,19
25.18333,20
25.19167,20
25.20000,19
25.20833,19
25.21667,19
25.22500,19
25.23333,19
25.24167,18
25.25000,18
25.25833,18
25.26667,18
25.27500,18
25.28333,18
25.29167,19
25.30000,19
25.30833,18
25.31667,18
25.32500,17
25.33333,17
25.34167,17
25.35000,17
25.35833,17
25.36667,17
25.37500,16
25.38333,16
25.39167,16
25.40000,16
25.40833,16
25.41667,16
25.42500,16
25.43333,17
25.44167,17
25.45000,17
25.45833,16
25.46667,16
25.47500,16
25.48333,16
25.49167,16
25.50000,16
25.50833,16
25.51667,16
25.52500,16
25.53333,16
25.54167,16
25.55000,16
25.55833,15
25.56667,15
25.57500,15
25.58333,15
25.59167,15
25.60000,15
25.60833,15
25.61667,15
25.62500,15
25.63333,14
25.64167,14
25.65000,14
25.65833,15
25.66667,15
25.67500,15
25.68333,15
25.69167,15
25.70000,15
25.70833,15
25.71667,15
25.72500,15
25.73333,15
25.74167,15
25.75000,15
25.75833,15
25.76667,15
25.77500,15
25.78333,14
25.79167,15
25.80000,15
25.80833,14
25.81667,14
25.82500,14
25.83333,14
25.84167,14
25.85000,14
25.85833,14
25.86667,14
25.87500,15
25.88333,15
25.89167,15
25.90000,15
25.90833,15
25.91667,15
25.92500,15
25.93333,15
25.94167,15
25.95000,15
25.95833,15
25.96667,15
25.97500,14
25.98333,15
25.99167,15
26.00000,15
26.00833,15
26.01667,15
26.02500,15
26.03333,15
26.04167,15
26.05000,15
26.05833,15
26.06667,15
26.07500,15
26.08333,15
26.09167,15
26.10000,15
26.10833,15
26.11667,15
26.12500,15
26.13333,15
26.14167,15
26.15000,15
26.15833,15
26.16667,15
26.17500,15
26.18333,15
26.19167,15
26.20000,15
26.20833,15
26.21667,15
26.22500,15
26.23333,15
26.24167,15
26.25000,15
26.25833,15
26.26667,15
26.27500,15
26.28333,14
26.29167,14
26.30000,14
26.30833,14
26.31667,14
26.32500,14
26.33333,14
26.34167,15
26.35000,14
26.35833,14
26.36667,14
26.37500,14
26.38333,13
26.39167,14
26.40000,14
26.40833,14
26.41667,14
26.42500,14
26.43333,14
26.44167,14
26.45000,14
26.45833,14
26.46667,14
26.47500,14
26.48333,14
26.49167,15
26.50000,15
26.50833,15
26.51667,15
26.52500,15
26.53333,15
26.54167,15
26.55000,14
26.55833,14
26.56667,13
26.57500,13
26.58333,13
26.59167,13
26.60000,13
26.60833,13
26.61667,13
26.62500,12
26.63333,12
26.64167,12
26.65000,12
26.65833,12
26.66667,12
26.67500,12
26.68333,12
26.69167,12
26.70000,11
26.70833,11
26.71667,10
26.72500,10
26.73333,9
26.74167,9
26.75000,8
26.75833,8
26.76667,7
26.77500,6
26.78333,6
26.79167,6
26.80000,5
26.80833,4
26.81667,4
26.82500,3
26.83333,1
26.84167,0
26.85000,-1
26.85833,-2
26.86667,-3
26.87500,-5
26.88333,-6
26.89167,-7
26.90000,-8
26.90833,-8
26.91667,-10
26.92500,-11
26.93333,-12
26.94167,-14
26.95000,-15
26.95833,-17
26.96667,-18
26.97500,-19
26.98333,-21
26.99167,-23
27.00000,-25
27.00833,-27
27.01667,-29
27.02500,-31
27.03333,-33
27.04167,-35
27.05000,-37
27.05833,-39
27.06667,-41
27.07500,-43
27.08333,-45
27.09167,-47
27.10000,-49
27.10833,-51
27.11667,-53
27.12500,-55
27.13333,-57
27.14167,-59
27.15000,-61
27.15833,-63
27.16667,-66
27.17500,-68
27.18333,-70
27.19167,-71
27.20000,-73
27.20833,-75
27.21667,-77
27.22500,-79
27.23333,-81
27.24167,-83
27.25000,-86
27.25833,-88
27.26667,-90
27.27500,-91
27.28333,-93
27.29167,-94
27.30000,-96
27.30833,-98
27.31667,-100
27.32500,-101
27.33333,-103
27.34167,-104
27.35000,-105
27.35833,-106
27.36667,-108
27.37500,-109
27.38333,-110
27.39167,-111
27.40000,-112
27.40833,-113
27.41667,-114
27.42500,-115
27.43333,-116
27.44167,-117
27.45000,-117
27.45833,-118
27.46667,-119
27.47500,-119
27.48333,-120
27.49167,-120
27.50000,-120
27.50833,-120
27.51667,-120
27.52500,-120
27.53333,-121
27.54167,-120
27.55000,-120
27.55833,-120
27.56667,-120
27.57500,-119
27.58333,-119
27.59167,-118
27.60000,-117
27.60833,-116
27.61667,-115
27.62500,-114
27.63333,-114
27.64167,-113
27.65000,-112
27.65833,-111
27.66667,-109
27.67500,-108
27.68333,-107
27.69167,-105
27.70000,-104
27.70833,-102
27.71667,-100
27.72500,-98
27.73333,-96
27.74167,-94
27.75000,-92
27.75833,-90
27.76667,-89
27.77500,-87
27.78333,-85
27.79167,-84
27.80000,-82
27.80833,-80
27.81667,-78
27.82500,-76
27.83333,-74
27.84167,-72
27.85000,-70
27.85833,-67
27.86667,-65
27.87500,-63
27.88333,-61
27.89167,-59
27.90000,-57
27.90833,-55
27.91667,-54
27.92500,-52
27.93333,-50
27.94167,-48
27.95000,-46
27.95833,-44
27.96667,-43
27.97500,-41
27.98333,-40
27.99167,-39
28.00000,-37
28.00833,-36
28.01667,-34
28.02500,-33
28.03333,-31
28.04167,-30
28.05000,-28
28.05833,-27
28.06667,-26
28.07500,-25
28.08333,-24
28.09167,-23
28.10000,-22
28.10833,-21
28.11667,-20
28.12500,-18
28.13333,-17
28.14167,-16
28.15000,-15
28.15833,-15
28.16667,-14
28.17500,-13
28.18333,-12
28.19167,-12
28.20000,-11
28.20833,-10
28.21667,-10
28.22500,-9
28.23333,-8
28.24167,-7
28.25000,-7
28.25833,-6
28.26667,-5
28.27500,-5
28.28333,-5
28.29167,-5
28.30000,-5
28.30833,-4
28.31667,-4
28.32500,-4
28.33333,-4
28.34167,-3
28.35000,-3
28.35833,-2
28.36667,-2
28.37500,-2
28.38333,-2
28.39167,-2
28.40000,-2
28.40833,-2
28.41667,-2
28.42500,-2
28.43333,-2
28.44167,-2
28.45000,-2
28.45833,-2
28.46667,-2
28.47500,-2
28.48333,-2
28.49167,-2
28.50000,-2
28.50833,-3
28.51667,-3
28.52500,-3
28.53333,-3
28.54167,-3
28.55000,-4
28.55833,-4
28.56667,-4
28.57500,-5
28.58333,-5
28.59167,-6
28.60000,-6
28.60833,-6
28.61667,-6
28.62500,-7
28.63333,-7
28.64167,-8
28.65000,-8
28.65833,-9
28.66667,-9
28.67500,-9
28.68333,-10
28.69167,-10
28.70000,-11
28.70833,-11
28.71667,-12
28.72500,-12
28.73333,-13
28.74167,-14
28.75000,-15
28.75833,-16
28.76667,-16
28.77500,-17
28.78333,-18
28.79167,-18
28.80000,-19
28.80833,-20
28.81667,-21
28.82500,-21
28.83333,-22
28.84167,-22
28.85000,-23
28.85833,-24
28.86667,-24
28.87500,-25
28.88333,-26
28.89167,-27
28.90000,-27
28.90833,-28
28.91667,-29
28.92500,-30
28.93333,-31
28.94167,-31
28.95000,-32
28.95833,-32
28.96667,-33
28.97500,-33
28.98333,-34
28.99167,-34
29.00000,-34
29.00833,-35
29.01667,-36
29.02500,-37
29.03333,-37
29.04167,-38
29.05000,-39
29.05833,-39
29.06667,-39
29.07500,-40
29.08333,-40
29.09167,-40
29.10000,-40
29.10833,-40
29.11667,-40
29.12500,-40
29.13333,-41
29.14167,-41
29.15000,-41
29.15833,-41
29.16667,-41
29.17500,-41
29.18333,-41
29.19167,-41
29.20000,-41
29.20833,-41
29.21667,-41
29.22500,-41
29.23333,-41
29.24167,-41
29.25000,-41
29.25833,-41
29.26667,-41
29.27500,-41
29.28333,-41
29.29167,-40
29.30000,-40
29.30833,-39
29.31667,-39
29.32500,-39
29.33333,-39
29.34167,-38
29.35000,-38
29.35833,-38
29.36667,-37
29.37500,-36
29.38333,-36
29.39167,-35
29.40000,-34
29.40833,-33
29.41667,-33
29.42500,-32
29.43333,-32
29.44167,-31
29.45000,-31
29.45833,-30
29.46667,-29
29.47500,-28
29.48333,-28
29.49167,-28
29.50000,-27
29.50833,-26
29.51667,-25
29.52500,-24
29.53333,-23
29.54167,-22
29.55000,-22
29.55833,-21
29.56667,-20
29.57500,-19
29.58333,-18
29.59167,-18
29.60000,-17
29.60833,-17
29.61667,-17
29.62500,-16
29.63333,-16
29.64167,-15
29.65000,-14
29.65833,-13
29.66667,-12
29.67500,-12
29.68333,-11
29.69167,-10
29.70000,-10
29.70833,-9
29.71667,-8
29.72500,-7
29.73333,-6
29.74167,-6
29.75000,-5
29.75833,-5
29.76667,-4
29.77500,-3
29.78333,-3
29.79167,-2
29.80000,-2
29.80833,-2
29.81667,-1
29.82500,-1
29.83333,-1
29.84167,-0
29.85000,0
29.85833,1
29.86667,1
29.87500,2
29.88333,2
29.89167,3
29.90000,3
29.90833,3
29.91667,4
29.92500,4
29.93333,4
29.94167,4
29.95000,4
29.95833,5
29.96667,5
29.97500,5
29.98333,5
29.99167,5
30.00000,5

