[Header]
Application Name,LabSolutions
Version,5.97 SP1
Data File Name,C:\Users\cremerlab\Desktop\Richa\Aug 2nd 2023 lac suc cal in water\lac suc cal water 2.5mM_822023_001_005.lcd
Output Date,8/2/2023
Output Time,3:36:55 PM

[File Information]
Type,Data File
Generated,8/2/2023 3:06:32 PM
Generated by,System Administrator
Modified,8/2/2023 3:36:54 PM
Modified by,System Administrator

[Sample Information]
Operator Name,System Administrator
Acquired,8/2/2023 3:06:53 PM
Sample Type,1:Standard
Level,1
Sample Name,230802_lactate_8mM001
Sample ID,001
ISTD Amount1,1
ISTD Amount2,1
ISTD Amount3,1
ISTD Amount4,1
ISTD Amount5,1
ISTD Amount6,1
ISTD Amount7,1
ISTD Amount8,1
ISTD Amount9,1
ISTD Amount10,1
ISTD Amount11,1
ISTD Amount12,1
ISTD Amount13,1
ISTD Amount14,1
ISTD Amount15,1
ISTD Amount16,1
ISTD Amount17,1
ISTD Amount18,1
ISTD Amount19,1
ISTD Amount20,1
ISTD Amount21,1
ISTD Amount22,1
ISTD Amount23,1
ISTD Amount24,1
ISTD Amount25,1
ISTD Amount26,1
ISTD Amount27,1
ISTD Amount28,1
ISTD Amount29,1
ISTD Amount30,1
ISTD Amount31,1
ISTD Amount32,1
Sample Amount,1
Dilution Factor,1
Vial#,4
Injection Volume,20

[Original Files]
Data File,C:\Users\cremerlab\Desktop\Richa\Aug 2nd 2023 lac suc cal in water\lac suc cal water 2.5mM_822023_001_005.lcd
Method File,C:\Users\cremerlab\Desktop\Richa\organic_acids_excretion.lcm
Batch File,C:\Users\cremerlab\Desktop\Richa\Aug 2nd 2023 lac suc cal in water\lac suc cal water 2.5mM.lcb
Report Format File,c:\LabSolutions\System\DEFAULT.lsr

[File Description]


[Configuration]
Instrument Name,HPLC-PC-Instrument1
Instrument #,1
Line #,1
# of Detectors,2
Detector ID,Detector A,Detector B
Detector Name,Detector A,Detector B
# of Channels,1,1

[LC Chromatogram(Detector A-Ch1)]
Interval(msec),500
# of Points,3601
Start Time(min),0.000
End Time(min),30.000
Intensity Units,mV
Intensity Multiplier,0.001
Wavelength(nm),254nm
R.Time (min),Intensity
0.00000,-4
0.00833,-4
0.01667,1
0.02500,1
0.03333,1
0.04167,1
0.05000,0
0.05833,-1
0.06667,-2
0.07500,-2
0.08333,-2
0.09167,-3
0.10000,-3
0.10833,-3
0.11667,-2
0.12500,-2
0.13333,-2
0.14167,-2
0.15000,-2
0.15833,-2
0.16667,-3
0.17500,-3
0.18333,-2
0.19167,-1
0.20000,-1
0.20833,-1
0.21667,-2
0.22500,-2
0.23333,-3
0.24167,-2
0.25000,-3
0.25833,-3
0.26667,-2
0.27500,-2
0.28333,-2
0.29167,-2
0.30000,-2
0.30833,-2
0.31667,-2
0.32500,-2
0.33333,-2
0.34167,-1
0.35000,-1
0.35833,-1
0.36667,-1
0.37500,-1
0.38333,-0
0.39167,-0
0.40000,-0
0.40833,0
0.41667,0
0.42500,0
0.43333,1
0.44167,2
0.45000,1
0.45833,0
0.46667,-0
0.47500,-1
0.48333,-3
0.49167,-3
0.50000,-2
0.50833,-2
0.51667,-1
0.52500,-1
0.53333,-1
0.54167,-0
0.55000,-1
0.55833,-2
0.56667,-2
0.57500,-2
0.58333,-2
0.59167,-2
0.60000,-2
0.60833,-2
0.61667,-2
0.62500,-1
0.63333,-0
0.64167,-1
0.65000,-1
0.65833,-1
0.66667,-0
0.67500,-0
0.68333,-1
0.69167,-0
0.70000,0
0.70833,1
0.71667,2
0.72500,2
0.73333,1
0.74167,1
0.75000,1
0.75833,1
0.76667,0
0.77500,0
0.78333,0
0.79167,-0
0.80000,-0
0.80833,0
0.81667,0
0.82500,-1
0.83333,-1
0.84167,-1
0.85000,-2
0.85833,-2
0.86667,-2
0.87500,-2
0.88333,-2
0.89167,-3
0.90000,-2
0.90833,-2
0.91667,-2
0.92500,-1
0.93333,-1
0.94167,-1
0.95000,-1
0.95833,-1
0.96667,-1
0.97500,-0
0.98333,1
0.99167,2
1.00000,2
1.00833,1
1.01667,-0
1.02500,-1
1.03333,-2
1.04167,-2
1.05000,-1
1.05833,-0
1.06667,-0
1.07500,-1
1.08333,-1
1.09167,-1
1.10000,-1
1.10833,-2
1.11667,-3
1.12500,-3
1.13333,-3
1.14167,-2
1.15000,-3
1.15833,-3
1.16667,-2
1.17500,-1
1.18333,-1
1.19167,-2
1.20000,-3
1.20833,-3
1.21667,-2
1.22500,-2
1.23333,-2
1.24167,-2
1.25000,-2
1.25833,-2
1.26667,-2
1.27500,-2
1.28333,-2
1.29167,-1
1.30000,-0
1.30833,-1
1.31667,-1
1.32500,-0
1.33333,-1
1.34167,-1
1.35000,-1
1.35833,-1
1.36667,-0
1.37500,-0
1.38333,-1
1.39167,-1
1.40000,-1
1.40833,-1
1.41667,-2
1.42500,-2
1.43333,-1
1.44167,-1
1.45000,-1
1.45833,-2
1.46667,-2
1.47500,-1
1.48333,-1
1.49167,-1
1.50000,-0
1.50833,0
1.51667,1
1.52500,1
1.53333,1
1.54167,1
1.55000,1
1.55833,1
1.56667,1
1.57500,1
1.58333,1
1.59167,0
1.60000,-0
1.60833,-0
1.61667,0
1.62500,0
1.63333,1
1.64167,0
1.65000,0
1.65833,1
1.66667,2
1.67500,3
1.68333,4
1.69167,4
1.70000,3
1.70833,3
1.71667,2
1.72500,2
1.73333,2
1.74167,2
1.75000,2
1.75833,3
1.76667,2
1.77500,2
1.78333,1
1.79167,-0
1.80000,-0
1.80833,0
1.81667,1
1.82500,3
1.83333,4
1.84167,5
1.85000,3
1.85833,2
1.86667,1
1.87500,1
1.88333,1
1.89167,1
1.90000,1
1.90833,1
1.91667,2
1.92500,3
1.93333,3
1.94167,3
1.95000,3
1.95833,3
1.96667,2
1.97500,3
1.98333,4
1.99167,4
2.00000,3
2.00833,3
2.01667,2
2.02500,3
2.03333,4
2.04167,4
2.05000,3
2.05833,2
2.06667,2
2.07500,2
2.08333,3
2.09167,3
2.10000,3
2.10833,2
2.11667,2
2.12500,3
2.13333,3
2.14167,3
2.15000,4
2.15833,3
2.16667,3
2.17500,2
2.18333,2
2.19167,2
2.20000,2
2.20833,2
2.21667,1
2.22500,1
2.23333,1
2.24167,1
2.25000,3
2.25833,3
2.26667,3
2.27500,3
2.28333,3
2.29167,4
2.30000,4
2.30833,4
2.31667,4
2.32500,3
2.33333,3
2.34167,2
2.35000,1
2.35833,1
2.36667,1
2.37500,1
2.38333,2
2.39167,3
2.40000,3
2.40833,3
2.41667,3
2.42500,2
2.43333,2
2.44167,1
2.45000,2
2.45833,3
2.46667,2
2.47500,1
2.48333,0
2.49167,0
2.50000,1
2.50833,1
2.51667,1
2.52500,1
2.53333,2
2.54167,2
2.55000,1
2.55833,0
2.56667,1
2.57500,2
2.58333,2
2.59167,1
2.60000,1
2.60833,1
2.61667,1
2.62500,0
2.63333,-0
2.64167,0
2.65000,0
2.65833,-0
2.66667,-0
2.67500,-0
2.68333,-0
2.69167,-0
2.70000,-0
2.70833,0
2.71667,1
2.72500,1
2.73333,0
2.74167,-0
2.75000,-0
2.75833,-1
2.76667,-1
2.77500,-1
2.78333,-1
2.79167,-1
2.80000,-1
2.80833,-1
2.81667,-2
2.82500,-2
2.83333,-1
2.84167,-1
2.85000,-1
2.85833,-1
2.86667,-1
2.87500,-1
2.88333,-1
2.89167,-0
2.90000,0
2.90833,0
2.91667,0
2.92500,1
2.93333,1
2.94167,-0
2.95000,-1
2.95833,-1
2.96667,-0
2.97500,-0
2.98333,-1
2.99167,-0
3.00000,0
3.00833,-0
3.01667,-0
3.02500,-0
3.03333,0
3.04167,0
3.05000,1
3.05833,0
3.06667,0
3.07500,-0
3.08333,-1
3.09167,-1
3.10000,-0
3.10833,1
3.11667,1
3.12500,0
3.13333,-0
3.14167,-1
3.15000,-1
3.15833,-1
3.16667,-1
3.17500,-1
3.18333,-1
3.19167,-2
3.20000,-2
3.20833,-1
3.21667,-1
3.22500,-1
3.23333,-0
3.24167,0
3.25000,0
3.25833,-0
3.26667,-1
3.27500,-2
3.28333,-2
3.29167,-2
3.30000,-2
3.30833,-1
3.31667,-1
3.32500,-1
3.33333,-1
3.34167,-1
3.35000,-1
3.35833,-1
3.36667,-2
3.37500,-2
3.38333,-1
3.39167,-2
3.40000,-2
3.40833,-2
3.41667,-2
3.42500,-1
3.43333,-1
3.44167,-1
3.45000,-1
3.45833,-1
3.46667,-1
3.47500,-2
3.48333,-2
3.49167,-1
3.50000,-0
3.50833,-0
3.51667,-1
3.52500,-1
3.53333,-1
3.54167,-1
3.55000,-2
3.55833,-2
3.56667,-1
3.57500,-1
3.58333,-1
3.59167,-1
3.60000,-1
3.60833,-2
3.61667,-2
3.62500,-2
3.63333,-2
3.64167,-3
3.65000,-2
3.65833,-2
3.66667,-2
3.67500,-3
3.68333,-2
3.69167,-1
3.70000,-2
3.70833,-2
3.71667,-3
3.72500,-2
3.73333,-1
3.74167,-0
3.75000,1
3.75833,1
3.76667,1
3.77500,0
3.78333,-0
3.79167,-1
3.80000,-2
3.80833,-2
3.81667,-2
3.82500,-2
3.83333,-2
3.84167,-2
3.85000,-1
3.85833,-0
3.86667,-0
3.87500,-1
3.88333,-2
3.89167,-2
3.90000,-1
3.90833,-1
3.91667,-1
3.92500,-2
3.93333,-2
3.94167,-2
3.95000,-1
3.95833,-1
3.96667,-1
3.97500,-1
3.98333,-1
3.99167,-0
4.00000,0
4.00833,0
4.01667,0
4.02500,0
4.03333,-1
4.04167,-0
4.05000,-0
4.05833,0
4.06667,0
4.07500,0
4.08333,-0
4.09167,-1
4.10000,-1
4.10833,-2
4.11667,-2
4.12500,-2
4.13333,-3
4.14167,-4
4.15000,-4
4.15833,-4
4.16667,-3
4.17500,-3
4.18333,-2
4.19167,-2
4.20000,-3
4.20833,-4
4.21667,-3
4.22500,-2
4.23333,-2
4.24167,-2
4.25000,-2
4.25833,-3
4.26667,-3
4.27500,-4
4.28333,-4
4.29167,-4
4.30000,-4
4.30833,-3
4.31667,-4
4.32500,-3
4.33333,-4
4.34167,-4
4.35000,-4
4.35833,-4
4.36667,-4
4.37500,-4
4.38333,-4
4.39167,-4
4.40000,-4
4.40833,-4
4.41667,-5
4.42500,-5
4.43333,-5
4.44167,-5
4.45000,-6
4.45833,-7
4.46667,-7
4.47500,-6
4.48333,-5
4.49167,-5
4.50000,-5
4.50833,-5
4.51667,-6
4.52500,-5
4.53333,-6
4.54167,-6
4.55000,-6
4.55833,-6
4.56667,-6
4.57500,-6
4.58333,-7
4.59167,-8
4.60000,-7
4.60833,-6
4.61667,-6
4.62500,-6
4.63333,-6
4.64167,-7
4.65000,-8
4.65833,-8
4.66667,-8
4.67500,-7
4.68333,-7
4.69167,-7
4.70000,-8
4.70833,-8
4.71667,-8
4.72500,-7
4.73333,-8
4.74167,-8
4.75000,-8
4.75833,-8
4.76667,-7
4.77500,-7
4.78333,-7
4.79167,-7
4.80000,-6
4.80833,-6
4.81667,-6
4.82500,-6
4.83333,-6
4.84167,-7
4.85000,-7
4.85833,-8
4.86667,-9
4.87500,-9
4.88333,-9
4.89167,-9
4.90000,-9
4.90833,-8
4.91667,-7
4.92500,-7
4.93333,-7
4.94167,-7
4.95000,-7
4.95833,-7
4.96667,-8
4.97500,-8
4.98333,-8
4.99167,-8
5.00000,-9
5.00833,-10
5.01667,-9
5.02500,-9
5.03333,-10
5.04167,-10
5.05000,-10
5.05833,-10
5.06667,-10
5.07500,-9
5.08333,-9
5.09167,-8
5.10000,-7
5.10833,-7
5.11667,-6
5.12500,-5
5.13333,-6
5.14167,-7
5.15000,-6
5.15833,-6
5.16667,-6
5.17500,-7
5.18333,-8
5.19167,-9
5.20000,-9
5.20833,-9
5.21667,-9
5.22500,-10
5.23333,-9
5.24167,-9
5.25000,-8
5.25833,-9
5.26667,-9
5.27500,-8
5.28333,-9
5.29167,-9
5.30000,-9
5.30833,-9
5.31667,-8
5.32500,-8
5.33333,-8
5.34167,-8
5.35000,-9
5.35833,-9
5.36667,-8
5.37500,-9
5.38333,-10
5.39167,-10
5.40000,-10
5.40833,-10
5.41667,-9
5.42500,-10
5.43333,-10
5.44167,-10
5.45000,-10
5.45833,-10
5.46667,-10
5.47500,-10
5.48333,-9
5.49167,-9
5.50000,-9
5.50833,-10
5.51667,-10
5.52500,-10
5.53333,-10
5.54167,-10
5.55000,-10
5.55833,-11
5.56667,-12
5.57500,-11
5.58333,-11
5.59167,-11
5.60000,-11
5.60833,-11
5.61667,-10
5.62500,-10
5.63333,-10
5.64167,-9
5.65000,-9
5.65833,-10
5.66667,-10
5.67500,-10
5.68333,-10
5.69167,-10
5.70000,-10
5.70833,-10
5.71667,-10
5.72500,-11
5.73333,-12
5.74167,-13
5.75000,-13
5.75833,-14
5.76667,-14
5.77500,-14
5.78333,-14
5.79167,-14
5.80000,-14
5.80833,-13
5.81667,-12
5.82500,-13
5.83333,-13
5.84167,-13
5.85000,-13
5.85833,-13
5.86667,-12
5.87500,-12
5.88333,-13
5.89167,-13
5.90000,-12
5.90833,-11
5.91667,-11
5.92500,-12
5.93333,-12
5.94167,-12
5.95000,-12
5.95833,-12
5.96667,-12
5.97500,-13
5.98333,-13
5.99167,-12
6.00000,-12
6.00833,-11
6.01667,-11
6.02500,-12
6.03333,-12
6.04167,-13
6.05000,-13
6.05833,-13
6.06667,-13
6.07500,-14
6.08333,-14
6.09167,-14
6.10000,-14
6.10833,-13
6.11667,-12
6.12500,-13
6.13333,-13
6.14167,-13
6.15000,-12
6.15833,-12
6.16667,-12
6.17500,-13
6.18333,-13
6.19167,-13
6.20000,-13
6.20833,-13
6.21667,-13
6.22500,-12
6.23333,-12
6.24167,-12
6.25000,-13
6.25833,-12
6.26667,-12
6.27500,-12
6.28333,-12
6.29167,-11
6.30000,-12
6.30833,-12
6.31667,-11
6.32500,-10
6.33333,-11
6.34167,-12
6.35000,-12
6.35833,-12
6.36667,-12
6.37500,-12
6.38333,-12
6.39167,-12
6.40000,-12
6.40833,-12
6.41667,-12
6.42500,-12
6.43333,-12
6.44167,-12
6.45000,-13
6.45833,-14
6.46667,-14
6.47500,-13
6.48333,-13
6.49167,-12
6.50000,-11
6.50833,-11
6.51667,-11
6.52500,-11
6.53333,-12
6.54167,-12
6.55000,-12
6.55833,-12
6.56667,-12
6.57500,-13
6.58333,-13
6.59167,-13
6.60000,-13
6.60833,-13
6.61667,-13
6.62500,-12
6.63333,-12
6.64167,-12
6.65000,-13
6.65833,-14
6.66667,-14
6.67500,-14
6.68333,-14
6.69167,-14
6.70000,-14
6.70833,-13
6.71667,-14
6.72500,-14
6.73333,-13
6.74167,-13
6.75000,-13
6.75833,-13
6.76667,-14
6.77500,-14
6.78333,-13
6.79167,-13
6.80000,-13
6.80833,-14
6.81667,-14
6.82500,-13
6.83333,-13
6.84167,-13
6.85000,-14
6.85833,-13
6.86667,-13
6.87500,-13
6.88333,-13
6.89167,-12
6.90000,-12
6.90833,-12
6.91667,-12
6.92500,-12
6.93333,-13
6.94167,-13
6.95000,-13
6.95833,-13
6.96667,-12
6.97500,-12
6.98333,-13
6.99167,-13
7.00000,-14
7.00833,-14
7.01667,-13
7.02500,-12
7.03333,-12
7.04167,-13
7.05000,-14
7.05833,-14
7.06667,-13
7.07500,-13
7.08333,-13
7.09167,-14
7.10000,-14
7.10833,-13
7.11667,-13
7.12500,-13
7.13333,-13
7.14167,-11
7.15000,-10
7.15833,-10
7.16667,-10
7.17500,-10
7.18333,-10
7.19167,-11
7.20000,-11
7.20833,-12
7.21667,-13
7.22500,-14
7.23333,-14
7.24167,-14
7.25000,-14
7.25833,-14
7.26667,-13
7.27500,-13
7.28333,-13
7.29167,-12
7.30000,-13
7.30833,-12
7.31667,-12
7.32500,-13
7.33333,-12
7.34167,-12
7.35000,-12
7.35833,-13
7.36667,-13
7.37500,-14
7.38333,-14
7.39167,-14
7.40000,-13
7.40833,-13
7.41667,-13
7.42500,-12
7.43333,-12
7.44167,-12
7.45000,-13
7.45833,-13
7.46667,-13
7.47500,-13
7.48333,-13
7.49167,-13
7.50000,-13
7.50833,-13
7.51667,-12
7.52500,-12
7.53333,-12
7.54167,-12
7.55000,-12
7.55833,-12
7.56667,-11
7.57500,-9
7.58333,-9
7.59167,-10
7.60000,-11
7.60833,-10
7.61667,-10
7.62500,-10
7.63333,-10
7.64167,-11
7.65000,-11
7.65833,-11
7.66667,-11
7.67500,-10
7.68333,-11
7.69167,-12
7.70000,-12
7.70833,-11
7.71667,-10
7.72500,-10
7.73333,-10
7.74167,-10
7.75000,-10
7.75833,-10
7.76667,-10
7.77500,-10
7.78333,-10
7.79167,-9
7.80000,-9
7.80833,-9
7.81667,-10
7.82500,-10
7.83333,-10
7.84167,-11
7.85000,-11
7.85833,-12
7.86667,-12
7.87500,-11
7.88333,-10
7.89167,-10
7.90000,-9
7.90833,-9
7.91667,-9
7.92500,-9
7.93333,-10
7.94167,-10
7.95000,-10
7.95833,-9
7.96667,-9
7.97500,-10
7.98333,-11
7.99167,-12
8.00000,-12
8.00833,-12
8.01667,-12
8.02500,-13
8.03333,-13
8.04167,-13
8.05000,-13
8.05833,-12
8.06667,-11
8.07500,-11
8.08333,-11
8.09167,-11
8.10000,-11
8.10833,-11
8.11667,-10
8.12500,-10
8.13333,-10
8.14167,-10
8.15000,-11
8.15833,-12
8.16667,-12
8.17500,-11
8.18333,-11
8.19167,-11
8.20000,-10
8.20833,-10
8.21667,-10
8.22500,-10
8.23333,-10
8.24167,-11
8.25000,-11
8.25833,-11
8.26667,-12
8.27500,-11
8.28333,-11
8.29167,-10
8.30000,-11
8.30833,-11
8.31667,-10
8.32500,-10
8.33333,-9
8.34167,-8
8.35000,-7
8.35833,-7
8.36667,-7
8.37500,-9
8.38333,-11
8.39167,-11
8.40000,-10
8.40833,-10
8.41667,-10
8.42500,-10
8.43333,-10
8.44167,-10
8.45000,-10
8.45833,-9
8.46667,-9
8.47500,-10
8.48333,-10
8.49167,-10
8.50000,-9
8.50833,-8
8.51667,-8
8.52500,-9
8.53333,-9
8.54167,-9
8.55000,-9
8.55833,-9
8.56667,-8
8.57500,-8
8.58333,-8
8.59167,-8
8.60000,-8
8.60833,-8
8.61667,-8
8.62500,-9
8.63333,-10
8.64167,-9
8.65000,-10
8.65833,-10
8.66667,-10
8.67500,-10
8.68333,-9
8.69167,-8
8.70000,-8
8.70833,-8
8.71667,-9
8.72500,-9
8.73333,-9
8.74167,-10
8.75000,-10
8.75833,-9
8.76667,-9
8.77500,-10
8.78333,-9
8.79167,-9
8.80000,-10
8.80833,-10
8.81667,-10
8.82500,-10
8.83333,-9
8.84167,-9
8.85000,-9
8.85833,-8
8.86667,-7
8.87500,-7
8.88333,-7
8.89167,-7
8.90000,-8
8.90833,-8
8.91667,-8
8.92500,-8
8.93333,-8
8.94167,-8
8.95000,-8
8.95833,-8
8.96667,-8
8.97500,-9
8.98333,-9
8.99167,-8
9.00000,-8
9.00833,-8
9.01667,-8
9.02500,-8
9.03333,-8
9.04167,-9
9.05000,-9
9.05833,-8
9.06667,-8
9.07500,-8
9.08333,-8
9.09167,-9
9.10000,-9
9.10833,-9
9.11667,-8
9.12500,-7
9.13333,-6
9.14167,-6
9.15000,-6
9.15833,-6
9.16667,-6
9.17500,-7
9.18333,-8
9.19167,-9
9.20000,-9
9.20833,-8
9.21667,-8
9.22500,-7
9.23333,-6
9.24167,-6
9.25000,-6
9.25833,-7
9.26667,-8
9.27500,-8
9.28333,-9
9.29167,-10
9.30000,-10
9.30833,-10
9.31667,-10
9.32500,-9
9.33333,-8
9.34167,-8
9.35000,-8
9.35833,-9
9.36667,-9
9.37500,-9
9.38333,-9
9.39167,-9
9.40000,-9
9.40833,-9
9.41667,-9
9.42500,-8
9.43333,-8
9.44167,-8
9.45000,-8
9.45833,-9
9.46667,-8
9.47500,-8
9.48333,-9
9.49167,-9
9.50000,-10
9.50833,-9
9.51667,-9
9.52500,-9
9.53333,-9
9.54167,-9
9.55000,-10
9.55833,-10
9.56667,-9
9.57500,-9
9.58333,-8
9.59167,-8
9.60000,-8
9.60833,-7
9.61667,-7
9.62500,-7
9.63333,-7
9.64167,-6
9.65000,-7
9.65833,-8
9.66667,-8
9.67500,-7
9.68333,-8
9.69167,-9
9.70000,-9
9.70833,-9
9.71667,-8
9.72500,-8
9.73333,-7
9.74167,-6
9.75000,-7
9.75833,-7
9.76667,-6
9.77500,-7
9.78333,-8
9.79167,-8
9.80000,-7
9.80833,-7
9.81667,-7
9.82500,-8
9.83333,-8
9.84167,-8
9.85000,-8
9.85833,-7
9.86667,-7
9.87500,-8
9.88333,-8
9.89167,-8
9.90000,-8
9.90833,-8
9.91667,-8
9.92500,-8
9.93333,-8
9.94167,-7
9.95000,-7
9.95833,-6
9.96667,-6
9.97500,-6
9.98333,-6
9.99167,-6
10.00000,-8
10.00833,-8
10.01667,-7
10.02500,-6
10.03333,-5
10.04167,-4
10.05000,-4
10.05833,-3
10.06667,-2
10.07500,-1
10.08333,-0
10.09167,0
10.10000,1
10.10833,2
10.11667,4
10.12500,6
10.13333,8
10.14167,9
10.15000,9
10.15833,10
10.16667,11
10.17500,13
10.18333,13
10.19167,13
10.20000,14
10.20833,13
10.21667,12
10.22500,11
10.23333,9
10.24167,7
10.25000,5
10.25833,2
10.26667,-1
10.27500,-5
10.28333,-9
10.29167,-14
10.30000,-19
10.30833,-25
10.31667,-29
10.32500,-34
10.33333,-38
10.34167,-43
10.35000,-48
10.35833,-53
10.36667,-57
10.37500,-61
10.38333,-64
10.39167,-69
10.40000,-72
10.40833,-75
10.41667,-77
10.42500,-80
10.43333,-82
10.44167,-85
10.45000,-86
10.45833,-88
10.46667,-91
10.47500,-92
10.48333,-92
10.49167,-93
10.50000,-93
10.50833,-94
10.51667,-93
10.52500,-93
10.53333,-92
10.54167,-91
10.55000,-88
10.55833,-86
10.56667,-84
10.57500,-81
10.58333,-78
10.59167,-75
10.60000,-71
10.60833,-67
10.61667,-64
10.62500,-61
10.63333,-57
10.64167,-53
10.65000,-50
10.65833,-46
10.66667,-42
10.67500,-38
10.68333,-35
10.69167,-32
10.70000,-29
10.70833,-26
10.71667,-23
10.72500,-19
10.73333,-16
10.74167,-13
10.75000,-11
10.75833,-9
10.76667,-8
10.77500,-6
10.78333,-4
10.79167,-3
10.80000,-1
10.80833,1
10.81667,3
10.82500,5
10.83333,6
10.84167,6
10.85000,7
10.85833,8
10.86667,9
10.87500,10
10.88333,11
10.89167,12
10.90000,12
10.90833,13
10.91667,13
10.92500,14
10.93333,14
10.94167,14
10.95000,13
10.95833,13
10.96667,13
10.97500,14
10.98333,14
10.99167,13
11.00000,13
11.00833,13
11.01667,13
11.02500,14
11.03333,15
11.04167,15
11.05000,16
11.05833,16
11.06667,17
11.07500,17
11.08333,16
11.09167,15
11.10000,14
11.10833,13
11.11667,12
11.12500,13
11.13333,13
11.14167,13
11.15000,13
11.15833,13
11.16667,12
11.17500,12
11.18333,13
11.19167,14
11.20000,14
11.20833,14
11.21667,13
11.22500,13
11.23333,12
11.24167,12
11.25000,13
11.25833,14
11.26667,13
11.27500,13
11.28333,13
11.29167,12
11.30000,12
11.30833,12
11.31667,12
11.32500,12
11.33333,12
11.34167,12
11.35000,13
11.35833,12
11.36667,11
11.37500,11
11.38333,10
11.39167,10
11.40000,10
11.40833,10
11.41667,10
11.42500,10
11.43333,11
11.44167,11
11.45000,10
11.45833,9
11.46667,9
11.47500,9
11.48333,9
11.49167,10
11.50000,10
11.50833,8
11.51667,8
11.52500,8
11.53333,8
11.54167,8
11.55000,8
11.55833,8
11.56667,8
11.57500,8
11.58333,8
11.59167,8
11.60000,7
11.60833,7
11.61667,8
11.62500,9
11.63333,9
11.64167,8
11.65000,7
11.65833,7
11.66667,7
11.67500,7
11.68333,7
11.69167,7
11.70000,7
11.70833,7
11.71667,7
11.72500,7
11.73333,7
11.74167,6
11.75000,5
11.75833,5
11.76667,4
11.77500,4
11.78333,5
11.79167,5
11.80000,4
11.80833,4
11.81667,4
11.82500,4
11.83333,4
11.84167,4
11.85000,5
11.85833,5
11.86667,5
11.87500,4
11.88333,3
11.89167,1
11.90000,1
11.90833,2
11.91667,2
11.92500,1
11.93333,1
11.94167,1
11.95000,1
11.95833,1
11.96667,1
11.97500,2
11.98333,1
11.99167,1
12.00000,1
12.00833,1
12.01667,0
12.02500,-1
12.03333,-2
12.04167,-2
12.05000,-2
12.05833,-2
12.06667,-1
12.07500,-1
12.08333,-1
12.09167,-1
12.10000,-1
12.10833,-0
12.11667,-1
12.12500,-2
12.13333,-2
12.14167,-3
12.15000,-3
12.15833,-2
12.16667,-2
12.17500,-2
12.18333,-3
12.19167,-4
12.20000,-3
12.20833,-4
12.21667,-4
12.22500,-4
12.23333,-4
12.24167,-4
12.25000,-4
12.25833,-4
12.26667,-4
12.27500,-4
12.28333,-4
12.29167,-4
12.30000,-5
12.30833,-5
12.31667,-5
12.32500,-5
12.33333,-5
12.34167,-6
12.35000,-6
12.35833,-7
12.36667,-7
12.37500,-6
12.38333,-6
12.39167,-6
12.40000,-5
12.40833,-7
12.41667,-8
12.42500,-9
12.43333,-10
12.44167,-9
12.45000,-9
12.45833,-9
12.46667,-9
12.47500,-9
12.48333,-9
12.49167,-9
12.50000,-8
12.50833,-8
12.51667,-9
12.52500,-9
12.53333,-9
12.54167,-9
12.55000,-9
12.55833,-9
12.56667,-8
12.57500,-7
12.58333,-7
12.59167,-7
12.60000,-8
12.60833,-8
12.61667,-9
12.62500,-9
12.63333,-9
12.64167,-9
12.65000,-9
12.65833,-10
12.66667,-10
12.67500,-11
12.68333,-10
12.69167,-10
12.70000,-11
12.70833,-11
12.71667,-11
12.72500,-12
12.73333,-13
12.74167,-13
12.75000,-13
12.75833,-13
12.76667,-13
12.77500,-13
12.78333,-13
12.79167,-13
12.80000,-13
12.80833,-12
12.81667,-11
12.82500,-12
12.83333,-12
12.84167,-11
12.85000,-10
12.85833,-11
12.86667,-11
12.87500,-12
12.88333,-13
12.89167,-14
12.90000,-14
12.90833,-15
12.91667,-15
12.92500,-15
12.93333,-15
12.94167,-15
12.95000,-15
12.95833,-15
12.96667,-15
12.97500,-16
12.98333,-17
12.99167,-17
13.00000,-17
13.00833,-17
13.01667,-17
13.02500,-17
13.03333,-16
13.04167,-16
13.05000,-16
13.05833,-15
13.06667,-15
13.07500,-15
13.08333,-16
13.09167,-16
13.10000,-15
13.10833,-16
13.11667,-18
13.12500,-20
13.13333,-21
13.14167,-20
13.15000,-20
13.15833,-20
13.16667,-20
13.17500,-20
13.18333,-21
13.19167,-21
13.20000,-20
13.20833,-19
13.21667,-19
13.22500,-19
13.23333,-18
13.24167,-18
13.25000,-19
13.25833,-19
13.26667,-20
13.27500,-20
13.28333,-21
13.29167,-20
13.30000,-20
13.30833,-20
13.31667,-21
13.32500,-21
13.33333,-22
13.34167,-23
13.35000,-24
13.35833,-23
13.36667,-23
13.37500,-22
13.38333,-22
13.39167,-23
13.40000,-22
13.40833,-22
13.41667,-23
13.42500,-23
13.43333,-23
13.44167,-23
13.45000,-24
13.45833,-24
13.46667,-25
13.47500,-24
13.48333,-24
13.49167,-24
13.50000,-24
13.50833,-25
13.51667,-25
13.52500,-25
13.53333,-25
13.54167,-25
13.55000,-25
13.55833,-25
13.56667,-25
13.57500,-25
13.58333,-26
13.59167,-26
13.60000,-27
13.60833,-27
13.61667,-26
13.62500,-26
13.63333,-27
13.64167,-26
13.65000,-26
13.65833,-27
13.66667,-27
13.67500,-27
13.68333,-27
13.69167,-26
13.70000,-26
13.70833,-27
13.71667,-28
13.72500,-29
13.73333,-29
13.74167,-29
13.75000,-29
13.75833,-30
13.76667,-30
13.77500,-30
13.78333,-30
13.79167,-29
13.80000,-30
13.80833,-30
13.81667,-30
13.82500,-29
13.83333,-29
13.84167,-29
13.85000,-29
13.85833,-29
13.86667,-29
13.87500,-28
13.88333,-29
13.89167,-30
13.90000,-30
13.90833,-30
13.91667,-30
13.92500,-30
13.93333,-30
13.94167,-30
13.95000,-32
13.95833,-32
13.96667,-32
13.97500,-33
13.98333,-33
13.99167,-33
14.00000,-33
14.00833,-31
14.01667,-31
14.02500,-32
14.03333,-32
14.04167,-33
14.05000,-33
14.05833,-33
14.06667,-33
14.07500,-34
14.08333,-34
14.09167,-34
14.10000,-34
14.10833,-34
14.11667,-33
14.12500,-33
14.13333,-34
14.14167,-34
14.15000,-35
14.15833,-35
14.16667,-35
14.17500,-36
14.18333,-35
14.19167,-35
14.20000,-34
14.20833,-34
14.21667,-34
14.22500,-34
14.23333,-35
14.24167,-35
14.25000,-34
14.25833,-34
14.26667,-33
14.27500,-33
14.28333,-32
14.29167,-32
14.30000,-32
14.30833,-32
14.31667,-32
14.32500,-32
14.33333,-31
14.34167,-30
14.35000,-31
14.35833,-31
14.36667,-32
14.37500,-31
14.38333,-30
14.39167,-29
14.40000,-29
14.40833,-29
14.41667,-29
14.42500,-28
14.43333,-28
14.44167,-28
14.45000,-29
14.45833,-30
14.46667,-30
14.47500,-30
14.48333,-29
14.49167,-29
14.50000,-31
14.50833,-31
14.51667,-31
14.52500,-31
14.53333,-31
14.54167,-31
14.55000,-30
14.55833,-30
14.56667,-29
14.57500,-29
14.58333,-29
14.59167,-30
14.60000,-32
14.60833,-32
14.61667,-31
14.62500,-31
14.63333,-32
14.64167,-33
14.65000,-33
14.65833,-34
14.66667,-34
14.67500,-34
14.68333,-34
14.69167,-34
14.70000,-35
14.70833,-35
14.71667,-35
14.72500,-35
14.73333,-35
14.74167,-35
14.75000,-35
14.75833,-36
14.76667,-37
14.77500,-37
14.78333,-38
14.79167,-37
14.80000,-38
14.80833,-39
14.81667,-40
14.82500,-39
14.83333,-39
14.84167,-40
14.85000,-40
14.85833,-40
14.86667,-40
14.87500,-40
14.88333,-40
14.89167,-40
14.90000,-40
14.90833,-41
14.91667,-42
14.92500,-42
14.93333,-43
14.94167,-43
14.95000,-43
14.95833,-44
14.96667,-44
14.97500,-44
14.98333,-43
14.99167,-43
15.00000,-45
15.00833,-46
15.01667,-46
15.02500,-46
15.03333,-45
15.04167,-44
15.05000,-44
15.05833,-45
15.06667,-46
15.07500,-46
15.08333,-46
15.09167,-45
15.10000,-45
15.10833,-44
15.11667,-45
15.12500,-45
15.13333,-46
15.14167,-46
15.15000,-45
15.15833,-45
15.16667,-45
15.17500,-45
15.18333,-45
15.19167,-46
15.20000,-47
15.20833,-47
15.21667,-47
15.22500,-47
15.23333,-47
15.24167,-47
15.25000,-47
15.25833,-48
15.26667,-48
15.27500,-48
15.28333,-47
15.29167,-47
15.30000,-47
15.30833,-47
15.31667,-47
15.32500,-47
15.33333,-47
15.34167,-47
15.35000,-47
15.35833,-48
15.36667,-49
15.37500,-50
15.38333,-50
15.39167,-50
15.40000,-49
15.40833,-49
15.41667,-50
15.42500,-51
15.43333,-52
15.44167,-53
15.45000,-52
15.45833,-52
15.46667,-52
15.47500,-51
15.48333,-51
15.49167,-51
15.50000,-51
15.50833,-51
15.51667,-51
15.52500,-51
15.53333,-51
15.54167,-51
15.55000,-51
15.55833,-50
15.56667,-50
15.57500,-50
15.58333,-51
15.59167,-51
15.60000,-52
15.60833,-52
15.61667,-52
15.62500,-50
15.63333,-49
15.64167,-49
15.65000,-49
15.65833,-50
15.66667,-50
15.67500,-50
15.68333,-50
15.69167,-50
15.70000,-50
15.70833,-51
15.71667,-52
15.72500,-52
15.73333,-51
15.74167,-51
15.75000,-51
15.75833,-52
15.76667,-53
15.77500,-53
15.78333,-53
15.79167,-52
15.80000,-51
15.80833,-51
15.81667,-51
15.82500,-52
15.83333,-53
15.84167,-53
15.85000,-52
15.85833,-52
15.86667,-51
15.87500,-52
15.88333,-53
15.89167,-53
15.90000,-53
15.90833,-53
15.91667,-53
15.92500,-53
15.93333,-53
15.94167,-52
15.95000,-52
15.95833,-52
15.96667,-52
15.97500,-52
15.98333,-52
15.99167,-53
16.00000,-53
16.00833,-53
16.01667,-53
16.02500,-54
16.03333,-54
16.04167,-53
16.05000,-53
16.05833,-53
16.06667,-53
16.07500,-54
16.08333,-54
16.09167,-54
16.10000,-54
16.10833,-53
16.11667,-53
16.12500,-53
16.13333,-53
16.14167,-54
16.15000,-55
16.15833,-54
16.16667,-53
16.17500,-53
16.18333,-54
16.19167,-55
16.20000,-55
16.20833,-55
16.21667,-55
16.22500,-55
16.23333,-56
16.24167,-55
16.25000,-54
16.25833,-55
16.26667,-56
16.27500,-56
16.28333,-56
16.29167,-56
16.30000,-57
16.30833,-57
16.31667,-57
16.32500,-58
16.33333,-58
16.34167,-58
16.35000,-58
16.35833,-57
16.36667,-57
16.37500,-57
16.38333,-57
16.39167,-56
16.40000,-55
16.40833,-56
16.41667,-57
16.42500,-57
16.43333,-57
16.44167,-57
16.45000,-58
16.45833,-58
16.46667,-58
16.47500,-57
16.48333,-57
16.49167,-57
16.50000,-57
16.50833,-57
16.51667,-57
16.52500,-57
16.53333,-57
16.54167,-57
16.55000,-58
16.55833,-57
16.56667,-57
16.57500,-57
16.58333,-55
16.59167,-55
16.60000,-56
16.60833,-56
16.61667,-56
16.62500,-56
16.63333,-56
16.64167,-56
16.65000,-57
16.65833,-57
16.66667,-57
16.67500,-57
16.68333,-57
16.69167,-57
16.70000,-57
16.70833,-57
16.71667,-58
16.72500,-59
16.73333,-59
16.74167,-59
16.75000,-58
16.75833,-57
16.76667,-57
16.77500,-57
16.78333,-57
16.79167,-57
16.80000,-56
16.80833,-55
16.81667,-55
16.82500,-57
16.83333,-57
16.84167,-57
16.85000,-57
16.85833,-56
16.86667,-56
16.87500,-57
16.88333,-58
16.89167,-59
16.90000,-60
16.90833,-61
16.91667,-62
16.92500,-62
16.93333,-61
16.94167,-61
16.95000,-59
16.95833,-59
16.96667,-58
16.97500,-58
16.98333,-59
16.99167,-59
17.00000,-59
17.00833,-60
17.01667,-60
17.02500,-60
17.03333,-61
17.04167,-62
17.05000,-62
17.05833,-61
17.06667,-61
17.07500,-60
17.08333,-59
17.09167,-58
17.10000,-58
17.10833,-58
17.11667,-57
17.12500,-56
17.13333,-55
17.14167,-56
17.15000,-56
17.15833,-57
17.16667,-57
17.17500,-57
17.18333,-57
17.19167,-58
17.20000,-58
17.20833,-58
17.21667,-58
17.22500,-58
17.23333,-58
17.24167,-58
17.25000,-59
17.25833,-59
17.26667,-59
17.27500,-59
17.28333,-59
17.29167,-58
17.30000,-58
17.30833,-58
17.31667,-57
17.32500,-57
17.33333,-58
17.34167,-58
17.35000,-57
17.35833,-57
17.36667,-57
17.37500,-57
17.38333,-57
17.39167,-59
17.40000,-59
17.40833,-59
17.41667,-60
17.42500,-61
17.43333,-60
17.44167,-60
17.45000,-60
17.45833,-60
17.46667,-60
17.47500,-60
17.48333,-60
17.49167,-61
17.50000,-62
17.50833,-62
17.51667,-62
17.52500,-62
17.53333,-61
17.54167,-60
17.55000,-60
17.55833,-59
17.56667,-59
17.57500,-59
17.58333,-57
17.59167,-57
17.60000,-58
17.60833,-59
17.61667,-59
17.62500,-59
17.63333,-60
17.64167,-60
17.65000,-60
17.65833,-60
17.66667,-60
17.67500,-60
17.68333,-60
17.69167,-60
17.70000,-60
17.70833,-60
17.71667,-60
17.72500,-60
17.73333,-60
17.74167,-60
17.75000,-60
17.75833,-59
17.76667,-59
17.77500,-60
17.78333,-60
17.79167,-60
17.80000,-60
17.80833,-59
17.81667,-59
17.82500,-59
17.83333,-59
17.84167,-59
17.85000,-59
17.85833,-59
17.86667,-59
17.87500,-59
17.88333,-60
17.89167,-60
17.90000,-60
17.90833,-59
17.91667,-58
17.92500,-58
17.93333,-57
17.94167,-57
17.95000,-57
17.95833,-56
17.96667,-56
17.97500,-56
17.98333,-56
17.99167,-55
18.00000,-54
18.00833,-54
18.01667,-53
18.02500,-51
18.03333,-50
18.04167,-50
18.05000,-49
18.05833,-49
18.06667,-49
18.07500,-49
18.08333,-48
18.09167,-47
18.10000,-45
18.10833,-43
18.11667,-42
18.12500,-41
18.13333,-40
18.14167,-39
18.15000,-38
18.15833,-38
18.16667,-37
18.17500,-37
18.18333,-37
18.19167,-36
18.20000,-35
18.20833,-34
18.21667,-33
18.22500,-32
18.23333,-33
18.24167,-33
18.25000,-33
18.25833,-33
18.26667,-32
18.27500,-32
18.28333,-31
18.29167,-30
18.30000,-30
18.30833,-30
18.31667,-30
18.32500,-30
18.33333,-30
18.34167,-29
18.35000,-29
18.35833,-29
18.36667,-29
18.37500,-29
18.38333,-29
18.39167,-29
18.40000,-28
18.40833,-28
18.41667,-28
18.42500,-28
18.43333,-28
18.44167,-28
18.45000,-28
18.45833,-28
18.46667,-28
18.47500,-28
18.48333,-29
18.49167,-29
18.50000,-29
18.50833,-29
18.51667,-30
18.52500,-30
18.53333,-31
18.54167,-32
18.55000,-33
18.55833,-33
18.56667,-34
18.57500,-34
18.58333,-33
18.59167,-33
18.60000,-33
18.60833,-34
18.61667,-35
18.62500,-35
18.63333,-35
18.64167,-35
18.65000,-36
18.65833,-37
18.66667,-37
18.67500,-37
18.68333,-37
18.69167,-37
18.70000,-38
18.70833,-39
18.71667,-40
18.72500,-41
18.73333,-41
18.74167,-41
18.75000,-42
18.75833,-42
18.76667,-43
18.77500,-43
18.78333,-43
18.79167,-43
18.80000,-43
18.80833,-44
18.81667,-44
18.82500,-44
18.83333,-44
18.84167,-44
18.85000,-44
18.85833,-44
18.86667,-43
18.87500,-43
18.88333,-43
18.89167,-43
18.90000,-42
18.90833,-42
18.91667,-42
18.92500,-42
18.93333,-40
18.94167,-39
18.95000,-38
18.95833,-38
18.96667,-37
18.97500,-36
18.98333,-35
18.99167,-33
19.00000,-32
19.00833,-32
19.01667,-31
19.02500,-31
19.03333,-30
19.04167,-30
19.05000,-29
19.05833,-27
19.06667,-26
19.07500,-26
19.08333,-26
19.09167,-25
19.10000,-24
19.10833,-24
19.11667,-23
19.12500,-23
19.13333,-23
19.14167,-22
19.15000,-22
19.15833,-21
19.16667,-20
19.17500,-19
19.18333,-18
19.19167,-18
19.20000,-18
19.20833,-19
19.21667,-19
19.22500,-18
19.23333,-19
19.24167,-19
19.25000,-18
19.25833,-17
19.26667,-16
19.27500,-16
19.28333,-15
19.29167,-16
19.30000,-16
19.30833,-16
19.31667,-17
19.32500,-17
19.33333,-17
19.34167,-17
19.35000,-17
19.35833,-16
19.36667,-17
19.37500,-17
19.38333,-17
19.39167,-17
19.40000,-17
19.40833,-17
19.41667,-18
19.42500,-17
19.43333,-17
19.44167,-18
19.45000,-18
19.45833,-18
19.46667,-19
19.47500,-20
19.48333,-21
19.49167,-20
19.50000,-20
19.50833,-21
19.51667,-20
19.52500,-20
19.53333,-21
19.54167,-23
19.55000,-24
19.55833,-25
19.56667,-25
19.57500,-24
19.58333,-25
19.59167,-26
19.60000,-27
19.60833,-28
19.61667,-28
19.62500,-29
19.63333,-28
19.64167,-29
19.65000,-29
19.65833,-30
19.66667,-31
19.67500,-31
19.68333,-31
19.69167,-32
19.70000,-32
19.70833,-32
19.71667,-33
19.72500,-34
19.73333,-34
19.74167,-34
19.75000,-35
19.75833,-36
19.76667,-37
19.77500,-37
19.78333,-38
19.79167,-38
19.80000,-38
19.80833,-39
19.81667,-39
19.82500,-40
19.83333,-40
19.84167,-39
19.85000,-40
19.85833,-40
19.86667,-40
19.87500,-40
19.88333,-40
19.89167,-41
19.90000,-41
19.90833,-42
19.91667,-42
19.92500,-42
19.93333,-43
19.94167,-43
19.95000,-43
19.95833,-43
19.96667,-43
19.97500,-43
19.98333,-43
19.99167,-42
20.00000,-42
20.00833,-42
20.01667,-42
20.02500,-42
20.03333,-42
20.04167,-41
20.05000,-41
20.05833,-42
20.06667,-42
20.07500,-42
20.08333,-42
20.09167,-42
20.10000,-42
20.10833,-42
20.11667,-42
20.12500,-42
20.13333,-42
20.14167,-42
20.15000,-43
20.15833,-43
20.16667,-42
20.17500,-42
20.18333,-42
20.19167,-42
20.20000,-41
20.20833,-41
20.21667,-40
20.22500,-40
20.23333,-39
20.24167,-39
20.25000,-39
20.25833,-38
20.26667,-38
20.27500,-39
20.28333,-38
20.29167,-38
20.30000,-38
20.30833,-39
20.31667,-39
20.32500,-38
20.33333,-38
20.34167,-37
20.35000,-36
20.35833,-35
20.36667,-35
20.37500,-35
20.38333,-35
20.39167,-35
20.40000,-34
20.40833,-34
20.41667,-33
20.42500,-32
20.43333,-30
20.44167,-29
20.45000,-27
20.45833,-25
20.46667,-23
20.47500,-21
20.48333,-20
20.49167,-17
20.50000,-15
20.50833,-12
20.51667,-8
20.52500,-4
20.53333,-0
20.54167,4
20.55000,7
20.55833,10
20.56667,13
20.57500,17
20.58333,21
20.59167,26
20.60000,30
20.60833,34
20.61667,38
20.62500,43
20.63333,48
20.64167,54
20.65000,60
20.65833,64
20.66667,69
20.67500,72
20.68333,76
20.69167,81
20.70000,86
20.70833,90
20.71667,93
20.72500,95
20.73333,98
20.74167,102
20.75000,106
20.75833,109
20.76667,112
20.77500,115
20.78333,117
20.79167,119
20.80000,120
20.80833,122
20.81667,123
20.82500,125
20.83333,127
20.84167,129
20.85000,130
20.85833,130
20.86667,132
20.87500,133
20.88333,134
20.89167,135
20.90000,136
20.90833,136
20.91667,136
20.92500,137
20.93333,138
20.94167,138
20.95000,139
20.95833,138
20.96667,138
20.97500,138
20.98333,137
20.99167,137
21.00000,136
21.00833,135
21.01667,135
21.02500,135
21.03333,136
21.04167,135
21.05000,134
21.05833,133
21.06667,132
21.07500,130
21.08333,129
21.09167,127
21.10000,125
21.10833,122
21.11667,120
21.12500,117
21.13333,115
21.14167,112
21.15000,110
21.15833,107
21.16667,105
21.17500,102
21.18333,98
21.19167,95
21.20000,92
21.20833,89
21.21667,86
21.22500,80
21.23333,75
21.24167,70
21.25000,66
21.25833,62
21.26667,59
21.27500,56
21.28333,52
21.29167,48
21.30000,43
21.30833,39
21.31667,35
21.32500,32
21.33333,28
21.34167,24
21.35000,21
21.35833,17
21.36667,14
21.37500,11
21.38333,9
21.39167,6
21.40000,3
21.40833,0
21.41667,-3
21.42500,-5
21.43333,-6
21.44167,-8
21.45000,-10
21.45833,-13
21.46667,-15
21.47500,-17
21.48333,-18
21.49167,-20
21.50000,-21
21.50833,-23
21.51667,-24
21.52500,-25
21.53333,-27
21.54167,-29
21.55000,-30
21.55833,-32
21.56667,-33
21.57500,-35
21.58333,-36
21.59167,-37
21.60000,-36
21.60833,-37
21.61667,-38
21.62500,-39
21.63333,-39
21.64167,-39
21.65000,-39
21.65833,-39
21.66667,-40
21.67500,-41
21.68333,-41
21.69167,-42
21.70000,-42
21.70833,-43
21.71667,-43
21.72500,-44
21.73333,-44
21.74167,-44
21.75000,-44
21.75833,-44
21.76667,-44
21.77500,-46
21.78333,-47
21.79167,-47
21.80000,-48
21.80833,-48
21.81667,-47
21.82500,-46
21.83333,-46
21.84167,-45
21.85000,-46
21.85833,-47
21.86667,-47
21.87500,-47
21.88333,-47
21.89167,-47
21.90000,-47
21.90833,-47
21.91667,-47
21.92500,-47
21.93333,-48
21.94167,-48
21.95000,-48
21.95833,-47
21.96667,-47
21.97500,-47
21.98333,-47
21.99167,-46
22.00000,-46
22.00833,-47
22.01667,-47
22.02500,-47
22.03333,-47
22.04167,-46
22.05000,-47
22.05833,-47
22.06667,-47
22.07500,-48
22.08333,-48
22.09167,-48
22.10000,-49
22.10833,-48
22.11667,-48
22.12500,-49
22.13333,-49
22.14167,-49
22.15000,-49
22.15833,-48
22.16667,-48
22.17500,-47
22.18333,-47
22.19167,-47
22.20000,-47
22.20833,-48
22.21667,-48
22.22500,-49
22.23333,-50
22.24167,-50
22.25000,-50
22.25833,-49
22.26667,-49
22.27500,-49
22.28333,-49
22.29167,-50
22.30000,-50
22.30833,-49
22.31667,-49
22.32500,-49
22.33333,-49
22.34167,-49
22.35000,-49
22.35833,-49
22.36667,-50
22.37500,-50
22.38333,-50
22.39167,-49
22.40000,-49
22.40833,-50
22.41667,-50
22.42500,-50
22.43333,-50
22.44167,-51
22.45000,-51
22.45833,-51
22.46667,-50
22.47500,-49
22.48333,-48
22.49167,-48
22.50000,-49
22.50833,-49
22.51667,-50
22.52500,-50
22.53333,-50
22.54167,-51
22.55000,-51
22.55833,-50
22.56667,-49
22.57500,-49
22.58333,-48
22.59167,-49
22.60000,-49
22.60833,-49
22.61667,-50
22.62500,-51
22.63333,-52
22.64167,-52
22.65000,-52
22.65833,-51
22.66667,-51
22.67500,-50
22.68333,-50
22.69167,-51
22.70000,-52
22.70833,-52
22.71667,-52
22.72500,-52
22.73333,-51
22.74167,-50
22.75000,-51
22.75833,-51
22.76667,-51
22.77500,-50
22.78333,-50
22.79167,-51
22.80000,-52
22.80833,-53
22.81667,-52
22.82500,-51
22.83333,-52
22.84167,-52
22.85000,-51
22.85833,-51
22.86667,-52
22.87500,-53
22.88333,-54
22.89167,-53
22.90000,-53
22.90833,-53
22.91667,-52
22.92500,-52
22.93333,-52
22.94167,-52
22.95000,-52
22.95833,-53
22.96667,-53
22.97500,-52
22.98333,-52
22.99167,-52
23.00000,-50
23.00833,-50
23.01667,-50
23.02500,-51
23.03333,-51
23.04167,-52
23.05000,-53
23.05833,-54
23.06667,-53
23.07500,-53
23.08333,-53
23.09167,-53
23.10000,-55
23.10833,-54
23.11667,-54
23.12500,-54
23.13333,-55
23.14167,-55
23.15000,-55
23.15833,-55
23.16667,-56
23.17500,-56
23.18333,-56
23.19167,-55
23.20000,-54
23.20833,-55
23.21667,-55
23.22500,-55
23.23333,-54
23.24167,-54
23.25000,-54
23.25833,-56
23.26667,-56
23.27500,-56
23.28333,-56
23.29167,-57
23.30000,-56
23.30833,-56
23.31667,-56
23.32500,-56
23.33333,-56
23.34167,-56
23.35000,-56
23.35833,-55
23.36667,-55
23.37500,-55
23.38333,-55
23.39167,-55
23.40000,-55
23.40833,-56
23.41667,-57
23.42500,-56
23.43333,-56
23.44167,-57
23.45000,-57
23.45833,-57
23.46667,-58
23.47500,-58
23.48333,-58
23.49167,-58
23.50000,-59
23.50833,-59
23.51667,-60
23.52500,-60
23.53333,-60
23.54167,-59
23.55000,-59
23.55833,-59
23.56667,-60
23.57500,-59
23.58333,-59
23.59167,-59
23.60000,-59
23.60833,-59
23.61667,-59
23.62500,-59
23.63333,-59
23.64167,-59
23.65000,-58
23.65833,-59
23.66667,-59
23.67500,-59
23.68333,-59
23.69167,-60
23.70000,-60
23.70833,-61
23.71667,-62
23.72500,-61
23.73333,-60
23.74167,-60
23.75000,-60
23.75833,-60
23.76667,-61
23.77500,-61
23.78333,-62
23.79167,-62
23.80000,-62
23.80833,-61
23.81667,-60
23.82500,-61
23.83333,-61
23.84167,-62
23.85000,-62
23.85833,-62
23.86667,-62
23.87500,-63
23.88333,-63
23.89167,-63
23.90000,-62
23.90833,-62
23.91667,-62
23.92500,-62
23.93333,-62
23.94167,-62
23.95000,-62
23.95833,-62
23.96667,-62
23.97500,-63
23.98333,-63
23.99167,-63
24.00000,-62
24.00833,-62
24.01667,-62
24.02500,-63
24.03333,-64
24.04167,-65
24.05000,-65
24.05833,-65
24.06667,-65
24.07500,-65
24.08333,-65
24.09167,-66
24.10000,-65
24.10833,-65
24.11667,-65
24.12500,-65
24.13333,-66
24.14167,-67
24.15000,-66
24.15833,-66
24.16667,-66
24.17500,-67
24.18333,-67
24.19167,-67
24.20000,-66
24.20833,-65
24.21667,-64
24.22500,-64
24.23333,-65
24.24167,-66
24.25000,-67
24.25833,-68
24.26667,-68
24.27500,-67
24.28333,-67
24.29167,-67
24.30000,-69
24.30833,-69
24.31667,-68
24.32500,-68
24.33333,-67
24.34167,-67
24.35000,-67
24.35833,-66
24.36667,-66
24.37500,-68
24.38333,-69
24.39167,-69
24.40000,-69
24.40833,-69
24.41667,-69
24.42500,-70
24.43333,-70
24.44167,-70
24.45000,-70
24.45833,-71
24.46667,-72
24.47500,-72
24.48333,-72
24.49167,-71
24.50000,-71
24.50833,-71
24.51667,-71
24.52500,-70
24.53333,-70
24.54167,-69
24.55000,-70
24.55833,-70
24.56667,-70
24.57500,-70
24.58333,-70
24.59167,-71
24.60000,-71
24.60833,-72
24.61667,-72
24.62500,-72
24.63333,-71
24.64167,-72
24.65000,-71
24.65833,-70
24.66667,-71
24.67500,-71
24.68333,-71
24.69167,-71
24.70000,-71
24.70833,-72
24.71667,-72
24.72500,-72
24.73333,-72
24.74167,-72
24.75000,-72
24.75833,-73
24.76667,-73
24.77500,-73
24.78333,-72
24.79167,-71
24.80000,-71
24.80833,-71
24.81667,-72
24.82500,-72
24.83333,-73
24.84167,-73
24.85000,-73
24.85833,-72
24.86667,-72
24.87500,-72
24.88333,-73
24.89167,-74
24.90000,-74
24.90833,-73
24.91667,-73
24.92500,-73
24.93333,-73
24.94167,-73
24.95000,-74
24.95833,-74
24.96667,-75
24.97500,-76
24.98333,-76
24.99167,-75
25.00000,-75
25.00833,-76
25.01667,-76
25.02500,-76
25.03333,-76
25.04167,-75
25.05000,-75
25.05833,-74
25.06667,-73
25.07500,-73
25.08333,-73
25.09167,-74
25.10000,-75
25.10833,-75
25.11667,-76
25.12500,-76
25.13333,-76
25.14167,-76
25.15000,-76
25.15833,-76
25.16667,-76
25.17500,-76
25.18333,-76
25.19167,-76
25.20000,-76
25.20833,-76
25.21667,-76
25.22500,-77
25.23333,-78
25.24167,-78
25.25000,-77
25.25833,-77
25.26667,-76
25.27500,-76
25.28333,-75
25.29167,-75
25.30000,-76
25.30833,-77
25.31667,-77
25.32500,-76
25.33333,-75
25.34167,-75
25.35000,-76
25.35833,-76
25.36667,-76
25.37500,-76
25.38333,-76
25.39167,-76
25.40000,-76
25.40833,-76
25.41667,-76
25.42500,-76
25.43333,-77
25.44167,-77
25.45000,-77
25.45833,-76
25.46667,-77
25.47500,-78
25.48333,-78
25.49167,-78
25.50000,-78
25.50833,-78
25.51667,-78
25.52500,-78
25.53333,-78
25.54167,-79
25.55000,-79
25.55833,-79
25.56667,-79
25.57500,-78
25.58333,-77
25.59167,-77
25.60000,-77
25.60833,-77
25.61667,-77
25.62500,-77
25.63333,-78
25.64167,-79
25.65000,-80
25.65833,-80
25.66667,-79
25.67500,-79
25.68333,-79
25.69167,-80
25.70000,-80
25.70833,-80
25.71667,-80
25.72500,-80
25.73333,-79
25.74167,-79
25.75000,-79
25.75833,-80
25.76667,-80
25.77500,-80
25.78333,-80
25.79167,-79
25.80000,-78
25.80833,-79
25.81667,-79
25.82500,-80
25.83333,-81
25.84167,-81
25.85000,-80
25.85833,-79
25.86667,-79
25.87500,-80
25.88333,-79
25.89167,-79
25.90000,-79
25.90833,-79
25.91667,-80
25.92500,-80
25.93333,-79
25.94167,-79
25.95000,-78
25.95833,-79
25.96667,-80
25.97500,-80
25.98333,-80
25.99167,-80
26.00000,-80
26.00833,-80
26.01667,-80
26.02500,-80
26.03333,-81
26.04167,-82
26.05000,-82
26.05833,-81
26.06667,-81
26.07500,-81
26.08333,-81
26.09167,-82
26.10000,-82
26.10833,-83
26.11667,-83
26.12500,-83
26.13333,-82
26.14167,-81
26.15000,-81
26.15833,-81
26.16667,-82
26.17500,-83
26.18333,-83
26.19167,-83
26.20000,-83
26.20833,-83
26.21667,-83
26.22500,-83
26.23333,-83
26.24167,-84
26.25000,-84
26.25833,-84
26.26667,-83
26.27500,-83
26.28333,-82
26.29167,-81
26.30000,-81
26.30833,-81
26.31667,-81
26.32500,-81
26.33333,-82
26.34167,-82
26.35000,-82
26.35833,-82
26.36667,-82
26.37500,-82
26.38333,-82
26.39167,-83
26.40000,-83
26.40833,-82
26.41667,-82
26.42500,-83
26.43333,-84
26.44167,-85
26.45000,-85
26.45833,-85
26.46667,-84
26.47500,-83
26.48333,-83
26.49167,-83
26.50000,-84
26.50833,-83
26.51667,-83
26.52500,-84
26.53333,-84
26.54167,-83
26.55000,-83
26.55833,-83
26.56667,-84
26.57500,-84
26.58333,-85
26.59167,-84
26.60000,-83
26.60833,-83
26.61667,-84
26.62500,-84
26.63333,-85
26.64167,-85
26.65000,-85
26.65833,-84
26.66667,-84
26.67500,-84
26.68333,-85
26.69167,-84
26.70000,-84
26.70833,-84
26.71667,-84
26.72500,-85
26.73333,-85
26.74167,-85
26.75000,-85
26.75833,-85
26.76667,-85
26.77500,-84
26.78333,-84
26.79167,-83
26.80000,-83
26.80833,-83
26.81667,-83
26.82500,-83
26.83333,-83
26.84167,-83
26.85000,-83
26.85833,-83
26.86667,-83
26.87500,-84
26.88333,-84
26.89167,-83
26.90000,-83
26.90833,-83
26.91667,-83
26.92500,-83
26.93333,-84
26.94167,-84
26.95000,-83
26.95833,-83
26.96667,-84
26.97500,-84
26.98333,-83
26.99167,-83
27.00000,-82
27.00833,-82
27.01667,-83
27.02500,-84
27.03333,-84
27.04167,-84
27.05000,-84
27.05833,-84
27.06667,-83
27.07500,-82
27.08333,-82
27.09167,-81
27.10000,-81
27.10833,-82
27.11667,-82
27.12500,-83
27.13333,-83
27.14167,-83
27.15000,-83
27.15833,-84
27.16667,-84
27.17500,-83
27.18333,-84
27.19167,-84
27.20000,-83
27.20833,-83
27.21667,-83
27.22500,-83
27.23333,-84
27.24167,-85
27.25000,-85
27.25833,-84
27.26667,-84
27.27500,-83
27.28333,-83
27.29167,-84
27.30000,-84
27.30833,-84
27.31667,-84
27.32500,-83
27.33333,-83
27.34167,-83
27.35000,-84
27.35833,-83
27.36667,-83
27.37500,-82
27.38333,-83
27.39167,-83
27.40000,-83
27.40833,-82
27.41667,-82
27.42500,-82
27.43333,-82
27.44167,-81
27.45000,-81
27.45833,-80
27.46667,-80
27.47500,-80
27.48333,-80
27.49167,-81
27.50000,-81
27.50833,-82
27.51667,-82
27.52500,-82
27.53333,-82
27.54167,-82
27.55000,-82
27.55833,-83
27.56667,-83
27.57500,-82
27.58333,-82
27.59167,-83
27.60000,-82
27.60833,-82
27.61667,-82
27.62500,-82
27.63333,-83
27.64167,-83
27.65000,-83
27.65833,-83
27.66667,-83
27.67500,-82
27.68333,-82
27.69167,-82
27.70000,-81
27.70833,-81
27.71667,-82
27.72500,-83
27.73333,-83
27.74167,-83
27.75000,-83
27.75833,-82
27.76667,-82
27.77500,-82
27.78333,-83
27.79167,-83
27.80000,-84
27.80833,-84
27.81667,-83
27.82500,-83
27.83333,-84
27.84167,-84
27.85000,-84
27.85833,-85
27.86667,-85
27.87500,-86
27.88333,-85
27.89167,-84
27.90000,-84
27.90833,-83
27.91667,-83
27.92500,-83
27.93333,-83
27.94167,-82
27.95000,-83
27.95833,-83
27.96667,-82
27.97500,-82
27.98333,-82
27.99167,-82
28.00000,-82
28.00833,-83
28.01667,-82
28.02500,-82
28.03333,-82
28.04167,-83
28.05000,-83
28.05833,-83
28.06667,-83
28.07500,-83
28.08333,-83
28.09167,-82
28.10000,-82
28.10833,-82
28.11667,-82
28.12500,-82
28.13333,-82
28.14167,-82
28.15000,-82
28.15833,-82
28.16667,-82
28.17500,-81
28.18333,-81
28.19167,-81
28.20000,-80
28.20833,-80
28.21667,-79
28.22500,-78
28.23333,-78
28.24167,-79
28.25000,-80
28.25833,-79
28.26667,-78
28.27500,-78
28.28333,-78
28.29167,-78
28.30000,-79
28.30833,-80
28.31667,-79
28.32500,-79
28.33333,-78
28.34167,-78
28.35000,-78
28.35833,-78
28.36667,-78
28.37500,-78
28.38333,-78
28.39167,-79
28.40000,-78
28.40833,-78
28.41667,-79
28.42500,-79
28.43333,-79
28.44167,-79
28.45000,-79
28.45833,-77
28.46667,-75
28.47500,-75
28.48333,-76
28.49167,-78
28.50000,-78
28.50833,-78
28.51667,-77
28.52500,-77
28.53333,-76
28.54167,-76
28.55000,-76
28.55833,-76
28.56667,-76
28.57500,-75
28.58333,-74
28.59167,-74
28.60000,-74
28.60833,-75
28.61667,-74
28.62500,-74
28.63333,-74
28.64167,-75
28.65000,-75
28.65833,-75
28.66667,-74
28.67500,-74
28.68333,-74
28.69167,-74
28.70000,-74
28.70833,-75
28.71667,-75
28.72500,-74
28.73333,-74
28.74167,-75
28.75000,-74
28.75833,-74
28.76667,-74
28.77500,-75
28.78333,-76
28.79167,-76
28.80000,-75
28.80833,-75
28.81667,-75
28.82500,-76
28.83333,-76
28.84167,-77
28.85000,-77
28.85833,-76
28.86667,-77
28.87500,-77
28.88333,-77
28.89167,-76
28.90000,-76
28.90833,-76
28.91667,-75
28.92500,-76
28.93333,-78
28.94167,-78
28.95000,-78
28.95833,-77
28.96667,-77
28.97500,-76
28.98333,-76
28.99167,-77
29.00000,-78
29.00833,-79
29.01667,-79
29.02500,-80
29.03333,-80
29.04167,-80
29.05000,-80
29.05833,-79
29.06667,-79
29.07500,-79
29.08333,-79
29.09167,-80
29.10000,-79
29.10833,-79
29.11667,-80
29.12500,-81
29.13333,-81
29.14167,-81
29.15000,-82
29.15833,-82
29.16667,-83
29.17500,-84
29.18333,-85
29.19167,-84
29.20000,-83
29.20833,-84
29.21667,-84
29.22500,-85
29.23333,-85
29.24167,-85
29.25000,-85
29.25833,-85
29.26667,-85
29.27500,-86
29.28333,-85
29.29167,-85
29.30000,-85
29.30833,-86
29.31667,-86
29.32500,-87
29.33333,-86
29.34167,-86
29.35000,-86
29.35833,-87
29.36667,-88
29.37500,-87
29.38333,-87
29.39167,-87
29.40000,-87
29.40833,-88
29.41667,-89
29.42500,-89
29.43333,-89
29.44167,-89
29.45000,-89
29.45833,-89
29.46667,-88
29.47500,-88
29.48333,-88
29.49167,-88
29.50000,-88
29.50833,-88
29.51667,-88
29.52500,-88
29.53333,-88
29.54167,-88
29.55000,-87
29.55833,-87
29.56667,-88
29.57500,-89
29.58333,-89
29.59167,-89
29.60000,-89
29.60833,-89
29.61667,-88
29.62500,-88
29.63333,-89
29.64167,-89
29.65000,-90
29.65833,-91
29.66667,-91
29.67500,-91
29.68333,-91
29.69167,-91
29.70000,-91
29.70833,-91
29.71667,-91
29.72500,-91
29.73333,-92
29.74167,-91
29.75000,-91
29.75833,-92
29.76667,-92
29.77500,-92
29.78333,-92
29.79167,-92
29.80000,-91
29.80833,-91
29.81667,-91
29.82500,-90
29.83333,-89
29.84167,-89
29.85000,-90
29.85833,-91
29.86667,-91
29.87500,-91
29.88333,-91
29.89167,-91
29.90000,-91
29.90833,-91
29.91667,-91
29.92500,-92
29.93333,-92
29.94167,-92
29.95000,-91
29.95833,-91
29.96667,-90
29.97500,-90
29.98333,-90
29.99167,-89
30.00000,-90

[LC Chromatogram(Detector B-Ch1)]
Interval(msec),500
# of Points,3601
Start Time(min),0.000
End Time(min),30.000
Intensity Units,mV
Intensity Multiplier,0.001
R.Time (min),Intensity
0.00000,3
0.00833,3
0.01667,0
0.02500,0
0.03333,-0
0.04167,-0
0.05000,0
0.05833,0
0.06667,1
0.07500,1
0.08333,1
0.09167,2
0.10000,2
0.10833,2
0.11667,2
0.12500,2
0.13333,2
0.14167,2
0.15000,2
0.15833,2
0.16667,2
0.17500,2
0.18333,1
0.19167,1
0.20000,1
0.20833,1
0.21667,1
0.22500,1
0.23333,1
0.24167,1
0.25000,1
0.25833,2
0.26667,2
0.27500,2
0.28333,2
0.29167,2
0.30000,2
0.30833,2
0.31667,1
0.32500,1
0.33333,1
0.34167,1
0.35000,2
0.35833,2
0.36667,2
0.37500,2
0.38333,2
0.39167,3
0.40000,3
0.40833,3
0.41667,3
0.42500,3
0.43333,3
0.44167,3
0.45000,3
0.45833,3
0.46667,3
0.47500,3
0.48333,3
0.49167,3
0.50000,3
0.50833,3
0.51667,3
0.52500,3
0.53333,4
0.54167,4
0.55000,4
0.55833,4
0.56667,4
0.57500,4
0.58333,4
0.59167,4
0.60000,4
0.60833,4
0.61667,4
0.62500,4
0.63333,5
0.64167,5
0.65000,5
0.65833,5
0.66667,5
0.67500,4
0.68333,4
0.69167,4
0.70000,5
0.70833,4
0.71667,4
0.72500,4
0.73333,4
0.74167,4
0.75000,4
0.75833,4
0.76667,4
0.77500,4
0.78333,4
0.79167,4
0.80000,4
0.80833,4
0.81667,4
0.82500,4
0.83333,4
0.84167,4
0.85000,4
0.85833,4
0.86667,4
0.87500,4
0.88333,4
0.89167,4
0.90000,4
0.90833,5
0.91667,5
0.92500,5
0.93333,6
0.94167,6
0.95000,6
0.95833,6
0.96667,6
0.97500,6
0.98333,6
0.99167,5
1.00000,5
1.00833,5
1.01667,5
1.02500,5
1.03333,5
1.04167,6
1.05000,6
1.05833,6
1.06667,6
1.07500,6
1.08333,6
1.09167,6
1.10000,6
1.10833,6
1.11667,6
1.12500,6
1.13333,5
1.14167,5
1.15000,5
1.15833,5
1.16667,5
1.17500,6
1.18333,6
1.19167,6
1.20000,6
1.20833,6
1.21667,6
1.22500,6
1.23333,6
1.24167,6
1.25000,6
1.25833,7
1.26667,7
1.27500,7
1.28333,7
1.29167,7
1.30000,7
1.30833,7
1.31667,7
1.32500,7
1.33333,7
1.34167,6
1.35000,6
1.35833,6
1.36667,6
1.37500,6
1.38333,6
1.39167,7
1.40000,7
1.40833,7
1.41667,7
1.42500,7
1.43333,7
1.44167,7
1.45000,6
1.45833,7
1.46667,7
1.47500,7
1.48333,8
1.49167,8
1.50000,8
1.50833,7
1.51667,7
1.52500,7
1.53333,7
1.54167,7
1.55000,7
1.55833,7
1.56667,7
1.57500,7
1.58333,8
1.59167,8
1.60000,8
1.60833,8
1.61667,8
1.62500,8
1.63333,8
1.64167,8
1.65000,8
1.65833,8
1.66667,8
1.67500,8
1.68333,8
1.69167,8
1.70000,8
1.70833,8
1.71667,8
1.72500,8
1.73333,8
1.74167,9
1.75000,9
1.75833,9
1.76667,9
1.77500,9
1.78333,9
1.79167,9
1.80000,9
1.80833,9
1.81667,9
1.82500,9
1.83333,9
1.84167,9
1.85000,9
1.85833,9
1.86667,10
1.87500,10
1.88333,9
1.89167,9
1.90000,9
1.90833,9
1.91667,9
1.92500,9
1.93333,9
1.94167,9
1.95000,9
1.95833,9
1.96667,9
1.97500,9
1.98333,9
1.99167,9
2.00000,9
2.00833,9
2.01667,9
2.02500,9
2.03333,9
2.04167,9
2.05000,9
2.05833,10
2.06667,10
2.07500,10
2.08333,9
2.09167,9
2.10000,9
2.10833,10
2.11667,10
2.12500,10
2.13333,10
2.14167,9
2.15000,9
2.15833,9
2.16667,8
2.17500,8
2.18333,8
2.19167,7
2.20000,7
2.20833,7
2.21667,8
2.22500,7
2.23333,7
2.24167,7
2.25000,7
2.25833,7
2.26667,7
2.27500,7
2.28333,7
2.29167,8
2.30000,8
2.30833,7
2.31667,7
2.32500,7
2.33333,7
2.34167,7
2.35000,7
2.35833,7
2.36667,6
2.37500,6
2.38333,6
2.39167,6
2.40000,6
2.40833,6
2.41667,7
2.42500,7
2.43333,6
2.44167,6
2.45000,6
2.45833,5
2.46667,5
2.47500,5
2.48333,5
2.49167,5
2.50000,5
2.50833,5
2.51667,5
2.52500,4
2.53333,5
2.54167,5
2.55000,4
2.55833,4
2.56667,4
2.57500,4
2.58333,4
2.59167,4
2.60000,3
2.60833,3
2.61667,3
2.62500,3
2.63333,3
2.64167,3
2.65000,3
2.65833,3
2.66667,3
2.67500,3
2.68333,3
2.69167,3
2.70000,2
2.70833,2
2.71667,2
2.72500,2
2.73333,3
2.74167,3
2.75000,3
2.75833,3
2.76667,3
2.77500,2
2.78333,2
2.79167,2
2.80000,2
2.80833,2
2.81667,2
2.82500,2
2.83333,3
2.84167,4
2.85000,4
2.85833,4
2.86667,4
2.87500,4
2.88333,4
2.89167,4
2.90000,4
2.90833,4
2.91667,4
2.92500,4
2.93333,4
2.94167,4
2.95000,3
2.95833,3
2.96667,3
2.97500,3
2.98333,4
2.99167,4
3.00000,4
3.00833,4
3.01667,4
3.02500,4
3.03333,4
3.04167,4
3.05000,4
3.05833,4
3.06667,4
3.07500,4
3.08333,4
3.09167,4
3.10000,4
3.10833,4
3.11667,4
3.12500,5
3.13333,5
3.14167,5
3.15000,5
3.15833,5
3.16667,5
3.17500,5
3.18333,6
3.19167,6
3.20000,6
3.20833,6
3.21667,6
3.22500,6
3.23333,6
3.24167,7
3.25000,7
3.25833,7
3.26667,7
3.27500,7
3.28333,7
3.29167,7
3.30000,7
3.30833,8
3.31667,8
3.32500,8
3.33333,8
3.34167,8
3.35000,8
3.35833,8
3.36667,7
3.37500,7
3.38333,7
3.39167,7
3.40000,8
3.40833,8
3.41667,8
3.42500,8
3.43333,8
3.44167,9
3.45000,8
3.45833,8
3.46667,9
3.47500,9
3.48333,9
3.49167,9
3.50000,9
3.50833,9
3.51667,9
3.52500,9
3.53333,10
3.54167,10
3.55000,10
3.55833,10
3.56667,9
3.57500,9
3.58333,9
3.59167,9
3.60000,9
3.60833,9
3.61667,9
3.62500,10
3.63333,10
3.64167,11
3.65000,11
3.65833,11
3.66667,11
3.67500,11
3.68333,11
3.69167,11
3.70000,12
3.70833,12
3.71667,12
3.72500,11
3.73333,11
3.74167,11
3.75000,11
3.75833,11
3.76667,11
3.77500,11
3.78333,11
3.79167,11
3.80000,11
3.80833,11
3.81667,11
3.82500,12
3.83333,12
3.84167,12
3.85000,13
3.85833,13
3.86667,12
3.87500,12
3.88333,12
3.89167,12
3.90000,12
3.90833,12
3.91667,12
3.92500,11
3.93333,11
3.94167,12
3.95000,12
3.95833,12
3.96667,12
3.97500,12
3.98333,12
3.99167,11
4.00000,11
4.00833,12
4.01667,11
4.02500,11
4.03333,11
4.04167,11
4.05000,11
4.05833,12
4.06667,12
4.07500,12
4.08333,12
4.09167,12
4.10000,12
4.10833,12
4.11667,12
4.12500,12
4.13333,12
4.14167,12
4.15000,12
4.15833,12
4.16667,13
4.17500,13
4.18333,13
4.19167,14
4.20000,14
4.20833,14
4.21667,14
4.22500,14
4.23333,14
4.24167,14
4.25000,14
4.25833,13
4.26667,13
4.27500,13
4.28333,13
4.29167,13
4.30000,13
4.30833,13
4.31667,13
4.32500,13
4.33333,13
4.34167,13
4.35000,13
4.35833,13
4.36667,13
4.37500,13
4.38333,13
4.39167,13
4.40000,14
4.40833,14
4.41667,14
4.42500,14
4.43333,14
4.44167,15
4.45000,15
4.45833,15
4.46667,15
4.47500,15
4.48333,14
4.49167,14
4.50000,14
4.50833,14
4.51667,15
4.52500,15
4.53333,15
4.54167,15
4.55000,15
4.55833,15
4.56667,15
4.57500,14
4.58333,14
4.59167,14
4.60000,14
4.60833,14
4.61667,14
4.62500,14
4.63333,14
4.64167,14
4.65000,14
4.65833,14
4.66667,14
4.67500,14
4.68333,14
4.69167,14
4.70000,14
4.70833,14
4.71667,14
4.72500,14
4.73333,14
4.74167,15
4.75000,15
4.75833,15
4.76667,15
4.77500,15
4.78333,15
4.79167,15
4.80000,15
4.80833,15
4.81667,15
4.82500,15
4.83333,15
4.84167,15
4.85000,15
4.85833,15
4.86667,15
4.87500,15
4.88333,15
4.89167,15
4.90000,15
4.90833,14
4.91667,14
4.92500,15
4.93333,15
4.94167,15
4.95000,14
4.95833,14
4.96667,14
4.97500,14
4.98333,15
4.99167,15
5.00000,15
5.00833,15
5.01667,15
5.02500,15
5.03333,15
5.04167,15
5.05000,15
5.05833,15
5.06667,15
5.07500,15
5.08333,15
5.09167,15
5.10000,15
5.10833,15
5.11667,15
5.12500,15
5.13333,15
5.14167,15
5.15000,15
5.15833,15
5.16667,15
5.17500,15
5.18333,15
5.19167,15
5.20000,15
5.20833,15
5.21667,15
5.22500,15
5.23333,15
5.24167,16
5.25000,16
5.25833,16
5.26667,16
5.27500,16
5.28333,16
5.29167,16
5.30000,16
5.30833,16
5.31667,16
5.32500,15
5.33333,15
5.34167,16
5.35000,16
5.35833,16
5.36667,16
5.37500,16
5.38333,16
5.39167,16
5.40000,16
5.40833,16
5.41667,17
5.42500,17
5.43333,17
5.44167,17
5.45000,16
5.45833,16
5.46667,16
5.47500,16
5.48333,17
5.49167,17
5.50000,17
5.50833,16
5.51667,16
5.52500,17
5.53333,17
5.54167,17
5.55000,17
5.55833,17
5.56667,17
5.57500,17
5.58333,17
5.59167,17
5.60000,17
5.60833,17
5.61667,18
5.62500,18
5.63333,18
5.64167,18
5.65000,17
5.65833,17
5.66667,17
5.67500,17
5.68333,18
5.69167,18
5.70000,18
5.70833,18
5.71667,18
5.72500,18
5.73333,17
5.74167,17
5.75000,17
5.75833,17
5.76667,17
5.77500,18
5.78333,18
5.79167,18
5.80000,18
5.80833,18
5.81667,19
5.82500,19
5.83333,19
5.84167,19
5.85000,19
5.85833,19
5.86667,19
5.87500,19
5.88333,19
5.89167,20
5.90000,20
5.90833,20
5.91667,20
5.92500,19
5.93333,19
5.94167,19
5.95000,19
5.95833,20
5.96667,20
5.97500,20
5.98333,21
5.99167,21
6.00000,21
6.00833,21
6.01667,21
6.02500,21
6.03333,21
6.04167,20
6.05000,20
6.05833,20
6.06667,21
6.07500,21
6.08333,21
6.09167,21
6.10000,21
6.10833,21
6.11667,22
6.12500,22
6.13333,22
6.14167,22
6.15000,22
6.15833,22
6.16667,22
6.17500,22
6.18333,23
6.19167,23
6.20000,23
6.20833,23
6.21667,23
6.22500,23
6.23333,23
6.24167,23
6.25000,23
6.25833,23
6.26667,23
6.27500,23
6.28333,23
6.29167,23
6.30000,23
6.30833,24
6.31667,24
6.32500,24
6.33333,24
6.34167,24
6.35000,24
6.35833,24
6.36667,24
6.37500,25
6.38333,25
6.39167,25
6.40000,25
6.40833,25
6.41667,25
6.42500,25
6.43333,25
6.44167,25
6.45000,25
6.45833,25
6.46667,25
6.47500,25
6.48333,25
6.49167,25
6.50000,26
6.50833,26
6.51667,26
6.52500,26
6.53333,26
6.54167,26
6.55000,26
6.55833,26
6.56667,26
6.57500,26
6.58333,26
6.59167,26
6.60000,26
6.60833,26
6.61667,26
6.62500,26
6.63333,26
6.64167,27
6.65000,27
6.65833,27
6.66667,27
6.67500,27
6.68333,27
6.69167,27
6.70000,28
6.70833,28
6.71667,28
6.72500,28
6.73333,27
6.74167,27
6.75000,27
6.75833,27
6.76667,27
6.77500,27
6.78333,27
6.79167,27
6.80000,27
6.80833,27
6.81667,28
6.82500,28
6.83333,28
6.84167,28
6.85000,28
6.85833,28
6.86667,28
6.87500,27
6.88333,27
6.89167,27
6.90000,27
6.90833,27
6.91667,27
6.92500,27
6.93333,27
6.94167,27
6.95000,27
6.95833,27
6.96667,27
6.97500,27
6.98333,27
6.99167,27
7.00000,27
7.00833,27
7.01667,27
7.02500,27
7.03333,27
7.04167,28
7.05000,28
7.05833,28
7.06667,28
7.07500,28
7.08333,28
7.09167,28
7.10000,28
7.10833,28
7.11667,28
7.12500,28
7.13333,28
7.14167,28
7.15000,27
7.15833,27
7.16667,27
7.17500,27
7.18333,27
7.19167,27
7.20000,27
7.20833,26
7.21667,26
7.22500,26
7.23333,26
7.24167,26
7.25000,26
7.25833,27
7.26667,27
7.27500,27
7.28333,27
7.29167,27
7.30000,27
7.30833,27
7.31667,26
7.32500,26
7.33333,26
7.34167,26
7.35000,26
7.35833,27
7.36667,26
7.37500,26
7.38333,26
7.39167,25
7.40000,25
7.40833,24
7.41667,24
7.42500,24
7.43333,24
7.44167,24
7.45000,24
7.45833,24
7.46667,25
7.47500,25
7.48333,25
7.49167,25
7.50000,25
7.50833,25
7.51667,25
7.52500,25
7.53333,25
7.54167,25
7.55000,25
7.55833,24
7.56667,24
7.57500,24
7.58333,24
7.59167,25
7.60000,25
7.60833,25
7.61667,25
7.62500,25
7.63333,24
7.64167,24
7.65000,24
7.65833,24
7.66667,23
7.67500,23
7.68333,23
7.69167,23
7.70000,23
7.70833,23
7.71667,23
7.72500,23
7.73333,23
7.74167,23
7.75000,23
7.75833,23
7.76667,23
7.77500,23
7.78333,23
7.79167,23
7.80000,23
7.80833,22
7.81667,22
7.82500,22
7.83333,22
7.84167,21
7.85000,21
7.85833,22
7.86667,22
7.87500,22
7.88333,22
7.89167,22
7.90000,21
7.90833,21
7.91667,21
7.92500,21
7.93333,21
7.94167,21
7.95000,21
7.95833,21
7.96667,21
7.97500,21
7.98333,21
7.99167,21
8.00000,21
8.00833,22
8.01667,22
8.02500,22
8.03333,22
8.04167,22
8.05000,21
8.05833,21
8.06667,21
8.07500,21
8.08333,21
8.09167,21
8.10000,21
8.10833,21
8.11667,20
8.12500,20
8.13333,20
8.14167,19
8.15000,20
8.15833,20
8.16667,20
8.17500,20
8.18333,19
8.19167,20
8.20000,20
8.20833,20
8.21667,19
8.22500,19
8.23333,19
8.24167,20
8.25000,20
8.25833,19
8.26667,20
8.27500,20
8.28333,20
8.29167,20
8.30000,20
8.30833,20
8.31667,20
8.32500,20
8.33333,20
8.34167,20
8.35000,20
8.35833,20
8.36667,20
8.37500,20
8.38333,19
8.39167,19
8.40000,19
8.40833,19
8.41667,19
8.42500,19
8.43333,19
8.44167,19
8.45000,19
8.45833,19
8.46667,19
8.47500,19
8.48333,20
8.49167,20
8.50000,20
8.50833,20
8.51667,20
8.52500,20
8.53333,20
8.54167,20
8.55000,20
8.55833,20
8.56667,19
8.57500,19
8.58333,19
8.59167,19
8.60000,19
8.60833,19
8.61667,18
8.62500,18
8.63333,18
8.64167,18
8.65000,17
8.65833,17
8.66667,17
8.67500,17
8.68333,17
8.69167,17
8.70000,17
8.70833,17
8.71667,17
8.72500,17
8.73333,17
8.74167,17
8.75000,17
8.75833,17
8.76667,17
8.77500,17
8.78333,17
8.79167,17
8.80000,17
8.80833,18
8.81667,18
8.82500,18
8.83333,18
8.84167,18
8.85000,18
8.85833,18
8.86667,18
8.87500,18
8.88333,18
8.89167,17
8.90000,17
8.90833,17
8.91667,18
8.92500,18
8.93333,18
8.94167,18
8.95000,18
8.95833,17
8.96667,17
8.97500,17
8.98333,17
8.99167,18
9.00000,18
9.00833,18
9.01667,18
9.02500,18
9.03333,17
9.04167,17
9.05000,18
9.05833,18
9.06667,18
9.07500,18
9.08333,18
9.09167,18
9.10000,18
9.10833,18
9.11667,18
9.12500,19
9.13333,19
9.14167,19
9.15000,18
9.15833,18
9.16667,18
9.17500,18
9.18333,17
9.19167,17
9.20000,17
9.20833,17
9.21667,17
9.22500,18
9.23333,18
9.24167,18
9.25000,18
9.25833,18
9.26667,18
9.27500,18
9.28333,18
9.29167,18
9.30000,18
9.30833,18
9.31667,18
9.32500,18
9.33333,18
9.34167,18
9.35000,18
9.35833,18
9.36667,17
9.37500,17
9.38333,17
9.39167,17
9.40000,17
9.40833,18
9.41667,17
9.42500,17
9.43333,17
9.44167,17
9.45000,18
9.45833,18
9.46667,18
9.47500,18
9.48333,18
9.49167,18
9.50000,17
9.50833,17
9.51667,17
9.52500,17
9.53333,17
9.54167,17
9.55000,18
9.55833,18
9.56667,18
9.57500,18
9.58333,19
9.59167,19
9.60000,19
9.60833,19
9.61667,18
9.62500,18
9.63333,18
9.64167,18
9.65000,18
9.65833,18
9.66667,18
9.67500,18
9.68333,17
9.69167,17
9.70000,17
9.70833,18
9.71667,18
9.72500,18
9.73333,18
9.74167,18
9.75000,18
9.75833,18
9.76667,19
9.77500,19
9.78333,18
9.79167,18
9.80000,19
9.80833,19
9.81667,19
9.82500,19
9.83333,19
9.84167,19
9.85000,19
9.85833,18
9.86667,18
9.87500,18
9.88333,19
9.89167,19
9.90000,19
9.90833,19
9.91667,19
9.92500,19
9.93333,19
9.94167,18
9.95000,18
9.95833,18
9.96667,19
9.97500,19
9.98333,19
9.99167,19
10.00000,19
10.00833,19
10.01667,19
10.02500,19
10.03333,19
10.04167,19
10.05000,19
10.05833,19
10.06667,19
10.07500,19
10.08333,19
10.09167,19
10.10000,19
10.10833,19
10.11667,20
10.12500,20
10.13333,20
10.14167,20
10.15000,21
10.15833,20
10.16667,20
10.17500,20
10.18333,20
10.19167,20
10.20000,20
10.20833,20
10.21667,19
10.22500,19
10.23333,19
10.24167,19
10.25000,19
10.25833,19
10.26667,19
10.27500,19
10.28333,20
10.29167,20
10.30000,20
10.30833,20
10.31667,20
10.32500,20
10.33333,20
10.34167,20
10.35000,20
10.35833,20
10.36667,20
10.37500,20
10.38333,20
10.39167,19
10.40000,19
10.40833,19
10.41667,19
10.42500,18
10.43333,17
10.44167,16
10.45000,14
10.45833,12
10.46667,10
10.47500,6
10.48333,0
10.49167,-7
10.50000,-15
10.50833,-26
10.51667,-40
10.52500,-57
10.53333,-79
10.54167,-104
10.55000,-136
10.55833,-173
10.56667,-217
10.57500,-269
10.58333,-328
10.59167,-396
10.60000,-472
10.60833,-558
10.61667,-653
10.62500,-757
10.63333,-871
10.64167,-993
10.65000,-1123
10.65833,-1261
10.66667,-1406
10.67500,-1555
10.68333,-1710
10.69167,-1868
10.70000,-2028
10.70833,-2189
10.71667,-2351
10.72500,-2511
10.73333,-2669
10.74167,-2824
10.75000,-2975
10.75833,-3120
10.76667,-3260
10.77500,-3394
10.78333,-3521
10.79167,-3640
10.80000,-3752
10.80833,-3855
10.81667,-3949
10.82500,-4034
10.83333,-4109
10.84167,-4175
10.85000,-4231
10.85833,-4277
10.86667,-4312
10.87500,-4337
10.88333,-4351
10.89167,-4355
10.90000,-4349
10.90833,-4333
10.91667,-4306
10.92500,-4270
10.93333,-4224
10.94167,-4169
10.95000,-4105
10.95833,-4033
10.96667,-3954
10.97500,-3868
10.98333,-3776
10.99167,-3679
11.00000,-3577
11.00833,-3472
11.01667,-3362
11.02500,-3250
11.03333,-3136
11.04167,-3021
11.05000,-2906
11.05833,-2789
11.06667,-2674
11.07500,-2559
11.08333,-2446
11.09167,-2334
11.10000,-2226
11.10833,-2120
11.11667,-2017
11.12500,-1916
11.13333,-1819
11.14167,-1725
11.15000,-1634
11.15833,-1547
11.16667,-1463
11.17500,-1383
11.18333,-1307
11.19167,-1234
11.20000,-1164
11.20833,-1097
11.21667,-1035
11.22500,-975
11.23333,-918
11.24167,-864
11.25000,-813
11.25833,-765
11.26667,-719
11.27500,-677
11.28333,-636
11.29167,-598
11.30000,-563
11.30833,-529
11.31667,-497
11.32500,-467
11.33333,-439
11.34167,-412
11.35000,-387
11.35833,-364
11.36667,-342
11.37500,-321
11.38333,-302
11.39167,-284
11.40000,-267
11.40833,-251
11.41667,-236
11.42500,-222
11.43333,-209
11.44167,-196
11.45000,-184
11.45833,-173
11.46667,-163
11.47500,-154
11.48333,-145
11.49167,-137
11.50000,-129
11.50833,-121
11.51667,-114
11.52500,-108
11.53333,-101
11.54167,-96
11.55000,-90
11.55833,-85
11.56667,-80
11.57500,-76
11.58333,-72
11.59167,-68
11.60000,-64
11.60833,-60
11.61667,-56
11.62500,-53
11.63333,-50
11.64167,-48
11.65000,-45
11.65833,-42
11.66667,-40
11.67500,-38
11.68333,-36
11.69167,-34
11.70000,-32
11.70833,-30
11.71667,-29
11.72500,-27
11.73333,-26
11.74167,-24
11.75000,-22
11.75833,-20
11.76667,-19
11.77500,-18
11.78333,-17
11.79167,-16
11.80000,-15
11.80833,-14
11.81667,-13
11.82500,-12
11.83333,-11
11.84167,-10
11.85000,-10
11.85833,-9
11.86667,-9
11.87500,-8
11.88333,-8
11.89167,-7
11.90000,-7
11.90833,-7
11.91667,-6
11.92500,-6
11.93333,-5
11.94167,-4
11.95000,-4
11.95833,-3
11.96667,-3
11.97500,-3
11.98333,-2
11.99167,-1
12.00000,-1
12.00833,-0
12.01667,0
12.02500,1
12.03333,1
12.04167,1
12.05000,1
12.05833,1
12.06667,2
12.07500,2
12.08333,2
12.09167,2
12.10000,2
12.10833,2
12.11667,2
12.12500,2
12.13333,3
12.14167,3
12.15000,4
12.15833,4
12.16667,4
12.17500,5
12.18333,5
12.19167,5
12.20000,5
12.20833,5
12.21667,6
12.22500,6
12.23333,6
12.24167,6
12.25000,6
12.25833,6
12.26667,6
12.27500,6
12.28333,6
12.29167,7
12.30000,7
12.30833,8
12.31667,8
12.32500,7
12.33333,7
12.34167,7
12.35000,8
12.35833,8
12.36667,8
12.37500,8
12.38333,8
12.39167,8
12.40000,8
12.40833,8
12.41667,8
12.42500,8
12.43333,8
12.44167,8
12.45000,9
12.45833,9
12.46667,10
12.47500,10
12.48333,10
12.49167,10
12.50000,10
12.50833,11
12.51667,11
12.52500,11
12.53333,11
12.54167,11
12.55000,11
12.55833,11
12.56667,11
12.57500,11
12.58333,11
12.59167,11
12.60000,11
12.60833,12
12.61667,12
12.62500,12
12.63333,12
12.64167,12
12.65000,12
12.65833,13
12.66667,12
12.67500,12
12.68333,12
12.69167,12
12.70000,12
12.70833,12
12.71667,13
12.72500,13
12.73333,13
12.74167,13
12.75000,13
12.75833,13
12.76667,13
12.77500,14
12.78333,13
12.79167,13
12.80000,14
12.80833,14
12.81667,14
12.82500,14
12.83333,15
12.84167,15
12.85000,15
12.85833,15
12.86667,15
12.87500,15
12.88333,15
12.89167,15
12.90000,16
12.90833,16
12.91667,16
12.92500,16
12.93333,16
12.94167,16
12.95000,16
12.95833,16
12.96667,16
12.97500,16
12.98333,16
12.99167,16
13.00000,16
13.00833,16
13.01667,16
13.02500,16
13.03333,16
13.04167,17
13.05000,17
13.05833,17
13.06667,17
13.07500,17
13.08333,17
13.09167,16
13.10000,16
13.10833,17
13.11667,17
13.12500,17
13.13333,17
13.14167,18
13.15000,18
13.15833,17
13.16667,17
13.17500,18
13.18333,18
13.19167,18
13.20000,18
13.20833,18
13.21667,18
13.22500,18
13.23333,18
13.24167,18
13.25000,17
13.25833,17
13.26667,17
13.27500,18
13.28333,18
13.29167,18
13.30000,19
13.30833,19
13.31667,19
13.32500,19
13.33333,18
13.34167,18
13.35000,18
13.35833,19
13.36667,19
13.37500,19
13.38333,19
13.39167,20
13.40000,20
13.40833,20
13.41667,20
13.42500,20
13.43333,19
13.44167,19
13.45000,19
13.45833,19
13.46667,19
13.47500,19
13.48333,19
13.49167,19
13.50000,19
13.50833,19
13.51667,20
13.52500,20
13.53333,20
13.54167,20
13.55000,20
13.55833,20
13.56667,20
13.57500,20
13.58333,20
13.59167,20
13.60000,20
13.60833,20
13.61667,20
13.62500,20
13.63333,20
13.64167,20
13.65000,20
13.65833,20
13.66667,20
13.67500,20
13.68333,20
13.69167,20
13.70000,21
13.70833,21
13.71667,21
13.72500,21
13.73333,21
13.74167,21
13.75000,21
13.75833,20
13.76667,20
13.77500,20
13.78333,21
13.79167,21
13.80000,21
13.80833,22
13.81667,22
13.82500,22
13.83333,22
13.84167,22
13.85000,23
13.85833,23
13.86667,22
13.87500,22
13.88333,22
13.89167,22
13.90000,22
13.90833,22
13.91667,22
13.92500,22
13.93333,22
13.94167,22
13.95000,22
13.95833,22
13.96667,22
13.97500,22
13.98333,22
13.99167,22
14.00000,22
14.00833,22
14.01667,22
14.02500,21
14.03333,22
14.04167,22
14.05000,22
14.05833,23
14.06667,23
14.07500,23
14.08333,23
14.09167,23
14.10000,23
14.10833,23
14.11667,23
14.12500,23
14.13333,23
14.14167,22
14.15000,22
14.15833,22
14.16667,22
14.17500,22
14.18333,22
14.19167,22
14.20000,23
14.20833,23
14.21667,22
14.22500,22
14.23333,22
14.24167,22
14.25000,22
14.25833,23
14.26667,23
14.27500,23
14.28333,23
14.29167,23
14.30000,23
14.30833,23
14.31667,23
14.32500,23
14.33333,23
14.34167,23
14.35000,23
14.35833,23
14.36667,23
14.37500,23
14.38333,23
14.39167,24
14.40000,24
14.40833,24
14.41667,24
14.42500,24
14.43333,24
14.44167,24
14.45000,24
14.45833,24
14.46667,24
14.47500,24
14.48333,24
14.49167,24
14.50000,24
14.50833,23
14.51667,23
14.52500,24
14.53333,24
14.54167,24
14.55000,24
14.55833,24
14.56667,24
14.57500,25
14.58333,25
14.59167,25
14.60000,24
14.60833,24
14.61667,24
14.62500,24
14.63333,23
14.64167,23
14.65000,23
14.65833,24
14.66667,24
14.67500,24
14.68333,24
14.69167,25
14.70000,25
14.70833,25
14.71667,25
14.72500,25
14.73333,25
14.74167,25
14.75000,25
14.75833,25
14.76667,25
14.77500,25
14.78333,26
14.79167,26
14.80000,26
14.80833,26
14.81667,26
14.82500,26
14.83333,26
14.84167,26
14.85000,26
14.85833,27
14.86667,27
14.87500,26
14.88333,26
14.89167,26
14.90000,26
14.90833,26
14.91667,26
14.92500,26
14.93333,26
14.94167,26
14.95000,26
14.95833,26
14.96667,26
14.97500,27
14.98333,27
14.99167,27
15.00000,27
15.00833,27
15.01667,27
15.02500,27
15.03333,27
15.04167,27
15.05000,27
15.05833,27
15.06667,27
15.07500,27
15.08333,27
15.09167,28
15.10000,28
15.10833,28
15.11667,27
15.12500,27
15.13333,27
15.14167,27
15.15000,27
15.15833,27
15.16667,27
15.17500,27
15.18333,27
15.19167,27
15.20000,27
15.20833,27
15.21667,26
15.22500,26
15.23333,26
15.24167,26
15.25000,25
15.25833,25
15.26667,25
15.27500,26
15.28333,26
15.29167,26
15.30000,26
15.30833,26
15.31667,26
15.32500,26
15.33333,25
15.34167,25
15.35000,25
15.35833,25
15.36667,25
15.37500,24
15.38333,24
15.39167,24
15.40000,25
15.40833,25
15.41667,25
15.42500,25
15.43333,25
15.44167,25
15.45000,26
15.45833,26
15.46667,26
15.47500,26
15.48333,26
15.49167,26
15.50000,26
15.50833,26
15.51667,27
15.52500,27
15.53333,26
15.54167,26
15.55000,26
15.55833,26
15.56667,26
15.57500,25
15.58333,25
15.59167,25
15.60000,26
15.60833,26
15.61667,26
15.62500,26
15.63333,26
15.64167,26
15.65000,26
15.65833,27
15.66667,27
15.67500,27
15.68333,27
15.69167,27
15.70000,26
15.70833,26
15.71667,26
15.72500,26
15.73333,26
15.74167,26
15.75000,26
15.75833,26
15.76667,26
15.77500,26
15.78333,26
15.79167,26
15.80000,26
15.80833,26
15.81667,26
15.82500,27
15.83333,27
15.84167,26
15.85000,26
15.85833,26
15.86667,26
15.87500,26
15.88333,26
15.89167,26
15.90000,26
15.90833,26
15.91667,26
15.92500,26
15.93333,26
15.94167,26
15.95000,26
15.95833,26
15.96667,26
15.97500,26
15.98333,26
15.99167,26
16.00000,26
16.00833,26
16.01667,26
16.02500,26
16.03333,26
16.04167,26
16.05000,26
16.05833,26
16.06667,27
16.07500,27
16.08333,27
16.09167,27
16.10000,27
16.10833,27
16.11667,26
16.12500,26
16.13333,26
16.14167,26
16.15000,26
16.15833,27
16.16667,26
16.17500,26
16.18333,26
16.19167,25
16.20000,26
16.20833,26
16.21667,26
16.22500,26
16.23333,26
16.24167,26
16.25000,26
16.25833,26
16.26667,26
16.27500,26
16.28333,26
16.29167,27
16.30000,27
16.30833,26
16.31667,26
16.32500,26
16.33333,26
16.34167,26
16.35000,26
16.35833,26
16.36667,26
16.37500,26
16.38333,26
16.39167,26
16.40000,26
16.40833,26
16.41667,26
16.42500,26
16.43333,26
16.44167,27
16.45000,27
16.45833,27
16.46667,27
16.47500,27
16.48333,27
16.49167,26
16.50000,26
16.50833,26
16.51667,26
16.52500,26
16.53333,27
16.54167,27
16.55000,27
16.55833,27
16.56667,28
16.57500,28
16.58333,28
16.59167,28
16.60000,28
16.60833,28
16.61667,28
16.62500,27
16.63333,27
16.64167,27
16.65000,27
16.65833,27
16.66667,27
16.67500,27
16.68333,27
16.69167,27
16.70000,27
16.70833,27
16.71667,27
16.72500,27
16.73333,27
16.74167,27
16.75000,27
16.75833,27
16.76667,27
16.77500,27
16.78333,27
16.79167,27
16.80000,27
16.80833,27
16.81667,27
16.82500,27
16.83333,27
16.84167,27
16.85000,27
16.85833,27
16.86667,27
16.87500,27
16.88333,27
16.89167,27
16.90000,27
16.90833,27
16.91667,27
16.92500,27
16.93333,26
16.94167,26
16.95000,27
16.95833,27
16.96667,27
16.97500,27
16.98333,27
16.99167,27
17.00000,27
17.00833,27
17.01667,27
17.02500,27
17.03333,27
17.04167,27
17.05000,27
17.05833,27
17.06667,27
17.07500,27
17.08333,26
17.09167,26
17.10000,26
17.10833,26
17.11667,26
17.12500,27
17.13333,27
17.14167,27
17.15000,27
17.15833,27
17.16667,27
17.17500,27
17.18333,27
17.19167,27
17.20000,27
17.20833,27
17.21667,27
17.22500,27
17.23333,27
17.24167,27
17.25000,27
17.25833,27
17.26667,27
17.27500,28
17.28333,27
17.29167,27
17.30000,27
17.30833,27
17.31667,27
17.32500,27
17.33333,27
17.34167,27
17.35000,27
17.35833,27
17.36667,27
17.37500,27
17.38333,27
17.39167,27
17.40000,27
17.40833,27
17.41667,27
17.42500,27
17.43333,27
17.44167,26
17.45000,26
17.45833,27
17.46667,27
17.47500,27
17.48333,27
17.49167,27
17.50000,27
17.50833,27
17.51667,26
17.52500,26
17.53333,26
17.54167,26
17.55000,26
17.55833,27
17.56667,27
17.57500,27
17.58333,27
17.59167,27
17.60000,27
17.60833,27
17.61667,27
17.62500,27
17.63333,27
17.64167,28
17.65000,28
17.65833,29
17.66667,28
17.67500,28
17.68333,28
17.69167,28
17.70000,28
17.70833,28
17.71667,27
17.72500,27
17.73333,27
17.74167,27
17.75000,27
17.75833,28
17.76667,28
17.77500,28
17.78333,27
17.79167,27
17.80000,27
17.80833,27
17.81667,27
17.82500,27
17.83333,27
17.84167,27
17.85000,27
17.85833,27
17.86667,27
17.87500,27
17.88333,28
17.89167,28
17.90000,28
17.90833,28
17.91667,28
17.92500,28
17.93333,28
17.94167,28
17.95000,27
17.95833,27
17.96667,27
17.97500,27
17.98333,26
17.99167,27
18.00000,27
18.00833,27
18.01667,27
18.02500,27
18.03333,27
18.04167,27
18.05000,27
18.05833,27
18.06667,28
18.07500,28
18.08333,28
18.09167,28
18.10000,28
18.10833,28
18.11667,29
18.12500,29
18.13333,30
18.14167,30
18.15000,30
18.15833,31
18.16667,32
18.17500,33
18.18333,34
18.19167,36
18.20000,37
18.20833,39
18.21667,40
18.22500,42
18.23333,45
18.24167,47
18.25000,50
18.25833,53
18.26667,56
18.27500,60
18.28333,64
18.29167,69
18.30000,74
18.30833,79
18.31667,84
18.32500,90
18.33333,97
18.34167,105
18.35000,113
18.35833,121
18.36667,130
18.37500,139
18.38333,149
18.39167,159
18.40000,170
18.40833,181
18.41667,192
18.42500,204
18.43333,216
18.44167,229
18.45000,242
18.45833,256
18.46667,270
18.47500,284
18.48333,298
18.49167,312
18.50000,326
18.50833,341
18.51667,355
18.52500,369
18.53333,383
18.54167,397
18.55000,410
18.55833,423
18.56667,436
18.57500,449
18.58333,461
18.59167,473
18.60000,485
18.60833,497
18.61667,508
18.62500,519
18.63333,529
18.64167,539
18.65000,548
18.65833,557
18.66667,565
18.67500,572
18.68333,580
18.69167,586
18.70000,593
18.70833,598
18.71667,604
18.72500,609
18.73333,614
18.74167,618
18.75000,621
18.75833,625
18.76667,628
18.77500,631
18.78333,633
18.79167,635
18.80000,637
18.80833,638
18.81667,638
18.82500,639
18.83333,639
18.84167,638
18.85000,637
18.85833,635
18.86667,633
18.87500,631
18.88333,628
18.89167,625
18.90000,621
18.90833,617
18.91667,612
18.92500,607
18.93333,602
18.94167,596
18.95000,591
18.95833,585
18.96667,578
18.97500,571
18.98333,564
18.99167,556
19.00000,548
19.00833,540
19.01667,531
19.02500,523
19.03333,514
19.04167,506
19.05000,497
19.05833,488
19.06667,479
19.07500,469
19.08333,460
19.09167,451
19.10000,443
19.10833,434
19.11667,426
19.12500,418
19.13333,410
19.14167,403
19.15000,397
19.15833,391
19.16667,385
19.17500,379
19.18333,374
19.19167,370
19.20000,366
19.20833,363
19.21667,361
19.22500,359
19.23333,358
19.24167,358
19.25000,358
19.25833,360
19.26667,362
19.27500,365
19.28333,369
19.29167,374
19.30000,379
19.30833,385
19.31667,391
19.32500,399
19.33333,408
19.34167,417
19.35000,426
19.35833,436
19.36667,446
19.37500,457
19.38333,468
19.39167,481
19.40000,493
19.40833,505
19.41667,518
19.42500,531
19.43333,544
19.44167,557
19.45000,571
19.45833,584
19.46667,597
19.47500,610
19.48333,623
19.49167,636
19.50000,648
19.50833,661
19.51667,672
19.52500,684
19.53333,694
19.54167,705
19.55000,715
19.55833,725
19.56667,734
19.57500,743
19.58333,751
19.59167,759
19.60000,766
19.60833,773
19.61667,780
19.62500,786
19.63333,791
19.64167,796
19.65000,800
19.65833,804
19.66667,807
19.67500,810
19.68333,813
19.69167,815
19.70000,817
19.70833,818
19.71667,820
19.72500,820
19.73333,820
19.74167,820
19.75000,819
19.75833,817
19.76667,815
19.77500,813
19.78333,811
19.79167,808
19.80000,804
19.80833,800
19.81667,796
19.82500,792
19.83333,787
19.84167,781
19.85000,776
19.85833,769
19.86667,762
19.87500,755
19.88333,747
19.89167,739
19.90000,731
19.90833,722
19.91667,713
19.92500,703
19.93333,693
19.94167,683
19.95000,672
19.95833,662
19.96667,651
19.97500,640
19.98333,629
19.99167,617
20.00000,605
20.00833,593
20.01667,581
20.02500,569
20.03333,558
20.04167,546
20.05000,534
20.05833,522
20.06667,511
20.07500,500
20.08333,488
20.09167,477
20.10000,466
20.10833,456
20.11667,445
20.12500,435
20.13333,424
20.14167,415
20.15000,405
20.15833,396
20.16667,387
20.17500,378
20.18333,370
20.19167,362
20.20000,355
20.20833,347
20.21667,341
20.22500,334
20.23333,328
20.24167,322
20.25000,316
20.25833,310
20.26667,304
20.27500,300
20.28333,295
20.29167,291
20.30000,286
20.30833,282
20.31667,278
20.32500,275
20.33333,272
20.34167,269
20.35000,266
20.35833,264
20.36667,262
20.37500,259
20.38333,257
20.39167,256
20.40000,254
20.40833,252
20.41667,250
20.42500,248
20.43333,247
20.44167,246
20.45000,245
20.45833,244
20.46667,243
20.47500,242
20.48333,241
20.49167,241
20.50000,241
20.50833,240
20.51667,240
20.52500,240
20.53333,239
20.54167,239
20.55000,239
20.55833,239
20.56667,239
20.57500,239
20.58333,240
20.59167,240
20.60000,240
20.60833,240
20.61667,241
20.62500,242
20.63333,242
20.64167,243
20.65000,244
20.65833,246
20.66667,248
20.67500,251
20.68333,253
20.69167,256
20.70000,260
20.70833,264
20.71667,269
20.72500,274
20.73333,281
20.74167,288
20.75000,296
20.75833,306
20.76667,317
20.77500,329
20.78333,343
20.79167,358
20.80000,376
20.80833,395
20.81667,416
20.82500,439
20.83333,465
20.84167,494
20.85000,525
20.85833,558
20.86667,595
20.87500,635
20.88333,677
20.89167,724
20.90000,773
20.90833,825
20.91667,881
20.92500,940
20.93333,1003
20.94167,1068
20.95000,1137
20.95833,1208
20.96667,1282
20.97500,1358
20.98333,1438
20.99167,1519
21.00000,1603
21.00833,1688
21.01667,1775
21.02500,1862
21.03333,1951
21.04167,2040
21.05000,2128
21.05833,2217
21.06667,2305
21.07500,2393
21.08333,2480
21.09167,2565
21.10000,2649
21.10833,2731
21.11667,2811
21.12500,2889
21.13333,2965
21.14167,3038
21.15000,3108
21.15833,3176
21.16667,3241
21.17500,3303
21.18333,3361
21.19167,3417
21.20000,3470
21.20833,3519
21.21667,3565
21.22500,3609
21.23333,3651
21.24167,3689
21.25000,3725
21.25833,3758
21.26667,3789
21.27500,3818
21.28333,3844
21.29167,3869
21.30000,3891
21.30833,3912
21.31667,3930
21.32500,3947
21.33333,3962
21.34167,3974
21.35000,3985
21.35833,3994
21.36667,4001
21.37500,4006
21.38333,4008
21.39167,4009
21.40000,4007
21.40833,4003
21.41667,3997
21.42500,3988
21.43333,3977
21.44167,3963
21.45000,3947
21.45833,3928
21.46667,3906
21.47500,3881
21.48333,3853
21.49167,3822
21.50000,3788
21.50833,3751
21.51667,3711
21.52500,3668
21.53333,3622
21.54167,3573
21.55000,3521
21.55833,3466
21.56667,3409
21.57500,3348
21.58333,3286
21.59167,3221
21.60000,3153
21.60833,3084
21.61667,3013
21.62500,2940
21.63333,2866
21.64167,2791
21.65000,2714
21.65833,2637
21.66667,2559
21.67500,2480
21.68333,2402
21.69167,2323
21.70000,2245
21.70833,2166
21.71667,2089
21.72500,2011
21.73333,1935
21.74167,1859
21.75000,1785
21.75833,1712
21.76667,1640
21.77500,1570
21.78333,1502
21.79167,1435
21.80000,1370
21.80833,1307
21.81667,1247
21.82500,1187
21.83333,1130
21.84167,1075
21.85000,1021
21.85833,970
21.86667,921
21.87500,874
21.88333,829
21.89167,786
21.90000,745
21.90833,706
21.91667,669
21.92500,633
21.93333,600
21.94167,568
21.95000,538
21.95833,509
21.96667,482
21.97500,457
21.98333,433
21.99167,410
22.00000,389
22.00833,369
22.01667,350
22.02500,333
22.03333,316
22.04167,300
22.05000,286
22.05833,272
22.06667,260
22.07500,248
22.08333,237
22.09167,226
22.10000,216
22.10833,207
22.11667,199
22.12500,191
22.13333,183
22.14167,177
22.15000,170
22.15833,165
22.16667,159
22.17500,154
22.18333,150
22.19167,145
22.20000,141
22.20833,137
22.21667,133
22.22500,130
22.23333,127
22.24167,124
22.25000,122
22.25833,119
22.26667,116
22.27500,113
22.28333,111
22.29167,109
22.30000,107
22.30833,105
22.31667,104
22.32500,102
22.33333,100
22.34167,99
22.35000,98
22.35833,97
22.36667,96
22.37500,95
22.38333,94
22.39167,93
22.40000,92
22.40833,91
22.41667,90
22.42500,90
22.43333,89
22.44167,88
22.45000,88
22.45833,87
22.46667,87
22.47500,87
22.48333,86
22.49167,85
22.50000,85
22.50833,84
22.51667,84
22.52500,83
22.53333,82
22.54167,81
22.55000,81
22.55833,80
22.56667,80
22.57500,79
22.58333,79
22.59167,79
22.60000,78
22.60833,78
22.61667,78
22.62500,78
22.63333,78
22.64167,78
22.65000,77
22.65833,77
22.66667,76
22.67500,76
22.68333,75
22.69167,75
22.70000,75
22.70833,75
22.71667,74
22.72500,74
22.73333,74
22.74167,74
22.75000,73
22.75833,73
22.76667,73
22.77500,73
22.78333,73
22.79167,73
22.80000,72
22.80833,72
22.81667,72
22.82500,72
22.83333,71
22.84167,71
22.85000,70
22.85833,70
22.86667,70
22.87500,69
22.88333,69
22.89167,68
22.90000,68
22.90833,68
22.91667,68
22.92500,68
22.93333,68
22.94167,67
22.95000,67
22.95833,67
22.96667,66
22.97500,65
22.98333,65
22.99167,65
23.00000,65
23.00833,64
23.01667,64
23.02500,64
23.03333,63
23.04167,63
23.05000,63
23.05833,63
23.06667,62
23.07500,62
23.08333,62
23.09167,61
23.10000,61
23.10833,60
23.11667,60
23.12500,60
23.13333,60
23.14167,60
23.15000,60
23.15833,60
23.16667,60
23.17500,59
23.18333,59
23.19167,59
23.20000,59
23.20833,59
23.21667,59
23.22500,58
23.23333,58
23.24167,58
23.25000,57
23.25833,57
23.26667,57
23.27500,57
23.28333,57
23.29167,56
23.30000,57
23.30833,56
23.31667,56
23.32500,56
23.33333,56
23.34167,56
23.35000,56
23.35833,56
23.36667,56
23.37500,56
23.38333,56
23.39167,56
23.40000,56
23.40833,55
23.41667,55
23.42500,55
23.43333,55
23.44167,55
23.45000,55
23.45833,54
23.46667,54
23.47500,54
23.48333,54
23.49167,54
23.50000,54
23.50833,54
23.51667,54
23.52500,54
23.53333,53
23.54167,53
23.55000,53
23.55833,53
23.56667,53
23.57500,52
23.58333,52
23.59167,52
23.60000,52
23.60833,52
23.61667,52
23.62500,52
23.63333,52
23.64167,52
23.65000,52
23.65833,52
23.66667,52
23.67500,52
23.68333,52
23.69167,52
23.70000,52
23.70833,52
23.71667,51
23.72500,51
23.73333,51
23.74167,51
23.75000,51
23.75833,51
23.76667,51
23.77500,51
23.78333,51
23.79167,51
23.80000,51
23.80833,51
23.81667,51
23.82500,50
23.83333,50
23.84167,50
23.85000,50
23.85833,50
23.86667,50
23.87500,50
23.88333,50
23.89167,50
23.90000,49
23.90833,49
23.91667,49
23.92500,49
23.93333,49
23.94167,49
23.95000,49
23.95833,49
23.96667,49
23.97500,49
23.98333,49
23.99167,49
24.00000,49
24.00833,49
24.01667,48
24.02500,48
24.03333,48
24.04167,48
24.05000,48
24.05833,48
24.06667,47
24.07500,47
24.08333,47
24.09167,48
24.10000,48
24.10833,47
24.11667,47
24.12500,47
24.13333,47
24.14167,46
24.15000,46
24.15833,46
24.16667,46
24.17500,46
24.18333,47
24.19167,47
24.20000,47
24.20833,46
24.21667,46
24.22500,46
24.23333,46
24.24167,46
24.25000,46
24.25833,47
24.26667,47
24.27500,47
24.28333,47
24.29167,47
24.30000,47
24.30833,47
24.31667,47
24.32500,46
24.33333,46
24.34167,46
24.35000,46
24.35833,45
24.36667,46
24.37500,46
24.38333,46
24.39167,46
24.40000,46
24.40833,46
24.41667,47
24.42500,46
24.43333,47
24.44167,47
24.45000,47
24.45833,48
24.46667,48
24.47500,48
24.48333,48
24.49167,48
24.50000,48
24.50833,48
24.51667,48
24.52500,48
24.53333,48
24.54167,48
24.55000,48
24.55833,48
24.56667,49
24.57500,49
24.58333,49
24.59167,49
24.60000,49
24.60833,49
24.61667,49
24.62500,49
24.63333,49
24.64167,49
24.65000,49
24.65833,50
24.66667,50
24.67500,50
24.68333,50
24.69167,50
24.70000,50
24.70833,50
24.71667,50
24.72500,50
24.73333,50
24.74167,50
24.75000,50
24.75833,50
24.76667,50
24.77500,50
24.78333,50
24.79167,50
24.80000,50
24.80833,50
24.81667,49
24.82500,49
24.83333,49
24.84167,49
24.85000,50
24.85833,50
24.86667,50
24.87500,50
24.88333,49
24.89167,49
24.90000,50
24.90833,50
24.91667,50
24.92500,50
24.93333,50
24.94167,50
24.95000,50
24.95833,49
24.96667,49
24.97500,49
24.98333,49
24.99167,49
25.00000,48
25.00833,48
25.01667,48
25.02500,48
25.03333,47
25.04167,47
25.05000,47
25.05833,47
25.06667,46
25.07500,46
25.08333,46
25.09167,46
25.10000,46
25.10833,46
25.11667,46
25.12500,46
25.13333,46
25.14167,46
25.15000,45
25.15833,45
25.16667,44
25.17500,44
25.18333,43
25.19167,43
25.20000,43
25.20833,43
25.21667,43
25.22500,43
25.23333,43
25.24167,43
25.25000,43
25.25833,42
25.26667,42
25.27500,42
25.28333,42
25.29167,42
25.30000,42
25.30833,41
25.31667,41
25.32500,41
25.33333,41
25.34167,41
25.35000,40
25.35833,40
25.36667,40
25.37500,40
25.38333,40
25.39167,40
25.40000,40
25.40833,40
25.41667,40
25.42500,40
25.43333,40
25.44167,40
25.45000,41
25.45833,40
25.46667,40
25.47500,39
25.48333,39
25.49167,39
25.50000,39
25.50833,39
25.51667,40
25.52500,40
25.53333,40
25.54167,40
25.55000,39
25.55833,39
25.56667,39
25.57500,39
25.58333,39
25.59167,39
25.60000,39
25.60833,39
25.61667,39
25.62500,38
25.63333,38
25.64167,37
25.65000,37
25.65833,37
25.66667,37
25.67500,37
25.68333,37
25.69167,37
25.70000,37
25.70833,38
25.71667,38
25.72500,38
25.73333,38
25.74167,38
25.75000,38
25.75833,38
25.76667,38
25.77500,38
25.78333,37
25.79167,37
25.80000,36
25.80833,36
25.81667,36
25.82500,36
25.83333,36
25.84167,36
25.85000,36
25.85833,36
25.86667,36
25.87500,36
25.88333,36
25.89167,36
25.90000,36
25.90833,36
25.91667,36
25.92500,36
25.93333,36
25.94167,36
25.95000,36
25.95833,37
25.96667,37
25.97500,36
25.98333,36
25.99167,36
26.00000,37
26.00833,37
26.01667,37
26.02500,37
26.03333,37
26.04167,37
26.05000,36
26.05833,36
26.06667,36
26.07500,36
26.08333,36
26.09167,36
26.10000,36
26.10833,36
26.11667,36
26.12500,36
26.13333,36
26.14167,36
26.15000,36
26.15833,36
26.16667,36
26.17500,35
26.18333,35
26.19167,35
26.20000,35
26.20833,36
26.21667,35
26.22500,36
26.23333,36
26.24167,36
26.25000,36
26.25833,36
26.26667,36
26.27500,36
26.28333,36
26.29167,36
26.30000,36
26.30833,36
26.31667,36
26.32500,36
26.33333,36
26.34167,35
26.35000,36
26.35833,36
26.36667,36
26.37500,36
26.38333,35
26.39167,35
26.40000,35
26.40833,35
26.41667,35
26.42500,35
26.43333,35
26.44167,35
26.45000,35
26.45833,36
26.46667,36
26.47500,35
26.48333,35
26.49167,35
26.50000,35
26.50833,35
26.51667,35
26.52500,35
26.53333,35
26.54167,35
26.55000,35
26.55833,35
26.56667,35
26.57500,35
26.58333,35
26.59167,35
26.60000,35
26.60833,35
26.61667,35
26.62500,34
26.63333,34
26.64167,34
26.65000,34
26.65833,34
26.66667,34
26.67500,33
26.68333,33
26.69167,32
26.70000,32
26.70833,31
26.71667,31
26.72500,31
26.73333,30
26.74167,30
26.75000,30
26.75833,30
26.76667,30
26.77500,29
26.78333,29
26.79167,28
26.80000,28
26.80833,27
26.81667,26
26.82500,25
26.83333,24
26.84167,22
26.85000,21
26.85833,20
26.86667,19
26.87500,18
26.88333,17
26.89167,16
26.90000,15
26.90833,13
26.91667,12
26.92500,10
26.93333,9
26.94167,9
26.95000,7
26.95833,5
26.96667,3
26.97500,2
26.98333,0
26.99167,-1
27.00000,-3
27.00833,-5
27.01667,-7
27.02500,-9
27.03333,-11
27.04167,-12
27.05000,-14
27.05833,-17
27.06667,-19
27.07500,-21
27.08333,-23
27.09167,-25
27.10000,-27
27.10833,-29
27.11667,-31
27.12500,-33
27.13333,-35
27.14167,-37
27.15000,-39
27.15833,-41
27.16667,-43
27.17500,-46
27.18333,-48
27.19167,-50
27.20000,-52
27.20833,-54
27.21667,-56
27.22500,-58
27.23333,-60
27.24167,-62
27.25000,-63
27.25833,-65
27.26667,-67
27.27500,-69
27.28333,-71
27.29167,-73
27.30000,-74
27.30833,-76
27.31667,-77
27.32500,-79
27.33333,-80
27.34167,-82
27.35000,-83
27.35833,-85
27.36667,-87
27.37500,-88
27.38333,-89
27.39167,-91
27.40000,-91
27.40833,-92
27.41667,-93
27.42500,-94
27.43333,-95
27.44167,-95
27.45000,-96
27.45833,-97
27.46667,-97
27.47500,-98
27.48333,-99
27.49167,-100
27.50000,-100
27.50833,-101
27.51667,-101
27.52500,-101
27.53333,-100
27.54167,-100
27.55000,-99
27.55833,-99
27.56667,-98
27.57500,-98
27.58333,-97
27.59167,-96
27.60000,-96
27.60833,-95
27.61667,-94
27.62500,-93
27.63333,-92
27.64167,-92
27.65000,-91
27.65833,-90
27.66667,-89
27.67500,-88
27.68333,-86
27.69167,-85
27.70000,-83
27.70833,-81
27.71667,-80
27.72500,-78
27.73333,-76
27.74167,-74
27.75000,-72
27.75833,-70
27.76667,-68
27.77500,-66
27.78333,-65
27.79167,-63
27.80000,-61
27.80833,-59
27.81667,-57
27.82500,-55
27.83333,-53
27.84167,-51
27.85000,-48
27.85833,-47
27.86667,-45
27.87500,-43
27.88333,-42
27.89167,-39
27.90000,-37
27.90833,-35
27.91667,-33
27.92500,-31
27.93333,-30
27.94167,-28
27.95000,-27
27.95833,-26
27.96667,-24
27.97500,-22
27.98333,-21
27.99167,-19
28.00000,-18
28.00833,-16
28.01667,-14
28.02500,-13
28.03333,-11
28.04167,-10
28.05000,-9
28.05833,-7
28.06667,-6
28.07500,-4
28.08333,-3
28.09167,-2
28.10000,-0
28.10833,1
28.11667,2
28.12500,3
28.13333,4
28.14167,5
28.15000,6
28.15833,7
28.16667,7
28.17500,8
28.18333,8
28.19167,9
28.20000,10
28.20833,10
28.21667,11
28.22500,11
28.23333,12
28.24167,12
28.25000,13
28.25833,14
28.26667,14
28.27500,14
28.28333,14
28.29167,15
28.30000,16
28.30833,16
28.31667,16
28.32500,16
28.33333,16
28.34167,17
28.35000,18
28.35833,18
28.36667,18
28.37500,18
28.38333,18
28.39167,18
28.40000,18
28.40833,18
28.41667,18
28.42500,18
28.43333,18
28.44167,18
28.45000,18
28.45833,18
28.46667,18
28.47500,18
28.48333,18
28.49167,18
28.50000,18
28.50833,18
28.51667,17
28.52500,17
28.53333,17
28.54167,17
28.55000,17
28.55833,16
28.56667,16
28.57500,16
28.58333,15
28.59167,15
28.60000,15
28.60833,14
28.61667,14
28.62500,14
28.63333,14
28.64167,13
28.65000,13
28.65833,12
28.66667,11
28.67500,10
28.68333,10
28.69167,9
28.70000,8
28.70833,8
28.71667,7
28.72500,6
28.73333,6
28.74167,5
28.75000,5
28.75833,4
28.76667,3
28.77500,3
28.78333,2
28.79167,1
28.80000,0
28.80833,-0
28.81667,-1
28.82500,-2
28.83333,-2
28.84167,-3
28.85000,-4
28.85833,-5
28.86667,-6
28.87500,-7
28.88333,-8
28.89167,-8
28.90000,-9
28.90833,-10
28.91667,-11
28.92500,-11
28.93333,-12
28.94167,-12
28.95000,-13
28.95833,-13
28.96667,-14
28.97500,-14
28.98333,-15
28.99167,-16
29.00000,-17
29.00833,-17
29.01667,-18
29.02500,-18
29.03333,-19
29.04167,-19
29.05000,-20
29.05833,-21
29.06667,-21
29.07500,-21
29.08333,-21
29.09167,-21
29.10000,-21
29.10833,-21
29.11667,-21
29.12500,-22
29.13333,-22
29.14167,-23
29.15000,-23
29.15833,-23
29.16667,-24
29.17500,-24
29.18333,-24
29.19167,-23
29.20000,-23
29.20833,-24
29.21667,-24
29.22500,-23
29.23333,-23
29.24167,-23
29.25000,-23
29.25833,-23
29.26667,-22
29.27500,-22
29.28333,-22
29.29167,-22
29.30000,-22
29.30833,-22
29.31667,-21
29.32500,-21
29.33333,-21
29.34167,-20
29.35000,-20
29.35833,-20
29.36667,-19
29.37500,-18
29.38333,-18
29.39167,-17
29.40000,-17
29.40833,-16
29.41667,-15
29.42500,-14
29.43333,-14
29.44167,-13
29.45000,-12
29.45833,-12
29.46667,-11
29.47500,-10
29.48333,-10
29.49167,-9
29.50000,-8
29.50833,-7
29.51667,-7
29.52500,-6
29.53333,-4
29.54167,-4
29.55000,-3
29.55833,-2
29.56667,-1
29.57500,-1
29.58333,-0
29.59167,0
29.60000,1
29.60833,1
29.61667,2
29.62500,3
29.63333,4
29.64167,5
29.65000,6
29.65833,7
29.66667,8
29.67500,8
29.68333,9
29.69167,10
29.70000,10
29.70833,11
29.71667,11
29.72500,12
29.73333,12
29.74167,13
29.75000,13
29.75833,14
29.76667,15
29.77500,15
29.78333,16
29.79167,16
29.80000,17
29.80833,17
29.81667,18
29.82500,18
29.83333,19
29.84167,19
29.85000,20
29.85833,20
29.86667,20
29.87500,21
29.88333,21
29.89167,21
29.90000,21
29.90833,22
29.91667,22
29.92500,23
29.93333,23
29.94167,23
29.95000,24
29.95833,24
29.96667,24
29.97500,25
29.98333,25
29.99167,25
30.00000,25

