[Header]
Application Name,LabSolutions
Version,5.97 SP1
Data File Name,C:\Users\cremerlab\Desktop\Richa\Aug 2nd 2023 lac suc cal in water\lac suc cal water 2.5mM_822023_001_003.lcd
Output Date,8/2/2023
Output Time,2:36:08 PM

[File Information]
Type,Data File
Generated,8/2/2023 2:05:45 PM
Generated by,System Administrator
Modified,8/2/2023 2:36:08 PM
Modified by,System Administrator

[Sample Information]
Operator Name,System Administrator
Acquired,8/2/2023 2:06:06 PM
Sample Type,1:Standard
Level,1
Sample Name,230802_lactate_3mM001
Sample ID,001
ISTD Amount1,1
ISTD Amount2,1
ISTD Amount3,1
ISTD Amount4,1
ISTD Amount5,1
ISTD Amount6,1
ISTD Amount7,1
ISTD Amount8,1
ISTD Amount9,1
ISTD Amount10,1
ISTD Amount11,1
ISTD Amount12,1
ISTD Amount13,1
ISTD Amount14,1
ISTD Amount15,1
ISTD Amount16,1
ISTD Amount17,1
ISTD Amount18,1
ISTD Amount19,1
ISTD Amount20,1
ISTD Amount21,1
ISTD Amount22,1
ISTD Amount23,1
ISTD Amount24,1
ISTD Amount25,1
ISTD Amount26,1
ISTD Amount27,1
ISTD Amount28,1
ISTD Amount29,1
ISTD Amount30,1
ISTD Amount31,1
ISTD Amount32,1
Sample Amount,1
Dilution Factor,1
Vial#,2
Injection Volume,20

[Original Files]
Data File,C:\Users\cremerlab\Desktop\Richa\Aug 2nd 2023 lac suc cal in water\lac suc cal water 2.5mM_822023_001_003.lcd
Method File,C:\Users\cremerlab\Desktop\Richa\organic_acids_excretion.lcm
Batch File,C:\Users\cremerlab\Desktop\Richa\Aug 2nd 2023 lac suc cal in water\lac suc cal water 2.5mM.lcb
Report Format File,c:\LabSolutions\System\DEFAULT.lsr

[File Description]


[Configuration]
Instrument Name,HPLC-PC-Instrument1
Instrument #,1
Line #,1
# of Detectors,2
Detector ID,Detector A,Detector B
Detector Name,Detector A,Detector B
# of Channels,1,1

[LC Chromatogram(Detector A-Ch1)]
Interval(msec),500
# of Points,3601
Start Time(min),0.000
End Time(min),30.000
Intensity Units,mV
Intensity Multiplier,0.001
Wavelength(nm),254nm
R.Time (min),Intensity
0.00000,-1
0.00833,-1
0.01667,0
0.02500,0
0.03333,1
0.04167,0
0.05000,0
0.05833,0
0.06667,-1
0.07500,-0
0.08333,0
0.09167,1
0.10000,0
0.10833,0
0.11667,1
0.12500,1
0.13333,2
0.14167,2
0.15000,2
0.15833,2
0.16667,2
0.17500,2
0.18333,2
0.19167,2
0.20000,2
0.20833,2
0.21667,2
0.22500,3
0.23333,2
0.24167,2
0.25000,1
0.25833,0
0.26667,1
0.27500,1
0.28333,1
0.29167,1
0.30000,2
0.30833,2
0.31667,2
0.32500,2
0.33333,2
0.34167,1
0.35000,1
0.35833,1
0.36667,2
0.37500,2
0.38333,2
0.39167,1
0.40000,1
0.40833,1
0.41667,1
0.42500,1
0.43333,1
0.44167,1
0.45000,1
0.45833,0
0.46667,1
0.47500,1
0.48333,1
0.49167,1
0.50000,1
0.50833,0
0.51667,-0
0.52500,-0
0.53333,-0
0.54167,-0
0.55000,-0
0.55833,0
0.56667,0
0.57500,-0
0.58333,-1
0.59167,-1
0.60000,0
0.60833,0
0.61667,0
0.62500,0
0.63333,0
0.64167,1
0.65000,1
0.65833,0
0.66667,0
0.67500,0
0.68333,0
0.69167,0
0.70000,-0
0.70833,-0
0.71667,-0
0.72500,-0
0.73333,-0
0.74167,0
0.75000,1
0.75833,1
0.76667,1
0.77500,2
0.78333,1
0.79167,1
0.80000,0
0.80833,-1
0.81667,-0
0.82500,-0
0.83333,0
0.84167,-0
0.85000,-0
0.85833,1
0.86667,1
0.87500,0
0.88333,0
0.89167,-0
0.90000,-1
0.90833,-0
0.91667,0
0.92500,1
0.93333,1
0.94167,2
0.95000,1
0.95833,1
0.96667,1
0.97500,0
0.98333,-0
0.99167,-0
1.00000,0
1.00833,1
1.01667,1
1.02500,1
1.03333,1
1.04167,1
1.05000,1
1.05833,1
1.06667,2
1.07500,2
1.08333,2
1.09167,2
1.10000,1
1.10833,1
1.11667,0
1.12500,1
1.13333,2
1.14167,3
1.15000,3
1.15833,3
1.16667,3
1.17500,3
1.18333,3
1.19167,3
1.20000,2
1.20833,1
1.21667,1
1.22500,2
1.23333,3
1.24167,3
1.25000,3
1.25833,3
1.26667,3
1.27500,3
1.28333,3
1.29167,2
1.30000,3
1.30833,4
1.31667,5
1.32500,4
1.33333,3
1.34167,3
1.35000,3
1.35833,3
1.36667,4
1.37500,5
1.38333,5
1.39167,4
1.40000,3
1.40833,1
1.41667,2
1.42500,3
1.43333,3
1.44167,4
1.45000,4
1.45833,4
1.46667,3
1.47500,2
1.48333,2
1.49167,3
1.50000,3
1.50833,3
1.51667,4
1.52500,4
1.53333,4
1.54167,4
1.55000,3
1.55833,3
1.56667,3
1.57500,3
1.58333,3
1.59167,3
1.60000,2
1.60833,1
1.61667,2
1.62500,4
1.63333,4
1.64167,3
1.65000,3
1.65833,3
1.66667,3
1.67500,3
1.68333,4
1.69167,4
1.70000,5
1.70833,5
1.71667,6
1.72500,7
1.73333,7
1.74167,7
1.75000,7
1.75833,7
1.76667,7
1.77500,7
1.78333,7
1.79167,6
1.80000,6
1.80833,6
1.81667,6
1.82500,6
1.83333,6
1.84167,7
1.85000,7
1.85833,6
1.86667,6
1.87500,6
1.88333,7
1.89167,8
1.90000,8
1.90833,7
1.91667,7
1.92500,7
1.93333,7
1.94167,7
1.95000,7
1.95833,7
1.96667,7
1.97500,7
1.98333,8
1.99167,8
2.00000,8
2.00833,7
2.01667,7
2.02500,7
2.03333,7
2.04167,7
2.05000,8
2.05833,8
2.06667,8
2.07500,8
2.08333,8
2.09167,9
2.10000,9
2.10833,11
2.11667,11
2.12500,11
2.13333,11
2.14167,10
2.15000,10
2.15833,11
2.16667,11
2.17500,11
2.18333,12
2.19167,12
2.20000,12
2.20833,11
2.21667,11
2.22500,11
2.23333,11
2.24167,11
2.25000,11
2.25833,10
2.26667,10
2.27500,11
2.28333,11
2.29167,11
2.30000,11
2.30833,11
2.31667,11
2.32500,12
2.33333,12
2.34167,11
2.35000,10
2.35833,10
2.36667,11
2.37500,11
2.38333,11
2.39167,10
2.40000,11
2.40833,11
2.41667,12
2.42500,13
2.43333,14
2.44167,13
2.45000,13
2.45833,13
2.46667,13
2.47500,14
2.48333,13
2.49167,13
2.50000,13
2.50833,13
2.51667,12
2.52500,11
2.53333,12
2.54167,13
2.55000,13
2.55833,12
2.56667,12
2.57500,12
2.58333,13
2.59167,13
2.60000,13
2.60833,14
2.61667,15
2.62500,15
2.63333,14
2.64167,14
2.65000,14
2.65833,14
2.66667,15
2.67500,15
2.68333,14
2.69167,14
2.70000,13
2.70833,13
2.71667,13
2.72500,13
2.73333,12
2.74167,12
2.75000,12
2.75833,13
2.76667,14
2.77500,15
2.78333,15
2.79167,15
2.80000,15
2.80833,16
2.81667,16
2.82500,15
2.83333,16
2.84167,15
2.85000,15
2.85833,16
2.86667,16
2.87500,17
2.88333,18
2.89167,17
2.90000,16
2.90833,17
2.91667,17
2.92500,16
2.93333,15
2.94167,15
2.95000,15
2.95833,16
2.96667,16
2.97500,16
2.98333,15
2.99167,15
3.00000,15
3.00833,16
3.01667,17
3.02500,17
3.03333,18
3.04167,18
3.05000,18
3.05833,18
3.06667,18
3.07500,18
3.08333,18
3.09167,19
3.10000,19
3.10833,18
3.11667,18
3.12500,18
3.13333,18
3.14167,17
3.15000,17
3.15833,18
3.16667,18
3.17500,17
3.18333,17
3.19167,16
3.20000,17
3.20833,18
3.21667,18
3.22500,19
3.23333,19
3.24167,19
3.25000,19
3.25833,19
3.26667,18
3.27500,18
3.28333,18
3.29167,17
3.30000,17
3.30833,18
3.31667,19
3.32500,20
3.33333,19
3.34167,19
3.35000,19
3.35833,19
3.36667,19
3.37500,20
3.38333,20
3.39167,20
3.40000,21
3.40833,21
3.41667,22
3.42500,22
3.43333,22
3.44167,22
3.45000,21
3.45833,21
3.46667,21
3.47500,22
3.48333,23
3.49167,23
3.50000,22
3.50833,22
3.51667,21
3.52500,21
3.53333,22
3.54167,22
3.55000,21
3.55833,21
3.56667,21
3.57500,21
3.58333,22
3.59167,22
3.60000,22
3.60833,22
3.61667,23
3.62500,23
3.63333,24
3.64167,24
3.65000,24
3.65833,24
3.66667,23
3.67500,22
3.68333,22
3.69167,22
3.70000,23
3.70833,24
3.71667,23
3.72500,22
3.73333,21
3.74167,22
3.75000,23
3.75833,23
3.76667,24
3.77500,25
3.78333,25
3.79167,25
3.80000,24
3.80833,24
3.81667,24
3.82500,23
3.83333,22
3.84167,22
3.85000,23
3.85833,24
3.86667,23
3.87500,23
3.88333,24
3.89167,24
3.90000,24
3.90833,24
3.91667,24
3.92500,24
3.93333,24
3.94167,24
3.95000,24
3.95833,24
3.96667,23
3.97500,23
3.98333,23
3.99167,23
4.00000,24
4.00833,24
4.01667,24
4.02500,24
4.03333,23
4.04167,22
4.05000,22
4.05833,23
4.06667,24
4.07500,25
4.08333,25
4.09167,25
4.10000,25
4.10833,25
4.11667,25
4.12500,25
4.13333,25
4.14167,25
4.15000,25
4.15833,25
4.16667,24
4.17500,24
4.18333,25
4.19167,24
4.20000,23
4.20833,23
4.21667,24
4.22500,25
4.23333,24
4.24167,24
4.25000,24
4.25833,24
4.26667,23
4.27500,23
4.28333,23
4.29167,23
4.30000,23
4.30833,24
4.31667,24
4.32500,24
4.33333,24
4.34167,24
4.35000,24
4.35833,25
4.36667,25
4.37500,25
4.38333,25
4.39167,25
4.40000,24
4.40833,23
4.41667,24
4.42500,24
4.43333,23
4.44167,23
4.45000,23
4.45833,22
4.46667,22
4.47500,22
4.48333,22
4.49167,22
4.50000,23
4.50833,22
4.51667,22
4.52500,22
4.53333,24
4.54167,24
4.55000,23
4.55833,23
4.56667,22
4.57500,23
4.58333,23
4.59167,22
4.60000,22
4.60833,22
4.61667,23
4.62500,23
4.63333,23
4.64167,23
4.65000,22
4.65833,22
4.66667,22
4.67500,22
4.68333,23
4.69167,23
4.70000,23
4.70833,23
4.71667,23
4.72500,22
4.73333,21
4.74167,21
4.75000,22
4.75833,21
4.76667,22
4.77500,22
4.78333,21
4.79167,20
4.80000,20
4.80833,20
4.81667,22
4.82500,22
4.83333,22
4.84167,22
4.85000,22
4.85833,21
4.86667,22
4.87500,23
4.88333,23
4.89167,23
4.90000,22
4.90833,21
4.91667,21
4.92500,22
4.93333,22
4.94167,23
4.95000,24
4.95833,24
4.96667,24
4.97500,24
4.98333,24
4.99167,23
5.00000,24
5.00833,24
5.01667,23
5.02500,24
5.03333,23
5.04167,22
5.05000,22
5.05833,23
5.06667,23
5.07500,23
5.08333,22
5.09167,22
5.10000,23
5.10833,23
5.11667,23
5.12500,23
5.13333,23
5.14167,22
5.15000,22
5.15833,21
5.16667,22
5.17500,22
5.18333,23
5.19167,23
5.20000,23
5.20833,24
5.21667,26
5.22500,25
5.23333,24
5.24167,23
5.25000,22
5.25833,22
5.26667,22
5.27500,22
5.28333,22
5.29167,21
5.30000,21
5.30833,21
5.31667,21
5.32500,21
5.33333,21
5.34167,20
5.35000,21
5.35833,22
5.36667,21
5.37500,21
5.38333,22
5.39167,22
5.40000,22
5.40833,21
5.41667,21
5.42500,20
5.43333,20
5.44167,21
5.45000,21
5.45833,21
5.46667,22
5.47500,22
5.48333,22
5.49167,21
5.50000,20
5.50833,19
5.51667,19
5.52500,20
5.53333,20
5.54167,19
5.55000,20
5.55833,21
5.56667,22
5.57500,23
5.58333,22
5.59167,22
5.60000,22
5.60833,23
5.61667,23
5.62500,22
5.63333,21
5.64167,21
5.65000,21
5.65833,21
5.66667,22
5.67500,22
5.68333,22
5.69167,21
5.70000,21
5.70833,21
5.71667,21
5.72500,22
5.73333,23
5.74167,22
5.75000,21
5.75833,20
5.76667,19
5.77500,18
5.78333,18
5.79167,19
5.80000,20
5.80833,20
5.81667,20
5.82500,20
5.83333,20
5.84167,21
5.85000,21
5.85833,21
5.86667,21
5.87500,21
5.88333,20
5.89167,19
5.90000,18
5.90833,19
5.91667,19
5.92500,20
5.93333,20
5.94167,20
5.95000,20
5.95833,22
5.96667,22
5.97500,22
5.98333,21
5.99167,20
6.00000,19
6.00833,19
6.01667,19
6.02500,19
6.03333,19
6.04167,19
6.05000,19
6.05833,19
6.06667,20
6.07500,20
6.08333,21
6.09167,21
6.10000,21
6.10833,20
6.11667,20
6.12500,19
6.13333,18
6.14167,18
6.15000,19
6.15833,20
6.16667,20
6.17500,20
6.18333,21
6.19167,21
6.20000,21
6.20833,21
6.21667,22
6.22500,21
6.23333,22
6.24167,22
6.25000,23
6.25833,23
6.26667,24
6.27500,24
6.28333,24
6.29167,23
6.30000,22
6.30833,22
6.31667,22
6.32500,22
6.33333,22
6.34167,22
6.35000,22
6.35833,23
6.36667,23
6.37500,23
6.38333,23
6.39167,24
6.40000,24
6.40833,23
6.41667,23
6.42500,24
6.43333,25
6.44167,24
6.45000,24
6.45833,24
6.46667,24
6.47500,24
6.48333,24
6.49167,24
6.50000,24
6.50833,24
6.51667,24
6.52500,24
6.53333,25
6.54167,25
6.55000,26
6.55833,26
6.56667,25
6.57500,24
6.58333,24
6.59167,24
6.60000,24
6.60833,25
6.61667,24
6.62500,24
6.63333,23
6.64167,23
6.65000,23
6.65833,23
6.66667,23
6.67500,25
6.68333,25
6.69167,26
6.70000,26
6.70833,26
6.71667,27
6.72500,27
6.73333,27
6.74167,27
6.75000,26
6.75833,26
6.76667,25
6.77500,25
6.78333,25
6.79167,25
6.80000,24
6.80833,25
6.81667,25
6.82500,26
6.83333,26
6.84167,27
6.85000,27
6.85833,27
6.86667,27
6.87500,28
6.88333,27
6.89167,27
6.90000,27
6.90833,27
6.91667,27
6.92500,27
6.93333,28
6.94167,28
6.95000,28
6.95833,28
6.96667,28
6.97500,28
6.98333,28
6.99167,29
7.00000,28
7.00833,28
7.01667,28
7.02500,28
7.03333,28
7.04167,29
7.05000,29
7.05833,29
7.06667,29
7.07500,29
7.08333,30
7.09167,30
7.10000,31
7.10833,30
7.11667,30
7.12500,30
7.13333,30
7.14167,30
7.15000,30
7.15833,30
7.16667,30
7.17500,30
7.18333,29
7.19167,29
7.20000,29
7.20833,30
7.21667,31
7.22500,31
7.23333,31
7.24167,31
7.25000,30
7.25833,30
7.26667,30
7.27500,30
7.28333,29
7.29167,29
7.30000,30
7.30833,31
7.31667,31
7.32500,31
7.33333,30
7.34167,30
7.35000,30
7.35833,31
7.36667,32
7.37500,32
7.38333,32
7.39167,31
7.40000,31
7.40833,31
7.41667,30
7.42500,30
7.43333,31
7.44167,31
7.45000,32
7.45833,32
7.46667,33
7.47500,33
7.48333,32
7.49167,32
7.50000,33
7.50833,33
7.51667,32
7.52500,31
7.53333,31
7.54167,33
7.55000,34
7.55833,34
7.56667,34
7.57500,35
7.58333,35
7.59167,34
7.60000,33
7.60833,33
7.61667,33
7.62500,33
7.63333,34
7.64167,35
7.65000,35
7.65833,35
7.66667,35
7.67500,34
7.68333,33
7.69167,33
7.70000,33
7.70833,33
7.71667,33
7.72500,34
7.73333,33
7.74167,33
7.75000,34
7.75833,35
7.76667,35
7.77500,37
7.78333,37
7.79167,37
7.80000,36
7.80833,36
7.81667,36
7.82500,36
7.83333,36
7.84167,37
7.85000,36
7.85833,36
7.86667,37
7.87500,37
7.88333,37
7.89167,37
7.90000,37
7.90833,37
7.91667,38
7.92500,38
7.93333,37
7.94167,37
7.95000,38
7.95833,39
7.96667,39
7.97500,40
7.98333,39
7.99167,39
8.00000,39
8.00833,39
8.01667,39
8.02500,39
8.03333,39
8.04167,39
8.05000,39
8.05833,39
8.06667,39
8.07500,38
8.08333,38
8.09167,38
8.10000,38
8.10833,39
8.11667,39
8.12500,39
8.13333,40
8.14167,40
8.15000,39
8.15833,38
8.16667,39
8.17500,39
8.18333,39
8.19167,39
8.20000,40
8.20833,41
8.21667,41
8.22500,41
8.23333,39
8.24167,39
8.25000,40
8.25833,41
8.26667,41
8.27500,41
8.28333,42
8.29167,42
8.30000,42
8.30833,42
8.31667,43
8.32500,44
8.33333,43
8.34167,43
8.35000,42
8.35833,41
8.36667,41
8.37500,41
8.38333,40
8.39167,39
8.40000,39
8.40833,40
8.41667,41
8.42500,41
8.43333,41
8.44167,41
8.45000,41
8.45833,41
8.46667,42
8.47500,42
8.48333,42
8.49167,42
8.50000,42
8.50833,42
8.51667,43
8.52500,44
8.53333,44
8.54167,44
8.55000,43
8.55833,43
8.56667,44
8.57500,45
8.58333,45
8.59167,45
8.60000,44
8.60833,44
8.61667,44
8.62500,44
8.63333,45
8.64167,45
8.65000,45
8.65833,45
8.66667,44
8.67500,43
8.68333,43
8.69167,45
8.70000,45
8.70833,46
8.71667,45
8.72500,45
8.73333,45
8.74167,45
8.75000,46
8.75833,46
8.76667,46
8.77500,46
8.78333,46
8.79167,46
8.80000,47
8.80833,48
8.81667,49
8.82500,49
8.83333,49
8.84167,49
8.85000,49
8.85833,48
8.86667,48
8.87500,48
8.88333,47
8.89167,48
8.90000,48
8.90833,48
8.91667,48
8.92500,48
8.93333,48
8.94167,48
8.95000,47
8.95833,47
8.96667,49
8.97500,50
8.98333,50
8.99167,50
9.00000,50
9.00833,51
9.01667,51
9.02500,50
9.03333,50
9.04167,50
9.05000,49
9.05833,48
9.06667,48
9.07500,48
9.08333,49
9.09167,50
9.10000,51
9.10833,51
9.11667,51
9.12500,51
9.13333,51
9.14167,50
9.15000,50
9.15833,50
9.16667,49
9.17500,50
9.18333,51
9.19167,51
9.20000,51
9.20833,52
9.21667,52
9.22500,53
9.23333,53
9.24167,54
9.25000,53
9.25833,52
9.26667,53
9.27500,53
9.28333,53
9.29167,53
9.30000,53
9.30833,53
9.31667,53
9.32500,53
9.33333,53
9.34167,53
9.35000,53
9.35833,53
9.36667,53
9.37500,53
9.38333,54
9.39167,54
9.40000,54
9.40833,54
9.41667,55
9.42500,55
9.43333,55
9.44167,53
9.45000,53
9.45833,53
9.46667,53
9.47500,53
9.48333,54
9.49167,55
9.50000,55
9.50833,56
9.51667,56
9.52500,55
9.53333,55
9.54167,55
9.55000,56
9.55833,57
9.56667,58
9.57500,58
9.58333,58
9.59167,58
9.60000,58
9.60833,58
9.61667,59
9.62500,58
9.63333,58
9.64167,57
9.65000,57
9.65833,58
9.66667,58
9.67500,58
9.68333,58
9.69167,58
9.70000,57
9.70833,57
9.71667,58
9.72500,59
9.73333,60
9.74167,60
9.75000,60
9.75833,60
9.76667,59
9.77500,59
9.78333,59
9.79167,60
9.80000,60
9.80833,60
9.81667,61
9.82500,60
9.83333,60
9.84167,61
9.85000,61
9.85833,61
9.86667,61
9.87500,61
9.88333,60
9.89167,61
9.90000,60
9.90833,61
9.91667,62
9.92500,62
9.93333,61
9.94167,62
9.95000,62
9.95833,62
9.96667,62
9.97500,62
9.98333,63
9.99167,64
10.00000,66
10.00833,66
10.01667,66
10.02500,66
10.03333,67
10.04167,68
10.05000,69
10.05833,71
10.06667,73
10.07500,75
10.08333,77
10.09167,78
10.10000,80
10.10833,82
10.11667,84
10.12500,86
10.13333,88
10.14167,89
10.15000,90
10.15833,91
10.16667,93
10.17500,94
10.18333,96
10.19167,97
10.20000,98
10.20833,99
10.21667,98
10.22500,97
10.23333,96
10.24167,94
10.25000,92
10.25833,90
10.26667,87
10.27500,83
10.28333,79
10.29167,75
10.30000,71
10.30833,66
10.31667,61
10.32500,57
10.33333,52
10.34167,48
10.35000,44
10.35833,41
10.36667,37
10.37500,33
10.38333,31
10.39167,28
10.40000,25
10.40833,21
10.41667,18
10.42500,14
10.43333,11
10.44167,10
10.45000,8
10.45833,7
10.46667,6
10.47500,4
10.48333,1
10.49167,-0
10.50000,-1
10.50833,-1
10.51667,0
10.52500,1
10.53333,2
10.54167,3
10.55000,5
10.55833,6
10.56667,8
10.57500,10
10.58333,12
10.59167,15
10.60000,18
10.60833,21
10.61667,24
10.62500,27
10.63333,31
10.64167,35
10.65000,39
10.65833,42
10.66667,45
10.67500,48
10.68333,51
10.69167,54
10.70000,57
10.70833,59
10.71667,62
10.72500,65
10.73333,67
10.74167,70
10.75000,72
10.75833,75
10.76667,77
10.77500,79
10.78333,81
10.79167,83
10.80000,83
10.80833,84
10.81667,85
10.82500,88
10.83333,90
10.84167,91
10.85000,93
10.85833,93
10.86667,93
10.87500,93
10.88333,93
10.89167,94
10.90000,95
10.90833,95
10.91667,95
10.92500,95
10.93333,95
10.94167,95
10.95000,96
10.95833,97
10.96667,98
10.97500,99
10.98333,100
10.99167,100
11.00000,100
11.00833,100
11.01667,100
11.02500,100
11.03333,100
11.04167,100
11.05000,100
11.05833,99
11.06667,99
11.07500,100
11.08333,101
11.09167,101
11.10000,101
11.10833,101
11.11667,101
11.12500,102
11.13333,102
11.14167,103
11.15000,104
11.15833,104
11.16667,103
11.17500,102
11.18333,102
11.19167,102
11.20000,102
11.20833,102
11.21667,101
11.22500,101
11.23333,101
11.24167,102
11.25000,102
11.25833,101
11.26667,102
11.27500,101
11.28333,100
11.29167,100
11.30000,100
11.30833,100
11.31667,100
11.32500,100
11.33333,101
11.34167,101
11.35000,101
11.35833,101
11.36667,100
11.37500,100
11.38333,101
11.39167,101
11.40000,101
11.40833,101
11.41667,101
11.42500,102
11.43333,101
11.44167,101
11.45000,102
11.45833,103
11.46667,103
11.47500,103
11.48333,103
11.49167,103
11.50000,104
11.50833,104
11.51667,104
11.52500,103
11.53333,102
11.54167,101
11.55000,101
11.55833,102
11.56667,102
11.57500,103
11.58333,104
11.59167,104
11.60000,104
11.60833,104
11.61667,104
11.62500,103
11.63333,102
11.64167,102
11.65000,102
11.65833,102
11.66667,102
11.67500,102
11.68333,103
11.69167,103
11.70000,102
11.70833,102
11.71667,101
11.72500,101
11.73333,102
11.74167,101
11.75000,101
11.75833,101
11.76667,101
11.77500,101
11.78333,102
11.79167,103
11.80000,103
11.80833,102
11.81667,102
11.82500,102
11.83333,102
11.84167,101
11.85000,101
11.85833,100
11.86667,100
11.87500,100
11.88333,100
11.89167,100
11.90000,100
11.90833,101
11.91667,101
11.92500,103
11.93333,102
11.94167,103
11.95000,103
11.95833,102
11.96667,101
11.97500,100
11.98333,101
11.99167,102
12.00000,102
12.00833,102
12.01667,102
12.02500,103
12.03333,103
12.04167,103
12.05000,102
12.05833,101
12.06667,101
12.07500,101
12.08333,103
12.09167,104
12.10000,104
12.10833,104
12.11667,103
12.12500,103
12.13333,103
12.14167,103
12.15000,103
12.15833,103
12.16667,104
12.17500,104
12.18333,104
12.19167,104
12.20000,104
12.20833,103
12.21667,103
12.22500,103
12.23333,103
12.24167,103
12.25000,104
12.25833,104
12.26667,104
12.27500,104
12.28333,104
12.29167,103
12.30000,103
12.30833,104
12.31667,105
12.32500,105
12.33333,105
12.34167,104
12.35000,104
12.35833,103
12.36667,103
12.37500,103
12.38333,103
12.39167,103
12.40000,102
12.40833,103
12.41667,103
12.42500,103
12.43333,104
12.44167,103
12.45000,103
12.45833,103
12.46667,103
12.47500,102
12.48333,102
12.49167,101
12.50000,101
12.50833,101
12.51667,101
12.52500,101
12.53333,102
12.54167,103
12.55000,102
12.55833,102
12.56667,102
12.57500,102
12.58333,103
12.59167,103
12.60000,103
12.60833,103
12.61667,103
12.62500,103
12.63333,103
12.64167,103
12.65000,103
12.65833,102
12.66667,102
12.67500,102
12.68333,103
12.69167,103
12.70000,104
12.70833,104
12.71667,103
12.72500,104
12.73333,105
12.74167,106
12.75000,105
12.75833,104
12.76667,104
12.77500,103
12.78333,103
12.79167,103
12.80000,103
12.80833,103
12.81667,103
12.82500,102
12.83333,101
12.84167,101
12.85000,102
12.85833,102
12.86667,103
12.87500,103
12.88333,103
12.89167,103
12.90000,103
12.90833,103
12.91667,103
12.92500,103
12.93333,103
12.94167,104
12.95000,104
12.95833,104
12.96667,104
12.97500,104
12.98333,105
12.99167,104
13.00000,104
13.00833,103
13.01667,103
13.02500,104
13.03333,104
13.04167,104
13.05000,104
13.05833,105
13.06667,105
13.07500,106
13.08333,106
13.09167,106
13.10000,107
13.10833,107
13.11667,106
13.12500,106
13.13333,106
13.14167,107
13.15000,107
13.15833,107
13.16667,107
13.17500,106
13.18333,105
13.19167,105
13.20000,105
13.20833,105
13.21667,105
13.22500,105
13.23333,104
13.24167,105
13.25000,105
13.25833,106
13.26667,106
13.27500,105
13.28333,104
13.29167,104
13.30000,104
13.30833,106
13.31667,107
13.32500,106
13.33333,106
13.34167,106
13.35000,105
13.35833,104
13.36667,105
13.37500,106
13.38333,106
13.39167,105
13.40000,105
13.40833,104
13.41667,103
13.42500,103
13.43333,105
13.44167,105
13.45000,105
13.45833,104
13.46667,104
13.47500,103
13.48333,103
13.49167,104
13.50000,104
13.50833,104
13.51667,105
13.52500,106
13.53333,106
13.54167,107
13.55000,108
13.55833,108
13.56667,108
13.57500,107
13.58333,106
13.59167,107
13.60000,107
13.60833,106
13.61667,104
13.62500,103
13.63333,104
13.64167,104
13.65000,105
13.65833,105
13.66667,106
13.67500,107
13.68333,107
13.69167,107
13.70000,107
13.70833,107
13.71667,108
13.72500,107
13.73333,106
13.74167,107
13.75000,106
13.75833,107
13.76667,106
13.77500,106
13.78333,107
13.79167,107
13.80000,107
13.80833,107
13.81667,107
13.82500,107
13.83333,107
13.84167,107
13.85000,107
13.85833,107
13.86667,107
13.87500,107
13.88333,107
13.89167,106
13.90000,105
13.90833,105
13.91667,105
13.92500,105
13.93333,106
13.94167,107
13.95000,108
13.95833,108
13.96667,106
13.97500,105
13.98333,105
13.99167,105
14.00000,105
14.00833,105
14.01667,105
14.02500,106
14.03333,106
14.04167,107
14.05000,106
14.05833,106
14.06667,105
14.07500,105
14.08333,105
14.09167,105
14.10000,105
14.10833,106
14.11667,106
14.12500,107
14.13333,108
14.14167,108
14.15000,108
14.15833,109
14.16667,109
14.17500,109
14.18333,108
14.19167,107
14.20000,107
14.20833,107
14.21667,107
14.22500,107
14.23333,108
14.24167,109
14.25000,110
14.25833,110
14.26667,111
14.27500,111
14.28333,110
14.29167,111
14.30000,111
14.30833,112
14.31667,111
14.32500,110
14.33333,110
14.34167,110
14.35000,111
14.35833,111
14.36667,112
14.37500,112
14.38333,112
14.39167,112
14.40000,112
14.40833,112
14.41667,111
14.42500,111
14.43333,112
14.44167,112
14.45000,112
14.45833,112
14.46667,112
14.47500,112
14.48333,112
14.49167,112
14.50000,112
14.50833,113
14.51667,113
14.52500,113
14.53333,113
14.54167,113
14.55000,114
14.55833,114
14.56667,113
14.57500,112
14.58333,112
14.59167,112
14.60000,112
14.60833,112
14.61667,112
14.62500,113
14.63333,113
14.64167,113
14.65000,113
14.65833,114
14.66667,114
14.67500,113
14.68333,113
14.69167,113
14.70000,113
14.70833,114
14.71667,114
14.72500,114
14.73333,114
14.74167,113
14.75000,112
14.75833,113
14.76667,113
14.77500,112
14.78333,112
14.79167,111
14.80000,110
14.80833,111
14.81667,111
14.82500,112
14.83333,111
14.84167,111
14.85000,109
14.85833,108
14.86667,109
14.87500,110
14.88333,110
14.89167,110
14.90000,110
14.90833,111
14.91667,111
14.92500,111
14.93333,111
14.94167,111
14.95000,111
14.95833,110
14.96667,110
14.97500,110
14.98333,110
14.99167,111
15.00000,111
15.00833,112
15.01667,112
15.02500,112
15.03333,113
15.04167,113
15.05000,113
15.05833,113
15.06667,113
15.07500,113
15.08333,113
15.09167,113
15.10000,113
15.10833,112
15.11667,112
15.12500,112
15.13333,112
15.14167,112
15.15000,113
15.15833,114
15.16667,114
15.17500,115
15.18333,115
15.19167,114
15.20000,114
15.20833,114
15.21667,114
15.22500,115
15.23333,114
15.24167,114
15.25000,114
15.25833,114
15.26667,115
15.27500,116
15.28333,116
15.29167,115
15.30000,115
15.30833,115
15.31667,115
15.32500,115
15.33333,115
15.34167,115
15.35000,114
15.35833,115
15.36667,116
15.37500,116
15.38333,116
15.39167,116
15.40000,115
15.40833,115
15.41667,116
15.42500,115
15.43333,115
15.44167,114
15.45000,114
15.45833,116
15.46667,116
15.47500,116
15.48333,116
15.49167,116
15.50000,117
15.50833,117
15.51667,116
15.52500,115
15.53333,114
15.54167,114
15.55000,114
15.55833,114
15.56667,115
15.57500,115
15.58333,115
15.59167,115
15.60000,115
15.60833,115
15.61667,117
15.62500,118
15.63333,118
15.64167,118
15.65000,117
15.65833,115
15.66667,115
15.67500,115
15.68333,115
15.69167,115
15.70000,116
15.70833,116
15.71667,117
15.72500,117
15.73333,117
15.74167,116
15.75000,115
15.75833,115
15.76667,115
15.77500,116
15.78333,116
15.79167,115
15.80000,114
15.80833,115
15.81667,115
15.82500,115
15.83333,115
15.84167,115
15.85000,116
15.85833,115
15.86667,115
15.87500,116
15.88333,116
15.89167,117
15.90000,117
15.90833,118
15.91667,118
15.92500,117
15.93333,116
15.94167,116
15.95000,116
15.95833,116
15.96667,115
15.97500,115
15.98333,115
15.99167,115
16.00000,116
16.00833,117
16.01667,117
16.02500,116
16.03333,116
16.04167,117
16.05000,117
16.05833,117
16.06667,117
16.07500,117
16.08333,117
16.09167,118
16.10000,119
16.10833,119
16.11667,119
16.12500,118
16.13333,118
16.14167,118
16.15000,118
16.15833,119
16.16667,119
16.17500,120
16.18333,119
16.19167,119
16.20000,119
16.20833,118
16.21667,119
16.22500,120
16.23333,120
16.24167,120
16.25000,121
16.25833,121
16.26667,120
16.27500,119
16.28333,118
16.29167,119
16.30000,119
16.30833,120
16.31667,120
16.32500,120
16.33333,120
16.34167,119
16.35000,118
16.35833,118
16.36667,119
16.37500,120
16.38333,121
16.39167,121
16.40000,120
16.40833,120
16.41667,120
16.42500,120
16.43333,119
16.44167,119
16.45000,120
16.45833,121
16.46667,121
16.47500,121
16.48333,122
16.49167,123
16.50000,123
16.50833,121
16.51667,121
16.52500,121
16.53333,122
16.54167,123
16.55000,123
16.55833,123
16.56667,123
16.57500,123
16.58333,123
16.59167,122
16.60000,122
16.60833,122
16.61667,122
16.62500,122
16.63333,122
16.64167,121
16.65000,122
16.65833,122
16.66667,123
16.67500,123
16.68333,123
16.69167,123
16.70000,123
16.70833,123
16.71667,123
16.72500,123
16.73333,123
16.74167,124
16.75000,123
16.75833,123
16.76667,123
16.77500,124
16.78333,126
16.79167,125
16.80000,124
16.80833,124
16.81667,125
16.82500,125
16.83333,125
16.84167,125
16.85000,125
16.85833,125
16.86667,124
16.87500,124
16.88333,124
16.89167,124
16.90000,125
16.90833,125
16.91667,124
16.92500,124
16.93333,125
16.94167,125
16.95000,125
16.95833,125
16.96667,125
16.97500,125
16.98333,125
16.99167,125
17.00000,125
17.00833,126
17.01667,127
17.02500,126
17.03333,126
17.04167,126
17.05000,125
17.05833,126
17.06667,127
17.07500,127
17.08333,127
17.09167,126
17.10000,125
17.10833,126
17.11667,126
17.12500,127
17.13333,128
17.14167,127
17.15000,127
17.15833,128
17.16667,128
17.17500,129
17.18333,128
17.19167,128
17.20000,128
17.20833,128
17.21667,128
17.22500,129
17.23333,129
17.24167,129
17.25000,128
17.25833,128
17.26667,128
17.27500,129
17.28333,130
17.29167,129
17.30000,129
17.30833,128
17.31667,128
17.32500,128
17.33333,128
17.34167,128
17.35000,128
17.35833,127
17.36667,126
17.37500,126
17.38333,126
17.39167,127
17.40000,127
17.40833,127
17.41667,127
17.42500,127
17.43333,127
17.44167,126
17.45000,126
17.45833,127
17.46667,128
17.47500,128
17.48333,128
17.49167,127
17.50000,126
17.50833,126
17.51667,127
17.52500,128
17.53333,129
17.54167,129
17.55000,129
17.55833,129
17.56667,129
17.57500,129
17.58333,128
17.59167,128
17.60000,128
17.60833,129
17.61667,129
17.62500,128
17.63333,128
17.64167,129
17.65000,130
17.65833,130
17.66667,130
17.67500,130
17.68333,129
17.69167,129
17.70000,129
17.70833,129
17.71667,129
17.72500,128
17.73333,129
17.74167,129
17.75000,129
17.75833,129
17.76667,129
17.77500,130
17.78333,131
17.79167,131
17.80000,130
17.80833,130
17.81667,130
17.82500,130
17.83333,130
17.84167,131
17.85000,132
17.85833,132
17.86667,132
17.87500,132
17.88333,133
17.89167,133
17.90000,133
17.90833,133
17.91667,134
17.92500,134
17.93333,134
17.94167,135
17.95000,136
17.95833,136
17.96667,135
17.97500,135
17.98333,135
17.99167,135
18.00000,135
18.00833,135
18.01667,136
18.02500,136
18.03333,137
18.04167,137
18.05000,138
18.05833,139
18.06667,140
18.07500,140
18.08333,141
18.09167,140
18.10000,140
18.10833,140
18.11667,140
18.12500,140
18.13333,141
18.14167,141
18.15000,142
18.15833,142
18.16667,142
18.17500,142
18.18333,142
18.19167,143
18.20000,144
18.20833,145
18.21667,145
18.22500,145
18.23333,145
18.24167,145
18.25000,145
18.25833,145
18.26667,145
18.27500,146
18.28333,146
18.29167,146
18.30000,146
18.30833,146
18.31667,147
18.32500,147
18.33333,146
18.34167,146
18.35000,146
18.35833,146
18.36667,146
18.37500,147
18.38333,147
18.39167,147
18.40000,148
18.40833,147
18.41667,148
18.42500,148
18.43333,148
18.44167,148
18.45000,148
18.45833,148
18.46667,149
18.47500,148
18.48333,148
18.49167,147
18.50000,146
18.50833,146
18.51667,146
18.52500,147
18.53333,147
18.54167,146
18.55000,146
18.55833,146
18.56667,146
18.57500,146
18.58333,146
18.59167,147
18.60000,147
18.60833,147
18.61667,147
18.62500,147
18.63333,147
18.64167,147
18.65000,146
18.65833,146
18.66667,146
18.67500,146
18.68333,146
18.69167,145
18.70000,145
18.70833,145
18.71667,145
18.72500,145
18.73333,145
18.74167,145
18.75000,145
18.75833,144
18.76667,144
18.77500,144
18.78333,144
18.79167,145
18.80000,146
18.80833,146
18.81667,145
18.82500,145
18.83333,145
18.84167,146
18.85000,147
18.85833,147
18.86667,148
18.87500,148
18.88333,148
18.89167,147
18.90000,148
18.90833,148
18.91667,149
18.92500,149
18.93333,149
18.94167,150
18.95000,150
18.95833,150
18.96667,150
18.97500,151
18.98333,152
18.99167,153
19.00000,153
19.00833,153
19.01667,154
19.02500,155
19.03333,155
19.04167,154
19.05000,153
19.05833,153
19.06667,153
19.07500,153
19.08333,153
19.09167,154
19.10000,155
19.10833,156
19.11667,156
19.12500,157
19.13333,156
19.14167,156
19.15000,156
19.15833,156
19.16667,156
19.17500,156
19.18333,156
19.19167,156
19.20000,157
19.20833,157
19.21667,157
19.22500,159
19.23333,159
19.24167,159
19.25000,159
19.25833,158
19.26667,157
19.27500,156
19.28333,157
19.29167,158
19.30000,158
19.30833,159
19.31667,160
19.32500,160
19.33333,160
19.34167,160
19.35000,160
19.35833,159
19.36667,159
19.37500,159
19.38333,158
19.39167,159
19.40000,160
19.40833,159
19.41667,159
19.42500,159
19.43333,159
19.44167,159
19.45000,159
19.45833,158
19.46667,157
19.47500,157
19.48333,158
19.49167,158
19.50000,158
19.50833,159
19.51667,159
19.52500,159
19.53333,159
19.54167,159
19.55000,159
19.55833,159
19.56667,158
19.57500,157
19.58333,157
19.59167,157
19.60000,157
19.60833,158
19.61667,157
19.62500,157
19.63333,156
19.64167,156
19.65000,156
19.65833,156
19.66667,156
19.67500,156
19.68333,156
19.69167,154
19.70000,154
19.70833,154
19.71667,154
19.72500,154
19.73333,154
19.74167,154
19.75000,154
19.75833,153
19.76667,153
19.77500,153
19.78333,154
19.79167,153
19.80000,153
19.80833,153
19.81667,152
19.82500,152
19.83333,152
19.84167,152
19.85000,152
19.85833,153
19.86667,152
19.87500,153
19.88333,153
19.89167,152
19.90000,152
19.90833,152
19.91667,151
19.92500,151
19.93333,150
19.94167,151
19.95000,151
19.95833,151
19.96667,151
19.97500,151
19.98333,152
19.99167,152
20.00000,153
20.00833,152
20.01667,152
20.02500,151
20.03333,151
20.04167,152
20.05000,152
20.05833,153
20.06667,153
20.07500,154
20.08333,154
20.09167,154
20.10000,154
20.10833,155
20.11667,154
20.12500,152
20.13333,152
20.14167,153
20.15000,154
20.15833,153
20.16667,153
20.17500,152
20.18333,152
20.19167,151
20.20000,151
20.20833,151
20.21667,150
20.22500,151
20.23333,153
20.24167,154
20.25000,155
20.25833,155
20.26667,156
20.27500,156
20.28333,155
20.29167,155
20.30000,154
20.30833,154
20.31667,153
20.32500,153
20.33333,152
20.34167,152
20.35000,152
20.35833,152
20.36667,152
20.37500,153
20.38333,154
20.39167,155
20.40000,155
20.40833,155
20.41667,155
20.42500,155
20.43333,155
20.44167,156
20.45000,157
20.45833,159
20.46667,161
20.47500,162
20.48333,163
20.49167,164
20.50000,165
20.50833,167
20.51667,168
20.52500,169
20.53333,171
20.54167,172
20.55000,173
20.55833,175
20.56667,176
20.57500,178
20.58333,180
20.59167,181
20.60000,182
20.60833,183
20.61667,186
20.62500,189
20.63333,190
20.64167,192
20.65000,194
20.65833,196
20.66667,197
20.67500,199
20.68333,201
20.69167,202
20.70000,204
20.70833,205
20.71667,206
20.72500,207
20.73333,209
20.74167,210
20.75000,211
20.75833,212
20.76667,213
20.77500,214
20.78333,216
20.79167,217
20.80000,218
20.80833,218
20.81667,218
20.82500,218
20.83333,219
20.84167,219
20.85000,219
20.85833,219
20.86667,219
20.87500,219
20.88333,219
20.89167,220
20.90000,220
20.90833,221
20.91667,221
20.92500,221
20.93333,221
20.94167,222
20.95000,222
20.95833,222
20.96667,223
20.97500,222
20.98333,222
20.99167,222
21.00000,222
21.00833,223
21.01667,222
21.02500,222
21.03333,222
21.04167,221
21.05000,221
21.05833,221
21.06667,220
21.07500,219
21.08333,218
21.09167,218
21.10000,218
21.10833,217
21.11667,216
21.12500,215
21.13333,214
21.14167,213
21.15000,211
21.15833,210
21.16667,208
21.17500,207
21.18333,206
21.19167,206
21.20000,205
21.20833,203
21.21667,202
21.22500,201
21.23333,201
21.24167,199
21.25000,197
21.25833,195
21.26667,193
21.27500,191
21.28333,190
21.29167,188
21.30000,187
21.30833,186
21.31667,184
21.32500,183
21.33333,182
21.34167,181
21.35000,179
21.35833,178
21.36667,177
21.37500,176
21.38333,175
21.39167,174
21.40000,171
21.40833,170
21.41667,168
21.42500,167
21.43333,166
21.44167,166
21.45000,166
21.45833,166
21.46667,165
21.47500,165
21.48333,164
21.49167,163
21.50000,162
21.50833,162
21.51667,162
21.52500,162
21.53333,162
21.54167,161
21.55000,160
21.55833,160
21.56667,159
21.57500,159
21.58333,160
21.59167,159
21.60000,158
21.60833,158
21.61667,158
21.62500,159
21.63333,159
21.64167,158
21.65000,158
21.65833,156
21.66667,155
21.67500,155
21.68333,155
21.69167,155
21.70000,155
21.70833,155
21.71667,156
21.72500,156
21.73333,156
21.74167,156
21.75000,156
21.75833,155
21.76667,153
21.77500,153
21.78333,153
21.79167,154
21.80000,155
21.80833,156
21.81667,155
21.82500,154
21.83333,154
21.84167,154
21.85000,155
21.85833,155
21.86667,154
21.87500,153
21.88333,153
21.89167,153
21.90000,152
21.90833,151
21.91667,150
21.92500,150
21.93333,150
21.94167,151
21.95000,151
21.95833,151
21.96667,151
21.97500,152
21.98333,153
21.99167,154
22.00000,154
22.00833,154
22.01667,153
22.02500,153
22.03333,153
22.04167,154
22.05000,155
22.05833,154
22.06667,154
22.07500,154
22.08333,153
22.09167,153
22.10000,152
22.10833,151
22.11667,151
22.12500,151
22.13333,152
22.14167,153
22.15000,152
22.15833,152
22.16667,151
22.17500,151
22.18333,151
22.19167,151
22.20000,152
22.20833,152
22.21667,152
22.22500,152
22.23333,151
22.24167,151
22.25000,151
22.25833,151
22.26667,152
22.27500,152
22.28333,152
22.29167,151
22.30000,150
22.30833,150
22.31667,150
22.32500,150
22.33333,149
22.34167,149
22.35000,149
22.35833,150
22.36667,150
22.37500,149
22.38333,149
22.39167,149
22.40000,149
22.40833,148
22.41667,148
22.42500,148
22.43333,149
22.44167,150
22.45000,150
22.45833,150
22.46667,149
22.47500,149
22.48333,149
22.49167,149
22.50000,149
22.50833,148
22.51667,148
22.52500,148
22.53333,147
22.54167,148
22.55000,148
22.55833,149
22.56667,148
22.57500,147
22.58333,147
22.59167,146
22.60000,146
22.60833,147
22.61667,147
22.62500,147
22.63333,147
22.64167,148
22.65000,148
22.65833,147
22.66667,146
22.67500,146
22.68333,146
22.69167,146
22.70000,145
22.70833,144
22.71667,145
22.72500,145
22.73333,145
22.74167,145
22.75000,145
22.75833,145
22.76667,145
22.77500,145
22.78333,145
22.79167,146
22.80000,147
22.80833,147
22.81667,146
22.82500,146
22.83333,146
22.84167,146
22.85000,146
22.85833,146
22.86667,147
22.87500,147
22.88333,147
22.89167,147
22.90000,147
22.90833,146
22.91667,145
22.92500,146
22.93333,146
22.94167,146
22.95000,146
22.95833,145
22.96667,145
22.97500,145
22.98333,145
22.99167,145
23.00000,143
23.00833,143
23.01667,144
23.02500,145
23.03333,145
23.04167,145
23.05000,144
23.05833,145
23.06667,146
23.07500,146
23.08333,146
23.09167,145
23.10000,144
23.10833,143
23.11667,143
23.12500,143
23.13333,143
23.14167,143
23.15000,143
23.15833,143
23.16667,144
23.17500,144
23.18333,144
23.19167,145
23.20000,144
23.20833,143
23.21667,143
23.22500,142
23.23333,143
23.24167,143
23.25000,143
23.25833,144
23.26667,144
23.27500,144
23.28333,144
23.29167,144
23.30000,144
23.30833,144
23.31667,143
23.32500,142
23.33333,141
23.34167,142
23.35000,143
23.35833,144
23.36667,144
23.37500,144
23.38333,144
23.39167,143
23.40000,143
23.40833,142
23.41667,142
23.42500,143
23.43333,143
23.44167,143
23.45000,143
23.45833,143
23.46667,143
23.47500,143
23.48333,143
23.49167,144
23.50000,143
23.50833,142
23.51667,142
23.52500,141
23.53333,141
23.54167,141
23.55000,141
23.55833,141
23.56667,141
23.57500,141
23.58333,141
23.59167,140
23.60000,140
23.60833,140
23.61667,139
23.62500,139
23.63333,139
23.64167,139
23.65000,139
23.65833,140
23.66667,140
23.67500,140
23.68333,141
23.69167,141
23.70000,141
23.70833,140
23.71667,139
23.72500,139
23.73333,140
23.74167,140
23.75000,139
23.75833,139
23.76667,139
23.77500,140
23.78333,140
23.79167,140
23.80000,140
23.80833,140
23.81667,140
23.82500,139
23.83333,140
23.84167,140
23.85000,140
23.85833,140
23.86667,139
23.87500,139
23.88333,139
23.89167,139
23.90000,140
23.90833,139
23.91667,139
23.92500,139
23.93333,138
23.94167,139
23.95000,140
23.95833,141
23.96667,141
23.97500,141
23.98333,139
23.99167,138
24.00000,138
24.00833,139
24.01667,140
24.02500,140
24.03333,139
24.04167,139
24.05000,139
24.05833,140
24.06667,140
24.07500,140
24.08333,140
24.09167,140
24.10000,140
24.10833,140
24.11667,140
24.12500,139
24.13333,139
24.14167,139
24.15000,140
24.15833,139
24.16667,139
24.17500,138
24.18333,138
24.19167,137
24.20000,137
24.20833,138
24.21667,138
24.22500,138
24.23333,138
24.24167,137
24.25000,137
24.25833,137
24.26667,137
24.27500,137
24.28333,136
24.29167,136
24.30000,136
24.30833,136
24.31667,135
24.32500,135
24.33333,134
24.34167,135
24.35000,136
24.35833,136
24.36667,136
24.37500,136
24.38333,136
24.39167,136
24.40000,136
24.40833,136
24.41667,136
24.42500,136
24.43333,135
24.44167,136
24.45000,136
24.45833,136
24.46667,135
24.47500,135
24.48333,136
24.49167,135
24.50000,134
24.50833,134
24.51667,134
24.52500,136
24.53333,136
24.54167,137
24.55000,137
24.55833,136
24.56667,136
24.57500,136
24.58333,136
24.59167,135
24.60000,135
24.60833,135
24.61667,136
24.62500,136
24.63333,136
24.64167,136
24.65000,136
24.65833,136
24.66667,137
24.67500,136
24.68333,136
24.69167,136
24.70000,136
24.70833,137
24.71667,138
24.72500,137
24.73333,137
24.74167,137
24.75000,137
24.75833,137
24.76667,137
24.77500,137
24.78333,136
24.79167,136
24.80000,136
24.80833,135
24.81667,135
24.82500,135
24.83333,135
24.84167,135
24.85000,135
24.85833,135
24.86667,135
24.87500,134
24.88333,135
24.89167,135
24.90000,135
24.90833,135
24.91667,135
24.92500,135
24.93333,135
24.94167,134
24.95000,134
24.95833,135
24.96667,134
24.97500,134
24.98333,135
24.99167,134
25.00000,134
25.00833,135
25.01667,136
25.02500,136
25.03333,136
25.04167,136
25.05000,137
25.05833,136
25.06667,136
25.07500,136
25.08333,135
25.09167,135
25.10000,136
25.10833,135
25.11667,136
25.12500,136
25.13333,135
25.14167,133
25.15000,133
25.15833,133
25.16667,134
25.17500,135
25.18333,134
25.19167,134
25.20000,135
25.20833,135
25.21667,135
25.22500,135
25.23333,135
25.24167,134
25.25000,134
25.25833,135
25.26667,135
25.27500,136
25.28333,136
25.29167,136
25.30000,136
25.30833,136
25.31667,135
25.32500,135
25.33333,135
25.34167,135
25.35000,136
25.35833,135
25.36667,135
25.37500,135
25.38333,135
25.39167,134
25.40000,135
25.40833,135
25.41667,135
25.42500,135
25.43333,134
25.44167,134
25.45000,134
25.45833,135
25.46667,135
25.47500,134
25.48333,134
25.49167,134
25.50000,135
25.50833,134
25.51667,134
25.52500,134
25.53333,134
25.54167,134
25.55000,135
25.55833,136
25.56667,136
25.57500,135
25.58333,135
25.59167,135
25.60000,134
25.60833,133
25.61667,132
25.62500,132
25.63333,132
25.64167,131
25.65000,131
25.65833,131
25.66667,130
25.67500,130
25.68333,130
25.69167,130
25.70000,130
25.70833,130
25.71667,130
25.72500,129
25.73333,129
25.74167,129
25.75000,130
25.75833,130
25.76667,129
25.77500,129
25.78333,129
25.79167,130
25.80000,130
25.80833,130
25.81667,130
25.82500,130
25.83333,130
25.84167,130
25.85000,130
25.85833,130
25.86667,129
25.87500,129
25.88333,129
25.89167,130
25.90000,130
25.90833,130
25.91667,129
25.92500,128
25.93333,129
25.94167,129
25.95000,129
25.95833,130
25.96667,130
25.97500,130
25.98333,131
25.99167,130
26.00000,130
26.00833,130
26.01667,130
26.02500,130
26.03333,130
26.04167,130
26.05000,130
26.05833,129
26.06667,130
26.07500,130
26.08333,129
26.09167,129
26.10000,128
26.10833,128
26.11667,127
26.12500,127
26.13333,126
26.14167,126
26.15000,126
26.15833,127
26.16667,128
26.17500,129
26.18333,129
26.19167,130
26.20000,130
26.20833,130
26.21667,130
26.22500,130
26.23333,129
26.24167,128
26.25000,127
26.25833,127
26.26667,126
26.27500,126
26.28333,126
26.29167,125
26.30000,125
26.30833,125
26.31667,125
26.32500,125
26.33333,126
26.34167,127
26.35000,127
26.35833,127
26.36667,128
26.37500,127
26.38333,126
26.39167,126
26.40000,126
26.40833,126
26.41667,127
26.42500,127
26.43333,127
26.44167,127
26.45000,127
26.45833,127
26.46667,126
26.47500,126
26.48333,125
26.49167,125
26.50000,125
26.50833,126
26.51667,126
26.52500,126
26.53333,125
26.54167,125
26.55000,126
26.55833,126
26.56667,125
26.57500,125
26.58333,124
26.59167,126
26.60000,126
26.60833,125
26.61667,124
26.62500,125
26.63333,125
26.64167,125
26.65000,125
26.65833,126
26.66667,125
26.67500,125
26.68333,126
26.69167,126
26.70000,125
26.70833,125
26.71667,124
26.72500,125
26.73333,125
26.74167,125
26.75000,125
26.75833,125
26.76667,125
26.77500,125
26.78333,126
26.79167,125
26.80000,125
26.80833,125
26.81667,126
26.82500,126
26.83333,125
26.84167,125
26.85000,125
26.85833,125
26.86667,124
26.87500,124
26.88333,124
26.89167,125
26.90000,125
26.90833,126
26.91667,126
26.92500,125
26.93333,123
26.94167,123
26.95000,123
26.95833,124
26.96667,124
26.97500,123
26.98333,123
26.99167,125
27.00000,125
27.00833,125
27.01667,125
27.02500,125
27.03333,124
27.04167,124
27.05000,125
27.05833,125
27.06667,125
27.07500,125
27.08333,126
27.09167,127
27.10000,127
27.10833,127
27.11667,127
27.12500,126
27.13333,126
27.14167,125
27.15000,124
27.15833,124
27.16667,125
27.17500,125
27.18333,125
27.19167,125
27.20000,125
27.20833,125
27.21667,124
27.22500,124
27.23333,124
27.24167,124
27.25000,124
27.25833,125
27.26667,125
27.27500,125
27.28333,124
27.29167,124
27.30000,124
27.30833,125
27.31667,125
27.32500,124
27.33333,124
27.34167,124
27.35000,123
27.35833,123
27.36667,123
27.37500,123
27.38333,124
27.39167,125
27.40000,126
27.40833,126
27.41667,126
27.42500,125
27.43333,125
27.44167,125
27.45000,124
27.45833,124
27.46667,124
27.47500,123
27.48333,124
27.49167,124
27.50000,124
27.50833,124
27.51667,123
27.52500,122
27.53333,123
27.54167,124
27.55000,125
27.55833,125
27.56667,126
27.57500,126
27.58333,126
27.59167,126
27.60000,125
27.60833,125
27.61667,125
27.62500,124
27.63333,124
27.64167,123
27.65000,123
27.65833,123
27.66667,123
27.67500,123
27.68333,123
27.69167,123
27.70000,123
27.70833,123
27.71667,123
27.72500,124
27.73333,124
27.74167,125
27.75000,125
27.75833,125
27.76667,124
27.77500,124
27.78333,123
27.79167,123
27.80000,123
27.80833,123
27.81667,123
27.82500,123
27.83333,123
27.84167,124
27.85000,124
27.85833,123
27.86667,123
27.87500,124
27.88333,125
27.89167,124
27.90000,123
27.90833,122
27.91667,121
27.92500,121
27.93333,120
27.94167,120
27.95000,121
27.95833,121
27.96667,121
27.97500,121
27.98333,121
27.99167,121
28.00000,121
28.00833,122
28.01667,122
28.02500,122
28.03333,122
28.04167,122
28.05000,122
28.05833,121
28.06667,121
28.07500,122
28.08333,122
28.09167,122
28.10000,122
28.10833,122
28.11667,122
28.12500,122
28.13333,122
28.14167,122
28.15000,122
28.15833,122
28.16667,122
28.17500,122
28.18333,123
28.19167,123
28.20000,124
28.20833,124
28.21667,124
28.22500,125
28.23333,125
28.24167,125
28.25000,124
28.25833,123
28.26667,123
28.27500,123
28.28333,122
28.29167,122
28.30000,123
28.30833,124
28.31667,124
28.32500,123
28.33333,124
28.34167,124
28.35000,125
28.35833,124
28.36667,124
28.37500,124
28.38333,123
28.39167,123
28.40000,124
28.40833,124
28.41667,124
28.42500,125
28.43333,125
28.44167,124
28.45000,124
28.45833,124
28.46667,125
28.47500,125
28.48333,125
28.49167,125
28.50000,125
28.50833,125
28.51667,124
28.52500,124
28.53333,124
28.54167,124
28.55000,124
28.55833,124
28.56667,124
28.57500,124
28.58333,123
28.59167,123
28.60000,124
28.60833,124
28.61667,124
28.62500,123
28.63333,123
28.64167,122
28.65000,123
28.65833,123
28.66667,123
28.67500,123
28.68333,122
28.69167,123
28.70000,123
28.70833,123
28.71667,122
28.72500,122
28.73333,122
28.74167,122
28.75000,122
28.75833,121
28.76667,120
28.77500,121
28.78333,121
28.79167,121
28.80000,122
28.80833,123
28.81667,123
28.82500,123
28.83333,122
28.84167,121
28.85000,121
28.85833,121
28.86667,121
28.87500,121
28.88333,121
28.89167,121
28.90000,121
28.90833,120
28.91667,119
28.92500,119
28.93333,119
28.94167,119
28.95000,119
28.95833,119
28.96667,119
28.97500,118
28.98333,118
28.99167,118
29.00000,117
29.00833,117
29.01667,117
29.02500,117
29.03333,117
29.04167,117
29.05000,118
29.05833,118
29.06667,117
29.07500,117
29.08333,116
29.09167,115
29.10000,115
29.10833,115
29.11667,114
29.12500,114
29.13333,114
29.14167,114
29.15000,114
29.15833,113
29.16667,113
29.17500,113
29.18333,113
29.19167,114
29.20000,114
29.20833,113
29.21667,113
29.22500,113
29.23333,113
29.24167,112
29.25000,111
29.25833,110
29.26667,110
29.27500,110
29.28333,110
29.29167,109
29.30000,109
29.30833,109
29.31667,109
29.32500,109
29.33333,109
29.34167,110
29.35000,109
29.35833,108
29.36667,109
29.37500,109
29.38333,109
29.39167,109
29.40000,109
29.40833,109
29.41667,109
29.42500,109
29.43333,108
29.44167,107
29.45000,107
29.45833,107
29.46667,107
29.47500,107
29.48333,108
29.49167,109
29.50000,108
29.50833,107
29.51667,107
29.52500,106
29.53333,106
29.54167,106
29.55000,105
29.55833,106
29.56667,106
29.57500,106
29.58333,105
29.59167,105
29.60000,105
29.60833,106
29.61667,106
29.62500,105
29.63333,105
29.64167,105
29.65000,105
29.65833,105
29.66667,106
29.67500,106
29.68333,106
29.69167,105
29.70000,106
29.70833,106
29.71667,105
29.72500,104
29.73333,104
29.74167,104
29.75000,105
29.75833,106
29.76667,106
29.77500,105
29.78333,105
29.79167,104
29.80000,105
29.80833,104
29.81667,104
29.82500,104
29.83333,103
29.84167,102
29.85000,102
29.85833,102
29.86667,103
29.87500,103
29.88333,103
29.89167,105
29.90000,105
29.90833,105
29.91667,105
29.92500,105
29.93333,105
29.94167,106
29.95000,106
29.95833,105
29.96667,105
29.97500,105
29.98333,105
29.99167,105
30.00000,104

[LC Chromatogram(Detector B-Ch1)]
Interval(msec),500
# of Points,3601
Start Time(min),0.000
End Time(min),30.000
Intensity Units,mV
Intensity Multiplier,0.001
R.Time (min),Intensity
0.00000,4
0.00833,4
0.01667,0
0.02500,0
0.03333,0
0.04167,0
0.05000,0
0.05833,1
0.06667,1
0.07500,1
0.08333,1
0.09167,2
0.10000,2
0.10833,1
0.11667,1
0.12500,1
0.13333,2
0.14167,1
0.15000,1
0.15833,1
0.16667,0
0.17500,0
0.18333,1
0.19167,1
0.20000,1
0.20833,2
0.21667,2
0.22500,2
0.23333,2
0.24167,2
0.25000,2
0.25833,2
0.26667,2
0.27500,2
0.28333,2
0.29167,2
0.30000,2
0.30833,2
0.31667,2
0.32500,2
0.33333,2
0.34167,3
0.35000,3
0.35833,2
0.36667,3
0.37500,3
0.38333,3
0.39167,2
0.40000,2
0.40833,2
0.41667,1
0.42500,1
0.43333,1
0.44167,2
0.45000,2
0.45833,2
0.46667,2
0.47500,3
0.48333,3
0.49167,3
0.50000,3
0.50833,3
0.51667,2
0.52500,2
0.53333,2
0.54167,3
0.55000,2
0.55833,2
0.56667,2
0.57500,3
0.58333,3
0.59167,3
0.60000,3
0.60833,3
0.61667,3
0.62500,3
0.63333,3
0.64167,3
0.65000,3
0.65833,3
0.66667,4
0.67500,4
0.68333,4
0.69167,4
0.70000,4
0.70833,3
0.71667,3
0.72500,3
0.73333,2
0.74167,2
0.75000,2
0.75833,3
0.76667,3
0.77500,2
0.78333,2
0.79167,2
0.80000,2
0.80833,2
0.81667,2
0.82500,3
0.83333,3
0.84167,3
0.85000,3
0.85833,3
0.86667,3
0.87500,4
0.88333,4
0.89167,4
0.90000,4
0.90833,4
0.91667,4
0.92500,4
0.93333,4
0.94167,4
0.95000,4
0.95833,4
0.96667,4
0.97500,4
0.98333,4
0.99167,4
1.00000,4
1.00833,4
1.01667,3
1.02500,3
1.03333,3
1.04167,3
1.05000,3
1.05833,3
1.06667,4
1.07500,4
1.08333,5
1.09167,5
1.10000,6
1.10833,6
1.11667,5
1.12500,5
1.13333,5
1.14167,5
1.15000,4
1.15833,4
1.16667,4
1.17500,4
1.18333,4
1.19167,4
1.20000,4
1.20833,4
1.21667,4
1.22500,4
1.23333,4
1.24167,4
1.25000,4
1.25833,4
1.26667,5
1.27500,5
1.28333,5
1.29167,5
1.30000,5
1.30833,5
1.31667,5
1.32500,6
1.33333,6
1.34167,6
1.35000,5
1.35833,5
1.36667,6
1.37500,6
1.38333,6
1.39167,5
1.40000,5
1.40833,6
1.41667,6
1.42500,6
1.43333,6
1.44167,6
1.45000,6
1.45833,6
1.46667,6
1.47500,6
1.48333,6
1.49167,6
1.50000,5
1.50833,5
1.51667,5
1.52500,5
1.53333,6
1.54167,6
1.55000,6
1.55833,6
1.56667,6
1.57500,6
1.58333,5
1.59167,5
1.60000,5
1.60833,5
1.61667,5
1.62500,5
1.63333,5
1.64167,5
1.65000,5
1.65833,5
1.66667,5
1.67500,5
1.68333,5
1.69167,5
1.70000,5
1.70833,5
1.71667,5
1.72500,5
1.73333,5
1.74167,5
1.75000,5
1.75833,5
1.76667,5
1.77500,5
1.78333,5
1.79167,6
1.80000,6
1.80833,6
1.81667,7
1.82500,7
1.83333,7
1.84167,6
1.85000,6
1.85833,6
1.86667,6
1.87500,6
1.88333,6
1.89167,6
1.90000,6
1.90833,6
1.91667,6
1.92500,6
1.93333,6
1.94167,6
1.95000,6
1.95833,6
1.96667,6
1.97500,6
1.98333,6
1.99167,6
2.00000,6
2.00833,6
2.01667,6
2.02500,6
2.03333,6
2.04167,6
2.05000,6
2.05833,6
2.06667,5
2.07500,5
2.08333,5
2.09167,4
2.10000,4
2.10833,5
2.11667,5
2.12500,5
2.13333,5
2.14167,5
2.15000,5
2.15833,5
2.16667,5
2.17500,4
2.18333,4
2.19167,4
2.20000,4
2.20833,4
2.21667,4
2.22500,3
2.23333,3
2.24167,4
2.25000,4
2.25833,3
2.26667,3
2.27500,3
2.28333,3
2.29167,3
2.30000,3
2.30833,3
2.31667,3
2.32500,3
2.33333,3
2.34167,3
2.35000,3
2.35833,3
2.36667,3
2.37500,3
2.38333,2
2.39167,2
2.40000,2
2.40833,2
2.41667,2
2.42500,1
2.43333,1
2.44167,0
2.45000,-0
2.45833,-0
2.46667,-0
2.47500,-0
2.48333,-0
2.49167,-0
2.50000,-1
2.50833,-1
2.51667,-1
2.52500,-0
2.53333,-1
2.54167,-1
2.55000,-1
2.55833,-1
2.56667,-1
2.57500,-1
2.58333,-1
2.59167,-1
2.60000,-1
2.60833,-1
2.61667,-1
2.62500,-2
2.63333,-2
2.64167,-1
2.65000,-2
2.65833,-2
2.66667,-2
2.67500,-2
2.68333,-2
2.69167,-2
2.70000,-2
2.70833,-2
2.71667,-2
2.72500,-2
2.73333,-2
2.74167,-3
2.75000,-3
2.75833,-3
2.76667,-3
2.77500,-3
2.78333,-3
2.79167,-3
2.80000,-3
2.80833,-3
2.81667,-3
2.82500,-3
2.83333,-2
2.84167,-2
2.85000,-3
2.85833,-3
2.86667,-3
2.87500,-3
2.88333,-3
2.89167,-3
2.90000,-3
2.90833,-3
2.91667,-3
2.92500,-3
2.93333,-3
2.94167,-3
2.95000,-3
2.95833,-3
2.96667,-2
2.97500,-2
2.98333,-2
2.99167,-2
3.00000,-2
3.00833,-2
3.01667,-2
3.02500,-2
3.03333,-2
3.04167,-2
3.05000,-2
3.05833,-2
3.06667,-2
3.07500,-2
3.08333,-1
3.09167,-1
3.10000,-1
3.10833,-0
3.11667,-0
3.12500,-0
3.13333,-0
3.14167,-0
3.15000,-0
3.15833,0
3.16667,0
3.17500,0
3.18333,0
3.19167,0
3.20000,1
3.20833,1
3.21667,1
3.22500,1
3.23333,1
3.24167,1
3.25000,1
3.25833,1
3.26667,1
3.27500,2
3.28333,2
3.29167,2
3.30000,3
3.30833,3
3.31667,2
3.32500,3
3.33333,3
3.34167,3
3.35000,3
3.35833,3
3.36667,3
3.37500,3
3.38333,3
3.39167,3
3.40000,3
3.40833,3
3.41667,3
3.42500,4
3.43333,4
3.44167,4
3.45000,4
3.45833,4
3.46667,4
3.47500,4
3.48333,4
3.49167,5
3.50000,5
3.50833,5
3.51667,4
3.52500,4
3.53333,4
3.54167,4
3.55000,4
3.55833,3
3.56667,3
3.57500,4
3.58333,4
3.59167,4
3.60000,4
3.60833,4
3.61667,4
3.62500,4
3.63333,5
3.64167,4
3.65000,4
3.65833,5
3.66667,5
3.67500,4
3.68333,4
3.69167,4
3.70000,4
3.70833,4
3.71667,4
3.72500,4
3.73333,4
3.74167,4
3.75000,4
3.75833,4
3.76667,4
3.77500,4
3.78333,4
3.79167,5
3.80000,5
3.80833,5
3.81667,5
3.82500,5
3.83333,5
3.84167,5
3.85000,5
3.85833,5
3.86667,5
3.87500,5
3.88333,5
3.89167,5
3.90000,5
3.90833,5
3.91667,5
3.92500,5
3.93333,5
3.94167,5
3.95000,5
3.95833,5
3.96667,5
3.97500,5
3.98333,5
3.99167,5
4.00000,6
4.00833,5
4.01667,5
4.02500,5
4.03333,5
4.04167,5
4.05000,5
4.05833,5
4.06667,5
4.07500,5
4.08333,5
4.09167,5
4.10000,6
4.10833,6
4.11667,6
4.12500,6
4.13333,6
4.14167,7
4.15000,7
4.15833,7
4.16667,7
4.17500,6
4.18333,6
4.19167,6
4.20000,6
4.20833,6
4.21667,5
4.22500,5
4.23333,5
4.24167,6
4.25000,5
4.25833,5
4.26667,5
4.27500,5
4.28333,6
4.29167,6
4.30000,6
4.30833,6
4.31667,6
4.32500,6
4.33333,7
4.34167,7
4.35000,8
4.35833,8
4.36667,8
4.37500,8
4.38333,7
4.39167,7
4.40000,7
4.40833,7
4.41667,6
4.42500,6
4.43333,7
4.44167,7
4.45000,7
4.45833,7
4.46667,7
4.47500,7
4.48333,6
4.49167,6
4.50000,6
4.50833,7
4.51667,7
4.52500,7
4.53333,7
4.54167,7
4.55000,7
4.55833,7
4.56667,7
4.57500,7
4.58333,6
4.59167,6
4.60000,6
4.60833,6
4.61667,6
4.62500,6
4.63333,6
4.64167,7
4.65000,8
4.65833,8
4.66667,8
4.67500,9
4.68333,8
4.69167,8
4.70000,8
4.70833,8
4.71667,8
4.72500,7
4.73333,7
4.74167,7
4.75000,7
4.75833,7
4.76667,7
4.77500,7
4.78333,7
4.79167,7
4.80000,7
4.80833,8
4.81667,8
4.82500,8
4.83333,8
4.84167,8
4.85000,8
4.85833,8
4.86667,8
4.87500,8
4.88333,8
4.89167,8
4.90000,8
4.90833,8
4.91667,9
4.92500,8
4.93333,8
4.94167,8
4.95000,8
4.95833,8
4.96667,8
4.97500,8
4.98333,8
4.99167,8
5.00000,8
5.00833,7
5.01667,7
5.02500,7
5.03333,7
5.04167,7
5.05000,7
5.05833,7
5.06667,8
5.07500,8
5.08333,8
5.09167,8
5.10000,9
5.10833,9
5.11667,9
5.12500,8
5.13333,9
5.14167,9
5.15000,9
5.15833,9
5.16667,9
5.17500,9
5.18333,9
5.19167,9
5.20000,8
5.20833,8
5.21667,8
5.22500,8
5.23333,8
5.24167,8
5.25000,8
5.25833,9
5.26667,9
5.27500,9
5.28333,9
5.29167,9
5.30000,9
5.30833,9
5.31667,9
5.32500,8
5.33333,8
5.34167,9
5.35000,9
5.35833,9
5.36667,10
5.37500,9
5.38333,10
5.39167,10
5.40000,10
5.40833,10
5.41667,9
5.42500,9
5.43333,9
5.44167,9
5.45000,9
5.45833,10
5.46667,10
5.47500,9
5.48333,9
5.49167,9
5.50000,9
5.50833,9
5.51667,10
5.52500,10
5.53333,10
5.54167,10
5.55000,11
5.55833,11
5.56667,11
5.57500,11
5.58333,11
5.59167,11
5.60000,11
5.60833,11
5.61667,11
5.62500,11
5.63333,10
5.64167,10
5.65000,10
5.65833,10
5.66667,10
5.67500,10
5.68333,11
5.69167,11
5.70000,11
5.70833,11
5.71667,11
5.72500,11
5.73333,11
5.74167,11
5.75000,11
5.75833,11
5.76667,11
5.77500,12
5.78333,12
5.79167,12
5.80000,13
5.80833,13
5.81667,13
5.82500,13
5.83333,13
5.84167,12
5.85000,12
5.85833,13
5.86667,13
5.87500,13
5.88333,13
5.89167,13
5.90000,13
5.90833,13
5.91667,13
5.92500,13
5.93333,13
5.94167,13
5.95000,13
5.95833,13
5.96667,13
5.97500,13
5.98333,13
5.99167,13
6.00000,14
6.00833,14
6.01667,14
6.02500,14
6.03333,14
6.04167,15
6.05000,15
6.05833,15
6.06667,15
6.07500,15
6.08333,15
6.09167,15
6.10000,15
6.10833,15
6.11667,15
6.12500,15
6.13333,15
6.14167,15
6.15000,15
6.15833,15
6.16667,16
6.17500,16
6.18333,16
6.19167,16
6.20000,16
6.20833,16
6.21667,16
6.22500,16
6.23333,16
6.24167,16
6.25000,16
6.25833,16
6.26667,17
6.27500,16
6.28333,16
6.29167,16
6.30000,16
6.30833,17
6.31667,17
6.32500,16
6.33333,16
6.34167,16
6.35000,16
6.35833,17
6.36667,17
6.37500,17
6.38333,17
6.39167,17
6.40000,17
6.40833,17
6.41667,17
6.42500,17
6.43333,17
6.44167,17
6.45000,17
6.45833,18
6.46667,18
6.47500,18
6.48333,18
6.49167,18
6.50000,18
6.50833,18
6.51667,18
6.52500,18
6.53333,18
6.54167,18
6.55000,18
6.55833,18
6.56667,18
6.57500,18
6.58333,18
6.59167,18
6.60000,18
6.60833,18
6.61667,18
6.62500,18
6.63333,18
6.64167,19
6.65000,19
6.65833,19
6.66667,18
6.67500,18
6.68333,18
6.69167,18
6.70000,18
6.70833,18
6.71667,18
6.72500,18
6.73333,18
6.74167,18
6.75000,18
6.75833,18
6.76667,18
6.77500,18
6.78333,18
6.79167,18
6.80000,18
6.80833,18
6.81667,18
6.82500,18
6.83333,18
6.84167,18
6.85000,18
6.85833,18
6.86667,18
6.87500,18
6.88333,18
6.89167,18
6.90000,18
6.90833,18
6.91667,18
6.92500,18
6.93333,17
6.94167,17
6.95000,17
6.95833,18
6.96667,18
6.97500,18
6.98333,18
6.99167,18
7.00000,19
7.00833,18
7.01667,18
7.02500,18
7.03333,17
7.04167,17
7.05000,18
7.05833,18
7.06667,18
7.07500,18
7.08333,18
7.09167,18
7.10000,18
7.10833,18
7.11667,18
7.12500,18
7.13333,17
7.14167,17
7.15000,16
7.15833,16
7.16667,16
7.17500,17
7.18333,17
7.19167,17
7.20000,17
7.20833,17
7.21667,17
7.22500,17
7.23333,17
7.24167,17
7.25000,16
7.25833,16
7.26667,16
7.27500,16
7.28333,16
7.29167,16
7.30000,16
7.30833,16
7.31667,16
7.32500,16
7.33333,15
7.34167,15
7.35000,15
7.35833,15
7.36667,16
7.37500,16
7.38333,16
7.39167,16
7.40000,16
7.40833,16
7.41667,16
7.42500,15
7.43333,15
7.44167,15
7.45000,15
7.45833,15
7.46667,15
7.47500,15
7.48333,15
7.49167,14
7.50000,14
7.50833,14
7.51667,14
7.52500,14
7.53333,14
7.54167,14
7.55000,14
7.55833,14
7.56667,14
7.57500,14
7.58333,14
7.59167,14
7.60000,14
7.60833,14
7.61667,14
7.62500,14
7.63333,14
7.64167,14
7.65000,14
7.65833,13
7.66667,13
7.67500,13
7.68333,13
7.69167,13
7.70000,13
7.70833,13
7.71667,13
7.72500,12
7.73333,13
7.74167,13
7.75000,13
7.75833,13
7.76667,13
7.77500,12
7.78333,12
7.79167,12
7.80000,12
7.80833,12
7.81667,12
7.82500,12
7.83333,12
7.84167,12
7.85000,12
7.85833,12
7.86667,12
7.87500,11
7.88333,11
7.89167,11
7.90000,10
7.90833,10
7.91667,10
7.92500,10
7.93333,10
7.94167,10
7.95000,10
7.95833,9
7.96667,10
7.97500,10
7.98333,10
7.99167,10
8.00000,10
8.00833,10
8.01667,10
8.02500,9
8.03333,9
8.04167,10
8.05000,9
8.05833,9
8.06667,9
8.07500,9
8.08333,9
8.09167,9
8.10000,9
8.10833,9
8.11667,9
8.12500,9
8.13333,9
8.14167,9
8.15000,9
8.15833,9
8.16667,9
8.17500,9
8.18333,9
8.19167,9
8.20000,8
8.20833,8
8.21667,8
8.22500,8
8.23333,8
8.24167,8
8.25000,8
8.25833,8
8.26667,8
8.27500,8
8.28333,8
8.29167,8
8.30000,8
8.30833,8
8.31667,8
8.32500,8
8.33333,8
8.34167,8
8.35000,8
8.35833,8
8.36667,7
8.37500,7
8.38333,7
8.39167,7
8.40000,8
8.40833,8
8.41667,8
8.42500,8
8.43333,8
8.44167,7
8.45000,8
8.45833,8
8.46667,7
8.47500,7
8.48333,7
8.49167,7
8.50000,7
8.50833,8
8.51667,8
8.52500,8
8.53333,8
8.54167,8
8.55000,8
8.55833,7
8.56667,6
8.57500,6
8.58333,6
8.59167,6
8.60000,6
8.60833,6
8.61667,6
8.62500,6
8.63333,7
8.64167,7
8.65000,7
8.65833,7
8.66667,7
8.67500,7
8.68333,7
8.69167,7
8.70000,7
8.70833,6
8.71667,6
8.72500,6
8.73333,5
8.74167,5
8.75000,5
8.75833,5
8.76667,6
8.77500,6
8.78333,6
8.79167,6
8.80000,6
8.80833,7
8.81667,6
8.82500,6
8.83333,6
8.84167,6
8.85000,6
8.85833,6
8.86667,6
8.87500,6
8.88333,5
8.89167,5
8.90000,5
8.90833,5
8.91667,6
8.92500,6
8.93333,6
8.94167,6
8.95000,5
8.95833,5
8.96667,5
8.97500,6
8.98333,6
8.99167,6
9.00000,6
9.00833,6
9.01667,6
9.02500,6
9.03333,6
9.04167,6
9.05000,6
9.05833,6
9.06667,5
9.07500,5
9.08333,5
9.09167,5
9.10000,5
9.10833,6
9.11667,6
9.12500,5
9.13333,5
9.14167,5
9.15000,5
9.15833,5
9.16667,5
9.17500,6
9.18333,6
9.19167,6
9.20000,6
9.20833,7
9.21667,6
9.22500,6
9.23333,6
9.24167,6
9.25000,6
9.25833,6
9.26667,6
9.27500,5
9.28333,5
9.29167,5
9.30000,5
9.30833,5
9.31667,5
9.32500,5
9.33333,5
9.34167,5
9.35000,6
9.35833,6
9.36667,5
9.37500,5
9.38333,5
9.39167,6
9.40000,6
9.40833,5
9.41667,5
9.42500,5
9.43333,5
9.44167,5
9.45000,5
9.45833,6
9.46667,6
9.47500,6
9.48333,6
9.49167,6
9.50000,6
9.50833,6
9.51667,6
9.52500,6
9.53333,6
9.54167,6
9.55000,6
9.55833,6
9.56667,5
9.57500,5
9.58333,5
9.59167,4
9.60000,4
9.60833,4
9.61667,4
9.62500,5
9.63333,5
9.64167,5
9.65000,5
9.65833,5
9.66667,5
9.67500,5
9.68333,4
9.69167,4
9.70000,4
9.70833,4
9.71667,4
9.72500,4
9.73333,4
9.74167,5
9.75000,5
9.75833,5
9.76667,6
9.77500,5
9.78333,5
9.79167,5
9.80000,5
9.80833,4
9.81667,4
9.82500,4
9.83333,4
9.84167,4
9.85000,5
9.85833,5
9.86667,5
9.87500,5
9.88333,5
9.89167,5
9.90000,5
9.90833,5
9.91667,4
9.92500,4
9.93333,4
9.94167,5
9.95000,4
9.95833,4
9.96667,4
9.97500,4
9.98333,5
9.99167,5
10.00000,5
10.00833,5
10.01667,5
10.02500,4
10.03333,4
10.04167,4
10.05000,4
10.05833,4
10.06667,4
10.07500,4
10.08333,4
10.09167,4
10.10000,4
10.10833,4
10.11667,4
10.12500,4
10.13333,4
10.14167,4
10.15000,3
10.15833,3
10.16667,3
10.17500,3
10.18333,3
10.19167,3
10.20000,3
10.20833,3
10.21667,3
10.22500,3
10.23333,3
10.24167,3
10.25000,3
10.25833,3
10.26667,3
10.27500,4
10.28333,4
10.29167,4
10.30000,3
10.30833,3
10.31667,3
10.32500,3
10.33333,3
10.34167,3
10.35000,3
10.35833,3
10.36667,3
10.37500,3
10.38333,3
10.39167,2
10.40000,2
10.40833,2
10.41667,1
10.42500,1
10.43333,0
10.44167,-1
10.45000,-2
10.45833,-4
10.46667,-7
10.47500,-11
10.48333,-16
10.49167,-23
10.50000,-31
10.50833,-42
10.51667,-56
10.52500,-73
10.53333,-94
10.54167,-121
10.55000,-152
10.55833,-189
10.56667,-234
10.57500,-286
10.58333,-346
10.59167,-413
10.60000,-490
10.60833,-576
10.61667,-671
10.62500,-776
10.63333,-890
10.64167,-1012
10.65000,-1143
10.65833,-1280
10.66667,-1425
10.67500,-1575
10.68333,-1729
10.69167,-1887
10.70000,-2047
10.70833,-2208
10.71667,-2369
10.72500,-2528
10.73333,-2685
10.74167,-2839
10.75000,-2988
10.75833,-3133
10.76667,-3272
10.77500,-3404
10.78333,-3529
10.79167,-3647
10.80000,-3757
10.80833,-3858
10.81667,-3951
10.82500,-4035
10.83333,-4109
10.84167,-4174
10.85000,-4229
10.85833,-4274
10.86667,-4309
10.87500,-4334
10.88333,-4348
10.89167,-4352
10.90000,-4346
10.90833,-4330
10.91667,-4304
10.92500,-4268
10.93333,-4223
10.94167,-4169
10.95000,-4106
10.95833,-4035
10.96667,-3957
10.97500,-3872
10.98333,-3780
10.99167,-3684
11.00000,-3583
11.00833,-3479
11.01667,-3371
11.02500,-3260
11.03333,-3147
11.04167,-3033
11.05000,-2918
11.05833,-2803
11.06667,-2689
11.07500,-2575
11.08333,-2463
11.09167,-2352
11.10000,-2244
11.10833,-2138
11.11667,-2035
11.12500,-1936
11.13333,-1839
11.14167,-1745
11.15000,-1655
11.15833,-1569
11.16667,-1485
11.17500,-1405
11.18333,-1329
11.19167,-1256
11.20000,-1187
11.20833,-1121
11.21667,-1058
11.22500,-999
11.23333,-943
11.24167,-889
11.25000,-839
11.25833,-791
11.26667,-745
11.27500,-703
11.28333,-662
11.29167,-624
11.30000,-588
11.30833,-554
11.31667,-522
11.32500,-492
11.33333,-464
11.34167,-437
11.35000,-412
11.35833,-388
11.36667,-366
11.37500,-345
11.38333,-325
11.39167,-307
11.40000,-290
11.40833,-274
11.41667,-259
11.42500,-245
11.43333,-231
11.44167,-218
11.45000,-207
11.45833,-196
11.46667,-186
11.47500,-176
11.48333,-167
11.49167,-158
11.50000,-150
11.50833,-142
11.51667,-135
11.52500,-129
11.53333,-123
11.54167,-117
11.55000,-111
11.55833,-106
11.56667,-101
11.57500,-96
11.58333,-92
11.59167,-87
11.60000,-83
11.60833,-80
11.61667,-76
11.62500,-73
11.63333,-70
11.64167,-67
11.65000,-64
11.65833,-61
11.66667,-58
11.67500,-56
11.68333,-54
11.69167,-53
11.70000,-51
11.70833,-49
11.71667,-48
11.72500,-46
11.73333,-45
11.74167,-43
11.75000,-42
11.75833,-41
11.76667,-39
11.77500,-38
11.78333,-37
11.79167,-36
11.80000,-35
11.80833,-34
11.81667,-33
11.82500,-32
11.83333,-31
11.84167,-31
11.85000,-30
11.85833,-29
11.86667,-28
11.87500,-27
11.88333,-27
11.89167,-26
11.90000,-26
11.90833,-26
11.91667,-25
11.92500,-25
11.93333,-24
11.94167,-24
11.95000,-23
11.95833,-23
11.96667,-22
11.97500,-22
11.98333,-21
11.99167,-21
12.00000,-21
12.00833,-21
12.01667,-20
12.02500,-20
12.03333,-19
12.04167,-19
12.05000,-19
12.05833,-19
12.06667,-19
12.07500,-19
12.08333,-18
12.09167,-18
12.10000,-18
12.10833,-17
12.11667,-17
12.12500,-17
12.13333,-17
12.14167,-17
12.15000,-16
12.15833,-16
12.16667,-16
12.17500,-16
12.18333,-16
12.19167,-16
12.20000,-16
12.20833,-16
12.21667,-15
12.22500,-15
12.23333,-15
12.24167,-15
12.25000,-15
12.25833,-15
12.26667,-15
12.27500,-15
12.28333,-15
12.29167,-14
12.30000,-14
12.30833,-14
12.31667,-14
12.32500,-14
12.33333,-13
12.34167,-13
12.35000,-13
12.35833,-13
12.36667,-13
12.37500,-12
12.38333,-13
12.39167,-12
12.40000,-12
12.40833,-12
12.41667,-11
12.42500,-11
12.43333,-12
12.44167,-12
12.45000,-12
12.45833,-12
12.46667,-11
12.47500,-11
12.48333,-11
12.49167,-11
12.50000,-10
12.50833,-10
12.51667,-10
12.52500,-9
12.53333,-10
12.54167,-9
12.55000,-10
12.55833,-9
12.56667,-9
12.57500,-9
12.58333,-9
12.59167,-9
12.60000,-9
12.60833,-9
12.61667,-9
12.62500,-9
12.63333,-8
12.64167,-8
12.65000,-9
12.65833,-9
12.66667,-9
12.67500,-8
12.68333,-8
12.69167,-8
12.70000,-8
12.70833,-8
12.71667,-8
12.72500,-8
12.73333,-8
12.74167,-8
12.75000,-8
12.75833,-8
12.76667,-8
12.77500,-8
12.78333,-8
12.79167,-8
12.80000,-8
12.80833,-8
12.81667,-7
12.82500,-7
12.83333,-6
12.84167,-6
12.85000,-6
12.85833,-6
12.86667,-6
12.87500,-6
12.88333,-6
12.89167,-6
12.90000,-6
12.90833,-6
12.91667,-6
12.92500,-6
12.93333,-6
12.94167,-6
12.95000,-6
12.95833,-6
12.96667,-6
12.97500,-6
12.98333,-6
12.99167,-6
13.00000,-6
13.00833,-6
13.01667,-5
13.02500,-5
13.03333,-6
13.04167,-6
13.05000,-5
13.05833,-5
13.06667,-5
13.07500,-5
13.08333,-5
13.09167,-5
13.10000,-5
13.10833,-5
13.11667,-4
13.12500,-4
13.13333,-4
13.14167,-3
13.15000,-3
13.15833,-3
13.16667,-3
13.17500,-3
13.18333,-3
13.19167,-3
13.20000,-3
13.20833,-3
13.21667,-4
13.22500,-4
13.23333,-4
13.24167,-4
13.25000,-4
13.25833,-4
13.26667,-4
13.27500,-4
13.28333,-4
13.29167,-4
13.30000,-4
13.30833,-4
13.31667,-4
13.32500,-4
13.33333,-3
13.34167,-3
13.35000,-3
13.35833,-3
13.36667,-4
13.37500,-4
13.38333,-4
13.39167,-4
13.40000,-4
13.40833,-3
13.41667,-3
13.42500,-3
13.43333,-3
13.44167,-3
13.45000,-3
13.45833,-3
13.46667,-3
13.47500,-3
13.48333,-3
13.49167,-3
13.50000,-3
13.50833,-3
13.51667,-3
13.52500,-3
13.53333,-3
13.54167,-2
13.55000,-2
13.55833,-2
13.56667,-3
13.57500,-2
13.58333,-2
13.59167,-2
13.60000,-2
13.60833,-2
13.61667,-2
13.62500,-2
13.63333,-2
13.64167,-3
13.65000,-3
13.65833,-3
13.66667,-3
13.67500,-2
13.68333,-2
13.69167,-2
13.70000,-2
13.70833,-2
13.71667,-2
13.72500,-2
13.73333,-2
13.74167,-2
13.75000,-2
13.75833,-1
13.76667,-1
13.77500,-1
13.78333,-2
13.79167,-1
13.80000,-1
13.80833,-1
13.81667,-1
13.82500,-1
13.83333,-1
13.84167,-1
13.85000,-1
13.85833,-1
13.86667,-1
13.87500,-1
13.88333,-1
13.89167,-1
13.90000,-0
13.90833,-0
13.91667,-0
13.92500,-0
13.93333,-0
13.94167,-0
13.95000,-0
13.95833,-0
13.96667,-0
13.97500,-0
13.98333,-0
13.99167,-0
14.00000,-0
14.00833,-0
14.01667,-0
14.02500,-0
14.03333,-0
14.04167,-0
14.05000,-0
14.05833,-0
14.06667,0
14.07500,0
14.08333,0
14.09167,1
14.10000,1
14.10833,1
14.11667,1
14.12500,1
14.13333,1
14.14167,1
14.15000,1
14.15833,1
14.16667,0
14.17500,0
14.18333,-0
14.19167,-0
14.20000,-0
14.20833,0
14.21667,0
14.22500,0
14.23333,0
14.24167,0
14.25000,0
14.25833,0
14.26667,0
14.27500,0
14.28333,0
14.29167,0
14.30000,0
14.30833,0
14.31667,1
14.32500,1
14.33333,1
14.34167,1
14.35000,1
14.35833,1
14.36667,1
14.37500,1
14.38333,1
14.39167,1
14.40000,1
14.40833,1
14.41667,1
14.42500,1
14.43333,1
14.44167,1
14.45000,1
14.45833,1
14.46667,1
14.47500,1
14.48333,1
14.49167,1
14.50000,1
14.50833,1
14.51667,1
14.52500,1
14.53333,1
14.54167,1
14.55000,1
14.55833,1
14.56667,1
14.57500,1
14.58333,1
14.59167,1
14.60000,1
14.60833,1
14.61667,1
14.62500,1
14.63333,2
14.64167,1
14.65000,1
14.65833,1
14.66667,2
14.67500,2
14.68333,1
14.69167,1
14.70000,1
14.70833,1
14.71667,1
14.72500,2
14.73333,2
14.74167,2
14.75000,2
14.75833,2
14.76667,2
14.77500,2
14.78333,2
14.79167,2
14.80000,2
14.80833,2
14.81667,3
14.82500,3
14.83333,3
14.84167,3
14.85000,3
14.85833,3
14.86667,2
14.87500,2
14.88333,2
14.89167,2
14.90000,2
14.90833,2
14.91667,2
14.92500,2
14.93333,2
14.94167,2
14.95000,1
14.95833,2
14.96667,2
14.97500,2
14.98333,2
14.99167,2
15.00000,2
15.00833,2
15.01667,2
15.02500,2
15.03333,2
15.04167,2
15.05000,2
15.05833,2
15.06667,2
15.07500,2
15.08333,2
15.09167,2
15.10000,2
15.10833,2
15.11667,2
15.12500,2
15.13333,2
15.14167,2
15.15000,2
15.15833,2
15.16667,2
15.17500,2
15.18333,2
15.19167,2
15.20000,2
15.20833,2
15.21667,2
15.22500,2
15.23333,2
15.24167,1
15.25000,1
15.25833,1
15.26667,1
15.27500,1
15.28333,1
15.29167,1
15.30000,1
15.30833,1
15.31667,2
15.32500,2
15.33333,2
15.34167,1
15.35000,1
15.35833,1
15.36667,1
15.37500,1
15.38333,1
15.39167,1
15.40000,2
15.40833,2
15.41667,2
15.42500,2
15.43333,2
15.44167,2
15.45000,2
15.45833,2
15.46667,1
15.47500,1
15.48333,2
15.49167,2
15.50000,2
15.50833,2
15.51667,2
15.52500,2
15.53333,1
15.54167,1
15.55000,2
15.55833,2
15.56667,2
15.57500,2
15.58333,3
15.59167,3
15.60000,3
15.60833,3
15.61667,3
15.62500,3
15.63333,3
15.64167,3
15.65000,3
15.65833,3
15.66667,2
15.67500,2
15.68333,2
15.69167,2
15.70000,2
15.70833,2
15.71667,2
15.72500,2
15.73333,2
15.74167,2
15.75000,2
15.75833,2
15.76667,2
15.77500,2
15.78333,1
15.79167,1
15.80000,2
15.80833,2
15.81667,2
15.82500,2
15.83333,2
15.84167,2
15.85000,2
15.85833,2
15.86667,2
15.87500,2
15.88333,3
15.89167,3
15.90000,2
15.90833,2
15.91667,2
15.92500,2
15.93333,2
15.94167,2
15.95000,3
15.95833,3
15.96667,3
15.97500,3
15.98333,3
15.99167,3
16.00000,2
16.00833,2
16.01667,2
16.02500,2
16.03333,2
16.04167,2
16.05000,2
16.05833,2
16.06667,3
16.07500,3
16.08333,3
16.09167,3
16.10000,3
16.10833,3
16.11667,3
16.12500,3
16.13333,2
16.14167,2
16.15000,3
16.15833,3
16.16667,3
16.17500,3
16.18333,3
16.19167,3
16.20000,3
16.20833,3
16.21667,3
16.22500,2
16.23333,2
16.24167,2
16.25000,2
16.25833,2
16.26667,2
16.27500,2
16.28333,2
16.29167,2
16.30000,2
16.30833,2
16.31667,2
16.32500,2
16.33333,2
16.34167,2
16.35000,2
16.35833,2
16.36667,2
16.37500,2
16.38333,2
16.39167,2
16.40000,2
16.40833,2
16.41667,2
16.42500,2
16.43333,2
16.44167,2
16.45000,2
16.45833,2
16.46667,2
16.47500,2
16.48333,2
16.49167,2
16.50000,3
16.50833,3
16.51667,3
16.52500,4
16.53333,4
16.54167,4
16.55000,4
16.55833,4
16.56667,4
16.57500,4
16.58333,4
16.59167,4
16.60000,4
16.60833,4
16.61667,4
16.62500,4
16.63333,4
16.64167,4
16.65000,3
16.65833,3
16.66667,3
16.67500,3
16.68333,3
16.69167,3
16.70000,3
16.70833,3
16.71667,3
16.72500,3
16.73333,2
16.74167,2
16.75000,3
16.75833,3
16.76667,3
16.77500,2
16.78333,2
16.79167,2
16.80000,2
16.80833,2
16.81667,2
16.82500,2
16.83333,2
16.84167,2
16.85000,2
16.85833,3
16.86667,3
16.87500,3
16.88333,3
16.89167,3
16.90000,2
16.90833,2
16.91667,2
16.92500,2
16.93333,2
16.94167,2
16.95000,2
16.95833,2
16.96667,2
16.97500,2
16.98333,2
16.99167,3
17.00000,3
17.00833,3
17.01667,3
17.02500,4
17.03333,4
17.04167,4
17.05000,4
17.05833,4
17.06667,5
17.07500,4
17.08333,4
17.09167,3
17.10000,3
17.10833,3
17.11667,3
17.12500,3
17.13333,3
17.14167,3
17.15000,3
17.15833,4
17.16667,3
17.17500,3
17.18333,3
17.19167,3
17.20000,3
17.20833,3
17.21667,4
17.22500,4
17.23333,4
17.24167,4
17.25000,4
17.25833,4
17.26667,4
17.27500,4
17.28333,4
17.29167,4
17.30000,3
17.30833,3
17.31667,3
17.32500,4
17.33333,4
17.34167,4
17.35000,4
17.35833,4
17.36667,4
17.37500,4
17.38333,4
17.39167,4
17.40000,4
17.40833,4
17.41667,4
17.42500,4
17.43333,4
17.44167,4
17.45000,4
17.45833,4
17.46667,4
17.47500,4
17.48333,4
17.49167,4
17.50000,4
17.50833,4
17.51667,3
17.52500,3
17.53333,3
17.54167,3
17.55000,4
17.55833,3
17.56667,3
17.57500,3
17.58333,3
17.59167,3
17.60000,3
17.60833,3
17.61667,3
17.62500,3
17.63333,3
17.64167,3
17.65000,3
17.65833,3
17.66667,3
17.67500,4
17.68333,4
17.69167,4
17.70000,4
17.70833,4
17.71667,4
17.72500,4
17.73333,4
17.74167,4
17.75000,4
17.75833,4
17.76667,3
17.77500,4
17.78333,4
17.79167,4
17.80000,4
17.80833,4
17.81667,4
17.82500,5
17.83333,4
17.84167,4
17.85000,4
17.85833,4
17.86667,3
17.87500,3
17.88333,3
17.89167,3
17.90000,3
17.90833,3
17.91667,4
17.92500,4
17.93333,4
17.94167,4
17.95000,4
17.95833,4
17.96667,4
17.97500,4
17.98333,4
17.99167,4
18.00000,4
18.00833,4
18.01667,4
18.02500,4
18.03333,4
18.04167,4
18.05000,5
18.05833,5
18.06667,4
18.07500,4
18.08333,4
18.09167,5
18.10000,5
18.10833,5
18.11667,5
18.12500,5
18.13333,5
18.14167,5
18.15000,5
18.15833,6
18.16667,6
18.17500,6
18.18333,7
18.19167,7
18.20000,8
18.20833,8
18.21667,9
18.22500,11
18.23333,12
18.24167,13
18.25000,14
18.25833,15
18.26667,17
18.27500,18
18.28333,20
18.29167,22
18.30000,24
18.30833,27
18.31667,29
18.32500,32
18.33333,34
18.34167,37
18.35000,41
18.35833,45
18.36667,48
18.37500,52
18.38333,56
18.39167,60
18.40000,64
18.40833,69
18.41667,73
18.42500,78
18.43333,83
18.44167,88
18.45000,94
18.45833,99
18.46667,104
18.47500,109
18.48333,115
18.49167,121
18.50000,126
18.50833,132
18.51667,137
18.52500,142
18.53333,147
18.54167,152
18.55000,158
18.55833,163
18.56667,168
18.57500,173
18.58333,177
18.59167,182
18.60000,186
18.60833,189
18.61667,193
18.62500,197
18.63333,201
18.64167,204
18.65000,208
18.65833,211
18.66667,214
18.67500,216
18.68333,219
18.69167,222
18.70000,224
18.70833,227
18.71667,229
18.72500,231
18.73333,232
18.74167,234
18.75000,235
18.75833,236
18.76667,236
18.77500,237
18.78333,237
18.79167,238
18.80000,238
18.80833,239
18.81667,239
18.82500,239
18.83333,238
18.84167,238
18.85000,238
18.85833,237
18.86667,236
18.87500,235
18.88333,234
18.89167,232
18.90000,231
18.90833,229
18.91667,227
18.92500,225
18.93333,223
18.94167,220
18.95000,218
18.95833,216
18.96667,213
18.97500,210
18.98333,207
18.99167,204
19.00000,201
19.00833,198
19.01667,195
19.02500,192
19.03333,188
19.04167,185
19.05000,181
19.05833,177
19.06667,174
19.07500,170
19.08333,167
19.09167,163
19.10000,160
19.10833,157
19.11667,154
19.12500,151
19.13333,148
19.14167,145
19.15000,143
19.15833,141
19.16667,139
19.17500,137
19.18333,136
19.19167,134
19.20000,133
19.20833,132
19.21667,132
19.22500,131
19.23333,131
19.24167,131
19.25000,132
19.25833,133
19.26667,135
19.27500,136
19.28333,138
19.29167,141
19.30000,143
19.30833,146
19.31667,149
19.32500,152
19.33333,156
19.34167,160
19.35000,164
19.35833,168
19.36667,172
19.37500,177
19.38333,182
19.39167,186
19.40000,191
19.40833,195
19.41667,200
19.42500,205
19.43333,210
19.44167,215
19.45000,220
19.45833,225
19.46667,230
19.47500,235
19.48333,240
19.49167,244
19.50000,249
19.50833,253
19.51667,257
19.52500,261
19.53333,265
19.54167,269
19.55000,273
19.55833,276
19.56667,280
19.57500,283
19.58333,286
19.59167,289
19.60000,291
19.60833,294
19.61667,296
19.62500,298
19.63333,300
19.64167,302
19.65000,303
19.65833,304
19.66667,305
19.67500,306
19.68333,307
19.69167,308
19.70000,309
19.70833,309
19.71667,309
19.72500,309
19.73333,309
19.74167,308
19.75000,308
19.75833,307
19.76667,306
19.77500,305
19.78333,304
19.79167,303
19.80000,302
19.80833,300
19.81667,298
19.82500,296
19.83333,294
19.84167,291
19.85000,289
19.85833,286
19.86667,283
19.87500,280
19.88333,277
19.89167,273
19.90000,269
19.90833,266
19.91667,262
19.92500,258
19.93333,254
19.94167,250
19.95000,246
19.95833,242
19.96667,237
19.97500,233
19.98333,229
19.99167,224
20.00000,220
20.00833,215
20.01667,211
20.02500,206
20.03333,202
20.04167,197
20.05000,193
20.05833,188
20.06667,184
20.07500,180
20.08333,175
20.09167,171
20.10000,167
20.10833,163
20.11667,159
20.12500,156
20.13333,152
20.14167,149
20.15000,145
20.15833,141
20.16667,137
20.17500,134
20.18333,131
20.19167,128
20.20000,126
20.20833,124
20.21667,121
20.22500,118
20.23333,116
20.24167,114
20.25000,112
20.25833,109
20.26667,107
20.27500,106
20.28333,104
20.29167,103
20.30000,101
20.30833,100
20.31667,98
20.32500,97
20.33333,96
20.34167,94
20.35000,93
20.35833,93
20.36667,92
20.37500,91
20.38333,90
20.39167,90
20.40000,89
20.40833,89
20.41667,88
20.42500,88
20.43333,88
20.44167,88
20.45000,87
20.45833,87
20.46667,86
20.47500,86
20.48333,85
20.49167,85
20.50000,85
20.50833,85
20.51667,85
20.52500,85
20.53333,85
20.54167,85
20.55000,85
20.55833,84
20.56667,84
20.57500,84
20.58333,84
20.59167,85
20.60000,85
20.60833,85
20.61667,85
20.62500,85
20.63333,86
20.64167,87
20.65000,88
20.65833,88
20.66667,89
20.67500,90
20.68333,92
20.69167,93
20.70000,95
20.70833,96
20.71667,98
20.72500,100
20.73333,103
20.74167,106
20.75000,110
20.75833,114
20.76667,118
20.77500,123
20.78333,128
20.79167,134
20.80000,142
20.80833,150
20.81667,159
20.82500,168
20.83333,179
20.84167,191
20.85000,204
20.85833,218
20.86667,233
20.87500,250
20.88333,268
20.89167,286
20.90000,306
20.90833,326
20.91667,348
20.92500,372
20.93333,397
20.94167,423
20.95000,450
20.95833,478
20.96667,508
20.97500,538
20.98333,569
20.99167,600
21.00000,633
21.00833,666
21.01667,699
21.02500,733
21.03333,768
21.04167,802
21.05000,836
21.05833,870
21.06667,903
21.07500,936
21.08333,969
21.09167,1002
21.10000,1034
21.10833,1064
21.11667,1094
21.12500,1123
21.13333,1152
21.14167,1180
21.15000,1206
21.15833,1231
21.16667,1254
21.17500,1277
21.18333,1298
21.19167,1319
21.20000,1338
21.20833,1356
21.21667,1373
21.22500,1389
21.23333,1404
21.24167,1418
21.25000,1431
21.25833,1443
21.26667,1455
21.27500,1465
21.28333,1475
21.29167,1484
21.30000,1492
21.30833,1499
21.31667,1506
21.32500,1512
21.33333,1518
21.34167,1523
21.35000,1527
21.35833,1529
21.36667,1531
21.37500,1532
21.38333,1532
21.39167,1532
21.40000,1530
21.40833,1528
21.41667,1525
21.42500,1522
21.43333,1517
21.44167,1511
21.45000,1504
21.45833,1495
21.46667,1486
21.47500,1476
21.48333,1464
21.49167,1451
21.50000,1437
21.50833,1422
21.51667,1406
21.52500,1388
21.53333,1369
21.54167,1349
21.55000,1329
21.55833,1307
21.56667,1284
21.57500,1261
21.58333,1236
21.59167,1210
21.60000,1184
21.60833,1157
21.61667,1129
21.62500,1101
21.63333,1072
21.64167,1043
21.65000,1013
21.65833,982
21.66667,952
21.67500,922
21.68333,891
21.69167,861
21.70000,831
21.70833,801
21.71667,772
21.72500,742
21.73333,713
21.74167,685
21.75000,657
21.75833,629
21.76667,603
21.77500,576
21.78333,551
21.79167,526
21.80000,502
21.80833,478
21.81667,455
21.82500,433
21.83333,412
21.84167,392
21.85000,371
21.85833,352
21.86667,334
21.87500,316
21.88333,299
21.89167,283
21.90000,268
21.90833,254
21.91667,240
21.92500,228
21.93333,215
21.94167,203
21.95000,192
21.95833,181
21.96667,171
21.97500,161
21.98333,152
21.99167,144
22.00000,136
22.00833,129
22.01667,123
22.02500,116
22.03333,110
22.04167,105
22.05000,100
22.05833,95
22.06667,90
22.07500,86
22.08333,82
22.09167,77
22.10000,73
22.10833,70
22.11667,66
22.12500,63
22.13333,61
22.14167,59
22.15000,57
22.15833,55
22.16667,52
22.17500,50
22.18333,49
22.19167,48
22.20000,46
22.20833,45
22.21667,43
22.22500,42
22.23333,40
22.24167,39
22.25000,38
22.25833,37
22.26667,35
22.27500,35
22.28333,34
22.29167,33
22.30000,32
22.30833,32
22.31667,31
22.32500,31
22.33333,31
22.34167,30
22.35000,30
22.35833,30
22.36667,29
22.37500,29
22.38333,28
22.39167,28
22.40000,28
22.40833,28
22.41667,27
22.42500,27
22.43333,26
22.44167,26
22.45000,26
22.45833,26
22.46667,26
22.47500,25
22.48333,25
22.49167,24
22.50000,24
22.50833,24
22.51667,24
22.52500,24
22.53333,23
22.54167,23
22.55000,23
22.55833,23
22.56667,23
22.57500,23
22.58333,23
22.59167,23
22.60000,23
22.60833,23
22.61667,23
22.62500,22
22.63333,22
22.64167,22
22.65000,21
22.65833,21
22.66667,21
22.67500,21
22.68333,21
22.69167,21
22.70000,21
22.70833,21
22.71667,21
22.72500,21
22.73333,21
22.74167,20
22.75000,20
22.75833,20
22.76667,20
22.77500,20
22.78333,20
22.79167,20
22.80000,20
22.80833,20
22.81667,19
22.82500,19
22.83333,19
22.84167,18
22.85000,18
22.85833,19
22.86667,19
22.87500,19
22.88333,19
22.89167,19
22.90000,18
22.90833,18
22.91667,17
22.92500,17
22.93333,17
22.94167,17
22.95000,18
22.95833,18
22.96667,18
22.97500,17
22.98333,17
22.99167,17
23.00000,16
23.00833,16
23.01667,16
23.02500,16
23.03333,16
23.04167,16
23.05000,16
23.05833,16
23.06667,15
23.07500,15
23.08333,15
23.09167,15
23.10000,15
23.10833,15
23.11667,15
23.12500,15
23.13333,15
23.14167,14
23.15000,14
23.15833,14
23.16667,15
23.17500,15
23.18333,15
23.19167,14
23.20000,14
23.20833,14
23.21667,14
23.22500,14
23.23333,14
23.24167,14
23.25000,15
23.25833,15
23.26667,14
23.27500,14
23.28333,14
23.29167,14
23.30000,14
23.30833,14
23.31667,13
23.32500,13
23.33333,13
23.34167,13
23.35000,13
23.35833,13
23.36667,14
23.37500,14
23.38333,13
23.39167,13
23.40000,13
23.40833,12
23.41667,12
23.42500,12
23.43333,12
23.44167,12
23.45000,12
23.45833,12
23.46667,12
23.47500,12
23.48333,12
23.49167,12
23.50000,13
23.50833,13
23.51667,13
23.52500,12
23.53333,12
23.54167,12
23.55000,12
23.55833,11
23.56667,11
23.57500,11
23.58333,11
23.59167,11
23.60000,10
23.60833,10
23.61667,10
23.62500,10
23.63333,10
23.64167,10
23.65000,10
23.65833,10
23.66667,11
23.67500,11
23.68333,11
23.69167,11
23.70000,11
23.70833,11
23.71667,11
23.72500,10
23.73333,11
23.74167,11
23.75000,11
23.75833,11
23.76667,11
23.77500,11
23.78333,11
23.79167,11
23.80000,11
23.80833,11
23.81667,11
23.82500,11
23.83333,11
23.84167,10
23.85000,10
23.85833,10
23.86667,10
23.87500,10
23.88333,10
23.89167,10
23.90000,10
23.90833,11
23.91667,11
23.92500,11
23.93333,11
23.94167,11
23.95000,10
23.95833,10
23.96667,10
23.97500,10
23.98333,10
23.99167,10
24.00000,9
24.00833,9
24.01667,9
24.02500,10
24.03333,10
24.04167,9
24.05000,9
24.05833,9
24.06667,9
24.07500,9
24.08333,9
24.09167,9
24.10000,9
24.10833,9
24.11667,9
24.12500,8
24.13333,8
24.14167,8
24.15000,8
24.15833,8
24.16667,8
24.17500,8
24.18333,8
24.19167,8
24.20000,8
24.20833,8
24.21667,8
24.22500,8
24.23333,9
24.24167,9
24.25000,9
24.25833,9
24.26667,9
24.27500,9
24.28333,8
24.29167,8
24.30000,8
24.30833,8
24.31667,8
24.32500,8
24.33333,9
24.34167,9
24.35000,9
24.35833,9
24.36667,9
24.37500,9
24.38333,9
24.39167,9
24.40000,9
24.40833,9
24.41667,9
24.42500,9
24.43333,9
24.44167,9
24.45000,9
24.45833,9
24.46667,10
24.47500,10
24.48333,10
24.49167,10
24.50000,10
24.50833,10
24.51667,9
24.52500,9
24.53333,9
24.54167,9
24.55000,10
24.55833,10
24.56667,10
24.57500,10
24.58333,10
24.59167,10
24.60000,10
24.60833,10
24.61667,10
24.62500,10
24.63333,10
24.64167,10
24.65000,10
24.65833,10
24.66667,10
24.67500,10
24.68333,10
24.69167,10
24.70000,10
24.70833,10
24.71667,10
24.72500,10
24.73333,10
24.74167,10
24.75000,10
24.75833,10
24.76667,10
24.77500,10
24.78333,10
24.79167,10
24.80000,10
24.80833,10
24.81667,10
24.82500,10
24.83333,10
24.84167,10
24.85000,10
24.85833,10
24.86667,10
24.87500,10
24.88333,10
24.89167,10
24.90000,10
24.90833,11
24.91667,11
24.92500,11
24.93333,11
24.94167,11
24.95000,11
24.95833,11
24.96667,11
24.97500,11
24.98333,10
24.99167,10
25.00000,10
25.00833,10
25.01667,10
25.02500,10
25.03333,10
25.04167,10
25.05000,10
25.05833,10
25.06667,9
25.07500,9
25.08333,9
25.09167,9
25.10000,9
25.10833,9
25.11667,9
25.12500,9
25.13333,9
25.14167,9
25.15000,9
25.15833,9
25.16667,9
25.17500,9
25.18333,9
25.19167,9
25.20000,9
25.20833,9
25.21667,9
25.22500,9
25.23333,9
25.24167,9
25.25000,9
25.25833,8
25.26667,8
25.27500,8
25.28333,8
25.29167,8
25.30000,8
25.30833,8
25.31667,8
25.32500,8
25.33333,7
25.34167,7
25.35000,7
25.35833,7
25.36667,7
25.37500,7
25.38333,7
25.39167,7
25.40000,7
25.40833,6
25.41667,6
25.42500,6
25.43333,5
25.44167,6
25.45000,6
25.45833,6
25.46667,6
25.47500,6
25.48333,6
25.49167,6
25.50000,6
25.50833,6
25.51667,6
25.52500,6
25.53333,6
25.54167,6
25.55000,6
25.55833,6
25.56667,6
25.57500,6
25.58333,6
25.59167,6
25.60000,6
25.60833,6
25.61667,6
25.62500,6
25.63333,6
25.64167,5
25.65000,5
25.65833,6
25.66667,6
25.67500,6
25.68333,6
25.69167,6
25.70000,6
25.70833,6
25.71667,6
25.72500,6
25.73333,6
25.74167,5
25.75000,5
25.75833,6
25.76667,6
25.77500,6
25.78333,6
25.79167,6
25.80000,6
25.80833,6
25.81667,6
25.82500,7
25.83333,7
25.84167,7
25.85000,7
25.85833,7
25.86667,7
25.87500,7
25.88333,7
25.89167,6
25.90000,6
25.90833,6
25.91667,6
25.92500,6
25.93333,7
25.94167,7
25.95000,7
25.95833,7
25.96667,7
25.97500,7
25.98333,7
25.99167,7
26.00000,7
26.00833,6
26.01667,6
26.02500,6
26.03333,6
26.04167,6
26.05000,6
26.05833,6
26.06667,6
26.07500,6
26.08333,6
26.09167,6
26.10000,6
26.10833,7
26.11667,6
26.12500,6
26.13333,6
26.14167,6
26.15000,6
26.15833,6
26.16667,7
26.17500,7
26.18333,7
26.19167,7
26.20000,7
26.20833,7
26.21667,7
26.22500,6
26.23333,6
26.24167,7
26.25000,7
26.25833,7
26.26667,7
26.27500,7
26.28333,7
26.29167,7
26.30000,7
26.30833,7
26.31667,7
26.32500,7
26.33333,6
26.34167,6
26.35000,6
26.35833,6
26.36667,6
26.37500,6
26.38333,6
26.39167,6
26.40000,7
26.40833,7
26.41667,7
26.42500,8
26.43333,8
26.44167,8
26.45000,8
26.45833,8
26.46667,8
26.47500,8
26.48333,8
26.49167,7
26.50000,7
26.50833,7
26.51667,7
26.52500,7
26.53333,7
26.54167,7
26.55000,7
26.55833,7
26.56667,7
26.57500,7
26.58333,7
26.59167,6
26.60000,6
26.60833,6
26.61667,6
26.62500,6
26.63333,6
26.64167,6
26.65000,6
26.65833,6
26.66667,6
26.67500,6
26.68333,6
26.69167,6
26.70000,5
26.70833,5
26.71667,4
26.72500,4
26.73333,3
26.74167,2
26.75000,2
26.75833,2
26.76667,1
26.77500,1
26.78333,-0
26.79167,-1
26.80000,-1
26.80833,-2
26.81667,-3
26.82500,-3
26.83333,-4
26.84167,-5
26.85000,-6
26.85833,-7
26.86667,-8
26.87500,-10
26.88333,-10
26.89167,-12
26.90000,-13
26.90833,-14
26.91667,-15
26.92500,-17
26.93333,-18
26.94167,-20
26.95000,-21
26.95833,-23
26.96667,-24
26.97500,-26
26.98333,-28
26.99167,-29
27.00000,-31
27.00833,-32
27.01667,-34
27.02500,-36
27.03333,-38
27.04167,-40
27.05000,-42
27.05833,-43
27.06667,-45
27.07500,-47
27.08333,-49
27.09167,-50
27.10000,-52
27.10833,-54
27.11667,-56
27.12500,-58
27.13333,-61
27.14167,-63
27.15000,-65
27.15833,-67
27.16667,-69
27.17500,-71
27.18333,-73
27.19167,-75
27.20000,-77
27.20833,-79
27.21667,-81
27.22500,-83
27.23333,-85
27.24167,-86
27.25000,-88
27.25833,-90
27.26667,-91
27.27500,-93
27.28333,-94
27.29167,-95
27.30000,-97
27.30833,-99
27.31667,-100
27.32500,-102
27.33333,-103
27.34167,-105
27.35000,-106
27.35833,-107
27.36667,-108
27.37500,-109
27.38333,-110
27.39167,-111
27.40000,-112
27.40833,-113
27.41667,-114
27.42500,-114
27.43333,-115
27.44167,-116
27.45000,-117
27.45833,-117
27.46667,-118
27.47500,-118
27.48333,-118
27.49167,-119
27.50000,-119
27.50833,-120
27.51667,-120
27.52500,-120
27.53333,-119
27.54167,-119
27.55000,-118
27.55833,-118
27.56667,-117
27.57500,-117
27.58333,-116
27.59167,-116
27.60000,-116
27.60833,-115
27.61667,-114
27.62500,-113
27.63333,-112
27.64167,-111
27.65000,-109
27.65833,-108
27.66667,-107
27.67500,-105
27.68333,-104
27.69167,-103
27.70000,-102
27.70833,-100
27.71667,-99
27.72500,-97
27.73333,-95
27.74167,-94
27.75000,-92
27.75833,-90
27.76667,-88
27.77500,-86
27.78333,-84
27.79167,-82
27.80000,-80
27.80833,-78
27.81667,-76
27.82500,-75
27.83333,-73
27.84167,-71
27.85000,-70
27.85833,-68
27.86667,-66
27.87500,-64
27.88333,-62
27.89167,-61
27.90000,-59
27.90833,-57
27.91667,-55
27.92500,-53
27.93333,-52
27.94167,-50
27.95000,-48
27.95833,-47
27.96667,-45
27.97500,-44
27.98333,-42
27.99167,-41
28.00000,-40
28.00833,-38
28.01667,-36
28.02500,-35
28.03333,-34
28.04167,-33
28.05000,-32
28.05833,-31
28.06667,-29
28.07500,-28
28.08333,-27
28.09167,-26
28.10000,-24
28.10833,-24
28.11667,-23
28.12500,-22
28.13333,-21
28.14167,-20
28.15000,-19
28.15833,-19
28.16667,-18
28.17500,-17
28.18333,-17
28.19167,-16
28.20000,-16
28.20833,-15
28.21667,-14
28.22500,-13
28.23333,-12
28.24167,-12
28.25000,-11
28.25833,-11
28.26667,-11
28.27500,-11
28.28333,-11
28.29167,-10
28.30000,-10
28.30833,-10
28.31667,-10
28.32500,-10
28.33333,-9
28.34167,-9
28.35000,-9
28.35833,-9
28.36667,-8
28.37500,-8
28.38333,-8
28.39167,-8
28.40000,-8
28.40833,-8
28.41667,-8
28.42500,-8
28.43333,-8
28.44167,-8
28.45000,-8
28.45833,-7
28.46667,-7
28.47500,-7
28.48333,-7
28.49167,-8
28.50000,-8
28.50833,-8
28.51667,-8
28.52500,-9
28.53333,-9
28.54167,-10
28.55000,-10
28.55833,-10
28.56667,-11
28.57500,-11
28.58333,-11
28.59167,-11
28.60000,-12
28.60833,-12
28.61667,-13
28.62500,-13
28.63333,-14
28.64167,-15
28.65000,-15
28.65833,-16
28.66667,-16
28.67500,-16
28.68333,-17
28.69167,-18
28.70000,-18
28.70833,-19
28.71667,-19
28.72500,-20
28.73333,-21
28.74167,-21
28.75000,-22
28.75833,-23
28.76667,-23
28.77500,-24
28.78333,-25
28.79167,-25
28.80000,-26
28.80833,-27
28.81667,-28
28.82500,-28
28.83333,-29
28.84167,-30
28.85000,-30
28.85833,-31
28.86667,-31
28.87500,-32
28.88333,-33
28.89167,-34
28.90000,-34
28.90833,-35
28.91667,-35
28.92500,-36
28.93333,-37
28.94167,-37
28.95000,-38
28.95833,-39
28.96667,-40
28.97500,-41
28.98333,-41
28.99167,-41
29.00000,-42
29.00833,-42
29.01667,-42
29.02500,-43
29.03333,-43
29.04167,-44
29.05000,-44
29.05833,-45
29.06667,-45
29.07500,-46
29.08333,-46
29.09167,-46
29.10000,-46
29.10833,-46
29.11667,-46
29.12500,-46
29.13333,-46
29.14167,-47
29.15000,-47
29.15833,-48
29.16667,-48
29.17500,-49
29.18333,-49
29.19167,-49
29.20000,-49
29.20833,-49
29.21667,-49
29.22500,-48
29.23333,-48
29.24167,-48
29.25000,-48
29.25833,-48
29.26667,-48
29.27500,-48
29.28333,-48
29.29167,-47
29.30000,-47
29.30833,-47
29.31667,-46
29.32500,-46
29.33333,-45
29.34167,-45
29.35000,-44
29.35833,-44
29.36667,-43
29.37500,-42
29.38333,-42
29.39167,-41
29.40000,-41
29.40833,-41
29.41667,-40
29.42500,-39
29.43333,-38
29.44167,-37
29.45000,-37
29.45833,-36
29.46667,-36
29.47500,-35
29.48333,-34
29.49167,-34
29.50000,-33
29.50833,-32
29.51667,-31
29.52500,-30
29.53333,-29
29.54167,-29
29.55000,-28
29.55833,-28
29.56667,-28
29.57500,-27
29.58333,-26
29.59167,-25
29.60000,-25
29.60833,-24
29.61667,-23
29.62500,-23
29.63333,-22
29.64167,-21
29.65000,-21
29.65833,-20
29.66667,-20
29.67500,-19
29.68333,-18
29.69167,-17
29.70000,-17
29.70833,-16
29.71667,-15
29.72500,-15
29.73333,-14
29.74167,-13
29.75000,-12
29.75833,-12
29.76667,-11
29.77500,-11
29.78333,-10
29.79167,-10
29.80000,-10
29.80833,-9
29.81667,-9
29.82500,-8
29.83333,-8
29.84167,-8
29.85000,-7
29.85833,-7
29.86667,-6
29.87500,-5
29.88333,-5
29.89167,-4
29.90000,-4
29.90833,-3
29.91667,-3
29.92500,-2
29.93333,-3
29.94167,-3
29.95000,-3
29.95833,-3
29.96667,-3
29.97500,-3
29.98333,-3
29.99167,-2
30.00000,-1

