[Header]
Application Name,LabSolutions
Version,5.97 SP1
Data File Name,C:\Users\cremerlab\Desktop\Richa\Aug 2nd 2023 lac suc cal in water\lac suc cal water 2.5mM_822023_001_006.lcd
Output Date,8/2/2023
Output Time,4:07:16 PM

[File Information]
Type,Data File
Generated,8/2/2023 3:36:55 PM
Generated by,System Administrator
Modified,8/2/2023 4:07:16 PM
Modified by,System Administrator

[Sample Information]
Operator Name,System Administrator
Acquired,8/2/2023 3:37:16 PM
Sample Type,1:Standard
Level,1
Sample Name,230802_lactate_10mM001
Sample ID,001
ISTD Amount1,1
ISTD Amount2,1
ISTD Amount3,1
ISTD Amount4,1
ISTD Amount5,1
ISTD Amount6,1
ISTD Amount7,1
ISTD Amount8,1
ISTD Amount9,1
ISTD Amount10,1
ISTD Amount11,1
ISTD Amount12,1
ISTD Amount13,1
ISTD Amount14,1
ISTD Amount15,1
ISTD Amount16,1
ISTD Amount17,1
ISTD Amount18,1
ISTD Amount19,1
ISTD Amount20,1
ISTD Amount21,1
ISTD Amount22,1
ISTD Amount23,1
ISTD Amount24,1
ISTD Amount25,1
ISTD Amount26,1
ISTD Amount27,1
ISTD Amount28,1
ISTD Amount29,1
ISTD Amount30,1
ISTD Amount31,1
ISTD Amount32,1
Sample Amount,1
Dilution Factor,1
Vial#,5
Injection Volume,20

[Original Files]
Data File,C:\Users\cremerlab\Desktop\Richa\Aug 2nd 2023 lac suc cal in water\lac suc cal water 2.5mM_822023_001_006.lcd
Method File,C:\Users\cremerlab\Desktop\Richa\organic_acids_excretion.lcm
Batch File,C:\Users\cremerlab\Desktop\Richa\Aug 2nd 2023 lac suc cal in water\lac suc cal water 2.5mM.lcb
Report Format File,c:\LabSolutions\System\DEFAULT.lsr

[File Description]


[Configuration]
Instrument Name,HPLC-PC-Instrument1
Instrument #,1
Line #,1
# of Detectors,2
Detector ID,Detector A,Detector B
Detector Name,Detector A,Detector B
# of Channels,1,1

[LC Chromatogram(Detector A-Ch1)]
Interval(msec),500
# of Points,3601
Start Time(min),0.000
End Time(min),30.000
Intensity Units,mV
Intensity Multiplier,0.001
Wavelength(nm),254nm
R.Time (min),Intensity
0.00000,-2
0.00833,-2
0.01667,1
0.02500,0
0.03333,-1
0.04167,-1
0.05000,-1
0.05833,-1
0.06667,-2
0.07500,-2
0.08333,-1
0.09167,-1
0.10000,-1
0.10833,-0
0.11667,0
0.12500,-1
0.13333,-1
0.14167,-1
0.15000,-1
0.15833,-1
0.16667,-1
0.17500,-0
0.18333,-0
0.19167,0
0.20000,0
0.20833,-0
0.21667,-1
0.22500,-0
0.23333,-0
0.24167,-0
0.25000,-0
0.25833,1
0.26667,1
0.27500,0
0.28333,1
0.29167,1
0.30000,1
0.30833,1
0.31667,1
0.32500,1
0.33333,0
0.34167,0
0.35000,1
0.35833,0
0.36667,-1
0.37500,-1
0.38333,-1
0.39167,-1
0.40000,-1
0.40833,-1
0.41667,-0
0.42500,0
0.43333,-0
0.44167,1
0.45000,1
0.45833,0
0.46667,1
0.47500,-0
0.48333,-1
0.49167,-1
0.50000,-0
0.50833,0
0.51667,0
0.52500,0
0.53333,-0
0.54167,-0
0.55000,-1
0.55833,-1
0.56667,-0
0.57500,0
0.58333,1
0.59167,1
0.60000,1
0.60833,0
0.61667,-0
0.62500,-0
0.63333,-1
0.64167,-1
0.65000,-1
0.65833,-1
0.66667,-0
0.67500,0
0.68333,1
0.69167,1
0.70000,1
0.70833,0
0.71667,-0
0.72500,-1
0.73333,-1
0.74167,-1
0.75000,-0
0.75833,0
0.76667,0
0.77500,0
0.78333,0
0.79167,-0
0.80000,-0
0.80833,-0
0.81667,1
0.82500,1
0.83333,1
0.84167,1
0.85000,1
0.85833,1
0.86667,0
0.87500,1
0.88333,1
0.89167,1
0.90000,0
0.90833,-1
0.91667,0
0.92500,1
0.93333,1
0.94167,1
0.95000,1
0.95833,0
0.96667,1
0.97500,1
0.98333,1
0.99167,2
1.00000,3
1.00833,2
1.01667,3
1.02500,3
1.03333,2
1.04167,1
1.05000,1
1.05833,-0
1.06667,-0
1.07500,-0
1.08333,-0
1.09167,-0
1.10000,0
1.10833,-0
1.11667,-0
1.12500,-0
1.13333,-0
1.14167,-0
1.15000,-1
1.15833,-2
1.16667,-1
1.17500,-0
1.18333,1
1.19167,1
1.20000,0
1.20833,1
1.21667,1
1.22500,2
1.23333,2
1.24167,2
1.25000,1
1.25833,0
1.26667,1
1.27500,1
1.28333,1
1.29167,1
1.30000,0
1.30833,0
1.31667,0
1.32500,0
1.33333,-0
1.34167,-1
1.35000,0
1.35833,1
1.36667,1
1.37500,0
1.38333,-0
1.39167,1
1.40000,1
1.40833,1
1.41667,1
1.42500,1
1.43333,0
1.44167,1
1.45000,0
1.45833,0
1.46667,-0
1.47500,0
1.48333,1
1.49167,1
1.50000,1
1.50833,1
1.51667,1
1.52500,1
1.53333,1
1.54167,1
1.55000,1
1.55833,2
1.56667,2
1.57500,2
1.58333,1
1.59167,-1
1.60000,-1
1.60833,-1
1.61667,-0
1.62500,-0
1.63333,-0
1.64167,-0
1.65000,0
1.65833,0
1.66667,1
1.67500,1
1.68333,0
1.69167,-0
1.70000,-0
1.70833,-0
1.71667,0
1.72500,1
1.73333,1
1.74167,1
1.75000,2
1.75833,2
1.76667,2
1.77500,2
1.78333,1
1.79167,1
1.80000,1
1.80833,1
1.81667,1
1.82500,1
1.83333,2
1.84167,3
1.85000,3
1.85833,3
1.86667,3
1.87500,3
1.88333,3
1.89167,3
1.90000,2
1.90833,1
1.91667,1
1.92500,1
1.93333,1
1.94167,1
1.95000,1
1.95833,2
1.96667,3
1.97500,2
1.98333,1
1.99167,2
2.00000,2
2.00833,1
2.01667,1
2.02500,0
2.03333,-0
2.04167,0
2.05000,1
2.05833,1
2.06667,1
2.07500,2
2.08333,1
2.09167,1
2.10000,1
2.10833,1
2.11667,1
2.12500,1
2.13333,0
2.14167,-0
2.15000,-0
2.15833,-0
2.16667,-0
2.17500,1
2.18333,2
2.19167,2
2.20000,1
2.20833,1
2.21667,1
2.22500,1
2.23333,2
2.24167,2
2.25000,2
2.25833,1
2.26667,1
2.27500,1
2.28333,2
2.29167,2
2.30000,2
2.30833,3
2.31667,3
2.32500,3
2.33333,3
2.34167,3
2.35000,3
2.35833,3
2.36667,3
2.37500,3
2.38333,3
2.39167,3
2.40000,3
2.40833,3
2.41667,2
2.42500,2
2.43333,2
2.44167,3
2.45000,3
2.45833,3
2.46667,2
2.47500,2
2.48333,2
2.49167,2
2.50000,2
2.50833,1
2.51667,1
2.52500,1
2.53333,1
2.54167,2
2.55000,2
2.55833,3
2.56667,3
2.57500,3
2.58333,2
2.59167,2
2.60000,2
2.60833,1
2.61667,2
2.62500,2
2.63333,2
2.64167,2
2.65000,0
2.65833,-1
2.66667,-2
2.67500,-1
2.68333,-1
2.69167,0
2.70000,1
2.70833,1
2.71667,2
2.72500,1
2.73333,0
2.74167,-0
2.75000,-0
2.75833,1
2.76667,0
2.77500,-1
2.78333,-2
2.79167,-0
2.80000,0
2.80833,1
2.81667,1
2.82500,1
2.83333,0
2.84167,-0
2.85000,0
2.85833,1
2.86667,1
2.87500,0
2.88333,0
2.89167,1
2.90000,1
2.90833,1
2.91667,1
2.92500,1
2.93333,-0
2.94167,-0
2.95000,0
2.95833,0
2.96667,1
2.97500,2
2.98333,2
2.99167,2
3.00000,2
3.00833,2
3.01667,1
3.02500,1
3.03333,1
3.04167,1
3.05000,1
3.05833,1
3.06667,1
3.07500,2
3.08333,2
3.09167,1
3.10000,0
3.10833,0
3.11667,0
3.12500,1
3.13333,2
3.14167,3
3.15000,2
3.15833,1
3.16667,0
3.17500,-0
3.18333,-1
3.19167,-0
3.20000,1
3.20833,1
3.21667,1
3.22500,0
3.23333,0
3.24167,0
3.25000,1
3.25833,0
3.26667,1
3.27500,2
3.28333,2
3.29167,2
3.30000,2
3.30833,2
3.31667,2
3.32500,2
3.33333,2
3.34167,2
3.35000,2
3.35833,3
3.36667,3
3.37500,3
3.38333,3
3.39167,2
3.40000,1
3.40833,1
3.41667,2
3.42500,1
3.43333,1
3.44167,2
3.45000,3
3.45833,3
3.46667,2
3.47500,2
3.48333,1
3.49167,1
3.50000,1
3.50833,2
3.51667,2
3.52500,2
3.53333,3
3.54167,3
3.55000,2
3.55833,2
3.56667,1
3.57500,2
3.58333,2
3.59167,1
3.60000,1
3.60833,2
3.61667,2
3.62500,2
3.63333,1
3.64167,1
3.65000,-0
3.65833,-0
3.66667,0
3.67500,-0
3.68333,-0
3.69167,-1
3.70000,-1
3.70833,-1
3.71667,-1
3.72500,0
3.73333,1
3.74167,2
3.75000,2
3.75833,2
3.76667,1
3.77500,1
3.78333,1
3.79167,1
3.80000,0
3.80833,-1
3.81667,-2
3.82500,-2
3.83333,-1
3.84167,0
3.85000,1
3.85833,2
3.86667,1
3.87500,1
3.88333,1
3.89167,1
3.90000,1
3.90833,1
3.91667,1
3.92500,0
3.93333,0
3.94167,1
3.95000,1
3.95833,1
3.96667,1
3.97500,-0
3.98333,-1
3.99167,-0
4.00000,-0
4.00833,-0
4.01667,0
4.02500,1
4.03333,1
4.04167,0
4.05000,-0
4.05833,-0
4.06667,-1
4.07500,-0
4.08333,1
4.09167,1
4.10000,2
4.10833,2
4.11667,1
4.12500,1
4.13333,1
4.14167,0
4.15000,-0
4.15833,-0
4.16667,-0
4.17500,-0
4.18333,-0
4.19167,-0
4.20000,0
4.20833,-0
4.21667,-1
4.22500,-1
4.23333,-1
4.24167,-1
4.25000,0
4.25833,1
4.26667,2
4.27500,2
4.28333,2
4.29167,2
4.30000,3
4.30833,3
4.31667,3
4.32500,2
4.33333,2
4.34167,2
4.35000,2
4.35833,2
4.36667,2
4.37500,1
4.38333,1
4.39167,1
4.40000,1
4.40833,1
4.41667,1
4.42500,1
4.43333,2
4.44167,2
4.45000,2
4.45833,1
4.46667,0
4.47500,0
4.48333,1
4.49167,1
4.50000,1
4.50833,1
4.51667,1
4.52500,0
4.53333,-0
4.54167,0
4.55000,1
4.55833,1
4.56667,1
4.57500,1
4.58333,1
4.59167,1
4.60000,0
4.60833,1
4.61667,0
4.62500,-1
4.63333,-1
4.64167,-1
4.65000,-1
4.65833,-1
4.66667,-1
4.67500,-0
4.68333,0
4.69167,-0
4.70000,-0
4.70833,-0
4.71667,0
4.72500,1
4.73333,1
4.74167,1
4.75000,2
4.75833,1
4.76667,1
4.77500,2
4.78333,2
4.79167,1
4.80000,1
4.80833,1
4.81667,1
4.82500,1
4.83333,0
4.84167,1
4.85000,1
4.85833,1
4.86667,1
4.87500,1
4.88333,1
4.89167,2
4.90000,2
4.90833,2
4.91667,1
4.92500,1
4.93333,0
4.94167,0
4.95000,0
4.95833,-1
4.96667,-1
4.97500,-0
4.98333,0
4.99167,-0
5.00000,0
5.00833,1
5.01667,2
5.02500,2
5.03333,2
5.04167,1
5.05000,2
5.05833,2
5.06667,1
5.07500,1
5.08333,1
5.09167,1
5.10000,0
5.10833,0
5.11667,0
5.12500,-0
5.13333,0
5.14167,1
5.15000,2
5.15833,2
5.16667,2
5.17500,2
5.18333,2
5.19167,1
5.20000,1
5.20833,1
5.21667,1
5.22500,1
5.23333,1
5.24167,1
5.25000,1
5.25833,1
5.26667,1
5.27500,0
5.28333,0
5.29167,0
5.30000,0
5.30833,0
5.31667,0
5.32500,1
5.33333,2
5.34167,2
5.35000,3
5.35833,3
5.36667,2
5.37500,1
5.38333,1
5.39167,2
5.40000,2
5.40833,2
5.41667,2
5.42500,2
5.43333,1
5.44167,1
5.45000,0
5.45833,1
5.46667,1
5.47500,2
5.48333,3
5.49167,3
5.50000,3
5.50833,3
5.51667,3
5.52500,3
5.53333,2
5.54167,1
5.55000,0
5.55833,1
5.56667,1
5.57500,1
5.58333,1
5.59167,1
5.60000,-0
5.60833,-1
5.61667,-1
5.62500,-1
5.63333,-1
5.64167,-1
5.65000,-1
5.65833,0
5.66667,2
5.67500,2
5.68333,2
5.69167,2
5.70000,1
5.70833,2
5.71667,2
5.72500,2
5.73333,1
5.74167,1
5.75000,1
5.75833,1
5.76667,1
5.77500,1
5.78333,1
5.79167,-0
5.80000,-1
5.80833,-1
5.81667,-1
5.82500,-0
5.83333,0
5.84167,1
5.85000,2
5.85833,2
5.86667,1
5.87500,1
5.88333,1
5.89167,1
5.90000,2
5.90833,2
5.91667,2
5.92500,3
5.93333,3
5.94167,3
5.95000,3
5.95833,3
5.96667,2
5.97500,2
5.98333,2
5.99167,2
6.00000,2
6.00833,2
6.01667,2
6.02500,1
6.03333,1
6.04167,1
6.05000,1
6.05833,1
6.06667,2
6.07500,2
6.08333,2
6.09167,2
6.10000,2
6.10833,2
6.11667,2
6.12500,2
6.13333,1
6.14167,1
6.15000,0
6.15833,-1
6.16667,-0
6.17500,1
6.18333,1
6.19167,1
6.20000,1
6.20833,0
6.21667,-0
6.22500,-0
6.23333,0
6.24167,1
6.25000,1
6.25833,1
6.26667,2
6.27500,2
6.28333,2
6.29167,2
6.30000,2
6.30833,2
6.31667,2
6.32500,3
6.33333,3
6.34167,3
6.35000,3
6.35833,2
6.36667,1
6.37500,1
6.38333,1
6.39167,2
6.40000,1
6.40833,-0
6.41667,-0
6.42500,0
6.43333,1
6.44167,1
6.45000,2
6.45833,3
6.46667,3
6.47500,3
6.48333,2
6.49167,1
6.50000,0
6.50833,1
6.51667,1
6.52500,2
6.53333,1
6.54167,0
6.55000,0
6.55833,1
6.56667,2
6.57500,2
6.58333,2
6.59167,2
6.60000,1
6.60833,0
6.61667,0
6.62500,0
6.63333,-1
6.64167,-1
6.65000,-2
6.65833,-2
6.66667,-3
6.67500,-1
6.68333,-0
6.69167,-0
6.70000,0
6.70833,1
6.71667,2
6.72500,2
6.73333,2
6.74167,1
6.75000,2
6.75833,2
6.76667,2
6.77500,1
6.78333,2
6.79167,3
6.80000,4
6.80833,4
6.81667,3
6.82500,2
6.83333,2
6.84167,3
6.85000,3
6.85833,3
6.86667,2
6.87500,2
6.88333,2
6.89167,2
6.90000,2
6.90833,2
6.91667,2
6.92500,2
6.93333,2
6.94167,1
6.95000,1
6.95833,1
6.96667,1
6.97500,1
6.98333,2
6.99167,3
7.00000,3
7.00833,4
7.01667,4
7.02500,3
7.03333,1
7.04167,0
7.05000,0
7.05833,-0
7.06667,-1
7.07500,-1
7.08333,-0
7.09167,0
7.10000,1
7.10833,3
7.11667,4
7.12500,3
7.13333,2
7.14167,2
7.15000,2
7.15833,2
7.16667,1
7.17500,2
7.18333,2
7.19167,2
7.20000,1
7.20833,1
7.21667,1
7.22500,1
7.23333,2
7.24167,2
7.25000,2
7.25833,2
7.26667,1
7.27500,1
7.28333,2
7.29167,3
7.30000,2
7.30833,2
7.31667,2
7.32500,2
7.33333,3
7.34167,3
7.35000,2
7.35833,2
7.36667,1
7.37500,1
7.38333,1
7.39167,0
7.40000,1
7.40833,1
7.41667,1
7.42500,2
7.43333,2
7.44167,3
7.45000,3
7.45833,3
7.46667,3
7.47500,3
7.48333,3
7.49167,2
7.50000,1
7.50833,0
7.51667,-0
7.52500,-1
7.53333,-0
7.54167,-0
7.55000,0
7.55833,1
7.56667,1
7.57500,1
7.58333,2
7.59167,2
7.60000,3
7.60833,2
7.61667,2
7.62500,2
7.63333,1
7.64167,1
7.65000,1
7.65833,1
7.66667,2
7.67500,2
7.68333,2
7.69167,3
7.70000,4
7.70833,4
7.71667,4
7.72500,3
7.73333,3
7.74167,3
7.75000,2
7.75833,1
7.76667,1
7.77500,1
7.78333,1
7.79167,1
7.80000,1
7.80833,2
7.81667,2
7.82500,3
7.83333,3
7.84167,3
7.85000,3
7.85833,3
7.86667,4
7.87500,4
7.88333,3
7.89167,3
7.90000,3
7.90833,3
7.91667,2
7.92500,2
7.93333,2
7.94167,2
7.95000,2
7.95833,2
7.96667,3
7.97500,3
7.98333,2
7.99167,2
8.00000,1
8.00833,1
8.01667,2
8.02500,3
8.03333,4
8.04167,4
8.05000,4
8.05833,3
8.06667,2
8.07500,2
8.08333,2
8.09167,2
8.10000,2
8.10833,2
8.11667,1
8.12500,-0
8.13333,-1
8.14167,-0
8.15000,-0
8.15833,1
8.16667,2
8.17500,4
8.18333,4
8.19167,5
8.20000,4
8.20833,4
8.21667,5
8.22500,5
8.23333,5
8.24167,4
8.25000,2
8.25833,2
8.26667,2
8.27500,2
8.28333,3
8.29167,2
8.30000,1
8.30833,0
8.31667,0
8.32500,0
8.33333,0
8.34167,1
8.35000,1
8.35833,1
8.36667,1
8.37500,1
8.38333,1
8.39167,2
8.40000,2
8.40833,2
8.41667,2
8.42500,1
8.43333,2
8.44167,2
8.45000,3
8.45833,3
8.46667,3
8.47500,3
8.48333,3
8.49167,3
8.50000,4
8.50833,4
8.51667,4
8.52500,4
8.53333,3
8.54167,3
8.55000,2
8.55833,2
8.56667,3
8.57500,3
8.58333,3
8.59167,3
8.60000,3
8.60833,3
8.61667,4
8.62500,4
8.63333,5
8.64167,5
8.65000,5
8.65833,4
8.66667,4
8.67500,4
8.68333,3
8.69167,3
8.70000,3
8.70833,4
8.71667,4
8.72500,5
8.73333,5
8.74167,5
8.75000,5
8.75833,6
8.76667,5
8.77500,5
8.78333,5
8.79167,5
8.80000,5
8.80833,5
8.81667,4
8.82500,4
8.83333,4
8.84167,4
8.85000,4
8.85833,5
8.86667,5
8.87500,5
8.88333,4
8.89167,5
8.90000,5
8.90833,6
8.91667,5
8.92500,5
8.93333,6
8.94167,7
8.95000,7
8.95833,6
8.96667,6
8.97500,5
8.98333,5
8.99167,5
9.00000,5
9.00833,3
9.01667,3
9.02500,4
9.03333,4
9.04167,4
9.05000,4
9.05833,4
9.06667,4
9.07500,5
9.08333,5
9.09167,5
9.10000,5
9.10833,5
9.11667,5
9.12500,6
9.13333,6
9.14167,6
9.15000,6
9.15833,5
9.16667,5
9.17500,5
9.18333,4
9.19167,4
9.20000,4
9.20833,4
9.21667,4
9.22500,5
9.23333,5
9.24167,6
9.25000,6
9.25833,5
9.26667,4
9.27500,4
9.28333,4
9.29167,5
9.30000,5
9.30833,5
9.31667,6
9.32500,6
9.33333,5
9.34167,5
9.35000,5
9.35833,6
9.36667,7
9.37500,7
9.38333,8
9.39167,7
9.40000,6
9.40833,5
9.41667,5
9.42500,6
9.43333,6
9.44167,7
9.45000,7
9.45833,6
9.46667,6
9.47500,6
9.48333,6
9.49167,6
9.50000,6
9.50833,6
9.51667,6
9.52500,6
9.53333,7
9.54167,7
9.55000,8
9.55833,8
9.56667,7
9.57500,7
9.58333,8
9.59167,8
9.60000,8
9.60833,9
9.61667,8
9.62500,7
9.63333,7
9.64167,8
9.65000,8
9.65833,8
9.66667,6
9.67500,6
9.68333,5
9.69167,5
9.70000,5
9.70833,5
9.71667,5
9.72500,5
9.73333,5
9.74167,5
9.75000,5
9.75833,5
9.76667,5
9.77500,5
9.78333,6
9.79167,7
9.80000,6
9.80833,4
9.81667,4
9.82500,4
9.83333,5
9.84167,6
9.85000,6
9.85833,6
9.86667,7
9.87500,7
9.88333,7
9.89167,6
9.90000,6
9.90833,6
9.91667,6
9.92500,6
9.93333,6
9.94167,6
9.95000,6
9.95833,6
9.96667,6
9.97500,6
9.98333,6
9.99167,7
10.00000,7
10.00833,8
10.01667,8
10.02500,9
10.03333,10
10.04167,10
10.05000,10
10.05833,12
10.06667,14
10.07500,14
10.08333,15
10.09167,15
10.10000,16
10.10833,16
10.11667,17
10.12500,18
10.13333,19
10.14167,21
10.15000,23
10.15833,25
10.16667,27
10.17500,27
10.18333,27
10.19167,27
10.20000,27
10.20833,27
10.21667,26
10.22500,25
10.23333,22
10.24167,20
10.25000,17
10.25833,14
10.26667,11
10.27500,7
10.28333,3
10.29167,-1
10.30000,-6
10.30833,-11
10.31667,-15
10.32500,-19
10.33333,-24
10.34167,-29
10.35000,-33
10.35833,-38
10.36667,-41
10.37500,-46
10.38333,-50
10.39167,-53
10.40000,-56
10.40833,-59
10.41667,-62
10.42500,-64
10.43333,-66
10.44167,-68
10.45000,-70
10.45833,-73
10.46667,-74
10.47500,-75
10.48333,-76
10.49167,-76
10.50000,-76
10.50833,-76
10.51667,-75
10.52500,-74
10.53333,-72
10.54167,-71
10.55000,-69
10.55833,-68
10.56667,-66
10.57500,-63
10.58333,-59
10.59167,-54
10.60000,-51
10.60833,-48
10.61667,-44
10.62500,-41
10.63333,-37
10.64167,-32
10.65000,-29
10.65833,-25
10.66667,-21
10.67500,-18
10.68333,-15
10.69167,-12
10.70000,-9
10.70833,-6
10.71667,-4
10.72500,-1
10.73333,3
10.74167,5
10.75000,7
10.75833,9
10.76667,11
10.77500,14
10.78333,15
10.79167,17
10.80000,19
10.80833,21
10.81667,22
10.82500,23
10.83333,26
10.84167,27
10.85000,28
10.85833,29
10.86667,29
10.87500,29
10.88333,30
10.89167,30
10.90000,30
10.90833,31
10.91667,32
10.92500,33
10.93333,34
10.94167,34
10.95000,34
10.95833,35
10.96667,34
10.97500,34
10.98333,34
10.99167,35
11.00000,35
11.00833,36
11.01667,37
11.02500,37
11.03333,36
11.04167,37
11.05000,37
11.05833,36
11.06667,36
11.07500,35
11.08333,35
11.09167,35
11.10000,35
11.10833,35
11.11667,35
11.12500,34
11.13333,34
11.14167,33
11.15000,33
11.15833,33
11.16667,33
11.17500,33
11.18333,33
11.19167,33
11.20000,34
11.20833,34
11.21667,34
11.22500,35
11.23333,35
11.24167,35
11.25000,36
11.25833,36
11.26667,36
11.27500,36
11.28333,35
11.29167,35
11.30000,34
11.30833,34
11.31667,33
11.32500,32
11.33333,33
11.34167,34
11.35000,33
11.35833,33
11.36667,33
11.37500,32
11.38333,32
11.39167,32
11.40000,32
11.40833,32
11.41667,32
11.42500,32
11.43333,31
11.44167,32
11.45000,32
11.45833,31
11.46667,31
11.47500,31
11.48333,30
11.49167,30
11.50000,28
11.50833,29
11.51667,30
11.52500,30
11.53333,30
11.54167,30
11.55000,30
11.55833,29
11.56667,28
11.57500,27
11.58333,27
11.59167,27
11.60000,27
11.60833,27
11.61667,27
11.62500,26
11.63333,26
11.64167,26
11.65000,27
11.65833,27
11.66667,27
11.67500,27
11.68333,27
11.69167,27
11.70000,27
11.70833,26
11.71667,26
11.72500,26
11.73333,26
11.74167,26
11.75000,27
11.75833,28
11.76667,27
11.77500,26
11.78333,26
11.79167,25
11.80000,26
11.80833,26
11.81667,26
11.82500,26
11.83333,26
11.84167,25
11.85000,25
11.85833,24
11.86667,24
11.87500,24
11.88333,24
11.89167,24
11.90000,25
11.90833,25
11.91667,25
11.92500,25
11.93333,25
11.94167,26
11.95000,26
11.95833,25
11.96667,25
11.97500,24
11.98333,24
11.99167,24
12.00000,24
12.00833,25
12.01667,25
12.02500,25
12.03333,25
12.04167,25
12.05000,25
12.05833,25
12.06667,25
12.07500,25
12.08333,25
12.09167,25
12.10000,25
12.10833,25
12.11667,25
12.12500,25
12.13333,25
12.14167,24
12.15000,23
12.15833,23
12.16667,23
12.17500,23
12.18333,24
12.19167,23
12.20000,23
12.20833,23
12.21667,22
12.22500,21
12.23333,21
12.24167,22
12.25000,22
12.25833,23
12.26667,24
12.27500,24
12.28333,25
12.29167,25
12.30000,24
12.30833,24
12.31667,24
12.32500,24
12.33333,24
12.34167,25
12.35000,25
12.35833,26
12.36667,26
12.37500,25
12.38333,25
12.39167,24
12.40000,24
12.40833,23
12.41667,23
12.42500,23
12.43333,22
12.44167,21
12.45000,22
12.45833,22
12.46667,22
12.47500,21
12.48333,21
12.49167,20
12.50000,20
12.50833,21
12.51667,22
12.52500,22
12.53333,21
12.54167,21
12.55000,21
12.55833,21
12.56667,21
12.57500,21
12.58333,22
12.59167,22
12.60000,22
12.60833,21
12.61667,21
12.62500,21
12.63333,21
12.64167,21
12.65000,22
12.65833,22
12.66667,21
12.67500,21
12.68333,21
12.69167,21
12.70000,20
12.70833,20
12.71667,20
12.72500,22
12.73333,22
12.74167,22
12.75000,22
12.75833,22
12.76667,23
12.77500,23
12.78333,23
12.79167,23
12.80000,22
12.80833,22
12.81667,22
12.82500,22
12.83333,21
12.84167,21
12.85000,22
12.85833,22
12.86667,22
12.87500,22
12.88333,22
12.89167,22
12.90000,21
12.90833,21
12.91667,20
12.92500,20
12.93333,20
12.94167,20
12.95000,20
12.95833,20
12.96667,19
12.97500,20
12.98333,20
12.99167,20
13.00000,20
13.00833,20
13.01667,20
13.02500,20
13.03333,20
13.04167,21
13.05000,21
13.05833,20
13.06667,20
13.07500,20
13.08333,20
13.09167,21
13.10000,22
13.10833,23
13.11667,22
13.12500,21
13.13333,20
13.14167,20
13.15000,19
13.15833,19
13.16667,19
13.17500,19
13.18333,19
13.19167,20
13.20000,20
13.20833,20
13.21667,20
13.22500,21
13.23333,21
13.24167,21
13.25000,21
13.25833,21
13.26667,21
13.27500,22
13.28333,21
13.29167,21
13.30000,20
13.30833,19
13.31667,19
13.32500,20
13.33333,20
13.34167,20
13.35000,20
13.35833,19
13.36667,20
13.37500,20
13.38333,18
13.39167,17
13.40000,17
13.40833,17
13.41667,18
13.42500,19
13.43333,19
13.44167,19
13.45000,19
13.45833,19
13.46667,19
13.47500,18
13.48333,18
13.49167,19
13.50000,19
13.50833,18
13.51667,17
13.52500,17
13.53333,17
13.54167,17
13.55000,18
13.55833,18
13.56667,17
13.57500,16
13.58333,16
13.59167,16
13.60000,17
13.60833,17
13.61667,18
13.62500,18
13.63333,18
13.64167,18
13.65000,17
13.65833,17
13.66667,17
13.67500,17
13.68333,17
13.69167,17
13.70000,17
13.70833,17
13.71667,17
13.72500,17
13.73333,17
13.74167,17
13.75000,17
13.75833,17
13.76667,17
13.77500,16
13.78333,17
13.79167,17
13.80000,16
13.80833,16
13.81667,16
13.82500,16
13.83333,16
13.84167,17
13.85000,18
13.85833,17
13.86667,17
13.87500,16
13.88333,16
13.89167,15
13.90000,16
13.90833,16
13.91667,16
13.92500,16
13.93333,17
13.94167,17
13.95000,16
13.95833,16
13.96667,16
13.97500,16
13.98333,16
13.99167,17
14.00000,16
14.00833,15
14.01667,14
14.02500,15
14.03333,16
14.04167,16
14.05000,16
14.05833,15
14.06667,15
14.07500,16
14.08333,16
14.09167,16
14.10000,16
14.10833,16
14.11667,16
14.12500,16
14.13333,15
14.14167,15
14.15000,15
14.15833,15
14.16667,16
14.17500,16
14.18333,17
14.19167,17
14.20000,17
14.20833,17
14.21667,18
14.22500,18
14.23333,19
14.24167,20
14.25000,20
14.25833,19
14.26667,18
14.27500,18
14.28333,17
14.29167,19
14.30000,19
14.30833,19
14.31667,20
14.32500,21
14.33333,22
14.34167,23
14.35000,23
14.35833,23
14.36667,23
14.37500,23
14.38333,23
14.39167,23
14.40000,24
14.40833,24
14.41667,24
14.42500,24
14.43333,23
14.44167,24
14.45000,25
14.45833,25
14.46667,25
14.47500,25
14.48333,25
14.49167,25
14.50000,25
14.50833,25
14.51667,25
14.52500,26
14.53333,26
14.54167,26
14.55000,26
14.55833,27
14.56667,27
14.57500,28
14.58333,28
14.59167,28
14.60000,28
14.60833,27
14.61667,26
14.62500,25
14.63333,25
14.64167,23
14.65000,23
14.65833,24
14.66667,24
14.67500,24
14.68333,23
14.69167,22
14.70000,21
14.70833,21
14.71667,21
14.72500,20
14.73333,19
14.74167,19
14.75000,19
14.75833,18
14.76667,18
14.77500,18
14.78333,18
14.79167,16
14.80000,16
14.80833,15
14.81667,14
14.82500,13
14.83333,12
14.84167,13
14.85000,12
14.85833,12
14.86667,13
14.87500,13
14.88333,13
14.89167,13
14.90000,12
14.90833,12
14.91667,12
14.92500,12
14.93333,11
14.94167,11
14.95000,11
14.95833,11
14.96667,11
14.97500,10
14.98333,10
14.99167,9
15.00000,9
15.00833,8
15.01667,8
15.02500,8
15.03333,8
15.04167,8
15.05000,8
15.05833,9
15.06667,9
15.07500,9
15.08333,9
15.09167,9
15.10000,10
15.10833,10
15.11667,10
15.12500,10
15.13333,9
15.14167,9
15.15000,9
15.15833,9
15.16667,9
15.17500,9
15.18333,9
15.19167,8
15.20000,7
15.20833,7
15.21667,7
15.22500,8
15.23333,9
15.24167,9
15.25000,10
15.25833,10
15.26667,9
15.27500,8
15.28333,7
15.29167,7
15.30000,8
15.30833,8
15.31667,8
15.32500,8
15.33333,8
15.34167,8
15.35000,8
15.35833,7
15.36667,7
15.37500,7
15.38333,7
15.39167,7
15.40000,8
15.40833,7
15.41667,7
15.42500,6
15.43333,6
15.44167,7
15.45000,7
15.45833,7
15.46667,7
15.47500,7
15.48333,7
15.49167,6
15.50000,7
15.50833,7
15.51667,6
15.52500,6
15.53333,7
15.54167,7
15.55000,6
15.55833,6
15.56667,5
15.57500,5
15.58333,5
15.59167,6
15.60000,6
15.60833,6
15.61667,6
15.62500,7
15.63333,7
15.64167,7
15.65000,7
15.65833,7
15.66667,7
15.67500,6
15.68333,6
15.69167,6
15.70000,6
15.70833,6
15.71667,7
15.72500,6
15.73333,6
15.74167,5
15.75000,4
15.75833,4
15.76667,4
15.77500,4
15.78333,4
15.79167,3
15.80000,3
15.80833,3
15.81667,4
15.82500,5
15.83333,5
15.84167,5
15.85000,5
15.85833,6
15.86667,6
15.87500,6
15.88333,5
15.89167,4
15.90000,4
15.90833,3
15.91667,3
15.92500,4
15.93333,5
15.94167,5
15.95000,5
15.95833,5
15.96667,5
15.97500,4
15.98333,4
15.99167,4
16.00000,4
16.00833,4
16.01667,5
16.02500,5
16.03333,4
16.04167,4
16.05000,4
16.05833,3
16.06667,4
16.07500,4
16.08333,4
16.09167,3
16.10000,3
16.10833,2
16.11667,3
16.12500,3
16.13333,3
16.14167,3
16.15000,4
16.15833,3
16.16667,3
16.17500,3
16.18333,3
16.19167,2
16.20000,2
16.20833,2
16.21667,3
16.22500,2
16.23333,2
16.24167,2
16.25000,3
16.25833,3
16.26667,4
16.27500,5
16.28333,5
16.29167,5
16.30000,5
16.30833,4
16.31667,3
16.32500,3
16.33333,3
16.34167,3
16.35000,3
16.35833,2
16.36667,2
16.37500,2
16.38333,2
16.39167,2
16.40000,1
16.40833,1
16.41667,1
16.42500,1
16.43333,1
16.44167,1
16.45000,0
16.45833,1
16.46667,1
16.47500,1
16.48333,1
16.49167,1
16.50000,1
16.50833,1
16.51667,2
16.52500,2
16.53333,2
16.54167,3
16.55000,4
16.55833,3
16.56667,2
16.57500,1
16.58333,1
16.59167,1
16.60000,1
16.60833,1
16.61667,2
16.62500,2
16.63333,1
16.64167,2
16.65000,1
16.65833,1
16.66667,1
16.67500,0
16.68333,-0
16.69167,-0
16.70000,-0
16.70833,0
16.71667,1
16.72500,1
16.73333,1
16.74167,-0
16.75000,-1
16.75833,-1
16.76667,-0
16.77500,-0
16.78333,-0
16.79167,0
16.80000,0
16.80833,-0
16.81667,0
16.82500,1
16.83333,2
16.84167,1
16.85000,1
16.85833,1
16.86667,2
16.87500,1
16.88333,2
16.89167,2
16.90000,1
16.90833,0
16.91667,0
16.92500,1
16.93333,1
16.94167,1
16.95000,0
16.95833,0
16.96667,1
16.97500,-0
16.98333,-0
16.99167,-0
17.00000,-0
17.00833,-0
17.01667,-0
17.02500,-1
17.03333,-1
17.04167,-2
17.05000,-3
17.05833,-3
17.06667,-3
17.07500,-3
17.08333,-3
17.09167,-2
17.10000,-1
17.10833,-1
17.11667,-1
17.12500,-1
17.13333,-2
17.14167,-3
17.15000,-3
17.15833,-3
17.16667,-3
17.17500,-3
17.18333,-2
17.19167,-3
17.20000,-3
17.20833,-3
17.21667,-4
17.22500,-4
17.23333,-3
17.24167,-3
17.25000,-4
17.25833,-3
17.26667,-3
17.27500,-3
17.28333,-3
17.29167,-3
17.30000,-3
17.30833,-3
17.31667,-3
17.32500,-3
17.33333,-3
17.34167,-3
17.35000,-2
17.35833,-1
17.36667,-2
17.37500,-2
17.38333,-2
17.39167,-2
17.40000,-2
17.40833,-3
17.41667,-4
17.42500,-5
17.43333,-5
17.44167,-4
17.45000,-4
17.45833,-4
17.46667,-4
17.47500,-4
17.48333,-4
17.49167,-4
17.50000,-4
17.50833,-4
17.51667,-4
17.52500,-4
17.53333,-4
17.54167,-4
17.55000,-3
17.55833,-3
17.56667,-4
17.57500,-3
17.58333,-3
17.59167,-3
17.60000,-4
17.60833,-5
17.61667,-4
17.62500,-4
17.63333,-4
17.64167,-3
17.65000,-4
17.65833,-5
17.66667,-5
17.67500,-5
17.68333,-5
17.69167,-6
17.70000,-7
17.70833,-7
17.71667,-7
17.72500,-5
17.73333,-5
17.74167,-4
17.75000,-3
17.75833,-3
17.76667,-4
17.77500,-4
17.78333,-4
17.79167,-3
17.80000,-3
17.80833,-3
17.81667,-3
17.82500,-4
17.83333,-4
17.84167,-4
17.85000,-4
17.85833,-4
17.86667,-4
17.87500,-4
17.88333,-4
17.89167,-3
17.90000,-3
17.90833,-3
17.91667,-2
17.92500,-2
17.93333,-1
17.94167,-1
17.95000,0
17.95833,1
17.96667,1
17.97500,2
17.98333,3
17.99167,4
18.00000,4
18.00833,5
18.01667,6
18.02500,7
18.03333,8
18.04167,9
18.05000,10
18.05833,12
18.06667,12
18.07500,13
18.08333,14
18.09167,14
18.10000,15
18.10833,16
18.11667,17
18.12500,18
18.13333,20
18.14167,21
18.15000,22
18.15833,23
18.16667,23
18.17500,23
18.18333,24
18.19167,24
18.20000,25
18.20833,26
18.21667,27
18.22500,29
18.23333,29
18.24167,29
18.25000,28
18.25833,28
18.26667,29
18.27500,30
18.28333,31
18.29167,32
18.30000,32
18.30833,33
18.31667,32
18.32500,32
18.33333,32
18.34167,31
18.35000,32
18.35833,33
18.36667,33
18.37500,34
18.38333,34
18.39167,34
18.40000,35
18.40833,35
18.41667,35
18.42500,35
18.43333,35
18.44167,35
18.45000,35
18.45833,36
18.46667,36
18.47500,35
18.48333,35
18.49167,35
18.50000,34
18.50833,34
18.51667,34
18.52500,33
18.53333,32
18.54167,32
18.55000,33
18.55833,33
18.56667,33
18.57500,32
18.58333,31
18.59167,30
18.60000,30
18.60833,29
18.61667,28
18.62500,27
18.63333,26
18.64167,26
18.65000,25
18.65833,24
18.66667,23
18.67500,22
18.68333,22
18.69167,22
18.70000,22
18.70833,22
18.71667,21
18.72500,20
18.73333,19
18.74167,19
18.75000,19
18.75833,19
18.76667,19
18.77500,18
18.78333,17
18.79167,16
18.80000,16
18.80833,17
18.81667,17
18.82500,17
18.83333,17
18.84167,17
18.85000,17
18.85833,18
18.86667,18
18.87500,18
18.88333,17
18.89167,19
18.90000,20
18.90833,21
18.91667,22
18.92500,23
18.93333,23
18.94167,23
18.95000,24
18.95833,25
18.96667,25
18.97500,26
18.98333,27
18.99167,29
19.00000,30
19.00833,31
19.01667,32
19.02500,33
19.03333,34
19.04167,35
19.05000,37
19.05833,38
19.06667,39
19.07500,39
19.08333,39
19.09167,40
19.10000,40
19.10833,41
19.11667,42
19.12500,44
19.13333,45
19.14167,46
19.15000,47
19.15833,47
19.16667,47
19.17500,48
19.18333,48
19.19167,49
19.20000,50
19.20833,52
19.21667,52
19.22500,53
19.23333,53
19.24167,53
19.25000,53
19.25833,53
19.26667,54
19.27500,53
19.28333,53
19.29167,53
19.30000,54
19.30833,53
19.31667,53
19.32500,53
19.33333,53
19.34167,53
19.35000,54
19.35833,54
19.36667,54
19.37500,54
19.38333,55
19.39167,54
19.40000,54
19.40833,54
19.41667,54
19.42500,54
19.43333,53
19.44167,52
19.45000,52
19.45833,51
19.46667,51
19.47500,50
19.48333,51
19.49167,49
19.50000,49
19.50833,48
19.51667,47
19.52500,46
19.53333,46
19.54167,46
19.55000,45
19.55833,44
19.56667,43
19.57500,43
19.58333,42
19.59167,42
19.60000,41
19.60833,40
19.61667,39
19.62500,39
19.63333,38
19.64167,37
19.65000,36
19.65833,36
19.66667,35
19.67500,35
19.68333,35
19.69167,35
19.70000,35
19.70833,34
19.71667,33
19.72500,32
19.73333,32
19.74167,31
19.75000,30
19.75833,30
19.76667,30
19.77500,30
19.78333,28
19.79167,27
19.80000,27
19.80833,27
19.81667,27
19.82500,27
19.83333,27
19.84167,27
19.85000,28
19.85833,27
19.86667,27
19.87500,27
19.88333,28
19.89167,28
19.90000,27
19.90833,26
19.91667,27
19.92500,27
19.93333,27
19.94167,25
19.95000,25
19.95833,25
19.96667,25
19.97500,25
19.98333,26
19.99167,26
20.00000,26
20.00833,26
20.01667,25
20.02500,24
20.03333,25
20.04167,25
20.05000,25
20.05833,25
20.06667,26
20.07500,27
20.08333,26
20.09167,26
20.10000,26
20.10833,27
20.11667,27
20.12500,27
20.13333,27
20.14167,27
20.15000,28
20.15833,28
20.16667,28
20.17500,28
20.18333,29
20.19167,30
20.20000,30
20.20833,30
20.21667,30
20.22500,30
20.23333,31
20.24167,30
20.25000,30
20.25833,29
20.26667,29
20.27500,28
20.28333,28
20.29167,28
20.30000,28
20.30833,29
20.31667,30
20.32500,32
20.33333,33
20.34167,34
20.35000,34
20.35833,35
20.36667,35
20.37500,36
20.38333,36
20.39167,37
20.40000,38
20.40833,40
20.41667,41
20.42500,43
20.43333,45
20.44167,47
20.45000,49
20.45833,51
20.46667,53
20.47500,55
20.48333,58
20.49167,62
20.50000,66
20.50833,69
20.51667,72
20.52500,76
20.53333,81
20.54167,85
20.55000,88
20.55833,94
20.56667,99
20.57500,104
20.58333,109
20.59167,115
20.60000,121
20.60833,127
20.61667,132
20.62500,137
20.63333,144
20.64167,149
20.65000,155
20.65833,161
20.66667,167
20.67500,173
20.68333,178
20.69167,183
20.70000,188
20.70833,193
20.71667,199
20.72500,204
20.73333,208
20.74167,212
20.75000,216
20.75833,219
20.76667,222
20.77500,225
20.78333,228
20.79167,230
20.80000,233
20.80833,235
20.81667,237
20.82500,239
20.83333,241
20.84167,241
20.85000,242
20.85833,243
20.86667,245
20.87500,246
20.88333,248
20.89167,249
20.90000,250
20.90833,252
20.91667,253
20.92500,254
20.93333,254
20.94167,255
20.95000,255
20.95833,254
20.96667,254
20.97500,253
20.98333,253
20.99167,253
21.00000,253
21.00833,254
21.01667,253
21.02500,252
21.03333,251
21.04167,251
21.05000,250
21.05833,249
21.06667,248
21.07500,245
21.08333,242
21.09167,240
21.10000,237
21.10833,236
21.11667,233
21.12500,231
21.13333,228
21.14167,225
21.15000,222
21.15833,218
21.16667,213
21.17500,208
21.18333,204
21.19167,200
21.20000,197
21.20833,193
21.21667,189
21.22500,183
21.23333,178
21.24167,173
21.25000,168
21.25833,163
21.26667,158
21.27500,154
21.28333,150
21.29167,145
21.30000,140
21.30833,136
21.31667,131
21.32500,125
21.33333,120
21.34167,116
21.35000,112
21.35833,107
21.36667,104
21.37500,101
21.38333,97
21.39167,93
21.40000,90
21.40833,88
21.41667,85
21.42500,82
21.43333,79
21.44167,76
21.45000,73
21.45833,70
21.46667,67
21.47500,64
21.48333,62
21.49167,60
21.50000,57
21.50833,55
21.51667,54
21.52500,53
21.53333,51
21.54167,49
21.55000,48
21.55833,47
21.56667,47
21.57500,46
21.58333,45
21.59167,43
21.60000,42
21.60833,41
21.61667,39
21.62500,39
21.63333,37
21.64167,36
21.65000,35
21.65833,35
21.66667,35
21.67500,35
21.68333,36
21.69167,36
21.70000,35
21.70833,34
21.71667,34
21.72500,34
21.73333,34
21.74167,33
21.75000,32
21.75833,32
21.76667,31
21.77500,30
21.78333,30
21.79167,30
21.80000,31
21.80833,32
21.81667,31
21.82500,30
21.83333,29
21.84167,30
21.85000,30
21.85833,30
21.86667,29
21.87500,29
21.88333,29
21.89167,30
21.90000,31
21.90833,31
21.91667,31
21.92500,30
21.93333,28
21.94167,28
21.95000,28
21.95833,28
21.96667,29
21.97500,29
21.98333,28
21.99167,28
22.00000,29
22.00833,29
22.01667,28
22.02500,29
22.03333,29
22.04167,29
22.05000,29
22.05833,29
22.06667,29
22.07500,29
22.08333,28
22.09167,28
22.10000,28
22.10833,27
22.11667,27
22.12500,27
22.13333,27
22.14167,27
22.15000,27
22.15833,27
22.16667,28
22.17500,28
22.18333,28
22.19167,27
22.20000,27
22.20833,28
22.21667,27
22.22500,27
22.23333,27
22.24167,27
22.25000,27
22.25833,26
22.26667,27
22.27500,28
22.28333,27
22.29167,26
22.30000,26
22.30833,25
22.31667,25
22.32500,26
22.33333,27
22.34167,27
22.35000,26
22.35833,25
22.36667,24
22.37500,24
22.38333,25
22.39167,25
22.40000,25
22.40833,25
22.41667,24
22.42500,25
22.43333,25
22.44167,26
22.45000,26
22.45833,25
22.46667,24
22.47500,24
22.48333,24
22.49167,24
22.50000,24
22.50833,23
22.51667,23
22.52500,23
22.53333,23
22.54167,24
22.55000,24
22.55833,25
22.56667,25
22.57500,25
22.58333,24
22.59167,24
22.60000,24
22.60833,25
22.61667,26
22.62500,26
22.63333,25
22.64167,24
22.65000,25
22.65833,25
22.66667,25
22.67500,24
22.68333,25
22.69167,25
22.70000,25
22.70833,25
22.71667,25
22.72500,25
22.73333,24
22.74167,23
22.75000,23
22.75833,23
22.76667,23
22.77500,24
22.78333,23
22.79167,23
22.80000,22
22.80833,21
22.81667,21
22.82500,21
22.83333,21
22.84167,21
22.85000,21
22.85833,21
22.86667,21
22.87500,21
22.88333,21
22.89167,21
22.90000,21
22.90833,21
22.91667,22
22.92500,23
22.93333,23
22.94167,22
22.95000,22
22.95833,22
22.96667,21
22.97500,20
22.98333,20
22.99167,21
23.00000,22
23.00833,22
23.01667,22
23.02500,22
23.03333,21
23.04167,20
23.05000,20
23.05833,20
23.06667,20
23.07500,20
23.08333,21
23.09167,20
23.10000,20
23.10833,20
23.11667,20
23.12500,20
23.13333,20
23.14167,20
23.15000,20
23.15833,20
23.16667,19
23.17500,18
23.18333,18
23.19167,18
23.20000,19
23.20833,18
23.21667,18
23.22500,18
23.23333,19
23.24167,19
23.25000,19
23.25833,17
23.26667,16
23.27500,16
23.28333,16
23.29167,16
23.30000,16
23.30833,16
23.31667,16
23.32500,16
23.33333,16
23.34167,15
23.35000,14
23.35833,15
23.36667,15
23.37500,15
23.38333,15
23.39167,15
23.40000,15
23.40833,15
23.41667,15
23.42500,15
23.43333,15
23.44167,15
23.45000,15
23.45833,14
23.46667,13
23.47500,13
23.48333,13
23.49167,13
23.50000,14
23.50833,14
23.51667,14
23.52500,14
23.53333,14
23.54167,13
23.55000,13
23.55833,13
23.56667,13
23.57500,14
23.58333,13
23.59167,13
23.60000,13
23.60833,13
23.61667,13
23.62500,12
23.63333,11
23.64167,10
23.65000,10
23.65833,9
23.66667,9
23.67500,10
23.68333,11
23.69167,11
23.70000,11
23.70833,11
23.71667,11
23.72500,11
23.73333,10
23.74167,10
23.75000,10
23.75833,10
23.76667,9
23.77500,9
23.78333,9
23.79167,8
23.80000,7
23.80833,8
23.81667,8
23.82500,9
23.83333,8
23.84167,8
23.85000,8
23.85833,7
23.86667,6
23.87500,6
23.88333,6
23.89167,5
23.90000,5
23.90833,5
23.91667,5
23.92500,5
23.93333,5
23.94167,5
23.95000,5
23.95833,5
23.96667,5
23.97500,6
23.98333,6
23.99167,5
24.00000,4
24.00833,4
24.01667,5
24.02500,5
24.03333,5
24.04167,5
24.05000,4
24.05833,5
24.06667,4
24.07500,3
24.08333,2
24.09167,2
24.10000,1
24.10833,1
24.11667,2
24.12500,2
24.13333,1
24.14167,2
24.15000,2
24.15833,2
24.16667,2
24.17500,2
24.18333,1
24.19167,0
24.20000,1
24.20833,0
24.21667,0
24.22500,1
24.23333,2
24.24167,1
24.25000,1
24.25833,0
24.26667,-0
24.27500,-1
24.28333,-1
24.29167,-1
24.30000,-1
24.30833,-1
24.31667,-1
24.32500,-1
24.33333,-1
24.34167,-2
24.35000,-2
24.35833,-1
24.36667,-2
24.37500,-2
24.38333,-2
24.39167,-2
24.40000,-2
24.40833,-3
24.41667,-3
24.42500,-4
24.43333,-5
24.44167,-4
24.45000,-3
24.45833,-2
24.46667,-3
24.47500,-3
24.48333,-3
24.49167,-3
24.50000,-4
24.50833,-5
24.51667,-5
24.52500,-6
24.53333,-6
24.54167,-7
24.55000,-7
24.55833,-8
24.56667,-7
24.57500,-7
24.58333,-8
24.59167,-8
24.60000,-8
24.60833,-7
24.61667,-7
24.62500,-7
24.63333,-6
24.64167,-7
24.65000,-7
24.65833,-7
24.66667,-8
24.67500,-8
24.68333,-8
24.69167,-8
24.70000,-8
24.70833,-8
24.71667,-8
24.72500,-8
24.73333,-8
24.74167,-8
24.75000,-9
24.75833,-9
24.76667,-9
24.77500,-9
24.78333,-10
24.79167,-10
24.80000,-9
24.80833,-10
24.81667,-10
24.82500,-11
24.83333,-11
24.84167,-11
24.85000,-11
24.85833,-12
24.86667,-12
24.87500,-11
24.88333,-12
24.89167,-13
24.90000,-13
24.90833,-13
24.91667,-13
24.92500,-12
24.93333,-12
24.94167,-12
24.95000,-12
24.95833,-13
24.96667,-13
24.97500,-13
24.98333,-13
24.99167,-14
25.00000,-14
25.00833,-15
25.01667,-15
25.02500,-15
25.03333,-15
25.04167,-15
25.05000,-15
25.05833,-15
25.06667,-15
25.07500,-16
25.08333,-17
25.09167,-18
25.10000,-18
25.10833,-18
25.11667,-18
25.12500,-19
25.13333,-19
25.14167,-21
25.15000,-21
25.15833,-21
25.16667,-21
25.17500,-21
25.18333,-21
25.19167,-21
25.20000,-21
25.20833,-20
25.21667,-20
25.22500,-20
25.23333,-20
25.24167,-20
25.25000,-21
25.25833,-21
25.26667,-21
25.27500,-21
25.28333,-20
25.29167,-20
25.30000,-21
25.30833,-21
25.31667,-20
25.32500,-19
25.33333,-19
25.34167,-19
25.35000,-19
25.35833,-20
25.36667,-21
25.37500,-21
25.38333,-20
25.39167,-20
25.40000,-21
25.40833,-21
25.41667,-22
25.42500,-22
25.43333,-21
25.44167,-20
25.45000,-21
25.45833,-20
25.46667,-20
25.47500,-20
25.48333,-21
25.49167,-22
25.50000,-22
25.50833,-22
25.51667,-22
25.52500,-22
25.53333,-22
25.54167,-22
25.55000,-22
25.55833,-23
25.56667,-22
25.57500,-21
25.58333,-21
25.59167,-22
25.60000,-22
25.60833,-21
25.61667,-21
25.62500,-21
25.63333,-22
25.64167,-22
25.65000,-21
25.65833,-20
25.66667,-20
25.67500,-20
25.68333,-21
25.69167,-21
25.70000,-21
25.70833,-21
25.71667,-21
25.72500,-21
25.73333,-22
25.74167,-22
25.75000,-22
25.75833,-23
25.76667,-23
25.77500,-23
25.78333,-24
25.79167,-24
25.80000,-24
25.80833,-24
25.81667,-25
25.82500,-25
25.83333,-26
25.84167,-25
25.85000,-24
25.85833,-23
25.86667,-23
25.87500,-23
25.88333,-22
25.89167,-23
25.90000,-24
25.90833,-25
25.91667,-24
25.92500,-24
25.93333,-23
25.94167,-23
25.95000,-24
25.95833,-25
25.96667,-25
25.97500,-24
25.98333,-24
25.99167,-24
26.00000,-24
26.00833,-24
26.01667,-25
26.02500,-26
26.03333,-26
26.04167,-26
26.05000,-25
26.05833,-25
26.06667,-25
26.07500,-26
26.08333,-26
26.09167,-25
26.10000,-25
26.10833,-25
26.11667,-25
26.12500,-25
26.13333,-24
26.14167,-24
26.15000,-24
26.15833,-24
26.16667,-25
26.17500,-25
26.18333,-25
26.19167,-26
26.20000,-26
26.20833,-25
26.21667,-25
26.22500,-26
26.23333,-26
26.24167,-26
26.25000,-25
26.25833,-25
26.26667,-25
26.27500,-26
26.28333,-26
26.29167,-26
26.30000,-27
26.30833,-27
26.31667,-27
26.32500,-27
26.33333,-26
26.34167,-26
26.35000,-26
26.35833,-26
26.36667,-26
26.37500,-26
26.38333,-27
26.39167,-27
26.40000,-26
26.40833,-26
26.41667,-26
26.42500,-25
26.43333,-26
26.44167,-26
26.45000,-27
26.45833,-27
26.46667,-26
26.47500,-26
26.48333,-26
26.49167,-26
26.50000,-26
26.50833,-26
26.51667,-26
26.52500,-25
26.53333,-25
26.54167,-24
26.55000,-24
26.55833,-25
26.56667,-25
26.57500,-25
26.58333,-25
26.59167,-26
26.60000,-27
26.60833,-26
26.61667,-26
26.62500,-26
26.63333,-26
26.64167,-27
26.65000,-28
26.65833,-29
26.66667,-28
26.67500,-28
26.68333,-28
26.69167,-28
26.70000,-29
26.70833,-28
26.71667,-27
26.72500,-27
26.73333,-27
26.74167,-27
26.75000,-27
26.75833,-27
26.76667,-27
26.77500,-28
26.78333,-28
26.79167,-29
26.80000,-28
26.80833,-28
26.81667,-27
26.82500,-27
26.83333,-27
26.84167,-27
26.85000,-28
26.85833,-29
26.86667,-28
26.87500,-27
26.88333,-26
26.89167,-27
26.90000,-27
26.90833,-27
26.91667,-27
26.92500,-28
26.93333,-29
26.94167,-29
26.95000,-29
26.95833,-29
26.96667,-29
26.97500,-30
26.98333,-29
26.99167,-29
27.00000,-30
27.00833,-32
27.01667,-32
27.02500,-31
27.03333,-30
27.04167,-29
27.05000,-29
27.05833,-29
27.06667,-29
27.07500,-29
27.08333,-28
27.09167,-28
27.10000,-27
27.10833,-27
27.11667,-27
27.12500,-26
27.13333,-27
27.14167,-28
27.15000,-29
27.15833,-29
27.16667,-29
27.17500,-30
27.18333,-29
27.19167,-28
27.20000,-28
27.20833,-29
27.21667,-30
27.22500,-30
27.23333,-30
27.24167,-30
27.25000,-30
27.25833,-30
27.26667,-29
27.27500,-29
27.28333,-29
27.29167,-30
27.30000,-30
27.30833,-30
27.31667,-30
27.32500,-31
27.33333,-30
27.34167,-28
27.35000,-28
27.35833,-29
27.36667,-30
27.37500,-31
27.38333,-31
27.39167,-30
27.40000,-30
27.40833,-29
27.41667,-30
27.42500,-30
27.43333,-31
27.44167,-31
27.45000,-32
27.45833,-32
27.46667,-33
27.47500,-33
27.48333,-32
27.49167,-31
27.50000,-30
27.50833,-30
27.51667,-30
27.52500,-30
27.53333,-30
27.54167,-30
27.55000,-31
27.55833,-32
27.56667,-32
27.57500,-32
27.58333,-32
27.59167,-32
27.60000,-32
27.60833,-33
27.61667,-33
27.62500,-33
27.63333,-33
27.64167,-33
27.65000,-32
27.65833,-31
27.66667,-31
27.67500,-31
27.68333,-32
27.69167,-33
27.70000,-33
27.70833,-33
27.71667,-34
27.72500,-33
27.73333,-33
27.74167,-32
27.75000,-32
27.75833,-31
27.76667,-30
27.77500,-30
27.78333,-30
27.79167,-30
27.80000,-31
27.80833,-30
27.81667,-31
27.82500,-31
27.83333,-32
27.84167,-33
27.85000,-32
27.85833,-31
27.86667,-32
27.87500,-33
27.88333,-33
27.89167,-32
27.90000,-33
27.90833,-33
27.91667,-33
27.92500,-32
27.93333,-32
27.94167,-32
27.95000,-32
27.95833,-32
27.96667,-33
27.97500,-33
27.98333,-33
27.99167,-34
28.00000,-33
28.00833,-33
28.01667,-32
28.02500,-32
28.03333,-33
28.04167,-34
28.05000,-33
28.05833,-32
28.06667,-31
28.07500,-31
28.08333,-31
28.09167,-31
28.10000,-32
28.10833,-32
28.11667,-33
28.12500,-32
28.13333,-31
28.14167,-31
28.15000,-31
28.15833,-32
28.16667,-32
28.17500,-32
28.18333,-32
28.19167,-31
28.20000,-31
28.20833,-31
28.21667,-31
28.22500,-31
28.23333,-32
28.24167,-32
28.25000,-32
28.25833,-32
28.26667,-32
28.27500,-32
28.28333,-31
28.29167,-31
28.30000,-30
28.30833,-30
28.31667,-30
28.32500,-30
28.33333,-31
28.34167,-31
28.35000,-31
28.35833,-30
28.36667,-30
28.37500,-30
28.38333,-30
28.39167,-30
28.40000,-30
28.40833,-29
28.41667,-29
28.42500,-29
28.43333,-29
28.44167,-28
28.45000,-28
28.45833,-29
28.46667,-29
28.47500,-30
28.48333,-30
28.49167,-31
28.50000,-31
28.50833,-30
28.51667,-30
28.52500,-30
28.53333,-31
28.54167,-31
28.55000,-32
28.55833,-32
28.56667,-31
28.57500,-30
28.58333,-29
28.59167,-28
28.60000,-28
28.60833,-28
28.61667,-29
28.62500,-29
28.63333,-29
28.64167,-30
28.65000,-30
28.65833,-29
28.66667,-28
28.67500,-28
28.68333,-28
28.69167,-28
28.70000,-28
28.70833,-29
28.71667,-29
28.72500,-30
28.73333,-31
28.74167,-31
28.75000,-32
28.75833,-32
28.76667,-31
28.77500,-31
28.78333,-30
28.79167,-30
28.80000,-30
28.80833,-30
28.81667,-30
28.82500,-30
28.83333,-30
28.84167,-30
28.85000,-30
28.85833,-30
28.86667,-29
28.87500,-29
28.88333,-29
28.89167,-30
28.90000,-31
28.90833,-31
28.91667,-32
28.92500,-32
28.93333,-31
28.94167,-31
28.95000,-31
28.95833,-31
28.96667,-31
28.97500,-32
28.98333,-32
28.99167,-33
29.00000,-33
29.00833,-33
29.01667,-33
29.02500,-34
29.03333,-33
29.04167,-33
29.05000,-34
29.05833,-35
29.06667,-34
29.07500,-34
29.08333,-34
29.09167,-33
29.10000,-33
29.10833,-34
29.11667,-35
29.12500,-35
29.13333,-36
29.14167,-37
29.15000,-37
29.15833,-37
29.16667,-36
29.17500,-36
29.18333,-35
29.19167,-35
29.20000,-36
29.20833,-36
29.21667,-37
29.22500,-38
29.23333,-37
29.24167,-37
29.25000,-36
29.25833,-36
29.26667,-37
29.27500,-38
29.28333,-39
29.29167,-38
29.30000,-38
29.30833,-37
29.31667,-36
29.32500,-36
29.33333,-36
29.34167,-37
29.35000,-38
29.35833,-39
29.36667,-40
29.37500,-40
29.38333,-40
29.39167,-39
29.40000,-38
29.40833,-39
29.41667,-39
29.42500,-39
29.43333,-39
29.44167,-39
29.45000,-39
29.45833,-39
29.46667,-38
29.47500,-39
29.48333,-39
29.49167,-39
29.50000,-39
29.50833,-40
29.51667,-40
29.52500,-40
29.53333,-40
29.54167,-40
29.55000,-40
29.55833,-40
29.56667,-40
29.57500,-41
29.58333,-41
29.59167,-42
29.60000,-42
29.60833,-41
29.61667,-40
29.62500,-39
29.63333,-39
29.64167,-39
29.65000,-40
29.65833,-41
29.66667,-41
29.67500,-41
29.68333,-41
29.69167,-40
29.70000,-41
29.70833,-42
29.71667,-42
29.72500,-42
29.73333,-42
29.74167,-42
29.75000,-42
29.75833,-42
29.76667,-42
29.77500,-42
29.78333,-42
29.79167,-42
29.80000,-42
29.80833,-42
29.81667,-43
29.82500,-43
29.83333,-42
29.84167,-42
29.85000,-43
29.85833,-44
29.86667,-44
29.87500,-43
29.88333,-43
29.89167,-42
29.90000,-41
29.90833,-40
29.91667,-40
29.92500,-41
29.93333,-42
29.94167,-42
29.95000,-42
29.95833,-42
29.96667,-43
29.97500,-43
29.98333,-41
29.99167,-41
30.00000,-41

[LC Chromatogram(Detector B-Ch1)]
Interval(msec),500
# of Points,3601
Start Time(min),0.000
End Time(min),30.000
Intensity Units,mV
Intensity Multiplier,0.001
R.Time (min),Intensity
0.00000,2
0.00833,2
0.01667,1
0.02500,1
0.03333,1
0.04167,1
0.05000,1
0.05833,1
0.06667,1
0.07500,1
0.08333,1
0.09167,1
0.10000,2
0.10833,2
0.11667,2
0.12500,1
0.13333,1
0.14167,1
0.15000,1
0.15833,2
0.16667,2
0.17500,2
0.18333,2
0.19167,2
0.20000,2
0.20833,2
0.21667,2
0.22500,2
0.23333,2
0.24167,2
0.25000,2
0.25833,2
0.26667,2
0.27500,2
0.28333,2
0.29167,2
0.30000,2
0.30833,2
0.31667,2
0.32500,2
0.33333,2
0.34167,2
0.35000,2
0.35833,3
0.36667,3
0.37500,2
0.38333,2
0.39167,3
0.40000,3
0.40833,3
0.41667,3
0.42500,3
0.43333,3
0.44167,3
0.45000,3
0.45833,3
0.46667,3
0.47500,3
0.48333,3
0.49167,3
0.50000,3
0.50833,3
0.51667,3
0.52500,3
0.53333,3
0.54167,2
0.55000,2
0.55833,2
0.56667,3
0.57500,3
0.58333,3
0.59167,4
0.60000,4
0.60833,4
0.61667,4
0.62500,3
0.63333,3
0.64167,3
0.65000,3
0.65833,3
0.66667,3
0.67500,3
0.68333,3
0.69167,3
0.70000,3
0.70833,3
0.71667,3
0.72500,3
0.73333,3
0.74167,3
0.75000,3
0.75833,3
0.76667,3
0.77500,3
0.78333,3
0.79167,3
0.80000,3
0.80833,3
0.81667,3
0.82500,3
0.83333,3
0.84167,3
0.85000,3
0.85833,3
0.86667,2
0.87500,2
0.88333,2
0.89167,3
0.90000,3
0.90833,3
0.91667,3
0.92500,3
0.93333,3
0.94167,3
0.95000,4
0.95833,4
0.96667,4
0.97500,4
0.98333,5
0.99167,5
1.00000,5
1.00833,4
1.01667,4
1.02500,4
1.03333,4
1.04167,4
1.05000,5
1.05833,5
1.06667,4
1.07500,4
1.08333,5
1.09167,5
1.10000,4
1.10833,4
1.11667,4
1.12500,4
1.13333,4
1.14167,4
1.15000,4
1.15833,4
1.16667,4
1.17500,4
1.18333,4
1.19167,4
1.20000,5
1.20833,5
1.21667,5
1.22500,5
1.23333,5
1.24167,5
1.25000,5
1.25833,5
1.26667,5
1.27500,5
1.28333,5
1.29167,5
1.30000,5
1.30833,5
1.31667,5
1.32500,5
1.33333,5
1.34167,5
1.35000,5
1.35833,4
1.36667,4
1.37500,4
1.38333,5
1.39167,5
1.40000,5
1.40833,6
1.41667,6
1.42500,6
1.43333,6
1.44167,6
1.45000,6
1.45833,5
1.46667,5
1.47500,6
1.48333,6
1.49167,6
1.50000,6
1.50833,6
1.51667,6
1.52500,6
1.53333,6
1.54167,6
1.55000,6
1.55833,6
1.56667,6
1.57500,6
1.58333,6
1.59167,6
1.60000,6
1.60833,7
1.61667,7
1.62500,7
1.63333,7
1.64167,7
1.65000,7
1.65833,7
1.66667,7
1.67500,7
1.68333,7
1.69167,7
1.70000,7
1.70833,7
1.71667,7
1.72500,7
1.73333,7
1.74167,7
1.75000,7
1.75833,6
1.76667,6
1.77500,6
1.78333,6
1.79167,6
1.80000,6
1.80833,7
1.81667,7
1.82500,7
1.83333,8
1.84167,8
1.85000,7
1.85833,7
1.86667,8
1.87500,8
1.88333,8
1.89167,8
1.90000,8
1.90833,8
1.91667,8
1.92500,8
1.93333,7
1.94167,7
1.95000,7
1.95833,6
1.96667,6
1.97500,6
1.98333,7
1.99167,7
2.00000,8
2.00833,8
2.01667,8
2.02500,8
2.03333,8
2.04167,8
2.05000,7
2.05833,7
2.06667,7
2.07500,8
2.08333,8
2.09167,8
2.10000,8
2.10833,8
2.11667,7
2.12500,7
2.13333,7
2.14167,7
2.15000,6
2.15833,6
2.16667,6
2.17500,6
2.18333,6
2.19167,6
2.20000,6
2.20833,6
2.21667,6
2.22500,7
2.23333,7
2.24167,7
2.25000,7
2.25833,6
2.26667,6
2.27500,6
2.28333,5
2.29167,5
2.30000,5
2.30833,5
2.31667,4
2.32500,4
2.33333,4
2.34167,4
2.35000,4
2.35833,4
2.36667,4
2.37500,4
2.38333,4
2.39167,4
2.40000,4
2.40833,4
2.41667,3
2.42500,3
2.43333,4
2.44167,4
2.45000,4
2.45833,3
2.46667,3
2.47500,3
2.48333,3
2.49167,2
2.50000,2
2.50833,1
2.51667,1
2.52500,1
2.53333,1
2.54167,1
2.55000,1
2.55833,1
2.56667,1
2.57500,1
2.58333,2
2.59167,2
2.60000,2
2.60833,2
2.61667,2
2.62500,2
2.63333,1
2.64167,1
2.65000,1
2.65833,1
2.66667,1
2.67500,1
2.68333,1
2.69167,1
2.70000,1
2.70833,1
2.71667,1
2.72500,1
2.73333,1
2.74167,1
2.75000,1
2.75833,1
2.76667,1
2.77500,0
2.78333,0
2.79167,0
2.80000,0
2.80833,0
2.81667,0
2.82500,0
2.83333,0
2.84167,1
2.85000,1
2.85833,1
2.86667,1
2.87500,1
2.88333,1
2.89167,1
2.90000,1
2.90833,1
2.91667,1
2.92500,1
2.93333,0
2.94167,0
2.95000,1
2.95833,1
2.96667,1
2.97500,1
2.98333,2
2.99167,1
3.00000,2
3.00833,2
3.01667,2
3.02500,2
3.03333,2
3.04167,2
3.05000,2
3.05833,2
3.06667,3
3.07500,3
3.08333,3
3.09167,3
3.10000,3
3.10833,3
3.11667,3
3.12500,3
3.13333,3
3.14167,3
3.15000,3
3.15833,3
3.16667,3
3.17500,4
3.18333,4
3.19167,4
3.20000,4
3.20833,5
3.21667,5
3.22500,5
3.23333,5
3.24167,5
3.25000,5
3.25833,5
3.26667,5
3.27500,6
3.28333,6
3.29167,6
3.30000,6
3.30833,5
3.31667,5
3.32500,5
3.33333,5
3.34167,6
3.35000,6
3.35833,6
3.36667,6
3.37500,6
3.38333,7
3.39167,7
3.40000,8
3.40833,8
3.41667,8
3.42500,8
3.43333,7
3.44167,8
3.45000,8
3.45833,8
3.46667,8
3.47500,8
3.48333,8
3.49167,8
3.50000,8
3.50833,9
3.51667,9
3.52500,9
3.53333,8
3.54167,8
3.55000,8
3.55833,8
3.56667,8
3.57500,8
3.58333,8
3.59167,8
3.60000,8
3.60833,8
3.61667,9
3.62500,9
3.63333,9
3.64167,9
3.65000,9
3.65833,9
3.66667,9
3.67500,9
3.68333,9
3.69167,9
3.70000,9
3.70833,9
3.71667,9
3.72500,10
3.73333,10
3.74167,10
3.75000,10
3.75833,10
3.76667,10
3.77500,10
3.78333,9
3.79167,9
3.80000,9
3.80833,9
3.81667,10
3.82500,10
3.83333,9
3.84167,9
3.85000,10
3.85833,10
3.86667,10
3.87500,10
3.88333,10
3.89167,10
3.90000,10
3.90833,10
3.91667,10
3.92500,11
3.93333,11
3.94167,11
3.95000,11
3.95833,11
3.96667,12
3.97500,12
3.98333,11
3.99167,11
4.00000,11
4.00833,10
4.01667,11
4.02500,11
4.03333,11
4.04167,11
4.05000,11
4.05833,12
4.06667,12
4.07500,11
4.08333,11
4.09167,11
4.10000,11
4.10833,11
4.11667,11
4.12500,11
4.13333,11
4.14167,11
4.15000,11
4.15833,11
4.16667,11
4.17500,11
4.18333,11
4.19167,11
4.20000,12
4.20833,12
4.21667,12
4.22500,12
4.23333,12
4.24167,11
4.25000,11
4.25833,11
4.26667,11
4.27500,11
4.28333,11
4.29167,11
4.30000,11
4.30833,11
4.31667,11
4.32500,11
4.33333,11
4.34167,11
4.35000,12
4.35833,12
4.36667,12
4.37500,12
4.38333,12
4.39167,12
4.40000,12
4.40833,12
4.41667,12
4.42500,12
4.43333,12
4.44167,13
4.45000,13
4.45833,13
4.46667,13
4.47500,13
4.48333,13
4.49167,14
4.50000,13
4.50833,13
4.51667,13
4.52500,13
4.53333,13
4.54167,13
4.55000,13
4.55833,13
4.56667,13
4.57500,13
4.58333,13
4.59167,13
4.60000,13
4.60833,13
4.61667,13
4.62500,13
4.63333,13
4.64167,13
4.65000,13
4.65833,13
4.66667,14
4.67500,14
4.68333,14
4.69167,14
4.70000,14
4.70833,13
4.71667,13
4.72500,13
4.73333,12
4.74167,12
4.75000,12
4.75833,12
4.76667,11
4.77500,11
4.78333,12
4.79167,12
4.80000,12
4.80833,12
4.81667,12
4.82500,13
4.83333,13
4.84167,14
4.85000,14
4.85833,14
4.86667,14
4.87500,14
4.88333,14
4.89167,14
4.90000,14
4.90833,14
4.91667,13
4.92500,13
4.93333,13
4.94167,13
4.95000,13
4.95833,14
4.96667,13
4.97500,14
4.98333,14
4.99167,14
5.00000,14
5.00833,14
5.01667,14
5.02500,14
5.03333,14
5.04167,14
5.05000,14
5.05833,14
5.06667,14
5.07500,14
5.08333,14
5.09167,15
5.10000,15
5.10833,14
5.11667,14
5.12500,14
5.13333,14
5.14167,14
5.15000,14
5.15833,14
5.16667,14
5.17500,14
5.18333,15
5.19167,15
5.20000,15
5.20833,15
5.21667,15
5.22500,15
5.23333,15
5.24167,15
5.25000,15
5.25833,15
5.26667,15
5.27500,15
5.28333,15
5.29167,15
5.30000,15
5.30833,14
5.31667,14
5.32500,14
5.33333,14
5.34167,14
5.35000,15
5.35833,15
5.36667,14
5.37500,14
5.38333,15
5.39167,15
5.40000,15
5.40833,15
5.41667,15
5.42500,15
5.43333,15
5.44167,15
5.45000,15
5.45833,15
5.46667,16
5.47500,16
5.48333,16
5.49167,16
5.50000,16
5.50833,15
5.51667,14
5.52500,14
5.53333,14
5.54167,14
5.55000,14
5.55833,15
5.56667,15
5.57500,15
5.58333,15
5.59167,15
5.60000,16
5.60833,16
5.61667,16
5.62500,16
5.63333,16
5.64167,16
5.65000,16
5.65833,16
5.66667,16
5.67500,16
5.68333,16
5.69167,16
5.70000,16
5.70833,16
5.71667,16
5.72500,16
5.73333,16
5.74167,16
5.75000,16
5.75833,16
5.76667,16
5.77500,16
5.78333,16
5.79167,17
5.80000,17
5.80833,17
5.81667,17
5.82500,16
5.83333,16
5.84167,16
5.85000,17
5.85833,17
5.86667,17
5.87500,17
5.88333,18
5.89167,18
5.90000,18
5.90833,18
5.91667,18
5.92500,18
5.93333,18
5.94167,18
5.95000,18
5.95833,18
5.96667,18
5.97500,18
5.98333,18
5.99167,18
6.00000,18
6.00833,18
6.01667,18
6.02500,18
6.03333,18
6.04167,18
6.05000,19
6.05833,19
6.06667,19
6.07500,19
6.08333,19
6.09167,19
6.10000,19
6.10833,19
6.11667,19
6.12500,19
6.13333,19
6.14167,19
6.15000,20
6.15833,20
6.16667,19
6.17500,19
6.18333,19
6.19167,19
6.20000,19
6.20833,19
6.21667,19
6.22500,20
6.23333,20
6.24167,21
6.25000,21
6.25833,21
6.26667,21
6.27500,21
6.28333,21
6.29167,21
6.30000,21
6.30833,21
6.31667,21
6.32500,22
6.33333,22
6.34167,22
6.35000,22
6.35833,22
6.36667,22
6.37500,21
6.38333,21
6.39167,21
6.40000,21
6.40833,21
6.41667,22
6.42500,22
6.43333,22
6.44167,22
6.45000,22
6.45833,22
6.46667,22
6.47500,22
6.48333,22
6.49167,22
6.50000,22
6.50833,22
6.51667,22
6.52500,22
6.53333,22
6.54167,22
6.55000,22
6.55833,22
6.56667,22
6.57500,23
6.58333,23
6.59167,23
6.60000,23
6.60833,23
6.61667,23
6.62500,23
6.63333,23
6.64167,24
6.65000,24
6.65833,24
6.66667,24
6.67500,24
6.68333,23
6.69167,23
6.70000,23
6.70833,23
6.71667,23
6.72500,23
6.73333,23
6.74167,23
6.75000,24
6.75833,24
6.76667,23
6.77500,24
6.78333,24
6.79167,24
6.80000,25
6.80833,25
6.81667,25
6.82500,25
6.83333,24
6.84167,24
6.85000,24
6.85833,24
6.86667,24
6.87500,24
6.88333,24
6.89167,24
6.90000,24
6.90833,25
6.91667,24
6.92500,24
6.93333,24
6.94167,24
6.95000,24
6.95833,24
6.96667,24
6.97500,24
6.98333,24
6.99167,24
7.00000,25
7.00833,25
7.01667,25
7.02500,25
7.03333,25
7.04167,25
7.05000,24
7.05833,24
7.06667,24
7.07500,24
7.08333,23
7.09167,24
7.10000,24
7.10833,24
7.11667,24
7.12500,24
7.13333,24
7.14167,24
7.15000,24
7.15833,24
7.16667,24
7.17500,24
7.18333,24
7.19167,24
7.20000,24
7.20833,24
7.21667,24
7.22500,24
7.23333,24
7.24167,24
7.25000,24
7.25833,24
7.26667,24
7.27500,24
7.28333,24
7.29167,24
7.30000,24
7.30833,24
7.31667,24
7.32500,23
7.33333,23
7.34167,23
7.35000,24
7.35833,24
7.36667,24
7.37500,24
7.38333,23
7.39167,23
7.40000,23
7.40833,23
7.41667,23
7.42500,23
7.43333,23
7.44167,23
7.45000,23
7.45833,23
7.46667,23
7.47500,23
7.48333,23
7.49167,23
7.50000,23
7.50833,24
7.51667,24
7.52500,23
7.53333,23
7.54167,23
7.55000,23
7.55833,23
7.56667,23
7.57500,23
7.58333,23
7.59167,23
7.60000,23
7.60833,22
7.61667,22
7.62500,22
7.63333,22
7.64167,22
7.65000,22
7.65833,23
7.66667,23
7.67500,23
7.68333,23
7.69167,23
7.70000,22
7.70833,22
7.71667,22
7.72500,22
7.73333,22
7.74167,22
7.75000,22
7.75833,22
7.76667,22
7.77500,22
7.78333,22
7.79167,21
7.80000,21
7.80833,21
7.81667,21
7.82500,21
7.83333,21
7.84167,21
7.85000,21
7.85833,21
7.86667,21
7.87500,21
7.88333,22
7.89167,22
7.90000,22
7.90833,22
7.91667,22
7.92500,22
7.93333,21
7.94167,21
7.95000,21
7.95833,21
7.96667,21
7.97500,21
7.98333,21
7.99167,21
8.00000,20
8.00833,21
8.01667,21
8.02500,21
8.03333,21
8.04167,21
8.05000,21
8.05833,21
8.06667,21
8.07500,21
8.08333,20
8.09167,20
8.10000,21
8.10833,21
8.11667,21
8.12500,21
8.13333,21
8.14167,21
8.15000,21
8.15833,21
8.16667,21
8.17500,21
8.18333,21
8.19167,21
8.20000,21
8.20833,21
8.21667,21
8.22500,22
8.23333,22
8.24167,22
8.25000,21
8.25833,20
8.26667,20
8.27500,20
8.28333,20
8.29167,20
8.30000,20
8.30833,20
8.31667,20
8.32500,20
8.33333,20
8.34167,20
8.35000,20
8.35833,20
8.36667,21
8.37500,21
8.38333,21
8.39167,21
8.40000,20
8.40833,20
8.41667,20
8.42500,20
8.43333,20
8.44167,20
8.45000,20
8.45833,20
8.46667,20
8.47500,20
8.48333,19
8.49167,19
8.50000,19
8.50833,19
8.51667,19
8.52500,19
8.53333,19
8.54167,19
8.55000,19
8.55833,20
8.56667,20
8.57500,20
8.58333,20
8.59167,21
8.60000,21
8.60833,21
8.61667,21
8.62500,21
8.63333,20
8.64167,20
8.65000,20
8.65833,20
8.66667,20
8.67500,20
8.68333,20
8.69167,20
8.70000,20
8.70833,20
8.71667,20
8.72500,20
8.73333,20
8.74167,20
8.75000,20
8.75833,20
8.76667,20
8.77500,20
8.78333,20
8.79167,21
8.80000,21
8.80833,21
8.81667,20
8.82500,20
8.83333,20
8.84167,20
8.85000,20
8.85833,19
8.86667,20
8.87500,20
8.88333,20
8.89167,20
8.90000,21
8.90833,21
8.91667,21
8.92500,20
8.93333,20
8.94167,20
8.95000,20
8.95833,20
8.96667,20
8.97500,20
8.98333,20
8.99167,21
9.00000,21
9.00833,21
9.01667,21
9.02500,21
9.03333,21
9.04167,21
9.05000,21
9.05833,21
9.06667,21
9.07500,21
9.08333,21
9.09167,21
9.10000,21
9.10833,21
9.11667,21
9.12500,21
9.13333,21
9.14167,21
9.15000,21
9.15833,21
9.16667,22
9.17500,22
9.18333,22
9.19167,21
9.20000,21
9.20833,21
9.21667,21
9.22500,21
9.23333,21
9.24167,21
9.25000,21
9.25833,21
9.26667,21
9.27500,22
9.28333,21
9.29167,21
9.30000,21
9.30833,21
9.31667,21
9.32500,21
9.33333,21
9.34167,22
9.35000,22
9.35833,22
9.36667,22
9.37500,22
9.38333,22
9.39167,22
9.40000,22
9.40833,22
9.41667,22
9.42500,23
9.43333,22
9.44167,22
9.45000,22
9.45833,22
9.46667,22
9.47500,21
9.48333,21
9.49167,21
9.50000,21
9.50833,22
9.51667,22
9.52500,22
9.53333,22
9.54167,22
9.55000,22
9.55833,22
9.56667,22
9.57500,22
9.58333,22
9.59167,22
9.60000,22
9.60833,22
9.61667,22
9.62500,22
9.63333,22
9.64167,22
9.65000,23
9.65833,23
9.66667,23
9.67500,23
9.68333,23
9.69167,23
9.70000,23
9.70833,23
9.71667,23
9.72500,23
9.73333,23
9.74167,23
9.75000,23
9.75833,23
9.76667,23
9.77500,23
9.78333,23
9.79167,23
9.80000,23
9.80833,23
9.81667,23
9.82500,23
9.83333,23
9.84167,23
9.85000,23
9.85833,22
9.86667,22
9.87500,22
9.88333,23
9.89167,23
9.90000,23
9.90833,23
9.91667,23
9.92500,23
9.93333,22
9.94167,22
9.95000,22
9.95833,22
9.96667,22
9.97500,23
9.98333,23
9.99167,23
10.00000,23
10.00833,23
10.01667,23
10.02500,24
10.03333,24
10.04167,24
10.05000,24
10.05833,24
10.06667,23
10.07500,24
10.08333,24
10.09167,24
10.10000,24
10.10833,24
10.11667,24
10.12500,24
10.13333,24
10.14167,24
10.15000,24
10.15833,23
10.16667,23
10.17500,23
10.18333,23
10.19167,23
10.20000,23
10.20833,23
10.21667,23
10.22500,23
10.23333,23
10.24167,24
10.25000,24
10.25833,24
10.26667,24
10.27500,25
10.28333,25
10.29167,24
10.30000,24
10.30833,24
10.31667,24
10.32500,24
10.33333,24
10.34167,24
10.35000,24
10.35833,24
10.36667,23
10.37500,23
10.38333,23
10.39167,23
10.40000,23
10.40833,23
10.41667,22
10.42500,22
10.43333,21
10.44167,20
10.45000,18
10.45833,15
10.46667,12
10.47500,8
10.48333,3
10.49167,-4
10.50000,-14
10.50833,-25
10.51667,-39
10.52500,-57
10.53333,-79
10.54167,-106
10.55000,-138
10.55833,-176
10.56667,-221
10.57500,-273
10.58333,-334
10.59167,-403
10.60000,-481
10.60833,-567
10.61667,-663
10.62500,-769
10.63333,-884
10.64167,-1007
10.65000,-1138
10.65833,-1277
10.66667,-1421
10.67500,-1572
10.68333,-1726
10.69167,-1885
10.70000,-2045
10.70833,-2206
10.71667,-2366
10.72500,-2526
10.73333,-2683
10.74167,-2837
10.75000,-2987
10.75833,-3132
10.76667,-3271
10.77500,-3404
10.78333,-3530
10.79167,-3648
10.80000,-3758
10.80833,-3860
10.81667,-3952
10.82500,-4036
10.83333,-4110
10.84167,-4175
10.85000,-4229
10.85833,-4273
10.86667,-4307
10.87500,-4331
10.88333,-4344
10.89167,-4346
10.90000,-4338
10.90833,-4320
10.91667,-4292
10.92500,-4254
10.93333,-4207
10.94167,-4150
10.95000,-4086
10.95833,-4013
10.96667,-3934
10.97500,-3847
10.98333,-3755
10.99167,-3656
11.00000,-3554
11.00833,-3447
11.01667,-3337
11.02500,-3224
11.03333,-3110
11.04167,-2995
11.05000,-2879
11.05833,-2763
11.06667,-2647
11.07500,-2533
11.08333,-2420
11.09167,-2309
11.10000,-2201
11.10833,-2095
11.11667,-1992
11.12500,-1892
11.13333,-1795
11.14167,-1702
11.15000,-1612
11.15833,-1525
11.16667,-1442
11.17500,-1363
11.18333,-1287
11.19167,-1214
11.20000,-1145
11.20833,-1080
11.21667,-1017
11.22500,-958
11.23333,-902
11.24167,-849
11.25000,-799
11.25833,-752
11.26667,-707
11.27500,-664
11.28333,-624
11.29167,-586
11.30000,-551
11.30833,-518
11.31667,-486
11.32500,-457
11.33333,-429
11.34167,-403
11.35000,-379
11.35833,-356
11.36667,-335
11.37500,-315
11.38333,-296
11.39167,-278
11.40000,-260
11.40833,-244
11.41667,-229
11.42500,-215
11.43333,-202
11.44167,-190
11.45000,-178
11.45833,-167
11.46667,-157
11.47500,-148
11.48333,-139
11.49167,-130
11.50000,-123
11.50833,-115
11.51667,-108
11.52500,-102
11.53333,-96
11.54167,-91
11.55000,-86
11.55833,-81
11.56667,-76
11.57500,-72
11.58333,-67
11.59167,-64
11.60000,-60
11.60833,-56
11.61667,-53
11.62500,-50
11.63333,-47
11.64167,-44
11.65000,-41
11.65833,-38
11.66667,-36
11.67500,-34
11.68333,-32
11.69167,-30
11.70000,-28
11.70833,-26
11.71667,-24
11.72500,-23
11.73333,-21
11.74167,-20
11.75000,-19
11.75833,-17
11.76667,-16
11.77500,-15
11.78333,-14
11.79167,-13
11.80000,-12
11.80833,-11
11.81667,-11
11.82500,-10
11.83333,-9
11.84167,-8
11.85000,-7
11.85833,-6
11.86667,-5
11.87500,-4
11.88333,-4
11.89167,-3
11.90000,-3
11.90833,-2
11.91667,-1
11.92500,-1
11.93333,-0
11.94167,-0
11.95000,0
11.95833,1
11.96667,1
11.97500,2
11.98333,2
11.99167,3
12.00000,3
12.00833,2
12.01667,3
12.02500,3
12.03333,3
12.04167,3
12.05000,3
12.05833,3
12.06667,3
12.07500,4
12.08333,4
12.09167,5
12.10000,5
12.10833,5
12.11667,5
12.12500,5
12.13333,5
12.14167,6
12.15000,6
12.15833,6
12.16667,7
12.17500,7
12.18333,7
12.19167,7
12.20000,7
12.20833,7
12.21667,8
12.22500,8
12.23333,8
12.24167,8
12.25000,8
12.25833,8
12.26667,8
12.27500,9
12.28333,9
12.29167,9
12.30000,10
12.30833,10
12.31667,10
12.32500,10
12.33333,10
12.34167,10
12.35000,10
12.35833,10
12.36667,10
12.37500,10
12.38333,10
12.39167,10
12.40000,10
12.40833,11
12.41667,11
12.42500,11
12.43333,12
12.44167,12
12.45000,12
12.45833,12
12.46667,12
12.47500,12
12.48333,13
12.49167,13
12.50000,13
12.50833,13
12.51667,13
12.52500,13
12.53333,13
12.54167,13
12.55000,14
12.55833,14
12.56667,14
12.57500,14
12.58333,15
12.59167,15
12.60000,15
12.60833,15
12.61667,15
12.62500,15
12.63333,15
12.64167,15
12.65000,15
12.65833,15
12.66667,15
12.67500,15
12.68333,15
12.69167,15
12.70000,15
12.70833,15
12.71667,15
12.72500,15
12.73333,15
12.74167,15
12.75000,15
12.75833,15
12.76667,15
12.77500,15
12.78333,15
12.79167,15
12.80000,15
12.80833,16
12.81667,16
12.82500,16
12.83333,16
12.84167,16
12.85000,16
12.85833,16
12.86667,16
12.87500,16
12.88333,16
12.89167,16
12.90000,16
12.90833,17
12.91667,17
12.92500,17
12.93333,17
12.94167,17
12.95000,17
12.95833,17
12.96667,18
12.97500,17
12.98333,17
12.99167,17
13.00000,17
13.00833,17
13.01667,17
13.02500,17
13.03333,18
13.04167,18
13.05000,18
13.05833,18
13.06667,18
13.07500,18
13.08333,18
13.09167,18
13.10000,18
13.10833,18
13.11667,18
13.12500,18
13.13333,18
13.14167,18
13.15000,18
13.15833,18
13.16667,18
13.17500,18
13.18333,18
13.19167,18
13.20000,18
13.20833,19
13.21667,19
13.22500,19
13.23333,20
13.24167,20
13.25000,20
13.25833,20
13.26667,20
13.27500,20
13.28333,19
13.29167,19
13.30000,19
13.30833,19
13.31667,19
13.32500,19
13.33333,20
13.34167,20
13.35000,20
13.35833,20
13.36667,20
13.37500,20
13.38333,20
13.39167,20
13.40000,20
13.40833,20
13.41667,19
13.42500,19
13.43333,20
13.44167,20
13.45000,19
13.45833,19
13.46667,19
13.47500,19
13.48333,19
13.49167,20
13.50000,20
13.50833,20
13.51667,21
13.52500,21
13.53333,21
13.54167,21
13.55000,21
13.55833,21
13.56667,20
13.57500,20
13.58333,20
13.59167,20
13.60000,20
13.60833,20
13.61667,20
13.62500,20
13.63333,21
13.64167,21
13.65000,21
13.65833,20
13.66667,20
13.67500,21
13.68333,21
13.69167,21
13.70000,21
13.70833,22
13.71667,22
13.72500,22
13.73333,21
13.74167,21
13.75000,22
13.75833,22
13.76667,22
13.77500,22
13.78333,22
13.79167,22
13.80000,22
13.80833,22
13.81667,22
13.82500,22
13.83333,21
13.84167,21
13.85000,22
13.85833,21
13.86667,21
13.87500,21
13.88333,21
13.89167,21
13.90000,22
13.90833,22
13.91667,22
13.92500,22
13.93333,22
13.94167,22
13.95000,22
13.95833,22
13.96667,22
13.97500,22
13.98333,22
13.99167,22
14.00000,22
14.00833,22
14.01667,22
14.02500,22
14.03333,22
14.04167,22
14.05000,22
14.05833,22
14.06667,22
14.07500,22
14.08333,22
14.09167,22
14.10000,22
14.10833,22
14.11667,21
14.12500,21
14.13333,21
14.14167,21
14.15000,21
14.15833,22
14.16667,22
14.17500,22
14.18333,22
14.19167,22
14.20000,22
14.20833,23
14.21667,23
14.22500,23
14.23333,23
14.24167,23
14.25000,22
14.25833,22
14.26667,22
14.27500,22
14.28333,22
14.29167,22
14.30000,22
14.30833,22
14.31667,22
14.32500,22
14.33333,22
14.34167,22
14.35000,23
14.35833,23
14.36667,23
14.37500,23
14.38333,22
14.39167,22
14.40000,22
14.40833,22
14.41667,23
14.42500,23
14.43333,23
14.44167,24
14.45000,24
14.45833,24
14.46667,24
14.47500,24
14.48333,24
14.49167,23
14.50000,23
14.50833,23
14.51667,23
14.52500,23
14.53333,23
14.54167,23
14.55000,23
14.55833,23
14.56667,24
14.57500,24
14.58333,25
14.59167,25
14.60000,25
14.60833,24
14.61667,24
14.62500,24
14.63333,24
14.64167,25
14.65000,24
14.65833,24
14.66667,24
14.67500,24
14.68333,25
14.69167,25
14.70000,25
14.70833,25
14.71667,25
14.72500,25
14.73333,25
14.74167,26
14.75000,26
14.75833,26
14.76667,26
14.77500,26
14.78333,26
14.79167,26
14.80000,26
14.80833,26
14.81667,26
14.82500,26
14.83333,26
14.84167,26
14.85000,25
14.85833,25
14.86667,25
14.87500,25
14.88333,25
14.89167,25
14.90000,26
14.90833,26
14.91667,26
14.92500,27
14.93333,26
14.94167,26
14.95000,26
14.95833,26
14.96667,26
14.97500,26
14.98333,26
14.99167,26
15.00000,26
15.00833,26
15.01667,26
15.02500,26
15.03333,26
15.04167,26
15.05000,26
15.05833,26
15.06667,26
15.07500,26
15.08333,26
15.09167,26
15.10000,26
15.10833,26
15.11667,26
15.12500,26
15.13333,26
15.14167,25
15.15000,25
15.15833,25
15.16667,25
15.17500,25
15.18333,25
15.19167,25
15.20000,25
15.20833,25
15.21667,25
15.22500,25
15.23333,25
15.24167,25
15.25000,24
15.25833,25
15.26667,25
15.27500,25
15.28333,25
15.29167,25
15.30000,25
15.30833,25
15.31667,25
15.32500,24
15.33333,24
15.34167,24
15.35000,24
15.35833,24
15.36667,24
15.37500,24
15.38333,25
15.39167,25
15.40000,25
15.40833,25
15.41667,25
15.42500,25
15.43333,25
15.44167,25
15.45000,25
15.45833,25
15.46667,25
15.47500,25
15.48333,25
15.49167,25
15.50000,25
15.50833,25
15.51667,24
15.52500,24
15.53333,24
15.54167,24
15.55000,24
15.55833,24
15.56667,24
15.57500,25
15.58333,25
15.59167,25
15.60000,25
15.60833,24
15.61667,24
15.62500,24
15.63333,24
15.64167,24
15.65000,24
15.65833,24
15.66667,25
15.67500,25
15.68333,25
15.69167,25
15.70000,25
15.70833,25
15.71667,24
15.72500,24
15.73333,24
15.74167,24
15.75000,24
15.75833,24
15.76667,24
15.77500,25
15.78333,25
15.79167,24
15.80000,24
15.80833,24
15.81667,24
15.82500,23
15.83333,24
15.84167,24
15.85000,24
15.85833,24
15.86667,24
15.87500,24
15.88333,24
15.89167,24
15.90000,24
15.90833,24
15.91667,24
15.92500,24
15.93333,24
15.94167,24
15.95000,24
15.95833,24
15.96667,25
15.97500,25
15.98333,25
15.99167,25
16.00000,25
16.00833,24
16.01667,25
16.02500,25
16.03333,25
16.04167,25
16.05000,25
16.05833,25
16.06667,25
16.07500,25
16.08333,25
16.09167,25
16.10000,25
16.10833,25
16.11667,24
16.12500,23
16.13333,23
16.14167,23
16.15000,23
16.15833,23
16.16667,23
16.17500,24
16.18333,24
16.19167,24
16.20000,24
16.20833,24
16.21667,24
16.22500,24
16.23333,24
16.24167,24
16.25000,24
16.25833,24
16.26667,24
16.27500,24
16.28333,23
16.29167,23
16.30000,23
16.30833,23
16.31667,24
16.32500,24
16.33333,24
16.34167,24
16.35000,24
16.35833,24
16.36667,24
16.37500,24
16.38333,24
16.39167,24
16.40000,24
16.40833,24
16.41667,24
16.42500,24
16.43333,24
16.44167,23
16.45000,23
16.45833,23
16.46667,23
16.47500,24
16.48333,24
16.49167,24
16.50000,24
16.50833,23
16.51667,23
16.52500,23
16.53333,24
16.54167,24
16.55000,24
16.55833,24
16.56667,24
16.57500,24
16.58333,24
16.59167,24
16.60000,24
16.60833,24
16.61667,24
16.62500,24
16.63333,25
16.64167,25
16.65000,25
16.65833,25
16.66667,25
16.67500,25
16.68333,24
16.69167,24
16.70000,24
16.70833,24
16.71667,24
16.72500,24
16.73333,24
16.74167,24
16.75000,24
16.75833,24
16.76667,23
16.77500,23
16.78333,23
16.79167,23
16.80000,23
16.80833,23
16.81667,23
16.82500,23
16.83333,23
16.84167,23
16.85000,23
16.85833,24
16.86667,24
16.87500,24
16.88333,24
16.89167,24
16.90000,24
16.90833,24
16.91667,24
16.92500,23
16.93333,23
16.94167,23
16.95000,23
16.95833,23
16.96667,23
16.97500,23
16.98333,23
16.99167,23
17.00000,24
17.00833,23
17.01667,23
17.02500,23
17.03333,23
17.04167,23
17.05000,23
17.05833,24
17.06667,24
17.07500,24
17.08333,24
17.09167,24
17.10000,24
17.10833,24
17.11667,25
17.12500,24
17.13333,24
17.14167,24
17.15000,24
17.15833,23
17.16667,23
17.17500,23
17.18333,23
17.19167,23
17.20000,23
17.20833,23
17.21667,23
17.22500,24
17.23333,24
17.24167,24
17.25000,24
17.25833,24
17.26667,24
17.27500,24
17.28333,24
17.29167,25
17.30000,25
17.30833,25
17.31667,24
17.32500,24
17.33333,24
17.34167,24
17.35000,24
17.35833,24
17.36667,24
17.37500,24
17.38333,24
17.39167,24
17.40000,24
17.40833,24
17.41667,24
17.42500,24
17.43333,24
17.44167,23
17.45000,23
17.45833,23
17.46667,23
17.47500,23
17.48333,23
17.49167,23
17.50000,23
17.50833,23
17.51667,23
17.52500,23
17.53333,23
17.54167,23
17.55000,23
17.55833,24
17.56667,24
17.57500,24
17.58333,24
17.59167,24
17.60000,23
17.60833,23
17.61667,23
17.62500,24
17.63333,24
17.64167,24
17.65000,25
17.65833,24
17.66667,24
17.67500,24
17.68333,23
17.69167,24
17.70000,24
17.70833,24
17.71667,24
17.72500,24
17.73333,23
17.74167,23
17.75000,24
17.75833,24
17.76667,24
17.77500,24
17.78333,24
17.79167,24
17.80000,24
17.80833,24
17.81667,24
17.82500,24
17.83333,23
17.84167,23
17.85000,23
17.85833,23
17.86667,23
17.87500,23
17.88333,23
17.89167,23
17.90000,23
17.90833,23
17.91667,23
17.92500,23
17.93333,23
17.94167,23
17.95000,23
17.95833,23
17.96667,23
17.97500,23
17.98333,23
17.99167,23
18.00000,23
18.00833,23
18.01667,23
18.02500,23
18.03333,23
18.04167,23
18.05000,24
18.05833,24
18.06667,24
18.07500,25
18.08333,25
18.09167,26
18.10000,26
18.10833,26
18.11667,26
18.12500,26
18.13333,27
18.14167,28
18.15000,28
18.15833,29
18.16667,30
18.17500,31
18.18333,32
18.19167,34
18.20000,36
18.20833,38
18.21667,40
18.22500,42
18.23333,45
18.24167,47
18.25000,51
18.25833,55
18.26667,59
18.27500,64
18.28333,69
18.29167,75
18.30000,81
18.30833,88
18.31667,95
18.32500,103
18.33333,112
18.34167,121
18.35000,130
18.35833,140
18.36667,151
18.37500,162
18.38333,174
18.39167,187
18.40000,200
18.40833,215
18.41667,229
18.42500,243
18.43333,259
18.44167,274
18.45000,291
18.45833,307
18.46667,324
18.47500,341
18.48333,359
18.49167,377
18.50000,394
18.50833,412
18.51667,430
18.52500,448
18.53333,465
18.54167,483
18.55000,499
18.55833,516
18.56667,533
18.57500,549
18.58333,564
18.59167,580
18.60000,594
18.60833,608
18.61667,622
18.62500,635
18.63333,648
18.64167,661
18.65000,673
18.65833,684
18.66667,694
18.67500,704
18.68333,713
18.69167,722
18.70000,731
18.70833,739
18.71667,746
18.72500,752
18.73333,757
18.74167,763
18.75000,767
18.75833,772
18.76667,775
18.77500,778
18.78333,780
18.79167,782
18.80000,784
18.80833,786
18.81667,787
18.82500,787
18.83333,787
18.84167,786
18.85000,785
18.85833,783
18.86667,780
18.87500,778
18.88333,774
18.89167,770
18.90000,766
18.90833,761
18.91667,756
18.92500,750
18.93333,744
18.94167,737
18.95000,730
18.95833,722
18.96667,713
18.97500,705
18.98333,695
18.99167,686
19.00000,676
19.00833,666
19.01667,655
19.02500,645
19.03333,634
19.04167,623
19.05000,612
19.05833,601
19.06667,589
19.07500,578
19.08333,567
19.09167,556
19.10000,545
19.10833,534
19.11667,524
19.12500,514
19.13333,504
19.14167,495
19.15000,486
19.15833,478
19.16667,470
19.17500,463
19.18333,457
19.19167,452
19.20000,447
19.20833,443
19.21667,440
19.22500,438
19.23333,436
19.24167,436
19.25000,437
19.25833,438
19.26667,441
19.27500,445
19.28333,450
19.29167,455
19.30000,462
19.30833,469
19.31667,477
19.32500,486
19.33333,496
19.34167,507
19.35000,519
19.35833,531
19.36667,545
19.37500,558
19.38333,573
19.39167,588
19.40000,602
19.40833,618
19.41667,633
19.42500,649
19.43333,666
19.44167,682
19.45000,699
19.45833,715
19.46667,732
19.47500,748
19.48333,764
19.49167,780
19.50000,796
19.50833,811
19.51667,825
19.52500,840
19.53333,854
19.54167,867
19.55000,880
19.55833,892
19.56667,904
19.57500,915
19.58333,926
19.59167,936
19.60000,944
19.60833,953
19.61667,961
19.62500,969
19.63333,975
19.64167,981
19.65000,987
19.65833,992
19.66667,997
19.67500,1001
19.68333,1004
19.69167,1007
19.70000,1010
19.70833,1012
19.71667,1013
19.72500,1014
19.73333,1014
19.74167,1014
19.75000,1013
19.75833,1011
19.76667,1009
19.77500,1007
19.78333,1003
19.79167,1000
19.80000,995
19.80833,991
19.81667,986
19.82500,980
19.83333,974
19.84167,967
19.85000,959
19.85833,951
19.86667,942
19.87500,933
19.88333,923
19.89167,913
19.90000,902
19.90833,891
19.91667,879
19.92500,867
19.93333,855
19.94167,842
19.95000,829
19.95833,816
19.96667,803
19.97500,789
19.98333,775
19.99167,760
20.00000,746
20.00833,731
20.01667,717
20.02500,702
20.03333,687
20.04167,672
20.05000,658
20.05833,643
20.06667,628
20.07500,614
20.08333,600
20.09167,586
20.10000,572
20.10833,559
20.11667,546
20.12500,534
20.13333,521
20.14167,509
20.15000,497
20.15833,486
20.16667,475
20.17500,464
20.18333,454
20.19167,444
20.20000,435
20.20833,426
20.21667,417
20.22500,408
20.23333,400
20.24167,392
20.25000,385
20.25833,378
20.26667,372
20.27500,366
20.28333,360
20.29167,354
20.30000,349
20.30833,343
20.31667,339
20.32500,334
20.33333,329
20.34167,325
20.35000,321
20.35833,318
20.36667,315
20.37500,312
20.38333,309
20.39167,307
20.40000,304
20.40833,302
20.41667,301
20.42500,299
20.43333,297
20.44167,295
20.45000,294
20.45833,292
20.46667,291
20.47500,291
20.48333,290
20.49167,290
20.50000,289
20.50833,288
20.51667,288
20.52500,288
20.53333,287
20.54167,287
20.55000,287
20.55833,287
20.56667,288
20.57500,288
20.58333,288
20.59167,289
20.60000,290
20.60833,290
20.61667,291
20.62500,292
20.63333,293
20.64167,294
20.65000,296
20.65833,298
20.66667,300
20.67500,303
20.68333,306
20.69167,310
20.70000,315
20.70833,320
20.71667,326
20.72500,333
20.73333,341
20.74167,350
20.75000,360
20.75833,372
20.76667,385
20.77500,401
20.78333,418
20.79167,438
20.80000,459
20.80833,483
20.81667,510
20.82500,539
20.83333,572
20.84167,607
20.85000,646
20.85833,689
20.86667,735
20.87500,786
20.88333,840
20.89167,898
20.90000,960
20.90833,1026
20.91667,1096
20.92500,1170
20.93333,1248
20.94167,1330
20.95000,1416
20.95833,1506
20.96667,1599
20.97500,1695
20.98333,1794
20.99167,1896
21.00000,2000
21.00833,2107
21.01667,2215
21.02500,2324
21.03333,2434
21.04167,2545
21.05000,2657
21.05833,2768
21.06667,2878
21.07500,2988
21.08333,3096
21.09167,3202
21.10000,3307
21.10833,3409
21.11667,3509
21.12500,3607
21.13333,3701
21.14167,3792
21.15000,3879
21.15833,3962
21.16667,4042
21.17500,4119
21.18333,4192
21.19167,4261
21.20000,4326
21.20833,4387
21.21667,4445
21.22500,4500
21.23333,4552
21.24167,4600
21.25000,4644
21.25833,4685
21.26667,4724
21.27500,4759
21.28333,4792
21.29167,4821
21.30000,4849
21.30833,4873
21.31667,4896
21.32500,4916
21.33333,4934
21.34167,4949
21.35000,4962
21.35833,4972
21.36667,4980
21.37500,4985
21.38333,4989
21.39167,4989
21.40000,4987
21.40833,4982
21.41667,4974
21.42500,4962
21.43333,4948
21.44167,4931
21.45000,4910
21.45833,4885
21.46667,4857
21.47500,4825
21.48333,4790
21.49167,4751
21.50000,4708
21.50833,4661
21.51667,4611
21.52500,4557
21.53333,4499
21.54167,4437
21.55000,4371
21.55833,4302
21.56667,4230
21.57500,4154
21.58333,4075
21.59167,3993
21.60000,3909
21.60833,3822
21.61667,3733
21.62500,3642
21.63333,3549
21.64167,3455
21.65000,3359
21.65833,3263
21.66667,3166
21.67500,3067
21.68333,2968
21.69167,2869
21.70000,2771
21.70833,2673
21.71667,2576
21.72500,2480
21.73333,2385
21.74167,2291
21.75000,2199
21.75833,2108
21.76667,2019
21.77500,1932
21.78333,1847
21.79167,1764
21.80000,1684
21.80833,1606
21.81667,1530
21.82500,1456
21.83333,1385
21.84167,1317
21.85000,1251
21.85833,1187
21.86667,1125
21.87500,1067
21.88333,1012
21.89167,959
21.90000,909
21.90833,860
21.91667,815
21.92500,772
21.93333,730
21.94167,691
21.95000,654
21.95833,618
21.96667,584
21.97500,553
21.98333,523
21.99167,495
22.00000,468
22.00833,444
22.01667,421
22.02500,399
22.03333,379
22.04167,359
22.05000,342
22.05833,325
22.06667,310
22.07500,295
22.08333,281
22.09167,268
22.10000,256
22.10833,245
22.11667,235
22.12500,225
22.13333,216
22.14167,208
22.15000,200
22.15833,192
22.16667,185
22.17500,179
22.18333,172
22.19167,167
22.20000,162
22.20833,157
22.21667,152
22.22500,147
22.23333,144
22.24167,140
22.25000,137
22.25833,134
22.26667,131
22.27500,129
22.28333,126
22.29167,124
22.30000,122
22.30833,120
22.31667,118
22.32500,116
22.33333,114
22.34167,112
22.35000,111
22.35833,110
22.36667,108
22.37500,107
22.38333,105
22.39167,104
22.40000,102
22.40833,101
22.41667,100
22.42500,100
22.43333,99
22.44167,98
22.45000,97
22.45833,97
22.46667,96
22.47500,95
22.48333,95
22.49167,94
22.50000,93
22.50833,92
22.51667,91
22.52500,91
22.53333,91
22.54167,90
22.55000,90
22.55833,90
22.56667,89
22.57500,89
22.58333,89
22.59167,88
22.60000,88
22.60833,87
22.61667,87
22.62500,86
22.63333,85
22.64167,85
22.65000,84
22.65833,84
22.66667,84
22.67500,84
22.68333,83
22.69167,83
22.70000,82
22.70833,82
22.71667,81
22.72500,81
22.73333,81
22.74167,81
22.75000,81
22.75833,80
22.76667,80
22.77500,79
22.78333,79
22.79167,78
22.80000,78
22.80833,78
22.81667,78
22.82500,78
22.83333,78
22.84167,77
22.85000,77
22.85833,77
22.86667,76
22.87500,76
22.88333,76
22.89167,75
22.90000,75
22.90833,74
22.91667,73
22.92500,73
22.93333,72
22.94167,72
22.95000,71
22.95833,71
22.96667,70
22.97500,70
22.98333,69
22.99167,68
23.00000,68
23.00833,68
23.01667,68
23.02500,68
23.03333,67
23.04167,67
23.05000,67
23.05833,67
23.06667,66
23.07500,66
23.08333,65
23.09167,65
23.10000,65
23.10833,65
23.11667,64
23.12500,64
23.13333,64
23.14167,63
23.15000,63
23.15833,62
23.16667,62
23.17500,62
23.18333,62
23.19167,62
23.20000,62
23.20833,61
23.21667,61
23.22500,61
23.23333,60
23.24167,60
23.25000,60
23.25833,60
23.26667,60
23.27500,59
23.28333,59
23.29167,58
23.30000,58
23.30833,58
23.31667,58
23.32500,58
23.33333,57
23.34167,57
23.35000,57
23.35833,57
23.36667,57
23.37500,57
23.38333,57
23.39167,57
23.40000,57
23.40833,57
23.41667,57
23.42500,57
23.43333,57
23.44167,56
23.45000,56
23.45833,56
23.46667,56
23.47500,56
23.48333,56
23.49167,56
23.50000,55
23.50833,55
23.51667,55
23.52500,56
23.53333,56
23.54167,55
23.55000,55
23.55833,55
23.56667,55
23.57500,55
23.58333,55
23.59167,55
23.60000,55
23.60833,55
23.61667,55
23.62500,55
23.63333,54
23.64167,54
23.65000,54
23.65833,53
23.66667,53
23.67500,53
23.68333,53
23.69167,53
23.70000,53
23.70833,54
23.71667,54
23.72500,53
23.73333,53
23.74167,53
23.75000,53
23.75833,53
23.76667,53
23.77500,53
23.78333,52
23.79167,52
23.80000,52
23.80833,52
23.81667,52
23.82500,52
23.83333,52
23.84167,51
23.85000,51
23.85833,51
23.86667,51
23.87500,51
23.88333,51
23.89167,51
23.90000,51
23.90833,51
23.91667,51
23.92500,50
23.93333,50
23.94167,50
23.95000,50
23.95833,50
23.96667,50
23.97500,49
23.98333,49
23.99167,49
24.00000,49
24.00833,49
24.01667,50
24.02500,50
24.03333,50
24.04167,49
24.05000,49
24.05833,49
24.06667,48
24.07500,48
24.08333,47
24.09167,47
24.10000,47
24.10833,47
24.11667,47
24.12500,47
24.13333,47
24.14167,47
24.15000,47
24.15833,47
24.16667,47
24.17500,47
24.18333,47
24.19167,47
24.20000,47
24.20833,46
24.21667,46
24.22500,46
24.23333,47
24.24167,47
24.25000,46
24.25833,46
24.26667,46
24.27500,46
24.28333,46
24.29167,46
24.30000,46
24.30833,46
24.31667,46
24.32500,46
24.33333,46
24.34167,46
24.35000,46
24.35833,46
24.36667,46
24.37500,47
24.38333,47
24.39167,46
24.40000,46
24.40833,46
24.41667,47
24.42500,47
24.43333,47
24.44167,47
24.45000,47
24.45833,47
24.46667,47
24.47500,48
24.48333,48
24.49167,48
24.50000,48
24.50833,49
24.51667,48
24.52500,49
24.53333,49
24.54167,49
24.55000,49
24.55833,49
24.56667,49
24.57500,49
24.58333,49
24.59167,49
24.60000,49
24.60833,48
24.61667,48
24.62500,48
24.63333,48
24.64167,48
24.65000,48
24.65833,48
24.66667,48
24.67500,48
24.68333,48
24.69167,49
24.70000,49
24.70833,49
24.71667,48
24.72500,48
24.73333,49
24.74167,49
24.75000,49
24.75833,49
24.76667,49
24.77500,49
24.78333,49
24.79167,50
24.80000,50
24.80833,50
24.81667,50
24.82500,50
24.83333,50
24.84167,50
24.85000,50
24.85833,49
24.86667,49
24.87500,49
24.88333,49
24.89167,49
24.90000,49
24.90833,49
24.91667,49
24.92500,49
24.93333,49
24.94167,49
24.95000,49
24.95833,49
24.96667,48
24.97500,48
24.98333,47
24.99167,46
25.00000,46
25.00833,46
25.01667,46
25.02500,45
25.03333,45
25.04167,46
25.05000,45
25.05833,45
25.06667,45
25.07500,45
25.08333,44
25.09167,44
25.10000,44
25.10833,44
25.11667,44
25.12500,44
25.13333,44
25.14167,43
25.15000,43
25.15833,43
25.16667,43
25.17500,43
25.18333,42
25.19167,42
25.20000,42
25.20833,42
25.21667,41
25.22500,41
25.23333,41
25.24167,41
25.25000,41
25.25833,41
25.26667,41
25.27500,40
25.28333,40
25.29167,39
25.30000,39
25.30833,38
25.31667,38
25.32500,38
25.33333,38
25.34167,38
25.35000,38
25.35833,38
25.36667,37
25.37500,37
25.38333,37
25.39167,37
25.40000,37
25.40833,37
25.41667,37
25.42500,36
25.43333,37
25.44167,37
25.45000,36
25.45833,36
25.46667,36
25.47500,35
25.48333,35
25.49167,35
25.50000,35
25.50833,35
25.51667,35
25.52500,34
25.53333,34
25.54167,34
25.55000,34
25.55833,34
25.56667,34
25.57500,34
25.58333,34
25.59167,34
25.60000,34
25.60833,34
25.61667,34
25.62500,35
25.63333,35
25.64167,35
25.65000,35
25.65833,35
25.66667,34
25.67500,35
25.68333,35
25.69167,35
25.70000,35
25.70833,35
25.71667,35
25.72500,35
25.73333,35
25.74167,34
25.75000,34
25.75833,34
25.76667,34
25.77500,34
25.78333,34
25.79167,34
25.80000,33
25.80833,33
25.81667,34
25.82500,34
25.83333,33
25.84167,33
25.85000,33
25.85833,33
25.86667,34
25.87500,33
25.88333,33
25.89167,33
25.90000,34
25.90833,34
25.91667,33
25.92500,33
25.93333,33
25.94167,33
25.95000,33
25.95833,33
25.96667,33
25.97500,33
25.98333,33
25.99167,33
26.00000,33
26.00833,33
26.01667,33
26.02500,33
26.03333,33
26.04167,33
26.05000,33
26.05833,33
26.06667,33
26.07500,33
26.08333,32
26.09167,32
26.10000,32
26.10833,31
26.11667,31
26.12500,32
26.13333,32
26.14167,32
26.15000,33
26.15833,33
26.16667,32
26.17500,33
26.18333,32
26.19167,32
26.20000,32
26.20833,32
26.21667,32
26.22500,32
26.23333,32
26.24167,32
26.25000,33
26.25833,33
26.26667,33
26.27500,33
26.28333,33
26.29167,32
26.30000,32
26.30833,32
26.31667,32
26.32500,32
26.33333,32
26.34167,32
26.35000,32
26.35833,32
26.36667,33
26.37500,33
26.38333,33
26.39167,33
26.40000,32
26.40833,32
26.41667,32
26.42500,32
26.43333,32
26.44167,33
26.45000,33
26.45833,32
26.46667,32
26.47500,32
26.48333,32
26.49167,32
26.50000,32
26.50833,32
26.51667,32
26.52500,32
26.53333,31
26.54167,31
26.55000,31
26.55833,31
26.56667,31
26.57500,31
26.58333,31
26.59167,31
26.60000,31
26.60833,30
26.61667,30
26.62500,30
26.63333,29
26.64167,29
26.65000,29
26.65833,29
26.66667,30
26.67500,30
26.68333,29
26.69167,29
26.70000,28
26.70833,28
26.71667,27
26.72500,27
26.73333,27
26.74167,26
26.75000,26
26.75833,25
26.76667,25
26.77500,24
26.78333,24
26.79167,24
26.80000,23
26.80833,23
26.81667,21
26.82500,20
26.83333,19
26.84167,18
26.85000,17
26.85833,16
26.86667,15
26.87500,13
26.88333,12
26.89167,11
26.90000,10
26.90833,9
26.91667,8
26.92500,7
26.93333,5
26.94167,4
26.95000,2
26.95833,0
26.96667,-1
26.97500,-3
26.98333,-4
26.99167,-6
27.00000,-8
27.00833,-10
27.01667,-12
27.02500,-14
27.03333,-16
27.04167,-18
27.05000,-20
27.05833,-22
27.06667,-24
27.07500,-26
27.08333,-28
27.09167,-29
27.10000,-31
27.10833,-33
27.11667,-36
27.12500,-38
27.13333,-40
27.14167,-42
27.15000,-44
27.15833,-46
27.16667,-48
27.17500,-50
27.18333,-52
27.19167,-54
27.20000,-56
27.20833,-58
27.21667,-60
27.22500,-62
27.23333,-64
27.24167,-66
27.25000,-68
27.25833,-70
27.26667,-72
27.27500,-73
27.28333,-75
27.29167,-76
27.30000,-78
27.30833,-79
27.31667,-81
27.32500,-83
27.33333,-84
27.34167,-86
27.35000,-87
27.35833,-89
27.36667,-90
27.37500,-91
27.38333,-92
27.39167,-93
27.40000,-94
27.40833,-95
27.41667,-96
27.42500,-97
27.43333,-97
27.44167,-98
27.45000,-99
27.45833,-100
27.46667,-100
27.47500,-101
27.48333,-102
27.49167,-102
27.50000,-102
27.50833,-102
27.51667,-103
27.52500,-103
27.53333,-103
27.54167,-102
27.55000,-102
27.55833,-101
27.56667,-101
27.57500,-100
27.58333,-99
27.59167,-99
27.60000,-98
27.60833,-98
27.61667,-97
27.62500,-96
27.63333,-95
27.64167,-94
27.65000,-92
27.65833,-91
27.66667,-91
27.67500,-89
27.68333,-88
27.69167,-86
27.70000,-85
27.70833,-83
27.71667,-81
27.72500,-80
27.73333,-78
27.74167,-76
27.75000,-74
27.75833,-72
27.76667,-71
27.77500,-69
27.78333,-68
27.79167,-66
27.80000,-64
27.80833,-62
27.81667,-59
27.82500,-57
27.83333,-55
27.84167,-54
27.85000,-52
27.85833,-50
27.86667,-48
27.87500,-46
27.88333,-44
27.89167,-42
27.90000,-40
27.90833,-39
27.91667,-37
27.92500,-35
27.93333,-33
27.94167,-31
27.95000,-30
27.95833,-28
27.96667,-26
27.97500,-25
27.98333,-23
27.99167,-22
28.00000,-20
28.00833,-18
28.01667,-17
28.02500,-15
28.03333,-14
28.04167,-12
28.05000,-11
28.05833,-10
28.06667,-8
28.07500,-7
28.08333,-6
28.09167,-5
28.10000,-4
28.10833,-3
28.11667,-2
28.12500,-1
28.13333,0
28.14167,1
28.15000,2
28.15833,2
28.16667,3
28.17500,4
28.18333,4
28.19167,5
28.20000,6
28.20833,6
28.21667,7
28.22500,8
28.23333,8
28.24167,9
28.25000,9
28.25833,10
28.26667,10
28.27500,10
28.28333,11
28.29167,11
28.30000,12
28.30833,12
28.31667,13
28.32500,13
28.33333,13
28.34167,13
28.35000,14
28.35833,14
28.36667,14
28.37500,15
28.38333,15
28.39167,15
28.40000,15
28.40833,15
28.41667,16
28.42500,16
28.43333,16
28.44167,15
28.45000,15
28.45833,15
28.46667,14
28.47500,14
28.48333,14
28.49167,14
28.50000,13
28.50833,13
28.51667,12
28.52500,12
28.53333,12
28.54167,12
28.55000,12
28.55833,12
28.56667,12
28.57500,11
28.58333,11
28.59167,11
28.60000,10
28.60833,10
28.61667,9
28.62500,9
28.63333,8
28.64167,8
28.65000,7
28.65833,7
28.66667,6
28.67500,5
28.68333,4
28.69167,3
28.70000,3
28.70833,3
28.71667,2
28.72500,2
28.73333,1
28.74167,0
28.75000,-0
28.75833,-1
28.76667,-2
28.77500,-2
28.78333,-3
28.79167,-4
28.80000,-4
28.80833,-5
28.81667,-5
28.82500,-6
28.83333,-7
28.84167,-8
28.85000,-8
28.85833,-9
28.86667,-10
28.87500,-11
28.88333,-12
28.89167,-13
28.90000,-14
28.90833,-14
28.91667,-14
28.92500,-15
28.93333,-16
28.94167,-16
28.95000,-17
28.95833,-17
28.96667,-18
28.97500,-18
28.98333,-19
28.99167,-20
29.00000,-21
29.00833,-21
29.01667,-22
29.02500,-22
29.03333,-23
29.04167,-24
29.05000,-24
29.05833,-24
29.06667,-25
29.07500,-25
29.08333,-26
29.09167,-26
29.10000,-26
29.10833,-27
29.11667,-26
29.12500,-27
29.13333,-27
29.14167,-27
29.15000,-27
29.15833,-27
29.16667,-27
29.17500,-27
29.18333,-27
29.19167,-27
29.20000,-27
29.20833,-27
29.21667,-27
29.22500,-27
29.23333,-28
29.24167,-28
29.25000,-28
29.25833,-28
29.26667,-28
29.27500,-28
29.28333,-28
29.29167,-28
29.30000,-28
29.30833,-27
29.31667,-27
29.32500,-27
29.33333,-26
29.34167,-26
29.35000,-25
29.35833,-24
29.36667,-24
29.37500,-23
29.38333,-23
29.39167,-22
29.40000,-21
29.40833,-21
29.41667,-21
29.42500,-20
29.43333,-19
29.44167,-18
29.45000,-18
29.45833,-17
29.46667,-16
29.47500,-16
29.48333,-15
29.49167,-15
29.50000,-14
29.50833,-13
29.51667,-12
29.52500,-11
29.53333,-11
29.54167,-10
29.55000,-9
29.55833,-9
29.56667,-8
29.57500,-7
29.58333,-6
29.59167,-5
29.60000,-5
29.60833,-4
29.61667,-3
29.62500,-2
29.63333,-1
29.64167,0
29.65000,2
29.65833,3
29.66667,3
29.67500,3
29.68333,4
29.69167,4
29.70000,5
29.70833,5
29.71667,6
29.72500,7
29.73333,7
29.74167,8
29.75000,8
29.75833,9
29.76667,9
29.77500,9
29.78333,10
29.79167,10
29.80000,11
29.80833,11
29.81667,12
29.82500,13
29.83333,14
29.84167,14
29.85000,15
29.85833,15
29.86667,15
29.87500,15
29.88333,15
29.89167,15
29.90000,15
29.90833,16
29.91667,16
29.92500,17
29.93333,17
29.94167,18
29.95000,18
29.95833,18
29.96667,18
29.97500,19
29.98333,19
29.99167,19
30.00000,20

