[Header]
Application Name,LabSolutions
Version,5.97 SP1
Data File Name,C:\Users\cremerlab\Desktop\Richa\Sep_2nd_2022_scfa_rt50min_final\Sep 2nd yield expt_922022_001_005.lcd
Output Date,9/2/2022
Output Time,9:17:59 PM

[File Information]
Type,Data File
Generated,9/2/2022 8:27:39 PM
Generated by,System Administrator
Modified,9/2/2022 9:17:59 PM
Modified by,System Administrator

[Sample Information]
Operator Name,System Administrator
Acquired,9/2/2022 8:27:57 PM
Sample Type,0:Unknown
Level,0
Sample Name,090222_B.fragilis_4
Sample ID,001
ISTD Amount1,1
ISTD Amount2,1
ISTD Amount3,1
ISTD Amount4,1
ISTD Amount5,1
ISTD Amount6,1
ISTD Amount7,1
ISTD Amount8,1
ISTD Amount9,1
ISTD Amount10,1
ISTD Amount11,1
ISTD Amount12,1
ISTD Amount13,1
ISTD Amount14,1
ISTD Amount15,1
ISTD Amount16,1
ISTD Amount17,1
ISTD Amount18,1
ISTD Amount19,1
ISTD Amount20,1
ISTD Amount21,1
ISTD Amount22,1
ISTD Amount23,1
ISTD Amount24,1
ISTD Amount25,1
ISTD Amount26,1
ISTD Amount27,1
ISTD Amount28,1
ISTD Amount29,1
ISTD Amount30,1
ISTD Amount31,1
ISTD Amount32,1
Sample Amount,1
Dilution Factor,1
Vial#,4
Injection Volume,20

[Original Files]
Data File,C:\Users\cremerlab\Desktop\Richa\Sep_2nd_2022_scfa_rt50min_final\Sep 2nd yield expt_922022_001_005.lcd
Method File,C:\Users\cremerlab\Desktop\Richa\acetate_excretion.lcm
Batch File,C:\Users\cremerlab\Desktop\Richa\Sep_2nd_2022_scfa_rt50min_final\Sep 2nd yield expt.lcb
Report Format File,c:\LabSolutions\System\DEFAULT.lsr

[File Description]


[Configuration]
Instrument Name,HPLC-PC-Instrument1
Instrument #,1
Line #,1
# of Detectors,2
Detector ID,Detector A,Detector B
Detector Name,Detector A,Detector B
# of Channels,1,1

[Peak Table(Detector A)]
# of Peaks,0

[Peak Table(Detector B)]
# of Peaks,13
Peak#,R.Time,I.Time,F.Time,Area,Height,A/H,Conc.,Mark,ID#,Name,k',Plate #,Plate Ht.,Tailing,Resolution,Sep.Factor,Area Ratio,Height Ratio,Conc. %,Norm Conc.
1,10.475,10.258,10.508,1842,249,7.388,0.000,   ,,,0.000,3715,40.380,0.000,0.000,0.000,0,0,0.000,0.000
2,11.017,10.508,12.317,2258967,116033,19.468,0.000, V ,,,0.052,7602,19.731,0.965,0.908,0.000,0,0,0.000,0.000
3,14.331,12.675,15.183,3573026,76827,46.507,0.000,   ,,,0.368,2507,59.842,0.658,4.016,7.116,0,0,0.000,0.000
4,15.758,15.183,18.425,1398797,47290,29.579,0.000,SV ,,,0.504,6912,21.701,1.138,1.500,1.370,0,0,0.000,0.000
5,17.868,17.458,18.383,7035,248,28.385,0.000,T  ,,,0.706,8556,17.531,1.108,2.757,1.399,0,0,0.000,0.000
6,19.129,18.433,19.775,12527,298,42.027,0.000,   ,,,0.826,4285,35.008,0.965,1.299,1.171,0,0,0.000,0.000
7,20.308,19.775,20.542,17018,589,28.891,0.000,   ,,,0.939,2402,62.452,0.000,0.835,1.136,0,0,0.000,0.000
8,20.961,20.542,21.358,36997,875,42.297,0.000, V ,,,1.001,1266,118.470,0.000,0.325,1.066,0,0,0.000,0.000
9,21.685,21.358,22.550,37763,856,44.123,0.000, V ,,,1.070,1305,114.925,0.000,0.304,1.069,0,0,0.000,0.000
10,23.160,22.575,24.192,16559,316,52.333,0.000,   ,,,1.211,6722,22.314,0.000,0.836,1.132,0,0,0.000,0.000
11,25.082,24.192,26.525,169668,3983,42.602,0.000, V ,,,1.394,8722,17.198,1.112,1.744,1.151,0,0,0.000,0.000
12,29.247,28.392,30.642,146941,3002,48.946,0.000,   ,,,1.792,8779,17.086,1.209,3.586,1.285,0,0,0.000,0.000
13,32.529,31.725,34.250,33721,460,73.276,0.000,   ,,,2.105,1887,79.484,1.524,1.547,1.175,0,0,0.000,0.000

[LC Chromatogram(Detector B-Ch1)]
Interval(msec),500
# of Points,6001
Start Time(min),0.000
End Time(min),50.000
Intensity Units,mV
Intensity Multiplier,0.001
R.Time (min),Intensity
0.00000,-18
0.00833,-18
0.01667,-0
0.02500,-0
0.03333,-1
0.04167,-1
0.05000,-2
0.05833,-3
0.06667,-4
0.07500,-5
0.08333,-6
0.09167,-7
0.10000,-8
0.10833,-9
0.11667,-10
0.12500,-10
0.13333,-11
0.14167,-11
0.15000,-12
0.15833,-12
0.16667,-13
0.17500,-13
0.18333,-14
0.19167,-14
0.20000,-15
0.20833,-15
0.21667,-16
0.22500,-16
0.23333,-17
0.24167,-17
0.25000,-18
0.25833,-19
0.26667,-20
0.27500,-21
0.28333,-21
0.29167,-22
0.30000,-22
0.30833,-23
0.31667,-24
0.32500,-24
0.33333,-25
0.34167,-25
0.35000,-25
0.35833,-26
0.36667,-26
0.37500,-27
0.38333,-27
0.39167,-28
0.40000,-28
0.40833,-28
0.41667,-28
0.42500,-28
0.43333,-29
0.44167,-29
0.45000,-30
0.45833,-30
0.46667,-31
0.47500,-31
0.48333,-31
0.49167,-31
0.50000,-32
0.50833,-32
0.51667,-32
0.52500,-33
0.53333,-33
0.54167,-33
0.55000,-33
0.55833,-33
0.56667,-33
0.57500,-33
0.58333,-34
0.59167,-34
0.60000,-34
0.60833,-34
0.61667,-35
0.62500,-35
0.63333,-35
0.64167,-35
0.65000,-35
0.65833,-35
0.66667,-35
0.67500,-35
0.68333,-35
0.69167,-35
0.70000,-35
0.70833,-36
0.71667,-36
0.72500,-36
0.73333,-36
0.74167,-36
0.75000,-36
0.75833,-36
0.76667,-36
0.77500,-36
0.78333,-36
0.79167,-36
0.80000,-36
0.80833,-36
0.81667,-36
0.82500,-36
0.83333,-36
0.84167,-36
0.85000,-36
0.85833,-36
0.86667,-37
0.87500,-37
0.88333,-37
0.89167,-38
0.90000,-38
0.90833,-38
0.91667,-38
0.92500,-38
0.93333,-38
0.94167,-38
0.95000,-38
0.95833,-38
0.96667,-38
0.97500,-37
0.98333,-37
0.99167,-36
1.00000,-36
1.00833,-36
1.01667,-37
1.02500,-36
1.03333,-36
1.04167,-36
1.05000,-35
1.05833,-35
1.06667,-35
1.07500,-35
1.08333,-35
1.09167,-35
1.10000,-35
1.10833,-35
1.11667,-35
1.12500,-35
1.13333,-35
1.14167,-34
1.15000,-34
1.15833,-34
1.16667,-34
1.17500,-34
1.18333,-34
1.19167,-34
1.20000,-34
1.20833,-34
1.21667,-34
1.22500,-34
1.23333,-34
1.24167,-34
1.25000,-34
1.25833,-34
1.26667,-34
1.27500,-34
1.28333,-34
1.29167,-33
1.30000,-33
1.30833,-32
1.31667,-32
1.32500,-32
1.33333,-32
1.34167,-32
1.35000,-31
1.35833,-31
1.36667,-31
1.37500,-30
1.38333,-30
1.39167,-30
1.40000,-30
1.40833,-30
1.41667,-30
1.42500,-29
1.43333,-29
1.44167,-29
1.45000,-29
1.45833,-29
1.46667,-28
1.47500,-28
1.48333,-28
1.49167,-27
1.50000,-27
1.50833,-27
1.51667,-27
1.52500,-27
1.53333,-27
1.54167,-27
1.55000,-27
1.55833,-27
1.56667,-26
1.57500,-26
1.58333,-26
1.59167,-26
1.60000,-25
1.60833,-25
1.61667,-25
1.62500,-26
1.63333,-26
1.64167,-26
1.65000,-25
1.65833,-25
1.66667,-25
1.67500,-24
1.68333,-25
1.69167,-24
1.70000,-24
1.70833,-24
1.71667,-24
1.72500,-24
1.73333,-24
1.74167,-23
1.75000,-23
1.75833,-23
1.76667,-22
1.77500,-22
1.78333,-22
1.79167,-22
1.80000,-22
1.80833,-23
1.81667,-23
1.82500,-23
1.83333,-23
1.84167,-22
1.85000,-22
1.85833,-21
1.86667,-21
1.87500,-21
1.88333,-21
1.89167,-20
1.90000,-20
1.90833,-20
1.91667,-20
1.92500,-20
1.93333,-20
1.94167,-20
1.95000,-20
1.95833,-20
1.96667,-20
1.97500,-20
1.98333,-20
1.99167,-20
2.00000,-20
2.00833,-19
2.01667,-19
2.02500,-19
2.03333,-20
2.04167,-20
2.05000,-19
2.05833,-19
2.06667,-20
2.07500,-20
2.08333,-20
2.09167,-20
2.10000,-19
2.10833,-19
2.11667,-18
2.12500,-18
2.13333,-18
2.14167,-18
2.15000,-18
2.15833,-18
2.16667,-18
2.17500,-18
2.18333,-18
2.19167,-18
2.20000,-18
2.20833,-18
2.21667,-18
2.22500,-18
2.23333,-18
2.24167,-17
2.25000,-17
2.25833,-17
2.26667,-17
2.27500,-17
2.28333,-17
2.29167,-17
2.30000,-17
2.30833,-17
2.31667,-18
2.32500,-17
2.33333,-17
2.34167,-17
2.35000,-17
2.35833,-18
2.36667,-18
2.37500,-18
2.38333,-17
2.39167,-17
2.40000,-17
2.40833,-17
2.41667,-18
2.42500,-18
2.43333,-18
2.44167,-18
2.45000,-18
2.45833,-18
2.46667,-18
2.47500,-18
2.48333,-18
2.49167,-18
2.50000,-18
2.50833,-18
2.51667,-19
2.52500,-19
2.53333,-19
2.54167,-19
2.55000,-19
2.55833,-19
2.56667,-19
2.57500,-19
2.58333,-19
2.59167,-19
2.60000,-19
2.60833,-19
2.61667,-19
2.62500,-19
2.63333,-20
2.64167,-20
2.65000,-20
2.65833,-20
2.66667,-20
2.67500,-20
2.68333,-20
2.69167,-20
2.70000,-19
2.70833,-19
2.71667,-19
2.72500,-20
2.73333,-20
2.74167,-20
2.75000,-21
2.75833,-21
2.76667,-21
2.77500,-21
2.78333,-20
2.79167,-20
2.80000,-20
2.80833,-20
2.81667,-20
2.82500,-20
2.83333,-20
2.84167,-21
2.85000,-21
2.85833,-22
2.86667,-22
2.87500,-22
2.88333,-22
2.89167,-22
2.90000,-22
2.90833,-22
2.91667,-22
2.92500,-23
2.93333,-23
2.94167,-23
2.95000,-23
2.95833,-23
2.96667,-23
2.97500,-23
2.98333,-23
2.99167,-23
3.00000,-23
3.00833,-23
3.01667,-23
3.02500,-23
3.03333,-23
3.04167,-23
3.05000,-23
3.05833,-23
3.06667,-22
3.07500,-22
3.08333,-22
3.09167,-22
3.10000,-22
3.10833,-23
3.11667,-23
3.12500,-23
3.13333,-23
3.14167,-24
3.15000,-24
3.15833,-24
3.16667,-24
3.17500,-24
3.18333,-25
3.19167,-25
3.20000,-25
3.20833,-24
3.21667,-24
3.22500,-24
3.23333,-24
3.24167,-24
3.25000,-24
3.25833,-24
3.26667,-24
3.27500,-24
3.28333,-24
3.29167,-24
3.30000,-24
3.30833,-24
3.31667,-24
3.32500,-24
3.33333,-24
3.34167,-24
3.35000,-24
3.35833,-24
3.36667,-24
3.37500,-24
3.38333,-24
3.39167,-24
3.40000,-24
3.40833,-24
3.41667,-24
3.42500,-24
3.43333,-24
3.44167,-24
3.45000,-24
3.45833,-24
3.46667,-24
3.47500,-24
3.48333,-24
3.49167,-24
3.50000,-24
3.50833,-23
3.51667,-23
3.52500,-23
3.53333,-23
3.54167,-22
3.55000,-22
3.55833,-22
3.56667,-22
3.57500,-22
3.58333,-22
3.59167,-22
3.60000,-22
3.60833,-22
3.61667,-22
3.62500,-22
3.63333,-21
3.64167,-21
3.65000,-21
3.65833,-21
3.66667,-21
3.67500,-21
3.68333,-21
3.69167,-20
3.70000,-20
3.70833,-20
3.71667,-20
3.72500,-20
3.73333,-20
3.74167,-20
3.75000,-19
3.75833,-19
3.76667,-19
3.77500,-19
3.78333,-19
3.79167,-18
3.80000,-18
3.80833,-18
3.81667,-17
3.82500,-17
3.83333,-17
3.84167,-17
3.85000,-16
3.85833,-16
3.86667,-16
3.87500,-15
3.88333,-15
3.89167,-14
3.90000,-14
3.90833,-14
3.91667,-14
3.92500,-13
3.93333,-13
3.94167,-13
3.95000,-13
3.95833,-12
3.96667,-12
3.97500,-12
3.98333,-12
3.99167,-12
4.00000,-11
4.00833,-11
4.01667,-11
4.02500,-11
4.03333,-11
4.04167,-10
4.05000,-9
4.05833,-9
4.06667,-9
4.07500,-8
4.08333,-8
4.09167,-7
4.10000,-7
4.10833,-7
4.11667,-6
4.12500,-6
4.13333,-5
4.14167,-4
4.15000,-4
4.15833,-4
4.16667,-3
4.17500,-2
4.18333,-2
4.19167,-1
4.20000,-1
4.20833,-0
4.21667,1
4.22500,1
4.23333,2
4.24167,2
4.25000,2
4.25833,3
4.26667,3
4.27500,4
4.28333,4
4.29167,4
4.30000,5
4.30833,6
4.31667,7
4.32500,8
4.33333,8
4.34167,9
4.35000,10
4.35833,10
4.36667,10
4.37500,11
4.38333,11
4.39167,12
4.40000,13
4.40833,13
4.41667,14
4.42500,15
4.43333,16
4.44167,17
4.45000,17
4.45833,18
4.46667,18
4.47500,18
4.48333,19
4.49167,20
4.50000,21
4.50833,22
4.51667,23
4.52500,23
4.53333,24
4.54167,24
4.55000,25
4.55833,26
4.56667,26
4.57500,27
4.58333,27
4.59167,28
4.60000,29
4.60833,30
4.61667,30
4.62500,31
4.63333,31
4.64167,32
4.65000,33
4.65833,34
4.66667,34
4.67500,35
4.68333,36
4.69167,36
4.70000,37
4.70833,37
4.71667,38
4.72500,38
4.73333,39
4.74167,40
4.75000,41
4.75833,41
4.76667,41
4.77500,42
4.78333,42
4.79167,43
4.80000,43
4.80833,43
4.81667,44
4.82500,45
4.83333,45
4.84167,46
4.85000,46
4.85833,47
4.86667,47
4.87500,47
4.88333,47
4.89167,48
4.90000,48
4.90833,49
4.91667,49
4.92500,49
4.93333,49
4.94167,50
4.95000,50
4.95833,51
4.96667,51
4.97500,51
4.98333,51
4.99167,51
5.00000,51
5.00833,52
5.01667,52
5.02500,52
5.03333,52
5.04167,53
5.05000,53
5.05833,53
5.06667,53
5.07500,53
5.08333,54
5.09167,54
5.10000,54
5.10833,53
5.11667,53
5.12500,53
5.13333,53
5.14167,53
5.15000,53
5.15833,53
5.16667,53
5.17500,53
5.18333,53
5.19167,52
5.20000,52
5.20833,51
5.21667,51
5.22500,51
5.23333,52
5.24167,52
5.25000,51
5.25833,51
5.26667,51
5.27500,51
5.28333,51
5.29167,51
5.30000,50
5.30833,50
5.31667,49
5.32500,49
5.33333,48
5.34167,48
5.35000,48
5.35833,48
5.36667,47
5.37500,47
5.38333,46
5.39167,46
5.40000,46
5.40833,45
5.41667,45
5.42500,44
5.43333,44
5.44167,44
5.45000,44
5.45833,44
5.46667,44
5.47500,43
5.48333,43
5.49167,42
5.50000,42
5.50833,41
5.51667,40
5.52500,40
5.53333,40
5.54167,40
5.55000,39
5.55833,39
5.56667,38
5.57500,38
5.58333,37
5.59167,36
5.60000,35
5.60833,34
5.61667,34
5.62500,33
5.63333,32
5.64167,32
5.65000,32
5.65833,31
5.66667,31
5.67500,30
5.68333,30
5.69167,29
5.70000,28
5.70833,27
5.71667,27
5.72500,26
5.73333,25
5.74167,25
5.75000,24
5.75833,24
5.76667,24
5.77500,23
5.78333,22
5.79167,22
5.80000,21
5.80833,20
5.81667,20
5.82500,19
5.83333,18
5.84167,17
5.85000,17
5.85833,16
5.86667,15
5.87500,14
5.88333,13
5.89167,13
5.90000,12
5.90833,11
5.91667,11
5.92500,10
5.93333,9
5.94167,8
5.95000,7
5.95833,7
5.96667,6
5.97500,5
5.98333,4
5.99167,3
6.00000,2
6.00833,1
6.01667,0
6.02500,-0
6.03333,-1
6.04167,-2
6.05000,-3
6.05833,-4
6.06667,-5
6.07500,-6
6.08333,-7
6.09167,-8
6.10000,-9
6.10833,-9
6.11667,-10
6.12500,-11
6.13333,-11
6.14167,-12
6.15000,-13
6.15833,-14
6.16667,-15
6.17500,-15
6.18333,-16
6.19167,-17
6.20000,-17
6.20833,-18
6.21667,-18
6.22500,-19
6.23333,-20
6.24167,-21
6.25000,-21
6.25833,-22
6.26667,-22
6.27500,-23
6.28333,-23
6.29167,-24
6.30000,-25
6.30833,-26
6.31667,-26
6.32500,-27
6.33333,-27
6.34167,-28
6.35000,-28
6.35833,-29
6.36667,-29
6.37500,-30
6.38333,-31
6.39167,-32
6.40000,-32
6.40833,-33
6.41667,-33
6.42500,-34
6.43333,-35
6.44167,-35
6.45000,-35
6.45833,-36
6.46667,-36
6.47500,-36
6.48333,-37
6.49167,-37
6.50000,-38
6.50833,-38
6.51667,-38
6.52500,-38
6.53333,-39
6.54167,-39
6.55000,-40
6.55833,-40
6.56667,-41
6.57500,-41
6.58333,-42
6.59167,-43
6.60000,-43
6.60833,-43
6.61667,-44
6.62500,-44
6.63333,-45
6.64167,-45
6.65000,-45
6.65833,-46
6.66667,-46
6.67500,-46
6.68333,-46
6.69167,-46
6.70000,-46
6.70833,-46
6.71667,-46
6.72500,-46
6.73333,-46
6.74167,-47
6.75000,-47
6.75833,-48
6.76667,-48
6.77500,-48
6.78333,-48
6.79167,-48
6.80000,-49
6.80833,-49
6.81667,-49
6.82500,-49
6.83333,-49
6.84167,-49
6.85000,-49
6.85833,-50
6.86667,-50
6.87500,-50
6.88333,-50
6.89167,-50
6.90000,-50
6.90833,-50
6.91667,-51
6.92500,-51
6.93333,-51
6.94167,-51
6.95000,-52
6.95833,-52
6.96667,-52
6.97500,-53
6.98333,-53
6.99167,-53
7.00000,-53
7.00833,-52
7.01667,-52
7.02500,-52
7.03333,-51
7.04167,-51
7.05000,-52
7.05833,-52
7.06667,-52
7.07500,-52
7.08333,-52
7.09167,-52
7.10000,-52
7.10833,-52
7.11667,-51
7.12500,-52
7.13333,-52
7.14167,-52
7.15000,-52
7.15833,-52
7.16667,-53
7.17500,-53
7.18333,-52
7.19167,-52
7.20000,-52
7.20833,-52
7.21667,-52
7.22500,-52
7.23333,-52
7.24167,-52
7.25000,-52
7.25833,-52
7.26667,-52
7.27500,-52
7.28333,-52
7.29167,-53
7.30000,-53
7.30833,-53
7.31667,-53
7.32500,-53
7.33333,-53
7.34167,-53
7.35000,-53
7.35833,-53
7.36667,-53
7.37500,-53
7.38333,-53
7.39167,-53
7.40000,-53
7.40833,-53
7.41667,-53
7.42500,-53
7.43333,-53
7.44167,-53
7.45000,-53
7.45833,-53
7.46667,-53
7.47500,-53
7.48333,-53
7.49167,-53
7.50000,-53
7.50833,-54
7.51667,-54
7.52500,-54
7.53333,-54
7.54167,-54
7.55000,-54
7.55833,-54
7.56667,-53
7.57500,-53
7.58333,-53
7.59167,-53
7.60000,-53
7.60833,-54
7.61667,-54
7.62500,-54
7.63333,-54
7.64167,-54
7.65000,-54
7.65833,-54
7.66667,-54
7.67500,-54
7.68333,-54
7.69167,-54
7.70000,-54
7.70833,-55
7.71667,-55
7.72500,-55
7.73333,-55
7.74167,-55
7.75000,-55
7.75833,-55
7.76667,-55
7.77500,-54
7.78333,-54
7.79167,-54
7.80000,-55
7.80833,-55
7.81667,-55
7.82500,-55
7.83333,-55
7.84167,-55
7.85000,-55
7.85833,-55
7.86667,-55
7.87500,-55
7.88333,-55
7.89167,-56
7.90000,-56
7.90833,-56
7.91667,-56
7.92500,-56
7.93333,-55
7.94167,-55
7.95000,-55
7.95833,-55
7.96667,-55
7.97500,-55
7.98333,-55
7.99167,-54
8.00000,-54
8.00833,-54
8.01667,-54
8.02500,-54
8.03333,-55
8.04167,-55
8.05000,-55
8.05833,-55
8.06667,-55
8.07500,-55
8.08333,-55
8.09167,-55
8.10000,-56
8.10833,-56
8.11667,-56
8.12500,-56
8.13333,-56
8.14167,-56
8.15000,-56
8.15833,-56
8.16667,-56
8.17500,-56
8.18333,-56
8.19167,-56
8.20000,-56
8.20833,-56
8.21667,-56
8.22500,-55
8.23333,-55
8.24167,-55
8.25000,-55
8.25833,-55
8.26667,-55
8.27500,-55
8.28333,-55
8.29167,-55
8.30000,-56
8.30833,-56
8.31667,-56
8.32500,-56
8.33333,-56
8.34167,-56
8.35000,-56
8.35833,-56
8.36667,-57
8.37500,-57
8.38333,-57
8.39167,-57
8.40000,-56
8.40833,-56
8.41667,-56
8.42500,-56
8.43333,-56
8.44167,-57
8.45000,-57
8.45833,-57
8.46667,-57
8.47500,-57
8.48333,-57
8.49167,-57
8.50000,-57
8.50833,-57
8.51667,-57
8.52500,-57
8.53333,-57
8.54167,-57
8.55000,-57
8.55833,-57
8.56667,-58
8.57500,-58
8.58333,-58
8.59167,-58
8.60000,-57
8.60833,-57
8.61667,-57
8.62500,-57
8.63333,-57
8.64167,-57
8.65000,-57
8.65833,-57
8.66667,-57
8.67500,-57
8.68333,-57
8.69167,-57
8.70000,-57
8.70833,-57
8.71667,-57
8.72500,-58
8.73333,-58
8.74167,-57
8.75000,-57
8.75833,-57
8.76667,-57
8.77500,-57
8.78333,-57
8.79167,-57
8.80000,-57
8.80833,-57
8.81667,-57
8.82500,-57
8.83333,-57
8.84167,-57
8.85000,-57
8.85833,-57
8.86667,-57
8.87500,-57
8.88333,-57
8.89167,-57
8.90000,-57
8.90833,-57
8.91667,-57
8.92500,-57
8.93333,-58
8.94167,-58
8.95000,-57
8.95833,-57
8.96667,-57
8.97500,-57
8.98333,-57
8.99167,-57
9.00000,-57
9.00833,-56
9.01667,-56
9.02500,-57
9.03333,-57
9.04167,-57
9.05000,-56
9.05833,-57
9.06667,-57
9.07500,-57
9.08333,-57
9.09167,-57
9.10000,-57
9.10833,-57
9.11667,-57
9.12500,-57
9.13333,-57
9.14167,-57
9.15000,-57
9.15833,-57
9.16667,-56
9.17500,-56
9.18333,-56
9.19167,-57
9.20000,-57
9.20833,-57
9.21667,-57
9.22500,-57
9.23333,-57
9.24167,-56
9.25000,-56
9.25833,-56
9.26667,-56
9.27500,-56
9.28333,-56
9.29167,-56
9.30000,-56
9.30833,-56
9.31667,-57
9.32500,-57
9.33333,-57
9.34167,-57
9.35000,-56
9.35833,-56
9.36667,-56
9.37500,-56
9.38333,-56
9.39167,-56
9.40000,-56
9.40833,-56
9.41667,-56
9.42500,-56
9.43333,-55
9.44167,-55
9.45000,-55
9.45833,-55
9.46667,-56
9.47500,-56
9.48333,-56
9.49167,-56
9.50000,-56
9.50833,-56
9.51667,-56
9.52500,-56
9.53333,-56
9.54167,-56
9.55000,-56
9.55833,-56
9.56667,-56
9.57500,-56
9.58333,-56
9.59167,-56
9.60000,-56
9.60833,-56
9.61667,-55
9.62500,-55
9.63333,-55
9.64167,-55
9.65000,-55
9.65833,-55
9.66667,-55
9.67500,-55
9.68333,-55
9.69167,-54
9.70000,-54
9.70833,-54
9.71667,-54
9.72500,-54
9.73333,-54
9.74167,-54
9.75000,-55
9.75833,-55
9.76667,-54
9.77500,-54
9.78333,-55
9.79167,-55
9.80000,-55
9.80833,-54
9.81667,-54
9.82500,-54
9.83333,-54
9.84167,-54
9.85000,-54
9.85833,-54
9.86667,-54
9.87500,-54
9.88333,-54
9.89167,-53
9.90000,-53
9.90833,-53
9.91667,-53
9.92500,-53
9.93333,-53
9.94167,-53
9.95000,-53
9.95833,-52
9.96667,-52
9.97500,-52
9.98333,-52
9.99167,-52
10.00000,-51
10.00833,-51
10.01667,-51
10.02500,-51
10.03333,-50
10.04167,-50
10.05000,-50
10.05833,-50
10.06667,-50
10.07500,-49
10.08333,-48
10.09167,-47
10.10000,-47
10.10833,-47
10.11667,-46
10.12500,-46
10.13333,-45
10.14167,-45
10.15000,-44
10.15833,-43
10.16667,-42
10.17500,-41
10.18333,-40
10.19167,-38
10.20000,-37
10.20833,-35
10.21667,-34
10.22500,-32
10.23333,-30
10.24167,-28
10.25000,-26
10.25833,-24
10.26667,-21
10.27500,-18
10.28333,-14
10.29167,-10
10.30000,-5
10.30833,0
10.31667,7
10.32500,15
10.33333,24
10.34167,35
10.35000,48
10.35833,62
10.36667,78
10.37500,96
10.38333,116
10.39167,136
10.40000,157
10.40833,178
10.41667,199
10.42500,219
10.43333,238
10.44167,255
10.45000,268
10.45833,278
10.46667,285
10.47500,289
10.48333,290
10.49167,289
10.50000,287
10.50833,286
10.51667,289
10.52500,300
10.53333,320
10.54167,356
10.55000,411
10.55833,490
10.56667,600
10.57500,745
10.58333,931
10.59167,1166
10.60000,1453
10.60833,1801
10.61667,2215
10.62500,2701
10.63333,3266
10.64167,3914
10.65000,4650
10.65833,5481
10.66667,6411
10.67500,7443
10.68333,8582
10.69167,9831
10.70000,11195
10.70833,12675
10.71667,14274
10.72500,15993
10.73333,17835
10.74167,19800
10.75000,21890
10.75833,24103
10.76667,26441
10.77500,28903
10.78333,31487
10.79167,34192
10.80000,37016
10.80833,39956
10.81667,43010
10.82500,46173
10.83333,49441
10.84167,52810
10.85000,56271
10.85833,59820
10.86667,63446
10.87500,67140
10.88333,70890
10.89167,74681
10.90000,78496
10.90833,82317
10.91667,86119
10.92500,89875
10.93333,93556
10.94167,97123
10.95000,100538
10.95833,103754
10.96667,106722
10.97500,109389
10.98333,111698
10.99167,113592
11.00000,115014
11.00833,115910
11.01667,116231
11.02500,115937
11.03333,114999
11.04167,113401
11.05000,111146
11.05833,108251
11.06667,104755
11.07500,100712
11.08333,96192
11.09167,91279
11.10000,86064
11.10833,80644
11.11667,75116
11.12500,69571
11.13333,64095
11.14167,58760
11.15000,53632
11.15833,48757
11.16667,44176
11.17500,39910
11.18333,35975
11.19167,32374
11.20000,29102
11.20833,26148
11.21667,23495
11.22500,21126
11.23333,19019
11.24167,17151
11.25000,15500
11.25833,14044
11.26667,12762
11.27500,11634
11.28333,10643
11.29167,9770
11.30000,9002
11.30833,8326
11.31667,7728
11.32500,7200
11.33333,6731
11.34167,6314
11.35000,5941
11.35833,5607
11.36667,5307
11.37500,5036
11.38333,4790
11.39167,4565
11.40000,4360
11.40833,4170
11.41667,3996
11.42500,3834
11.43333,3683
11.44167,3542
11.45000,3411
11.45833,3288
11.46667,3172
11.47500,3062
11.48333,2957
11.49167,2858
11.50000,2763
11.50833,2673
11.51667,2587
11.52500,2506
11.53333,2428
11.54167,2353
11.55000,2282
11.55833,2213
11.56667,2148
11.57500,2085
11.58333,2025
11.59167,1967
11.60000,1912
11.60833,1858
11.61667,1807
11.62500,1757
11.63333,1710
11.64167,1664
11.65000,1621
11.65833,1578
11.66667,1538
11.67500,1499
11.68333,1461
11.69167,1425
11.70000,1389
11.70833,1356
11.71667,1323
11.72500,1292
11.73333,1262
11.74167,1233
11.75000,1206
11.75833,1179
11.76667,1153
11.77500,1128
11.78333,1104
11.79167,1081
11.80000,1059
11.80833,1037
11.81667,1017
11.82500,997
11.83333,978
11.84167,960
11.85000,942
11.85833,925
11.86667,909
11.87500,893
11.88333,878
11.89167,864
11.90000,850
11.90833,836
11.91667,823
11.92500,811
11.93333,800
11.94167,789
11.95000,778
11.95833,767
11.96667,758
11.97500,748
11.98333,738
11.99167,730
12.00000,721
12.00833,713
12.01667,704
12.02500,697
12.03333,690
12.04167,683
12.05000,676
12.05833,669
12.06667,663
12.07500,657
12.08333,651
12.09167,645
12.10000,640
12.10833,635
12.11667,630
12.12500,626
12.13333,621
12.14167,617
12.15000,613
12.15833,609
12.16667,606
12.17500,603
12.18333,600
12.19167,598
12.20000,596
12.20833,593
12.21667,591
12.22500,589
12.23333,587
12.24167,585
12.25000,584
12.25833,582
12.26667,581
12.27500,580
12.28333,579
12.29167,578
12.30000,578
12.30833,578
12.31667,577
12.32500,577
12.33333,576
12.34167,576
12.35000,575
12.35833,575
12.36667,574
12.37500,574
12.38333,573
12.39167,573
12.40000,572
12.40833,571
12.41667,571
12.42500,570
12.43333,569
12.44167,568
12.45000,567
12.45833,566
12.46667,565
12.47500,564
12.48333,562
12.49167,561
12.50000,559
12.50833,557
12.51667,555
12.52500,554
12.53333,551
12.54167,549
12.55000,547
12.55833,545
12.56667,543
12.57500,541
12.58333,538
12.59167,535
12.60000,533
12.60833,531
12.61667,529
12.62500,527
12.63333,525
12.64167,524
12.65000,523
12.65833,522
12.66667,521
12.67500,520
12.68333,521
12.69167,522
12.70000,524
12.70833,528
12.71667,533
12.72500,539
12.73333,547
12.74167,556
12.75000,568
12.75833,582
12.76667,599
12.77500,618
12.78333,641
12.79167,667
12.80000,696
12.80833,729
12.81667,766
12.82500,807
12.83333,853
12.84167,903
12.85000,958
12.85833,1018
12.86667,1083
12.87500,1153
12.88333,1229
12.89167,1311
12.90000,1398
12.90833,1491
12.91667,1589
12.92500,1694
12.93333,1804
12.94167,1920
12.95000,2042
12.95833,2171
12.96667,2305
12.97500,2446
12.98333,2592
12.99167,2745
13.00000,2903
13.00833,3067
13.01667,3237
13.02500,3413
13.03333,3595
13.04167,3782
13.05000,3976
13.05833,4175
13.06667,4380
13.07500,4589
13.08333,4804
13.09167,5024
13.10000,5250
13.10833,5481
13.11667,5716
13.12500,5956
13.13333,6201
13.14167,6450
13.15000,6704
13.15833,6963
13.16667,7226
13.17500,7493
13.18333,7764
13.19167,8039
13.20000,8318
13.20833,8601
13.21667,8887
13.22500,9177
13.23333,9471
13.24167,9769
13.25000,10069
13.25833,10373
13.26667,10681
13.27500,10992
13.28333,11306
13.29167,11623
13.30000,11942
13.30833,12265
13.31667,12591
13.32500,12920
13.33333,13251
13.34167,13586
13.35000,13923
13.35833,14263
13.36667,14606
13.37500,14953
13.38333,15302
13.39167,15654
13.40000,16009
13.40833,16367
13.41667,16727
13.42500,17091
13.43333,17458
13.44167,17827
13.45000,18199
13.45833,18574
13.46667,18952
13.47500,19333
13.48333,19717
13.49167,20104
13.50000,20494
13.50833,20887
13.51667,21283
13.52500,21682
13.53333,22085
13.54167,22491
13.55000,22900
13.55833,23312
13.56667,23727
13.57500,24146
13.58333,24569
13.59167,24995
13.60000,25424
13.60833,25856
13.61667,26292
13.62500,26731
13.63333,27174
13.64167,27620
13.65000,28070
13.65833,28523
13.66667,28981
13.67500,29442
13.68333,29907
13.69167,30376
13.70000,30848
13.70833,31325
13.71667,31806
13.72500,32290
13.73333,32778
13.74167,33270
13.75000,33767
13.75833,34267
13.76667,34772
13.77500,35280
13.78333,35793
13.79167,36310
13.80000,36832
13.80833,37358
13.81667,37888
13.82500,38423
13.83333,38962
13.84167,39506
13.85000,40054
13.85833,40607
13.86667,41164
13.87500,41727
13.88333,42293
13.89167,42865
13.90000,43442
13.90833,44023
13.91667,44610
13.92500,45201
13.93333,45798
13.94167,46400
13.95000,47007
13.95833,47620
13.96667,48237
13.97500,48861
13.98333,49489
13.99167,50122
14.00000,50762
14.00833,51407
14.01667,52058
14.02500,52715
14.03333,53378
14.04167,54046
14.05000,54721
14.05833,55402
14.06667,56089
14.07500,56781
14.08333,57480
14.09167,58185
14.10000,58897
14.10833,59615
14.11667,60340
14.12500,61071
14.13333,61810
14.14167,62555
14.15000,63307
14.15833,64065
14.16667,64831
14.17500,65604
14.18333,66385
14.19167,67172
14.20000,67966
14.20833,68765
14.21667,69567
14.22500,70370
14.23333,71169
14.24167,71960
14.25000,72736
14.25833,73489
14.26667,74209
14.27500,74884
14.28333,75502
14.29167,76050
14.30000,76517
14.30833,76890
14.31667,77156
14.32500,77307
14.33333,77332
14.34167,77225
14.35000,76979
14.35833,76590
14.36667,76055
14.37500,75371
14.38333,74535
14.39167,73546
14.40000,72400
14.40833,71098
14.41667,69635
14.42500,68011
14.43333,66226
14.44167,64282
14.45000,62180
14.45833,59930
14.46667,57539
14.47500,55022
14.48333,52396
14.49167,49681
14.50000,46900
14.50833,44080
14.51667,41247
14.52500,38429
14.53333,35653
14.54167,32944
14.55000,30325
14.55833,27815
14.56667,25429
14.57500,23182
14.58333,21082
14.59167,19133
14.60000,17338
14.60833,15695
14.61667,14199
14.62500,12846
14.63333,11627
14.64167,10534
14.65000,9557
14.65833,8687
14.66667,7914
14.67500,7229
14.68333,6622
14.69167,6086
14.70000,5613
14.70833,5195
14.71667,4825
14.72500,4499
14.73333,4209
14.74167,3952
14.75000,3724
14.75833,3520
14.76667,3339
14.77500,3176
14.78333,3029
14.79167,2897
14.80000,2777
14.80833,2669
14.81667,2570
14.82500,2479
14.83333,2395
14.84167,2318
14.85000,2247
14.85833,2181
14.86667,2120
14.87500,2062
14.88333,2008
14.89167,1957
14.90000,1909
14.90833,1864
14.91667,1822
14.92500,1782
14.93333,1744
14.94167,1708
14.95000,1674
14.95833,1642
14.96667,1611
14.97500,1582
14.98333,1554
14.99167,1528
15.00000,1502
15.00833,1479
15.01667,1456
15.02500,1435
15.03333,1415
15.04167,1396
15.05000,1378
15.05833,1362
15.06667,1346
15.07500,1331
15.08333,1317
15.09167,1304
15.10000,1291
15.10833,1280
15.11667,1269
15.12500,1259
15.13333,1251
15.14167,1243
15.15000,1236
15.15833,1231
15.16667,1227
15.17500,1225
15.18333,1225
15.19167,1226
15.20000,1231
15.20833,1239
15.21667,1251
15.22500,1267
15.23333,1290
15.24167,1320
15.25000,1357
15.25833,1404
15.26667,1462
15.27500,1534
15.28333,1620
15.29167,1722
15.30000,1845
15.30833,1989
15.31667,2158
15.32500,2353
15.33333,2580
15.34167,2840
15.35000,3137
15.35833,3474
15.36667,3854
15.37500,4281
15.38333,4756
15.39167,5283
15.40000,5865
15.40833,6503
15.41667,7200
15.42500,7957
15.43333,8774
15.44167,9651
15.45000,10591
15.45833,11590
15.46667,12647
15.47500,13761
15.48333,14928
15.49167,16144
15.50000,17407
15.50833,18711
15.51667,20050
15.52500,21419
15.53333,22812
15.54167,24223
15.55000,25645
15.55833,27071
15.56667,28493
15.57500,29904
15.58333,31298
15.59167,32668
15.60000,34008
15.60833,35311
15.61667,36571
15.62500,37782
15.63333,38940
15.64167,40040
15.65000,41077
15.65833,42049
15.66667,42951
15.67500,43782
15.68333,44538
15.69167,45219
15.70000,45821
15.70833,46343
15.71667,46786
15.72500,47147
15.73333,47428
15.74167,47627
15.75000,47745
15.75833,47782
15.76667,47738
15.77500,47615
15.78333,47413
15.79167,47133
15.80000,46777
15.80833,46346
15.81667,45843
15.82500,45270
15.83333,44630
15.84167,43923
15.85000,43155
15.85833,42327
15.86667,41444
15.87500,40510
15.88333,39528
15.89167,38503
15.90000,37439
15.90833,36340
15.91667,35212
15.92500,34060
15.93333,32888
15.94167,31701
15.95000,30504
15.95833,29302
15.96667,28099
15.97500,26901
15.98333,25711
15.99167,24534
16.00000,23372
16.00833,22231
16.01667,21113
16.02500,20022
16.03333,18960
16.04167,17931
16.05000,16934
16.05833,15972
16.06667,15048
16.07500,14160
16.08333,13311
16.09167,12501
16.10000,11730
16.10833,10999
16.11667,10306
16.12500,9651
16.13333,9033
16.14167,8452
16.15000,7907
16.15833,7396
16.16667,6919
16.17500,6473
16.18333,6059
16.19167,5673
16.20000,5315
16.20833,4983
16.21667,4676
16.22500,4393
16.23333,4131
16.24167,3891
16.25000,3668
16.25833,3464
16.26667,3277
16.27500,3104
16.28333,2946
16.29167,2802
16.30000,2669
16.30833,2548
16.31667,2436
16.32500,2334
16.33333,2241
16.34167,2155
16.35000,2076
16.35833,2004
16.36667,1938
16.37500,1877
16.38333,1821
16.39167,1769
16.40000,1721
16.40833,1677
16.41667,1637
16.42500,1599
16.43333,1564
16.44167,1531
16.45000,1501
16.45833,1472
16.46667,1445
16.47500,1419
16.48333,1395
16.49167,1372
16.50000,1350
16.50833,1329
16.51667,1309
16.52500,1289
16.53333,1270
16.54167,1252
16.55000,1234
16.55833,1217
16.56667,1201
16.57500,1185
16.58333,1169
16.59167,1153
16.60000,1138
16.60833,1122
16.61667,1108
16.62500,1093
16.63333,1079
16.64167,1064
16.65000,1051
16.65833,1037
16.66667,1024
16.67500,1012
16.68333,999
16.69167,987
16.70000,976
16.70833,965
16.71667,954
16.72500,943
16.73333,933
16.74167,923
16.75000,914
16.75833,905
16.76667,897
16.77500,889
16.78333,882
16.79167,875
16.80000,868
16.80833,862
16.81667,856
16.82500,850
16.83333,845
16.84167,840
16.85000,835
16.85833,831
16.86667,827
16.87500,823
16.88333,820
16.89167,817
16.90000,814
16.90833,811
16.91667,808
16.92500,806
16.93333,803
16.94167,801
16.95000,798
16.95833,796
16.96667,793
16.97500,791
16.98333,788
16.99167,786
17.00000,784
17.00833,782
17.01667,779
17.02500,777
17.03333,774
17.04167,772
17.05000,769
17.05833,767
17.06667,764
17.07500,762
17.08333,759
17.09167,757
17.10000,754
17.10833,751
17.11667,748
17.12500,746
17.13333,743
17.14167,740
17.15000,737
17.15833,733
17.16667,730
17.17500,727
17.18333,723
17.19167,719
17.20000,716
17.20833,712
17.21667,709
17.22500,705
17.23333,702
17.24167,698
17.25000,694
17.25833,690
17.26667,686
17.27500,682
17.28333,678
17.29167,674
17.30000,670
17.30833,666
17.31667,662
17.32500,658
17.33333,653
17.34167,649
17.35000,645
17.35833,641
17.36667,638
17.37500,635
17.38333,633
17.39167,630
17.40000,628
17.40833,626
17.41667,624
17.42500,622
17.43333,621
17.44167,620
17.45000,619
17.45833,619
17.46667,619
17.47500,620
17.48333,621
17.49167,622
17.50000,624
17.50833,627
17.51667,630
17.52500,632
17.53333,636
17.54167,639
17.55000,642
17.55833,646
17.56667,651
17.57500,655
17.58333,660
17.59167,665
17.60000,670
17.60833,675
17.61667,680
17.62500,686
17.63333,692
17.64167,698
17.65000,704
17.65833,710
17.66667,716
17.67500,722
17.68333,727
17.69167,733
17.70000,738
17.70833,743
17.71667,748
17.72500,753
17.73333,758
17.74167,763
17.75000,767
17.75833,771
17.76667,776
17.77500,780
17.78333,783
17.79167,787
17.80000,790
17.80833,792
17.81667,794
17.82500,796
17.83333,798
17.84167,800
17.85000,801
17.85833,801
17.86667,801
17.87500,801
17.88333,801
17.89167,800
17.90000,798
17.90833,797
17.91667,795
17.92500,792
17.93333,789
17.94167,786
17.95000,782
17.95833,779
17.96667,774
17.97500,769
17.98333,764
17.99167,758
18.00000,752
18.00833,746
18.01667,740
18.02500,733
18.03333,726
18.04167,719
18.05000,712
18.05833,704
18.06667,697
18.07500,689
18.08333,681
18.09167,673
18.10000,665
18.10833,657
18.11667,649
18.12500,641
18.13333,633
18.14167,625
18.15000,618
18.15833,610
18.16667,602
18.17500,595
18.18333,587
18.19167,580
18.20000,573
18.20833,565
18.21667,559
18.22500,552
18.23333,546
18.24167,539
18.25000,534
18.25833,528
18.26667,522
18.27500,517
18.28333,511
18.29167,506
18.30000,502
18.30833,498
18.31667,493
18.32500,489
18.33333,486
18.34167,483
18.35000,480
18.35833,477
18.36667,475
18.37500,473
18.38333,471
18.39167,469
18.40000,468
18.40833,467
18.41667,467
18.42500,467
18.43333,467
18.44167,467
18.45000,467
18.45833,468
18.46667,470
18.47500,471
18.48333,473
18.49167,475
18.50000,478
18.50833,480
18.51667,482
18.52500,485
18.53333,488
18.54167,491
18.55000,494
18.55833,498
18.56667,502
18.57500,506
18.58333,510
18.59167,514
18.60000,518
18.60833,523
18.61667,528
18.62500,532
18.63333,537
18.64167,542
18.65000,546
18.65833,551
18.66667,556
18.67500,561
18.68333,566
18.69167,571
18.70000,576
18.70833,581
18.71667,586
18.72500,591
18.73333,597
18.74167,602
18.75000,608
18.75833,613
18.76667,618
18.77500,622
18.78333,627
18.79167,632
18.80000,636
18.80833,641
18.81667,646
18.82500,651
18.83333,656
18.84167,661
18.85000,667
18.85833,671
18.86667,676
18.87500,681
18.88333,685
18.89167,690
18.90000,693
18.90833,697
18.91667,701
18.92500,705
18.93333,709
18.94167,713
18.95000,717
18.95833,721
18.96667,725
18.97500,728
18.98333,731
18.99167,734
19.00000,737
19.00833,740
19.01667,743
19.02500,746
19.03333,748
19.04167,751
19.05000,753
19.05833,755
19.06667,756
19.07500,758
19.08333,759
19.09167,760
19.10000,760
19.10833,761
19.11667,762
19.12500,762
19.13333,762
19.14167,762
19.15000,761
19.15833,761
19.16667,759
19.17500,758
19.18333,757
19.19167,755
19.20000,754
19.20833,752
19.21667,750
19.22500,747
19.23333,745
19.24167,742
19.25000,739
19.25833,735
19.26667,732
19.27500,728
19.28333,725
19.29167,721
19.30000,717
19.30833,713
19.31667,708
19.32500,704
19.33333,700
19.34167,695
19.35000,690
19.35833,686
19.36667,681
19.37500,676
19.38333,671
19.39167,665
19.40000,659
19.40833,654
19.41667,648
19.42500,642
19.43333,636
19.44167,630
19.45000,625
19.45833,619
19.46667,614
19.47500,609
19.48333,603
19.49167,597
19.50000,591
19.50833,585
19.51667,579
19.52500,574
19.53333,568
19.54167,563
19.55000,557
19.55833,552
19.56667,547
19.57500,541
19.58333,536
19.59167,531
19.60000,525
19.60833,521
19.61667,516
19.62500,511
19.63333,506
19.64167,502
19.65000,497
19.65833,493
19.66667,490
19.67500,486
19.68333,483
19.69167,480
19.70000,477
19.70833,474
19.71667,471
19.72500,468
19.73333,467
19.74167,465
19.75000,464
19.75833,463
19.76667,462
19.77500,462
19.78333,462
19.79167,463
19.80000,464
19.80833,465
19.81667,467
19.82500,470
19.83333,473
19.84167,477
19.85000,482
19.85833,487
19.86667,492
19.87500,498
19.88333,504
19.89167,511
19.90000,519
19.90833,527
19.91667,536
19.92500,545
19.93333,555
19.94167,566
19.95000,577
19.95833,589
19.96667,601
19.97500,613
19.98333,625
19.99167,638
20.00000,652
20.00833,666
20.01667,680
20.02500,695
20.03333,709
20.04167,724
20.05000,739
20.05833,754
20.06667,768
20.07500,783
20.08333,798
20.09167,812
20.10000,826
20.10833,840
20.11667,853
20.12500,866
20.13333,879
20.14167,892
20.15000,904
20.15833,915
20.16667,926
20.17500,937
20.18333,947
20.19167,956
20.20000,965
20.20833,973
20.21667,981
20.22500,988
20.23333,994
20.24167,1000
20.25000,1005
20.25833,1010
20.26667,1014
20.27500,1017
20.28333,1020
20.29167,1021
20.30000,1022
20.30833,1022
20.31667,1022
20.32500,1022
20.33333,1021
20.34167,1020
20.35000,1018
20.35833,1016
20.36667,1013
20.37500,1009
20.38333,1005
20.39167,1001
20.40000,997
20.40833,993
20.41667,989
20.42500,984
20.43333,980
20.44167,975
20.45000,970
20.45833,965
20.46667,961
20.47500,957
20.48333,953
20.49167,950
20.50000,947
20.50833,945
20.51667,943
20.52500,942
20.53333,941
20.54167,940
20.55000,941
20.55833,942
20.56667,944
20.57500,947
20.58333,950
20.59167,954
20.60000,959
20.60833,964
20.61667,970
20.62500,977
20.63333,984
20.64167,991
20.65000,1000
20.65833,1009
20.66667,1019
20.67500,1029
20.68333,1039
20.69167,1049
20.70000,1059
20.70833,1070
20.71667,1080
20.72500,1091
20.73333,1101
20.74167,1112
20.75000,1123
20.75833,1133
20.76667,1143
20.77500,1153
20.78333,1163
20.79167,1172
20.80000,1181
20.80833,1190
20.81667,1199
20.82500,1207
20.83333,1214
20.84167,1221
20.85000,1228
20.85833,1235
20.86667,1241
20.87500,1246
20.88333,1251
20.89167,1255
20.90000,1259
20.90833,1262
20.91667,1265
20.92500,1268
20.93333,1270
20.94167,1272
20.95000,1273
20.95833,1274
20.96667,1273
20.97500,1273
20.98333,1272
20.99167,1271
21.00000,1269
21.00833,1266
21.01667,1263
21.02500,1260
21.03333,1257
21.04167,1253
21.05000,1249
21.05833,1245
21.06667,1241
21.07500,1236
21.08333,1231
21.09167,1226
21.10000,1220
21.10833,1215
21.11667,1210
21.12500,1205
21.13333,1200
21.14167,1195
21.15000,1190
21.15833,1185
21.16667,1180
21.17500,1176
21.18333,1172
21.19167,1168
21.20000,1164
21.20833,1161
21.21667,1158
21.22500,1155
21.23333,1152
21.24167,1150
21.25000,1147
21.25833,1145
21.26667,1142
21.27500,1140
21.28333,1139
21.29167,1137
21.30000,1136
21.30833,1135
21.31667,1134
21.32500,1133
21.33333,1133
21.34167,1132
21.35000,1132
21.35833,1132
21.36667,1131
21.37500,1131
21.38333,1131
21.39167,1130
21.40000,1131
21.40833,1131
21.41667,1132
21.42500,1133
21.43333,1134
21.44167,1135
21.45000,1137
21.45833,1139
21.46667,1141
21.47500,1143
21.48333,1146
21.49167,1148
21.50000,1151
21.50833,1154
21.51667,1157
21.52500,1161
21.53333,1164
21.54167,1168
21.55000,1172
21.55833,1176
21.56667,1180
21.57500,1184
21.58333,1187
21.59167,1191
21.60000,1194
21.60833,1198
21.61667,1202
21.62500,1205
21.63333,1207
21.64167,1210
21.65000,1212
21.65833,1214
21.66667,1215
21.67500,1216
21.68333,1216
21.69167,1216
21.70000,1215
21.70833,1214
21.71667,1212
21.72500,1210
21.73333,1207
21.74167,1204
21.75000,1201
21.75833,1197
21.76667,1192
21.77500,1187
21.78333,1182
21.79167,1176
21.80000,1170
21.80833,1164
21.81667,1157
21.82500,1150
21.83333,1142
21.84167,1135
21.85000,1127
21.85833,1119
21.86667,1111
21.87500,1103
21.88333,1095
21.89167,1087
21.90000,1079
21.90833,1070
21.91667,1062
21.92500,1053
21.93333,1044
21.94167,1035
21.95000,1026
21.95833,1017
21.96667,1008
21.97500,998
21.98333,989
21.99167,979
22.00000,968
22.00833,958
22.01667,947
22.02500,936
22.03333,924
22.04167,913
22.05000,900
22.05833,888
22.06667,875
22.07500,862
22.08333,849
22.09167,835
22.10000,821
22.10833,807
22.11667,793
22.12500,778
22.13333,763
22.14167,748
22.15000,734
22.15833,718
22.16667,703
22.17500,687
22.18333,672
22.19167,657
22.20000,642
22.20833,628
22.21667,613
22.22500,598
22.23333,584
22.24167,570
22.25000,556
22.25833,543
22.26667,529
22.27500,516
22.28333,504
22.29167,492
22.30000,480
22.30833,469
22.31667,458
22.32500,447
22.33333,437
22.34167,428
22.35000,418
22.35833,410
22.36667,401
22.37500,393
22.38333,386
22.39167,379
22.40000,372
22.40833,366
22.41667,360
22.42500,355
22.43333,350
22.44167,346
22.45000,341
22.45833,337
22.46667,334
22.47500,331
22.48333,328
22.49167,325
22.50000,323
22.50833,321
22.51667,319
22.52500,317
22.53333,316
22.54167,315
22.55000,315
22.55833,315
22.56667,315
22.57500,316
22.58333,316
22.59167,317
22.60000,318
22.60833,319
22.61667,321
22.62500,323
22.63333,326
22.64167,328
22.65000,331
22.65833,333
22.66667,336
22.67500,340
22.68333,343
22.69167,347
22.70000,351
22.70833,356
22.71667,361
22.72500,366
22.73333,371
22.74167,376
22.75000,382
22.75833,388
22.76667,394
22.77500,400
22.78333,407
22.79167,413
22.80000,419
22.80833,426
22.81667,432
22.82500,439
22.83333,446
22.84167,453
22.85000,459
22.85833,466
22.86667,472
22.87500,478
22.88333,485
22.89167,491
22.90000,498
22.90833,504
22.91667,510
22.92500,516
22.93333,522
22.94167,528
22.95000,534
22.95833,539
22.96667,544
22.97500,549
22.98333,554
22.99167,559
23.00000,564
23.00833,568
23.01667,573
23.02500,577
23.03333,580
23.04167,584
23.05000,587
23.05833,590
23.06667,592
23.07500,595
23.08333,597
23.09167,599
23.10000,601
23.10833,603
23.11667,604
23.12500,605
23.13333,605
23.14167,606
23.15000,606
23.15833,606
23.16667,606
23.17500,606
23.18333,605
23.19167,603
23.20000,602
23.20833,599
23.21667,597
23.22500,594
23.23333,591
23.24167,588
23.25000,585
23.25833,582
23.26667,578
23.27500,574
23.28333,570
23.29167,566
23.30000,561
23.30833,557
23.31667,552
23.32500,547
23.33333,542
23.34167,537
23.35000,531
23.35833,527
23.36667,522
23.37500,517
23.38333,512
23.39167,507
23.40000,502
23.40833,497
23.41667,493
23.42500,488
23.43333,483
23.44167,478
23.45000,473
23.45833,469
23.46667,465
23.47500,462
23.48333,458
23.49167,455
23.50000,452
23.50833,448
23.51667,445
23.52500,442
23.53333,439
23.54167,436
23.55000,433
23.55833,430
23.56667,428
23.57500,425
23.58333,423
23.59167,422
23.60000,420
23.60833,418
23.61667,416
23.62500,415
23.63333,413
23.64167,412
23.65000,411
23.65833,410
23.66667,409
23.67500,407
23.68333,406
23.69167,405
23.70000,404
23.70833,403
23.71667,402
23.72500,401
23.73333,400
23.74167,399
23.75000,398
23.75833,397
23.76667,396
23.77500,395
23.78333,394
23.79167,394
23.80000,393
23.80833,393
23.81667,392
23.82500,392
23.83333,391
23.84167,390
23.85000,389
23.85833,388
23.86667,387
23.87500,387
23.88333,386
23.89167,386
23.90000,385
23.90833,384
23.91667,383
23.92500,382
23.93333,382
23.94167,381
23.95000,380
23.95833,379
23.96667,378
23.97500,377
23.98333,376
23.99167,375
24.00000,375
24.00833,374
24.01667,373
24.02500,372
24.03333,371
24.04167,371
24.05000,370
24.05833,369
24.06667,369
24.07500,368
24.08333,368
24.09167,367
24.10000,366
24.10833,366
24.11667,365
24.12500,364
24.13333,363
24.14167,362
24.15000,362
24.15833,361
24.16667,361
24.17500,360
24.18333,360
24.19167,359
24.20000,359
24.20833,359
24.21667,359
24.22500,359
24.23333,359
24.24167,359
24.25000,359
24.25833,360
24.26667,360
24.27500,361
24.28333,362
24.29167,363
24.30000,364
24.30833,365
24.31667,367
24.32500,368
24.33333,371
24.34167,373
24.35000,377
24.35833,380
24.36667,384
24.37500,389
24.38333,393
24.39167,399
24.40000,405
24.40833,412
24.41667,420
24.42500,429
24.43333,439
24.44167,450
24.45000,462
24.45833,475
24.46667,490
24.47500,506
24.48333,524
24.49167,544
24.50000,566
24.50833,589
24.51667,614
24.52500,641
24.53333,670
24.54167,702
24.55000,736
24.55833,772
24.56667,811
24.57500,852
24.58333,895
24.59167,941
24.60000,990
24.60833,1041
24.61667,1095
24.62500,1151
24.63333,1210
24.64167,1271
24.65000,1334
24.65833,1399
24.66667,1467
24.67500,1536
24.68333,1608
24.69167,1681
24.70000,1756
24.70833,1832
24.71667,1910
24.72500,1988
24.73333,2068
24.74167,2148
24.75000,2228
24.75833,2309
24.76667,2390
24.77500,2470
24.78333,2550
24.79167,2630
24.80000,2709
24.80833,2787
24.81667,2864
24.82500,2939
24.83333,3013
24.84167,3085
24.85000,3156
24.85833,3225
24.86667,3292
24.87500,3357
24.88333,3420
24.89167,3481
24.90000,3540
24.90833,3596
24.91667,3649
24.92500,3701
24.93333,3750
24.94167,3797
24.95000,3841
24.95833,3882
24.96667,3921
24.97500,3958
24.98333,3991
24.99167,4023
25.00000,4052
25.00833,4077
25.01667,4100
25.02500,4121
25.03333,4139
25.04167,4154
25.05000,4167
25.05833,4176
25.06667,4183
25.07500,4186
25.08333,4187
25.09167,4185
25.10000,4180
25.10833,4172
25.11667,4160
25.12500,4146
25.13333,4128
25.14167,4106
25.15000,4081
25.15833,4053
25.16667,4022
25.17500,3988
25.18333,3950
25.19167,3910
25.20000,3866
25.20833,3819
25.21667,3769
25.22500,3716
25.23333,3660
25.24167,3602
25.25000,3542
25.25833,3479
25.26667,3413
25.27500,3346
25.28333,3276
25.29167,3205
25.30000,3132
25.30833,3058
25.31667,2983
25.32500,2906
25.33333,2829
25.34167,2751
25.35000,2673
25.35833,2595
25.36667,2517
25.37500,2439
25.38333,2361
25.39167,2284
25.40000,2207
25.40833,2132
25.41667,2057
25.42500,1984
25.43333,1912
25.44167,1842
25.45000,1773
25.45833,1706
25.46667,1641
25.47500,1577
25.48333,1515
25.49167,1455
25.50000,1397
25.50833,1341
25.51667,1287
25.52500,1236
25.53333,1186
25.54167,1139
25.55000,1093
25.55833,1050
25.56667,1008
25.57500,968
25.58333,931
25.59167,895
25.60000,861
25.60833,828
25.61667,798
25.62500,769
25.63333,741
25.64167,715
25.65000,691
25.65833,668
25.66667,646
25.67500,626
25.68333,607
25.69167,589
25.70000,572
25.70833,556
25.71667,541
25.72500,528
25.73333,515
25.74167,503
25.75000,491
25.75833,480
25.76667,470
25.77500,460
25.78333,450
25.79167,441
25.80000,433
25.80833,425
25.81667,417
25.82500,410
25.83333,404
25.84167,397
25.85000,391
25.85833,384
25.86667,378
25.87500,372
25.88333,367
25.89167,362
25.90000,356
25.90833,351
25.91667,346
25.92500,341
25.93333,337
25.94167,332
25.95000,327
25.95833,322
25.96667,318
25.97500,313
25.98333,308
25.99167,304
26.00000,300
26.00833,296
26.01667,291
26.02500,287
26.03333,282
26.04167,278
26.05000,274
26.05833,270
26.06667,265
26.07500,261
26.08333,257
26.09167,253
26.10000,249
26.10833,244
26.11667,240
26.12500,236
26.13333,232
26.14167,228
26.15000,224
26.15833,221
26.16667,217
26.17500,213
26.18333,209
26.19167,206
26.20000,203
26.20833,200
26.21667,197
26.22500,194
26.23333,192
26.24167,189
26.25000,186
26.25833,183
26.26667,180
26.27500,177
26.28333,175
26.29167,173
26.30000,171
26.30833,169
26.31667,167
26.32500,165
26.33333,163
26.34167,161
26.35000,159
26.35833,158
26.36667,156
26.37500,155
26.38333,154
26.39167,152
26.40000,152
26.40833,151
26.41667,150
26.42500,149
26.43333,148
26.44167,147
26.45000,146
26.45833,145
26.46667,145
26.47500,144
26.48333,143
26.49167,142
26.50000,142
26.50833,141
26.51667,141
26.52500,141
26.53333,141
26.54167,141
26.55000,141
26.55833,141
26.56667,141
26.57500,141
26.58333,141
26.59167,141
26.60000,141
26.60833,141
26.61667,140
26.62500,140
26.63333,140
26.64167,140
26.65000,140
26.65833,140
26.66667,140
26.67500,140
26.68333,140
26.69167,140
26.70000,140
26.70833,139
26.71667,139
26.72500,140
26.73333,140
26.74167,140
26.75000,140
26.75833,140
26.76667,140
26.77500,139
26.78333,139
26.79167,139
26.80000,139
26.80833,139
26.81667,139
26.82500,139
26.83333,139
26.84167,139
26.85000,139
26.85833,139
26.86667,139
26.87500,139
26.88333,139
26.89167,139
26.90000,139
26.90833,140
26.91667,140
26.92500,140
26.93333,140
26.94167,140
26.95000,141
26.95833,141
26.96667,141
26.97500,141
26.98333,141
26.99167,141
27.00000,141
27.00833,141
27.01667,140
27.02500,140
27.03333,140
27.04167,141
27.05000,141
27.05833,141
27.06667,141
27.07500,141
27.08333,141
27.09167,140
27.10000,140
27.10833,140
27.11667,140
27.12500,140
27.13333,141
27.14167,141
27.15000,141
27.15833,141
27.16667,141
27.17500,141
27.18333,141
27.19167,141
27.20000,142
27.20833,142
27.21667,142
27.22500,142
27.23333,142
27.24167,142
27.25000,142
27.25833,142
27.26667,142
27.27500,142
27.28333,142
27.29167,142
27.30000,142
27.30833,142
27.31667,141
27.32500,141
27.33333,141
27.34167,141
27.35000,141
27.35833,141
27.36667,141
27.37500,141
27.38333,140
27.39167,140
27.40000,140
27.40833,140
27.41667,140
27.42500,140
27.43333,141
27.44167,141
27.45000,141
27.45833,141
27.46667,140
27.47500,140
27.48333,140
27.49167,140
27.50000,140
27.50833,139
27.51667,139
27.52500,139
27.53333,138
27.54167,138
27.55000,137
27.55833,137
27.56667,136
27.57500,136
27.58333,135
27.59167,135
27.60000,135
27.60833,135
27.61667,134
27.62500,134
27.63333,134
27.64167,134
27.65000,133
27.65833,133
27.66667,133
27.67500,132
27.68333,132
27.69167,131
27.70000,131
27.70833,130
27.71667,130
27.72500,129
27.73333,128
27.74167,127
27.75000,127
27.75833,126
27.76667,126
27.77500,126
27.78333,126
27.79167,125
27.80000,125
27.80833,125
27.81667,125
27.82500,124
27.83333,124
27.84167,124
27.85000,123
27.85833,122
27.86667,121
27.87500,121
27.88333,120
27.89167,120
27.90000,119
27.90833,119
27.91667,119
27.92500,119
27.93333,119
27.94167,118
27.95000,119
27.95833,119
27.96667,119
27.97500,118
27.98333,118
27.99167,118
28.00000,118
28.00833,117
28.01667,117
28.02500,118
28.03333,118
28.04167,119
28.05000,119
28.05833,119
28.06667,119
28.07500,119
28.08333,119
28.09167,119
28.10000,119
28.10833,118
28.11667,118
28.12500,119
28.13333,119
28.14167,119
28.15000,119
28.15833,120
28.16667,120
28.17500,120
28.18333,120
28.19167,120
28.20000,120
28.20833,120
28.21667,120
28.22500,120
28.23333,120
28.24167,120
28.25000,120
28.25833,121
28.26667,121
28.27500,121
28.28333,121
28.29167,122
28.30000,122
28.30833,123
28.31667,123
28.32500,123
28.33333,124
28.34167,124
28.35000,125
28.35833,125
28.36667,126
28.37500,127
28.38333,128
28.39167,129
28.40000,131
28.40833,132
28.41667,134
28.42500,136
28.43333,137
28.44167,140
28.45000,143
28.45833,146
28.46667,149
28.47500,153
28.48333,157
28.49167,162
28.50000,168
28.50833,174
28.51667,181
28.52500,187
28.53333,195
28.54167,204
28.55000,214
28.55833,224
28.56667,235
28.57500,247
28.58333,261
28.59167,275
28.60000,291
28.60833,307
28.61667,325
28.62500,344
28.63333,364
28.64167,386
28.65000,409
28.65833,433
28.66667,459
28.67500,486
28.68333,515
28.69167,545
28.70000,576
28.70833,610
28.71667,645
28.72500,681
28.73333,719
28.74167,758
28.75000,799
28.75833,842
28.76667,886
28.77500,932
28.78333,978
28.79167,1026
28.80000,1075
28.80833,1125
28.81667,1176
28.82500,1228
28.83333,1281
28.84167,1335
28.85000,1388
28.85833,1443
28.86667,1498
28.87500,1553
28.88333,1609
28.89167,1664
28.90000,1720
28.90833,1776
28.91667,1831
28.92500,1886
28.93333,1941
28.94167,1995
28.95000,2049
28.95833,2101
28.96667,2152
28.97500,2203
28.98333,2252
28.99167,2300
29.00000,2347
29.00833,2393
29.01667,2438
29.02500,2481
29.03333,2523
29.04167,2563
29.05000,2601
29.05833,2638
29.06667,2673
29.07500,2705
29.08333,2737
29.09167,2767
29.10000,2795
29.10833,2823
29.11667,2849
29.12500,2873
29.13333,2894
29.14167,2914
29.15000,2933
29.15833,2949
29.16667,2965
29.17500,2978
29.18333,2990
29.19167,3001
29.20000,3010
29.20833,3018
29.21667,3024
29.22500,3029
29.23333,3032
29.24167,3034
29.25000,3034
29.25833,3033
29.26667,3030
29.27500,3026
29.28333,3021
29.29167,3014
29.30000,3005
29.30833,2995
29.31667,2983
29.32500,2970
29.33333,2955
29.34167,2939
29.35000,2922
29.35833,2903
29.36667,2882
29.37500,2860
29.38333,2837
29.39167,2811
29.40000,2785
29.40833,2756
29.41667,2726
29.42500,2694
29.43333,2661
29.44167,2627
29.45000,2591
29.45833,2555
29.46667,2517
29.47500,2477
29.48333,2437
29.49167,2395
29.50000,2352
29.50833,2308
29.51667,2264
29.52500,2218
29.53333,2172
29.54167,2124
29.55000,2076
29.55833,2027
29.56667,1977
29.57500,1928
29.58333,1878
29.59167,1829
29.60000,1779
29.60833,1729
29.61667,1679
29.62500,1629
29.63333,1580
29.64167,1530
29.65000,1481
29.65833,1432
29.66667,1384
29.67500,1337
29.68333,1290
29.69167,1244
29.70000,1198
29.70833,1154
29.71667,1110
29.72500,1068
29.73333,1026
29.74167,986
29.75000,946
29.75833,908
29.76667,870
29.77500,834
29.78333,799
29.79167,765
29.80000,732
29.80833,700
29.81667,669
29.82500,639
29.83333,610
29.84167,583
29.85000,557
29.85833,532
29.86667,507
29.87500,484
29.88333,462
29.89167,440
29.90000,420
29.90833,401
29.91667,383
29.92500,365
29.93333,349
29.94167,333
29.95000,317
29.95833,303
29.96667,290
29.97500,277
29.98333,264
29.99167,253
30.00000,241
30.00833,231
30.01667,221
30.02500,212
30.03333,202
30.04167,193
30.05000,184
30.05833,176
30.06667,168
30.07500,160
30.08333,153
30.09167,146
30.10000,139
30.10833,132
30.11667,125
30.12500,119
30.13333,113
30.14167,107
30.15000,101
30.15833,95
30.16667,89
30.17500,84
30.18333,78
30.19167,73
30.20000,67
30.20833,62
30.21667,57
30.22500,51
30.23333,46
30.24167,41
30.25000,36
30.25833,31
30.26667,26
30.27500,21
30.28333,16
30.29167,10
30.30000,5
30.30833,-0
30.31667,-6
30.32500,-11
30.33333,-16
30.34167,-21
30.35000,-25
30.35833,-30
30.36667,-35
30.37500,-40
30.38333,-44
30.39167,-49
30.40000,-53
30.40833,-57
30.41667,-62
30.42500,-66
30.43333,-70
30.44167,-74
30.45000,-79
30.45833,-83
30.46667,-86
30.47500,-89
30.48333,-93
30.49167,-96
30.50000,-99
30.50833,-102
30.51667,-105
30.52500,-108
30.53333,-110
30.54167,-112
30.55000,-115
30.55833,-117
30.56667,-119
30.57500,-120
30.58333,-122
30.59167,-124
30.60000,-125
30.60833,-126
30.61667,-127
30.62500,-127
30.63333,-127
30.64167,-128
30.65000,-128
30.65833,-128
30.66667,-128
30.67500,-127
30.68333,-126
30.69167,-125
30.70000,-123
30.70833,-122
30.71667,-120
30.72500,-118
30.73333,-116
30.74167,-114
30.75000,-112
30.75833,-109
30.76667,-106
30.77500,-103
30.78333,-100
30.79167,-96
30.80000,-93
30.80833,-89
30.81667,-85
30.82500,-81
30.83333,-77
30.84167,-72
30.85000,-68
30.85833,-64
30.86667,-59
30.87500,-55
30.88333,-50
30.89167,-45
30.90000,-40
30.90833,-34
30.91667,-29
30.92500,-24
30.93333,-18
30.94167,-12
30.95000,-6
30.95833,0
30.96667,6
30.97500,11
30.98333,16
30.99167,22
31.00000,27
31.00833,33
31.01667,38
31.02500,44
31.03333,49
31.04167,55
31.05000,60
31.05833,66
31.06667,71
31.07500,76
31.08333,82
31.09167,86
31.10000,91
31.10833,96
31.11667,100
31.12500,105
31.13333,110
31.14167,115
31.15000,119
31.15833,123
31.16667,127
31.17500,131
31.18333,135
31.19167,139
31.20000,142
31.20833,145
31.21667,147
31.22500,150
31.23333,153
31.24167,156
31.25000,158
31.25833,161
31.26667,163
31.27500,165
31.28333,167
31.29167,169
31.30000,171
31.30833,172
31.31667,174
31.32500,175
31.33333,176
31.34167,177
31.35000,178
31.35833,179
31.36667,180
31.37500,181
31.38333,181
31.39167,182
31.40000,182
31.40833,182
31.41667,182
31.42500,183
31.43333,182
31.44167,182
31.45000,182
31.45833,182
31.46667,181
31.47500,181
31.48333,181
31.49167,180
31.50000,179
31.50833,179
31.51667,178
31.52500,177
31.53333,177
31.54167,176
31.55000,176
31.55833,176
31.56667,175
31.57500,175
31.58333,174
31.59167,174
31.60000,173
31.60833,173
31.61667,172
31.62500,172
31.63333,171
31.64167,171
31.65000,170
31.65833,170
31.66667,170
31.67500,170
31.68333,171
31.69167,172
31.70000,172
31.70833,173
31.71667,174
31.72500,175
31.73333,176
31.74167,178
31.75000,179
31.75833,181
31.76667,182
31.77500,184
31.78333,186
31.79167,189
31.80000,191
31.80833,194
31.81667,197
31.82500,200
31.83333,204
31.84167,207
31.85000,211
31.85833,215
31.86667,219
31.87500,224
31.88333,228
31.89167,233
31.90000,238
31.90833,243
31.91667,249
31.92500,254
31.93333,259
31.94167,265
31.95000,271
31.95833,278
31.96667,284
31.97500,291
31.98333,297
31.99167,304
32.00000,310
32.00833,317
32.01667,324
32.02500,332
32.03333,339
32.04167,346
32.05000,352
32.05833,359
32.06667,366
32.07500,373
32.08333,380
32.09167,387
32.10000,394
32.10833,401
32.11667,408
32.12500,415
32.13333,422
32.14167,429
32.15000,436
32.15833,442
32.16667,449
32.17500,455
32.18333,461
32.19167,468
32.20000,474
32.20833,480
32.21667,485
32.22500,491
32.23333,496
32.24167,502
32.25000,507
32.25833,512
32.26667,518
32.27500,522
32.28333,527
32.29167,532
32.30000,536
32.30833,540
32.31667,544
32.32500,548
32.33333,552
32.34167,556
32.35000,559
32.35833,563
32.36667,567
32.37500,570
32.38333,573
32.39167,576
32.40000,579
32.40833,581
32.41667,584
32.42500,586
32.43333,589
32.44167,591
32.45000,593
32.45833,595
32.46667,596
32.47500,598
32.48333,599
32.49167,599
32.50000,600
32.50833,601
32.51667,602
32.52500,602
32.53333,602
32.54167,602
32.55000,602
32.55833,601
32.56667,601
32.57500,600
32.58333,598
32.59167,597
32.60000,595
32.60833,594
32.61667,592
32.62500,590
32.63333,588
32.64167,586
32.65000,583
32.65833,580
32.66667,577
32.67500,575
32.68333,572
32.69167,568
32.70000,564
32.70833,560
32.71667,556
32.72500,553
32.73333,549
32.74167,545
32.75000,541
32.75833,538
32.76667,534
32.77500,530
32.78333,525
32.79167,521
32.80000,517
32.80833,513
32.81667,508
32.82500,504
32.83333,499
32.84167,495
32.85000,491
32.85833,487
32.86667,483
32.87500,479
32.88333,474
32.89167,470
32.90000,466
32.90833,462
32.91667,459
32.92500,456
32.93333,452
32.94167,449
32.95000,446
32.95833,443
32.96667,440
32.97500,437
32.98333,434
32.99167,431
33.00000,428
33.00833,426
33.01667,423
33.02500,421
33.03333,418
33.04167,416
33.05000,414
33.05833,412
33.06667,410
33.07500,408
33.08333,406
33.09167,404
33.10000,402
33.10833,400
33.11667,399
33.12500,397
33.13333,395
33.14167,393
33.15000,392
33.15833,390
33.16667,388
33.17500,387
33.18333,385
33.19167,384
33.20000,382
33.20833,380
33.21667,378
33.22500,377
33.23333,375
33.24167,373
33.25000,371
33.25833,369
33.26667,367
33.27500,365
33.28333,364
33.29167,362
33.30000,360
33.30833,357
33.31667,355
33.32500,353
33.33333,351
33.34167,348
33.35000,346
33.35833,343
33.36667,341
33.37500,338
33.38333,336
33.39167,333
33.40000,330
33.40833,327
33.41667,324
33.42500,321
33.43333,319
33.44167,316
33.45000,313
33.45833,310
33.46667,307
33.47500,304
33.48333,300
33.49167,297
33.50000,294
33.50833,291
33.51667,288
33.52500,284
33.53333,281
33.54167,277
33.55000,274
33.55833,270
33.56667,267
33.57500,263
33.58333,259
33.59167,256
33.60000,252
33.60833,248
33.61667,244
33.62500,240
33.63333,237
33.64167,233
33.65000,229
33.65833,226
33.66667,222
33.67500,219
33.68333,215
33.69167,211
33.70000,207
33.70833,204
33.71667,200
33.72500,197
33.73333,193
33.74167,190
33.75000,186
33.75833,183
33.76667,179
33.77500,176
33.78333,172
33.79167,169
33.80000,166
33.80833,163
33.81667,159
33.82500,156
33.83333,153
33.84167,150
33.85000,147
33.85833,145
33.86667,142
33.87500,140
33.88333,137
33.89167,134
33.90000,131
33.90833,129
33.91667,126
33.92500,124
33.93333,121
33.94167,119
33.95000,116
33.95833,114
33.96667,111
33.97500,110
33.98333,108
33.99167,106
34.00000,104
34.00833,102
34.01667,100
34.02500,98
34.03333,97
34.04167,95
34.05000,93
34.05833,92
34.06667,91
34.07500,89
34.08333,88
34.09167,87
34.10000,85
34.10833,85
34.11667,83
34.12500,82
34.13333,81
34.14167,80
34.15000,79
34.15833,79
34.16667,78
34.17500,77
34.18333,76
34.19167,75
34.20000,74
34.20833,73
34.21667,72
34.22500,72
34.23333,71
34.24167,71
34.25000,71
34.25833,70
34.26667,70
34.27500,69
34.28333,69
34.29167,68
34.30000,67
34.30833,67
34.31667,67
34.32500,66
34.33333,66
34.34167,66
34.35000,65
34.35833,65
34.36667,64
34.37500,64
34.38333,64
34.39167,63
34.40000,63
34.40833,63
34.41667,63
34.42500,63
34.43333,62
34.44167,62
34.45000,62
34.45833,62
34.46667,62
34.47500,61
34.48333,61
34.49167,60
34.50000,60
34.50833,60
34.51667,60
34.52500,60
34.53333,59
34.54167,59
34.55000,58
34.55833,58
34.56667,57
34.57500,57
34.58333,57
34.59167,56
34.60000,56
34.60833,55
34.61667,55
34.62500,55
34.63333,55
34.64167,55
34.65000,55
34.65833,55
34.66667,55
34.67500,54
34.68333,54
34.69167,53
34.70000,53
34.70833,53
34.71667,53
34.72500,53
34.73333,53
34.74167,52
34.75000,52
34.75833,51
34.76667,51
34.77500,50
34.78333,50
34.79167,50
34.80000,50
34.80833,50
34.81667,50
34.82500,50
34.83333,49
34.84167,49
34.85000,49
34.85833,49
34.86667,49
34.87500,49
34.88333,49
34.89167,48
34.90000,48
34.90833,48
34.91667,48
34.92500,48
34.93333,48
34.94167,48
34.95000,48
34.95833,47
34.96667,47
34.97500,47
34.98333,48
34.99167,48
35.00000,48
35.00833,48
35.01667,48
35.02500,48
35.03333,49
35.04167,49
35.05000,49
35.05833,49
35.06667,49
35.07500,49
35.08333,49
35.09167,50
35.10000,51
35.10833,51
35.11667,52
35.12500,53
35.13333,53
35.14167,54
35.15000,55
35.15833,56
35.16667,57
35.17500,57
35.18333,58
35.19167,59
35.20000,60
35.20833,61
35.21667,62
35.22500,63
35.23333,63
35.24167,65
35.25000,66
35.25833,67
35.26667,69
35.27500,70
35.28333,71
35.29167,72
35.30000,74
35.30833,75
35.31667,76
35.32500,77
35.33333,79
35.34167,80
35.35000,82
35.35833,83
35.36667,85
35.37500,87
35.38333,88
35.39167,89
35.40000,91
35.40833,93
35.41667,95
35.42500,97
35.43333,98
35.44167,100
35.45000,101
35.45833,102
35.46667,103
35.47500,105
35.48333,106
35.49167,108
35.50000,109
35.50833,111
35.51667,113
35.52500,115
35.53333,116
35.54167,118
35.55000,119
35.55833,121
35.56667,122
35.57500,123
35.58333,124
35.59167,125
35.60000,126
35.60833,127
35.61667,129
35.62500,130
35.63333,132
35.64167,133
35.65000,134
35.65833,135
35.66667,135
35.67500,136
35.68333,137
35.69167,138
35.70000,139
35.70833,140
35.71667,140
35.72500,141
35.73333,142
35.74167,143
35.75000,143
35.75833,144
35.76667,144
35.77500,145
35.78333,146
35.79167,146
35.80000,147
35.80833,147
35.81667,148
35.82500,149
35.83333,149
35.84167,150
35.85000,150
35.85833,151
35.86667,151
35.87500,151
35.88333,151
35.89167,152
35.90000,152
35.90833,152
35.91667,152
35.92500,153
35.93333,153
35.94167,153
35.95000,153
35.95833,152
35.96667,152
35.97500,152
35.98333,152
35.99167,152
36.00000,152
36.00833,151
36.01667,151
36.02500,151
36.03333,150
36.04167,151
36.05000,151
36.05833,151
36.06667,150
36.07500,150
36.08333,149
36.09167,149
36.10000,148
36.10833,147
36.11667,146
36.12500,145
36.13333,145
36.14167,144
36.15000,143
36.15833,142
36.16667,141
36.17500,140
36.18333,140
36.19167,140
36.20000,139
36.20833,138
36.21667,137
36.22500,136
36.23333,135
36.24167,133
36.25000,132
36.25833,131
36.26667,130
36.27500,129
36.28333,127
36.29167,126
36.30000,125
36.30833,124
36.31667,123
36.32500,122
36.33333,121
36.34167,120
36.35000,120
36.35833,119
36.36667,117
36.37500,116
36.38333,115
36.39167,114
36.40000,113
36.40833,112
36.41667,111
36.42500,110
36.43333,108
36.44167,107
36.45000,107
36.45833,106
36.46667,106
36.47500,105
36.48333,104
36.49167,103
36.50000,102
36.50833,102
36.51667,101
36.52500,100
36.53333,100
36.54167,99
36.55000,98
36.55833,97
36.56667,97
36.57500,96
36.58333,96
36.59167,95
36.60000,95
36.60833,95
36.61667,94
36.62500,94
36.63333,94
36.64167,93
36.65000,93
36.65833,92
36.66667,92
36.67500,92
36.68333,92
36.69167,92
36.70000,92
36.70833,92
36.71667,92
36.72500,91
36.73333,91
36.74167,91
36.75000,91
36.75833,91
36.76667,91
36.77500,91
36.78333,91
36.79167,91
36.80000,91
36.80833,91
36.81667,92
36.82500,92
36.83333,93
36.84167,93
36.85000,94
36.85833,94
36.86667,94
36.87500,95
36.88333,95
36.89167,96
36.90000,96
36.90833,96
36.91667,96
36.92500,96
36.93333,96
36.94167,96
36.95000,97
36.95833,97
36.96667,98
36.97500,98
36.98333,99
36.99167,99
37.00000,99
37.00833,100
37.01667,101
37.02500,101
37.03333,102
37.04167,104
37.05000,104
37.05833,105
37.06667,106
37.07500,106
37.08333,107
37.09167,107
37.10000,108
37.10833,108
37.11667,109
37.12500,109
37.13333,110
37.14167,111
37.15000,112
37.15833,113
37.16667,114
37.17500,115
37.18333,115
37.19167,116
37.20000,117
37.20833,118
37.21667,119
37.22500,120
37.23333,120
37.24167,121
37.25000,122
37.25833,123
37.26667,123
37.27500,125
37.28333,126
37.29167,127
37.30000,128
37.30833,129
37.31667,130
37.32500,131
37.33333,131
37.34167,132
37.35000,133
37.35833,134
37.36667,135
37.37500,136
37.38333,137
37.39167,138
37.40000,139
37.40833,140
37.41667,141
37.42500,142
37.43333,143
37.44167,144
37.45000,145
37.45833,146
37.46667,147
37.47500,148
37.48333,149
37.49167,150
37.50000,151
37.50833,152
37.51667,153
37.52500,154
37.53333,155
37.54167,156
37.55000,157
37.55833,158
37.56667,159
37.57500,161
37.58333,162
37.59167,163
37.60000,164
37.60833,164
37.61667,165
37.62500,166
37.63333,167
37.64167,168
37.65000,169
37.65833,169
37.66667,170
37.67500,171
37.68333,172
37.69167,172
37.70000,172
37.70833,173
37.71667,173
37.72500,174
37.73333,174
37.74167,175
37.75000,175
37.75833,176
37.76667,176
37.77500,177
37.78333,177
37.79167,177
37.80000,178
37.80833,178
37.81667,179
37.82500,179
37.83333,179
37.84167,179
37.85000,179
37.85833,179
37.86667,179
37.87500,179
37.88333,179
37.89167,179
37.90000,179
37.90833,179
37.91667,179
37.92500,178
37.93333,178
37.94167,178
37.95000,178
37.95833,177
37.96667,177
37.97500,176
37.98333,176
37.99167,175
38.00000,175
38.00833,174
38.01667,174
38.02500,174
38.03333,173
38.04167,173
38.05000,172
38.05833,172
38.06667,171
38.07500,170
38.08333,169
38.09167,168
38.10000,167
38.10833,166
38.11667,165
38.12500,164
38.13333,164
38.14167,163
38.15000,162
38.15833,162
38.16667,161
38.17500,161
38.18333,160
38.19167,159
38.20000,158
38.20833,157
38.21667,155
38.22500,154
38.23333,153
38.24167,152
38.25000,151
38.25833,150
38.26667,148
38.27500,147
38.28333,145
38.29167,144
38.30000,143
38.30833,142
38.31667,140
38.32500,139
38.33333,138
38.34167,137
38.35000,135
38.35833,134
38.36667,133
38.37500,131
38.38333,130
38.39167,129
38.40000,127
38.40833,126
38.41667,124
38.42500,123
38.43333,122
38.44167,120
38.45000,119
38.45833,117
38.46667,116
38.47500,115
38.48333,113
38.49167,112
38.50000,111
38.50833,109
38.51667,107
38.52500,106
38.53333,105
38.54167,104
38.55000,103
38.55833,102
38.56667,100
38.57500,99
38.58333,97
38.59167,95
38.60000,93
38.60833,92
38.61667,90
38.62500,89
38.63333,88
38.64167,87
38.65000,85
38.65833,84
38.66667,83
38.67500,81
38.68333,80
38.69167,79
38.70000,78
38.70833,77
38.71667,76
38.72500,75
38.73333,74
38.74167,73
38.75000,72
38.75833,71
38.76667,70
38.77500,69
38.78333,68
38.79167,67
38.80000,66
38.80833,65
38.81667,64
38.82500,64
38.83333,63
38.84167,61
38.85000,60
38.85833,59
38.86667,58
38.87500,58
38.88333,57
38.89167,57
38.90000,56
38.90833,55
38.91667,55
38.92500,54
38.93333,53
38.94167,52
38.95000,51
38.95833,51
38.96667,50
38.97500,49
38.98333,49
38.99167,49
39.00000,48
39.00833,48
39.01667,47
39.02500,47
39.03333,46
39.04167,46
39.05000,46
39.05833,46
39.06667,45
39.07500,45
39.08333,44
39.09167,44
39.10000,43
39.10833,43
39.11667,43
39.12500,42
39.13333,42
39.14167,42
39.15000,41
39.15833,41
39.16667,41
39.17500,40
39.18333,40
39.19167,39
39.20000,39
39.20833,39
39.21667,39
39.22500,39
39.23333,38
39.24167,38
39.25000,38
39.25833,38
39.26667,38
39.27500,38
39.28333,38
39.29167,38
39.30000,38
39.30833,38
39.31667,38
39.32500,38
39.33333,38
39.34167,37
39.35000,37
39.35833,37
39.36667,36
39.37500,36
39.38333,36
39.39167,36
39.40000,36
39.40833,36
39.41667,37
39.42500,37
39.43333,37
39.44167,37
39.45000,37
39.45833,37
39.46667,36
39.47500,36
39.48333,36
39.49167,36
39.50000,36
39.50833,36
39.51667,36
39.52500,36
39.53333,37
39.54167,37
39.55000,36
39.55833,36
39.56667,37
39.57500,37
39.58333,37
39.59167,37
39.60000,37
39.60833,38
39.61667,37
39.62500,37
39.63333,36
39.64167,36
39.65000,36
39.65833,36
39.66667,36
39.67500,36
39.68333,36
39.69167,36
39.70000,37
39.70833,37
39.71667,37
39.72500,37
39.73333,37
39.74167,37
39.75000,36
39.75833,36
39.76667,36
39.77500,36
39.78333,36
39.79167,36
39.80000,36
39.80833,36
39.81667,36
39.82500,37
39.83333,37
39.84167,37
39.85000,36
39.85833,36
39.86667,36
39.87500,36
39.88333,37
39.89167,37
39.90000,36
39.90833,36
39.91667,36
39.92500,36
39.93333,36
39.94167,36
39.95000,36
39.95833,36
39.96667,36
39.97500,36
39.98333,36
39.99167,35
40.00000,35
40.00833,35
40.01667,35
40.02500,35
40.03333,35
40.04167,35
40.05000,36
40.05833,36
40.06667,36
40.07500,36
40.08333,36
40.09167,36
40.10000,36
40.10833,36
40.11667,36
40.12500,36
40.13333,36
40.14167,36
40.15000,36
40.15833,36
40.16667,36
40.17500,36
40.18333,36
40.19167,36
40.20000,37
40.20833,37
40.21667,37
40.22500,37
40.23333,37
40.24167,37
40.25000,37
40.25833,37
40.26667,37
40.27500,36
40.28333,36
40.29167,36
40.30000,36
40.30833,36
40.31667,36
40.32500,36
40.33333,36
40.34167,37
40.35000,37
40.35833,37
40.36667,38
40.37500,38
40.38333,39
40.39167,39
40.40000,39
40.40833,39
40.41667,40
40.42500,40
40.43333,40
40.44167,40
40.45000,40
40.45833,41
40.46667,42
40.47500,42
40.48333,43
40.49167,43
40.50000,43
40.50833,43
40.51667,44
40.52500,45
40.53333,46
40.54167,46
40.55000,47
40.55833,47
40.56667,48
40.57500,48
40.58333,49
40.59167,49
40.60000,50
40.60833,50
40.61667,51
40.62500,51
40.63333,52
40.64167,53
40.65000,54
40.65833,55
40.66667,56
40.67500,56
40.68333,57
40.69167,58
40.70000,58
40.70833,59
40.71667,61
40.72500,62
40.73333,63
40.74167,64
40.75000,66
40.75833,67
40.76667,68
40.77500,69
40.78333,70
40.79167,71
40.80000,72
40.80833,73
40.81667,75
40.82500,76
40.83333,78
40.84167,79
40.85000,80
40.85833,81
40.86667,82
40.87500,84
40.88333,85
40.89167,86
40.90000,88
40.90833,90
40.91667,92
40.92500,93
40.93333,94
40.94167,96
40.95000,97
40.95833,99
40.96667,100
40.97500,102
40.98333,103
40.99167,104
41.00000,106
41.00833,107
41.01667,108
41.02500,110
41.03333,111
41.04167,113
41.05000,114
41.05833,116
41.06667,118
41.07500,120
41.08333,121
41.09167,123
41.10000,124
41.10833,126
41.11667,127
41.12500,128
41.13333,130
41.14167,131
41.15000,133
41.15833,135
41.16667,136
41.17500,137
41.18333,139
41.19167,140
41.20000,141
41.20833,143
41.21667,144
41.22500,146
41.23333,148
41.24167,150
41.25000,151
41.25833,153
41.26667,154
41.27500,156
41.28333,157
41.29167,158
41.30000,159
41.30833,161
41.31667,162
41.32500,163
41.33333,165
41.34167,167
41.35000,169
41.35833,170
41.36667,171
41.37500,173
41.38333,174
41.39167,176
41.40000,177
41.40833,178
41.41667,179
41.42500,181
41.43333,182
41.44167,183
41.45000,184
41.45833,185
41.46667,187
41.47500,189
41.48333,190
41.49167,191
41.50000,192
41.50833,194
41.51667,195
41.52500,196
41.53333,198
41.54167,199
41.55000,200
41.55833,202
41.56667,203
41.57500,204
41.58333,205
41.59167,206
41.60000,207
41.60833,208
41.61667,209
41.62500,210
41.63333,210
41.64167,211
41.65000,212
41.65833,213
41.66667,214
41.67500,215
41.68333,216
41.69167,217
41.70000,218
41.70833,219
41.71667,220
41.72500,221
41.73333,222
41.74167,222
41.75000,223
41.75833,224
41.76667,224
41.77500,225
41.78333,225
41.79167,226
41.80000,227
41.80833,227
41.81667,228
41.82500,228
41.83333,228
41.84167,229
41.85000,229
41.85833,229
41.86667,230
41.87500,230
41.88333,230
41.89167,231
41.90000,231
41.90833,231
41.91667,232
41.92500,232
41.93333,232
41.94167,232
41.95000,232
41.95833,232
41.96667,232
41.97500,232
41.98333,232
41.99167,232
42.00000,232
42.00833,231
42.01667,231
42.02500,231
42.03333,231
42.04167,231
42.05000,231
42.05833,230
42.06667,230
42.07500,230
42.08333,231
42.09167,231
42.10000,231
42.10833,231
42.11667,231
42.12500,231
42.13333,230
42.14167,230
42.15000,230
42.15833,229
42.16667,229
42.17500,229
42.18333,229
42.19167,229
42.20000,228
42.20833,228
42.21667,228
42.22500,227
42.23333,227
42.24167,227
42.25000,227
42.25833,226
42.26667,226
42.27500,225
42.28333,225
42.29167,225
42.30000,224
42.30833,224
42.31667,224
42.32500,224
42.33333,223
42.34167,223
42.35000,222
42.35833,222
42.36667,222
42.37500,221
42.38333,221
42.39167,221
42.40000,220
42.40833,220
42.41667,219
42.42500,219
42.43333,218
42.44167,217
42.45000,217
42.45833,216
42.46667,216
42.47500,215
42.48333,215
42.49167,214
42.50000,214
42.50833,213
42.51667,213
42.52500,212
42.53333,212
42.54167,211
42.55000,210
42.55833,210
42.56667,210
42.57500,209
42.58333,208
42.59167,207
42.60000,206
42.60833,205
42.61667,205
42.62500,205
42.63333,204
42.64167,203
42.65000,203
42.65833,202
42.66667,201
42.67500,200
42.68333,200
42.69167,199
42.70000,199
42.70833,198
42.71667,198
42.72500,197
42.73333,196
42.74167,195
42.75000,194
42.75833,194
42.76667,193
42.77500,192
42.78333,191
42.79167,191
42.80000,190
42.80833,189
42.81667,189
42.82500,188
42.83333,188
42.84167,187
42.85000,186
42.85833,185
42.86667,184
42.87500,183
42.88333,182
42.89167,182
42.90000,181
42.90833,180
42.91667,179
42.92500,178
42.93333,177
42.94167,176
42.95000,175
42.95833,174
42.96667,173
42.97500,173
42.98333,172
42.99167,171
43.00000,171
43.00833,170
43.01667,169
43.02500,168
43.03333,167
43.04167,166
43.05000,165
43.05833,165
43.06667,164
43.07500,163
43.08333,162
43.09167,161
43.10000,161
43.10833,160
43.11667,159
43.12500,158
43.13333,157
43.14167,157
43.15000,156
43.15833,156
43.16667,155
43.17500,154
43.18333,154
43.19167,153
43.20000,153
43.20833,152
43.21667,151
43.22500,150
43.23333,150
43.24167,149
43.25000,148
43.25833,147
43.26667,147
43.27500,146
43.28333,145
43.29167,144
43.30000,143
43.30833,142
43.31667,142
43.32500,141
43.33333,140
43.34167,140
43.35000,140
43.35833,139
43.36667,139
43.37500,138
43.38333,138
43.39167,137
43.40000,136
43.40833,136
43.41667,135
43.42500,134
43.43333,133
43.44167,133
43.45000,132
43.45833,131
43.46667,131
43.47500,130
43.48333,129
43.49167,129
43.50000,128
43.50833,127
43.51667,126
43.52500,125
43.53333,125
43.54167,124
43.55000,124
43.55833,123
43.56667,123
43.57500,122
43.58333,121
43.59167,120
43.60000,119
43.60833,119
43.61667,119
43.62500,118
43.63333,118
43.64167,117
43.65000,116
43.65833,115
43.66667,114
43.67500,114
43.68333,114
43.69167,113
43.70000,112
43.70833,112
43.71667,111
43.72500,111
43.73333,110
43.74167,110
43.75000,110
43.75833,109
43.76667,108
43.77500,107
43.78333,107
43.79167,106
43.80000,106
43.80833,106
43.81667,105
43.82500,104
43.83333,103
43.84167,102
43.85000,102
43.85833,101
43.86667,100
43.87500,99
43.88333,99
43.89167,98
43.90000,98
43.90833,97
43.91667,96
43.92500,96
43.93333,96
43.94167,96
43.95000,95
43.95833,95
43.96667,94
43.97500,93
43.98333,92
43.99167,91
44.00000,91
44.00833,90
44.01667,89
44.02500,89
44.03333,89
44.04167,89
44.05000,88
44.05833,88
44.06667,87
44.07500,87
44.08333,86
44.09167,85
44.10000,85
44.10833,84
44.11667,84
44.12500,83
44.13333,83
44.14167,83
44.15000,82
44.15833,82
44.16667,81
44.17500,81
44.18333,81
44.19167,80
44.20000,79
44.20833,79
44.21667,78
44.22500,78
44.23333,78
44.24167,77
44.25000,76
44.25833,75
44.26667,75
44.27500,75
44.28333,74
44.29167,74
44.30000,73
44.30833,73
44.31667,73
44.32500,72
44.33333,72
44.34167,72
44.35000,72
44.35833,71
44.36667,70
44.37500,70
44.38333,69
44.39167,68
44.40000,67
44.40833,67
44.41667,66
44.42500,66
44.43333,66
44.44167,65
44.45000,65
44.45833,64
44.46667,64
44.47500,64
44.48333,63
44.49167,63
44.50000,62
44.50833,62
44.51667,62
44.52500,62
44.53333,61
44.54167,61
44.55000,61
44.55833,60
44.56667,60
44.57500,59
44.58333,59
44.59167,59
44.60000,59
44.60833,59
44.61667,59
44.62500,58
44.63333,58
44.64167,57
44.65000,57
44.65833,56
44.66667,56
44.67500,56
44.68333,56
44.69167,55
44.70000,55
44.70833,54
44.71667,53
44.72500,53
44.73333,52
44.74167,52
44.75000,52
44.75833,52
44.76667,51
44.77500,51
44.78333,50
44.79167,50
44.80000,50
44.80833,50
44.81667,51
44.82500,50
44.83333,50
44.84167,50
44.85000,49
44.85833,49
44.86667,48
44.87500,48
44.88333,48
44.89167,48
44.90000,48
44.90833,47
44.91667,47
44.92500,47
44.93333,47
44.94167,47
44.95000,46
44.95833,46
44.96667,46
44.97500,46
44.98333,46
44.99167,46
45.00000,46
45.00833,45
45.01667,45
45.02500,45
45.03333,45
45.04167,45
45.05000,45
45.05833,45
45.06667,44
45.07500,44
45.08333,44
45.09167,44
45.10000,44
45.10833,44
45.11667,44
45.12500,44
45.13333,44
45.14167,43
45.15000,43
45.15833,43
45.16667,43
45.17500,43
45.18333,43
45.19167,43
45.20000,43
45.20833,43
45.21667,44
45.22500,43
45.23333,43
45.24167,43
45.25000,43
45.25833,42
45.26667,42
45.27500,42
45.28333,42
45.29167,42
45.30000,41
45.30833,41
45.31667,41
45.32500,41
45.33333,41
45.34167,42
45.35000,41
45.35833,41
45.36667,41
45.37500,41
45.38333,41
45.39167,40
45.40000,40
45.40833,41
45.41667,41
45.42500,40
45.43333,40
45.44167,40
45.45000,40
45.45833,40
45.46667,40
45.47500,40
45.48333,40
45.49167,40
45.50000,40
45.50833,40
45.51667,40
45.52500,40
45.53333,40
45.54167,39
45.55000,40
45.55833,40
45.56667,40
45.57500,40
45.58333,40
45.59167,40
45.60000,40
45.60833,40
45.61667,40
45.62500,40
45.63333,39
45.64167,39
45.65000,39
45.65833,38
45.66667,39
45.67500,39
45.68333,39
45.69167,39
45.70000,39
45.70833,39
45.71667,39
45.72500,39
45.73333,39
45.74167,39
45.75000,39
45.75833,39
45.76667,39
45.77500,39
45.78333,39
45.79167,39
45.80000,39
45.80833,39
45.81667,38
45.82500,38
45.83333,38
45.84167,37
45.85000,37
45.85833,37
45.86667,37
45.87500,37
45.88333,37
45.89167,37
45.90000,37
45.90833,36
45.91667,36
45.92500,36
45.93333,36
45.94167,36
45.95000,36
45.95833,36
45.96667,36
45.97500,36
45.98333,36
45.99167,35
46.00000,35
46.00833,35
46.01667,35
46.02500,35
46.03333,35
46.04167,35
46.05000,34
46.05833,34
46.06667,35
46.07500,35
46.08333,35
46.09167,34
46.10000,34
46.10833,33
46.11667,33
46.12500,33
46.13333,33
46.14167,33
46.15000,33
46.15833,32
46.16667,32
46.17500,32
46.18333,32
46.19167,32
46.20000,32
46.20833,31
46.21667,31
46.22500,30
46.23333,30
46.24167,30
46.25000,30
46.25833,30
46.26667,30
46.27500,30
46.28333,30
46.29167,29
46.30000,29
46.30833,29
46.31667,29
46.32500,29
46.33333,28
46.34167,28
46.35000,28
46.35833,27
46.36667,27
46.37500,26
46.38333,26
46.39167,26
46.40000,26
46.40833,25
46.41667,25
46.42500,24
46.43333,24
46.44167,24
46.45000,24
46.45833,25
46.46667,25
46.47500,24
46.48333,24
46.49167,23
46.50000,23
46.50833,23
46.51667,22
46.52500,22
46.53333,22
46.54167,22
46.55000,21
46.55833,21
46.56667,21
46.57500,21
46.58333,21
46.59167,21
46.60000,21
46.60833,21
46.61667,21
46.62500,20
46.63333,20
46.64167,20
46.65000,19
46.65833,19
46.66667,19
46.67500,18
46.68333,18
46.69167,18
46.70000,18
46.70833,17
46.71667,17
46.72500,17
46.73333,17
46.74167,17
46.75000,17
46.75833,16
46.76667,17
46.77500,17
46.78333,17
46.79167,17
46.80000,17
46.80833,17
46.81667,16
46.82500,16
46.83333,16
46.84167,15
46.85000,15
46.85833,15
46.86667,14
46.87500,14
46.88333,14
46.89167,14
46.90000,14
46.90833,14
46.91667,13
46.92500,14
46.93333,14
46.94167,14
46.95000,14
46.95833,14
46.96667,13
46.97500,14
46.98333,14
46.99167,14
47.00000,14
47.00833,14
47.01667,13
47.02500,13
47.03333,13
47.04167,12
47.05000,12
47.05833,12
47.06667,12
47.07500,12
47.08333,12
47.09167,12
47.10000,13
47.10833,13
47.11667,13
47.12500,13
47.13333,14
47.14167,14
47.15000,14
47.15833,14
47.16667,14
47.17500,14
47.18333,14
47.19167,14
47.20000,14
47.20833,14
47.21667,15
47.22500,15
47.23333,15
47.24167,15
47.25000,15
47.25833,16
47.26667,16
47.27500,16
47.28333,16
47.29167,17
47.30000,17
47.30833,18
47.31667,18
47.32500,19
47.33333,19
47.34167,20
47.35000,20
47.35833,20
47.36667,20
47.37500,21
47.38333,21
47.39167,22
47.40000,22
47.40833,23
47.41667,23
47.42500,24
47.43333,25
47.44167,26
47.45000,27
47.45833,27
47.46667,28
47.47500,28
47.48333,28
47.49167,28
47.50000,29
47.50833,29
47.51667,30
47.52500,31
47.53333,31
47.54167,32
47.55000,33
47.55833,34
47.56667,35
47.57500,36
47.58333,37
47.59167,37
47.60000,38
47.60833,39
47.61667,39
47.62500,40
47.63333,41
47.64167,42
47.65000,43
47.65833,44
47.66667,44
47.67500,45
47.68333,46
47.69167,47
47.70000,48
47.70833,48
47.71667,49
47.72500,50
47.73333,51
47.74167,52
47.75000,53
47.75833,54
47.76667,55
47.77500,56
47.78333,56
47.79167,57
47.80000,59
47.80833,60
47.81667,61
47.82500,61
47.83333,61
47.84167,62
47.85000,63
47.85833,64
47.86667,65
47.87500,65
47.88333,66
47.89167,67
47.90000,68
47.90833,69
47.91667,69
47.92500,70
47.93333,71
47.94167,71
47.95000,72
47.95833,73
47.96667,73
47.97500,74
47.98333,74
47.99167,75
48.00000,76
48.00833,76
48.01667,77
48.02500,77
48.03333,78
48.04167,79
48.05000,80
48.05833,80
48.06667,81
48.07500,81
48.08333,82
48.09167,82
48.10000,83
48.10833,83
48.11667,84
48.12500,84
48.13333,84
48.14167,85
48.15000,85
48.15833,86
48.16667,86
48.17500,86
48.18333,86
48.19167,87
48.20000,87
48.20833,88
48.21667,88
48.22500,88
48.23333,89
48.24167,89
48.25000,90
48.25833,90
48.26667,90
48.27500,91
48.28333,91
48.29167,91
48.30000,92
48.30833,92
48.31667,92
48.32500,92
48.33333,93
48.34167,93
48.35000,93
48.35833,93
48.36667,94
48.37500,94
48.38333,94
48.39167,94
48.40000,95
48.40833,95
48.41667,95
48.42500,95
48.43333,95
48.44167,95
48.45000,95
48.45833,96
48.46667,96
48.47500,96
48.48333,96
48.49167,96
48.50000,96
48.50833,96
48.51667,96
48.52500,96
48.53333,96
48.54167,96
48.55000,96
48.55833,96
48.56667,96
48.57500,97
48.58333,97
48.59167,97
48.60000,97
48.60833,97
48.61667,97
48.62500,96
48.63333,96
48.64167,96
48.65000,96
48.65833,96
48.66667,96
48.67500,97
48.68333,97
48.69167,97
48.70000,97
48.70833,97
48.71667,97
48.72500,97
48.73333,97
48.74167,97
48.75000,97
48.75833,98
48.76667,98
48.77500,98
48.78333,98
48.79167,98
48.80000,98
48.80833,98
48.81667,98
48.82500,98
48.83333,99
48.84167,99
48.85000,99
48.85833,99
48.86667,99
48.87500,99
48.88333,99
48.89167,99
48.90000,99
48.90833,99
48.91667,99
48.92500,99
48.93333,99
48.94167,99
48.95000,99
48.95833,99
48.96667,99
48.97500,99
48.98333,100
48.99167,100
49.00000,100
49.00833,99
49.01667,99
49.02500,99
49.03333,99
49.04167,98
49.05000,99
49.05833,99
49.06667,99
49.07500,99
49.08333,99
49.09167,99
49.10000,99
49.10833,99
49.11667,99
49.12500,99
49.13333,99
49.14167,99
49.15000,99
49.15833,100
49.16667,100
49.17500,100
49.18333,100
49.19167,100
49.20000,100
49.20833,100
49.21667,100
49.22500,100
49.23333,100
49.24167,100
49.25000,99
49.25833,99
49.26667,99
49.27500,99
49.28333,99
49.29167,99
49.30000,99
49.30833,99
49.31667,99
49.32500,99
49.33333,99
49.34167,99
49.35000,99
49.35833,99
49.36667,98
49.37500,98
49.38333,98
49.39167,98
49.40000,99
49.40833,99
49.41667,99
49.42500,99
49.43333,99
49.44167,98
49.45000,98
49.45833,98
49.46667,98
49.47500,98
49.48333,98
49.49167,98
49.50000,98
49.50833,97
49.51667,97
49.52500,97
49.53333,96
49.54167,96
49.55000,95
49.55833,95
49.56667,95
49.57500,94
49.58333,94
49.59167,93
49.60000,93
49.60833,93
49.61667,93
49.62500,92
49.63333,92
49.64167,92
49.65000,91
49.65833,91
49.66667,91
49.67500,90
49.68333,90
49.69167,90
49.70000,90
49.70833,89
49.71667,89
49.72500,89
49.73333,88
49.74167,88
49.75000,88
49.75833,88
49.76667,88
49.77500,88
49.78333,87
49.79167,86
49.80000,86
49.80833,86
49.81667,85
49.82500,85
49.83333,84
49.84167,84
49.85000,83
49.85833,83
49.86667,82
49.87500,81
49.88333,81
49.89167,81
49.90000,80
49.90833,80
49.91667,79
49.92500,78
49.93333,77
49.94167,77
49.95000,76
49.95833,75
49.96667,75
49.97500,74
49.98333,73
49.99167,73
50.00000,72

