[Header]
Application Name,LabSolutions
Version,5.97 SP1
Data File Name,C:\Users\cremerlab\Desktop\Richa\Sep_2nd_2022_scfa_rt50min_final\Sep 2nd yield expt_922022_001_002.lcd
Output Date,9/2/2022
Output Time,6:46:59 PM

[File Information]
Type,Data File
Generated,9/2/2022 5:56:38 PM
Generated by,System Administrator
Modified,9/2/2022 6:46:59 PM
Modified by,System Administrator

[Sample Information]
Operator Name,System Administrator
Acquired,9/2/2022 5:56:57 PM
Sample Type,0:Unknown
Level,0
Sample Name,090222_B.fragilis_1
Sample ID,001
ISTD Amount1,1
ISTD Amount2,1
ISTD Amount3,1
ISTD Amount4,1
ISTD Amount5,1
ISTD Amount6,1
ISTD Amount7,1
ISTD Amount8,1
ISTD Amount9,1
ISTD Amount10,1
ISTD Amount11,1
ISTD Amount12,1
ISTD Amount13,1
ISTD Amount14,1
ISTD Amount15,1
ISTD Amount16,1
ISTD Amount17,1
ISTD Amount18,1
ISTD Amount19,1
ISTD Amount20,1
ISTD Amount21,1
ISTD Amount22,1
ISTD Amount23,1
ISTD Amount24,1
ISTD Amount25,1
ISTD Amount26,1
ISTD Amount27,1
ISTD Amount28,1
ISTD Amount29,1
ISTD Amount30,1
ISTD Amount31,1
ISTD Amount32,1
Sample Amount,1
Dilution Factor,1
Vial#,1
Injection Volume,20

[Original Files]
Data File,C:\Users\cremerlab\Desktop\Richa\Sep_2nd_2022_scfa_rt50min_final\Sep 2nd yield expt_922022_001_002.lcd
Method File,C:\Users\cremerlab\Desktop\Richa\acetate_excretion.lcm
Batch File,C:\Users\cremerlab\Desktop\Richa\Sep_2nd_2022_scfa_rt50min_final\Sep 2nd yield expt.lcb
Report Format File,c:\LabSolutions\System\DEFAULT.lsr

[File Description]


[Configuration]
Instrument Name,HPLC-PC-Instrument1
Instrument #,1
Line #,1
# of Detectors,2
Detector ID,Detector A,Detector B
Detector Name,Detector A,Detector B
# of Channels,1,1

[Peak Table(Detector A)]
# of Peaks,0

[Peak Table(Detector B)]
# of Peaks,10
Peak#,R.Time,I.Time,F.Time,Area,Height,A/H,Conc.,Mark,ID#,Name,k',Plate #,Plate Ht.,Tailing,Resolution,Sep.Factor,Area Ratio,Height Ratio,Conc. %,Norm Conc.
1,11.019,10.167,12.683,2327295,116920,19.905,0.000,   ,,,0.000,7584,19.777,0.977,0.000,0.000,0,0,0.000,0.000
2,14.331,12.683,15.183,3639915,77098,47.211,0.000, V ,,,0.301,2465,60.863,0.660,3.989,0.000,0,0,0.000,0.000
3,15.760,15.183,22.625,1647198,52553,31.344,0.000,SV ,,,0.430,6845,21.915,1.147,1.491,1.431,0,0,0.000,0.000
4,17.870,17.417,18.400,7706,262,29.393,0.000,T  ,,,0.622,8000,18.750,1.060,2.704,1.445,0,0,0.000,0.000
5,19.125,18.433,19.742,14075,321,43.829,0.000,T  ,,,0.736,3821,39.257,0.000,1.232,1.183,0,0,0.000,0.000
6,20.304,19.742,20.850,24491,643,38.114,0.000,TV ,,,0.843,6341,23.657,0.000,1.044,1.145,0,0,0.000,0.000
7,21.767,20.850,22.583,43365,743,58.365,0.000,TV ,,,0.975,2979,50.355,0.000,1.119,1.158,0,0,0.000,0.000
8,25.089,24.317,26.450,141214,3425,41.224,0.000,   ,,,1.277,9059,16.558,1.174,2.507,1.309,0,0,0.000,0.000
9,29.247,28.392,30.625,146917,2909,50.506,0.000,   ,,,1.654,8472,17.705,1.290,3.577,1.296,0,0,0.000,0.000
10,32.535,31.717,34.233,32477,449,72.332,0.000,   ,,,1.953,2411,62.209,1.481,1.677,1.180,0,0,0.000,0.000

[LC Chromatogram(Detector B-Ch1)]
Interval(msec),500
# of Points,6001
Start Time(min),0.000
End Time(min),50.000
Intensity Units,mV
Intensity Multiplier,0.001
R.Time (min),Intensity
0.00000,-9
0.00833,-9
0.01667,-0
0.02500,-0
0.03333,-1
0.04167,-1
0.05000,-1
0.05833,-2
0.06667,-2
0.07500,-3
0.08333,-3
0.09167,-3
0.10000,-4
0.10833,-4
0.11667,-4
0.12500,-5
0.13333,-5
0.14167,-6
0.15000,-6
0.15833,-7
0.16667,-7
0.17500,-7
0.18333,-7
0.19167,-7
0.20000,-8
0.20833,-8
0.21667,-8
0.22500,-9
0.23333,-9
0.24167,-9
0.25000,-10
0.25833,-10
0.26667,-10
0.27500,-10
0.28333,-10
0.29167,-11
0.30000,-11
0.30833,-11
0.31667,-11
0.32500,-11
0.33333,-11
0.34167,-12
0.35000,-12
0.35833,-13
0.36667,-13
0.37500,-13
0.38333,-14
0.39167,-14
0.40000,-14
0.40833,-14
0.41667,-14
0.42500,-15
0.43333,-15
0.44167,-15
0.45000,-15
0.45833,-15
0.46667,-15
0.47500,-15
0.48333,-15
0.49167,-15
0.50000,-15
0.50833,-15
0.51667,-15
0.52500,-15
0.53333,-16
0.54167,-16
0.55000,-17
0.55833,-17
0.56667,-17
0.57500,-17
0.58333,-16
0.59167,-16
0.60000,-16
0.60833,-16
0.61667,-16
0.62500,-16
0.63333,-16
0.64167,-17
0.65000,-17
0.65833,-17
0.66667,-17
0.67500,-17
0.68333,-17
0.69167,-17
0.70000,-18
0.70833,-18
0.71667,-19
0.72500,-19
0.73333,-19
0.74167,-20
0.75000,-19
0.75833,-19
0.76667,-19
0.77500,-19
0.78333,-19
0.79167,-19
0.80000,-19
0.80833,-19
0.81667,-19
0.82500,-19
0.83333,-19
0.84167,-20
0.85000,-20
0.85833,-20
0.86667,-20
0.87500,-20
0.88333,-20
0.89167,-21
0.90000,-21
0.90833,-21
0.91667,-21
0.92500,-21
0.93333,-21
0.94167,-21
0.95000,-21
0.95833,-21
0.96667,-21
0.97500,-21
0.98333,-21
0.99167,-20
1.00000,-20
1.00833,-20
1.01667,-20
1.02500,-20
1.03333,-20
1.04167,-20
1.05000,-19
1.05833,-19
1.06667,-19
1.07500,-19
1.08333,-19
1.09167,-19
1.10000,-19
1.10833,-19
1.11667,-19
1.12500,-19
1.13333,-19
1.14167,-19
1.15000,-19
1.15833,-19
1.16667,-19
1.17500,-19
1.18333,-19
1.19167,-19
1.20000,-19
1.20833,-19
1.21667,-19
1.22500,-19
1.23333,-19
1.24167,-20
1.25000,-19
1.25833,-19
1.26667,-19
1.27500,-19
1.28333,-19
1.29167,-19
1.30000,-19
1.30833,-20
1.31667,-20
1.32500,-20
1.33333,-20
1.34167,-20
1.35000,-20
1.35833,-20
1.36667,-20
1.37500,-20
1.38333,-20
1.39167,-19
1.40000,-19
1.40833,-19
1.41667,-19
1.42500,-19
1.43333,-19
1.44167,-19
1.45000,-19
1.45833,-19
1.46667,-18
1.47500,-18
1.48333,-17
1.49167,-18
1.50000,-18
1.50833,-18
1.51667,-18
1.52500,-18
1.53333,-18
1.54167,-18
1.55000,-18
1.55833,-18
1.56667,-18
1.57500,-18
1.58333,-18
1.59167,-17
1.60000,-17
1.60833,-18
1.61667,-18
1.62500,-18
1.63333,-18
1.64167,-18
1.65000,-18
1.65833,-18
1.66667,-18
1.67500,-18
1.68333,-18
1.69167,-18
1.70000,-18
1.70833,-17
1.71667,-17
1.72500,-17
1.73333,-17
1.74167,-17
1.75000,-17
1.75833,-18
1.76667,-18
1.77500,-18
1.78333,-18
1.79167,-18
1.80000,-18
1.80833,-18
1.81667,-18
1.82500,-18
1.83333,-17
1.84167,-17
1.85000,-17
1.85833,-16
1.86667,-17
1.87500,-17
1.88333,-17
1.89167,-17
1.90000,-17
1.90833,-17
1.91667,-17
1.92500,-17
1.93333,-17
1.94167,-17
1.95000,-18
1.95833,-18
1.96667,-18
1.97500,-18
1.98333,-17
1.99167,-17
2.00000,-17
2.00833,-17
2.01667,-17
2.02500,-17
2.03333,-17
2.04167,-17
2.05000,-17
2.05833,-17
2.06667,-17
2.07500,-17
2.08333,-17
2.09167,-16
2.10000,-16
2.10833,-16
2.11667,-16
2.12500,-16
2.13333,-16
2.14167,-16
2.15000,-16
2.15833,-17
2.16667,-17
2.17500,-16
2.18333,-16
2.19167,-17
2.20000,-17
2.20833,-17
2.21667,-17
2.22500,-17
2.23333,-17
2.24167,-17
2.25000,-17
2.25833,-17
2.26667,-17
2.27500,-17
2.28333,-17
2.29167,-17
2.30000,-18
2.30833,-18
2.31667,-18
2.32500,-18
2.33333,-18
2.34167,-18
2.35000,-18
2.35833,-18
2.36667,-18
2.37500,-18
2.38333,-18
2.39167,-18
2.40000,-18
2.40833,-18
2.41667,-18
2.42500,-18
2.43333,-18
2.44167,-18
2.45000,-18
2.45833,-18
2.46667,-18
2.47500,-18
2.48333,-19
2.49167,-19
2.50000,-19
2.50833,-19
2.51667,-19
2.52500,-19
2.53333,-19
2.54167,-19
2.55000,-19
2.55833,-19
2.56667,-20
2.57500,-20
2.58333,-20
2.59167,-20
2.60000,-20
2.60833,-20
2.61667,-20
2.62500,-20
2.63333,-20
2.64167,-20
2.65000,-20
2.65833,-20
2.66667,-20
2.67500,-20
2.68333,-21
2.69167,-21
2.70000,-21
2.70833,-21
2.71667,-21
2.72500,-21
2.73333,-21
2.74167,-21
2.75000,-21
2.75833,-20
2.76667,-20
2.77500,-21
2.78333,-21
2.79167,-21
2.80000,-22
2.80833,-22
2.81667,-22
2.82500,-22
2.83333,-22
2.84167,-22
2.85000,-22
2.85833,-23
2.86667,-23
2.87500,-22
2.88333,-22
2.89167,-22
2.90000,-21
2.90833,-22
2.91667,-22
2.92500,-22
2.93333,-22
2.94167,-22
2.95000,-22
2.95833,-22
2.96667,-22
2.97500,-22
2.98333,-22
2.99167,-23
3.00000,-23
3.00833,-22
3.01667,-22
3.02500,-23
3.03333,-23
3.04167,-23
3.05000,-23
3.05833,-23
3.06667,-23
3.07500,-23
3.08333,-23
3.09167,-23
3.10000,-24
3.10833,-24
3.11667,-24
3.12500,-24
3.13333,-24
3.14167,-24
3.15000,-24
3.15833,-24
3.16667,-24
3.17500,-24
3.18333,-24
3.19167,-24
3.20000,-24
3.20833,-24
3.21667,-24
3.22500,-24
3.23333,-24
3.24167,-24
3.25000,-23
3.25833,-23
3.26667,-23
3.27500,-23
3.28333,-23
3.29167,-23
3.30000,-23
3.30833,-24
3.31667,-24
3.32500,-24
3.33333,-24
3.34167,-24
3.35000,-24
3.35833,-24
3.36667,-24
3.37500,-24
3.38333,-24
3.39167,-25
3.40000,-25
3.40833,-25
3.41667,-25
3.42500,-25
3.43333,-25
3.44167,-25
3.45000,-25
3.45833,-24
3.46667,-24
3.47500,-24
3.48333,-25
3.49167,-25
3.50000,-24
3.50833,-24
3.51667,-24
3.52500,-24
3.53333,-24
3.54167,-24
3.55000,-24
3.55833,-24
3.56667,-24
3.57500,-24
3.58333,-23
3.59167,-23
3.60000,-23
3.60833,-23
3.61667,-23
3.62500,-23
3.63333,-23
3.64167,-23
3.65000,-23
3.65833,-23
3.66667,-23
3.67500,-23
3.68333,-23
3.69167,-22
3.70000,-22
3.70833,-22
3.71667,-23
3.72500,-23
3.73333,-23
3.74167,-23
3.75000,-23
3.75833,-22
3.76667,-22
3.77500,-22
3.78333,-22
3.79167,-21
3.80000,-21
3.80833,-22
3.81667,-21
3.82500,-21
3.83333,-21
3.84167,-21
3.85000,-21
3.85833,-20
3.86667,-19
3.87500,-19
3.88333,-19
3.89167,-19
3.90000,-19
3.90833,-19
3.91667,-19
3.92500,-19
3.93333,-18
3.94167,-18
3.95000,-18
3.95833,-17
3.96667,-17
3.97500,-17
3.98333,-17
3.99167,-17
4.00000,-17
4.00833,-17
4.01667,-16
4.02500,-16
4.03333,-16
4.04167,-16
4.05000,-16
4.05833,-16
4.06667,-16
4.07500,-16
4.08333,-16
4.09167,-16
4.10000,-16
4.10833,-15
4.11667,-15
4.12500,-15
4.13333,-14
4.14167,-14
4.15000,-14
4.15833,-13
4.16667,-13
4.17500,-12
4.18333,-12
4.19167,-12
4.20000,-12
4.20833,-12
4.21667,-12
4.22500,-12
4.23333,-11
4.24167,-11
4.25000,-11
4.25833,-11
4.26667,-10
4.27500,-10
4.28333,-9
4.29167,-9
4.30000,-8
4.30833,-8
4.31667,-8
4.32500,-8
4.33333,-8
4.34167,-8
4.35000,-7
4.35833,-7
4.36667,-7
4.37500,-6
4.38333,-6
4.39167,-5
4.40000,-5
4.40833,-5
4.41667,-4
4.42500,-4
4.43333,-4
4.44167,-3
4.45000,-3
4.45833,-2
4.46667,-1
4.47500,-1
4.48333,-1
4.49167,-1
4.50000,-0
4.50833,0
4.51667,0
4.52500,0
4.53333,0
4.54167,0
4.55000,0
4.55833,0
4.56667,0
4.57500,1
4.58333,1
4.59167,2
4.60000,3
4.60833,3
4.61667,3
4.62500,4
4.63333,4
4.64167,4
4.65000,5
4.65833,5
4.66667,5
4.67500,6
4.68333,6
4.69167,7
4.70000,7
4.70833,7
4.71667,8
4.72500,8
4.73333,8
4.74167,8
4.75000,8
4.75833,8
4.76667,9
4.77500,9
4.78333,9
4.79167,9
4.80000,10
4.80833,10
4.81667,10
4.82500,10
4.83333,10
4.84167,10
4.85000,11
4.85833,11
4.86667,11
4.87500,12
4.88333,12
4.89167,13
4.90000,13
4.90833,13
4.91667,13
4.92500,13
4.93333,13
4.94167,13
4.95000,13
4.95833,13
4.96667,13
4.97500,13
4.98333,13
4.99167,14
5.00000,14
5.00833,14
5.01667,14
5.02500,14
5.03333,14
5.04167,14
5.05000,14
5.05833,14
5.06667,15
5.07500,15
5.08333,15
5.09167,15
5.10000,15
5.10833,15
5.11667,15
5.12500,15
5.13333,14
5.14167,14
5.15000,14
5.15833,14
5.16667,14
5.17500,14
5.18333,14
5.19167,14
5.20000,14
5.20833,14
5.21667,14
5.22500,14
5.23333,13
5.24167,13
5.25000,13
5.25833,14
5.26667,14
5.27500,14
5.28333,14
5.29167,14
5.30000,13
5.30833,13
5.31667,13
5.32500,13
5.33333,13
5.34167,13
5.35000,12
5.35833,12
5.36667,12
5.37500,12
5.38333,13
5.39167,12
5.40000,12
5.40833,12
5.41667,12
5.42500,11
5.43333,11
5.44167,11
5.45000,11
5.45833,11
5.46667,10
5.47500,10
5.48333,10
5.49167,9
5.50000,9
5.50833,9
5.51667,9
5.52500,9
5.53333,9
5.54167,8
5.55000,8
5.55833,8
5.56667,7
5.57500,6
5.58333,6
5.59167,5
5.60000,5
5.60833,5
5.61667,5
5.62500,5
5.63333,5
5.64167,4
5.65000,4
5.65833,4
5.66667,3
5.67500,3
5.68333,3
5.69167,3
5.70000,3
5.70833,2
5.71667,1
5.72500,1
5.73333,1
5.74167,1
5.75000,1
5.75833,0
5.76667,-0
5.77500,-0
5.78333,-1
5.79167,-1
5.80000,-2
5.80833,-2
5.81667,-3
5.82500,-4
5.83333,-4
5.84167,-4
5.85000,-5
5.85833,-5
5.86667,-5
5.87500,-5
5.88333,-6
5.89167,-6
5.90000,-6
5.90833,-6
5.91667,-7
5.92500,-8
5.93333,-8
5.94167,-9
5.95000,-9
5.95833,-9
5.96667,-9
5.97500,-9
5.98333,-10
5.99167,-10
6.00000,-10
6.00833,-11
6.01667,-11
6.02500,-12
6.03333,-12
6.04167,-13
6.05000,-14
6.05833,-14
6.06667,-14
6.07500,-15
6.08333,-16
6.09167,-16
6.10000,-16
6.10833,-17
6.11667,-17
6.12500,-17
6.13333,-17
6.14167,-17
6.15000,-17
6.15833,-18
6.16667,-18
6.17500,-19
6.18333,-19
6.19167,-20
6.20000,-20
6.20833,-20
6.21667,-20
6.22500,-20
6.23333,-20
6.24167,-20
6.25000,-20
6.25833,-21
6.26667,-21
6.27500,-22
6.28333,-22
6.29167,-23
6.30000,-23
6.30833,-23
6.31667,-24
6.32500,-24
6.33333,-25
6.34167,-26
6.35000,-26
6.35833,-27
6.36667,-26
6.37500,-26
6.38333,-27
6.39167,-27
6.40000,-27
6.40833,-27
6.41667,-27
6.42500,-27
6.43333,-28
6.44167,-28
6.45000,-28
6.45833,-28
6.46667,-28
6.47500,-28
6.48333,-28
6.49167,-28
6.50000,-28
6.50833,-28
6.51667,-29
6.52500,-29
6.53333,-29
6.54167,-29
6.55000,-30
6.55833,-31
6.56667,-31
6.57500,-31
6.58333,-32
6.59167,-32
6.60000,-32
6.60833,-32
6.61667,-32
6.62500,-32
6.63333,-32
6.64167,-32
6.65000,-32
6.65833,-31
6.66667,-32
6.67500,-32
6.68333,-32
6.69167,-32
6.70000,-33
6.70833,-33
6.71667,-33
6.72500,-33
6.73333,-33
6.74167,-33
6.75000,-33
6.75833,-33
6.76667,-33
6.77500,-34
6.78333,-34
6.79167,-33
6.80000,-33
6.80833,-33
6.81667,-33
6.82500,-33
6.83333,-33
6.84167,-33
6.85000,-34
6.85833,-34
6.86667,-34
6.87500,-34
6.88333,-34
6.89167,-34
6.90000,-34
6.90833,-34
6.91667,-34
6.92500,-34
6.93333,-34
6.94167,-34
6.95000,-34
6.95833,-35
6.96667,-34
6.97500,-34
6.98333,-34
6.99167,-35
7.00000,-35
7.00833,-35
7.01667,-35
7.02500,-35
7.03333,-35
7.04167,-35
7.05000,-35
7.05833,-35
7.06667,-35
7.07500,-35
7.08333,-35
7.09167,-35
7.10000,-35
7.10833,-36
7.11667,-36
7.12500,-35
7.13333,-35
7.14167,-35
7.15000,-35
7.15833,-34
7.16667,-34
7.17500,-34
7.18333,-34
7.19167,-34
7.20000,-35
7.20833,-35
7.21667,-36
7.22500,-36
7.23333,-36
7.24167,-36
7.25000,-35
7.25833,-35
7.26667,-35
7.27500,-35
7.28333,-36
7.29167,-36
7.30000,-36
7.30833,-36
7.31667,-36
7.32500,-36
7.33333,-36
7.34167,-36
7.35000,-36
7.35833,-36
7.36667,-36
7.37500,-37
7.38333,-37
7.39167,-37
7.40000,-37
7.40833,-36
7.41667,-36
7.42500,-36
7.43333,-36
7.44167,-36
7.45000,-36
7.45833,-36
7.46667,-36
7.47500,-36
7.48333,-36
7.49167,-36
7.50000,-35
7.50833,-35
7.51667,-35
7.52500,-35
7.53333,-35
7.54167,-35
7.55000,-35
7.55833,-36
7.56667,-36
7.57500,-36
7.58333,-36
7.59167,-36
7.60000,-36
7.60833,-36
7.61667,-36
7.62500,-36
7.63333,-36
7.64167,-36
7.65000,-36
7.65833,-36
7.66667,-36
7.67500,-36
7.68333,-36
7.69167,-35
7.70000,-35
7.70833,-35
7.71667,-35
7.72500,-35
7.73333,-35
7.74167,-35
7.75000,-35
7.75833,-35
7.76667,-35
7.77500,-35
7.78333,-35
7.79167,-35
7.80000,-35
7.80833,-36
7.81667,-35
7.82500,-35
7.83333,-35
7.84167,-35
7.85000,-35
7.85833,-36
7.86667,-35
7.87500,-35
7.88333,-35
7.89167,-35
7.90000,-35
7.90833,-35
7.91667,-35
7.92500,-35
7.93333,-35
7.94167,-36
7.95000,-36
7.95833,-36
7.96667,-36
7.97500,-36
7.98333,-36
7.99167,-35
8.00000,-35
8.00833,-35
8.01667,-35
8.02500,-35
8.03333,-36
8.04167,-35
8.05000,-35
8.05833,-35
8.06667,-35
8.07500,-35
8.08333,-35
8.09167,-36
8.10000,-36
8.10833,-36
8.11667,-36
8.12500,-36
8.13333,-36
8.14167,-36
8.15000,-36
8.15833,-36
8.16667,-36
8.17500,-35
8.18333,-35
8.19167,-35
8.20000,-36
8.20833,-36
8.21667,-36
8.22500,-37
8.23333,-37
8.24167,-37
8.25000,-37
8.25833,-37
8.26667,-37
8.27500,-37
8.28333,-37
8.29167,-37
8.30000,-37
8.30833,-37
8.31667,-37
8.32500,-37
8.33333,-37
8.34167,-38
8.35000,-38
8.35833,-38
8.36667,-38
8.37500,-37
8.38333,-37
8.39167,-37
8.40000,-37
8.40833,-37
8.41667,-37
8.42500,-37
8.43333,-37
8.44167,-36
8.45000,-36
8.45833,-36
8.46667,-37
8.47500,-37
8.48333,-37
8.49167,-37
8.50000,-37
8.50833,-37
8.51667,-37
8.52500,-37
8.53333,-37
8.54167,-37
8.55000,-38
8.55833,-38
8.56667,-38
8.57500,-37
8.58333,-37
8.59167,-37
8.60000,-37
8.60833,-37
8.61667,-37
8.62500,-37
8.63333,-37
8.64167,-37
8.65000,-37
8.65833,-37
8.66667,-37
8.67500,-37
8.68333,-37
8.69167,-37
8.70000,-37
8.70833,-37
8.71667,-38
8.72500,-38
8.73333,-38
8.74167,-38
8.75000,-38
8.75833,-38
8.76667,-38
8.77500,-38
8.78333,-37
8.79167,-37
8.80000,-37
8.80833,-37
8.81667,-37
8.82500,-37
8.83333,-37
8.84167,-37
8.85000,-37
8.85833,-37
8.86667,-37
8.87500,-36
8.88333,-36
8.89167,-36
8.90000,-36
8.90833,-36
8.91667,-36
8.92500,-37
8.93333,-37
8.94167,-37
8.95000,-37
8.95833,-37
8.96667,-38
8.97500,-38
8.98333,-38
8.99167,-38
9.00000,-38
9.00833,-38
9.01667,-37
9.02500,-37
9.03333,-37
9.04167,-37
9.05000,-37
9.05833,-37
9.06667,-38
9.07500,-38
9.08333,-38
9.09167,-38
9.10000,-39
9.10833,-39
9.11667,-38
9.12500,-38
9.13333,-38
9.14167,-38
9.15000,-38
9.15833,-38
9.16667,-37
9.17500,-38
9.18333,-37
9.19167,-37
9.20000,-37
9.20833,-37
9.21667,-37
9.22500,-37
9.23333,-37
9.24167,-37
9.25000,-37
9.25833,-37
9.26667,-37
9.27500,-37
9.28333,-37
9.29167,-37
9.30000,-37
9.30833,-38
9.31667,-38
9.32500,-38
9.33333,-38
9.34167,-38
9.35000,-38
9.35833,-38
9.36667,-38
9.37500,-38
9.38333,-38
9.39167,-38
9.40000,-38
9.40833,-38
9.41667,-38
9.42500,-38
9.43333,-38
9.44167,-38
9.45000,-38
9.45833,-38
9.46667,-38
9.47500,-38
9.48333,-39
9.49167,-39
9.50000,-39
9.50833,-39
9.51667,-38
9.52500,-38
9.53333,-38
9.54167,-38
9.55000,-38
9.55833,-38
9.56667,-38
9.57500,-38
9.58333,-38
9.59167,-38
9.60000,-38
9.60833,-38
9.61667,-38
9.62500,-38
9.63333,-38
9.64167,-38
9.65000,-38
9.65833,-38
9.66667,-38
9.67500,-38
9.68333,-38
9.69167,-38
9.70000,-39
9.70833,-39
9.71667,-38
9.72500,-38
9.73333,-38
9.74167,-37
9.75000,-37
9.75833,-37
9.76667,-37
9.77500,-38
9.78333,-38
9.79167,-38
9.80000,-39
9.80833,-39
9.81667,-39
9.82500,-39
9.83333,-38
9.84167,-38
9.85000,-38
9.85833,-37
9.86667,-37
9.87500,-37
9.88333,-37
9.89167,-37
9.90000,-37
9.90833,-37
9.91667,-36
9.92500,-36
9.93333,-36
9.94167,-36
9.95000,-36
9.95833,-36
9.96667,-36
9.97500,-36
9.98333,-36
9.99167,-36
10.00000,-36
10.00833,-36
10.01667,-37
10.02500,-36
10.03333,-36
10.04167,-36
10.05000,-35
10.05833,-35
10.06667,-35
10.07500,-34
10.08333,-34
10.09167,-33
10.10000,-32
10.10833,-32
10.11667,-31
10.12500,-31
10.13333,-30
10.14167,-29
10.15000,-28
10.15833,-27
10.16667,-26
10.17500,-25
10.18333,-23
10.19167,-22
10.20000,-20
10.20833,-18
10.21667,-17
10.22500,-15
10.23333,-14
10.24167,-12
10.25000,-9
10.25833,-7
10.26667,-4
10.27500,0
10.28333,4
10.29167,8
10.30000,14
10.30833,20
10.31667,28
10.32500,37
10.33333,48
10.34167,60
10.35000,73
10.35833,89
10.36667,107
10.37500,127
10.38333,148
10.39167,171
10.40000,194
10.40833,219
10.41667,243
10.42500,267
10.43333,290
10.44167,311
10.45000,329
10.45833,344
10.46667,355
10.47500,362
10.48333,367
10.49167,369
10.50000,370
10.50833,372
10.51667,378
10.52500,389
10.53333,411
10.54167,446
10.55000,499
10.55833,576
10.56667,681
10.57500,820
10.58333,1000
10.59167,1227
10.60000,1506
10.60833,1844
10.61667,2247
10.62500,2720
10.63333,3271
10.64167,3904
10.65000,4626
10.65833,5441
10.66667,6354
10.67500,7369
10.68333,8490
10.69167,9722
10.70000,11067
10.70833,12528
10.71667,14108
10.72500,15809
10.73333,17633
10.74167,19579
10.75000,21651
10.75833,23847
10.76667,26168
10.77500,28613
10.78333,31181
10.79167,33872
10.80000,36683
10.80833,39611
10.81667,42654
10.82500,45809
10.83333,49070
10.84167,52433
10.85000,55891
10.85833,59439
10.86667,63067
10.87500,66766
10.88333,70524
10.89167,74327
10.90000,78159
10.90833,82002
10.91667,85832
10.92500,89623
10.93333,93345
10.94167,96963
10.95000,100436
10.95833,103719
10.96667,106765
10.97500,109518
10.98333,111922
10.99167,113921
11.00000,115455
11.00833,116469
11.01667,116913
11.02500,116744
11.03333,115929
11.04167,114452
11.05000,112310
11.05833,109519
11.06667,106114
11.07500,102148
11.08333,97687
11.09167,92815
11.10000,87622
11.10833,82204
11.11667,76661
11.12500,71085
11.13333,65563
11.14167,60173
11.15000,54979
11.15833,50034
11.16667,45377
11.17500,41036
11.18333,37024
11.19167,33347
11.20000,30002
11.20833,26979
11.21667,24262
11.22500,21833
11.23333,19670
11.24167,17751
11.25000,16054
11.25833,14556
11.26667,13236
11.27500,12075
11.28333,11053
11.29167,10153
11.30000,9361
11.30833,8663
11.31667,8047
11.32500,7501
11.33333,7017
11.34167,6585
11.35000,6200
11.35833,5855
11.36667,5545
11.37500,5264
11.38333,5009
11.39167,4776
11.40000,4563
11.40833,4367
11.41667,4186
11.42500,4018
11.43333,3863
11.44167,3717
11.45000,3580
11.45833,3452
11.46667,3331
11.47500,3217
11.48333,3109
11.49167,3006
11.50000,2908
11.50833,2815
11.51667,2726
11.52500,2641
11.53333,2560
11.54167,2483
11.55000,2409
11.55833,2337
11.56667,2269
11.57500,2204
11.58333,2141
11.59167,2081
11.60000,2022
11.60833,1966
11.61667,1912
11.62500,1860
11.63333,1810
11.64167,1762
11.65000,1716
11.65833,1671
11.66667,1629
11.67500,1587
11.68333,1548
11.69167,1509
11.70000,1472
11.70833,1436
11.71667,1401
11.72500,1368
11.73333,1336
11.74167,1305
11.75000,1275
11.75833,1246
11.76667,1218
11.77500,1192
11.78333,1166
11.79167,1142
11.80000,1119
11.80833,1097
11.81667,1075
11.82500,1054
11.83333,1034
11.84167,1015
11.85000,996
11.85833,978
11.86667,961
11.87500,945
11.88333,930
11.89167,915
11.90000,900
11.90833,886
11.91667,872
11.92500,859
11.93333,846
11.94167,834
11.95000,822
11.95833,811
11.96667,800
11.97500,790
11.98333,780
11.99167,771
12.00000,761
12.00833,752
12.01667,744
12.02500,736
12.03333,727
12.04167,719
12.05000,712
12.05833,705
12.06667,698
12.07500,691
12.08333,684
12.09167,678
12.10000,673
12.10833,667
12.11667,662
12.12500,657
12.13333,652
12.14167,647
12.15000,643
12.15833,639
12.16667,635
12.17500,631
12.18333,628
12.19167,624
12.20000,621
12.20833,618
12.21667,615
12.22500,613
12.23333,610
12.24167,608
12.25000,606
12.25833,604
12.26667,602
12.27500,600
12.28333,599
12.29167,598
12.30000,597
12.30833,596
12.31667,595
12.32500,594
12.33333,593
12.34167,592
12.35000,591
12.35833,590
12.36667,589
12.37500,588
12.38333,587
12.39167,586
12.40000,585
12.40833,584
12.41667,582
12.42500,581
12.43333,579
12.44167,578
12.45000,576
12.45833,575
12.46667,573
12.47500,571
12.48333,570
12.49167,568
12.50000,566
12.50833,564
12.51667,562
12.52500,559
12.53333,557
12.54167,555
12.55000,552
12.55833,550
12.56667,547
12.57500,544
12.58333,541
12.59167,538
12.60000,535
12.60833,533
12.61667,530
12.62500,528
12.63333,526
12.64167,524
12.65000,522
12.65833,521
12.66667,520
12.67500,519
12.68333,518
12.69167,519
12.70000,521
12.70833,523
12.71667,527
12.72500,533
12.73333,540
12.74167,548
12.75000,559
12.75833,571
12.76667,587
12.77500,605
12.78333,627
12.79167,651
12.80000,680
12.80833,712
12.81667,748
12.82500,788
12.83333,832
12.84167,882
12.85000,936
12.85833,995
12.86667,1060
12.87500,1129
12.88333,1204
12.89167,1285
12.90000,1371
12.90833,1464
12.91667,1562
12.92500,1666
12.93333,1776
12.94167,1892
12.95000,2014
12.95833,2141
12.96667,2275
12.97500,2415
12.98333,2561
12.99167,2713
13.00000,2870
13.00833,3034
13.01667,3203
13.02500,3378
13.03333,3559
13.04167,3746
13.05000,3939
13.05833,4137
13.06667,4340
13.07500,4549
13.08333,4764
13.09167,4983
13.10000,5208
13.10833,5438
13.11667,5672
13.12500,5912
13.13333,6156
13.14167,6405
13.15000,6658
13.15833,6916
13.16667,7178
13.17500,7444
13.18333,7714
13.19167,7988
13.20000,8266
13.20833,8548
13.21667,8833
13.22500,9122
13.23333,9415
13.24167,9711
13.25000,10012
13.25833,10315
13.26667,10621
13.27500,10931
13.28333,11244
13.29167,11560
13.30000,11879
13.30833,12202
13.31667,12527
13.32500,12855
13.33333,13186
13.34167,13520
13.35000,13857
13.35833,14197
13.36667,14540
13.37500,14885
13.38333,15234
13.39167,15585
13.40000,15939
13.40833,16296
13.41667,16656
13.42500,17019
13.43333,17386
13.44167,17755
13.45000,18126
13.45833,18501
13.46667,18879
13.47500,19260
13.48333,19643
13.49167,20030
13.50000,20419
13.50833,20812
13.51667,21209
13.52500,21608
13.53333,22011
13.54167,22416
13.55000,22825
13.55833,23237
13.56667,23652
13.57500,24070
13.58333,24492
13.59167,24917
13.60000,25346
13.60833,25778
13.61667,26214
13.62500,26653
13.63333,27096
13.64167,27541
13.65000,27991
13.65833,28444
13.66667,28902
13.67500,29362
13.68333,29827
13.69167,30296
13.70000,30768
13.70833,31244
13.71667,31724
13.72500,32208
13.73333,32696
13.74167,33188
13.75000,33683
13.75833,34183
13.76667,34687
13.77500,35195
13.78333,35708
13.79167,36225
13.80000,36746
13.80833,37272
13.81667,37801
13.82500,38336
13.83333,38874
13.84167,39417
13.85000,39965
13.85833,40517
13.86667,41074
13.87500,41636
13.88333,42202
13.89167,42773
13.90000,43349
13.90833,43930
13.91667,44516
13.92500,45107
13.93333,45703
13.94167,46304
13.95000,46911
13.95833,47523
13.96667,48140
13.97500,48762
13.98333,49390
13.99167,50023
14.00000,50662
14.00833,51307
14.01667,51957
14.02500,52613
14.03333,53274
14.04167,53942
14.05000,54615
14.05833,55295
14.06667,55980
14.07500,56672
14.08333,57370
14.09167,58075
14.10000,58786
14.10833,59503
14.11667,60227
14.12500,60957
14.13333,61694
14.14167,62438
14.15000,63189
14.15833,63947
14.16667,64713
14.17500,65485
14.18333,66265
14.19167,67051
14.20000,67843
14.20833,68640
14.21667,69440
14.22500,70241
14.23333,71038
14.24167,71827
14.25000,72600
14.25833,73349
14.26667,74064
14.27500,74735
14.28333,75349
14.29167,75894
14.30000,76357
14.30833,76726
14.31667,76991
14.32500,77140
14.33333,77167
14.34167,77063
14.35000,76824
14.35833,76445
14.36667,75923
14.37500,75256
14.38333,74441
14.39167,73478
14.40000,72364
14.40833,71098
14.41667,69676
14.42500,68099
14.43333,66366
14.44167,64476
14.45000,62434
14.45833,60244
14.46667,57915
14.47500,55459
14.48333,52893
14.49167,50234
14.50000,47504
14.50833,44727
14.51667,41927
14.52500,39133
14.53333,36370
14.54167,33663
14.55000,31035
14.55833,28508
14.56667,26097
14.57500,23817
14.58333,21678
14.59167,19686
14.60000,17844
14.60833,16152
14.61667,14608
14.62500,13207
14.63333,11942
14.64167,10806
14.65000,9788
14.65833,8880
14.66667,8073
14.67500,7358
14.68333,6724
14.69167,6165
14.70000,5671
14.70833,5236
14.71667,4852
14.72500,4512
14.73333,4212
14.74167,3947
14.75000,3712
14.75833,3503
14.76667,3317
14.77500,3151
14.78333,3003
14.79167,2869
14.80000,2749
14.80833,2640
14.81667,2541
14.82500,2451
14.83333,2369
14.84167,2294
14.85000,2224
14.85833,2160
14.86667,2100
14.87500,2044
14.88333,1993
14.89167,1944
14.90000,1899
14.90833,1856
14.91667,1816
14.92500,1778
14.93333,1742
14.94167,1709
14.95000,1677
14.95833,1646
14.96667,1618
14.97500,1591
14.98333,1565
14.99167,1540
15.00000,1517
15.00833,1495
15.01667,1473
15.02500,1453
15.03333,1434
15.04167,1416
15.05000,1399
15.05833,1383
15.06667,1368
15.07500,1354
15.08333,1341
15.09167,1329
15.10000,1317
15.10833,1306
15.11667,1296
15.12500,1286
15.13333,1278
15.14167,1271
15.15000,1264
15.15833,1259
15.16667,1256
15.17500,1254
15.18333,1254
15.19167,1256
15.20000,1262
15.20833,1271
15.21667,1284
15.22500,1302
15.23333,1327
15.24167,1359
15.25000,1399
15.25833,1450
15.26667,1512
15.27500,1588
15.28333,1680
15.29167,1790
15.30000,1921
15.30833,2075
15.31667,2256
15.32500,2466
15.33333,2709
15.34167,2988
15.35000,3307
15.35833,3669
15.36667,4077
15.37500,4536
15.38333,5049
15.39167,5618
15.40000,6247
15.40833,6937
15.41667,7690
15.42500,8510
15.43333,9396
15.44167,10349
15.45000,11371
15.45833,12458
15.46667,13611
15.47500,14826
15.48333,16101
15.49167,17432
15.50000,18814
15.50833,20243
15.51667,21713
15.52500,23218
15.53333,24752
15.54167,26307
15.55000,27876
15.55833,29450
15.56667,31023
15.57500,32586
15.58333,34132
15.59167,35653
15.60000,37141
15.60833,38590
15.61667,39992
15.62500,41343
15.63333,42636
15.64167,43865
15.65000,45027
15.65833,46116
15.66667,47129
15.67500,48063
15.68333,48915
15.69167,49683
15.70000,50365
15.70833,50960
15.71667,51466
15.72500,51884
15.73333,52211
15.74167,52448
15.75000,52596
15.75833,52654
15.76667,52623
15.77500,52504
15.78333,52297
15.79167,52005
15.80000,51629
15.80833,51170
15.81667,50631
15.82500,50013
15.83333,49320
15.84167,48554
15.85000,47719
15.85833,46819
15.86667,45856
15.87500,44835
15.88333,43762
15.89167,42640
15.90000,41474
15.90833,40269
15.91667,39030
15.92500,37763
15.93333,36474
15.94167,35166
15.95000,33847
15.95833,32521
15.96667,31193
15.97500,29869
15.98333,28553
15.99167,27250
16.00000,25965
16.00833,24701
16.01667,23463
16.02500,22253
16.03333,21074
16.04167,19930
16.05000,18823
16.05833,17754
16.06667,16725
16.07500,15738
16.08333,14793
16.09167,13891
16.10000,13033
16.10833,12217
16.11667,11445
16.12500,10714
16.13333,10025
16.14167,9377
16.15000,8768
16.15833,8198
16.16667,7665
16.17500,7167
16.18333,6703
16.19167,6272
16.20000,5872
16.20833,5502
16.21667,5159
16.22500,4841
16.23333,4549
16.24167,4279
16.25000,4030
16.25833,3802
16.26667,3591
16.27500,3399
16.28333,3222
16.29167,3059
16.30000,2910
16.30833,2774
16.31667,2649
16.32500,2534
16.33333,2429
16.34167,2333
16.35000,2244
16.35833,2163
16.36667,2088
16.37500,2019
16.38333,1956
16.39167,1897
16.40000,1843
16.40833,1793
16.41667,1746
16.42500,1703
16.43333,1664
16.44167,1626
16.45000,1591
16.45833,1558
16.46667,1527
16.47500,1497
16.48333,1469
16.49167,1443
16.50000,1417
16.50833,1392
16.51667,1369
16.52500,1346
16.53333,1324
16.54167,1302
16.55000,1282
16.55833,1262
16.56667,1242
16.57500,1223
16.58333,1204
16.59167,1186
16.60000,1168
16.60833,1150
16.61667,1133
16.62500,1116
16.63333,1099
16.64167,1083
16.65000,1067
16.65833,1051
16.66667,1035
16.67500,1020
16.68333,1005
16.69167,991
16.70000,977
16.70833,963
16.71667,950
16.72500,938
16.73333,926
16.74167,914
16.75000,902
16.75833,891
16.76667,880
16.77500,870
16.78333,860
16.79167,851
16.80000,842
16.80833,833
16.81667,825
16.82500,817
16.83333,810
16.84167,803
16.85000,796
16.85833,789
16.86667,783
16.87500,778
16.88333,772
16.89167,767
16.90000,762
16.90833,757
16.91667,753
16.92500,748
16.93333,744
16.94167,740
16.95000,736
16.95833,732
16.96667,729
16.97500,725
16.98333,722
16.99167,718
17.00000,716
17.00833,713
17.01667,710
17.02500,708
17.03333,705
17.04167,703
17.05000,700
17.05833,698
17.06667,696
17.07500,693
17.08333,691
17.09167,689
17.10000,686
17.10833,684
17.11667,681
17.12500,679
17.13333,677
17.14167,675
17.15000,674
17.15833,672
17.16667,670
17.17500,668
17.18333,665
17.19167,663
17.20000,661
17.20833,660
17.21667,658
17.22500,657
17.23333,655
17.24167,653
17.25000,651
17.25833,649
17.26667,647
17.27500,645
17.28333,643
17.29167,641
17.30000,640
17.30833,638
17.31667,637
17.32500,635
17.33333,633
17.34167,632
17.35000,630
17.35833,628
17.36667,627
17.37500,626
17.38333,625
17.39167,624
17.40000,624
17.40833,623
17.41667,623
17.42500,623
17.43333,623
17.44167,624
17.45000,625
17.45833,626
17.46667,628
17.47500,630
17.48333,632
17.49167,635
17.50000,638
17.50833,640
17.51667,644
17.52500,647
17.53333,651
17.54167,655
17.55000,660
17.55833,665
17.56667,670
17.57500,675
17.58333,679
17.59167,684
17.60000,690
17.60833,695
17.61667,701
17.62500,707
17.63333,713
17.64167,719
17.65000,725
17.65833,731
17.66667,737
17.67500,742
17.68333,748
17.69167,753
17.70000,759
17.70833,764
17.71667,769
17.72500,774
17.73333,779
17.74167,784
17.75000,789
17.75833,793
17.76667,797
17.77500,801
17.78333,804
17.79167,807
17.80000,810
17.80833,812
17.81667,814
17.82500,816
17.83333,817
17.84167,818
17.85000,819
17.85833,820
17.86667,820
17.87500,820
17.88333,820
17.89167,819
17.90000,818
17.90833,816
17.91667,814
17.92500,811
17.93333,809
17.94167,805
17.95000,801
17.95833,796
17.96667,792
17.97500,787
17.98333,782
17.99167,776
18.00000,771
18.00833,765
18.01667,758
18.02500,752
18.03333,745
18.04167,738
18.05000,730
18.05833,723
18.06667,715
18.07500,707
18.08333,700
18.09167,692
18.10000,684
18.10833,676
18.11667,667
18.12500,659
18.13333,651
18.14167,644
18.15000,636
18.15833,628
18.16667,620
18.17500,613
18.18333,605
18.19167,598
18.20000,591
18.20833,584
18.21667,577
18.22500,570
18.23333,563
18.24167,557
18.25000,551
18.25833,545
18.26667,539
18.27500,533
18.28333,528
18.29167,523
18.30000,518
18.30833,514
18.31667,510
18.32500,506
18.33333,502
18.34167,498
18.35000,495
18.35833,493
18.36667,490
18.37500,488
18.38333,486
18.39167,485
18.40000,483
18.40833,482
18.41667,482
18.42500,481
18.43333,481
18.44167,481
18.45000,481
18.45833,482
18.46667,483
18.47500,484
18.48333,486
18.49167,487
18.50000,489
18.50833,491
18.51667,493
18.52500,496
18.53333,498
18.54167,501
18.55000,504
18.55833,507
18.56667,510
18.57500,514
18.58333,517
18.59167,521
18.60000,524
18.60833,528
18.61667,532
18.62500,537
18.63333,541
18.64167,546
18.65000,550
18.65833,555
18.66667,559
18.67500,563
18.68333,568
18.69167,573
18.70000,577
18.70833,582
18.71667,587
18.72500,592
18.73333,597
18.74167,602
18.75000,607
18.75833,612
18.76667,617
18.77500,622
18.78333,627
18.79167,632
18.80000,637
18.80833,642
18.81667,647
18.82500,652
18.83333,657
18.84167,662
18.85000,666
18.85833,671
18.86667,675
18.87500,680
18.88333,685
18.89167,689
18.90000,694
18.90833,699
18.91667,703
18.92500,707
18.93333,710
18.94167,714
18.95000,718
18.95833,722
18.96667,726
18.97500,730
18.98333,733
18.99167,737
19.00000,740
19.00833,743
19.01667,746
19.02500,749
19.03333,752
19.04167,754
19.05000,756
19.05833,758
19.06667,760
19.07500,761
19.08333,762
19.09167,763
19.10000,764
19.10833,765
19.11667,765
19.12500,765
19.13333,765
19.14167,765
19.15000,764
19.15833,763
19.16667,762
19.17500,761
19.18333,760
19.19167,758
19.20000,757
19.20833,755
19.21667,752
19.22500,750
19.23333,747
19.24167,744
19.25000,741
19.25833,738
19.26667,735
19.27500,731
19.28333,726
19.29167,722
19.30000,717
19.30833,713
19.31667,709
19.32500,704
19.33333,699
19.34167,694
19.35000,690
19.35833,685
19.36667,680
19.37500,675
19.38333,670
19.39167,665
19.40000,659
19.40833,653
19.41667,647
19.42500,642
19.43333,636
19.44167,630
19.45000,625
19.45833,619
19.46667,613
19.47500,607
19.48333,601
19.49167,595
19.50000,589
19.50833,583
19.51667,577
19.52500,571
19.53333,566
19.54167,560
19.55000,554
19.55833,549
19.56667,543
19.57500,538
19.58333,533
19.59167,528
19.60000,523
19.60833,518
19.61667,513
19.62500,508
19.63333,503
19.64167,498
19.65000,494
19.65833,490
19.66667,486
19.67500,483
19.68333,479
19.69167,476
19.70000,474
19.70833,471
19.71667,468
19.72500,466
19.73333,464
19.74167,463
19.75000,462
19.75833,461
19.76667,461
19.77500,461
19.78333,461
19.79167,462
19.80000,463
19.80833,465
19.81667,467
19.82500,470
19.83333,473
19.84167,477
19.85000,482
19.85833,486
19.86667,492
19.87500,497
19.88333,504
19.89167,511
19.90000,519
19.90833,527
19.91667,536
19.92500,546
19.93333,556
19.94167,567
19.95000,578
19.95833,590
19.96667,603
19.97500,616
19.98333,628
19.99167,642
20.00000,655
20.00833,669
20.01667,683
20.02500,698
20.03333,713
20.04167,728
20.05000,742
20.05833,757
20.06667,772
20.07500,787
20.08333,801
20.09167,816
20.10000,830
20.10833,844
20.11667,858
20.12500,872
20.13333,884
20.14167,897
20.15000,909
20.15833,920
20.16667,931
20.17500,941
20.18333,951
20.19167,961
20.20000,969
20.20833,977
20.21667,985
20.22500,992
20.23333,999
20.24167,1005
20.25000,1009
20.25833,1014
20.26667,1017
20.27500,1020
20.28333,1022
20.29167,1023
20.30000,1024
20.30833,1024
20.31667,1023
20.32500,1022
20.33333,1020
20.34167,1017
20.35000,1015
20.35833,1011
20.36667,1007
20.37500,1003
20.38333,997
20.39167,991
20.40000,984
20.40833,977
20.41667,969
20.42500,961
20.43333,953
20.44167,944
20.45000,934
20.45833,925
20.46667,915
20.47500,904
20.48333,894
20.49167,883
20.50000,872
20.50833,861
20.51667,850
20.52500,838
20.53333,826
20.54167,815
20.55000,803
20.55833,792
20.56667,781
20.57500,770
20.58333,759
20.59167,748
20.60000,737
20.60833,727
20.61667,717
20.62500,707
20.63333,698
20.64167,688
20.65000,679
20.65833,671
20.66667,662
20.67500,654
20.68333,647
20.69167,640
20.70000,633
20.70833,627
20.71667,621
20.72500,616
20.73333,610
20.74167,606
20.75000,601
20.75833,597
20.76667,593
20.77500,590
20.78333,587
20.79167,584
20.80000,581
20.80833,579
20.81667,577
20.82500,576
20.83333,574
20.84167,573
20.85000,572
20.85833,571
20.86667,571
20.87500,571
20.88333,571
20.89167,571
20.90000,572
20.90833,572
20.91667,573
20.92500,574
20.93333,575
20.94167,576
20.95000,578
20.95833,580
20.96667,582
20.97500,584
20.98333,587
20.99167,589
21.00000,592
21.00833,594
21.01667,597
21.02500,600
21.03333,603
21.04167,606
21.05000,610
21.05833,613
21.06667,617
21.07500,621
21.08333,626
21.09167,631
21.10000,635
21.10833,641
21.11667,646
21.12500,652
21.13333,658
21.14167,664
21.15000,670
21.15833,676
21.16667,683
21.17500,689
21.18333,696
21.19167,703
21.20000,710
21.20833,717
21.21667,724
21.22500,731
21.23333,738
21.24167,746
21.25000,753
21.25833,760
21.26667,767
21.27500,774
21.28333,781
21.29167,788
21.30000,794
21.30833,800
21.31667,806
21.32500,812
21.33333,817
21.34167,822
21.35000,828
21.35833,833
21.36667,838
21.37500,842
21.38333,847
21.39167,851
21.40000,855
21.40833,859
21.41667,863
21.42500,867
21.43333,871
21.44167,875
21.45000,879
21.45833,884
21.46667,888
21.47500,892
21.48333,897
21.49167,902
21.50000,907
21.50833,912
21.51667,916
21.52500,922
21.53333,927
21.54167,933
21.55000,939
21.55833,945
21.56667,951
21.57500,957
21.58333,963
21.59167,969
21.60000,975
21.60833,981
21.61667,986
21.62500,992
21.63333,998
21.64167,1003
21.65000,1008
21.65833,1013
21.66667,1018
21.67500,1023
21.68333,1027
21.69167,1031
21.70000,1034
21.70833,1037
21.71667,1040
21.72500,1042
21.73333,1044
21.74167,1045
21.75000,1046
21.75833,1046
21.76667,1046
21.77500,1046
21.78333,1045
21.79167,1044
21.80000,1042
21.80833,1041
21.81667,1038
21.82500,1036
21.83333,1032
21.84167,1029
21.85000,1025
21.85833,1021
21.86667,1016
21.87500,1012
21.88333,1007
21.89167,1002
21.90000,997
21.90833,992
21.91667,987
21.92500,981
21.93333,974
21.94167,968
21.95000,961
21.95833,954
21.96667,947
21.97500,939
21.98333,931
21.99167,923
22.00000,914
22.00833,905
22.01667,895
22.02500,886
22.03333,876
22.04167,865
22.05000,854
22.05833,843
22.06667,831
22.07500,819
22.08333,806
22.09167,793
22.10000,780
22.10833,767
22.11667,753
22.12500,739
22.13333,724
22.14167,709
22.15000,694
22.15833,679
22.16667,664
22.17500,649
22.18333,634
22.19167,619
22.20000,604
22.20833,589
22.21667,574
22.22500,560
22.23333,545
22.24167,530
22.25000,516
22.25833,503
22.26667,489
22.27500,477
22.28333,464
22.29167,452
22.30000,440
22.30833,428
22.31667,417
22.32500,407
22.33333,396
22.34167,386
22.35000,377
22.35833,368
22.36667,360
22.37500,352
22.38333,344
22.39167,337
22.40000,330
22.40833,323
22.41667,317
22.42500,312
22.43333,307
22.44167,302
22.45000,297
22.45833,292
22.46667,289
22.47500,285
22.48333,282
22.49167,279
22.50000,276
22.50833,273
22.51667,270
22.52500,268
22.53333,267
22.54167,265
22.55000,264
22.55833,262
22.56667,261
22.57500,260
22.58333,260
22.59167,259
22.60000,259
22.60833,258
22.61667,258
22.62500,257
22.63333,257
22.64167,257
22.65000,257
22.65833,258
22.66667,258
22.67500,258
22.68333,259
22.69167,259
22.70000,260
22.70833,260
22.71667,261
22.72500,262
22.73333,264
22.74167,265
22.75000,266
22.75833,267
22.76667,268
22.77500,269
22.78333,270
22.79167,272
22.80000,273
22.80833,275
22.81667,276
22.82500,277
22.83333,279
22.84167,280
22.85000,281
22.85833,283
22.86667,284
22.87500,285
22.88333,287
22.89167,288
22.90000,289
22.90833,291
22.91667,293
22.92500,295
22.93333,296
22.94167,297
22.95000,298
22.95833,299
22.96667,300
22.97500,302
22.98333,303
22.99167,304
23.00000,306
23.00833,308
23.01667,309
23.02500,311
23.03333,312
23.04167,313
23.05000,314
23.05833,315
23.06667,317
23.07500,318
23.08333,319
23.09167,320
23.10000,321
23.10833,322
23.11667,323
23.12500,323
23.13333,325
23.14167,326
23.15000,326
23.15833,327
23.16667,328
23.17500,328
23.18333,329
23.19167,329
23.20000,330
23.20833,330
23.21667,331
23.22500,331
23.23333,331
23.24167,332
23.25000,333
23.25833,333
23.26667,334
23.27500,334
23.28333,334
23.29167,335
23.30000,335
23.30833,336
23.31667,336
23.32500,336
23.33333,337
23.34167,337
23.35000,337
23.35833,338
23.36667,338
23.37500,338
23.38333,339
23.39167,339
23.40000,340
23.40833,340
23.41667,341
23.42500,341
23.43333,341
23.44167,342
23.45000,342
23.45833,343
23.46667,343
23.47500,343
23.48333,344
23.49167,344
23.50000,345
23.50833,345
23.51667,346
23.52500,347
23.53333,348
23.54167,348
23.55000,348
23.55833,348
23.56667,349
23.57500,349
23.58333,350
23.59167,351
23.60000,351
23.60833,352
23.61667,352
23.62500,353
23.63333,353
23.64167,353
23.65000,354
23.65833,354
23.66667,354
23.67500,354
23.68333,354
23.69167,354
23.70000,354
23.70833,354
23.71667,354
23.72500,354
23.73333,355
23.74167,355
23.75000,355
23.75833,355
23.76667,354
23.77500,354
23.78333,354
23.79167,354
23.80000,355
23.80833,354
23.81667,354
23.82500,354
23.83333,353
23.84167,353
23.85000,353
23.85833,353
23.86667,353
23.87500,352
23.88333,351
23.89167,351
23.90000,350
23.90833,350
23.91667,349
23.92500,349
23.93333,348
23.94167,348
23.95000,347
23.95833,347
23.96667,346
23.97500,346
23.98333,345
23.99167,344
24.00000,343
24.00833,343
24.01667,342
24.02500,342
24.03333,341
24.04167,340
24.05000,340
24.05833,339
24.06667,338
24.07500,338
24.08333,337
24.09167,336
24.10000,336
24.10833,335
24.11667,335
24.12500,335
24.13333,335
24.14167,335
24.15000,335
24.15833,334
24.16667,333
24.17500,333
24.18333,333
24.19167,332
24.20000,332
24.20833,332
24.21667,332
24.22500,332
24.23333,332
24.24167,332
24.25000,332
24.25833,332
24.26667,332
24.27500,332
24.28333,332
24.29167,333
24.30000,334
24.30833,335
24.31667,336
24.32500,337
24.33333,339
24.34167,341
24.35000,342
24.35833,344
24.36667,346
24.37500,349
24.38333,353
24.39167,357
24.40000,361
24.40833,367
24.41667,373
24.42500,380
24.43333,387
24.44167,395
24.45000,405
24.45833,415
24.46667,427
24.47500,440
24.48333,453
24.49167,469
24.50000,486
24.50833,504
24.51667,524
24.52500,546
24.53333,571
24.54167,596
24.55000,623
24.55833,653
24.56667,685
24.57500,719
24.58333,755
24.59167,793
24.60000,834
24.60833,877
24.61667,923
24.62500,970
24.63333,1020
24.64167,1072
24.65000,1126
24.65833,1183
24.66667,1241
24.67500,1301
24.68333,1362
24.69167,1426
24.70000,1491
24.70833,1557
24.71667,1624
24.72500,1693
24.73333,1762
24.74167,1832
24.75000,1903
24.75833,1974
24.76667,2045
24.77500,2116
24.78333,2187
24.79167,2257
24.80000,2327
24.80833,2396
24.81667,2464
24.82500,2532
24.83333,2598
24.84167,2664
24.85000,2727
24.85833,2790
24.86667,2850
24.87500,2909
24.88333,2966
24.89167,3021
24.90000,3075
24.90833,3126
24.91667,3175
24.92500,3223
24.93333,3268
24.94167,3310
24.95000,3351
24.95833,3390
24.96667,3426
24.97500,3460
24.98333,3492
24.99167,3521
25.00000,3549
25.00833,3574
25.01667,3597
25.02500,3618
25.03333,3636
25.04167,3652
25.05000,3665
25.05833,3676
25.06667,3685
25.07500,3691
25.08333,3694
25.09167,3694
25.10000,3692
25.10833,3687
25.11667,3680
25.12500,3669
25.13333,3656
25.14167,3639
25.15000,3620
25.15833,3597
25.16667,3572
25.17500,3544
25.18333,3514
25.19167,3480
25.20000,3444
25.20833,3405
25.21667,3363
25.22500,3318
25.23333,3271
25.24167,3222
25.25000,3170
25.25833,3116
25.26667,3060
25.27500,3001
25.28333,2941
25.29167,2880
25.30000,2817
25.30833,2752
25.31667,2687
25.32500,2620
25.33333,2553
25.34167,2485
25.35000,2417
25.35833,2348
25.36667,2279
25.37500,2210
25.38333,2142
25.39167,2074
25.40000,2006
25.40833,1939
25.41667,1874
25.42500,1809
25.43333,1746
25.44167,1684
25.45000,1623
25.45833,1564
25.46667,1506
25.47500,1450
25.48333,1395
25.49167,1341
25.50000,1290
25.50833,1240
25.51667,1192
25.52500,1147
25.53333,1102
25.54167,1060
25.55000,1019
25.55833,980
25.56667,942
25.57500,907
25.58333,873
25.59167,842
25.60000,812
25.60833,783
25.61667,755
25.62500,729
25.63333,705
25.64167,682
25.65000,661
25.65833,640
25.66667,621
25.67500,603
25.68333,586
25.69167,570
25.70000,554
25.70833,540
25.71667,527
25.72500,514
25.73333,502
25.74167,491
25.75000,480
25.75833,470
25.76667,461
25.77500,452
25.78333,444
25.79167,436
25.80000,428
25.80833,421
25.81667,414
25.82500,408
25.83333,401
25.84167,395
25.85000,390
25.85833,384
25.86667,379
25.87500,373
25.88333,368
25.89167,364
25.90000,359
25.90833,354
25.91667,349
25.92500,344
25.93333,339
25.94167,334
25.95000,330
25.95833,325
25.96667,320
25.97500,316
25.98333,311
25.99167,307
26.00000,302
26.00833,298
26.01667,294
26.02500,289
26.03333,285
26.04167,281
26.05000,277
26.05833,273
26.06667,269
26.07500,264
26.08333,260
26.09167,256
26.10000,252
26.10833,248
26.11667,244
26.12500,241
26.13333,237
26.14167,233
26.15000,230
26.15833,226
26.16667,223
26.17500,219
26.18333,216
26.19167,213
26.20000,209
26.20833,205
26.21667,202
26.22500,199
26.23333,196
26.24167,193
26.25000,190
26.25833,188
26.26667,185
26.27500,182
26.28333,180
26.29167,178
26.30000,176
26.30833,174
26.31667,171
26.32500,169
26.33333,167
26.34167,165
26.35000,164
26.35833,162
26.36667,161
26.37500,160
26.38333,158
26.39167,157
26.40000,156
26.40833,155
26.41667,154
26.42500,153
26.43333,152
26.44167,151
26.45000,150
26.45833,149
26.46667,149
26.47500,148
26.48333,147
26.49167,147
26.50000,146
26.50833,146
26.51667,146
26.52500,145
26.53333,145
26.54167,145
26.55000,144
26.55833,144
26.56667,144
26.57500,144
26.58333,144
26.59167,143
26.60000,143
26.60833,142
26.61667,142
26.62500,142
26.63333,142
26.64167,142
26.65000,143
26.65833,143
26.66667,143
26.67500,143
26.68333,143
26.69167,143
26.70000,143
26.70833,143
26.71667,143
26.72500,143
26.73333,144
26.74167,144
26.75000,144
26.75833,144
26.76667,144
26.77500,144
26.78333,144
26.79167,144
26.80000,144
26.80833,145
26.81667,145
26.82500,145
26.83333,145
26.84167,145
26.85000,144
26.85833,144
26.86667,144
26.87500,144
26.88333,144
26.89167,144
26.90000,144
26.90833,144
26.91667,144
26.92500,145
26.93333,145
26.94167,145
26.95000,145
26.95833,145
26.96667,145
26.97500,145
26.98333,145
26.99167,146
27.00000,146
27.00833,145
27.01667,145
27.02500,145
27.03333,145
27.04167,145
27.05000,145
27.05833,145
27.06667,145
27.07500,145
27.08333,145
27.09167,145
27.10000,145
27.10833,145
27.11667,145
27.12500,145
27.13333,145
27.14167,145
27.15000,146
27.15833,146
27.16667,146
27.17500,146
27.18333,146
27.19167,146
27.20000,146
27.20833,146
27.21667,146
27.22500,146
27.23333,146
27.24167,146
27.25000,146
27.25833,147
27.26667,147
27.27500,146
27.28333,146
27.29167,146
27.30000,146
27.30833,146
27.31667,146
27.32500,146
27.33333,146
27.34167,146
27.35000,145
27.35833,145
27.36667,145
27.37500,145
27.38333,145
27.39167,145
27.40000,145
27.40833,145
27.41667,145
27.42500,145
27.43333,145
27.44167,145
27.45000,145
27.45833,144
27.46667,144
27.47500,144
27.48333,144
27.49167,143
27.50000,143
27.50833,143
27.51667,143
27.52500,143
27.53333,143
27.54167,142
27.55000,142
27.55833,142
27.56667,142
27.57500,141
27.58333,141
27.59167,140
27.60000,140
27.60833,140
27.61667,139
27.62500,139
27.63333,139
27.64167,138
27.65000,138
27.65833,137
27.66667,137
27.67500,137
27.68333,136
27.69167,136
27.70000,135
27.70833,135
27.71667,135
27.72500,134
27.73333,134
27.74167,133
27.75000,132
27.75833,132
27.76667,131
27.77500,131
27.78333,130
27.79167,130
27.80000,129
27.80833,129
27.81667,128
27.82500,128
27.83333,128
27.84167,127
27.85000,127
27.85833,126
27.86667,126
27.87500,125
27.88333,125
27.89167,125
27.90000,124
27.90833,124
27.91667,123
27.92500,123
27.93333,123
27.94167,123
27.95000,123
27.95833,122
27.96667,122
27.97500,122
27.98333,122
27.99167,122
28.00000,122
28.00833,122
28.01667,122
28.02500,121
28.03333,121
28.04167,121
28.05000,121
28.05833,121
28.06667,121
28.07500,120
28.08333,121
28.09167,121
28.10000,121
28.10833,121
28.11667,121
28.12500,121
28.13333,121
28.14167,121
28.15000,121
28.15833,121
28.16667,121
28.17500,121
28.18333,121
28.19167,121
28.20000,121
28.20833,121
28.21667,121
28.22500,121
28.23333,122
28.24167,122
28.25000,122
28.25833,122
28.26667,122
28.27500,122
28.28333,121
28.29167,121
28.30000,121
28.30833,122
28.31667,122
28.32500,122
28.33333,123
28.34167,123
28.35000,124
28.35833,124
28.36667,125
28.37500,126
28.38333,126
28.39167,127
28.40000,128
28.40833,130
28.41667,132
28.42500,133
28.43333,135
28.44167,138
28.45000,140
28.45833,143
28.46667,146
28.47500,150
28.48333,154
28.49167,159
28.50000,164
28.50833,169
28.51667,176
28.52500,182
28.53333,190
28.54167,198
28.55000,207
28.55833,216
28.56667,227
28.57500,238
28.58333,251
28.59167,264
28.60000,279
28.60833,295
28.61667,312
28.62500,330
28.63333,349
28.64167,370
28.65000,392
28.65833,415
28.66667,439
28.67500,465
28.68333,493
28.69167,521
28.70000,552
28.70833,583
28.71667,616
28.72500,651
28.73333,686
28.74167,723
28.75000,762
28.75833,803
28.76667,844
28.77500,887
28.78333,932
28.79167,977
28.80000,1023
28.80833,1070
28.81667,1118
28.82500,1167
28.83333,1217
28.84167,1268
28.85000,1319
28.85833,1371
28.86667,1423
28.87500,1475
28.88333,1528
28.89167,1580
28.90000,1633
28.90833,1686
28.91667,1738
28.92500,1790
28.93333,1842
28.94167,1893
28.95000,1944
28.95833,1993
28.96667,2042
28.97500,2090
28.98333,2138
28.99167,2184
29.00000,2228
29.00833,2272
29.01667,2314
29.02500,2354
29.03333,2393
29.04167,2431
29.05000,2467
29.05833,2501
29.06667,2534
29.07500,2566
29.08333,2596
29.09167,2625
29.10000,2651
29.10833,2677
29.11667,2701
29.12500,2723
29.13333,2743
29.14167,2762
29.15000,2780
29.15833,2796
29.16667,2810
29.17500,2822
29.18333,2834
29.19167,2844
29.20000,2852
29.20833,2859
29.21667,2865
29.22500,2869
29.23333,2872
29.24167,2873
29.25000,2873
29.25833,2872
29.26667,2869
29.27500,2865
29.28333,2860
29.29167,2853
29.30000,2844
29.30833,2834
29.31667,2823
29.32500,2809
29.33333,2795
29.34167,2780
29.35000,2763
29.35833,2744
29.36667,2725
29.37500,2703
29.38333,2681
29.39167,2657
29.40000,2631
29.40833,2604
29.41667,2576
29.42500,2546
29.43333,2515
29.44167,2482
29.45000,2448
29.45833,2413
29.46667,2377
29.47500,2339
29.48333,2300
29.49167,2261
29.50000,2220
29.50833,2178
29.51667,2136
29.52500,2092
29.53333,2047
29.54167,2002
29.55000,1957
29.55833,1911
29.56667,1864
29.57500,1817
29.58333,1770
29.59167,1723
29.60000,1675
29.60833,1628
29.61667,1581
29.62500,1533
29.63333,1486
29.64167,1439
29.65000,1392
29.65833,1346
29.66667,1300
29.67500,1255
29.68333,1211
29.69167,1167
29.70000,1124
29.70833,1082
29.71667,1040
29.72500,1000
29.73333,960
29.74167,922
29.75000,884
29.75833,847
29.76667,812
29.77500,777
29.78333,744
29.79167,711
29.80000,680
29.80833,649
29.81667,620
29.82500,592
29.83333,565
29.84167,539
29.85000,514
29.85833,489
29.86667,466
29.87500,444
29.88333,422
29.89167,402
29.90000,382
29.90833,364
29.91667,346
29.92500,329
29.93333,312
29.94167,297
29.95000,282
29.95833,268
29.96667,255
29.97500,242
29.98333,229
29.99167,217
30.00000,206
30.00833,195
30.01667,184
30.02500,174
30.03333,164
30.04167,154
30.05000,145
30.05833,136
30.06667,127
30.07500,118
30.08333,110
30.09167,102
30.10000,94
30.10833,86
30.11667,78
30.12500,70
30.13333,63
30.14167,56
30.15000,48
30.15833,41
30.16667,33
30.17500,25
30.18333,18
30.19167,10
30.20000,3
30.20833,-4
30.21667,-11
30.22500,-19
30.23333,-26
30.24167,-33
30.25000,-40
30.25833,-47
30.26667,-54
30.27500,-62
30.28333,-69
30.29167,-77
30.30000,-84
30.30833,-92
30.31667,-99
30.32500,-107
30.33333,-115
30.34167,-122
30.35000,-130
30.35833,-137
30.36667,-144
30.37500,-151
30.38333,-158
30.39167,-165
30.40000,-171
30.40833,-178
30.41667,-185
30.42500,-191
30.43333,-198
30.44167,-204
30.45000,-210
30.45833,-217
30.46667,-223
30.47500,-229
30.48333,-234
30.49167,-239
30.50000,-244
30.50833,-250
30.51667,-254
30.52500,-259
30.53333,-264
30.54167,-268
30.55000,-273
30.55833,-277
30.56667,-280
30.57500,-284
30.58333,-287
30.59167,-290
30.60000,-292
30.60833,-294
30.61667,-296
30.62500,-298
30.63333,-299
30.64167,-300
30.65000,-301
30.65833,-301
30.66667,-301
30.67500,-301
30.68333,-301
30.69167,-300
30.70000,-299
30.70833,-298
30.71667,-297
30.72500,-295
30.73333,-293
30.74167,-290
30.75000,-287
30.75833,-284
30.76667,-281
30.77500,-277
30.78333,-273
30.79167,-269
30.80000,-264
30.80833,-260
30.81667,-255
30.82500,-250
30.83333,-244
30.84167,-238
30.85000,-232
30.85833,-226
30.86667,-219
30.87500,-213
30.88333,-206
30.89167,-199
30.90000,-192
30.90833,-184
30.91667,-177
30.92500,-169
30.93333,-162
30.94167,-155
30.95000,-147
30.95833,-139
30.96667,-131
30.97500,-123
30.98333,-114
30.99167,-106
31.00000,-98
31.00833,-89
31.01667,-81
31.02500,-72
31.03333,-64
31.04167,-56
31.05000,-49
31.05833,-41
31.06667,-34
31.07500,-26
31.08333,-19
31.09167,-11
31.10000,-4
31.10833,3
31.11667,11
31.12500,18
31.13333,25
31.14167,32
31.15000,38
31.15833,45
31.16667,51
31.17500,57
31.18333,62
31.19167,68
31.20000,73
31.20833,78
31.21667,83
31.22500,89
31.23333,93
31.24167,98
31.25000,103
31.25833,107
31.26667,111
31.27500,115
31.28333,118
31.29167,121
31.30000,125
31.30833,128
31.31667,130
31.32500,133
31.33333,135
31.34167,138
31.35000,140
31.35833,142
31.36667,144
31.37500,145
31.38333,147
31.39167,148
31.40000,149
31.40833,150
31.41667,151
31.42500,152
31.43333,153
31.44167,153
31.45000,153
31.45833,154
31.46667,154
31.47500,154
31.48333,154
31.49167,154
31.50000,153
31.50833,153
31.51667,153
31.52500,153
31.53333,153
31.54167,153
31.55000,152
31.55833,152
31.56667,152
31.57500,152
31.58333,151
31.59167,151
31.60000,150
31.60833,150
31.61667,149
31.62500,149
31.63333,149
31.64167,148
31.65000,148
31.65833,148
31.66667,148
31.67500,148
31.68333,148
31.69167,148
31.70000,149
31.70833,149
31.71667,150
31.72500,151
31.73333,152
31.74167,153
31.75000,155
31.75833,156
31.76667,158
31.77500,160
31.78333,162
31.79167,164
31.80000,167
31.80833,169
31.81667,172
31.82500,175
31.83333,177
31.84167,181
31.85000,184
31.85833,188
31.86667,192
31.87500,196
31.88333,200
31.89167,205
31.90000,210
31.90833,215
31.91667,220
31.92500,225
31.93333,230
31.94167,236
31.95000,242
31.95833,248
31.96667,253
31.97500,259
31.98333,266
31.99167,273
32.00000,279
32.00833,286
32.01667,292
32.02500,299
32.03333,306
32.04167,313
32.05000,319
32.05833,326
32.06667,333
32.07500,340
32.08333,348
32.09167,355
32.10000,361
32.10833,368
32.11667,375
32.12500,381
32.13333,388
32.14167,394
32.15000,400
32.15833,407
32.16667,413
32.17500,420
32.18333,426
32.19167,432
32.20000,438
32.20833,444
32.21667,449
32.22500,454
32.23333,460
32.24167,465
32.25000,470
32.25833,475
32.26667,480
32.27500,485
32.28333,490
32.29167,494
32.30000,499
32.30833,503
32.31667,507
32.32500,511
32.33333,515
32.34167,519
32.35000,523
32.35833,527
32.36667,530
32.37500,533
32.38333,536
32.39167,539
32.40000,542
32.40833,544
32.41667,547
32.42500,549
32.43333,551
32.44167,553
32.45000,555
32.45833,556
32.46667,558
32.47500,560
32.48333,561
32.49167,562
32.50000,563
32.50833,563
32.51667,563
32.52500,563
32.53333,564
32.54167,563
32.55000,563
32.55833,563
32.56667,562
32.57500,561
32.58333,560
32.59167,558
32.60000,557
32.60833,555
32.61667,553
32.62500,551
32.63333,549
32.64167,547
32.65000,544
32.65833,542
32.66667,539
32.67500,536
32.68333,533
32.69167,530
32.70000,526
32.70833,523
32.71667,519
32.72500,516
32.73333,511
32.74167,507
32.75000,503
32.75833,499
32.76667,495
32.77500,491
32.78333,487
32.79167,483
32.80000,478
32.80833,474
32.81667,470
32.82500,465
32.83333,461
32.84167,457
32.85000,453
32.85833,449
32.86667,445
32.87500,441
32.88333,437
32.89167,433
32.90000,429
32.90833,425
32.91667,421
32.92500,418
32.93333,414
32.94167,411
32.95000,407
32.95833,405
32.96667,401
32.97500,398
32.98333,396
32.99167,393
33.00000,390
33.00833,388
33.01667,385
33.02500,383
33.03333,380
33.04167,378
33.05000,376
33.05833,374
33.06667,372
33.07500,370
33.08333,368
33.09167,366
33.10000,364
33.10833,362
33.11667,360
33.12500,358
33.13333,356
33.14167,354
33.15000,353
33.15833,351
33.16667,349
33.17500,348
33.18333,346
33.19167,344
33.20000,342
33.20833,341
33.21667,339
33.22500,337
33.23333,335
33.24167,334
33.25000,332
33.25833,330
33.26667,328
33.27500,326
33.28333,324
33.29167,322
33.30000,320
33.30833,318
33.31667,316
33.32500,314
33.33333,312
33.34167,309
33.35000,307
33.35833,304
33.36667,302
33.37500,299
33.38333,297
33.39167,294
33.40000,292
33.40833,289
33.41667,286
33.42500,283
33.43333,280
33.44167,277
33.45000,274
33.45833,271
33.46667,268
33.47500,265
33.48333,262
33.49167,259
33.50000,255
33.50833,252
33.51667,249
33.52500,246
33.53333,242
33.54167,239
33.55000,235
33.55833,232
33.56667,228
33.57500,225
33.58333,221
33.59167,218
33.60000,214
33.60833,210
33.61667,207
33.62500,203
33.63333,200
33.64167,196
33.65000,192
33.65833,188
33.66667,184
33.67500,181
33.68333,177
33.69167,174
33.70000,171
33.70833,168
33.71667,164
33.72500,160
33.73333,156
33.74167,152
33.75000,148
33.75833,145
33.76667,142
33.77500,139
33.78333,135
33.79167,132
33.80000,129
33.80833,126
33.81667,122
33.82500,119
33.83333,116
33.84167,113
33.85000,110
33.85833,107
33.86667,104
33.87500,102
33.88333,99
33.89167,96
33.90000,94
33.90833,91
33.91667,89
33.92500,87
33.93333,84
33.94167,82
33.95000,79
33.95833,77
33.96667,74
33.97500,72
33.98333,71
33.99167,69
34.00000,67
34.00833,65
34.01667,64
34.02500,62
34.03333,61
34.04167,59
34.05000,58
34.05833,57
34.06667,56
34.07500,55
34.08333,54
34.09167,53
34.10000,51
34.10833,50
34.11667,49
34.12500,48
34.13333,48
34.14167,47
34.15000,46
34.15833,46
34.16667,45
34.17500,45
34.18333,44
34.19167,43
34.20000,43
34.20833,42
34.21667,42
34.22500,41
34.23333,41
34.24167,41
34.25000,40
34.25833,40
34.26667,39
34.27500,39
34.28333,38
34.29167,38
34.30000,38
34.30833,39
34.31667,39
34.32500,38
34.33333,38
34.34167,38
34.35000,38
34.35833,38
34.36667,38
34.37500,38
34.38333,37
34.39167,37
34.40000,37
34.40833,37
34.41667,36
34.42500,36
34.43333,36
34.44167,36
34.45000,36
34.45833,36
34.46667,36
34.47500,35
34.48333,35
34.49167,35
34.50000,36
34.50833,36
34.51667,35
34.52500,35
34.53333,35
34.54167,35
34.55000,35
34.55833,34
34.56667,34
34.57500,34
34.58333,34
34.59167,34
34.60000,34
34.60833,33
34.61667,33
34.62500,33
34.63333,33
34.64167,33
34.65000,33
34.65833,33
34.66667,32
34.67500,32
34.68333,32
34.69167,32
34.70000,32
34.70833,32
34.71667,31
34.72500,31
34.73333,31
34.74167,31
34.75000,31
34.75833,31
34.76667,31
34.77500,31
34.78333,30
34.79167,30
34.80000,30
34.80833,30
34.81667,29
34.82500,29
34.83333,29
34.84167,29
34.85000,29
34.85833,29
34.86667,29
34.87500,29
34.88333,30
34.89167,30
34.90000,29
34.90833,29
34.91667,29
34.92500,28
34.93333,28
34.94167,28
34.95000,28
34.95833,29
34.96667,29
34.97500,29
34.98333,29
34.99167,29
35.00000,30
35.00833,30
35.01667,30
35.02500,30
35.03333,31
35.04167,31
35.05000,31
35.05833,31
35.06667,31
35.07500,31
35.08333,32
35.09167,33
35.10000,33
35.10833,34
35.11667,35
35.12500,35
35.13333,36
35.14167,36
35.15000,37
35.15833,38
35.16667,38
35.17500,39
35.18333,39
35.19167,40
35.20000,42
35.20833,43
35.21667,44
35.22500,45
35.23333,46
35.24167,47
35.25000,48
35.25833,49
35.26667,50
35.27500,51
35.28333,53
35.29167,54
35.30000,55
35.30833,56
35.31667,57
35.32500,58
35.33333,60
35.34167,61
35.35000,63
35.35833,64
35.36667,65
35.37500,67
35.38333,68
35.39167,70
35.40000,71
35.40833,72
35.41667,73
35.42500,74
35.43333,76
35.44167,77
35.45000,78
35.45833,79
35.46667,81
35.47500,82
35.48333,84
35.49167,86
35.50000,87
35.50833,89
35.51667,90
35.52500,91
35.53333,92
35.54167,94
35.55000,95
35.55833,97
35.56667,98
35.57500,100
35.58333,101
35.59167,101
35.60000,102
35.60833,103
35.61667,104
35.62500,105
35.63333,106
35.64167,107
35.65000,108
35.65833,109
35.66667,109
35.67500,111
35.68333,112
35.69167,113
35.70000,114
35.70833,115
35.71667,115
35.72500,116
35.73333,117
35.74167,117
35.75000,118
35.75833,118
35.76667,119
35.77500,120
35.78333,120
35.79167,121
35.80000,121
35.80833,121
35.81667,122
35.82500,122
35.83333,123
35.84167,123
35.85000,124
35.85833,124
35.86667,124
35.87500,125
35.88333,125
35.89167,124
35.90000,124
35.90833,124
35.91667,124
35.92500,124
35.93333,124
35.94167,125
35.95000,125
35.95833,125
35.96667,125
35.97500,126
35.98333,126
35.99167,126
36.00000,126
36.00833,126
36.01667,126
36.02500,126
36.03333,126
36.04167,126
36.05000,126
36.05833,125
36.06667,125
36.07500,124
36.08333,124
36.09167,123
36.10000,122
36.10833,122
36.11667,121
36.12500,120
36.13333,120
36.14167,119
36.15000,119
36.15833,118
36.16667,118
36.17500,117
36.18333,116
36.19167,116
36.20000,115
36.20833,115
36.21667,114
36.22500,113
36.23333,112
36.24167,111
36.25000,110
36.25833,109
36.26667,108
36.27500,108
36.28333,107
36.29167,106
36.30000,105
36.30833,105
36.31667,104
36.32500,103
36.33333,103
36.34167,102
36.35000,101
36.35833,100
36.36667,99
36.37500,98
36.38333,97
36.39167,97
36.40000,96
36.40833,95
36.41667,94
36.42500,93
36.43333,92
36.44167,92
36.45000,91
36.45833,91
36.46667,90
36.47500,89
36.48333,89
36.49167,88
36.50000,87
36.50833,87
36.51667,87
36.52500,86
36.53333,86
36.54167,86
36.55000,85
36.55833,85
36.56667,84
36.57500,84
36.58333,84
36.59167,84
36.60000,84
36.60833,84
36.61667,83
36.62500,83
36.63333,83
36.64167,83
36.65000,83
36.65833,83
36.66667,83
36.67500,82
36.68333,82
36.69167,82
36.70000,82
36.70833,83
36.71667,83
36.72500,83
36.73333,83
36.74167,83
36.75000,83
36.75833,83
36.76667,84
36.77500,84
36.78333,84
36.79167,84
36.80000,84
36.80833,84
36.81667,85
36.82500,86
36.83333,86
36.84167,87
36.85000,88
36.85833,88
36.86667,89
36.87500,90
36.88333,90
36.89167,90
36.90000,90
36.90833,91
36.91667,92
36.92500,93
36.93333,93
36.94167,94
36.95000,94
36.95833,95
36.96667,96
36.97500,97
36.98333,98
36.99167,98
37.00000,99
37.00833,100
37.01667,100
37.02500,101
37.03333,102
37.04167,103
37.05000,104
37.05833,104
37.06667,105
37.07500,105
37.08333,106
37.09167,108
37.10000,108
37.10833,109
37.11667,110
37.12500,111
37.13333,112
37.14167,113
37.15000,114
37.15833,115
37.16667,116
37.17500,117
37.18333,118
37.19167,119
37.20000,120
37.20833,121
37.21667,122
37.22500,123
37.23333,124
37.24167,125
37.25000,126
37.25833,127
37.26667,128
37.27500,129
37.28333,130
37.29167,131
37.30000,132
37.30833,133
37.31667,134
37.32500,134
37.33333,135
37.34167,137
37.35000,138
37.35833,139
37.36667,140
37.37500,142
37.38333,143
37.39167,145
37.40000,146
37.40833,147
37.41667,148
37.42500,149
37.43333,150
37.44167,151
37.45000,152
37.45833,153
37.46667,155
37.47500,156
37.48333,157
37.49167,158
37.50000,159
37.50833,160
37.51667,161
37.52500,162
37.53333,164
37.54167,165
37.55000,166
37.55833,167
37.56667,168
37.57500,169
37.58333,170
37.59167,171
37.60000,173
37.60833,174
37.61667,174
37.62500,175
37.63333,176
37.64167,177
37.65000,178
37.65833,179
37.66667,180
37.67500,181
37.68333,181
37.69167,182
37.70000,182
37.70833,183
37.71667,184
37.72500,184
37.73333,185
37.74167,185
37.75000,186
37.75833,187
37.76667,187
37.77500,187
37.78333,188
37.79167,188
37.80000,189
37.80833,189
37.81667,190
37.82500,190
37.83333,190
37.84167,190
37.85000,190
37.85833,190
37.86667,190
37.87500,190
37.88333,190
37.89167,190
37.90000,190
37.90833,190
37.91667,190
37.92500,190
37.93333,190
37.94167,190
37.95000,190
37.95833,190
37.96667,189
37.97500,189
37.98333,188
37.99167,188
38.00000,187
38.00833,186
38.01667,185
38.02500,185
38.03333,184
38.04167,183
38.05000,183
38.05833,183
38.06667,182
38.07500,182
38.08333,181
38.09167,181
38.10000,180
38.10833,179
38.11667,178
38.12500,177
38.13333,176
38.14167,174
38.15000,173
38.15833,172
38.16667,171
38.17500,170
38.18333,168
38.19167,167
38.20000,166
38.20833,165
38.21667,164
38.22500,164
38.23333,162
38.24167,161
38.25000,159
38.25833,158
38.26667,157
38.27500,156
38.28333,155
38.29167,153
38.30000,152
38.30833,150
38.31667,148
38.32500,147
38.33333,145
38.34167,144
38.35000,143
38.35833,142
38.36667,140
38.37500,139
38.38333,137
38.39167,136
38.40000,135
38.40833,133
38.41667,131
38.42500,130
38.43333,128
38.44167,127
38.45000,125
38.45833,124
38.46667,122
38.47500,121
38.48333,119
38.49167,118
38.50000,117
38.50833,115
38.51667,114
38.52500,113
38.53333,111
38.54167,110
38.55000,108
38.55833,107
38.56667,105
38.57500,103
38.58333,102
38.59167,100
38.60000,99
38.60833,97
38.61667,96
38.62500,94
38.63333,93
38.64167,92
38.65000,90
38.65833,89
38.66667,87
38.67500,86
38.68333,84
38.69167,83
38.70000,82
38.70833,80
38.71667,79
38.72500,78
38.73333,76
38.74167,75
38.75000,74
38.75833,73
38.76667,72
38.77500,70
38.78333,69
38.79167,68
38.80000,67
38.80833,66
38.81667,65
38.82500,64
38.83333,63
38.84167,62
38.85000,61
38.85833,60
38.86667,59
38.87500,58
38.88333,57
38.89167,57
38.90000,56
38.90833,55
38.91667,54
38.92500,53
38.93333,52
38.94167,51
38.95000,51
38.95833,50
38.96667,49
38.97500,48
38.98333,48
38.99167,47
39.00000,47
39.00833,46
39.01667,46
39.02500,45
39.03333,44
39.04167,44
39.05000,43
39.05833,43
39.06667,43
39.07500,43
39.08333,42
39.09167,42
39.10000,41
39.10833,40
39.11667,39
39.12500,39
39.13333,38
39.14167,38
39.15000,38
39.15833,37
39.16667,37
39.17500,37
39.18333,37
39.19167,36
39.20000,36
39.20833,35
39.21667,35
39.22500,35
39.23333,35
39.24167,35
39.25000,34
39.25833,34
39.26667,34
39.27500,33
39.28333,33
39.29167,32
39.30000,32
39.30833,32
39.31667,31
39.32500,31
39.33333,31
39.34167,31
39.35000,31
39.35833,31
39.36667,31
39.37500,31
39.38333,31
39.39167,31
39.40000,30
39.40833,30
39.41667,30
39.42500,30
39.43333,30
39.44167,29
39.45000,29
39.45833,29
39.46667,29
39.47500,29
39.48333,29
39.49167,29
39.50000,28
39.50833,28
39.51667,28
39.52500,27
39.53333,28
39.54167,28
39.55000,28
39.55833,28
39.56667,29
39.57500,29
39.58333,29
39.59167,28
39.60000,28
39.60833,27
39.61667,27
39.62500,27
39.63333,27
39.64167,27
39.65000,27
39.65833,27
39.66667,27
39.67500,27
39.68333,27
39.69167,26
39.70000,26
39.70833,26
39.71667,26
39.72500,26
39.73333,26
39.74167,26
39.75000,26
39.75833,27
39.76667,27
39.77500,26
39.78333,26
39.79167,26
39.80000,26
39.80833,26
39.81667,26
39.82500,25
39.83333,25
39.84167,25
39.85000,25
39.85833,26
39.86667,26
39.87500,26
39.88333,26
39.89167,26
39.90000,26
39.90833,26
39.91667,25
39.92500,25
39.93333,24
39.94167,24
39.95000,24
39.95833,24
39.96667,24
39.97500,24
39.98333,24
39.99167,25
40.00000,25
40.00833,25
40.01667,25
40.02500,25
40.03333,25
40.04167,25
40.05000,25
40.05833,25
40.06667,25
40.07500,25
40.08333,25
40.09167,25
40.10000,25
40.10833,25
40.11667,25
40.12500,25
40.13333,25
40.14167,25
40.15000,25
40.15833,24
40.16667,24
40.17500,24
40.18333,24
40.19167,24
40.20000,24
40.20833,24
40.21667,24
40.22500,24
40.23333,24
40.24167,25
40.25000,25
40.25833,25
40.26667,25
40.27500,25
40.28333,24
40.29167,24
40.30000,24
40.30833,25
40.31667,25
40.32500,25
40.33333,25
40.34167,25
40.35000,25
40.35833,25
40.36667,25
40.37500,25
40.38333,25
40.39167,25
40.40000,25
40.40833,25
40.41667,25
40.42500,25
40.43333,25
40.44167,25
40.45000,25
40.45833,25
40.46667,25
40.47500,26
40.48333,26
40.49167,26
40.50000,26
40.50833,27
40.51667,27
40.52500,28
40.53333,28
40.54167,28
40.55000,29
40.55833,29
40.56667,29
40.57500,29
40.58333,29
40.59167,30
40.60000,30
40.60833,31
40.61667,31
40.62500,31
40.63333,32
40.64167,32
40.65000,33
40.65833,33
40.66667,34
40.67500,34
40.68333,35
40.69167,35
40.70000,35
40.70833,36
40.71667,36
40.72500,37
40.73333,37
40.74167,38
40.75000,39
40.75833,39
40.76667,40
40.77500,41
40.78333,41
40.79167,41
40.80000,42
40.80833,43
40.81667,44
40.82500,45
40.83333,46
40.84167,46
40.85000,47
40.85833,48
40.86667,48
40.87500,49
40.88333,50
40.89167,50
40.90000,51
40.90833,52
40.91667,52
40.92500,53
40.93333,54
40.94167,55
40.95000,56
40.95833,57
40.96667,58
40.97500,59
40.98333,59
40.99167,60
41.00000,61
41.00833,62
41.01667,63
41.02500,65
41.03333,66
41.04167,66
41.05000,67
41.05833,67
41.06667,68
41.07500,70
41.08333,71
41.09167,72
41.10000,73
41.10833,74
41.11667,75
41.12500,76
41.13333,77
41.14167,78
41.15000,78
41.15833,79
41.16667,80
41.17500,82
41.18333,83
41.19167,84
41.20000,85
41.20833,86
41.21667,87
41.22500,88
41.23333,89
41.24167,90
41.25000,91
41.25833,92
41.26667,93
41.27500,94
41.28333,95
41.29167,96
41.30000,97
41.30833,98
41.31667,99
41.32500,101
41.33333,102
41.34167,103
41.35000,104
41.35833,105
41.36667,106
41.37500,108
41.38333,109
41.39167,110
41.40000,110
41.40833,112
41.41667,113
41.42500,114
41.43333,115
41.44167,116
41.45000,117
41.45833,118
41.46667,119
41.47500,121
41.48333,122
41.49167,123
41.50000,124
41.50833,125
41.51667,127
41.52500,128
41.53333,129
41.54167,129
41.55000,130
41.55833,130
41.56667,131
41.57500,132
41.58333,133
41.59167,135
41.60000,136
41.60833,137
41.61667,138
41.62500,139
41.63333,140
41.64167,141
41.65000,142
41.65833,143
41.66667,144
41.67500,145
41.68333,146
41.69167,147
41.70000,148
41.70833,149
41.71667,149
41.72500,150
41.73333,151
41.74167,152
41.75000,152
41.75833,153
41.76667,154
41.77500,155
41.78333,156
41.79167,156
41.80000,157
41.80833,157
41.81667,158
41.82500,158
41.83333,159
41.84167,159
41.85000,160
41.85833,160
41.86667,161
41.87500,161
41.88333,162
41.89167,162
41.90000,163
41.90833,163
41.91667,163
41.92500,163
41.93333,164
41.94167,164
41.95000,164
41.95833,165
41.96667,165
41.97500,165
41.98333,166
41.99167,166
42.00000,166
42.00833,167
42.01667,167
42.02500,167
42.03333,167
42.04167,167
42.05000,167
42.05833,167
42.06667,167
42.07500,167
42.08333,167
42.09167,167
42.10000,167
42.10833,167
42.11667,167
42.12500,167
42.13333,167
42.14167,167
42.15000,167
42.15833,167
42.16667,167
42.17500,167
42.18333,167
42.19167,167
42.20000,166
42.20833,166
42.21667,166
42.22500,165
42.23333,165
42.24167,165
42.25000,164
42.25833,164
42.26667,164
42.27500,163
42.28333,163
42.29167,163
42.30000,163
42.30833,163
42.31667,163
42.32500,162
42.33333,162
42.34167,162
42.35000,161
42.35833,161
42.36667,161
42.37500,161
42.38333,160
42.39167,159
42.40000,158
42.40833,158
42.41667,157
42.42500,157
42.43333,156
42.44167,155
42.45000,155
42.45833,154
42.46667,154
42.47500,153
42.48333,153
42.49167,152
42.50000,151
42.50833,151
42.51667,150
42.52500,149
42.53333,149
42.54167,148
42.55000,148
42.55833,147
42.56667,146
42.57500,145
42.58333,145
42.59167,144
42.60000,143
42.60833,142
42.61667,142
42.62500,141
42.63333,140
42.64167,139
42.65000,138
42.65833,137
42.66667,137
42.67500,136
42.68333,135
42.69167,134
42.70000,133
42.70833,133
42.71667,132
42.72500,131
42.73333,131
42.74167,130
42.75000,129
42.75833,128
42.76667,127
42.77500,126
42.78333,125
42.79167,124
42.80000,123
42.80833,122
42.81667,121
42.82500,120
42.83333,119
42.84167,119
42.85000,119
42.85833,118
42.86667,117
42.87500,116
42.88333,115
42.89167,114
42.90000,113
42.90833,112
42.91667,111
42.92500,110
42.93333,109
42.94167,108
42.95000,108
42.95833,107
42.96667,106
42.97500,105
42.98333,104
42.99167,103
43.00000,102
43.00833,102
43.01667,101
43.02500,101
43.03333,100
43.04167,99
43.05000,98
43.05833,97
43.06667,97
43.07500,96
43.08333,95
43.09167,94
43.10000,94
43.10833,93
43.11667,92
43.12500,91
43.13333,91
43.14167,90
43.15000,89
43.15833,88
43.16667,87
43.17500,86
43.18333,85
43.19167,85
43.20000,84
43.20833,83
43.21667,83
43.22500,82
43.23333,81
43.24167,81
43.25000,80
43.25833,80
43.26667,79
43.27500,78
43.28333,77
43.29167,76
43.30000,76
43.30833,75
43.31667,74
43.32500,74
43.33333,73
43.34167,72
43.35000,72
43.35833,71
43.36667,70
43.37500,69
43.38333,69
43.39167,69
43.40000,68
43.40833,67
43.41667,67
43.42500,67
43.43333,66
43.44167,66
43.45000,65
43.45833,65
43.46667,64
43.47500,63
43.48333,63
43.49167,62
43.50000,62
43.50833,62
43.51667,61
43.52500,60
43.53333,60
43.54167,59
43.55000,59
43.55833,58
43.56667,58
43.57500,58
43.58333,57
43.59167,57
43.60000,57
43.60833,57
43.61667,56
43.62500,55
43.63333,55
43.64167,54
43.65000,53
43.65833,53
43.66667,52
43.67500,52
43.68333,51
43.69167,51
43.70000,51
43.70833,51
43.71667,51
43.72500,50
43.73333,50
43.74167,49
43.75000,49
43.75833,49
43.76667,48
43.77500,48
43.78333,47
43.79167,47
43.80000,47
43.80833,46
43.81667,46
43.82500,45
43.83333,45
43.84167,45
43.85000,44
43.85833,44
43.86667,44
43.87500,44
43.88333,44
43.89167,43
43.90000,43
43.90833,43
43.91667,42
43.92500,42
43.93333,41
43.94167,40
43.95000,40
43.95833,40
43.96667,39
43.97500,39
43.98333,38
43.99167,38
44.00000,38
44.00833,37
44.01667,37
44.02500,36
44.03333,36
44.04167,35
44.05000,35
44.05833,34
44.06667,35
44.07500,35
44.08333,34
44.09167,34
44.10000,34
44.10833,34
44.11667,34
44.12500,33
44.13333,33
44.14167,33
44.15000,33
44.15833,32
44.16667,32
44.17500,31
44.18333,31
44.19167,31
44.20000,31
44.20833,30
44.21667,30
44.22500,30
44.23333,29
44.24167,29
44.25000,28
44.25833,28
44.26667,28
44.27500,28
44.28333,28
44.29167,27
44.30000,27
44.30833,27
44.31667,27
44.32500,27
44.33333,26
44.34167,26
44.35000,26
44.35833,26
44.36667,26
44.37500,25
44.38333,25
44.39167,25
44.40000,25
44.40833,25
44.41667,24
44.42500,24
44.43333,24
44.44167,24
44.45000,24
44.45833,24
44.46667,23
44.47500,23
44.48333,23
44.49167,23
44.50000,24
44.50833,24
44.51667,24
44.52500,23
44.53333,23
44.54167,23
44.55000,23
44.55833,22
44.56667,22
44.57500,22
44.58333,22
44.59167,21
44.60000,21
44.60833,21
44.61667,21
44.62500,22
44.63333,21
44.64167,21
44.65000,21
44.65833,21
44.66667,20
44.67500,21
44.68333,20
44.69167,20
44.70000,20
44.70833,20
44.71667,20
44.72500,19
44.73333,19
44.74167,19
44.75000,19
44.75833,19
44.76667,19
44.77500,19
44.78333,19
44.79167,19
44.80000,19
44.80833,18
44.81667,18
44.82500,17
44.83333,17
44.84167,17
44.85000,17
44.85833,17
44.86667,17
44.87500,17
44.88333,17
44.89167,16
44.90000,16
44.90833,16
44.91667,16
44.92500,17
44.93333,17
44.94167,17
44.95000,17
44.95833,17
44.96667,17
44.97500,17
44.98333,17
44.99167,17
45.00000,17
45.00833,17
45.01667,17
45.02500,16
45.03333,17
45.04167,17
45.05000,17
45.05833,18
45.06667,18
45.07500,18
45.08333,18
45.09167,17
45.10000,17
45.10833,17
45.11667,17
45.12500,17
45.13333,17
45.14167,17
45.15000,17
45.15833,17
45.16667,17
45.17500,17
45.18333,17
45.19167,17
45.20000,17
45.20833,17
45.21667,18
45.22500,18
45.23333,17
45.24167,17
45.25000,18
45.25833,18
45.26667,18
45.27500,18
45.28333,18
45.29167,18
45.30000,19
45.30833,19
45.31667,19
45.32500,19
45.33333,19
45.34167,19
45.35000,19
45.35833,19
45.36667,19
45.37500,19
45.38333,19
45.39167,19
45.40000,19
45.40833,19
45.41667,19
45.42500,19
45.43333,19
45.44167,19
45.45000,19
45.45833,19
45.46667,19
45.47500,19
45.48333,19
45.49167,20
45.50000,20
45.50833,20
45.51667,20
45.52500,20
45.53333,20
45.54167,20
45.55000,20
45.55833,20
45.56667,20
45.57500,20
45.58333,20
45.59167,20
45.60000,20
45.60833,20
45.61667,19
45.62500,19
45.63333,19
45.64167,19
45.65000,20
45.65833,20
45.66667,20
45.67500,20
45.68333,20
45.69167,20
45.70000,20
45.70833,21
45.71667,21
45.72500,21
45.73333,21
45.74167,21
45.75000,21
45.75833,21
45.76667,21
45.77500,21
45.78333,20
45.79167,20
45.80000,20
45.80833,20
45.81667,20
45.82500,20
45.83333,20
45.84167,20
45.85000,19
45.85833,19
45.86667,19
45.87500,19
45.88333,19
45.89167,19
45.90000,19
45.90833,18
45.91667,18
45.92500,18
45.93333,18
45.94167,18
45.95000,18
45.95833,18
45.96667,18
45.97500,18
45.98333,18
45.99167,18
46.00000,19
46.00833,19
46.01667,18
46.02500,18
46.03333,18
46.04167,17
46.05000,17
46.05833,17
46.06667,17
46.07500,17
46.08333,17
46.09167,17
46.10000,17
46.10833,16
46.11667,16
46.12500,16
46.13333,16
46.14167,15
46.15000,15
46.15833,15
46.16667,15
46.17500,15
46.18333,15
46.19167,15
46.20000,15
46.20833,15
46.21667,14
46.22500,14
46.23333,14
46.24167,13
46.25000,13
46.25833,13
46.26667,13
46.27500,13
46.28333,13
46.29167,12
46.30000,12
46.30833,12
46.31667,12
46.32500,12
46.33333,12
46.34167,12
46.35000,11
46.35833,11
46.36667,11
46.37500,10
46.38333,10
46.39167,10
46.40000,10
46.40833,10
46.41667,10
46.42500,10
46.43333,10
46.44167,10
46.45000,10
46.45833,9
46.46667,9
46.47500,8
46.48333,8
46.49167,8
46.50000,8
46.50833,8
46.51667,8
46.52500,7
46.53333,7
46.54167,7
46.55000,6
46.55833,6
46.56667,5
46.57500,5
46.58333,5
46.59167,5
46.60000,5
46.60833,5
46.61667,5
46.62500,5
46.63333,4
46.64167,3
46.65000,3
46.65833,3
46.66667,3
46.67500,3
46.68333,2
46.69167,2
46.70000,2
46.70833,1
46.71667,2
46.72500,1
46.73333,1
46.74167,1
46.75000,1
46.75833,1
46.76667,1
46.77500,0
46.78333,0
46.79167,-0
46.80000,-0
46.80833,-0
46.81667,-0
46.82500,-0
46.83333,-0
46.84167,-1
46.85000,-1
46.85833,-1
46.86667,-1
46.87500,-1
46.88333,-1
46.89167,-1
46.90000,-2
46.90833,-2
46.91667,-2
46.92500,-2
46.93333,-2
46.94167,-2
46.95000,-2
46.95833,-2
46.96667,-2
46.97500,-2
46.98333,-2
46.99167,-2
47.00000,-2
47.00833,-2
47.01667,-2
47.02500,-3
47.03333,-3
47.04167,-3
47.05000,-3
47.05833,-3
47.06667,-2
47.07500,-2
47.08333,-2
47.09167,-2
47.10000,-2
47.10833,-2
47.11667,-2
47.12500,-2
47.13333,-2
47.14167,-2
47.15000,-2
47.15833,-1
47.16667,-1
47.17500,-1
47.18333,-1
47.19167,-1
47.20000,-1
47.20833,-0
47.21667,0
47.22500,0
47.23333,0
47.24167,0
47.25000,0
47.25833,0
47.26667,1
47.27500,1
47.28333,1
47.29167,1
47.30000,2
47.30833,2
47.31667,2
47.32500,3
47.33333,3
47.34167,4
47.35000,4
47.35833,4
47.36667,4
47.37500,5
47.38333,6
47.39167,6
47.40000,7
47.40833,7
47.41667,8
47.42500,8
47.43333,9
47.44167,9
47.45000,10
47.45833,10
47.46667,10
47.47500,11
47.48333,12
47.49167,12
47.50000,13
47.50833,14
47.51667,15
47.52500,15
47.53333,16
47.54167,16
47.55000,17
47.55833,18
47.56667,18
47.57500,19
47.58333,20
47.59167,21
47.60000,22
47.60833,23
47.61667,24
47.62500,24
47.63333,25
47.64167,26
47.65000,27
47.65833,28
47.66667,28
47.67500,29
47.68333,30
47.69167,31
47.70000,32
47.70833,33
47.71667,34
47.72500,35
47.73333,36
47.74167,37
47.75000,37
47.75833,38
47.76667,39
47.77500,39
47.78333,40
47.79167,41
47.80000,42
47.80833,42
47.81667,43
47.82500,44
47.83333,45
47.84167,46
47.85000,47
47.85833,48
47.86667,49
47.87500,49
47.88333,50
47.89167,51
47.90000,52
47.90833,52
47.91667,53
47.92500,54
47.93333,54
47.94167,55
47.95000,56
47.95833,57
47.96667,57
47.97500,58
47.98333,58
47.99167,59
48.00000,59
48.00833,60
48.01667,61
48.02500,61
48.03333,62
48.04167,62
48.05000,63
48.05833,64
48.06667,64
48.07500,64
48.08333,65
48.09167,65
48.10000,65
48.10833,66
48.11667,67
48.12500,67
48.13333,68
48.14167,69
48.15000,69
48.15833,70
48.16667,70
48.17500,71
48.18333,71
48.19167,72
48.20000,72
48.20833,73
48.21667,73
48.22500,74
48.23333,74
48.24167,75
48.25000,75
48.25833,75
48.26667,75
48.27500,75
48.28333,75
48.29167,75
48.30000,76
48.30833,76
48.31667,77
48.32500,77
48.33333,78
48.34167,78
48.35000,78
48.35833,79
48.36667,79
48.37500,79
48.38333,79
48.39167,79
48.40000,80
48.40833,80
48.41667,80
48.42500,81
48.43333,80
48.44167,80
48.45000,81
48.45833,81
48.46667,81
48.47500,82
48.48333,82
48.49167,82
48.50000,82
48.50833,83
48.51667,83
48.52500,83
48.53333,83
48.54167,83
48.55000,83
48.55833,83
48.56667,84
48.57500,84
48.58333,84
48.59167,84
48.60000,84
48.60833,83
48.61667,83
48.62500,83
48.63333,84
48.64167,84
48.65000,84
48.65833,84
48.66667,84
48.67500,84
48.68333,84
48.69167,84
48.70000,84
48.70833,84
48.71667,84
48.72500,84
48.73333,84
48.74167,84
48.75000,83
48.75833,83
48.76667,84
48.77500,84
48.78333,84
48.79167,84
48.80000,84
48.80833,84
48.81667,84
48.82500,85
48.83333,85
48.84167,85
48.85000,85
48.85833,85
48.86667,86
48.87500,86
48.88333,86
48.89167,85
48.90000,85
48.90833,85
48.91667,85
48.92500,85
48.93333,86
48.94167,86
48.95000,86
48.95833,86
48.96667,87
48.97500,87
48.98333,87
48.99167,87
49.00000,87
49.00833,87
49.01667,87
49.02500,87
49.03333,87
49.04167,87
49.05000,87
49.05833,87
49.06667,87
49.07500,87
49.08333,88
49.09167,88
49.10000,88
49.10833,87
49.11667,88
49.12500,88
49.13333,88
49.14167,88
49.15000,89
49.15833,89
49.16667,88
49.17500,88
49.18333,88
49.19167,88
49.20000,88
49.20833,88
49.21667,88
49.22500,88
49.23333,88
49.24167,88
49.25000,88
49.25833,89
49.26667,89
49.27500,89
49.28333,89
49.29167,89
49.30000,88
49.30833,88
49.31667,88
49.32500,88
49.33333,88
49.34167,88
49.35000,88
49.35833,88
49.36667,88
49.37500,88
49.38333,88
49.39167,88
49.40000,88
49.40833,88
49.41667,88
49.42500,88
49.43333,88
49.44167,87
49.45000,87
49.45833,87
49.46667,87
49.47500,87
49.48333,86
49.49167,86
49.50000,86
49.50833,86
49.51667,85
49.52500,86
49.53333,86
49.54167,86
49.55000,85
49.55833,85
49.56667,85
49.57500,84
49.58333,84
49.59167,84
49.60000,84
49.60833,84
49.61667,84
49.62500,84
49.63333,83
49.64167,83
49.65000,83
49.65833,82
49.66667,82
49.67500,82
49.68333,82
49.69167,82
49.70000,81
49.70833,81
49.71667,81
49.72500,81
49.73333,80
49.74167,80
49.75000,80
49.75833,79
49.76667,79
49.77500,78
49.78333,78
49.79167,78
49.80000,77
49.80833,77
49.81667,76
49.82500,76
49.83333,75
49.84167,75
49.85000,75
49.85833,74
49.86667,74
49.87500,73
49.88333,72
49.89167,71
49.90000,71
49.90833,70
49.91667,69
49.92500,69
49.93333,69
49.94167,68
49.95000,68
49.95833,67
49.96667,67
49.97500,66
49.98333,66
49.99167,65
50.00000,64

