[Header]
Application Name,LabSolutions
Version,5.97 SP1
Data File Name,C:\Users\cremerlab\Desktop\Richa\Sep_2nd_2022_scfa_rt50min_final\Sep 2nd yield expt_922022_001_004.lcd
Output Date,9/2/2022
Output Time,8:27:39 PM

[File Information]
Type,Data File
Generated,9/2/2022 7:37:19 PM
Generated by,System Administrator
Modified,9/2/2022 8:27:39 PM
Modified by,System Administrator

[Sample Information]
Operator Name,System Administrator
Acquired,9/2/2022 7:37:38 PM
Sample Type,0:Unknown
Level,0
Sample Name,090222_B.fragilis_3
Sample ID,001
ISTD Amount1,1
ISTD Amount2,1
ISTD Amount3,1
ISTD Amount4,1
ISTD Amount5,1
ISTD Amount6,1
ISTD Amount7,1
ISTD Amount8,1
ISTD Amount9,1
ISTD Amount10,1
ISTD Amount11,1
ISTD Amount12,1
ISTD Amount13,1
ISTD Amount14,1
ISTD Amount15,1
ISTD Amount16,1
ISTD Amount17,1
ISTD Amount18,1
ISTD Amount19,1
ISTD Amount20,1
ISTD Amount21,1
ISTD Amount22,1
ISTD Amount23,1
ISTD Amount24,1
ISTD Amount25,1
ISTD Amount26,1
ISTD Amount27,1
ISTD Amount28,1
ISTD Amount29,1
ISTD Amount30,1
ISTD Amount31,1
ISTD Amount32,1
Sample Amount,1
Dilution Factor,1
Vial#,3
Injection Volume,20

[Original Files]
Data File,C:\Users\cremerlab\Desktop\Richa\Sep_2nd_2022_scfa_rt50min_final\Sep 2nd yield expt_922022_001_004.lcd
Method File,C:\Users\cremerlab\Desktop\Richa\acetate_excretion.lcm
Batch File,C:\Users\cremerlab\Desktop\Richa\Sep_2nd_2022_scfa_rt50min_final\Sep 2nd yield expt.lcb
Report Format File,c:\LabSolutions\System\DEFAULT.lsr

[File Description]


[Configuration]
Instrument Name,HPLC-PC-Instrument1
Instrument #,1
Line #,1
# of Detectors,2
Detector ID,Detector A,Detector B
Detector Name,Detector A,Detector B
# of Channels,1,1

[Peak Table(Detector A)]
# of Peaks,0

[Peak Table(Detector B)]
# of Peaks,12
Peak#,R.Time,I.Time,F.Time,Area,Height,A/H,Conc.,Mark,ID#,Name,k',Plate #,Plate Ht.,Tailing,Resolution,Sep.Factor,Area Ratio,Height Ratio,Conc. %,Norm Conc.
1,11.015,10.183,12.675,2311805,116441,19.854,0.000,   ,,,0.000,7568,19.821,0.974,0.000,0.000,0,0,0.000,0.000
2,14.327,12.675,15.175,3637343,77285,47.064,0.000, V ,,,0.301,2481,60.448,0.660,3.998,0.000,0,0,0.000,0.000
3,15.754,15.175,23.600,1553077,50294,30.880,0.000,SV ,,,0.430,6840,21.930,1.145,1.492,1.431,0,0,0.000,0.000
4,17.856,17.425,18.392,7512,258,29.086,0.000,T  ,,,0.621,8089,18.544,1.101,2.702,1.444,0,0,0.000,0.000
5,19.116,18.417,19.750,14405,323,44.565,0.000,T  ,,,0.735,3814,39.330,0.000,1.240,1.184,0,0,0.000,0.000
6,20.305,19.750,20.625,21123,627,33.714,0.000,TV ,,,0.843,4056,36.986,0.000,0.946,1.147,0,0,0.000,0.000
7,20.975,20.625,21.183,17686,559,31.653,0.000,TV ,,,0.904,0,0.000,0.000,0.000,1.072,0,0,0.000,0.000
8,21.711,21.183,22.550,41906,795,52.702,0.000,TV ,,,0.971,1015,147.849,0.000,0.000,1.074,0,0,0.000,0.000
9,23.161,22.608,23.567,3341,107,31.275,0.000,T  ,,,1.103,12327,12.169,0.899,0.815,1.136,0,0,0.000,0.000
10,25.081,24.300,26.408,148090,3599,41.149,0.000,   ,,,1.277,9059,16.559,1.157,2.033,1.158,0,0,0.000,0.000
11,29.242,28.367,30.600,146517,2939,49.852,0.000,   ,,,1.655,8619,17.404,1.255,3.596,1.296,0,0,0.000,0.000
12,32.523,31.717,34.292,33295,451,73.771,0.000,   ,,,1.953,1831,81.916,1.526,1.526,1.180,0,0,0.000,0.000

[LC Chromatogram(Detector B-Ch1)]
Interval(msec),500
# of Points,6001
Start Time(min),0.000
End Time(min),50.000
Intensity Units,mV
Intensity Multiplier,0.001
R.Time (min),Intensity
0.00000,-18
0.00833,-18
0.01667,-0
0.02500,-1
0.03333,-2
0.04167,-3
0.05000,-3
0.05833,-4
0.06667,-5
0.07500,-6
0.08333,-7
0.09167,-8
0.10000,-9
0.10833,-9
0.11667,-10
0.12500,-10
0.13333,-11
0.14167,-11
0.15000,-12
0.15833,-13
0.16667,-13
0.17500,-14
0.18333,-14
0.19167,-15
0.20000,-15
0.20833,-16
0.21667,-16
0.22500,-17
0.23333,-17
0.24167,-18
0.25000,-19
0.25833,-19
0.26667,-20
0.27500,-21
0.28333,-22
0.29167,-22
0.30000,-22
0.30833,-23
0.31667,-23
0.32500,-24
0.33333,-25
0.34167,-25
0.35000,-26
0.35833,-26
0.36667,-27
0.37500,-27
0.38333,-27
0.39167,-28
0.40000,-28
0.40833,-28
0.41667,-29
0.42500,-29
0.43333,-29
0.44167,-30
0.45000,-30
0.45833,-31
0.46667,-31
0.47500,-32
0.48333,-32
0.49167,-32
0.50000,-32
0.50833,-32
0.51667,-32
0.52500,-32
0.53333,-32
0.54167,-32
0.55000,-33
0.55833,-33
0.56667,-33
0.57500,-34
0.58333,-34
0.59167,-34
0.60000,-34
0.60833,-34
0.61667,-35
0.62500,-35
0.63333,-35
0.64167,-35
0.65000,-35
0.65833,-35
0.66667,-35
0.67500,-35
0.68333,-35
0.69167,-36
0.70000,-36
0.70833,-37
0.71667,-37
0.72500,-37
0.73333,-37
0.74167,-38
0.75000,-37
0.75833,-38
0.76667,-38
0.77500,-38
0.78333,-38
0.79167,-38
0.80000,-38
0.80833,-38
0.81667,-38
0.82500,-38
0.83333,-38
0.84167,-38
0.85000,-37
0.85833,-37
0.86667,-37
0.87500,-37
0.88333,-37
0.89167,-37
0.90000,-38
0.90833,-38
0.91667,-38
0.92500,-38
0.93333,-39
0.94167,-39
0.95000,-39
0.95833,-38
0.96667,-38
0.97500,-38
0.98333,-38
0.99167,-38
1.00000,-38
1.00833,-38
1.01667,-38
1.02500,-38
1.03333,-38
1.04167,-38
1.05000,-38
1.05833,-37
1.06667,-37
1.07500,-37
1.08333,-37
1.09167,-37
1.10000,-37
1.10833,-37
1.11667,-37
1.12500,-37
1.13333,-37
1.14167,-37
1.15000,-36
1.15833,-36
1.16667,-36
1.17500,-36
1.18333,-36
1.19167,-36
1.20000,-36
1.20833,-36
1.21667,-36
1.22500,-36
1.23333,-36
1.24167,-36
1.25000,-36
1.25833,-37
1.26667,-37
1.27500,-37
1.28333,-37
1.29167,-36
1.30000,-36
1.30833,-35
1.31667,-35
1.32500,-35
1.33333,-34
1.34167,-34
1.35000,-35
1.35833,-35
1.36667,-35
1.37500,-34
1.38333,-35
1.39167,-34
1.40000,-34
1.40833,-34
1.41667,-34
1.42500,-33
1.43333,-34
1.44167,-33
1.45000,-33
1.45833,-33
1.46667,-33
1.47500,-33
1.48333,-32
1.49167,-32
1.50000,-32
1.50833,-32
1.51667,-32
1.52500,-32
1.53333,-32
1.54167,-32
1.55000,-31
1.55833,-31
1.56667,-31
1.57500,-31
1.58333,-31
1.59167,-31
1.60000,-31
1.60833,-31
1.61667,-31
1.62500,-31
1.63333,-30
1.64167,-30
1.65000,-30
1.65833,-30
1.66667,-30
1.67500,-30
1.68333,-29
1.69167,-29
1.70000,-29
1.70833,-29
1.71667,-29
1.72500,-29
1.73333,-29
1.74167,-29
1.75000,-29
1.75833,-29
1.76667,-29
1.77500,-29
1.78333,-29
1.79167,-29
1.80000,-29
1.80833,-29
1.81667,-29
1.82500,-29
1.83333,-28
1.84167,-28
1.85000,-28
1.85833,-27
1.86667,-27
1.87500,-27
1.88333,-27
1.89167,-27
1.90000,-27
1.90833,-28
1.91667,-28
1.92500,-27
1.93333,-27
1.94167,-26
1.95000,-26
1.95833,-26
1.96667,-26
1.97500,-26
1.98333,-26
1.99167,-27
2.00000,-27
2.00833,-27
2.01667,-27
2.02500,-27
2.03333,-27
2.04167,-27
2.05000,-27
2.05833,-27
2.06667,-26
2.07500,-26
2.08333,-26
2.09167,-26
2.10000,-26
2.10833,-26
2.11667,-27
2.12500,-27
2.13333,-26
2.14167,-26
2.15000,-26
2.15833,-26
2.16667,-26
2.17500,-26
2.18333,-26
2.19167,-27
2.20000,-27
2.20833,-27
2.21667,-27
2.22500,-27
2.23333,-26
2.24167,-26
2.25000,-26
2.25833,-26
2.26667,-26
2.27500,-26
2.28333,-26
2.29167,-27
2.30000,-26
2.30833,-26
2.31667,-26
2.32500,-27
2.33333,-27
2.34167,-27
2.35000,-27
2.35833,-27
2.36667,-27
2.37500,-27
2.38333,-27
2.39167,-27
2.40000,-27
2.40833,-27
2.41667,-28
2.42500,-28
2.43333,-29
2.44167,-29
2.45000,-29
2.45833,-29
2.46667,-29
2.47500,-29
2.48333,-29
2.49167,-29
2.50000,-29
2.50833,-29
2.51667,-29
2.52500,-30
2.53333,-30
2.54167,-30
2.55000,-30
2.55833,-30
2.56667,-30
2.57500,-30
2.58333,-30
2.59167,-30
2.60000,-30
2.60833,-30
2.61667,-31
2.62500,-31
2.63333,-31
2.64167,-31
2.65000,-31
2.65833,-31
2.66667,-31
2.67500,-31
2.68333,-31
2.69167,-32
2.70000,-32
2.70833,-32
2.71667,-33
2.72500,-33
2.73333,-33
2.74167,-33
2.75000,-33
2.75833,-33
2.76667,-33
2.77500,-33
2.78333,-33
2.79167,-33
2.80000,-33
2.80833,-34
2.81667,-34
2.82500,-35
2.83333,-35
2.84167,-35
2.85000,-34
2.85833,-34
2.86667,-34
2.87500,-35
2.88333,-35
2.89167,-35
2.90000,-35
2.90833,-36
2.91667,-35
2.92500,-35
2.93333,-35
2.94167,-35
2.95000,-35
2.95833,-36
2.96667,-36
2.97500,-36
2.98333,-36
2.99167,-36
3.00000,-36
3.00833,-36
3.01667,-36
3.02500,-36
3.03333,-36
3.04167,-36
3.05000,-36
3.05833,-36
3.06667,-36
3.07500,-36
3.08333,-36
3.09167,-37
3.10000,-37
3.10833,-37
3.11667,-37
3.12500,-38
3.13333,-38
3.14167,-38
3.15000,-37
3.15833,-37
3.16667,-37
3.17500,-37
3.18333,-38
3.19167,-38
3.20000,-38
3.20833,-38
3.21667,-37
3.22500,-37
3.23333,-37
3.24167,-37
3.25000,-37
3.25833,-38
3.26667,-38
3.27500,-37
3.28333,-37
3.29167,-37
3.30000,-37
3.30833,-37
3.31667,-38
3.32500,-38
3.33333,-38
3.34167,-38
3.35000,-38
3.35833,-38
3.36667,-38
3.37500,-38
3.38333,-38
3.39167,-38
3.40000,-38
3.40833,-38
3.41667,-38
3.42500,-38
3.43333,-38
3.44167,-38
3.45000,-38
3.45833,-38
3.46667,-37
3.47500,-37
3.48333,-37
3.49167,-37
3.50000,-38
3.50833,-38
3.51667,-38
3.52500,-38
3.53333,-37
3.54167,-37
3.55000,-37
3.55833,-37
3.56667,-37
3.57500,-36
3.58333,-36
3.59167,-36
3.60000,-35
3.60833,-35
3.61667,-35
3.62500,-36
3.63333,-36
3.64167,-36
3.65000,-35
3.65833,-35
3.66667,-35
3.67500,-35
3.68333,-35
3.69167,-34
3.70000,-34
3.70833,-34
3.71667,-34
3.72500,-34
3.73333,-33
3.74167,-33
3.75000,-33
3.75833,-33
3.76667,-32
3.77500,-32
3.78333,-32
3.79167,-32
3.80000,-32
3.80833,-32
3.81667,-32
3.82500,-31
3.83333,-31
3.84167,-30
3.85000,-30
3.85833,-30
3.86667,-30
3.87500,-29
3.88333,-29
3.89167,-29
3.90000,-29
3.90833,-29
3.91667,-29
3.92500,-28
3.93333,-28
3.94167,-27
3.95000,-27
3.95833,-26
3.96667,-26
3.97500,-26
3.98333,-25
3.99167,-25
4.00000,-24
4.00833,-24
4.01667,-24
4.02500,-24
4.03333,-23
4.04167,-23
4.05000,-22
4.05833,-21
4.06667,-21
4.07500,-21
4.08333,-21
4.09167,-21
4.10000,-20
4.10833,-20
4.11667,-19
4.12500,-19
4.13333,-18
4.14167,-18
4.15000,-17
4.15833,-17
4.16667,-17
4.17500,-16
4.18333,-16
4.19167,-15
4.20000,-15
4.20833,-14
4.21667,-14
4.22500,-13
4.23333,-12
4.24167,-11
4.25000,-10
4.25833,-10
4.26667,-9
4.27500,-9
4.28333,-8
4.29167,-8
4.30000,-7
4.30833,-6
4.31667,-6
4.32500,-5
4.33333,-5
4.34167,-4
4.35000,-4
4.35833,-3
4.36667,-3
4.37500,-2
4.38333,-2
4.39167,-1
4.40000,-0
4.40833,1
4.41667,1
4.42500,2
4.43333,2
4.44167,3
4.45000,3
4.45833,4
4.46667,5
4.47500,6
4.48333,7
4.49167,7
4.50000,8
4.50833,9
4.51667,10
4.52500,10
4.53333,11
4.54167,12
4.55000,13
4.55833,13
4.56667,14
4.57500,15
4.58333,16
4.59167,16
4.60000,17
4.60833,18
4.61667,19
4.62500,19
4.63333,20
4.64167,20
4.65000,21
4.65833,21
4.66667,22
4.67500,23
4.68333,24
4.69167,24
4.70000,25
4.70833,25
4.71667,26
4.72500,26
4.73333,27
4.74167,28
4.75000,28
4.75833,29
4.76667,30
4.77500,30
4.78333,31
4.79167,31
4.80000,32
4.80833,33
4.81667,33
4.82500,33
4.83333,33
4.84167,34
4.85000,34
4.85833,35
4.86667,35
4.87500,36
4.88333,36
4.89167,36
4.90000,37
4.90833,37
4.91667,38
4.92500,38
4.93333,38
4.94167,38
4.95000,38
4.95833,39
4.96667,39
4.97500,39
4.98333,40
4.99167,40
5.00000,40
5.00833,40
5.01667,40
5.02500,40
5.03333,41
5.04167,41
5.05000,41
5.05833,41
5.06667,41
5.07500,41
5.08333,41
5.09167,41
5.10000,41
5.10833,41
5.11667,41
5.12500,41
5.13333,41
5.14167,41
5.15000,41
5.15833,42
5.16667,42
5.17500,42
5.18333,42
5.19167,42
5.20000,42
5.20833,42
5.21667,41
5.22500,41
5.23333,41
5.24167,41
5.25000,41
5.25833,40
5.26667,40
5.27500,40
5.28333,40
5.29167,39
5.30000,39
5.30833,38
5.31667,38
5.32500,38
5.33333,38
5.34167,38
5.35000,38
5.35833,38
5.36667,38
5.37500,37
5.38333,37
5.39167,36
5.40000,36
5.40833,35
5.41667,35
5.42500,35
5.43333,34
5.44167,34
5.45000,33
5.45833,33
5.46667,33
5.47500,33
5.48333,32
5.49167,32
5.50000,31
5.50833,31
5.51667,30
5.52500,30
5.53333,29
5.54167,29
5.55000,28
5.55833,28
5.56667,28
5.57500,27
5.58333,27
5.59167,27
5.60000,26
5.60833,26
5.61667,25
5.62500,24
5.63333,24
5.64167,23
5.65000,22
5.65833,21
5.66667,21
5.67500,21
5.68333,20
5.69167,20
5.70000,19
5.70833,19
5.71667,18
5.72500,17
5.73333,16
5.74167,16
5.75000,15
5.75833,15
5.76667,14
5.77500,13
5.78333,12
5.79167,12
5.80000,11
5.80833,11
5.81667,10
5.82500,9
5.83333,8
5.84167,8
5.85000,7
5.85833,6
5.86667,6
5.87500,5
5.88333,4
5.89167,3
5.90000,3
5.90833,2
5.91667,1
5.92500,0
5.93333,-1
5.94167,-2
5.95000,-3
5.95833,-4
5.96667,-5
5.97500,-6
5.98333,-7
5.99167,-7
6.00000,-8
6.00833,-8
6.01667,-9
6.02500,-10
6.03333,-10
6.04167,-11
6.05000,-12
6.05833,-12
6.06667,-13
6.07500,-14
6.08333,-15
6.09167,-15
6.10000,-16
6.10833,-17
6.11667,-17
6.12500,-18
6.13333,-19
6.14167,-20
6.15000,-20
6.15833,-20
6.16667,-21
6.17500,-22
6.18333,-23
6.19167,-23
6.20000,-24
6.20833,-25
6.21667,-25
6.22500,-26
6.23333,-26
6.24167,-27
6.25000,-27
6.25833,-28
6.26667,-29
6.27500,-29
6.28333,-30
6.29167,-31
6.30000,-32
6.30833,-32
6.31667,-33
6.32500,-33
6.33333,-34
6.34167,-34
6.35000,-34
6.35833,-35
6.36667,-36
6.37500,-37
6.38333,-37
6.39167,-38
6.40000,-38
6.40833,-39
6.41667,-39
6.42500,-40
6.43333,-40
6.44167,-41
6.45000,-42
6.45833,-43
6.46667,-43
6.47500,-44
6.48333,-44
6.49167,-44
6.50000,-44
6.50833,-45
6.51667,-44
6.52500,-45
6.53333,-45
6.54167,-46
6.55000,-46
6.55833,-46
6.56667,-46
6.57500,-46
6.58333,-47
6.59167,-47
6.60000,-47
6.60833,-48
6.61667,-49
6.62500,-49
6.63333,-49
6.64167,-49
6.65000,-49
6.65833,-50
6.66667,-50
6.67500,-50
6.68333,-51
6.69167,-51
6.70000,-51
6.70833,-51
6.71667,-51
6.72500,-51
6.73333,-52
6.74167,-52
6.75000,-52
6.75833,-53
6.76667,-53
6.77500,-53
6.78333,-53
6.79167,-53
6.80000,-54
6.80833,-54
6.81667,-54
6.82500,-54
6.83333,-54
6.84167,-54
6.85000,-53
6.85833,-53
6.86667,-53
6.87500,-53
6.88333,-54
6.89167,-54
6.90000,-54
6.90833,-55
6.91667,-55
6.92500,-55
6.93333,-55
6.94167,-55
6.95000,-55
6.95833,-55
6.96667,-55
6.97500,-55
6.98333,-55
6.99167,-55
7.00000,-55
7.00833,-55
7.01667,-55
7.02500,-55
7.03333,-55
7.04167,-56
7.05000,-56
7.05833,-56
7.06667,-56
7.07500,-56
7.08333,-56
7.09167,-56
7.10000,-56
7.10833,-56
7.11667,-56
7.12500,-57
7.13333,-57
7.14167,-57
7.15000,-57
7.15833,-57
7.16667,-56
7.17500,-56
7.18333,-56
7.19167,-56
7.20000,-56
7.20833,-55
7.21667,-55
7.22500,-55
7.23333,-55
7.24167,-55
7.25000,-56
7.25833,-56
7.26667,-56
7.27500,-56
7.28333,-56
7.29167,-56
7.30000,-56
7.30833,-56
7.31667,-56
7.32500,-56
7.33333,-57
7.34167,-57
7.35000,-57
7.35833,-57
7.36667,-56
7.37500,-56
7.38333,-57
7.39167,-57
7.40000,-57
7.40833,-56
7.41667,-56
7.42500,-56
7.43333,-56
7.44167,-56
7.45000,-56
7.45833,-57
7.46667,-57
7.47500,-57
7.48333,-57
7.49167,-58
7.50000,-58
7.50833,-58
7.51667,-58
7.52500,-58
7.53333,-57
7.54167,-57
7.55000,-57
7.55833,-57
7.56667,-58
7.57500,-57
7.58333,-57
7.59167,-57
7.60000,-57
7.60833,-57
7.61667,-57
7.62500,-57
7.63333,-57
7.64167,-56
7.65000,-56
7.65833,-56
7.66667,-56
7.67500,-56
7.68333,-57
7.69167,-57
7.70000,-57
7.70833,-57
7.71667,-57
7.72500,-57
7.73333,-57
7.74167,-57
7.75000,-58
7.75833,-58
7.76667,-58
7.77500,-58
7.78333,-58
7.79167,-58
7.80000,-58
7.80833,-58
7.81667,-58
7.82500,-58
7.83333,-58
7.84167,-58
7.85000,-58
7.85833,-58
7.86667,-58
7.87500,-57
7.88333,-57
7.89167,-57
7.90000,-57
7.90833,-57
7.91667,-57
7.92500,-57
7.93333,-57
7.94167,-57
7.95000,-57
7.95833,-57
7.96667,-57
7.97500,-57
7.98333,-57
7.99167,-57
8.00000,-58
8.00833,-57
8.01667,-57
8.02500,-57
8.03333,-57
8.04167,-57
8.05000,-58
8.05833,-58
8.06667,-58
8.07500,-58
8.08333,-58
8.09167,-58
8.10000,-57
8.10833,-57
8.11667,-57
8.12500,-57
8.13333,-58
8.14167,-58
8.15000,-58
8.15833,-58
8.16667,-58
8.17500,-58
8.18333,-58
8.19167,-58
8.20000,-57
8.20833,-57
8.21667,-57
8.22500,-57
8.23333,-57
8.24167,-57
8.25000,-57
8.25833,-57
8.26667,-58
8.27500,-58
8.28333,-58
8.29167,-58
8.30000,-58
8.30833,-58
8.31667,-58
8.32500,-58
8.33333,-58
8.34167,-58
8.35000,-58
8.35833,-58
8.36667,-58
8.37500,-58
8.38333,-58
8.39167,-59
8.40000,-59
8.40833,-59
8.41667,-59
8.42500,-58
8.43333,-58
8.44167,-58
8.45000,-58
8.45833,-58
8.46667,-58
8.47500,-58
8.48333,-58
8.49167,-58
8.50000,-58
8.50833,-58
8.51667,-58
8.52500,-58
8.53333,-58
8.54167,-58
8.55000,-58
8.55833,-58
8.56667,-58
8.57500,-58
8.58333,-58
8.59167,-58
8.60000,-58
8.60833,-58
8.61667,-58
8.62500,-58
8.63333,-58
8.64167,-58
8.65000,-58
8.65833,-58
8.66667,-58
8.67500,-58
8.68333,-58
8.69167,-58
8.70000,-58
8.70833,-59
8.71667,-59
8.72500,-59
8.73333,-59
8.74167,-59
8.75000,-59
8.75833,-58
8.76667,-59
8.77500,-59
8.78333,-59
8.79167,-59
8.80000,-59
8.80833,-59
8.81667,-59
8.82500,-59
8.83333,-59
8.84167,-59
8.85000,-59
8.85833,-59
8.86667,-59
8.87500,-59
8.88333,-59
8.89167,-59
8.90000,-59
8.90833,-60
8.91667,-59
8.92500,-60
8.93333,-60
8.94167,-59
8.95000,-59
8.95833,-59
8.96667,-59
8.97500,-58
8.98333,-59
8.99167,-59
9.00000,-58
9.00833,-59
9.01667,-59
9.02500,-59
9.03333,-59
9.04167,-58
9.05000,-58
9.05833,-59
9.06667,-59
9.07500,-58
9.08333,-58
9.09167,-58
9.10000,-58
9.10833,-59
9.11667,-59
9.12500,-59
9.13333,-58
9.14167,-58
9.15000,-58
9.15833,-58
9.16667,-58
9.17500,-58
9.18333,-58
9.19167,-58
9.20000,-58
9.20833,-58
9.21667,-58
9.22500,-58
9.23333,-58
9.24167,-58
9.25000,-59
9.25833,-59
9.26667,-58
9.27500,-58
9.28333,-58
9.29167,-58
9.30000,-58
9.30833,-58
9.31667,-58
9.32500,-58
9.33333,-58
9.34167,-58
9.35000,-58
9.35833,-58
9.36667,-59
9.37500,-59
9.38333,-58
9.39167,-58
9.40000,-58
9.40833,-58
9.41667,-58
9.42500,-58
9.43333,-58
9.44167,-58
9.45000,-58
9.45833,-58
9.46667,-58
9.47500,-59
9.48333,-58
9.49167,-58
9.50000,-58
9.50833,-58
9.51667,-57
9.52500,-57
9.53333,-57
9.54167,-57
9.55000,-57
9.55833,-57
9.56667,-58
9.57500,-58
9.58333,-58
9.59167,-57
9.60000,-57
9.60833,-57
9.61667,-56
9.62500,-56
9.63333,-56
9.64167,-56
9.65000,-57
9.65833,-57
9.66667,-57
9.67500,-57
9.68333,-57
9.69167,-57
9.70000,-57
9.70833,-57
9.71667,-57
9.72500,-56
9.73333,-56
9.74167,-57
9.75000,-57
9.75833,-57
9.76667,-57
9.77500,-57
9.78333,-57
9.79167,-57
9.80000,-57
9.80833,-57
9.81667,-57
9.82500,-57
9.83333,-56
9.84167,-56
9.85000,-56
9.85833,-55
9.86667,-55
9.87500,-55
9.88333,-55
9.89167,-55
9.90000,-56
9.90833,-56
9.91667,-56
9.92500,-56
9.93333,-56
9.94167,-55
9.95000,-55
9.95833,-54
9.96667,-54
9.97500,-54
9.98333,-54
9.99167,-54
10.00000,-54
10.00833,-54
10.01667,-53
10.02500,-53
10.03333,-53
10.04167,-52
10.05000,-52
10.05833,-52
10.06667,-52
10.07500,-52
10.08333,-51
10.09167,-51
10.10000,-50
10.10833,-49
10.11667,-49
10.12500,-48
10.13333,-47
10.14167,-46
10.15000,-45
10.15833,-44
10.16667,-43
10.17500,-42
10.18333,-41
10.19167,-40
10.20000,-39
10.20833,-37
10.21667,-36
10.22500,-34
10.23333,-32
10.24167,-31
10.25000,-28
10.25833,-26
10.26667,-23
10.27500,-20
10.28333,-16
10.29167,-12
10.30000,-6
10.30833,0
10.31667,8
10.32500,16
10.33333,27
10.34167,39
10.35000,52
10.35833,68
10.36667,85
10.37500,103
10.38333,123
10.39167,144
10.40000,165
10.40833,188
10.41667,209
10.42500,230
10.43333,250
10.44167,266
10.45000,280
10.45833,291
10.46667,297
10.47500,301
10.48333,302
10.49167,301
10.50000,300
10.50833,301
10.51667,306
10.52500,320
10.53333,344
10.54167,385
10.55000,445
10.55833,532
10.56667,650
10.57500,806
10.58333,1004
10.59167,1252
10.60000,1555
10.60833,1920
10.61667,2353
10.62500,2859
10.63333,3445
10.64167,4116
10.65000,4877
10.65833,5734
10.66667,6690
10.67500,7751
10.68333,8920
10.69167,10200
10.70000,11594
10.70833,13105
10.71667,14736
10.72500,16489
10.73333,18364
10.74167,20364
10.75000,22487
10.75833,24735
10.76667,27107
10.77500,29602
10.78333,32220
10.79167,34959
10.80000,37816
10.80833,40790
10.81667,43877
10.82500,47072
10.83333,50372
10.84167,53770
10.85000,57260
10.85833,60835
10.86667,64485
10.87500,68201
10.88333,71969
10.89167,75774
10.90000,79601
10.90833,83427
10.91667,87229
10.92500,90978
10.93333,94642
10.94167,98184
10.95000,101562
10.95833,104728
10.96667,107632
10.97500,110219
10.98333,112432
10.99167,114214
11.00000,115508
11.00833,116261
11.01667,116425
11.02500,115963
11.03333,114849
11.04167,113073
11.05000,110641
11.05833,107577
11.06667,103922
11.07500,99738
11.08333,95097
11.09167,90087
11.10000,84800
11.10833,79334
11.11667,73784
11.12500,68241
11.13333,62788
11.14167,57496
11.15000,52425
11.15833,47622
11.16667,43118
11.17500,38935
11.18333,35084
11.19167,31567
11.20000,28377
11.20833,25501
11.21667,22922
11.22500,20622
11.23333,18577
11.24167,16766
11.25000,15166
11.25833,13756
11.26667,12514
11.27500,11422
11.28333,10461
11.29167,9616
11.30000,8872
11.30833,8216
11.31667,7636
11.32500,7122
11.33333,6666
11.34167,6260
11.35000,5897
11.35833,5571
11.36667,5277
11.37500,5011
11.38333,4769
11.39167,4549
11.40000,4346
11.40833,4160
11.41667,3988
11.42500,3828
11.43333,3679
11.44167,3540
11.45000,3409
11.45833,3286
11.46667,3170
11.47500,3061
11.48333,2957
11.49167,2858
11.50000,2765
11.50833,2675
11.51667,2590
11.52500,2508
11.53333,2431
11.54167,2356
11.55000,2285
11.55833,2217
11.56667,2151
11.57500,2088
11.58333,2028
11.59167,1970
11.60000,1914
11.60833,1861
11.61667,1809
11.62500,1760
11.63333,1713
11.64167,1667
11.65000,1623
11.65833,1580
11.66667,1540
11.67500,1501
11.68333,1463
11.69167,1426
11.70000,1391
11.70833,1358
11.71667,1325
11.72500,1294
11.73333,1264
11.74167,1235
11.75000,1206
11.75833,1179
11.76667,1153
11.77500,1128
11.78333,1104
11.79167,1081
11.80000,1059
11.80833,1038
11.81667,1018
11.82500,998
11.83333,980
11.84167,962
11.85000,944
11.85833,928
11.86667,912
11.87500,896
11.88333,881
11.89167,866
11.90000,853
11.90833,839
11.91667,826
11.92500,814
11.93333,802
11.94167,791
11.95000,780
11.95833,769
11.96667,758
11.97500,748
11.98333,739
11.99167,729
12.00000,721
12.00833,712
12.01667,704
12.02500,697
12.03333,689
12.04167,682
12.05000,675
12.05833,669
12.06667,662
12.07500,656
12.08333,650
12.09167,644
12.10000,639
12.10833,634
12.11667,629
12.12500,625
12.13333,620
12.14167,616
12.15000,612
12.15833,609
12.16667,605
12.17500,602
12.18333,599
12.19167,596
12.20000,594
12.20833,591
12.21667,589
12.22500,587
12.23333,585
12.24167,584
12.25000,582
12.25833,581
12.26667,580
12.27500,578
12.28333,577
12.29167,576
12.30000,575
12.30833,575
12.31667,574
12.32500,573
12.33333,572
12.34167,571
12.35000,571
12.35833,570
12.36667,570
12.37500,569
12.38333,569
12.39167,568
12.40000,567
12.40833,566
12.41667,565
12.42500,564
12.43333,563
12.44167,562
12.45000,561
12.45833,560
12.46667,558
12.47500,557
12.48333,556
12.49167,555
12.50000,553
12.50833,551
12.51667,549
12.52500,547
12.53333,544
12.54167,542
12.55000,539
12.55833,537
12.56667,534
12.57500,532
12.58333,529
12.59167,527
12.60000,525
12.60833,523
12.61667,521
12.62500,519
12.63333,517
12.64167,515
12.65000,514
12.65833,513
12.66667,513
12.67500,513
12.68333,514
12.69167,515
12.70000,518
12.70833,521
12.71667,526
12.72500,532
12.73333,540
12.74167,550
12.75000,562
12.75833,577
12.76667,595
12.77500,615
12.78333,638
12.79167,665
12.80000,695
12.80833,729
12.81667,767
12.82500,810
12.83333,857
12.84167,908
12.85000,965
12.85833,1026
12.86667,1093
12.87500,1166
12.88333,1244
12.89167,1327
12.90000,1417
12.90833,1512
12.91667,1613
12.92500,1720
12.93333,1833
12.94167,1951
12.95000,2076
12.95833,2206
12.96667,2343
12.97500,2486
12.98333,2634
12.99167,2789
13.00000,2950
13.00833,3116
13.01667,3289
13.02500,3468
13.03333,3652
13.04167,3842
13.05000,4037
13.05833,4238
13.06667,4444
13.07500,4656
13.08333,4873
13.09167,5095
13.10000,5323
13.10833,5556
13.11667,5794
13.12500,6037
13.13333,6284
13.14167,6536
13.15000,6792
13.15833,7052
13.16667,7317
13.17500,7586
13.18333,7859
13.19167,8136
13.20000,8416
13.20833,8701
13.21667,8989
13.22500,9280
13.23333,9575
13.24167,9874
13.25000,10176
13.25833,10482
13.26667,10791
13.27500,11103
13.28333,11418
13.29167,11736
13.30000,12058
13.30833,12382
13.31667,12709
13.32500,13040
13.33333,13374
13.34167,13710
13.35000,14049
13.35833,14391
13.36667,14736
13.37500,15084
13.38333,15434
13.39167,15787
13.40000,16144
13.40833,16503
13.41667,16865
13.42500,17230
13.43333,17598
13.44167,17969
13.45000,18343
13.45833,18719
13.46667,19099
13.47500,19482
13.48333,19868
13.49167,20257
13.50000,20648
13.50833,21043
13.51667,21442
13.52500,21843
13.53333,22248
13.54167,22655
13.55000,23066
13.55833,23480
13.56667,23897
13.57500,24318
13.58333,24742
13.59167,25169
13.60000,25600
13.60833,26034
13.61667,26472
13.62500,26914
13.63333,27359
13.64167,27808
13.65000,28260
13.65833,28716
13.66667,29176
13.67500,29639
13.68333,30106
13.69167,30577
13.70000,31051
13.70833,31529
13.71667,32011
13.72500,32497
13.73333,32987
13.74167,33482
13.75000,33981
13.75833,34484
13.76667,34991
13.77500,35502
13.78333,36018
13.79167,36538
13.80000,37062
13.80833,37590
13.81667,38122
13.82500,38659
13.83333,39201
13.84167,39747
13.85000,40297
13.85833,40853
13.86667,41412
13.87500,41977
13.88333,42547
13.89167,43122
13.90000,43701
13.90833,44285
13.91667,44875
13.92500,45469
13.93333,46069
13.94167,46673
13.95000,47284
13.95833,47899
13.96667,48520
13.97500,49146
13.98333,49778
13.99167,50415
14.00000,51057
14.00833,51705
14.01667,52359
14.02500,53019
14.03333,53685
14.04167,54356
14.05000,55034
14.05833,55719
14.06667,56408
14.07500,57105
14.08333,57807
14.09167,58515
14.10000,59231
14.10833,59952
14.11667,60681
14.12500,61416
14.13333,62158
14.14167,62907
14.15000,63663
14.15833,64426
14.16667,65196
14.17500,65974
14.18333,66758
14.19167,67550
14.20000,68346
14.20833,69148
14.21667,69951
14.22500,70754
14.23333,71552
14.24167,72338
14.25000,73106
14.25833,73846
14.26667,74548
14.27500,75200
14.28333,75790
14.29167,76305
14.30000,76732
14.30833,77059
14.31667,77276
14.32500,77371
14.33333,77337
14.34167,77168
14.35000,76859
14.35833,76404
14.36667,75801
14.37500,75049
14.38333,74143
14.39167,73083
14.40000,71866
14.40833,70490
14.41667,68954
14.42500,67256
14.43333,65398
14.44167,63381
14.45000,61212
14.45833,58896
14.46667,56447
14.47500,53879
14.48333,51211
14.49167,48465
14.50000,45665
14.50833,42838
14.51667,40010
14.52500,37209
14.53333,34460
14.54167,31787
14.55000,29213
14.55833,26755
14.56667,24429
14.57500,22245
14.58333,20210
14.59167,18327
14.60000,16597
14.60833,15018
14.61667,13584
14.62500,12288
14.63333,11123
14.64167,10081
14.65000,9150
14.65833,8322
14.66667,7588
14.67500,6937
14.68333,6362
14.69167,5853
14.70000,5405
14.70833,5009
14.71667,4659
14.72500,4349
14.73333,4075
14.74167,3832
14.75000,3615
14.75833,3423
14.76667,3251
14.77500,3096
14.78333,2957
14.79167,2831
14.80000,2717
14.80833,2614
14.81667,2519
14.82500,2432
14.83333,2352
14.84167,2278
14.85000,2209
14.85833,2146
14.86667,2087
14.87500,2031
14.88333,1979
14.89167,1930
14.90000,1885
14.90833,1841
14.91667,1800
14.92500,1762
14.93333,1725
14.94167,1691
14.95000,1658
14.95833,1626
14.96667,1596
14.97500,1568
14.98333,1541
14.99167,1516
15.00000,1491
15.00833,1468
15.01667,1447
15.02500,1426
15.03333,1406
15.04167,1388
15.05000,1370
15.05833,1354
15.06667,1338
15.07500,1324
15.08333,1310
15.09167,1297
15.10000,1285
15.10833,1273
15.11667,1263
15.12500,1254
15.13333,1246
15.14167,1239
15.15000,1233
15.15833,1228
15.16667,1226
15.17500,1225
15.18333,1226
15.19167,1230
15.20000,1237
15.20833,1247
15.21667,1263
15.22500,1284
15.23333,1312
15.24167,1348
15.25000,1393
15.25833,1449
15.26667,1517
15.27500,1600
15.28333,1700
15.29167,1819
15.30000,1960
15.30833,2125
15.31667,2318
15.32500,2542
15.33333,2799
15.34167,3093
15.35000,3428
15.35833,3807
15.36667,4233
15.37500,4709
15.38333,5239
15.39167,5825
15.40000,6469
15.40833,7174
15.41667,7942
15.42500,8773
15.43333,9669
15.44167,10629
15.45000,11653
15.45833,12740
15.46667,13887
15.47500,15093
15.48333,16353
15.49167,17664
15.50000,19021
15.50833,20419
15.51667,21851
15.52500,23312
15.53333,24796
15.54167,26294
15.55000,27799
15.55833,29306
15.56667,30804
15.57500,32288
15.58333,33750
15.59167,35184
15.60000,36581
15.60833,37936
15.61667,39242
15.62500,40495
15.63333,41688
15.64167,42818
15.65000,43879
15.65833,44870
15.66667,45786
15.67500,46624
15.68333,47383
15.69167,48059
15.70000,48653
15.70833,49162
15.71667,49586
15.72500,49925
15.73333,50177
15.74167,50343
15.75000,50423
15.75833,50418
15.76667,50328
15.77500,50155
15.78333,49899
15.79167,49562
15.80000,49145
15.80833,48650
15.81667,48080
15.82500,47438
15.83333,46725
15.84167,45945
15.85000,45101
15.85833,44197
15.86667,43236
15.87500,42222
15.88333,41161
15.89167,40056
15.90000,38914
15.90833,37737
15.91667,36532
15.92500,35304
15.93333,34058
15.94167,32799
15.95000,31531
15.95833,30260
15.96667,28992
15.97500,27730
15.98333,26479
15.99167,25244
16.00000,24029
16.00833,22836
16.01667,21670
16.02500,20533
16.03333,19428
16.04167,18357
16.05000,17323
16.05833,16327
16.06667,15370
16.07500,14452
16.08333,13575
16.09167,12740
16.10000,11947
16.10833,11194
16.11667,10482
16.12500,9810
16.13333,9177
16.14167,8582
16.15000,8024
16.15833,7503
16.16667,7015
16.17500,6561
16.18333,6138
16.19167,5745
16.20000,5381
16.20833,5043
16.21667,4731
16.22500,4443
16.23333,4178
16.24167,3933
16.25000,3709
16.25833,3502
16.26667,3312
16.27500,3138
16.28333,2978
16.29167,2832
16.30000,2697
16.30833,2574
16.31667,2461
16.32500,2358
16.33333,2263
16.34167,2177
16.35000,2097
16.35833,2023
16.36667,1956
16.37500,1894
16.38333,1837
16.39167,1785
16.40000,1736
16.40833,1691
16.41667,1649
16.42500,1611
16.43333,1575
16.44167,1541
16.45000,1510
16.45833,1480
16.46667,1452
16.47500,1426
16.48333,1401
16.49167,1377
16.50000,1354
16.50833,1332
16.51667,1311
16.52500,1291
16.53333,1272
16.54167,1253
16.55000,1234
16.55833,1216
16.56667,1198
16.57500,1181
16.58333,1164
16.59167,1147
16.60000,1131
16.60833,1115
16.61667,1100
16.62500,1085
16.63333,1070
16.64167,1056
16.65000,1041
16.65833,1027
16.66667,1013
16.67500,999
16.68333,986
16.69167,973
16.70000,961
16.70833,949
16.71667,937
16.72500,926
16.73333,915
16.74167,904
16.75000,894
16.75833,884
16.76667,875
16.77500,865
16.78333,857
16.79167,848
16.80000,840
16.80833,832
16.81667,825
16.82500,817
16.83333,811
16.84167,804
16.85000,798
16.85833,792
16.86667,786
16.87500,781
16.88333,775
16.89167,770
16.90000,765
16.90833,761
16.91667,756
16.92500,751
16.93333,747
16.94167,743
16.95000,739
16.95833,735
16.96667,731
16.97500,727
16.98333,723
16.99167,720
17.00000,716
17.00833,712
17.01667,709
17.02500,705
17.03333,702
17.04167,699
17.05000,696
17.05833,692
17.06667,689
17.07500,686
17.08333,684
17.09167,681
17.10000,678
17.10833,674
17.11667,671
17.12500,668
17.13333,665
17.14167,663
17.15000,661
17.15833,659
17.16667,656
17.17500,653
17.18333,650
17.19167,648
17.20000,646
17.20833,643
17.21667,641
17.22500,638
17.23333,635
17.24167,633
17.25000,630
17.25833,627
17.26667,625
17.27500,622
17.28333,619
17.29167,617
17.30000,614
17.30833,612
17.31667,609
17.32500,607
17.33333,604
17.34167,602
17.35000,600
17.35833,598
17.36667,596
17.37500,595
17.38333,594
17.39167,592
17.40000,591
17.40833,591
17.41667,590
17.42500,590
17.43333,590
17.44167,590
17.45000,591
17.45833,593
17.46667,594
17.47500,596
17.48333,598
17.49167,600
17.50000,603
17.50833,606
17.51667,609
17.52500,613
17.53333,616
17.54167,620
17.55000,625
17.55833,630
17.56667,635
17.57500,640
17.58333,645
17.59167,651
17.60000,656
17.60833,662
17.61667,667
17.62500,673
17.63333,679
17.64167,686
17.65000,692
17.65833,698
17.66667,703
17.67500,709
17.68333,714
17.69167,719
17.70000,725
17.70833,730
17.71667,735
17.72500,740
17.73333,746
17.74167,750
17.75000,755
17.75833,759
17.76667,763
17.77500,766
17.78333,770
17.79167,773
17.80000,776
17.80833,778
17.81667,781
17.82500,783
17.83333,784
17.84167,785
17.85000,786
17.85833,786
17.86667,786
17.87500,785
17.88333,784
17.89167,782
17.90000,781
17.90833,779
17.91667,777
17.92500,775
17.93333,772
17.94167,768
17.95000,764
17.95833,760
17.96667,755
17.97500,750
17.98333,744
17.99167,738
18.00000,732
18.00833,726
18.01667,719
18.02500,712
18.03333,706
18.04167,698
18.05000,691
18.05833,683
18.06667,676
18.07500,668
18.08333,660
18.09167,652
18.10000,644
18.10833,636
18.11667,628
18.12500,620
18.13333,613
18.14167,605
18.15000,597
18.15833,589
18.16667,581
18.17500,573
18.18333,565
18.19167,558
18.20000,551
18.20833,544
18.21667,537
18.22500,531
18.23333,524
18.24167,518
18.25000,512
18.25833,506
18.26667,500
18.27500,495
18.28333,490
18.29167,485
18.30000,481
18.30833,477
18.31667,473
18.32500,469
18.33333,466
18.34167,462
18.35000,459
18.35833,457
18.36667,455
18.37500,453
18.38333,451
18.39167,450
18.40000,449
18.40833,449
18.41667,449
18.42500,449
18.43333,449
18.44167,450
18.45000,450
18.45833,451
18.46667,453
18.47500,454
18.48333,456
18.49167,458
18.50000,460
18.50833,462
18.51667,465
18.52500,468
18.53333,471
18.54167,474
18.55000,478
18.55833,481
18.56667,485
18.57500,489
18.58333,493
18.59167,497
18.60000,502
18.60833,507
18.61667,512
18.62500,516
18.63333,522
18.64167,527
18.65000,532
18.65833,536
18.66667,541
18.67500,546
18.68333,551
18.69167,556
18.70000,561
18.70833,566
18.71667,571
18.72500,576
18.73333,581
18.74167,586
18.75000,591
18.75833,596
18.76667,601
18.77500,605
18.78333,610
18.79167,615
18.80000,620
18.80833,625
18.81667,630
18.82500,635
18.83333,640
18.84167,645
18.85000,650
18.85833,655
18.86667,660
18.87500,664
18.88333,669
18.89167,673
18.90000,678
18.90833,681
18.91667,685
18.92500,689
18.93333,693
18.94167,697
18.95000,701
18.95833,704
18.96667,707
18.97500,711
18.98333,714
18.99167,717
19.00000,720
19.00833,723
19.01667,726
19.02500,728
19.03333,730
19.04167,732
19.05000,735
19.05833,736
19.06667,738
19.07500,739
19.08333,740
19.09167,741
19.10000,742
19.10833,743
19.11667,743
19.12500,743
19.13333,742
19.14167,742
19.15000,741
19.15833,740
19.16667,740
19.17500,739
19.18333,737
19.19167,735
19.20000,733
19.20833,731
19.21667,728
19.22500,726
19.23333,723
19.24167,720
19.25000,717
19.25833,713
19.26667,710
19.27500,706
19.28333,702
19.29167,698
19.30000,694
19.30833,690
19.31667,686
19.32500,681
19.33333,677
19.34167,673
19.35000,668
19.35833,663
19.36667,657
19.37500,652
19.38333,646
19.39167,641
19.40000,635
19.40833,629
19.41667,624
19.42500,618
19.43333,613
19.44167,607
19.45000,601
19.45833,596
19.46667,589
19.47500,583
19.48333,578
19.49167,572
19.50000,566
19.50833,561
19.51667,555
19.52500,550
19.53333,545
19.54167,539
19.55000,534
19.55833,528
19.56667,523
19.57500,518
19.58333,512
19.59167,507
19.60000,501
19.60833,496
19.61667,491
19.62500,487
19.63333,482
19.64167,478
19.65000,474
19.65833,470
19.66667,466
19.67500,463
19.68333,459
19.69167,456
19.70000,454
19.70833,451
19.71667,448
19.72500,446
19.73333,444
19.74167,443
19.75000,442
19.75833,441
19.76667,440
19.77500,440
19.78333,440
19.79167,441
19.80000,442
19.80833,444
19.81667,447
19.82500,450
19.83333,453
19.84167,457
19.85000,462
19.85833,467
19.86667,473
19.87500,479
19.88333,485
19.89167,493
19.90000,501
19.90833,509
19.91667,518
19.92500,528
19.93333,538
19.94167,549
19.95000,561
19.95833,573
19.96667,585
19.97500,598
19.98333,611
19.99167,624
20.00000,638
20.00833,653
20.01667,667
20.02500,682
20.03333,696
20.04167,711
20.05000,725
20.05833,740
20.06667,755
20.07500,769
20.08333,784
20.09167,798
20.10000,811
20.10833,825
20.11667,838
20.12500,851
20.13333,864
20.14167,876
20.15000,888
20.15833,900
20.16667,910
20.17500,921
20.18333,930
20.19167,939
20.20000,947
20.20833,955
20.21667,962
20.22500,968
20.23333,974
20.24167,980
20.25000,984
20.25833,988
20.26667,991
20.27500,994
20.28333,995
20.29167,996
20.30000,997
20.30833,997
20.31667,996
20.32500,995
20.33333,993
20.34167,990
20.35000,988
20.35833,984
20.36667,980
20.37500,975
20.38333,971
20.39167,965
20.40000,959
20.40833,953
20.41667,947
20.42500,940
20.43333,933
20.44167,926
20.45000,919
20.45833,912
20.46667,905
20.47500,898
20.48333,891
20.49167,883
20.50000,876
20.50833,870
20.51667,864
20.52500,857
20.53333,851
20.54167,846
20.55000,841
20.55833,836
20.56667,832
20.57500,828
20.58333,824
20.59167,821
20.60000,818
20.60833,816
20.61667,814
20.62500,813
20.63333,811
20.64167,811
20.65000,811
20.65833,811
20.66667,812
20.67500,813
20.68333,815
20.69167,816
20.70000,818
20.70833,820
20.71667,823
20.72500,825
20.73333,828
20.74167,831
20.75000,834
20.75833,837
20.76667,841
20.77500,844
20.78333,847
20.79167,850
20.80000,854
20.80833,857
20.81667,860
20.82500,864
20.83333,867
20.84167,870
20.85000,872
20.85833,875
20.86667,878
20.87500,881
20.88333,884
20.89167,886
20.90000,889
20.90833,891
20.91667,893
20.92500,895
20.93333,896
20.94167,898
20.95000,899
20.95833,900
20.96667,901
20.97500,902
20.98333,902
20.99167,903
21.00000,903
21.00833,903
21.01667,904
21.02500,904
21.03333,903
21.04167,903
21.05000,903
21.05833,903
21.06667,904
21.07500,904
21.08333,904
21.09167,904
21.10000,904
21.10833,904
21.11667,904
21.12500,905
21.13333,905
21.14167,906
21.15000,907
21.15833,908
21.16667,910
21.17500,911
21.18333,913
21.19167,914
21.20000,917
21.20833,919
21.21667,921
21.22500,923
21.23333,926
21.24167,928
21.25000,931
21.25833,934
21.26667,937
21.27500,940
21.28333,942
21.29167,945
21.30000,948
21.30833,950
21.31667,953
21.32500,955
21.33333,957
21.34167,960
21.35000,963
21.35833,965
21.36667,967
21.37500,969
21.38333,971
21.39167,974
21.40000,977
21.40833,980
21.41667,983
21.42500,985
21.43333,988
21.44167,991
21.45000,994
21.45833,997
21.46667,1000
21.47500,1003
21.48333,1007
21.49167,1010
21.50000,1015
21.50833,1019
21.51667,1023
21.52500,1028
21.53333,1032
21.54167,1037
21.55000,1042
21.55833,1046
21.56667,1051
21.57500,1056
21.58333,1061
21.59167,1066
21.60000,1071
21.60833,1076
21.61667,1080
21.62500,1084
21.63333,1088
21.64167,1092
21.65000,1095
21.65833,1098
21.66667,1101
21.67500,1103
21.68333,1105
21.69167,1106
21.70000,1107
21.70833,1107
21.71667,1107
21.72500,1107
21.73333,1106
21.74167,1105
21.75000,1104
21.75833,1102
21.76667,1099
21.77500,1097
21.78333,1094
21.79167,1090
21.80000,1086
21.80833,1082
21.81667,1077
21.82500,1072
21.83333,1067
21.84167,1061
21.85000,1056
21.85833,1050
21.86667,1044
21.87500,1037
21.88333,1031
21.89167,1025
21.90000,1018
21.90833,1011
21.91667,1003
21.92500,996
21.93333,988
21.94167,980
21.95000,972
21.95833,964
21.96667,956
21.97500,947
21.98333,938
21.99167,929
22.00000,920
22.00833,910
22.01667,899
22.02500,888
22.03333,878
22.04167,866
22.05000,854
22.05833,842
22.06667,829
22.07500,817
22.08333,804
22.09167,790
22.10000,777
22.10833,763
22.11667,749
22.12500,734
22.13333,719
22.14167,705
22.15000,690
22.15833,675
22.16667,659
22.17500,644
22.18333,629
22.19167,614
22.20000,599
22.20833,585
22.21667,570
22.22500,556
22.23333,542
22.24167,528
22.25000,514
22.25833,501
22.26667,488
22.27500,475
22.28333,463
22.29167,451
22.30000,440
22.30833,429
22.31667,419
22.32500,409
22.33333,399
22.34167,390
22.35000,381
22.35833,372
22.36667,364
22.37500,357
22.38333,349
22.39167,342
22.40000,336
22.40833,330
22.41667,324
22.42500,319
22.43333,315
22.44167,310
22.45000,306
22.45833,302
22.46667,299
22.47500,295
22.48333,292
22.49167,289
22.50000,286
22.50833,284
22.51667,282
22.52500,281
22.53333,279
22.54167,278
22.55000,278
22.55833,277
22.56667,277
22.57500,276
22.58333,276
22.59167,276
22.60000,276
22.60833,277
22.61667,278
22.62500,279
22.63333,280
22.64167,281
22.65000,282
22.65833,284
22.66667,286
22.67500,288
22.68333,290
22.69167,292
22.70000,294
22.70833,296
22.71667,299
22.72500,302
22.73333,305
22.74167,308
22.75000,311
22.75833,314
22.76667,317
22.77500,320
22.78333,323
22.79167,327
22.80000,330
22.80833,334
22.81667,338
22.82500,342
22.83333,345
22.84167,349
22.85000,353
22.85833,356
22.86667,359
22.87500,363
22.88333,367
22.89167,371
22.90000,374
22.90833,377
22.91667,381
22.92500,384
22.93333,387
22.94167,391
22.95000,394
22.95833,397
22.96667,399
22.97500,402
22.98333,404
22.99167,407
23.00000,410
23.00833,412
23.01667,415
23.02500,417
23.03333,420
23.04167,422
23.05000,424
23.05833,426
23.06667,428
23.07500,429
23.08333,431
23.09167,432
23.10000,433
23.10833,434
23.11667,435
23.12500,436
23.13333,437
23.14167,437
23.15000,438
23.15833,438
23.16667,438
23.17500,438
23.18333,438
23.19167,438
23.20000,437
23.20833,437
23.21667,436
23.22500,435
23.23333,434
23.24167,433
23.25000,431
23.25833,430
23.26667,428
23.27500,426
23.28333,425
23.29167,423
23.30000,422
23.30833,420
23.31667,418
23.32500,416
23.33333,415
23.34167,413
23.35000,411
23.35833,409
23.36667,408
23.37500,405
23.38333,403
23.39167,401
23.40000,399
23.40833,397
23.41667,395
23.42500,393
23.43333,392
23.44167,390
23.45000,389
23.45833,387
23.46667,385
23.47500,384
23.48333,382
23.49167,381
23.50000,380
23.50833,379
23.51667,378
23.52500,377
23.53333,376
23.54167,374
23.55000,373
23.55833,372
23.56667,371
23.57500,370
23.58333,370
23.59167,370
23.60000,370
23.60833,369
23.61667,369
23.62500,368
23.63333,368
23.64167,367
23.65000,366
23.65833,365
23.66667,364
23.67500,364
23.68333,363
23.69167,362
23.70000,362
23.70833,362
23.71667,362
23.72500,361
23.73333,360
23.74167,360
23.75000,360
23.75833,359
23.76667,359
23.77500,358
23.78333,358
23.79167,357
23.80000,357
23.80833,357
23.81667,356
23.82500,356
23.83333,355
23.84167,354
23.85000,353
23.85833,353
23.86667,352
23.87500,351
23.88333,351
23.89167,350
23.90000,350
23.90833,349
23.91667,348
23.92500,348
23.93333,347
23.94167,346
23.95000,344
23.95833,343
23.96667,342
23.97500,342
23.98333,341
23.99167,340
24.00000,340
24.00833,339
24.01667,338
24.02500,337
24.03333,336
24.04167,335
24.05000,334
24.05833,334
24.06667,333
24.07500,333
24.08333,332
24.09167,331
24.10000,331
24.10833,330
24.11667,330
24.12500,329
24.13333,329
24.14167,328
24.15000,327
24.15833,327
24.16667,326
24.17500,325
24.18333,325
24.19167,324
24.20000,324
24.20833,324
24.21667,324
24.22500,323
24.23333,323
24.24167,323
24.25000,323
24.25833,323
24.26667,323
24.27500,324
24.28333,324
24.29167,324
24.30000,325
24.30833,326
24.31667,327
24.32500,328
24.33333,329
24.34167,331
24.35000,333
24.35833,336
24.36667,339
24.37500,343
24.38333,347
24.39167,351
24.40000,357
24.40833,363
24.41667,369
24.42500,377
24.43333,386
24.44167,395
24.45000,406
24.45833,419
24.46667,432
24.47500,446
24.48333,462
24.49167,480
24.50000,500
24.50833,522
24.51667,545
24.52500,571
24.53333,598
24.54167,627
24.55000,658
24.55833,691
24.56667,727
24.57500,765
24.58333,805
24.59167,848
24.60000,893
24.60833,941
24.61667,991
24.62500,1044
24.63333,1098
24.64167,1155
24.65000,1214
24.65833,1275
24.66667,1338
24.67500,1403
24.68333,1469
24.69167,1538
24.70000,1607
24.70833,1678
24.71667,1750
24.72500,1823
24.73333,1897
24.74167,1970
24.75000,2044
24.75833,2119
24.76667,2194
24.77500,2269
24.78333,2343
24.79167,2417
24.80000,2490
24.80833,2562
24.81667,2633
24.82500,2703
24.83333,2771
24.84167,2837
24.85000,2902
24.85833,2966
24.86667,3027
24.87500,3087
24.88333,3145
24.89167,3201
24.90000,3254
24.90833,3306
24.91667,3355
24.92500,3402
24.93333,3447
24.94167,3490
24.95000,3531
24.95833,3569
24.96667,3604
24.97500,3638
24.98333,3668
24.99167,3697
25.00000,3723
25.00833,3747
25.01667,3768
25.02500,3787
25.03333,3804
25.04167,3817
25.05000,3828
25.05833,3837
25.06667,3843
25.07500,3846
25.08333,3847
25.09167,3844
25.10000,3839
25.10833,3831
25.11667,3820
25.12500,3805
25.13333,3788
25.14167,3767
25.15000,3744
25.15833,3718
25.16667,3688
25.17500,3656
25.18333,3621
25.19167,3583
25.20000,3541
25.20833,3497
25.21667,3451
25.22500,3401
25.23333,3349
25.24167,3295
25.25000,3238
25.25833,3178
25.26667,3117
25.27500,3054
25.28333,2989
25.29167,2923
25.30000,2856
25.30833,2787
25.31667,2717
25.32500,2646
25.33333,2575
25.34167,2503
25.35000,2431
25.35833,2358
25.36667,2286
25.37500,2214
25.38333,2142
25.39167,2071
25.40000,2001
25.40833,1931
25.41667,1863
25.42500,1796
25.43333,1730
25.44167,1666
25.45000,1603
25.45833,1542
25.46667,1482
25.47500,1423
25.48333,1367
25.49167,1313
25.50000,1260
25.50833,1209
25.51667,1161
25.52500,1114
25.53333,1069
25.54167,1026
25.55000,985
25.55833,946
25.56667,908
25.57500,873
25.58333,839
25.59167,807
25.60000,776
25.60833,747
25.61667,719
25.62500,693
25.63333,669
25.64167,645
25.65000,624
25.65833,603
25.66667,584
25.67500,566
25.68333,549
25.69167,532
25.70000,517
25.70833,503
25.71667,490
25.72500,478
25.73333,466
25.74167,455
25.75000,444
25.75833,434
25.76667,425
25.77500,416
25.78333,408
25.79167,400
25.80000,392
25.80833,386
25.81667,379
25.82500,373
25.83333,366
25.84167,360
25.85000,354
25.85833,347
25.86667,342
25.87500,336
25.88333,331
25.89167,325
25.90000,320
25.90833,315
25.91667,311
25.92500,306
25.93333,302
25.94167,297
25.95000,292
25.95833,287
25.96667,282
25.97500,277
25.98333,273
25.99167,269
26.00000,264
26.00833,260
26.01667,255
26.02500,251
26.03333,247
26.04167,242
26.05000,238
26.05833,233
26.06667,229
26.07500,225
26.08333,221
26.09167,217
26.10000,213
26.10833,209
26.11667,205
26.12500,201
26.13333,197
26.14167,194
26.15000,190
26.15833,186
26.16667,183
26.17500,179
26.18333,176
26.19167,172
26.20000,169
26.20833,165
26.21667,162
26.22500,159
26.23333,156
26.24167,154
26.25000,151
26.25833,149
26.26667,147
26.27500,144
26.28333,142
26.29167,140
26.30000,138
26.30833,136
26.31667,134
26.32500,132
26.33333,129
26.34167,127
26.35000,126
26.35833,124
26.36667,123
26.37500,122
26.38333,120
26.39167,119
26.40000,118
26.40833,117
26.41667,116
26.42500,115
26.43333,115
26.44167,114
26.45000,113
26.45833,113
26.46667,112
26.47500,111
26.48333,111
26.49167,110
26.50000,110
26.50833,109
26.51667,109
26.52500,108
26.53333,108
26.54167,108
26.55000,108
26.55833,108
26.56667,108
26.57500,107
26.58333,107
26.59167,107
26.60000,107
26.60833,107
26.61667,107
26.62500,107
26.63333,107
26.64167,107
26.65000,107
26.65833,108
26.66667,108
26.67500,108
26.68333,108
26.69167,108
26.70000,107
26.70833,107
26.71667,107
26.72500,107
26.73333,107
26.74167,107
26.75000,107
26.75833,107
26.76667,107
26.77500,107
26.78333,107
26.79167,108
26.80000,108
26.80833,108
26.81667,107
26.82500,108
26.83333,108
26.84167,108
26.85000,107
26.85833,107
26.86667,107
26.87500,107
26.88333,108
26.89167,108
26.90000,108
26.90833,108
26.91667,108
26.92500,108
26.93333,107
26.94167,107
26.95000,108
26.95833,108
26.96667,108
26.97500,108
26.98333,109
26.99167,109
27.00000,109
27.00833,109
27.01667,109
27.02500,109
27.03333,109
27.04167,109
27.05000,109
27.05833,109
27.06667,109
27.07500,109
27.08333,109
27.09167,109
27.10000,109
27.10833,109
27.11667,109
27.12500,109
27.13333,109
27.14167,109
27.15000,109
27.15833,109
27.16667,109
27.17500,109
27.18333,109
27.19167,109
27.20000,110
27.20833,110
27.21667,109
27.22500,110
27.23333,110
27.24167,110
27.25000,110
27.25833,110
27.26667,109
27.27500,109
27.28333,109
27.29167,110
27.30000,110
27.30833,110
27.31667,110
27.32500,110
27.33333,110
27.34167,110
27.35000,110
27.35833,110
27.36667,110
27.37500,110
27.38333,110
27.39167,110
27.40000,110
27.40833,110
27.41667,109
27.42500,109
27.43333,109
27.44167,110
27.45000,110
27.45833,110
27.46667,110
27.47500,109
27.48333,109
27.49167,109
27.50000,108
27.50833,108
27.51667,108
27.52500,108
27.53333,107
27.54167,107
27.55000,106
27.55833,106
27.56667,106
27.57500,106
27.58333,106
27.59167,106
27.60000,106
27.60833,105
27.61667,105
27.62500,105
27.63333,105
27.64167,105
27.65000,104
27.65833,103
27.66667,103
27.67500,102
27.68333,102
27.69167,101
27.70000,101
27.70833,100
27.71667,100
27.72500,100
27.73333,100
27.74167,99
27.75000,99
27.75833,99
27.76667,98
27.77500,98
27.78333,97
27.79167,97
27.80000,96
27.80833,95
27.81667,95
27.82500,94
27.83333,94
27.84167,93
27.85000,92
27.85833,92
27.86667,91
27.87500,91
27.88333,91
27.89167,91
27.90000,91
27.90833,90
27.91667,90
27.92500,90
27.93333,90
27.94167,89
27.95000,89
27.95833,89
27.96667,89
27.97500,89
27.98333,89
27.99167,89
28.00000,89
28.00833,88
28.01667,88
28.02500,88
28.03333,88
28.04167,88
28.05000,88
28.05833,88
28.06667,88
28.07500,89
28.08333,89
28.09167,89
28.10000,89
28.10833,89
28.11667,90
28.12500,90
28.13333,90
28.14167,90
28.15000,90
28.15833,90
28.16667,89
28.17500,89
28.18333,89
28.19167,89
28.20000,90
28.20833,90
28.21667,90
28.22500,90
28.23333,90
28.24167,90
28.25000,90
28.25833,90
28.26667,90
28.27500,90
28.28333,91
28.29167,91
28.30000,91
28.30833,92
28.31667,92
28.32500,92
28.33333,92
28.34167,93
28.35000,93
28.35833,94
28.36667,95
28.37500,96
28.38333,96
28.39167,97
28.40000,98
28.40833,100
28.41667,102
28.42500,104
28.43333,106
28.44167,108
28.45000,111
28.45833,115
28.46667,118
28.47500,122
28.48333,127
28.49167,132
28.50000,138
28.50833,144
28.51667,151
28.52500,159
28.53333,167
28.54167,176
28.55000,185
28.55833,195
28.56667,207
28.57500,220
28.58333,234
28.59167,248
28.60000,264
28.60833,282
28.61667,300
28.62500,319
28.63333,340
28.64167,362
28.65000,385
28.65833,409
28.66667,435
28.67500,463
28.68333,492
28.69167,522
28.70000,554
28.70833,587
28.71667,622
28.72500,658
28.73333,696
28.74167,735
28.75000,776
28.75833,818
28.76667,861
28.77500,905
28.78333,951
28.79167,998
28.80000,1046
28.80833,1094
28.81667,1145
28.82500,1196
28.83333,1247
28.84167,1300
28.85000,1353
28.85833,1406
28.86667,1460
28.87500,1514
28.88333,1568
28.89167,1622
28.90000,1675
28.90833,1729
28.91667,1782
28.92500,1835
28.93333,1887
28.94167,1938
28.95000,1989
28.95833,2039
28.96667,2088
28.97500,2136
28.98333,2183
28.99167,2228
29.00000,2273
29.00833,2317
29.01667,2359
29.02500,2400
29.03333,2439
29.04167,2476
29.05000,2513
29.05833,2547
29.06667,2580
29.07500,2612
29.08333,2641
29.09167,2669
29.10000,2696
29.10833,2720
29.11667,2743
29.12500,2764
29.13333,2784
29.14167,2803
29.15000,2819
29.15833,2834
29.16667,2848
29.17500,2860
29.18333,2871
29.19167,2880
29.20000,2888
29.20833,2894
29.21667,2898
29.22500,2902
29.23333,2904
29.24167,2904
29.25000,2904
29.25833,2901
29.26667,2898
29.27500,2893
29.28333,2886
29.29167,2877
29.30000,2867
29.30833,2856
29.31667,2844
29.32500,2830
29.33333,2815
29.34167,2798
29.35000,2780
29.35833,2760
29.36667,2739
29.37500,2717
29.38333,2693
29.39167,2667
29.40000,2640
29.40833,2611
29.41667,2582
29.42500,2551
29.43333,2518
29.44167,2484
29.45000,2449
29.45833,2412
29.46667,2374
29.47500,2335
29.48333,2295
29.49167,2254
29.50000,2212
29.50833,2169
29.51667,2125
29.52500,2081
29.53333,2035
29.54167,1989
29.55000,1942
29.55833,1895
29.56667,1848
29.57500,1800
29.58333,1753
29.59167,1704
29.60000,1656
29.60833,1607
29.61667,1558
29.62500,1510
29.63333,1462
29.64167,1415
29.65000,1368
29.65833,1321
29.66667,1275
29.67500,1230
29.68333,1185
29.69167,1141
29.70000,1097
29.70833,1054
29.71667,1013
29.72500,972
29.73333,933
29.74167,894
29.75000,857
29.75833,820
29.76667,785
29.77500,751
29.78333,717
29.79167,685
29.80000,654
29.80833,623
29.81667,594
29.82500,567
29.83333,540
29.84167,515
29.85000,490
29.85833,466
29.86667,444
29.87500,422
29.88333,402
29.89167,382
29.90000,363
29.90833,344
29.91667,327
29.92500,310
29.93333,295
29.94167,279
29.95000,264
29.95833,250
29.96667,237
29.97500,225
29.98333,213
29.99167,202
30.00000,191
30.00833,180
30.01667,170
30.02500,160
30.03333,151
30.04167,142
30.05000,133
30.05833,124
30.06667,116
30.07500,108
30.08333,101
30.09167,93
30.10000,85
30.10833,78
30.11667,71
30.12500,65
30.13333,58
30.14167,51
30.15000,45
30.15833,39
30.16667,32
30.17500,26
30.18333,19
30.19167,13
30.20000,6
30.20833,0
30.21667,-7
30.22500,-13
30.23333,-20
30.24167,-26
30.25000,-33
30.25833,-39
30.26667,-46
30.27500,-52
30.28333,-58
30.29167,-64
30.30000,-70
30.30833,-76
30.31667,-82
30.32500,-88
30.33333,-94
30.34167,-100
30.35000,-106
30.35833,-112
30.36667,-118
30.37500,-124
30.38333,-130
30.39167,-135
30.40000,-141
30.40833,-147
30.41667,-152
30.42500,-158
30.43333,-164
30.44167,-169
30.45000,-175
30.45833,-180
30.46667,-184
30.47500,-189
30.48333,-194
30.49167,-198
30.50000,-202
30.50833,-206
30.51667,-209
30.52500,-213
30.53333,-216
30.54167,-220
30.55000,-223
30.55833,-225
30.56667,-228
30.57500,-230
30.58333,-232
30.59167,-234
30.60000,-236
30.60833,-237
30.61667,-238
30.62500,-239
30.63333,-240
30.64167,-240
30.65000,-241
30.65833,-241
30.66667,-241
30.67500,-240
30.68333,-240
30.69167,-239
30.70000,-237
30.70833,-236
30.71667,-234
30.72500,-232
30.73333,-230
30.74167,-227
30.75000,-224
30.75833,-221
30.76667,-218
30.77500,-214
30.78333,-210
30.79167,-206
30.80000,-201
30.80833,-197
30.81667,-192
30.82500,-187
30.83333,-182
30.84167,-177
30.85000,-171
30.85833,-166
30.86667,-161
30.87500,-155
30.88333,-149
30.89167,-143
30.90000,-136
30.90833,-130
30.91667,-124
30.92500,-118
30.93333,-112
30.94167,-105
30.95000,-98
30.95833,-91
30.96667,-84
30.97500,-77
30.98333,-70
30.99167,-63
31.00000,-56
31.00833,-49
31.01667,-42
31.02500,-36
31.03333,-29
31.04167,-22
31.05000,-16
31.05833,-9
31.06667,-2
31.07500,4
31.08333,11
31.09167,17
31.10000,23
31.10833,29
31.11667,35
31.12500,41
31.13333,46
31.14167,52
31.15000,57
31.15833,62
31.16667,67
31.17500,72
31.18333,76
31.19167,81
31.20000,85
31.20833,90
31.21667,94
31.22500,98
31.23333,101
31.24167,104
31.25000,108
31.25833,111
31.26667,115
31.27500,118
31.28333,120
31.29167,123
31.30000,126
31.30833,128
31.31667,129
31.32500,131
31.33333,132
31.34167,133
31.35000,134
31.35833,136
31.36667,137
31.37500,139
31.38333,140
31.39167,141
31.40000,142
31.40833,142
31.41667,143
31.42500,144
31.43333,144
31.44167,144
31.45000,144
31.45833,144
31.46667,143
31.47500,143
31.48333,143
31.49167,143
31.50000,143
31.50833,143
31.51667,142
31.52500,141
31.53333,140
31.54167,140
31.55000,139
31.55833,139
31.56667,139
31.57500,139
31.58333,138
31.59167,138
31.60000,137
31.60833,137
31.61667,136
31.62500,136
31.63333,136
31.64167,136
31.65000,136
31.65833,136
31.66667,136
31.67500,136
31.68333,136
31.69167,137
31.70000,137
31.70833,138
31.71667,139
31.72500,140
31.73333,141
31.74167,143
31.75000,145
31.75833,146
31.76667,148
31.77500,150
31.78333,152
31.79167,155
31.80000,157
31.80833,160
31.81667,163
31.82500,167
31.83333,170
31.84167,173
31.85000,177
31.85833,180
31.86667,184
31.87500,188
31.88333,193
31.89167,198
31.90000,203
31.90833,209
31.91667,214
31.92500,220
31.93333,226
31.94167,232
31.95000,237
31.95833,243
31.96667,249
31.97500,256
31.98333,262
31.99167,269
32.00000,276
32.00833,283
32.01667,290
32.02500,297
32.03333,303
32.04167,310
32.05000,317
32.05833,324
32.06667,331
32.07500,338
32.08333,344
32.09167,351
32.10000,358
32.10833,365
32.11667,372
32.12500,379
32.13333,386
32.14167,392
32.15000,399
32.15833,405
32.16667,412
32.17500,418
32.18333,424
32.19167,430
32.20000,435
32.20833,441
32.21667,446
32.22500,451
32.23333,457
32.24167,462
32.25000,468
32.25833,473
32.26667,478
32.27500,483
32.28333,488
32.29167,492
32.30000,496
32.30833,500
32.31667,505
32.32500,508
32.33333,512
32.34167,516
32.35000,519
32.35833,523
32.36667,526
32.37500,530
32.38333,532
32.39167,535
32.40000,537
32.40833,540
32.41667,543
32.42500,545
32.43333,547
32.44167,549
32.45000,551
32.45833,552
32.46667,554
32.47500,555
32.48333,557
32.49167,557
32.50000,558
32.50833,559
32.51667,559
32.52500,559
32.53333,559
32.54167,558
32.55000,558
32.55833,557
32.56667,556
32.57500,556
32.58333,555
32.59167,554
32.60000,552
32.60833,550
32.61667,549
32.62500,547
32.63333,545
32.64167,542
32.65000,540
32.65833,537
32.66667,533
32.67500,530
32.68333,527
32.69167,523
32.70000,519
32.70833,516
32.71667,513
32.72500,509
32.73333,506
32.74167,502
32.75000,498
32.75833,494
32.76667,490
32.77500,487
32.78333,483
32.79167,479
32.80000,474
32.80833,470
32.81667,466
32.82500,462
32.83333,458
32.84167,453
32.85000,449
32.85833,445
32.86667,442
32.87500,438
32.88333,435
32.89167,431
32.90000,427
32.90833,424
32.91667,420
32.92500,417
32.93333,414
32.94167,410
32.95000,407
32.95833,405
32.96667,402
32.97500,399
32.98333,396
32.99167,393
33.00000,391
33.00833,388
33.01667,386
33.02500,383
33.03333,381
33.04167,378
33.05000,376
33.05833,374
33.06667,372
33.07500,370
33.08333,368
33.09167,367
33.10000,366
33.10833,365
33.11667,363
33.12500,361
33.13333,359
33.14167,358
33.15000,356
33.15833,354
33.16667,353
33.17500,352
33.18333,350
33.19167,348
33.20000,347
33.20833,345
33.21667,343
33.22500,341
33.23333,340
33.24167,338
33.25000,336
33.25833,335
33.26667,333
33.27500,331
33.28333,329
33.29167,327
33.30000,325
33.30833,323
33.31667,320
33.32500,318
33.33333,316
33.34167,313
33.35000,311
33.35833,308
33.36667,306
33.37500,303
33.38333,301
33.39167,298
33.40000,295
33.40833,293
33.41667,290
33.42500,287
33.43333,284
33.44167,281
33.45000,278
33.45833,275
33.46667,272
33.47500,270
33.48333,267
33.49167,264
33.50000,261
33.50833,257
33.51667,254
33.52500,251
33.53333,247
33.54167,244
33.55000,240
33.55833,237
33.56667,233
33.57500,230
33.58333,226
33.59167,223
33.60000,220
33.60833,216
33.61667,213
33.62500,209
33.63333,205
33.64167,202
33.65000,198
33.65833,194
33.66667,191
33.67500,187
33.68333,183
33.69167,180
33.70000,176
33.70833,172
33.71667,168
33.72500,165
33.73333,161
33.74167,157
33.75000,154
33.75833,151
33.76667,148
33.77500,145
33.78333,141
33.79167,138
33.80000,135
33.80833,132
33.81667,129
33.82500,126
33.83333,123
33.84167,119
33.85000,116
33.85833,113
33.86667,110
33.87500,107
33.88333,105
33.89167,102
33.90000,99
33.90833,97
33.91667,94
33.92500,91
33.93333,89
33.94167,86
33.95000,84
33.95833,82
33.96667,80
33.97500,78
33.98333,76
33.99167,74
34.00000,73
34.00833,71
34.01667,69
34.02500,68
34.03333,66
34.04167,65
34.05000,63
34.05833,62
34.06667,61
34.07500,59
34.08333,58
34.09167,57
34.10000,56
34.10833,55
34.11667,54
34.12500,52
34.13333,51
34.14167,50
34.15000,49
34.15833,48
34.16667,48
34.17500,47
34.18333,46
34.19167,45
34.20000,44
34.20833,44
34.21667,43
34.22500,43
34.23333,42
34.24167,41
34.25000,41
34.25833,40
34.26667,40
34.27500,40
34.28333,39
34.29167,39
34.30000,39
34.30833,38
34.31667,38
34.32500,38
34.33333,37
34.34167,37
34.35000,36
34.35833,36
34.36667,36
34.37500,35
34.38333,35
34.39167,34
34.40000,34
34.40833,33
34.41667,33
34.42500,33
34.43333,33
34.44167,33
34.45000,33
34.45833,33
34.46667,33
34.47500,33
34.48333,32
34.49167,32
34.50000,31
34.50833,31
34.51667,31
34.52500,31
34.53333,30
34.54167,30
34.55000,30
34.55833,30
34.56667,30
34.57500,29
34.58333,29
34.59167,29
34.60000,29
34.60833,28
34.61667,28
34.62500,28
34.63333,28
34.64167,28
34.65000,27
34.65833,27
34.66667,26
34.67500,26
34.68333,25
34.69167,25
34.70000,25
34.70833,24
34.71667,24
34.72500,24
34.73333,24
34.74167,24
34.75000,24
34.75833,24
34.76667,23
34.77500,23
34.78333,23
34.79167,23
34.80000,22
34.80833,22
34.81667,22
34.82500,22
34.83333,22
34.84167,22
34.85000,22
34.85833,22
34.86667,22
34.87500,22
34.88333,22
34.89167,21
34.90000,21
34.90833,20
34.91667,21
34.92500,21
34.93333,21
34.94167,21
34.95000,21
34.95833,21
34.96667,21
34.97500,21
34.98333,20
34.99167,20
35.00000,20
35.00833,20
35.01667,21
35.02500,21
35.03333,21
35.04167,22
35.05000,22
35.05833,22
35.06667,23
35.07500,23
35.08333,23
35.09167,23
35.10000,24
35.10833,24
35.11667,25
35.12500,26
35.13333,27
35.14167,28
35.15000,29
35.15833,30
35.16667,30
35.17500,31
35.18333,32
35.19167,32
35.20000,33
35.20833,34
35.21667,35
35.22500,36
35.23333,37
35.24167,38
35.25000,40
35.25833,41
35.26667,42
35.27500,44
35.28333,45
35.29167,47
35.30000,48
35.30833,49
35.31667,51
35.32500,52
35.33333,53
35.34167,54
35.35000,55
35.35833,56
35.36667,57
35.37500,59
35.38333,61
35.39167,62
35.40000,64
35.40833,65
35.41667,67
35.42500,69
35.43333,70
35.44167,72
35.45000,73
35.45833,74
35.46667,76
35.47500,77
35.48333,78
35.49167,80
35.50000,81
35.50833,83
35.51667,85
35.52500,86
35.53333,87
35.54167,89
35.55000,90
35.55833,91
35.56667,92
35.57500,94
35.58333,96
35.59167,97
35.60000,98
35.60833,99
35.61667,100
35.62500,101
35.63333,102
35.64167,103
35.65000,104
35.65833,105
35.66667,106
35.67500,107
35.68333,108
35.69167,109
35.70000,109
35.70833,110
35.71667,111
35.72500,112
35.73333,112
35.74167,113
35.75000,114
35.75833,115
35.76667,115
35.77500,116
35.78333,117
35.79167,117
35.80000,118
35.80833,119
35.81667,120
35.82500,120
35.83333,120
35.84167,120
35.85000,119
35.85833,119
35.86667,120
35.87500,120
35.88333,121
35.89167,121
35.90000,121
35.90833,121
35.91667,121
35.92500,121
35.93333,121
35.94167,122
35.95000,122
35.95833,122
35.96667,122
35.97500,122
35.98333,122
35.99167,122
36.00000,122
36.00833,122
36.01667,122
36.02500,122
36.03333,121
36.04167,121
36.05000,120
36.05833,120
36.06667,119
36.07500,119
36.08333,118
36.09167,118
36.10000,117
36.10833,116
36.11667,116
36.12500,115
36.13333,114
36.14167,113
36.15000,112
36.15833,111
36.16667,111
36.17500,110
36.18333,110
36.19167,109
36.20000,108
36.20833,108
36.21667,107
36.22500,106
36.23333,105
36.24167,104
36.25000,103
36.25833,102
36.26667,101
36.27500,100
36.28333,99
36.29167,97
36.30000,96
36.30833,95
36.31667,94
36.32500,93
36.33333,92
36.34167,91
36.35000,90
36.35833,89
36.36667,88
36.37500,88
36.38333,87
36.39167,85
36.40000,84
36.40833,84
36.41667,83
36.42500,82
36.43333,82
36.44167,81
36.45000,80
36.45833,79
36.46667,78
36.47500,76
36.48333,76
36.49167,75
36.50000,75
36.50833,74
36.51667,73
36.52500,73
36.53333,72
36.54167,71
36.55000,70
36.55833,70
36.56667,69
36.57500,69
36.58333,68
36.59167,68
36.60000,68
36.60833,67
36.61667,67
36.62500,67
36.63333,67
36.64167,67
36.65000,66
36.65833,66
36.66667,66
36.67500,66
36.68333,66
36.69167,66
36.70000,67
36.70833,66
36.71667,66
36.72500,65
36.73333,65
36.74167,65
36.75000,64
36.75833,64
36.76667,65
36.77500,65
36.78333,66
36.79167,66
36.80000,66
36.80833,66
36.81667,67
36.82500,67
36.83333,67
36.84167,67
36.85000,68
36.85833,68
36.86667,69
36.87500,69
36.88333,69
36.89167,70
36.90000,70
36.90833,71
36.91667,71
36.92500,72
36.93333,72
36.94167,73
36.95000,73
36.95833,73
36.96667,74
36.97500,74
36.98333,74
36.99167,75
37.00000,75
37.00833,76
37.01667,77
37.02500,78
37.03333,78
37.04167,79
37.05000,80
37.05833,81
37.06667,82
37.07500,83
37.08333,83
37.09167,84
37.10000,85
37.10833,86
37.11667,86
37.12500,87
37.13333,88
37.14167,89
37.15000,89
37.15833,90
37.16667,91
37.17500,92
37.18333,93
37.19167,93
37.20000,94
37.20833,94
37.21667,95
37.22500,96
37.23333,98
37.24167,99
37.25000,100
37.25833,100
37.26667,101
37.27500,103
37.28333,104
37.29167,105
37.30000,105
37.30833,106
37.31667,107
37.32500,108
37.33333,109
37.34167,110
37.35000,111
37.35833,112
37.36667,113
37.37500,114
37.38333,116
37.39167,117
37.40000,118
37.40833,119
37.41667,120
37.42500,121
37.43333,122
37.44167,123
37.45000,124
37.45833,125
37.46667,126
37.47500,127
37.48333,128
37.49167,128
37.50000,129
37.50833,130
37.51667,132
37.52500,133
37.53333,134
37.54167,135
37.55000,136
37.55833,137
37.56667,138
37.57500,139
37.58333,139
37.59167,140
37.60000,141
37.60833,142
37.61667,143
37.62500,144
37.63333,145
37.64167,145
37.65000,146
37.65833,146
37.66667,147
37.67500,148
37.68333,149
37.69167,149
37.70000,150
37.70833,151
37.71667,151
37.72500,152
37.73333,152
37.74167,153
37.75000,154
37.75833,154
37.76667,155
37.77500,155
37.78333,155
37.79167,155
37.80000,156
37.80833,156
37.81667,157
37.82500,157
37.83333,157
37.84167,157
37.85000,157
37.85833,157
37.86667,157
37.87500,157
37.88333,157
37.89167,158
37.90000,158
37.90833,158
37.91667,158
37.92500,157
37.93333,157
37.94167,156
37.95000,156
37.95833,155
37.96667,154
37.97500,154
37.98333,153
37.99167,153
38.00000,152
38.00833,152
38.01667,151
38.02500,151
38.03333,150
38.04167,150
38.05000,149
38.05833,148
38.06667,147
38.07500,146
38.08333,145
38.09167,144
38.10000,144
38.10833,143
38.11667,142
38.12500,141
38.13333,141
38.14167,140
38.15000,139
38.15833,138
38.16667,137
38.17500,135
38.18333,134
38.19167,133
38.20000,133
38.20833,132
38.21667,130
38.22500,129
38.23333,128
38.24167,127
38.25000,126
38.25833,124
38.26667,123
38.27500,122
38.28333,121
38.29167,120
38.30000,118
38.30833,117
38.31667,116
38.32500,114
38.33333,113
38.34167,111
38.35000,110
38.35833,109
38.36667,107
38.37500,106
38.38333,105
38.39167,103
38.40000,102
38.40833,101
38.41667,99
38.42500,98
38.43333,96
38.44167,95
38.45000,94
38.45833,93
38.46667,91
38.47500,90
38.48333,88
38.49167,87
38.50000,86
38.50833,85
38.51667,83
38.52500,82
38.53333,80
38.54167,78
38.55000,77
38.55833,76
38.56667,74
38.57500,73
38.58333,72
38.59167,70
38.60000,69
38.60833,68
38.61667,66
38.62500,64
38.63333,63
38.64167,62
38.65000,61
38.65833,60
38.66667,58
38.67500,57
38.68333,56
38.69167,55
38.70000,53
38.70833,52
38.71667,51
38.72500,50
38.73333,49
38.74167,48
38.75000,47
38.75833,45
38.76667,44
38.77500,43
38.78333,42
38.79167,41
38.80000,40
38.80833,39
38.81667,38
38.82500,37
38.83333,36
38.84167,35
38.85000,34
38.85833,33
38.86667,33
38.87500,32
38.88333,31
38.89167,30
38.90000,29
38.90833,28
38.91667,27
38.92500,26
38.93333,25
38.94167,24
38.95000,24
38.95833,23
38.96667,22
38.97500,22
38.98333,21
38.99167,21
39.00000,20
39.00833,20
39.01667,20
39.02500,19
39.03333,19
39.04167,19
39.05000,18
39.05833,17
39.06667,17
39.07500,16
39.08333,16
39.09167,16
39.10000,16
39.10833,16
39.11667,15
39.12500,15
39.13333,15
39.14167,15
39.15000,14
39.15833,14
39.16667,14
39.17500,14
39.18333,13
39.19167,13
39.20000,12
39.20833,12
39.21667,12
39.22500,12
39.23333,12
39.24167,12
39.25000,11
39.25833,11
39.26667,11
39.27500,10
39.28333,10
39.29167,10
39.30000,10
39.30833,10
39.31667,10
39.32500,10
39.33333,10
39.34167,10
39.35000,10
39.35833,10
39.36667,9
39.37500,9
39.38333,9
39.39167,9
39.40000,9
39.40833,9
39.41667,9
39.42500,9
39.43333,9
39.44167,10
39.45000,9
39.45833,9
39.46667,9
39.47500,9
39.48333,8
39.49167,8
39.50000,8
39.50833,8
39.51667,8
39.52500,8
39.53333,8
39.54167,8
39.55000,8
39.55833,8
39.56667,8
39.57500,8
39.58333,8
39.59167,8
39.60000,8
39.60833,8
39.61667,8
39.62500,8
39.63333,9
39.64167,9
39.65000,8
39.65833,9
39.66667,8
39.67500,8
39.68333,8
39.69167,8
39.70000,8
39.70833,7
39.71667,7
39.72500,7
39.73333,7
39.74167,7
39.75000,7
39.75833,7
39.76667,7
39.77500,7
39.78333,7
39.79167,7
39.80000,7
39.80833,7
39.81667,7
39.82500,7
39.83333,7
39.84167,7
39.85000,7
39.85833,7
39.86667,7
39.87500,7
39.88333,7
39.89167,7
39.90000,8
39.90833,8
39.91667,8
39.92500,8
39.93333,7
39.94167,6
39.95000,6
39.95833,6
39.96667,7
39.97500,7
39.98333,7
39.99167,7
40.00000,7
40.00833,8
40.01667,8
40.02500,8
40.03333,8
40.04167,8
40.05000,8
40.05833,8
40.06667,7
40.07500,7
40.08333,7
40.09167,7
40.10000,6
40.10833,7
40.11667,7
40.12500,7
40.13333,8
40.14167,8
40.15000,8
40.15833,8
40.16667,8
40.17500,8
40.18333,7
40.19167,7
40.20000,8
40.20833,8
40.21667,7
40.22500,7
40.23333,7
40.24167,7
40.25000,7
40.25833,7
40.26667,8
40.27500,8
40.28333,8
40.29167,8
40.30000,8
40.30833,8
40.31667,8
40.32500,8
40.33333,8
40.34167,8
40.35000,9
40.35833,9
40.36667,10
40.37500,10
40.38333,10
40.39167,10
40.40000,9
40.40833,10
40.41667,10
40.42500,11
40.43333,11
40.44167,11
40.45000,11
40.45833,11
40.46667,11
40.47500,12
40.48333,12
40.49167,12
40.50000,12
40.50833,13
40.51667,13
40.52500,14
40.53333,14
40.54167,14
40.55000,15
40.55833,15
40.56667,16
40.57500,16
40.58333,16
40.59167,16
40.60000,17
40.60833,17
40.61667,18
40.62500,18
40.63333,18
40.64167,19
40.65000,20
40.65833,21
40.66667,22
40.67500,22
40.68333,23
40.69167,24
40.70000,24
40.70833,25
40.71667,26
40.72500,27
40.73333,27
40.74167,28
40.75000,29
40.75833,30
40.76667,31
40.77500,31
40.78333,32
40.79167,32
40.80000,33
40.80833,34
40.81667,35
40.82500,36
40.83333,37
40.84167,38
40.85000,39
40.85833,40
40.86667,41
40.87500,43
40.88333,44
40.89167,45
40.90000,46
40.90833,47
40.91667,48
40.92500,49
40.93333,50
40.94167,51
40.95000,52
40.95833,53
40.96667,55
40.97500,56
40.98333,57
40.99167,59
41.00000,60
41.00833,60
41.01667,62
41.02500,63
41.03333,64
41.04167,65
41.05000,67
41.05833,68
41.06667,69
41.07500,71
41.08333,72
41.09167,73
41.10000,74
41.10833,76
41.11667,77
41.12500,78
41.13333,79
41.14167,81
41.15000,82
41.15833,83
41.16667,84
41.17500,86
41.18333,87
41.19167,89
41.20000,90
41.20833,91
41.21667,92
41.22500,94
41.23333,95
41.24167,97
41.25000,98
41.25833,99
41.26667,100
41.27500,101
41.28333,102
41.29167,104
41.30000,105
41.30833,106
41.31667,108
41.32500,110
41.33333,111
41.34167,112
41.35000,114
41.35833,115
41.36667,116
41.37500,117
41.38333,118
41.39167,120
41.40000,122
41.40833,123
41.41667,125
41.42500,126
41.43333,128
41.44167,129
41.45000,131
41.45833,132
41.46667,134
41.47500,135
41.48333,136
41.49167,137
41.50000,138
41.50833,139
41.51667,141
41.52500,142
41.53333,143
41.54167,144
41.55000,146
41.55833,147
41.56667,149
41.57500,150
41.58333,151
41.59167,152
41.60000,153
41.60833,154
41.61667,155
41.62500,156
41.63333,157
41.64167,159
41.65000,160
41.65833,161
41.66667,162
41.67500,163
41.68333,164
41.69167,165
41.70000,166
41.70833,167
41.71667,168
41.72500,169
41.73333,170
41.74167,171
41.75000,172
41.75833,173
41.76667,174
41.77500,174
41.78333,175
41.79167,176
41.80000,176
41.80833,177
41.81667,177
41.82500,178
41.83333,178
41.84167,179
41.85000,180
41.85833,181
41.86667,181
41.87500,181
41.88333,182
41.89167,183
41.90000,183
41.90833,184
41.91667,184
41.92500,184
41.93333,185
41.94167,185
41.95000,186
41.95833,186
41.96667,187
41.97500,187
41.98333,188
41.99167,188
42.00000,188
42.00833,189
42.01667,189
42.02500,189
42.03333,189
42.04167,189
42.05000,189
42.05833,189
42.06667,189
42.07500,189
42.08333,189
42.09167,190
42.10000,190
42.10833,190
42.11667,189
42.12500,189
42.13333,189
42.14167,190
42.15000,190
42.15833,190
42.16667,190
42.17500,189
42.18333,190
42.19167,190
42.20000,190
42.20833,190
42.21667,190
42.22500,190
42.23333,189
42.24167,189
42.25000,188
42.25833,188
42.26667,187
42.27500,188
42.28333,188
42.29167,188
42.30000,188
42.30833,188
42.31667,188
42.32500,188
42.33333,187
42.34167,187
42.35000,186
42.35833,186
42.36667,186
42.37500,186
42.38333,186
42.39167,185
42.40000,185
42.40833,184
42.41667,184
42.42500,183
42.43333,182
42.44167,181
42.45000,181
42.45833,181
42.46667,181
42.47500,180
42.48333,180
42.49167,180
42.50000,179
42.50833,179
42.51667,178
42.52500,178
42.53333,177
42.54167,177
42.55000,176
42.55833,176
42.56667,175
42.57500,174
42.58333,173
42.59167,172
42.60000,171
42.60833,170
42.61667,169
42.62500,169
42.63333,168
42.64167,168
42.65000,168
42.65833,167
42.66667,167
42.67500,166
42.68333,165
42.69167,164
42.70000,163
42.70833,163
42.71667,162
42.72500,162
42.73333,161
42.74167,160
42.75000,160
42.75833,159
42.76667,157
42.77500,156
42.78333,155
42.79167,154
42.80000,153
42.80833,153
42.81667,152
42.82500,151
42.83333,151
42.84167,150
42.85000,150
42.85833,149
42.86667,148
42.87500,147
42.88333,146
42.89167,145
42.90000,144
42.90833,143
42.91667,143
42.92500,142
42.93333,141
42.94167,140
42.95000,139
42.95833,138
42.96667,137
42.97500,137
42.98333,136
42.99167,135
43.00000,134
43.00833,134
43.01667,133
43.02500,132
43.03333,132
43.04167,131
43.05000,130
43.05833,129
43.06667,128
43.07500,128
43.08333,127
43.09167,126
43.10000,125
43.10833,125
43.11667,124
43.12500,123
43.13333,122
43.14167,122
43.15000,121
43.15833,120
43.16667,119
43.17500,118
43.18333,118
43.19167,117
43.20000,116
43.20833,115
43.21667,114
43.22500,113
43.23333,112
43.24167,111
43.25000,111
43.25833,110
43.26667,109
43.27500,109
43.28333,108
43.29167,107
43.30000,107
43.30833,106
43.31667,106
43.32500,105
43.33333,105
43.34167,105
43.35000,104
43.35833,103
43.36667,103
43.37500,102
43.38333,101
43.39167,101
43.40000,100
43.40833,99
43.41667,98
43.42500,97
43.43333,96
43.44167,95
43.45000,94
43.45833,94
43.46667,93
43.47500,92
43.48333,91
43.49167,91
43.50000,90
43.50833,89
43.51667,88
43.52500,88
43.53333,87
43.54167,86
43.55000,86
43.55833,85
43.56667,85
43.57500,84
43.58333,84
43.59167,83
43.60000,82
43.60833,82
43.61667,81
43.62500,81
43.63333,80
43.64167,79
43.65000,79
43.65833,78
43.66667,78
43.67500,78
43.68333,77
43.69167,77
43.70000,76
43.70833,76
43.71667,75
43.72500,74
43.73333,73
43.74167,73
43.75000,72
43.75833,72
43.76667,72
43.77500,71
43.78333,70
43.79167,70
43.80000,69
43.80833,68
43.81667,67
43.82500,66
43.83333,65
43.84167,65
43.85000,65
43.85833,64
43.86667,64
43.87500,64
43.88333,63
43.89167,62
43.90000,61
43.90833,61
43.91667,60
43.92500,59
43.93333,58
43.94167,57
43.95000,57
43.95833,56
43.96667,56
43.97500,56
43.98333,55
43.99167,54
44.00000,54
44.00833,53
44.01667,53
44.02500,52
44.03333,52
44.04167,51
44.05000,51
44.05833,50
44.06667,50
44.07500,49
44.08333,49
44.09167,48
44.10000,47
44.10833,46
44.11667,46
44.12500,46
44.13333,45
44.14167,45
44.15000,44
44.15833,44
44.16667,43
44.17500,43
44.18333,43
44.19167,42
44.20000,42
44.20833,41
44.21667,41
44.22500,41
44.23333,40
44.24167,40
44.25000,39
44.25833,39
44.26667,38
44.27500,37
44.28333,36
44.29167,35
44.30000,35
44.30833,35
44.31667,35
44.32500,35
44.33333,34
44.34167,34
44.35000,34
44.35833,33
44.36667,33
44.37500,32
44.38333,32
44.39167,32
44.40000,31
44.40833,31
44.41667,31
44.42500,31
44.43333,30
44.44167,30
44.45000,29
44.45833,28
44.46667,28
44.47500,27
44.48333,27
44.49167,26
44.50000,26
44.50833,26
44.51667,25
44.52500,25
44.53333,25
44.54167,24
44.55000,24
44.55833,23
44.56667,23
44.57500,23
44.58333,22
44.59167,22
44.60000,21
44.60833,21
44.61667,21
44.62500,20
44.63333,20
44.64167,20
44.65000,19
44.65833,19
44.66667,19
44.67500,19
44.68333,18
44.69167,18
44.70000,18
44.70833,18
44.71667,17
44.72500,17
44.73333,17
44.74167,16
44.75000,16
44.75833,16
44.76667,15
44.77500,15
44.78333,15
44.79167,14
44.80000,14
44.80833,13
44.81667,13
44.82500,13
44.83333,13
44.84167,13
44.85000,12
44.85833,12
44.86667,12
44.87500,12
44.88333,12
44.89167,12
44.90000,11
44.90833,11
44.91667,11
44.92500,10
44.93333,10
44.94167,10
44.95000,10
44.95833,9
44.96667,9
44.97500,9
44.98333,9
44.99167,9
45.00000,9
45.00833,9
45.01667,9
45.02500,9
45.03333,9
45.04167,9
45.05000,9
45.05833,8
45.06667,8
45.07500,7
45.08333,7
45.09167,6
45.10000,6
45.10833,6
45.11667,6
45.12500,6
45.13333,7
45.14167,6
45.15000,6
45.15833,6
45.16667,6
45.17500,7
45.18333,7
45.19167,7
45.20000,7
45.20833,6
45.21667,6
45.22500,6
45.23333,6
45.24167,6
45.25000,6
45.25833,6
45.26667,6
45.27500,6
45.28333,6
45.29167,6
45.30000,6
45.30833,6
45.31667,6
45.32500,6
45.33333,6
45.34167,6
45.35000,6
45.35833,6
45.36667,6
45.37500,6
45.38333,5
45.39167,5
45.40000,5
45.40833,5
45.41667,5
45.42500,5
45.43333,5
45.44167,5
45.45000,4
45.45833,4
45.46667,4
45.47500,4
45.48333,4
45.49167,4
45.50000,4
45.50833,5
45.51667,4
45.52500,4
45.53333,4
45.54167,4
45.55000,4
45.55833,4
45.56667,4
45.57500,4
45.58333,4
45.59167,3
45.60000,3
45.60833,3
45.61667,3
45.62500,3
45.63333,3
45.64167,3
45.65000,2
45.65833,2
45.66667,2
45.67500,2
45.68333,2
45.69167,2
45.70000,2
45.70833,2
45.71667,2
45.72500,3
45.73333,3
45.74167,3
45.75000,3
45.75833,2
45.76667,2
45.77500,2
45.78333,2
45.79167,2
45.80000,2
45.80833,2
45.81667,2
45.82500,1
45.83333,1
45.84167,1
45.85000,1
45.85833,0
45.86667,1
45.87500,1
45.88333,1
45.89167,1
45.90000,1
45.90833,1
45.91667,0
45.92500,0
45.93333,-0
45.94167,-1
45.95000,-1
45.95833,-0
45.96667,-0
45.97500,-1
45.98333,-1
45.99167,-1
46.00000,-1
46.00833,-2
46.01667,-2
46.02500,-2
46.03333,-2
46.04167,-2
46.05000,-2
46.05833,-2
46.06667,-2
46.07500,-3
46.08333,-3
46.09167,-4
46.10000,-4
46.10833,-4
46.11667,-4
46.12500,-4
46.13333,-4
46.14167,-5
46.15000,-5
46.15833,-6
46.16667,-6
46.17500,-6
46.18333,-6
46.19167,-6
46.20000,-6
46.20833,-6
46.21667,-6
46.22500,-7
46.23333,-7
46.24167,-7
46.25000,-8
46.25833,-8
46.26667,-8
46.27500,-9
46.28333,-9
46.29167,-8
46.30000,-8
46.30833,-9
46.31667,-9
46.32500,-9
46.33333,-10
46.34167,-10
46.35000,-10
46.35833,-11
46.36667,-10
46.37500,-10
46.38333,-10
46.39167,-10
46.40000,-10
46.40833,-11
46.41667,-11
46.42500,-12
46.43333,-12
46.44167,-12
46.45000,-13
46.45833,-13
46.46667,-14
46.47500,-14
46.48333,-14
46.49167,-14
46.50000,-14
46.50833,-14
46.51667,-15
46.52500,-15
46.53333,-15
46.54167,-15
46.55000,-15
46.55833,-16
46.56667,-16
46.57500,-16
46.58333,-17
46.59167,-17
46.60000,-17
46.60833,-17
46.61667,-17
46.62500,-18
46.63333,-18
46.64167,-18
46.65000,-19
46.65833,-19
46.66667,-19
46.67500,-19
46.68333,-19
46.69167,-19
46.70000,-19
46.70833,-19
46.71667,-20
46.72500,-20
46.73333,-20
46.74167,-20
46.75000,-21
46.75833,-21
46.76667,-21
46.77500,-22
46.78333,-22
46.79167,-22
46.80000,-22
46.80833,-22
46.81667,-21
46.82500,-21
46.83333,-21
46.84167,-21
46.85000,-22
46.85833,-22
46.86667,-22
46.87500,-22
46.88333,-22
46.89167,-23
46.90000,-23
46.90833,-24
46.91667,-24
46.92500,-24
46.93333,-24
46.94167,-24
46.95000,-24
46.95833,-24
46.96667,-24
46.97500,-24
46.98333,-24
46.99167,-25
47.00000,-25
47.00833,-24
47.01667,-24
47.02500,-24
47.03333,-24
47.04167,-24
47.05000,-24
47.05833,-24
47.06667,-24
47.07500,-24
47.08333,-24
47.09167,-23
47.10000,-23
47.10833,-23
47.11667,-23
47.12500,-23
47.13333,-23
47.14167,-23
47.15000,-23
47.15833,-23
47.16667,-23
47.17500,-22
47.18333,-22
47.19167,-21
47.20000,-21
47.20833,-21
47.21667,-21
47.22500,-21
47.23333,-21
47.24167,-21
47.25000,-20
47.25833,-20
47.26667,-20
47.27500,-20
47.28333,-20
47.29167,-20
47.30000,-20
47.30833,-19
47.31667,-19
47.32500,-19
47.33333,-18
47.34167,-18
47.35000,-17
47.35833,-17
47.36667,-17
47.37500,-16
47.38333,-16
47.39167,-15
47.40000,-15
47.40833,-14
47.41667,-14
47.42500,-13
47.43333,-13
47.44167,-12
47.45000,-11
47.45833,-11
47.46667,-10
47.47500,-9
47.48333,-9
47.49167,-8
47.50000,-7
47.50833,-6
47.51667,-5
47.52500,-5
47.53333,-4
47.54167,-4
47.55000,-3
47.55833,-3
47.56667,-2
47.57500,-2
47.58333,-1
47.59167,0
47.60000,1
47.60833,2
47.61667,3
47.62500,3
47.63333,4
47.64167,5
47.65000,6
47.65833,7
47.66667,8
47.67500,8
47.68333,9
47.69167,10
47.70000,11
47.70833,11
47.71667,12
47.72500,13
47.73333,14
47.74167,15
47.75000,16
47.75833,17
47.76667,17
47.77500,19
47.78333,20
47.79167,21
47.80000,21
47.80833,22
47.81667,23
47.82500,23
47.83333,24
47.84167,25
47.85000,27
47.85833,28
47.86667,28
47.87500,29
47.88333,29
47.89167,30
47.90000,31
47.90833,31
47.91667,32
47.92500,33
47.93333,33
47.94167,34
47.95000,35
47.95833,36
47.96667,36
47.97500,37
47.98333,38
47.99167,38
48.00000,39
48.00833,39
48.01667,39
48.02500,39
48.03333,40
48.04167,40
48.05000,41
48.05833,42
48.06667,42
48.07500,43
48.08333,43
48.09167,44
48.10000,44
48.10833,45
48.11667,45
48.12500,45
48.13333,46
48.14167,47
48.15000,48
48.15833,48
48.16667,48
48.17500,49
48.18333,49
48.19167,50
48.20000,50
48.20833,51
48.21667,51
48.22500,51
48.23333,52
48.24167,52
48.25000,53
48.25833,53
48.26667,52
48.27500,53
48.28333,53
48.29167,54
48.30000,54
48.30833,55
48.31667,55
48.32500,55
48.33333,56
48.34167,56
48.35000,56
48.35833,56
48.36667,56
48.37500,56
48.38333,57
48.39167,57
48.40000,57
48.40833,57
48.41667,57
48.42500,57
48.43333,58
48.44167,57
48.45000,57
48.45833,57
48.46667,57
48.47500,57
48.48333,58
48.49167,58
48.50000,58
48.50833,58
48.51667,58
48.52500,58
48.53333,58
48.54167,58
48.55000,58
48.55833,58
48.56667,58
48.57500,58
48.58333,59
48.59167,59
48.60000,59
48.60833,59
48.61667,59
48.62500,59
48.63333,59
48.64167,59
48.65000,59
48.65833,59
48.66667,59
48.67500,59
48.68333,59
48.69167,59
48.70000,59
48.70833,59
48.71667,60
48.72500,60
48.73333,60
48.74167,60
48.75000,60
48.75833,60
48.76667,60
48.77500,60
48.78333,60
48.79167,60
48.80000,60
48.80833,60
48.81667,60
48.82500,60
48.83333,59
48.84167,59
48.85000,59
48.85833,59
48.86667,59
48.87500,59
48.88333,59
48.89167,60
48.90000,60
48.90833,60
48.91667,60
48.92500,60
48.93333,60
48.94167,61
48.95000,61
48.95833,61
48.96667,60
48.97500,61
48.98333,61
48.99167,60
49.00000,60
49.00833,60
49.01667,60
49.02500,60
49.03333,60
49.04167,60
49.05000,60
49.05833,60
49.06667,60
49.07500,60
49.08333,61
49.09167,61
49.10000,61
49.10833,62
49.11667,62
49.12500,62
49.13333,61
49.14167,61
49.15000,62
49.15833,62
49.16667,62
49.17500,62
49.18333,62
49.19167,62
49.20000,62
49.20833,62
49.21667,62
49.22500,61
49.23333,61
49.24167,61
49.25000,61
49.25833,61
49.26667,61
49.27500,61
49.28333,61
49.29167,61
49.30000,61
49.30833,60
49.31667,60
49.32500,60
49.33333,60
49.34167,60
49.35000,60
49.35833,60
49.36667,60
49.37500,60
49.38333,60
49.39167,60
49.40000,59
49.40833,59
49.41667,58
49.42500,59
49.43333,59
49.44167,59
49.45000,59
49.45833,59
49.46667,59
49.47500,59
49.48333,59
49.49167,59
49.50000,58
49.50833,58
49.51667,58
49.52500,57
49.53333,57
49.54167,57
49.55000,57
49.55833,57
49.56667,57
49.57500,56
49.58333,56
49.59167,55
49.60000,55
49.60833,55
49.61667,55
49.62500,55
49.63333,54
49.64167,54
49.65000,54
49.65833,54
49.66667,53
49.67500,53
49.68333,53
49.69167,52
49.70000,52
49.70833,52
49.71667,52
49.72500,51
49.73333,51
49.74167,51
49.75000,50
49.75833,50
49.76667,49
49.77500,49
49.78333,48
49.79167,48
49.80000,47
49.80833,47
49.81667,46
49.82500,46
49.83333,46
49.84167,45
49.85000,44
49.85833,44
49.86667,44
49.87500,43
49.88333,42
49.89167,42
49.90000,42
49.90833,41
49.91667,41
49.92500,40
49.93333,40
49.94167,39
49.95000,39
49.95833,38
49.96667,38
49.97500,37
49.98333,36
49.99167,35
50.00000,34

