[Header]
Application Name,LabSolutions
Version,5.97 SP1
Data File Name,C:\Users\cremerlab\Desktop\Richa\Sep_2nd_2022_scfa_rt50min_final\Sep 2nd yield expt_922022_001_012.lcd
Output Date,9/3/2022
Output Time,3:10:22 AM

[File Information]
Type,Data File
Generated,9/3/2022 2:20:03 AM
Generated by,System Administrator
Modified,9/3/2022 3:10:22 AM
Modified by,System Administrator

[Sample Information]
Operator Name,System Administrator
Acquired,9/3/2022 2:20:21 AM
Sample Type,0:Unknown
Level,0
Sample Name,090222_B.theta_3
Sample ID,001
ISTD Amount1,1
ISTD Amount2,1
ISTD Amount3,1
ISTD Amount4,1
ISTD Amount5,1
ISTD Amount6,1
ISTD Amount7,1
ISTD Amount8,1
ISTD Amount9,1
ISTD Amount10,1
ISTD Amount11,1
ISTD Amount12,1
ISTD Amount13,1
ISTD Amount14,1
ISTD Amount15,1
ISTD Amount16,1
ISTD Amount17,1
ISTD Amount18,1
ISTD Amount19,1
ISTD Amount20,1
ISTD Amount21,1
ISTD Amount22,1
ISTD Amount23,1
ISTD Amount24,1
ISTD Amount25,1
ISTD Amount26,1
ISTD Amount27,1
ISTD Amount28,1
ISTD Amount29,1
ISTD Amount30,1
ISTD Amount31,1
ISTD Amount32,1
Sample Amount,1
Dilution Factor,1
Vial#,11
Injection Volume,20

[Original Files]
Data File,C:\Users\cremerlab\Desktop\Richa\Sep_2nd_2022_scfa_rt50min_final\Sep 2nd yield expt_922022_001_012.lcd
Method File,C:\Users\cremerlab\Desktop\Richa\acetate_excretion.lcm
Batch File,C:\Users\cremerlab\Desktop\Richa\Sep_2nd_2022_scfa_rt50min_final\Sep 2nd yield expt.lcb
Report Format File,c:\LabSolutions\System\DEFAULT.lsr

[File Description]


[Configuration]
Instrument Name,HPLC-PC-Instrument1
Instrument #,1
Line #,1
# of Detectors,2
Detector ID,Detector A,Detector B
Detector Name,Detector A,Detector B
# of Channels,1,1

[Peak Table(Detector A)]
# of Peaks,0

[Peak Table(Detector B)]
# of Peaks,13
Peak#,R.Time,I.Time,F.Time,Area,Height,A/H,Conc.,Mark,ID#,Name,k',Plate #,Plate Ht.,Tailing,Resolution,Sep.Factor,Area Ratio,Height Ratio,Conc. %,Norm Conc.
1,10.475,10.258,10.508,1780,238,7.469,0.000,   ,,,0.000,3517,42.649,0.000,0.000,0.000,0,0,0.000,0.000
2,11.015,10.508,12.333,2264243,115960,19.526,0.000, V ,,,0.052,7558,19.846,0.969,0.891,0.000,0,0,0.000,0.000
3,14.328,12.658,15.175,3570858,76879,46.448,0.000,   ,,,0.368,2509,59.778,0.657,4.013,7.130,0,0,0.000,0.000
4,15.754,15.175,18.408,1434899,48811,29.397,0.000,SV ,,,0.504,6930,21.644,1.141,1.500,1.370,0,0,0.000,0.000
5,17.862,17.425,18.375,7187,254,28.321,0.000,T  ,,,0.705,8540,17.564,1.075,2.756,1.399,0,0,0.000,0.000
6,19.093,18.433,19.758,13151,310,42.438,0.000,   ,,,0.823,4031,37.212,0.985,1.246,1.167,0,0,0.000,0.000
7,20.314,19.758,20.575,19480,633,30.757,0.000,   ,,,0.939,3039,49.360,0.000,0.912,1.142,0,0,0.000,0.000
8,20.930,20.575,21.300,26983,689,39.145,0.000, V ,,,0.998,1176,127.591,0.000,0.315,1.063,0,0,0.000,0.000
9,21.738,21.300,22.575,36438,779,46.796,0.000, V ,,,1.075,2659,56.410,0.000,0.391,1.077,0,0,0.000,0.000
10,23.179,22.650,23.617,3115,96,32.385,0.000,   ,,,1.213,11948,12.554,0.918,1.137,1.128,0,0,0.000,0.000
11,25.078,24.300,26.442,149626,3646,41.037,0.000,   ,,,1.394,9067,16.544,1.154,1.997,1.149,0,0,0.000,0.000
12,29.237,28.375,30.600,145381,2952,49.242,0.000,   ,,,1.791,8722,17.197,1.226,3.608,1.285,0,0,0.000,0.000
13,32.512,31.725,34.400,35309,453,77.978,0.000,   ,,,2.104,1983,75.647,1.613,1.570,1.175,0,0,0.000,0.000

[LC Chromatogram(Detector B-Ch1)]
Interval(msec),500
# of Points,6001
Start Time(min),0.000
End Time(min),50.000
Intensity Units,mV
Intensity Multiplier,0.001
R.Time (min),Intensity
0.00000,-26
0.00833,-26
0.01667,-15
0.02500,-1
0.03333,-1
0.04167,-3
0.05000,-4
0.05833,-5
0.06667,-5
0.07500,-6
0.08333,-6
0.09167,-7
0.10000,-8
0.10833,-8
0.11667,-8
0.12500,-9
0.13333,-10
0.14167,-10
0.15000,-11
0.15833,-12
0.16667,-12
0.17500,-13
0.18333,-13
0.19167,-14
0.20000,-14
0.20833,-15
0.21667,-15
0.22500,-16
0.23333,-17
0.24167,-17
0.25000,-18
0.25833,-19
0.26667,-19
0.27500,-20
0.28333,-20
0.29167,-21
0.30000,-21
0.30833,-21
0.31667,-21
0.32500,-21
0.33333,-22
0.34167,-22
0.35000,-22
0.35833,-23
0.36667,-24
0.37500,-24
0.38333,-24
0.39167,-24
0.40000,-24
0.40833,-25
0.41667,-25
0.42500,-25
0.43333,-26
0.44167,-26
0.45000,-26
0.45833,-26
0.46667,-27
0.47500,-27
0.48333,-27
0.49167,-28
0.50000,-28
0.50833,-28
0.51667,-29
0.52500,-29
0.53333,-29
0.54167,-29
0.55000,-30
0.55833,-30
0.56667,-30
0.57500,-30
0.58333,-30
0.59167,-30
0.60000,-30
0.60833,-30
0.61667,-31
0.62500,-31
0.63333,-31
0.64167,-31
0.65000,-31
0.65833,-31
0.66667,-31
0.67500,-31
0.68333,-31
0.69167,-31
0.70000,-31
0.70833,-32
0.71667,-32
0.72500,-32
0.73333,-32
0.74167,-32
0.75000,-33
0.75833,-33
0.76667,-33
0.77500,-32
0.78333,-33
0.79167,-33
0.80000,-33
0.80833,-33
0.81667,-33
0.82500,-34
0.83333,-34
0.84167,-33
0.85000,-33
0.85833,-33
0.86667,-33
0.87500,-34
0.88333,-34
0.89167,-34
0.90000,-34
0.90833,-34
0.91667,-33
0.92500,-33
0.93333,-33
0.94167,-33
0.95000,-33
0.95833,-34
0.96667,-33
0.97500,-33
0.98333,-33
0.99167,-32
1.00000,-32
1.00833,-31
1.01667,-31
1.02500,-31
1.03333,-31
1.04167,-31
1.05000,-30
1.05833,-30
1.06667,-30
1.07500,-30
1.08333,-30
1.09167,-30
1.10000,-29
1.10833,-29
1.11667,-29
1.12500,-29
1.13333,-29
1.14167,-29
1.15000,-29
1.15833,-30
1.16667,-29
1.17500,-29
1.18333,-29
1.19167,-29
1.20000,-29
1.20833,-29
1.21667,-29
1.22500,-29
1.23333,-29
1.24167,-28
1.25000,-28
1.25833,-28
1.26667,-27
1.27500,-27
1.28333,-27
1.29167,-27
1.30000,-26
1.30833,-26
1.31667,-26
1.32500,-26
1.33333,-26
1.34167,-26
1.35000,-26
1.35833,-26
1.36667,-26
1.37500,-26
1.38333,-26
1.39167,-25
1.40000,-25
1.40833,-25
1.41667,-24
1.42500,-24
1.43333,-24
1.44167,-24
1.45000,-24
1.45833,-23
1.46667,-22
1.47500,-22
1.48333,-22
1.49167,-22
1.50000,-22
1.50833,-22
1.51667,-23
1.52500,-23
1.53333,-22
1.54167,-22
1.55000,-22
1.55833,-22
1.56667,-21
1.57500,-21
1.58333,-21
1.59167,-21
1.60000,-20
1.60833,-20
1.61667,-20
1.62500,-20
1.63333,-20
1.64167,-20
1.65000,-20
1.65833,-20
1.66667,-20
1.67500,-20
1.68333,-20
1.69167,-21
1.70000,-20
1.70833,-20
1.71667,-20
1.72500,-19
1.73333,-19
1.74167,-19
1.75000,-19
1.75833,-19
1.76667,-19
1.77500,-19
1.78333,-18
1.79167,-18
1.80000,-18
1.80833,-18
1.81667,-18
1.82500,-18
1.83333,-18
1.84167,-18
1.85000,-18
1.85833,-18
1.86667,-17
1.87500,-17
1.88333,-17
1.89167,-17
1.90000,-17
1.90833,-17
1.91667,-17
1.92500,-17
1.93333,-17
1.94167,-17
1.95000,-17
1.95833,-17
1.96667,-17
1.97500,-17
1.98333,-17
1.99167,-17
2.00000,-17
2.00833,-17
2.01667,-17
2.02500,-17
2.03333,-17
2.04167,-17
2.05000,-17
2.05833,-16
2.06667,-16
2.07500,-15
2.08333,-15
2.09167,-15
2.10000,-15
2.10833,-15
2.11667,-15
2.12500,-15
2.13333,-15
2.14167,-15
2.15000,-15
2.15833,-15
2.16667,-15
2.17500,-15
2.18333,-15
2.19167,-15
2.20000,-15
2.20833,-15
2.21667,-16
2.22500,-16
2.23333,-16
2.24167,-16
2.25000,-16
2.25833,-16
2.26667,-16
2.27500,-16
2.28333,-16
2.29167,-16
2.30000,-16
2.30833,-15
2.31667,-15
2.32500,-15
2.33333,-15
2.34167,-15
2.35000,-16
2.35833,-16
2.36667,-16
2.37500,-16
2.38333,-16
2.39167,-16
2.40000,-16
2.40833,-16
2.41667,-16
2.42500,-16
2.43333,-16
2.44167,-16
2.45000,-16
2.45833,-16
2.46667,-16
2.47500,-16
2.48333,-16
2.49167,-16
2.50000,-16
2.50833,-17
2.51667,-17
2.52500,-17
2.53333,-17
2.54167,-17
2.55000,-17
2.55833,-17
2.56667,-17
2.57500,-17
2.58333,-17
2.59167,-17
2.60000,-17
2.60833,-17
2.61667,-18
2.62500,-18
2.63333,-18
2.64167,-18
2.65000,-18
2.65833,-18
2.66667,-19
2.67500,-19
2.68333,-19
2.69167,-19
2.70000,-19
2.70833,-20
2.71667,-20
2.72500,-20
2.73333,-20
2.74167,-20
2.75000,-20
2.75833,-20
2.76667,-20
2.77500,-20
2.78333,-20
2.79167,-21
2.80000,-21
2.80833,-21
2.81667,-21
2.82500,-21
2.83333,-21
2.84167,-21
2.85000,-21
2.85833,-21
2.86667,-21
2.87500,-21
2.88333,-21
2.89167,-21
2.90000,-22
2.90833,-22
2.91667,-22
2.92500,-22
2.93333,-22
2.94167,-23
2.95000,-23
2.95833,-23
2.96667,-23
2.97500,-24
2.98333,-24
2.99167,-24
3.00000,-24
3.00833,-24
3.01667,-24
3.02500,-24
3.03333,-24
3.04167,-24
3.05000,-24
3.05833,-24
3.06667,-24
3.07500,-25
3.08333,-25
3.09167,-25
3.10000,-24
3.10833,-24
3.11667,-23
3.12500,-23
3.13333,-23
3.14167,-23
3.15000,-23
3.15833,-24
3.16667,-24
3.17500,-24
3.18333,-24
3.19167,-24
3.20000,-24
3.20833,-24
3.21667,-24
3.22500,-23
3.23333,-24
3.24167,-24
3.25000,-24
3.25833,-24
3.26667,-24
3.27500,-24
3.28333,-25
3.29167,-25
3.30000,-25
3.30833,-25
3.31667,-25
3.32500,-25
3.33333,-25
3.34167,-24
3.35000,-24
3.35833,-24
3.36667,-24
3.37500,-24
3.38333,-23
3.39167,-23
3.40000,-23
3.40833,-24
3.41667,-24
3.42500,-24
3.43333,-24
3.44167,-24
3.45000,-24
3.45833,-24
3.46667,-23
3.47500,-23
3.48333,-24
3.49167,-24
3.50000,-23
3.50833,-23
3.51667,-23
3.52500,-23
3.53333,-22
3.54167,-22
3.55000,-22
3.55833,-22
3.56667,-22
3.57500,-21
3.58333,-21
3.59167,-21
3.60000,-21
3.60833,-21
3.61667,-21
3.62500,-21
3.63333,-21
3.64167,-21
3.65000,-21
3.65833,-21
3.66667,-21
3.67500,-20
3.68333,-20
3.69167,-20
3.70000,-19
3.70833,-19
3.71667,-19
3.72500,-19
3.73333,-19
3.74167,-19
3.75000,-18
3.75833,-18
3.76667,-18
3.77500,-17
3.78333,-17
3.79167,-17
3.80000,-16
3.80833,-16
3.81667,-16
3.82500,-16
3.83333,-16
3.84167,-15
3.85000,-15
3.85833,-14
3.86667,-14
3.87500,-14
3.88333,-13
3.89167,-13
3.90000,-13
3.90833,-13
3.91667,-13
3.92500,-13
3.93333,-12
3.94167,-12
3.95000,-12
3.95833,-11
3.96667,-10
3.97500,-10
3.98333,-9
3.99167,-9
4.00000,-9
4.00833,-8
4.01667,-8
4.02500,-8
4.03333,-8
4.04167,-8
4.05000,-7
4.05833,-6
4.06667,-6
4.07500,-5
4.08333,-4
4.09167,-4
4.10000,-4
4.10833,-4
4.11667,-4
4.12500,-4
4.13333,-4
4.14167,-3
4.15000,-3
4.15833,-2
4.16667,-2
4.17500,-1
4.18333,-1
4.19167,-0
4.20000,0
4.20833,1
4.21667,1
4.22500,2
4.23333,3
4.24167,4
4.25000,4
4.25833,5
4.26667,5
4.27500,6
4.28333,6
4.29167,7
4.30000,8
4.30833,9
4.31667,9
4.32500,10
4.33333,11
4.34167,12
4.35000,12
4.35833,13
4.36667,13
4.37500,14
4.38333,15
4.39167,15
4.40000,15
4.40833,16
4.41667,17
4.42500,18
4.43333,19
4.44167,19
4.45000,20
4.45833,21
4.46667,21
4.47500,22
4.48333,23
4.49167,23
4.50000,24
4.50833,24
4.51667,25
4.52500,25
4.53333,26
4.54167,27
4.55000,28
4.55833,28
4.56667,29
4.57500,30
4.58333,30
4.59167,31
4.60000,32
4.60833,32
4.61667,33
4.62500,34
4.63333,34
4.64167,35
4.65000,36
4.65833,36
4.66667,37
4.67500,38
4.68333,38
4.69167,39
4.70000,40
4.70833,40
4.71667,40
4.72500,41
4.73333,41
4.74167,42
4.75000,42
4.75833,43
4.76667,43
4.77500,43
4.78333,44
4.79167,44
4.80000,44
4.80833,45
4.81667,45
4.82500,45
4.83333,46
4.84167,46
4.85000,47
4.85833,47
4.86667,48
4.87500,48
4.88333,48
4.89167,48
4.90000,49
4.90833,49
4.91667,50
4.92500,50
4.93333,50
4.94167,51
4.95000,51
4.95833,51
4.96667,51
4.97500,51
4.98333,51
4.99167,51
5.00000,51
5.00833,52
5.01667,52
5.02500,52
5.03333,52
5.04167,52
5.05000,52
5.05833,52
5.06667,51
5.07500,51
5.08333,51
5.09167,51
5.10000,51
5.10833,51
5.11667,52
5.12500,52
5.13333,51
5.14167,51
5.15000,51
5.15833,51
5.16667,50
5.17500,50
5.18333,50
5.19167,50
5.20000,49
5.20833,49
5.21667,49
5.22500,49
5.23333,49
5.24167,49
5.25000,49
5.25833,49
5.26667,48
5.27500,48
5.28333,47
5.29167,47
5.30000,47
5.30833,46
5.31667,46
5.32500,46
5.33333,46
5.34167,46
5.35000,46
5.35833,45
5.36667,45
5.37500,44
5.38333,43
5.39167,43
5.40000,43
5.40833,43
5.41667,42
5.42500,42
5.43333,41
5.44167,41
5.45000,40
5.45833,40
5.46667,40
5.47500,39
5.48333,39
5.49167,38
5.50000,38
5.50833,38
5.51667,37
5.52500,37
5.53333,37
5.54167,36
5.55000,36
5.55833,35
5.56667,35
5.57500,34
5.58333,33
5.59167,33
5.60000,32
5.60833,32
5.61667,32
5.62500,31
5.63333,30
5.64167,29
5.65000,28
5.65833,28
5.66667,27
5.67500,27
5.68333,26
5.69167,25
5.70000,24
5.70833,23
5.71667,23
5.72500,22
5.73333,21
5.74167,20
5.75000,19
5.75833,19
5.76667,18
5.77500,18
5.78333,17
5.79167,16
5.80000,15
5.80833,15
5.81667,14
5.82500,14
5.83333,13
5.84167,12
5.85000,11
5.85833,10
5.86667,9
5.87500,8
5.88333,7
5.89167,6
5.90000,5
5.90833,4
5.91667,3
5.92500,3
5.93333,2
5.94167,1
5.95000,-0
5.95833,-1
5.96667,-2
5.97500,-2
5.98333,-3
5.99167,-4
6.00000,-5
6.00833,-6
6.01667,-7
6.02500,-7
6.03333,-8
6.04167,-9
6.05000,-10
6.05833,-10
6.06667,-11
6.07500,-12
6.08333,-12
6.09167,-13
6.10000,-15
6.10833,-16
6.11667,-17
6.12500,-18
6.13333,-18
6.14167,-19
6.15000,-19
6.15833,-20
6.16667,-21
6.17500,-21
6.18333,-22
6.19167,-23
6.20000,-23
6.20833,-25
6.21667,-25
6.22500,-26
6.23333,-27
6.24167,-27
6.25000,-28
6.25833,-29
6.26667,-29
6.27500,-30
6.28333,-31
6.29167,-31
6.30000,-32
6.30833,-32
6.31667,-33
6.32500,-34
6.33333,-34
6.34167,-35
6.35000,-35
6.35833,-35
6.36667,-36
6.37500,-37
6.38333,-37
6.39167,-37
6.40000,-38
6.40833,-38
6.41667,-39
6.42500,-39
6.43333,-40
6.44167,-41
6.45000,-42
6.45833,-42
6.46667,-43
6.47500,-43
6.48333,-43
6.49167,-43
6.50000,-44
6.50833,-45
6.51667,-45
6.52500,-46
6.53333,-46
6.54167,-46
6.55000,-46
6.55833,-47
6.56667,-47
6.57500,-47
6.58333,-47
6.59167,-48
6.60000,-48
6.60833,-48
6.61667,-48
6.62500,-49
6.63333,-49
6.64167,-49
6.65000,-50
6.65833,-50
6.66667,-51
6.67500,-51
6.68333,-51
6.69167,-52
6.70000,-52
6.70833,-52
6.71667,-52
6.72500,-53
6.73333,-53
6.74167,-54
6.75000,-54
6.75833,-54
6.76667,-54
6.77500,-54
6.78333,-54
6.79167,-54
6.80000,-55
6.80833,-55
6.81667,-56
6.82500,-56
6.83333,-56
6.84167,-56
6.85000,-56
6.85833,-56
6.86667,-56
6.87500,-56
6.88333,-56
6.89167,-56
6.90000,-56
6.90833,-56
6.91667,-56
6.92500,-56
6.93333,-56
6.94167,-56
6.95000,-57
6.95833,-57
6.96667,-57
6.97500,-57
6.98333,-57
6.99167,-57
7.00000,-57
7.00833,-57
7.01667,-58
7.02500,-58
7.03333,-58
7.04167,-58
7.05000,-58
7.05833,-59
7.06667,-59
7.07500,-59
7.08333,-59
7.09167,-59
7.10000,-59
7.10833,-59
7.11667,-59
7.12500,-59
7.13333,-59
7.14167,-60
7.15000,-60
7.15833,-60
7.16667,-60
7.17500,-60
7.18333,-60
7.19167,-60
7.20000,-59
7.20833,-59
7.21667,-60
7.22500,-60
7.23333,-59
7.24167,-59
7.25000,-59
7.25833,-59
7.26667,-59
7.27500,-59
7.28333,-59
7.29167,-59
7.30000,-59
7.30833,-59
7.31667,-60
7.32500,-59
7.33333,-59
7.34167,-60
7.35000,-60
7.35833,-59
7.36667,-59
7.37500,-59
7.38333,-59
7.39167,-59
7.40000,-59
7.40833,-59
7.41667,-60
7.42500,-60
7.43333,-60
7.44167,-60
7.45000,-60
7.45833,-60
7.46667,-60
7.47500,-60
7.48333,-60
7.49167,-60
7.50000,-59
7.50833,-60
7.51667,-60
7.52500,-61
7.53333,-61
7.54167,-60
7.55000,-60
7.55833,-60
7.56667,-60
7.57500,-60
7.58333,-60
7.59167,-61
7.60000,-60
7.60833,-60
7.61667,-60
7.62500,-60
7.63333,-60
7.64167,-60
7.65000,-61
7.65833,-60
7.66667,-60
7.67500,-60
7.68333,-60
7.69167,-61
7.70000,-61
7.70833,-61
7.71667,-61
7.72500,-60
7.73333,-60
7.74167,-60
7.75000,-60
7.75833,-60
7.76667,-60
7.77500,-61
7.78333,-61
7.79167,-61
7.80000,-61
7.80833,-61
7.81667,-61
7.82500,-61
7.83333,-61
7.84167,-61
7.85000,-61
7.85833,-61
7.86667,-61
7.87500,-61
7.88333,-61
7.89167,-61
7.90000,-61
7.90833,-61
7.91667,-61
7.92500,-61
7.93333,-61
7.94167,-61
7.95000,-61
7.95833,-61
7.96667,-61
7.97500,-61
7.98333,-61
7.99167,-61
8.00000,-61
8.00833,-61
8.01667,-61
8.02500,-61
8.03333,-61
8.04167,-61
8.05000,-62
8.05833,-62
8.06667,-62
8.07500,-62
8.08333,-61
8.09167,-62
8.10000,-62
8.10833,-62
8.11667,-62
8.12500,-62
8.13333,-62
8.14167,-62
8.15000,-62
8.15833,-62
8.16667,-61
8.17500,-61
8.18333,-61
8.19167,-62
8.20000,-62
8.20833,-63
8.21667,-63
8.22500,-63
8.23333,-63
8.24167,-63
8.25000,-63
8.25833,-63
8.26667,-64
8.27500,-64
8.28333,-65
8.29167,-64
8.30000,-64
8.30833,-64
8.31667,-64
8.32500,-64
8.33333,-64
8.34167,-64
8.35000,-64
8.35833,-64
8.36667,-64
8.37500,-64
8.38333,-64
8.39167,-64
8.40000,-64
8.40833,-64
8.41667,-64
8.42500,-64
8.43333,-64
8.44167,-64
8.45000,-64
8.45833,-64
8.46667,-64
8.47500,-65
8.48333,-65
8.49167,-65
8.50000,-65
8.50833,-65
8.51667,-65
8.52500,-65
8.53333,-65
8.54167,-65
8.55000,-64
8.55833,-64
8.56667,-64
8.57500,-64
8.58333,-64
8.59167,-64
8.60000,-64
8.60833,-64
8.61667,-64
8.62500,-64
8.63333,-64
8.64167,-64
8.65000,-64
8.65833,-65
8.66667,-65
8.67500,-65
8.68333,-64
8.69167,-64
8.70000,-64
8.70833,-65
8.71667,-65
8.72500,-65
8.73333,-65
8.74167,-65
8.75000,-65
8.75833,-65
8.76667,-65
8.77500,-65
8.78333,-65
8.79167,-65
8.80000,-65
8.80833,-64
8.81667,-64
8.82500,-64
8.83333,-64
8.84167,-63
8.85000,-63
8.85833,-64
8.86667,-64
8.87500,-64
8.88333,-64
8.89167,-64
8.90000,-64
8.90833,-65
8.91667,-65
8.92500,-65
8.93333,-65
8.94167,-65
8.95000,-66
8.95833,-66
8.96667,-65
8.97500,-65
8.98333,-65
8.99167,-65
9.00000,-65
9.00833,-65
9.01667,-65
9.02500,-65
9.03333,-65
9.04167,-64
9.05000,-64
9.05833,-64
9.06667,-64
9.07500,-64
9.08333,-64
9.09167,-64
9.10000,-64
9.10833,-65
9.11667,-65
9.12500,-66
9.13333,-66
9.14167,-66
9.15000,-65
9.15833,-65
9.16667,-65
9.17500,-65
9.18333,-64
9.19167,-64
9.20000,-64
9.20833,-64
9.21667,-65
9.22500,-64
9.23333,-65
9.24167,-65
9.25000,-65
9.25833,-65
9.26667,-65
9.27500,-65
9.28333,-65
9.29167,-65
9.30000,-65
9.30833,-64
9.31667,-64
9.32500,-64
9.33333,-64
9.34167,-65
9.35000,-64
9.35833,-64
9.36667,-64
9.37500,-64
9.38333,-64
9.39167,-64
9.40000,-64
9.40833,-64
9.41667,-64
9.42500,-64
9.43333,-64
9.44167,-64
9.45000,-64
9.45833,-64
9.46667,-64
9.47500,-64
9.48333,-65
9.49167,-65
9.50000,-65
9.50833,-65
9.51667,-65
9.52500,-65
9.53333,-64
9.54167,-64
9.55000,-64
9.55833,-64
9.56667,-63
9.57500,-63
9.58333,-63
9.59167,-63
9.60000,-63
9.60833,-63
9.61667,-63
9.62500,-63
9.63333,-63
9.64167,-63
9.65000,-63
9.65833,-64
9.66667,-64
9.67500,-63
9.68333,-63
9.69167,-63
9.70000,-63
9.70833,-63
9.71667,-63
9.72500,-63
9.73333,-63
9.74167,-62
9.75000,-62
9.75833,-62
9.76667,-62
9.77500,-62
9.78333,-62
9.79167,-62
9.80000,-62
9.80833,-62
9.81667,-62
9.82500,-62
9.83333,-62
9.84167,-62
9.85000,-62
9.85833,-62
9.86667,-62
9.87500,-62
9.88333,-62
9.89167,-63
9.90000,-63
9.90833,-63
9.91667,-63
9.92500,-62
9.93333,-62
9.94167,-61
9.95000,-61
9.95833,-61
9.96667,-61
9.97500,-61
9.98333,-61
9.99167,-61
10.00000,-61
10.00833,-61
10.01667,-60
10.02500,-60
10.03333,-59
10.04167,-59
10.05000,-58
10.05833,-58
10.06667,-58
10.07500,-58
10.08333,-58
10.09167,-58
10.10000,-57
10.10833,-57
10.11667,-56
10.12500,-55
10.13333,-54
10.14167,-54
10.15000,-53
10.15833,-52
10.16667,-51
10.17500,-50
10.18333,-49
10.19167,-48
10.20000,-47
10.20833,-45
10.21667,-44
10.22500,-42
10.23333,-40
10.24167,-38
10.25000,-36
10.25833,-34
10.26667,-31
10.27500,-28
10.28333,-24
10.29167,-20
10.30000,-15
10.30833,-10
10.31667,-3
10.32500,5
10.33333,15
10.34167,26
10.35000,38
10.35833,53
10.36667,68
10.37500,86
10.38333,104
10.39167,123
10.40000,144
10.40833,165
10.41667,186
10.42500,206
10.43333,224
10.44167,239
10.45000,252
10.45833,261
10.46667,267
10.47500,269
10.48333,269
10.49167,268
10.50000,266
10.50833,266
10.51667,271
10.52500,283
10.53333,306
10.54167,345
10.55000,404
10.55833,489
10.56667,605
10.57500,757
10.58333,952
10.59167,1196
10.60000,1496
10.60833,1856
10.61667,2284
10.62500,2785
10.63333,3366
10.64167,4031
10.65000,4786
10.65833,5637
10.66667,6587
10.67500,7641
10.68333,8802
10.69167,10075
10.70000,11462
10.70833,12965
10.71667,14588
10.72500,16333
10.73333,18199
10.74167,20190
10.75000,22305
10.75833,24543
10.76667,26905
10.77500,29391
10.78333,31998
10.79167,34725
10.80000,37571
10.80833,40533
10.81667,43607
10.82500,46789
10.83333,50074
10.84167,53458
10.85000,56934
10.85833,60493
10.86667,64128
10.87500,67828
10.88333,71579
10.89167,75369
10.90000,79180
10.90833,82990
10.91667,86777
10.92500,90513
10.93333,94167
10.94167,97701
10.95000,101075
10.95833,104242
10.96667,107153
10.97500,109753
10.98333,111988
10.99167,113800
11.00000,115132
11.00833,115932
11.01667,116153
11.02500,115756
11.03333,114714
11.04167,113015
11.05000,110664
11.05833,107682
11.06667,104109
11.07500,100002
11.08333,95433
11.09167,90487
11.10000,85255
11.10833,79833
11.11667,74318
11.12500,68799
11.13333,63359
11.14167,58070
11.15000,52994
11.15833,48177
11.16667,43655
11.17500,39451
11.18333,35575
11.19167,32032
11.20000,28814
11.20833,25911
11.21667,23306
11.22500,20979
11.23333,18910
11.24167,17076
11.25000,15454
11.25833,14024
11.26667,12765
11.27500,11656
11.28333,10680
11.29167,9822
11.30000,9065
11.30833,8398
11.31667,7808
11.32500,7285
11.33333,6821
11.34167,6406
11.35000,6036
11.35833,5703
11.36667,5403
11.37500,5131
11.38333,4884
11.39167,4658
11.40000,4452
11.40833,4261
11.41667,4084
11.42500,3920
11.43333,3767
11.44167,3624
11.45000,3490
11.45833,3363
11.46667,3244
11.47500,3131
11.48333,3024
11.49167,2922
11.50000,2825
11.50833,2732
11.51667,2644
11.52500,2559
11.53333,2478
11.54167,2401
11.55000,2327
11.55833,2256
11.56667,2188
11.57500,2123
11.58333,2060
11.59167,2000
11.60000,1942
11.60833,1887
11.61667,1833
11.62500,1782
11.63333,1732
11.64167,1684
11.65000,1639
11.65833,1594
11.66667,1552
11.67500,1512
11.68333,1472
11.69167,1435
11.70000,1399
11.70833,1364
11.71667,1331
11.72500,1298
11.73333,1268
11.74167,1238
11.75000,1208
11.75833,1180
11.76667,1153
11.77500,1127
11.78333,1103
11.79167,1079
11.80000,1057
11.80833,1036
11.81667,1015
11.82500,995
11.83333,976
11.84167,958
11.85000,941
11.85833,924
11.86667,908
11.87500,892
11.88333,878
11.89167,863
11.90000,849
11.90833,836
11.91667,823
11.92500,812
11.93333,800
11.94167,789
11.95000,778
11.95833,768
11.96667,758
11.97500,748
11.98333,739
11.99167,731
12.00000,723
12.00833,715
12.01667,707
12.02500,699
12.03333,692
12.04167,686
12.05000,679
12.05833,673
12.06667,667
12.07500,662
12.08333,656
12.09167,651
12.10000,646
12.10833,641
12.11667,636
12.12500,631
12.13333,627
12.14167,623
12.15000,619
12.15833,616
12.16667,613
12.17500,610
12.18333,607
12.19167,604
12.20000,602
12.20833,599
12.21667,597
12.22500,595
12.23333,594
12.24167,593
12.25000,593
12.25833,592
12.26667,590
12.27500,590
12.28333,589
12.29167,588
12.30000,588
12.30833,587
12.31667,587
12.32500,586
12.33333,586
12.34167,586
12.35000,586
12.35833,586
12.36667,586
12.37500,585
12.38333,585
12.39167,584
12.40000,584
12.40833,584
12.41667,584
12.42500,584
12.43333,584
12.44167,583
12.45000,583
12.45833,582
12.46667,580
12.47500,579
12.48333,578
12.49167,577
12.50000,575
12.50833,573
12.51667,572
12.52500,570
12.53333,569
12.54167,567
12.55000,565
12.55833,564
12.56667,562
12.57500,560
12.58333,557
12.59167,556
12.60000,554
12.60833,552
12.61667,550
12.62500,548
12.63333,546
12.64167,545
12.65000,544
12.65833,544
12.66667,544
12.67500,544
12.68333,545
12.69167,548
12.70000,551
12.70833,555
12.71667,560
12.72500,567
12.73333,576
12.74167,587
12.75000,599
12.75833,615
12.76667,633
12.77500,653
12.78333,677
12.79167,705
12.80000,735
12.80833,770
12.81667,809
12.82500,852
12.83333,899
12.84167,951
12.85000,1008
12.85833,1070
12.86667,1137
12.87500,1210
12.88333,1288
12.89167,1371
12.90000,1460
12.90833,1555
12.91667,1655
12.92500,1761
12.93333,1873
12.94167,1991
12.95000,2115
12.95833,2245
12.96667,2380
12.97500,2521
12.98333,2668
12.99167,2822
13.00000,2981
13.00833,3146
13.01667,3317
13.02500,3494
13.03333,3677
13.04167,3865
13.05000,4058
13.05833,4257
13.06667,4462
13.07500,4672
13.08333,4887
13.09167,5108
13.10000,5333
13.10833,5564
13.11667,5800
13.12500,6040
13.13333,6285
13.14167,6534
13.15000,6788
13.15833,7046
13.16667,7308
13.17500,7575
13.18333,7846
13.19167,8121
13.20000,8400
13.20833,8682
13.21667,8969
13.22500,9259
13.23333,9553
13.24167,9850
13.25000,10151
13.25833,10454
13.26667,10762
13.27500,11072
13.28333,11386
13.29167,11704
13.30000,12024
13.30833,12347
13.31667,12674
13.32500,13003
13.33333,13336
13.34167,13671
13.35000,14009
13.35833,14351
13.36667,14696
13.37500,15043
13.38333,15392
13.39167,15745
13.40000,16101
13.40833,16460
13.41667,16821
13.42500,17186
13.43333,17553
13.44167,17924
13.45000,18298
13.45833,18675
13.46667,19054
13.47500,19437
13.48333,19822
13.49167,20211
13.50000,20603
13.50833,20998
13.51667,21396
13.52500,21797
13.53333,22201
13.54167,22609
13.55000,23020
13.55833,23434
13.56667,23851
13.57500,24272
13.58333,24696
13.59167,25123
13.60000,25554
13.60833,25988
13.61667,26426
13.62500,26867
13.63333,27312
13.64167,27760
13.65000,28212
13.65833,28667
13.66667,29126
13.67500,29589
13.68333,30056
13.69167,30527
13.70000,31001
13.70833,31480
13.71667,31962
13.72500,32448
13.73333,32938
13.74167,33432
13.75000,33930
13.75833,34433
13.76667,34939
13.77500,35450
13.78333,35965
13.79167,36485
13.80000,37008
13.80833,37536
13.81667,38068
13.82500,38605
13.83333,39146
13.84167,39691
13.85000,40241
13.85833,40796
13.86667,41356
13.87500,41919
13.88333,42488
13.89167,43062
13.90000,43641
13.90833,44225
13.91667,44814
13.92500,45408
13.93333,46006
13.94167,46610
13.95000,47220
13.95833,47834
13.96667,48454
13.97500,49080
13.98333,49711
13.99167,50348
14.00000,50990
14.00833,51638
14.01667,52292
14.02500,52951
14.03333,53615
14.04167,54286
14.05000,54963
14.05833,55646
14.06667,56335
14.07500,57031
14.08333,57732
14.09167,58441
14.10000,59155
14.10833,59876
14.11667,60604
14.12500,61338
14.13333,62079
14.14167,62827
14.15000,63582
14.15833,64343
14.16667,65112
14.17500,65888
14.18333,66671
14.19167,67461
14.20000,68257
14.20833,69058
14.21667,69862
14.22500,70665
14.23333,71464
14.24167,72253
14.25000,73024
14.25833,73769
14.26667,74478
14.27500,75138
14.28333,75738
14.29167,76266
14.30000,76707
14.30833,77051
14.31667,77286
14.32500,77401
14.33333,77389
14.34167,77243
14.35000,76957
14.35833,76527
14.36667,75950
14.37500,75223
14.38333,74344
14.39167,73311
14.40000,72121
14.40833,70773
14.41667,69265
14.42500,67595
14.43333,65764
14.44167,63773
14.45000,61627
14.45833,59332
14.46667,56900
14.47500,54346
14.48333,51686
14.49167,48943
14.50000,46142
14.50833,43308
14.51667,40469
14.52500,37653
14.53333,34885
14.54167,32192
14.55000,29594
14.55833,27111
14.56667,24757
14.57500,22545
14.58333,20482
14.59167,18572
14.60000,16816
14.60833,15213
14.61667,13756
14.62500,12439
14.63333,11255
14.64167,10195
14.65000,9248
14.65833,8406
14.66667,7658
14.67500,6996
14.68333,6410
14.69167,5892
14.70000,5435
14.70833,5030
14.71667,4673
14.72500,4357
14.73333,4076
14.74167,3828
14.75000,3606
14.75833,3409
14.76667,3233
14.77500,3075
14.78333,2932
14.79167,2803
14.80000,2686
14.80833,2579
14.81667,2482
14.82500,2393
14.83333,2311
14.84167,2235
14.85000,2165
14.85833,2100
14.86667,2039
14.87500,1982
14.88333,1928
14.89167,1878
14.90000,1830
14.90833,1786
14.91667,1744
14.92500,1704
14.93333,1666
14.94167,1630
14.95000,1597
14.95833,1564
14.96667,1533
14.97500,1503
14.98333,1475
14.99167,1448
15.00000,1423
15.00833,1399
15.01667,1376
15.02500,1354
15.03333,1333
15.04167,1314
15.05000,1295
15.05833,1277
15.06667,1261
15.07500,1245
15.08333,1231
15.09167,1217
15.10000,1205
15.10833,1193
15.11667,1181
15.12500,1171
15.13333,1162
15.14167,1153
15.15000,1147
15.15833,1141
15.16667,1137
15.17500,1135
15.18333,1136
15.19167,1139
15.20000,1145
15.20833,1155
15.21667,1169
15.22500,1189
15.23333,1215
15.24167,1249
15.25000,1292
15.25833,1346
15.26667,1412
15.27500,1493
15.28333,1590
15.29167,1706
15.30000,1844
15.30833,2005
15.31667,2193
15.32500,2411
15.33333,2662
15.34167,2950
15.35000,3277
15.35833,3647
15.36667,4063
15.37500,4528
15.38333,5045
15.39167,5618
15.40000,6247
15.40833,6937
15.41667,7687
15.42500,8500
15.43333,9375
15.44167,10314
15.45000,11316
15.45833,12378
15.46667,13500
15.47500,14679
15.48333,15912
15.49167,17194
15.50000,18522
15.50833,19889
15.51667,21291
15.52500,22720
15.53333,24172
15.54167,25638
15.55000,27112
15.55833,28586
15.56667,30053
15.57500,31507
15.58333,32939
15.59167,34344
15.60000,35713
15.60833,37042
15.61667,38323
15.62500,39552
15.63333,40723
15.64167,41832
15.65000,42874
15.65833,43847
15.66667,44746
15.67500,45569
15.68333,46315
15.69167,46980
15.70000,47564
15.70833,48066
15.71667,48484
15.72500,48818
15.73333,49068
15.74167,49234
15.75000,49315
15.75833,49313
15.76667,49228
15.77500,49060
15.78333,48812
15.79167,48484
15.80000,48079
15.80833,47597
15.81667,47040
15.82500,46413
15.83333,45716
15.84167,44954
15.85000,44129
15.85833,43245
15.86667,42306
15.87500,41316
15.88333,40279
15.89167,39199
15.90000,38082
15.90833,36931
15.91667,35754
15.92500,34553
15.93333,33334
15.94167,32103
15.95000,30864
15.95833,29622
15.96667,28382
15.97500,27148
15.98333,25925
15.99167,24718
16.00000,23529
16.00833,22363
16.01667,21222
16.02500,20110
16.03333,19029
16.04167,17982
16.05000,16971
16.05833,15996
16.06667,15060
16.07500,14164
16.08333,13306
16.09167,12489
16.10000,11712
16.10833,10975
16.11667,10278
16.12500,9620
16.13333,9001
16.14167,8419
16.15000,7873
16.15833,7362
16.16667,6885
16.17500,6440
16.18333,6025
16.19167,5641
16.20000,5284
16.20833,4954
16.21667,4648
16.22500,4366
16.23333,4106
16.24167,3866
16.25000,3645
16.25833,3442
16.26667,3256
16.27500,3085
16.28333,2928
16.29167,2784
16.30000,2652
16.30833,2531
16.31667,2421
16.32500,2319
16.33333,2226
16.34167,2140
16.35000,2062
16.35833,1990
16.36667,1924
16.37500,1864
16.38333,1807
16.39167,1756
16.40000,1708
16.40833,1663
16.41667,1622
16.42500,1583
16.43333,1547
16.44167,1513
16.45000,1482
16.45833,1452
16.46667,1424
16.47500,1398
16.48333,1373
16.49167,1348
16.50000,1325
16.50833,1303
16.51667,1282
16.52500,1261
16.53333,1241
16.54167,1222
16.55000,1203
16.55833,1184
16.56667,1166
16.57500,1148
16.58333,1130
16.59167,1113
16.60000,1096
16.60833,1080
16.61667,1063
16.62500,1047
16.63333,1031
16.64167,1016
16.65000,1001
16.65833,986
16.66667,972
16.67500,958
16.68333,944
16.69167,930
16.70000,917
16.70833,905
16.71667,893
16.72500,881
16.73333,870
16.74167,860
16.75000,850
16.75833,840
16.76667,830
16.77500,821
16.78333,813
16.79167,805
16.80000,797
16.80833,790
16.81667,783
16.82500,777
16.83333,771
16.84167,766
16.85000,761
16.85833,757
16.86667,753
16.87500,749
16.88333,745
16.89167,741
16.90000,738
16.90833,734
16.91667,731
16.92500,729
16.93333,726
16.94167,724
16.95000,722
16.95833,719
16.96667,717
16.97500,715
16.98333,713
16.99167,711
17.00000,709
17.00833,707
17.01667,705
17.02500,704
17.03333,702
17.04167,700
17.05000,698
17.05833,696
17.06667,694
17.07500,692
17.08333,690
17.09167,688
17.10000,687
17.10833,685
17.11667,683
17.12500,681
17.13333,679
17.14167,677
17.15000,675
17.15833,672
17.16667,670
17.17500,668
17.18333,666
17.19167,664
17.20000,661
17.20833,659
17.21667,656
17.22500,654
17.23333,651
17.24167,648
17.25000,646
17.25833,643
17.26667,640
17.27500,637
17.28333,634
17.29167,631
17.30000,628
17.30833,625
17.31667,622
17.32500,620
17.33333,617
17.34167,615
17.35000,613
17.35833,610
17.36667,608
17.37500,606
17.38333,604
17.39167,602
17.40000,600
17.40833,599
17.41667,598
17.42500,598
17.43333,598
17.44167,599
17.45000,599
17.45833,600
17.46667,600
17.47500,602
17.48333,604
17.49167,605
17.50000,608
17.50833,610
17.51667,614
17.52500,617
17.53333,621
17.54167,625
17.55000,629
17.55833,634
17.56667,639
17.57500,644
17.58333,650
17.59167,655
17.60000,660
17.60833,666
17.61667,671
17.62500,677
17.63333,683
17.64167,690
17.65000,696
17.65833,702
17.66667,708
17.67500,713
17.68333,719
17.69167,724
17.70000,730
17.70833,736
17.71667,742
17.72500,747
17.73333,752
17.74167,756
17.75000,761
17.75833,765
17.76667,769
17.77500,772
17.78333,776
17.79167,779
17.80000,782
17.80833,785
17.81667,787
17.82500,789
17.83333,791
17.84167,792
17.85000,793
17.85833,794
17.86667,794
17.87500,793
17.88333,792
17.89167,791
17.90000,789
17.90833,787
17.91667,785
17.92500,782
17.93333,779
17.94167,775
17.95000,771
17.95833,767
17.96667,763
17.97500,757
17.98333,752
17.99167,746
18.00000,740
18.00833,734
18.01667,727
18.02500,720
18.03333,713
18.04167,706
18.05000,699
18.05833,692
18.06667,684
18.07500,677
18.08333,670
18.09167,662
18.10000,655
18.10833,647
18.11667,639
18.12500,631
18.13333,622
18.14167,614
18.15000,606
18.15833,598
18.16667,590
18.17500,583
18.18333,576
18.19167,569
18.20000,562
18.20833,555
18.21667,548
18.22500,543
18.23333,537
18.24167,531
18.25000,525
18.25833,519
18.26667,513
18.27500,508
18.28333,503
18.29167,499
18.30000,495
18.30833,491
18.31667,488
18.32500,485
18.33333,482
18.34167,479
18.35000,477
18.35833,475
18.36667,474
18.37500,473
18.38333,472
18.39167,471
18.40000,471
18.40833,471
18.41667,471
18.42500,472
18.43333,473
18.44167,474
18.45000,475
18.45833,477
18.46667,479
18.47500,480
18.48333,482
18.49167,485
18.50000,487
18.50833,490
18.51667,493
18.52500,497
18.53333,500
18.54167,504
18.55000,508
18.55833,512
18.56667,516
18.57500,520
18.58333,524
18.59167,529
18.60000,533
18.60833,537
18.61667,542
18.62500,546
18.63333,551
18.64167,557
18.65000,562
18.65833,567
18.66667,572
18.67500,577
18.68333,582
18.69167,587
18.70000,591
18.70833,596
18.71667,601
18.72500,606
18.73333,612
18.74167,617
18.75000,622
18.75833,627
18.76667,632
18.77500,636
18.78333,641
18.79167,646
18.80000,650
18.80833,655
18.81667,659
18.82500,663
18.83333,668
18.84167,673
18.85000,677
18.85833,682
18.86667,686
18.87500,690
18.88333,694
18.89167,697
18.90000,701
18.90833,705
18.91667,708
18.92500,711
18.93333,714
18.94167,717
18.95000,720
18.95833,723
18.96667,725
18.97500,728
18.98333,731
18.99167,734
19.00000,736
19.00833,738
19.01667,740
19.02500,742
19.03333,744
19.04167,745
19.05000,746
19.05833,747
19.06667,748
19.07500,748
19.08333,748
19.09167,748
19.10000,748
19.10833,748
19.11667,747
19.12500,747
19.13333,746
19.14167,745
19.15000,744
19.15833,742
19.16667,739
19.17500,738
19.18333,735
19.19167,733
19.20000,730
19.20833,727
19.21667,724
19.22500,721
19.23333,718
19.24167,714
19.25000,710
19.25833,706
19.26667,702
19.27500,697
19.28333,693
19.29167,688
19.30000,683
19.30833,678
19.31667,673
19.32500,668
19.33333,662
19.34167,657
19.35000,651
19.35833,645
19.36667,639
19.37500,633
19.38333,626
19.39167,620
19.40000,614
19.40833,607
19.41667,601
19.42500,595
19.43333,588
19.44167,582
19.45000,576
19.45833,569
19.46667,562
19.47500,555
19.48333,548
19.49167,542
19.50000,535
19.50833,529
19.51667,522
19.52500,516
19.53333,510
19.54167,503
19.55000,497
19.55833,491
19.56667,485
19.57500,480
19.58333,474
19.59167,469
19.60000,464
19.60833,458
19.61667,453
19.62500,448
19.63333,443
19.64167,438
19.65000,434
19.65833,430
19.66667,426
19.67500,423
19.68333,419
19.69167,416
19.70000,413
19.70833,411
19.71667,409
19.72500,407
19.73333,406
19.74167,404
19.75000,404
19.75833,403
19.76667,403
19.77500,404
19.78333,405
19.79167,406
19.80000,408
19.80833,411
19.81667,414
19.82500,418
19.83333,422
19.84167,426
19.85000,432
19.85833,438
19.86667,444
19.87500,451
19.88333,459
19.89167,467
19.90000,476
19.90833,486
19.91667,496
19.92500,506
19.93333,518
19.94167,529
19.95000,542
19.95833,554
19.96667,568
19.97500,581
19.98333,596
19.99167,611
20.00000,626
20.00833,641
20.01667,656
20.02500,671
20.03333,687
20.04167,702
20.05000,718
20.05833,734
20.06667,750
20.07500,766
20.08333,781
20.09167,796
20.10000,811
20.10833,825
20.11667,839
20.12500,853
20.13333,867
20.14167,880
20.15000,892
20.15833,905
20.16667,916
20.17500,926
20.18333,936
20.19167,946
20.20000,954
20.20833,963
20.21667,970
20.22500,977
20.23333,983
20.24167,989
20.25000,994
20.25833,998
20.26667,1002
20.27500,1005
20.28333,1008
20.29167,1009
20.30000,1011
20.30833,1011
20.31667,1011
20.32500,1011
20.33333,1009
20.34167,1007
20.35000,1005
20.35833,1002
20.36667,998
20.37500,994
20.38333,990
20.39167,986
20.40000,981
20.40833,975
20.41667,970
20.42500,965
20.43333,959
20.44167,953
20.45000,947
20.45833,942
20.46667,936
20.47500,930
20.48333,925
20.49167,920
20.50000,915
20.50833,910
20.51667,906
20.52500,902
20.53333,898
20.54167,895
20.55000,893
20.55833,891
20.56667,890
20.57500,889
20.58333,889
20.59167,890
20.60000,891
20.60833,892
20.61667,894
20.62500,896
20.63333,899
20.64167,901
20.65000,905
20.65833,909
20.66667,913
20.67500,918
20.68333,923
20.69167,928
20.70000,934
20.70833,940
20.71667,945
20.72500,951
20.73333,957
20.74167,963
20.75000,968
20.75833,974
20.76667,980
20.77500,986
20.78333,991
20.79167,996
20.80000,1001
20.80833,1006
20.81667,1010
20.82500,1015
20.83333,1018
20.84167,1022
20.85000,1025
20.85833,1028
20.86667,1031
20.87500,1033
20.88333,1035
20.89167,1036
20.90000,1037
20.90833,1038
20.91667,1039
20.92500,1039
20.93333,1039
20.94167,1039
20.95000,1038
20.95833,1036
20.96667,1035
20.97500,1033
20.98333,1030
20.99167,1027
21.00000,1024
21.00833,1021
21.01667,1018
21.02500,1014
21.03333,1011
21.04167,1007
21.05000,1003
21.05833,999
21.06667,995
21.07500,990
21.08333,986
21.09167,981
21.10000,976
21.10833,972
21.11667,967
21.12500,963
21.13333,959
21.14167,955
21.15000,951
21.15833,947
21.16667,944
21.17500,940
21.18333,937
21.19167,934
21.20000,932
21.20833,929
21.21667,927
21.22500,925
21.23333,924
21.24167,922
21.25000,921
21.25833,919
21.26667,918
21.27500,917
21.28333,916
21.29167,915
21.30000,915
21.30833,915
21.31667,915
21.32500,916
21.33333,916
21.34167,917
21.35000,917
21.35833,918
21.36667,919
21.37500,920
21.38333,921
21.39167,922
21.40000,924
21.40833,927
21.41667,929
21.42500,932
21.43333,934
21.44167,937
21.45000,940
21.45833,944
21.46667,947
21.47500,951
21.48333,955
21.49167,959
21.50000,964
21.50833,969
21.51667,975
21.52500,980
21.53333,986
21.54167,992
21.55000,998
21.55833,1004
21.56667,1010
21.57500,1016
21.58333,1023
21.59167,1029
21.60000,1035
21.60833,1041
21.61667,1047
21.62500,1053
21.63333,1058
21.64167,1063
21.65000,1068
21.65833,1072
21.66667,1076
21.67500,1080
21.68333,1083
21.69167,1086
21.70000,1088
21.70833,1090
21.71667,1091
21.72500,1092
21.73333,1092
21.74167,1092
21.75000,1092
21.75833,1091
21.76667,1089
21.77500,1087
21.78333,1084
21.79167,1082
21.80000,1078
21.80833,1075
21.81667,1071
21.82500,1066
21.83333,1061
21.84167,1057
21.85000,1052
21.85833,1047
21.86667,1042
21.87500,1036
21.88333,1030
21.89167,1024
21.90000,1017
21.90833,1010
21.91667,1003
21.92500,996
21.93333,988
21.94167,980
21.95000,972
21.95833,964
21.96667,956
21.97500,948
21.98333,939
21.99167,930
22.00000,920
22.00833,909
22.01667,899
22.02500,888
22.03333,877
22.04167,865
22.05000,853
22.05833,841
22.06667,828
22.07500,816
22.08333,802
22.09167,789
22.10000,775
22.10833,760
22.11667,746
22.12500,731
22.13333,716
22.14167,701
22.15000,686
22.15833,671
22.16667,656
22.17500,641
22.18333,626
22.19167,611
22.20000,596
22.20833,581
22.21667,566
22.22500,552
22.23333,538
22.24167,525
22.25000,512
22.25833,499
22.26667,486
22.27500,473
22.28333,461
22.29167,449
22.30000,438
22.30833,427
22.31667,416
22.32500,406
22.33333,396
22.34167,387
22.35000,378
22.35833,369
22.36667,361
22.37500,354
22.38333,347
22.39167,340
22.40000,334
22.40833,328
22.41667,323
22.42500,318
22.43333,313
22.44167,308
22.45000,304
22.45833,300
22.46667,297
22.47500,293
22.48333,290
22.49167,288
22.50000,285
22.50833,283
22.51667,281
22.52500,280
22.53333,278
22.54167,277
22.55000,277
22.55833,276
22.56667,276
22.57500,275
22.58333,275
22.59167,275
22.60000,275
22.60833,275
22.61667,276
22.62500,277
22.63333,278
22.64167,279
22.65000,280
22.65833,282
22.66667,284
22.67500,285
22.68333,287
22.69167,288
22.70000,291
22.70833,293
22.71667,295
22.72500,298
22.73333,300
22.74167,303
22.75000,306
22.75833,309
22.76667,312
22.77500,315
22.78333,318
22.79167,322
22.80000,324
22.80833,327
22.81667,331
22.82500,334
22.83333,337
22.84167,340
22.85000,344
22.85833,347
22.86667,351
22.87500,354
22.88333,357
22.89167,361
22.90000,363
22.90833,367
22.91667,370
22.92500,374
22.93333,377
22.94167,380
22.95000,383
22.95833,386
22.96667,388
22.97500,391
22.98333,394
22.99167,396
23.00000,398
23.00833,401
23.01667,403
23.02500,405
23.03333,406
23.04167,408
23.05000,410
23.05833,412
23.06667,414
23.07500,415
23.08333,417
23.09167,418
23.10000,419
23.10833,421
23.11667,422
23.12500,422
23.13333,423
23.14167,423
23.15000,424
23.15833,424
23.16667,424
23.17500,424
23.18333,424
23.19167,424
23.20000,423
23.20833,423
23.21667,423
23.22500,422
23.23333,421
23.24167,420
23.25000,419
23.25833,418
23.26667,416
23.27500,415
23.28333,414
23.29167,413
23.30000,412
23.30833,410
23.31667,409
23.32500,407
23.33333,405
23.34167,403
23.35000,401
23.35833,400
23.36667,398
23.37500,397
23.38333,396
23.39167,394
23.40000,393
23.40833,392
23.41667,390
23.42500,389
23.43333,387
23.44167,386
23.45000,385
23.45833,384
23.46667,383
23.47500,381
23.48333,380
23.49167,378
23.50000,377
23.50833,376
23.51667,375
23.52500,374
23.53333,374
23.54167,373
23.55000,372
23.55833,371
23.56667,371
23.57500,370
23.58333,369
23.59167,369
23.60000,368
23.60833,368
23.61667,368
23.62500,368
23.63333,367
23.64167,367
23.65000,367
23.65833,366
23.66667,366
23.67500,365
23.68333,364
23.69167,364
23.70000,364
23.70833,364
23.71667,363
23.72500,363
23.73333,363
23.74167,362
23.75000,362
23.75833,362
23.76667,362
23.77500,361
23.78333,361
23.79167,361
23.80000,360
23.80833,360
23.81667,359
23.82500,358
23.83333,358
23.84167,357
23.85000,356
23.85833,356
23.86667,355
23.87500,355
23.88333,354
23.89167,354
23.90000,353
23.90833,353
23.91667,352
23.92500,351
23.93333,350
23.94167,350
23.95000,349
23.95833,349
23.96667,348
23.97500,348
23.98333,347
23.99167,346
24.00000,346
24.00833,345
24.01667,345
24.02500,344
24.03333,343
24.04167,342
24.05000,341
24.05833,340
24.06667,339
24.07500,339
24.08333,339
24.09167,338
24.10000,338
24.10833,338
24.11667,337
24.12500,336
24.13333,335
24.14167,334
24.15000,333
24.15833,333
24.16667,332
24.17500,332
24.18333,332
24.19167,332
24.20000,332
24.20833,332
24.21667,332
24.22500,332
24.23333,332
24.24167,331
24.25000,331
24.25833,331
24.26667,330
24.27500,330
24.28333,331
24.29167,331
24.30000,332
24.30833,332
24.31667,333
24.32500,335
24.33333,337
24.34167,338
24.35000,340
24.35833,343
24.36667,346
24.37500,350
24.38333,353
24.39167,358
24.40000,363
24.40833,369
24.41667,375
24.42500,383
24.43333,391
24.44167,401
24.45000,412
24.45833,425
24.46667,439
24.47500,453
24.48333,470
24.49167,488
24.50000,507
24.50833,529
24.51667,552
24.52500,578
24.53333,605
24.54167,635
24.55000,668
24.55833,702
24.56667,738
24.57500,777
24.58333,818
24.59167,861
24.60000,907
24.60833,955
24.61667,1006
24.62500,1059
24.63333,1115
24.64167,1173
24.65000,1234
24.65833,1296
24.66667,1360
24.67500,1426
24.68333,1494
24.69167,1563
24.70000,1634
24.70833,1706
24.71667,1779
24.72500,1854
24.73333,1929
24.74167,2004
24.75000,2079
24.75833,2155
24.76667,2230
24.77500,2306
24.78333,2381
24.79167,2455
24.80000,2529
24.80833,2602
24.81667,2674
24.82500,2744
24.83333,2814
24.84167,2881
24.85000,2947
24.85833,3010
24.86667,3072
24.87500,3133
24.88333,3191
24.89167,3248
24.90000,3302
24.90833,3354
24.91667,3404
24.92500,3452
24.93333,3497
24.94167,3540
24.95000,3580
24.95833,3618
24.96667,3654
24.97500,3688
24.98333,3720
24.99167,3749
25.00000,3776
25.00833,3800
25.01667,3821
25.02500,3840
25.03333,3856
25.04167,3869
25.05000,3880
25.05833,3889
25.06667,3894
25.07500,3897
25.08333,3896
25.09167,3893
25.10000,3887
25.10833,3879
25.11667,3867
25.12500,3852
25.13333,3834
25.14167,3813
25.15000,3788
25.15833,3761
25.16667,3731
25.17500,3697
25.18333,3661
25.19167,3621
25.20000,3579
25.20833,3533
25.21667,3485
25.22500,3434
25.23333,3381
25.24167,3325
25.25000,3267
25.25833,3206
25.26667,3144
25.27500,3080
25.28333,3014
25.29167,2946
25.30000,2877
25.30833,2807
25.31667,2736
25.32500,2664
25.33333,2591
25.34167,2518
25.35000,2445
25.35833,2372
25.36667,2299
25.37500,2226
25.38333,2153
25.39167,2081
25.40000,2011
25.40833,1941
25.41667,1872
25.42500,1804
25.43333,1738
25.44167,1673
25.45000,1609
25.45833,1547
25.46667,1487
25.47500,1428
25.48333,1372
25.49167,1317
25.50000,1263
25.50833,1212
25.51667,1163
25.52500,1116
25.53333,1071
25.54167,1027
25.55000,985
25.55833,946
25.56667,908
25.57500,872
25.58333,837
25.59167,805
25.60000,774
25.60833,745
25.61667,718
25.62500,692
25.63333,667
25.64167,644
25.65000,622
25.65833,601
25.66667,581
25.67500,563
25.68333,546
25.69167,530
25.70000,515
25.70833,501
25.71667,488
25.72500,476
25.73333,464
25.74167,452
25.75000,441
25.75833,431
25.76667,421
25.77500,412
25.78333,404
25.79167,395
25.80000,388
25.80833,380
25.81667,373
25.82500,366
25.83333,359
25.84167,353
25.85000,347
25.85833,342
25.86667,336
25.87500,331
25.88333,326
25.89167,320
25.90000,315
25.90833,310
25.91667,305
25.92500,300
25.93333,295
25.94167,291
25.95000,286
25.95833,282
25.96667,277
25.97500,273
25.98333,268
25.99167,263
26.00000,259
26.00833,255
26.01667,251
26.02500,246
26.03333,242
26.04167,237
26.05000,233
26.05833,228
26.06667,224
26.07500,219
26.08333,215
26.09167,211
26.10000,207
26.10833,203
26.11667,199
26.12500,195
26.13333,191
26.14167,188
26.15000,184
26.15833,181
26.16667,178
26.17500,174
26.18333,171
26.19167,167
26.20000,164
26.20833,161
26.21667,157
26.22500,154
26.23333,151
26.24167,149
26.25000,146
26.25833,144
26.26667,141
26.27500,139
26.28333,136
26.29167,134
26.30000,132
26.30833,130
26.31667,129
26.32500,127
26.33333,126
26.34167,124
26.35000,122
26.35833,121
26.36667,119
26.37500,118
26.38333,116
26.39167,115
26.40000,114
26.40833,113
26.41667,112
26.42500,110
26.43333,110
26.44167,109
26.45000,108
26.45833,107
26.46667,107
26.47500,106
26.48333,106
26.49167,106
26.50000,105
26.50833,105
26.51667,104
26.52500,104
26.53333,104
26.54167,104
26.55000,104
26.55833,104
26.56667,104
26.57500,103
26.58333,103
26.59167,102
26.60000,102
26.60833,102
26.61667,102
26.62500,102
26.63333,102
26.64167,102
26.65000,103
26.65833,103
26.66667,102
26.67500,102
26.68333,102
26.69167,102
26.70000,102
26.70833,102
26.71667,102
26.72500,102
26.73333,102
26.74167,102
26.75000,103
26.75833,103
26.76667,103
26.77500,103
26.78333,103
26.79167,103
26.80000,103
26.80833,103
26.81667,102
26.82500,102
26.83333,102
26.84167,103
26.85000,103
26.85833,103
26.86667,103
26.87500,103
26.88333,103
26.89167,103
26.90000,103
26.90833,103
26.91667,103
26.92500,103
26.93333,103
26.94167,103
26.95000,103
26.95833,103
26.96667,103
26.97500,103
26.98333,103
26.99167,103
27.00000,103
27.00833,103
27.01667,103
27.02500,104
27.03333,104
27.04167,104
27.05000,104
27.05833,103
27.06667,103
27.07500,104
27.08333,104
27.09167,104
27.10000,104
27.10833,104
27.11667,104
27.12500,104
27.13333,104
27.14167,104
27.15000,104
27.15833,104
27.16667,104
27.17500,104
27.18333,104
27.19167,104
27.20000,103
27.20833,103
27.21667,103
27.22500,103
27.23333,103
27.24167,103
27.25000,104
27.25833,104
27.26667,104
27.27500,103
27.28333,103
27.29167,103
27.30000,103
27.30833,103
27.31667,103
27.32500,102
27.33333,102
27.34167,102
27.35000,101
27.35833,101
27.36667,101
27.37500,101
27.38333,101
27.39167,100
27.40000,100
27.40833,100
27.41667,100
27.42500,100
27.43333,100
27.44167,99
27.45000,99
27.45833,98
27.46667,98
27.47500,98
27.48333,97
27.49167,96
27.50000,96
27.50833,96
27.51667,95
27.52500,95
27.53333,95
27.54167,94
27.55000,93
27.55833,93
27.56667,93
27.57500,92
27.58333,92
27.59167,91
27.60000,91
27.60833,90
27.61667,89
27.62500,88
27.63333,88
27.64167,87
27.65000,86
27.65833,86
27.66667,85
27.67500,85
27.68333,84
27.69167,83
27.70000,83
27.70833,82
27.71667,82
27.72500,81
27.73333,81
27.74167,80
27.75000,80
27.75833,79
27.76667,78
27.77500,78
27.78333,78
27.79167,77
27.80000,76
27.80833,76
27.81667,75
27.82500,74
27.83333,73
27.84167,72
27.85000,72
27.85833,72
27.86667,71
27.87500,71
27.88333,70
27.89167,70
27.90000,69
27.90833,69
27.91667,70
27.92500,70
27.93333,70
27.94167,69
27.95000,69
27.95833,68
27.96667,68
27.97500,68
27.98333,68
27.99167,67
28.00000,67
28.00833,67
28.01667,67
28.02500,67
28.03333,68
28.04167,68
28.05000,68
28.05833,68
28.06667,68
28.07500,68
28.08333,68
28.09167,68
28.10000,68
28.10833,69
28.11667,69
28.12500,69
28.13333,70
28.14167,70
28.15000,71
28.15833,71
28.16667,72
28.17500,72
28.18333,72
28.19167,73
28.20000,73
28.20833,73
28.21667,73
28.22500,73
28.23333,73
28.24167,73
28.25000,74
28.25833,74
28.26667,74
28.27500,74
28.28333,75
28.29167,75
28.30000,76
28.30833,76
28.31667,77
28.32500,77
28.33333,78
28.34167,79
28.35000,80
28.35833,81
28.36667,82
28.37500,83
28.38333,84
28.39167,86
28.40000,87
28.40833,89
28.41667,91
28.42500,93
28.43333,96
28.44167,99
28.45000,102
28.45833,106
28.46667,110
28.47500,114
28.48333,119
28.49167,124
28.50000,130
28.50833,137
28.51667,145
28.52500,153
28.53333,161
28.54167,171
28.55000,181
28.55833,193
28.56667,205
28.57500,218
28.58333,233
28.59167,248
28.60000,264
28.60833,282
28.61667,300
28.62500,321
28.63333,342
28.64167,365
28.65000,389
28.65833,415
28.66667,442
28.67500,470
28.68333,500
28.69167,532
28.70000,565
28.70833,600
28.71667,636
28.72500,674
28.73333,712
28.74167,753
28.75000,794
28.75833,837
28.76667,881
28.77500,926
28.78333,973
28.79167,1021
28.80000,1070
28.80833,1120
28.81667,1171
28.82500,1222
28.83333,1274
28.84167,1327
28.85000,1381
28.85833,1435
28.86667,1489
28.87500,1544
28.88333,1598
28.89167,1652
28.90000,1707
28.90833,1761
28.91667,1815
28.92500,1868
28.93333,1921
28.94167,1973
28.95000,2025
28.95833,2075
28.96667,2124
28.97500,2172
28.98333,2219
28.99167,2265
29.00000,2310
29.00833,2353
29.01667,2395
29.02500,2435
29.03333,2474
29.04167,2511
29.05000,2547
29.05833,2581
29.06667,2614
29.07500,2645
29.08333,2674
29.09167,2702
29.10000,2728
29.10833,2752
29.11667,2775
29.12500,2796
29.13333,2816
29.14167,2834
29.15000,2850
29.15833,2864
29.16667,2877
29.17500,2889
29.18333,2899
29.19167,2908
29.20000,2915
29.20833,2921
29.21667,2926
29.22500,2928
29.23333,2930
29.24167,2930
29.25000,2928
29.25833,2925
29.26667,2920
29.27500,2914
29.28333,2907
29.29167,2898
29.30000,2888
29.30833,2877
29.31667,2863
29.32500,2849
29.33333,2832
29.34167,2815
29.35000,2795
29.35833,2775
29.36667,2752
29.37500,2729
29.38333,2703
29.39167,2677
29.40000,2649
29.40833,2620
29.41667,2589
29.42500,2557
29.43333,2523
29.44167,2488
29.45000,2452
29.45833,2414
29.46667,2375
29.47500,2335
29.48333,2293
29.49167,2251
29.50000,2207
29.50833,2163
29.51667,2118
29.52500,2072
29.53333,2026
29.54167,1978
29.55000,1931
29.55833,1883
29.56667,1835
29.57500,1787
29.58333,1738
29.59167,1689
29.60000,1640
29.60833,1591
29.61667,1543
29.62500,1494
29.63333,1446
29.64167,1398
29.65000,1350
29.65833,1303
29.66667,1257
29.67500,1211
29.68333,1166
29.69167,1122
29.70000,1079
29.70833,1036
29.71667,995
29.72500,954
29.73333,915
29.74167,876
29.75000,839
29.75833,802
29.76667,766
29.77500,732
29.78333,699
29.79167,666
29.80000,636
29.80833,606
29.81667,577
29.82500,550
29.83333,523
29.84167,498
29.85000,473
29.85833,450
29.86667,428
29.87500,407
29.88333,386
29.89167,366
29.90000,347
29.90833,329
29.91667,312
29.92500,296
29.93333,281
29.94167,266
29.95000,252
29.95833,239
29.96667,226
29.97500,214
29.98333,203
29.99167,192
30.00000,181
30.00833,171
30.01667,162
30.02500,153
30.03333,144
30.04167,136
30.05000,127
30.05833,119
30.06667,111
30.07500,104
30.08333,96
30.09167,89
30.10000,82
30.10833,76
30.11667,70
30.12500,63
30.13333,57
30.14167,52
30.15000,46
30.15833,40
30.16667,34
30.17500,29
30.18333,23
30.19167,17
30.20000,11
30.20833,6
30.21667,1
30.22500,-5
30.23333,-10
30.24167,-16
30.25000,-21
30.25833,-26
30.26667,-32
30.27500,-38
30.28333,-43
30.29167,-49
30.30000,-54
30.30833,-60
30.31667,-65
30.32500,-70
30.33333,-75
30.34167,-81
30.35000,-86
30.35833,-91
30.36667,-96
30.37500,-101
30.38333,-106
30.39167,-111
30.40000,-115
30.40833,-120
30.41667,-124
30.42500,-129
30.43333,-133
30.44167,-138
30.45000,-142
30.45833,-145
30.46667,-149
30.47500,-153
30.48333,-157
30.49167,-161
30.50000,-164
30.50833,-167
30.51667,-170
30.52500,-173
30.53333,-176
30.54167,-178
30.55000,-180
30.55833,-183
30.56667,-184
30.57500,-186
30.58333,-188
30.59167,-189
30.60000,-190
30.60833,-191
30.61667,-191
30.62500,-192
30.63333,-193
30.64167,-193
30.65000,-193
30.65833,-193
30.66667,-193
30.67500,-192
30.68333,-191
30.69167,-190
30.70000,-188
30.70833,-186
30.71667,-184
30.72500,-182
30.73333,-180
30.74167,-178
30.75000,-175
30.75833,-172
30.76667,-169
30.77500,-166
30.78333,-162
30.79167,-158
30.80000,-155
30.80833,-151
30.81667,-146
30.82500,-142
30.83333,-137
30.84167,-132
30.85000,-128
30.85833,-123
30.86667,-118
30.87500,-113
30.88333,-107
30.89167,-102
30.90000,-96
30.90833,-91
30.91667,-85
30.92500,-79
30.93333,-73
30.94167,-68
30.95000,-62
30.95833,-56
30.96667,-50
30.97500,-44
30.98333,-37
30.99167,-31
31.00000,-25
31.00833,-19
31.01667,-13
31.02500,-7
31.03333,-1
31.04167,4
31.05000,10
31.05833,16
31.06667,22
31.07500,27
31.08333,32
31.09167,37
31.10000,42
31.10833,47
31.11667,52
31.12500,57
31.13333,61
31.14167,66
31.15000,70
31.15833,74
31.16667,78
31.17500,82
31.18333,86
31.19167,90
31.20000,93
31.20833,97
31.21667,100
31.22500,103
31.23333,106
31.24167,109
31.25000,111
31.25833,114
31.26667,116
31.27500,119
31.28333,121
31.29167,123
31.30000,125
31.30833,126
31.31667,127
31.32500,128
31.33333,130
31.34167,131
31.35000,132
31.35833,133
31.36667,134
31.37500,135
31.38333,135
31.39167,136
31.40000,136
31.40833,136
31.41667,137
31.42500,137
31.43333,137
31.44167,137
31.45000,137
31.45833,137
31.46667,137
31.47500,137
31.48333,137
31.49167,136
31.50000,136
31.50833,135
31.51667,134
31.52500,134
31.53333,133
31.54167,133
31.55000,133
31.55833,132
31.56667,132
31.57500,131
31.58333,131
31.59167,130
31.60000,130
31.60833,129
31.61667,129
31.62500,128
31.63333,128
31.64167,128
31.65000,128
31.65833,128
31.66667,128
31.67500,129
31.68333,129
31.69167,130
31.70000,131
31.70833,133
31.71667,134
31.72500,135
31.73333,137
31.74167,138
31.75000,140
31.75833,141
31.76667,143
31.77500,145
31.78333,148
31.79167,151
31.80000,154
31.80833,157
31.81667,160
31.82500,163
31.83333,167
31.84167,171
31.85000,175
31.85833,179
31.86667,183
31.87500,188
31.88333,194
31.89167,199
31.90000,204
31.90833,210
31.91667,215
31.92500,220
31.93333,226
31.94167,232
31.95000,238
31.95833,244
31.96667,251
31.97500,258
31.98333,265
31.99167,272
32.00000,279
32.00833,286
32.01667,293
32.02500,300
32.03333,308
32.04167,315
32.05000,322
32.05833,330
32.06667,336
32.07500,343
32.08333,350
32.09167,357
32.10000,363
32.10833,370
32.11667,377
32.12500,383
32.13333,390
32.14167,397
32.15000,403
32.15833,410
32.16667,416
32.17500,422
32.18333,429
32.19167,435
32.20000,441
32.20833,446
32.21667,452
32.22500,457
32.23333,462
32.24167,467
32.25000,472
32.25833,477
32.26667,482
32.27500,486
32.28333,491
32.29167,495
32.30000,500
32.30833,504
32.31667,508
32.32500,511
32.33333,515
32.34167,518
32.35000,521
32.35833,524
32.36667,527
32.37500,530
32.38333,533
32.39167,536
32.40000,538
32.40833,541
32.41667,543
32.42500,545
32.43333,546
32.44167,548
32.45000,549
32.45833,550
32.46667,551
32.47500,552
32.48333,553
32.49167,553
32.50000,554
32.50833,554
32.51667,554
32.52500,554
32.53333,553
32.54167,553
32.55000,552
32.55833,551
32.56667,550
32.57500,549
32.58333,547
32.59167,546
32.60000,543
32.60833,541
32.61667,538
32.62500,535
32.63333,533
32.64167,530
32.65000,527
32.65833,524
32.66667,521
32.67500,518
32.68333,514
32.69167,511
32.70000,507
32.70833,503
32.71667,500
32.72500,496
32.73333,493
32.74167,489
32.75000,485
32.75833,481
32.76667,476
32.77500,472
32.78333,467
32.79167,463
32.80000,458
32.80833,454
32.81667,450
32.82500,446
32.83333,441
32.84167,438
32.85000,434
32.85833,431
32.86667,427
32.87500,424
32.88333,421
32.89167,417
32.90000,414
32.90833,410
32.91667,407
32.92500,404
32.93333,401
32.94167,398
32.95000,396
32.95833,393
32.96667,390
32.97500,388
32.98333,386
32.99167,384
33.00000,382
33.00833,380
33.01667,378
33.02500,376
33.03333,375
33.04167,373
33.05000,372
33.05833,370
33.06667,369
33.07500,368
33.08333,367
33.09167,366
33.10000,365
33.10833,364
33.11667,363
33.12500,363
33.13333,362
33.14167,361
33.15000,360
33.15833,360
33.16667,359
33.17500,358
33.18333,357
33.19167,356
33.20000,355
33.20833,354
33.21667,353
33.22500,352
33.23333,351
33.24167,350
33.25000,349
33.25833,348
33.26667,347
33.27500,345
33.28333,344
33.29167,342
33.30000,341
33.30833,339
33.31667,338
33.32500,336
33.33333,334
33.34167,332
33.35000,330
33.35833,328
33.36667,326
33.37500,324
33.38333,322
33.39167,320
33.40000,318
33.40833,316
33.41667,313
33.42500,311
33.43333,308
33.44167,305
33.45000,303
33.45833,300
33.46667,297
33.47500,294
33.48333,292
33.49167,289
33.50000,286
33.50833,283
33.51667,280
33.52500,277
33.53333,274
33.54167,271
33.55000,268
33.55833,265
33.56667,261
33.57500,258
33.58333,254
33.59167,251
33.60000,247
33.60833,244
33.61667,240
33.62500,236
33.63333,232
33.64167,228
33.65000,224
33.65833,220
33.66667,216
33.67500,212
33.68333,208
33.69167,204
33.70000,201
33.70833,197
33.71667,193
33.72500,190
33.73333,186
33.74167,182
33.75000,178
33.75833,175
33.76667,171
33.77500,167
33.78333,163
33.79167,159
33.80000,155
33.80833,151
33.81667,148
33.82500,145
33.83333,141
33.84167,138
33.85000,135
33.85833,131
33.86667,128
33.87500,125
33.88333,121
33.89167,118
33.90000,114
33.90833,111
33.91667,108
33.92500,104
33.93333,101
33.94167,98
33.95000,95
33.95833,92
33.96667,89
33.97500,86
33.98333,84
33.99167,81
34.00000,79
34.00833,76
34.01667,74
34.02500,71
34.03333,69
34.04167,67
34.05000,65
34.05833,63
34.06667,61
34.07500,59
34.08333,57
34.09167,55
34.10000,53
34.10833,51
34.11667,49
34.12500,48
34.13333,47
34.14167,45
34.15000,44
34.15833,42
34.16667,41
34.17500,39
34.18333,38
34.19167,37
34.20000,36
34.20833,35
34.21667,34
34.22500,33
34.23333,33
34.24167,32
34.25000,31
34.25833,30
34.26667,30
34.27500,29
34.28333,28
34.29167,27
34.30000,26
34.30833,25
34.31667,25
34.32500,24
34.33333,24
34.34167,23
34.35000,22
34.35833,22
34.36667,21
34.37500,20
34.38333,20
34.39167,19
34.40000,19
34.40833,19
34.41667,18
34.42500,18
34.43333,17
34.44167,17
34.45000,16
34.45833,16
34.46667,16
34.47500,16
34.48333,16
34.49167,15
34.50000,15
34.50833,15
34.51667,14
34.52500,14
34.53333,14
34.54167,14
34.55000,13
34.55833,13
34.56667,12
34.57500,12
34.58333,12
34.59167,11
34.60000,11
34.60833,11
34.61667,10
34.62500,10
34.63333,9
34.64167,9
34.65000,9
34.65833,9
34.66667,8
34.67500,8
34.68333,7
34.69167,7
34.70000,7
34.70833,7
34.71667,7
34.72500,6
34.73333,6
34.74167,6
34.75000,6
34.75833,6
34.76667,5
34.77500,5
34.78333,4
34.79167,4
34.80000,4
34.80833,4
34.81667,4
34.82500,4
34.83333,4
34.84167,4
34.85000,3
34.85833,3
34.86667,3
34.87500,3
34.88333,2
34.89167,2
34.90000,2
34.90833,1
34.91667,1
34.92500,0
34.93333,0
34.94167,0
34.95000,1
34.95833,1
34.96667,1
34.97500,1
34.98333,2
34.99167,2
35.00000,1
35.00833,1
35.01667,1
35.02500,1
35.03333,1
35.04167,1
35.05000,2
35.05833,2
35.06667,2
35.07500,2
35.08333,1
35.09167,1
35.10000,1
35.10833,1
35.11667,1
35.12500,1
35.13333,1
35.14167,1
35.15000,2
35.15833,2
35.16667,3
35.17500,3
35.18333,4
35.19167,4
35.20000,4
35.20833,5
35.21667,5
35.22500,5
35.23333,5
35.24167,6
35.25000,6
35.25833,7
35.26667,8
35.27500,9
35.28333,9
35.29167,10
35.30000,10
35.30833,11
35.31667,11
35.32500,11
35.33333,12
35.34167,13
35.35000,14
35.35833,15
35.36667,15
35.37500,16
35.38333,17
35.39167,18
35.40000,19
35.40833,20
35.41667,21
35.42500,22
35.43333,23
35.44167,24
35.45000,24
35.45833,25
35.46667,26
35.47500,27
35.48333,28
35.49167,29
35.50000,30
35.50833,31
35.51667,32
35.52500,33
35.53333,34
35.54167,35
35.55000,35
35.55833,36
35.56667,36
35.57500,37
35.58333,38
35.59167,39
35.60000,40
35.60833,41
35.61667,42
35.62500,43
35.63333,44
35.64167,45
35.65000,45
35.65833,46
35.66667,47
35.67500,47
35.68333,48
35.69167,49
35.70000,49
35.70833,50
35.71667,51
35.72500,52
35.73333,53
35.74167,53
35.75000,54
35.75833,54
35.76667,55
35.77500,55
35.78333,55
35.79167,56
35.80000,56
35.80833,57
35.81667,58
35.82500,59
35.83333,59
35.84167,60
35.85000,60
35.85833,61
35.86667,61
35.87500,62
35.88333,62
35.89167,63
35.90000,63
35.90833,63
35.91667,63
35.92500,63
35.93333,63
35.94167,64
35.95000,64
35.95833,64
35.96667,65
35.97500,65
35.98333,65
35.99167,65
36.00000,65
36.00833,66
36.01667,66
36.02500,66
36.03333,66
36.04167,66
36.05000,66
36.05833,66
36.06667,66
36.07500,66
36.08333,66
36.09167,66
36.10000,66
36.10833,66
36.11667,66
36.12500,66
36.13333,66
36.14167,66
36.15000,66
36.15833,66
36.16667,65
36.17500,65
36.18333,64
36.19167,64
36.20000,64
36.20833,64
36.21667,64
36.22500,63
36.23333,63
36.24167,63
36.25000,62
36.25833,62
36.26667,62
36.27500,61
36.28333,61
36.29167,61
36.30000,60
36.30833,60
36.31667,59
36.32500,58
36.33333,58
36.34167,57
36.35000,57
36.35833,56
36.36667,56
36.37500,56
36.38333,55
36.39167,54
36.40000,54
36.40833,53
36.41667,53
36.42500,53
36.43333,52
36.44167,52
36.45000,51
36.45833,51
36.46667,51
36.47500,51
36.48333,50
36.49167,49
36.50000,49
36.50833,48
36.51667,48
36.52500,47
36.53333,47
36.54167,46
36.55000,46
36.55833,46
36.56667,46
36.57500,45
36.58333,45
36.59167,44
36.60000,44
36.60833,43
36.61667,43
36.62500,43
36.63333,43
36.64167,43
36.65000,43
36.65833,43
36.66667,42
36.67500,42
36.68333,42
36.69167,41
36.70000,41
36.70833,41
36.71667,41
36.72500,42
36.73333,42
36.74167,42
36.75000,42
36.75833,42
36.76667,42
36.77500,42
36.78333,42
36.79167,42
36.80000,42
36.80833,42
36.81667,42
36.82500,42
36.83333,42
36.84167,43
36.85000,43
36.85833,44
36.86667,44
36.87500,44
36.88333,44
36.89167,45
36.90000,45
36.90833,45
36.91667,45
36.92500,45
36.93333,46
36.94167,46
36.95000,47
36.95833,47
36.96667,47
36.97500,48
36.98333,48
36.99167,49
37.00000,49
37.00833,50
37.01667,50
37.02500,51
37.03333,51
37.04167,52
37.05000,53
37.05833,53
37.06667,54
37.07500,54
37.08333,55
37.09167,56
37.10000,57
37.10833,58
37.11667,59
37.12500,60
37.13333,60
37.14167,61
37.15000,61
37.15833,62
37.16667,62
37.17500,63
37.18333,64
37.19167,65
37.20000,65
37.20833,66
37.21667,67
37.22500,68
37.23333,69
37.24167,69
37.25000,70
37.25833,72
37.26667,73
37.27500,74
37.28333,75
37.29167,76
37.30000,77
37.30833,78
37.31667,79
37.32500,79
37.33333,80
37.34167,81
37.35000,82
37.35833,83
37.36667,84
37.37500,84
37.38333,85
37.39167,86
37.40000,87
37.40833,87
37.41667,88
37.42500,89
37.43333,89
37.44167,90
37.45000,91
37.45833,93
37.46667,94
37.47500,95
37.48333,96
37.49167,97
37.50000,97
37.50833,98
37.51667,99
37.52500,100
37.53333,101
37.54167,102
37.55000,103
37.55833,104
37.56667,105
37.57500,106
37.58333,107
37.59167,107
37.60000,108
37.60833,109
37.61667,109
37.62500,110
37.63333,111
37.64167,112
37.65000,113
37.65833,114
37.66667,115
37.67500,115
37.68333,116
37.69167,116
37.70000,117
37.70833,117
37.71667,118
37.72500,118
37.73333,119
37.74167,119
37.75000,120
37.75833,120
37.76667,121
37.77500,121
37.78333,121
37.79167,121
37.80000,122
37.80833,122
37.81667,122
37.82500,122
37.83333,123
37.84167,123
37.85000,123
37.85833,123
37.86667,123
37.87500,123
37.88333,123
37.89167,123
37.90000,123
37.90833,122
37.91667,122
37.92500,122
37.93333,122
37.94167,122
37.95000,122
37.95833,122
37.96667,121
37.97500,121
37.98333,121
37.99167,120
38.00000,120
38.00833,119
38.01667,118
38.02500,118
38.03333,117
38.04167,116
38.05000,115
38.05833,114
38.06667,114
38.07500,113
38.08333,112
38.09167,112
38.10000,111
38.10833,111
38.11667,110
38.12500,109
38.13333,108
38.14167,108
38.15000,107
38.15833,106
38.16667,105
38.17500,104
38.18333,103
38.19167,102
38.20000,101
38.20833,99
38.21667,98
38.22500,97
38.23333,96
38.24167,95
38.25000,94
38.25833,93
38.26667,92
38.27500,91
38.28333,90
38.29167,89
38.30000,87
38.30833,86
38.31667,85
38.32500,84
38.33333,82
38.34167,81
38.35000,80
38.35833,79
38.36667,78
38.37500,76
38.38333,75
38.39167,74
38.40000,72
38.40833,71
38.41667,69
38.42500,68
38.43333,67
38.44167,65
38.45000,64
38.45833,63
38.46667,62
38.47500,61
38.48333,60
38.49167,58
38.50000,57
38.50833,55
38.51667,54
38.52500,53
38.53333,51
38.54167,50
38.55000,48
38.55833,47
38.56667,46
38.57500,45
38.58333,44
38.59167,42
38.60000,41
38.60833,40
38.61667,39
38.62500,38
38.63333,37
38.64167,35
38.65000,34
38.65833,32
38.66667,31
38.67500,30
38.68333,29
38.69167,28
38.70000,27
38.70833,26
38.71667,25
38.72500,24
38.73333,23
38.74167,22
38.75000,21
38.75833,20
38.76667,19
38.77500,18
38.78333,17
38.79167,16
38.80000,15
38.80833,14
38.81667,13
38.82500,13
38.83333,12
38.84167,11
38.85000,11
38.85833,9
38.86667,8
38.87500,7
38.88333,7
38.89167,6
38.90000,5
38.90833,5
38.91667,4
38.92500,3
38.93333,3
38.94167,2
38.95000,1
38.95833,1
38.96667,-0
38.97500,-1
38.98333,-1
38.99167,-2
39.00000,-2
39.00833,-2
39.01667,-3
39.02500,-3
39.03333,-4
39.04167,-4
39.05000,-5
39.05833,-5
39.06667,-6
39.07500,-6
39.08333,-7
39.09167,-7
39.10000,-8
39.10833,-8
39.11667,-8
39.12500,-8
39.13333,-9
39.14167,-9
39.15000,-9
39.15833,-9
39.16667,-10
39.17500,-10
39.18333,-10
39.19167,-10
39.20000,-10
39.20833,-10
39.21667,-10
39.22500,-10
39.23333,-10
39.24167,-10
39.25000,-11
39.25833,-11
39.26667,-11
39.27500,-11
39.28333,-11
39.29167,-11
39.30000,-11
39.30833,-12
39.31667,-12
39.32500,-12
39.33333,-13
39.34167,-13
39.35000,-13
39.35833,-13
39.36667,-13
39.37500,-12
39.38333,-12
39.39167,-13
39.40000,-13
39.40833,-13
39.41667,-13
39.42500,-13
39.43333,-13
39.44167,-13
39.45000,-12
39.45833,-12
39.46667,-13
39.47500,-13
39.48333,-13
39.49167,-14
39.50000,-14
39.50833,-14
39.51667,-14
39.52500,-14
39.53333,-14
39.54167,-14
39.55000,-14
39.55833,-13
39.56667,-13
39.57500,-13
39.58333,-13
39.59167,-13
39.60000,-13
39.60833,-13
39.61667,-13
39.62500,-13
39.63333,-14
39.64167,-14
39.65000,-14
39.65833,-14
39.66667,-14
39.67500,-15
39.68333,-15
39.69167,-14
39.70000,-14
39.70833,-14
39.71667,-14
39.72500,-14
39.73333,-14
39.74167,-13
39.75000,-14
39.75833,-14
39.76667,-14
39.77500,-14
39.78333,-14
39.79167,-14
39.80000,-14
39.80833,-14
39.81667,-14
39.82500,-15
39.83333,-15
39.84167,-15
39.85000,-15
39.85833,-15
39.86667,-14
39.87500,-14
39.88333,-14
39.89167,-14
39.90000,-14
39.90833,-15
39.91667,-15
39.92500,-15
39.93333,-15
39.94167,-15
39.95000,-14
39.95833,-14
39.96667,-14
39.97500,-14
39.98333,-14
39.99167,-15
40.00000,-15
40.00833,-15
40.01667,-15
40.02500,-15
40.03333,-15
40.04167,-15
40.05000,-15
40.05833,-15
40.06667,-15
40.07500,-15
40.08333,-15
40.09167,-15
40.10000,-15
40.10833,-15
40.11667,-15
40.12500,-15
40.13333,-15
40.14167,-14
40.15000,-14
40.15833,-14
40.16667,-14
40.17500,-14
40.18333,-15
40.19167,-15
40.20000,-15
40.20833,-15
40.21667,-16
40.22500,-16
40.23333,-16
40.24167,-16
40.25000,-15
40.25833,-15
40.26667,-15
40.27500,-15
40.28333,-14
40.29167,-14
40.30000,-14
40.30833,-14
40.31667,-14
40.32500,-13
40.33333,-13
40.34167,-13
40.35000,-13
40.35833,-12
40.36667,-12
40.37500,-11
40.38333,-11
40.39167,-11
40.40000,-11
40.40833,-11
40.41667,-11
40.42500,-11
40.43333,-11
40.44167,-10
40.45000,-10
40.45833,-9
40.46667,-9
40.47500,-9
40.48333,-8
40.49167,-8
40.50000,-8
40.50833,-7
40.51667,-6
40.52500,-5
40.53333,-5
40.54167,-4
40.55000,-4
40.55833,-3
40.56667,-2
40.57500,-2
40.58333,-1
40.59167,-0
40.60000,1
40.60833,1
40.61667,2
40.62500,2
40.63333,3
40.64167,4
40.65000,5
40.65833,5
40.66667,6
40.67500,7
40.68333,9
40.69167,9
40.70000,10
40.70833,11
40.71667,12
40.72500,13
40.73333,14
40.74167,15
40.75000,16
40.75833,17
40.76667,18
40.77500,19
40.78333,21
40.79167,22
40.80000,23
40.80833,24
40.81667,25
40.82500,26
40.83333,27
40.84167,29
40.85000,31
40.85833,32
40.86667,33
40.87500,35
40.88333,36
40.89167,38
40.90000,40
40.90833,41
40.91667,42
40.92500,43
40.93333,44
40.94167,45
40.95000,47
40.95833,48
40.96667,49
40.97500,51
40.98333,52
40.99167,54
41.00000,56
41.00833,57
41.01667,59
41.02500,61
41.03333,63
41.04167,64
41.05000,65
41.05833,67
41.06667,68
41.07500,70
41.08333,71
41.09167,73
41.10000,74
41.10833,76
41.11667,78
41.12500,80
41.13333,81
41.14167,83
41.15000,84
41.15833,86
41.16667,87
41.17500,89
41.18333,90
41.19167,92
41.20000,93
41.20833,95
41.21667,97
41.22500,98
41.23333,100
41.24167,102
41.25000,103
41.25833,104
41.26667,106
41.27500,107
41.28333,108
41.29167,110
41.30000,111
41.30833,112
41.31667,114
41.32500,115
41.33333,117
41.34167,118
41.35000,120
41.35833,121
41.36667,123
41.37500,124
41.38333,126
41.39167,127
41.40000,128
41.40833,130
41.41667,131
41.42500,133
41.43333,134
41.44167,136
41.45000,137
41.45833,138
41.46667,139
41.47500,140
41.48333,141
41.49167,143
41.50000,144
41.50833,145
41.51667,147
41.52500,148
41.53333,150
41.54167,151
41.55000,152
41.55833,153
41.56667,154
41.57500,155
41.58333,156
41.59167,157
41.60000,158
41.60833,158
41.61667,160
41.62500,161
41.63333,162
41.64167,163
41.65000,164
41.65833,165
41.66667,166
41.67500,167
41.68333,168
41.69167,168
41.70000,169
41.70833,170
41.71667,171
41.72500,172
41.73333,172
41.74167,173
41.75000,174
41.75833,175
41.76667,175
41.77500,176
41.78333,176
41.79167,177
41.80000,177
41.80833,177
41.81667,177
41.82500,178
41.83333,178
41.84167,179
41.85000,179
41.85833,180
41.86667,180
41.87500,180
41.88333,181
41.89167,181
41.90000,181
41.90833,182
41.91667,182
41.92500,183
41.93333,183
41.94167,182
41.95000,182
41.95833,182
41.96667,182
41.97500,182
41.98333,182
41.99167,182
42.00000,182
42.00833,182
42.01667,182
42.02500,182
42.03333,182
42.04167,182
42.05000,182
42.05833,182
42.06667,182
42.07500,182
42.08333,182
42.09167,182
42.10000,181
42.10833,181
42.11667,180
42.12500,180
42.13333,180
42.14167,180
42.15000,179
42.15833,179
42.16667,179
42.17500,179
42.18333,179
42.19167,179
42.20000,178
42.20833,178
42.21667,178
42.22500,178
42.23333,178
42.24167,177
42.25000,177
42.25833,176
42.26667,176
42.27500,175
42.28333,175
42.29167,175
42.30000,174
42.30833,174
42.31667,174
42.32500,173
42.33333,173
42.34167,173
42.35000,172
42.35833,171
42.36667,171
42.37500,170
42.38333,170
42.39167,169
42.40000,169
42.40833,169
42.41667,169
42.42500,169
42.43333,168
42.44167,168
42.45000,168
42.45833,167
42.46667,167
42.47500,166
42.48333,165
42.49167,164
42.50000,163
42.50833,163
42.51667,163
42.52500,162
42.53333,162
42.54167,162
42.55000,161
42.55833,160
42.56667,159
42.57500,158
42.58333,158
42.59167,157
42.60000,156
42.60833,156
42.61667,155
42.62500,154
42.63333,154
42.64167,154
42.65000,153
42.65833,152
42.66667,152
42.67500,151
42.68333,150
42.69167,149
42.70000,149
42.70833,148
42.71667,147
42.72500,147
42.73333,146
42.74167,145
42.75000,144
42.75833,144
42.76667,143
42.77500,142
42.78333,142
42.79167,141
42.80000,141
42.80833,140
42.81667,139
42.82500,138
42.83333,137
42.84167,136
42.85000,136
42.85833,135
42.86667,134
42.87500,134
42.88333,133
42.89167,132
42.90000,131
42.90833,131
42.91667,130
42.92500,129
42.93333,128
42.94167,127
42.95000,126
42.95833,125
42.96667,124
42.97500,124
42.98333,123
42.99167,122
43.00000,121
43.00833,120
43.01667,119
43.02500,118
43.03333,118
43.04167,117
43.05000,116
43.05833,115
43.06667,114
43.07500,114
43.08333,113
43.09167,111
43.10000,111
43.10833,110
43.11667,109
43.12500,109
43.13333,108
43.14167,107
43.15000,106
43.15833,106
43.16667,105
43.17500,104
43.18333,104
43.19167,103
43.20000,102
43.20833,101
43.21667,101
43.22500,100
43.23333,100
43.24167,99
43.25000,98
43.25833,97
43.26667,97
43.27500,96
43.28333,95
43.29167,94
43.30000,93
43.30833,93
43.31667,92
43.32500,91
43.33333,90
43.34167,89
43.35000,88
43.35833,88
43.36667,87
43.37500,86
43.38333,86
43.39167,85
43.40000,84
43.40833,83
43.41667,82
43.42500,82
43.43333,81
43.44167,81
43.45000,80
43.45833,80
43.46667,79
43.47500,78
43.48333,77
43.49167,76
43.50000,76
43.50833,75
43.51667,75
43.52500,74
43.53333,73
43.54167,73
43.55000,72
43.55833,72
43.56667,71
43.57500,70
43.58333,69
43.59167,69
43.60000,68
43.60833,68
43.61667,67
43.62500,66
43.63333,66
43.64167,65
43.65000,65
43.65833,64
43.66667,63
43.67500,62
43.68333,61
43.69167,61
43.70000,60
43.70833,60
43.71667,59
43.72500,58
43.73333,58
43.74167,57
43.75000,56
43.75833,55
43.76667,54
43.77500,54
43.78333,53
43.79167,52
43.80000,52
43.80833,51
43.81667,51
43.82500,50
43.83333,49
43.84167,49
43.85000,48
43.85833,47
43.86667,47
43.87500,46
43.88333,45
43.89167,45
43.90000,44
43.90833,43
43.91667,43
43.92500,42
43.93333,41
43.94167,41
43.95000,41
43.95833,41
43.96667,40
43.97500,40
43.98333,39
43.99167,39
44.00000,38
44.00833,38
44.01667,37
44.02500,36
44.03333,36
44.04167,35
44.05000,34
44.05833,34
44.06667,33
44.07500,33
44.08333,32
44.09167,32
44.10000,32
44.10833,31
44.11667,31
44.12500,30
44.13333,29
44.14167,28
44.15000,28
44.15833,27
44.16667,26
44.17500,26
44.18333,25
44.19167,25
44.20000,24
44.20833,24
44.21667,23
44.22500,23
44.23333,23
44.24167,22
44.25000,22
44.25833,21
44.26667,20
44.27500,20
44.28333,19
44.29167,19
44.30000,19
44.30833,18
44.31667,18
44.32500,17
44.33333,17
44.34167,17
44.35000,16
44.35833,16
44.36667,16
44.37500,15
44.38333,15
44.39167,14
44.40000,14
44.40833,13
44.41667,13
44.42500,13
44.43333,12
44.44167,12
44.45000,12
44.45833,11
44.46667,11
44.47500,10
44.48333,10
44.49167,10
44.50000,10
44.50833,9
44.51667,9
44.52500,8
44.53333,7
44.54167,7
44.55000,7
44.55833,6
44.56667,6
44.57500,5
44.58333,5
44.59167,5
44.60000,5
44.60833,4
44.61667,4
44.62500,4
44.63333,4
44.64167,4
44.65000,3
44.65833,2
44.66667,2
44.67500,1
44.68333,0
44.69167,-0
44.70000,-0
44.70833,-0
44.71667,-0
44.72500,-0
44.73333,-1
44.74167,-1
44.75000,-1
44.75833,-1
44.76667,-2
44.77500,-2
44.78333,-3
44.79167,-3
44.80000,-3
44.80833,-3
44.81667,-3
44.82500,-3
44.83333,-3
44.84167,-4
44.85000,-4
44.85833,-5
44.86667,-5
44.87500,-5
44.88333,-5
44.89167,-5
44.90000,-5
44.90833,-5
44.91667,-6
44.92500,-6
44.93333,-6
44.94167,-7
44.95000,-7
44.95833,-7
44.96667,-8
44.97500,-8
44.98333,-7
44.99167,-8
45.00000,-8
45.00833,-7
45.01667,-7
45.02500,-7
45.03333,-7
45.04167,-7
45.05000,-7
45.05833,-7
45.06667,-8
45.07500,-8
45.08333,-8
45.09167,-9
45.10000,-9
45.10833,-9
45.11667,-9
45.12500,-9
45.13333,-9
45.14167,-9
45.15000,-10
45.15833,-10
45.16667,-10
45.17500,-10
45.18333,-9
45.19167,-9
45.20000,-9
45.20833,-9
45.21667,-10
45.22500,-10
45.23333,-10
45.24167,-10
45.25000,-10
45.25833,-11
45.26667,-11
45.27500,-11
45.28333,-11
45.29167,-11
45.30000,-12
45.30833,-12
45.31667,-12
45.32500,-12
45.33333,-12
45.34167,-12
45.35000,-11
45.35833,-11
45.36667,-12
45.37500,-12
45.38333,-13
45.39167,-13
45.40000,-12
45.40833,-12
45.41667,-12
45.42500,-12
45.43333,-12
45.44167,-12
45.45000,-12
45.45833,-12
45.46667,-13
45.47500,-13
45.48333,-13
45.49167,-13
45.50000,-13
45.50833,-13
45.51667,-13
45.52500,-12
45.53333,-12
45.54167,-12
45.55000,-12
45.55833,-12
45.56667,-12
45.57500,-12
45.58333,-12
45.59167,-12
45.60000,-13
45.60833,-13
45.61667,-13
45.62500,-13
45.63333,-13
45.64167,-13
45.65000,-13
45.65833,-12
45.66667,-12
45.67500,-12
45.68333,-12
45.69167,-13
45.70000,-13
45.70833,-13
45.71667,-13
45.72500,-13
45.73333,-13
45.74167,-13
45.75000,-13
45.75833,-13
45.76667,-13
45.77500,-13
45.78333,-14
45.79167,-13
45.80000,-13
45.80833,-14
45.81667,-13
45.82500,-13
45.83333,-13
45.84167,-14
45.85000,-14
45.85833,-14
45.86667,-15
45.87500,-15
45.88333,-15
45.89167,-15
45.90000,-14
45.90833,-14
45.91667,-15
45.92500,-15
45.93333,-15
45.94167,-15
45.95000,-15
45.95833,-15
45.96667,-16
45.97500,-17
45.98333,-17
45.99167,-17
46.00000,-18
46.00833,-18
46.01667,-18
46.02500,-18
46.03333,-18
46.04167,-17
46.05000,-18
46.05833,-18
46.06667,-18
46.07500,-18
46.08333,-18
46.09167,-19
46.10000,-19
46.10833,-19
46.11667,-19
46.12500,-19
46.13333,-19
46.14167,-19
46.15000,-19
46.15833,-19
46.16667,-20
46.17500,-20
46.18333,-20
46.19167,-20
46.20000,-21
46.20833,-21
46.21667,-21
46.22500,-21
46.23333,-21
46.24167,-21
46.25000,-21
46.25833,-21
46.26667,-22
46.27500,-22
46.28333,-22
46.29167,-23
46.30000,-23
46.30833,-23
46.31667,-23
46.32500,-24
46.33333,-24
46.34167,-24
46.35000,-24
46.35833,-24
46.36667,-24
46.37500,-24
46.38333,-25
46.39167,-25
46.40000,-25
46.40833,-26
46.41667,-26
46.42500,-26
46.43333,-26
46.44167,-26
46.45000,-27
46.45833,-27
46.46667,-28
46.47500,-28
46.48333,-28
46.49167,-29
46.50000,-29
46.50833,-29
46.51667,-29
46.52500,-29
46.53333,-29
46.54167,-30
46.55000,-30
46.55833,-30
46.56667,-30
46.57500,-30
46.58333,-30
46.59167,-30
46.60000,-30
46.60833,-31
46.61667,-31
46.62500,-32
46.63333,-32
46.64167,-33
46.65000,-33
46.65833,-33
46.66667,-33
46.67500,-33
46.68333,-33
46.69167,-33
46.70000,-33
46.70833,-33
46.71667,-33
46.72500,-34
46.73333,-34
46.74167,-34
46.75000,-35
46.75833,-35
46.76667,-35
46.77500,-35
46.78333,-35
46.79167,-35
46.80000,-35
46.80833,-35
46.81667,-36
46.82500,-36
46.83333,-36
46.84167,-35
46.85000,-35
46.85833,-36
46.86667,-36
46.87500,-36
46.88333,-36
46.89167,-36
46.90000,-37
46.90833,-37
46.91667,-37
46.92500,-37
46.93333,-37
46.94167,-37
46.95000,-37
46.95833,-37
46.96667,-37
46.97500,-37
46.98333,-37
46.99167,-37
47.00000,-37
47.00833,-37
47.01667,-37
47.02500,-37
47.03333,-37
47.04167,-37
47.05000,-38
47.05833,-38
47.06667,-38
47.07500,-38
47.08333,-38
47.09167,-38
47.10000,-38
47.10833,-37
47.11667,-37
47.12500,-36
47.13333,-36
47.14167,-36
47.15000,-37
47.15833,-36
47.16667,-37
47.17500,-37
47.18333,-37
47.19167,-36
47.20000,-36
47.20833,-36
47.21667,-36
47.22500,-36
47.23333,-36
47.24167,-35
47.25000,-35
47.25833,-35
47.26667,-34
47.27500,-34
47.28333,-33
47.29167,-33
47.30000,-33
47.30833,-33
47.31667,-32
47.32500,-32
47.33333,-32
47.34167,-31
47.35000,-31
47.35833,-30
47.36667,-30
47.37500,-29
47.38333,-28
47.39167,-28
47.40000,-27
47.40833,-27
47.41667,-26
47.42500,-26
47.43333,-25
47.44167,-25
47.45000,-24
47.45833,-23
47.46667,-23
47.47500,-22
47.48333,-22
47.49167,-22
47.50000,-21
47.50833,-20
47.51667,-19
47.52500,-18
47.53333,-17
47.54167,-16
47.55000,-16
47.55833,-15
47.56667,-14
47.57500,-13
47.58333,-12
47.59167,-12
47.60000,-11
47.60833,-10
47.61667,-9
47.62500,-8
47.63333,-7
47.64167,-6
47.65000,-5
47.65833,-4
47.66667,-3
47.67500,-3
47.68333,-2
47.69167,-1
47.70000,-1
47.70833,-0
47.71667,0
47.72500,1
47.73333,1
47.74167,2
47.75000,3
47.75833,4
47.76667,5
47.77500,6
47.78333,7
47.79167,8
47.80000,9
47.80833,9
47.81667,10
47.82500,12
47.83333,12
47.84167,13
47.85000,14
47.85833,14
47.86667,15
47.87500,15
47.88333,15
47.89167,16
47.90000,17
47.90833,18
47.91667,19
47.92500,19
47.93333,20
47.94167,21
47.95000,21
47.95833,22
47.96667,23
47.97500,23
47.98333,24
47.99167,24
48.00000,25
48.00833,26
48.01667,27
48.02500,27
48.03333,27
48.04167,27
48.05000,28
48.05833,29
48.06667,29
48.07500,29
48.08333,30
48.09167,31
48.10000,31
48.10833,32
48.11667,33
48.12500,33
48.13333,33
48.14167,34
48.15000,34
48.15833,35
48.16667,35
48.17500,36
48.18333,36
48.19167,37
48.20000,38
48.20833,38
48.21667,38
48.22500,38
48.23333,38
48.24167,39
48.25000,39
48.25833,40
48.26667,40
48.27500,41
48.28333,41
48.29167,41
48.30000,41
48.30833,41
48.31667,41
48.32500,41
48.33333,41
48.34167,41
48.35000,41
48.35833,42
48.36667,42
48.37500,42
48.38333,43
48.39167,43
48.40000,43
48.40833,43
48.41667,43
48.42500,43
48.43333,43
48.44167,44
48.45000,44
48.45833,44
48.46667,44
48.47500,44
48.48333,44
48.49167,44
48.50000,44
48.50833,44
48.51667,44
48.52500,44
48.53333,45
48.54167,45
48.55000,45
48.55833,45
48.56667,45
48.57500,45
48.58333,45
48.59167,45
48.60000,45
48.60833,45
48.61667,45
48.62500,45
48.63333,45
48.64167,45
48.65000,46
48.65833,46
48.66667,46
48.67500,46
48.68333,46
48.69167,46
48.70000,46
48.70833,46
48.71667,46
48.72500,46
48.73333,46
48.74167,46
48.75000,46
48.75833,46
48.76667,46
48.77500,46
48.78333,46
48.79167,46
48.80000,46
48.80833,46
48.81667,46
48.82500,46
48.83333,46
48.84167,46
48.85000,46
48.85833,46
48.86667,46
48.87500,46
48.88333,46
48.89167,46
48.90000,45
48.90833,46
48.91667,46
48.92500,46
48.93333,46
48.94167,46
48.95000,46
48.95833,46
48.96667,47
48.97500,47
48.98333,47
48.99167,47
49.00000,47
49.00833,47
49.01667,47
49.02500,48
49.03333,47
49.04167,47
49.05000,47
49.05833,47
49.06667,48
49.07500,48
49.08333,48
49.09167,48
49.10000,48
49.10833,49
49.11667,49
49.12500,49
49.13333,49
49.14167,49
49.15000,49
49.15833,49
49.16667,49
49.17500,49
49.18333,49
49.19167,48
49.20000,48
49.20833,48
49.21667,48
49.22500,48
49.23333,47
49.24167,47
49.25000,47
49.25833,48
49.26667,48
49.27500,48
49.28333,48
49.29167,48
49.30000,48
49.30833,47
49.31667,47
49.32500,47
49.33333,47
49.34167,47
49.35000,47
49.35833,46
49.36667,46
49.37500,46
49.38333,46
49.39167,46
49.40000,46
49.40833,46
49.41667,46
49.42500,45
49.43333,45
49.44167,45
49.45000,44
49.45833,44
49.46667,44
49.47500,44
49.48333,44
49.49167,44
49.50000,44
49.50833,44
49.51667,44
49.52500,44
49.53333,43
49.54167,43
49.55000,42
49.55833,42
49.56667,42
49.57500,42
49.58333,41
49.59167,41
49.60000,41
49.60833,40
49.61667,40
49.62500,40
49.63333,40
49.64167,39
49.65000,39
49.65833,38
49.66667,37
49.67500,37
49.68333,37
49.69167,37
49.70000,37
49.70833,37
49.71667,36
49.72500,36
49.73333,35
49.74167,35
49.75000,35
49.75833,34
49.76667,34
49.77500,33
49.78333,33
49.79167,32
49.80000,32
49.80833,32
49.81667,31
49.82500,30
49.83333,30
49.84167,30
49.85000,29
49.85833,29
49.86667,28
49.87500,28
49.88333,27
49.89167,27
49.90000,26
49.90833,25
49.91667,25
49.92500,24
49.93333,23
49.94167,22
49.95000,22
49.95833,21
49.96667,21
49.97500,20
49.98333,20
49.99167,19
50.00000,18

