[Header]
Application Name,LabSolutions
Version,5.97 SP1
Data File Name,C:\Users\cremerlab\Desktop\Richa\Sep_6th_2022_re-run_Sep2nd\Sep 6th_962022_014_015.lcd
Output Date,9/7/2022
Output Time,4:56:41 AM

[File Information]
Type,Data File
Generated,9/7/2022 4:06:21 AM
Generated by,System Administrator
Modified,9/7/2022 4:56:41 AM
Modified by,System Administrator

[Sample Information]
Operator Name,System Administrator
Acquired,9/7/2022 4:06:40 AM
Sample Type,0:Unknown
Level,0
Sample Name,090622_C.aerofaciens_2
Sample ID,014
ISTD Amount1,1
ISTD Amount2,1
ISTD Amount3,1
ISTD Amount4,1
ISTD Amount5,1
ISTD Amount6,1
ISTD Amount7,1
ISTD Amount8,1
ISTD Amount9,1
ISTD Amount10,1
ISTD Amount11,1
ISTD Amount12,1
ISTD Amount13,1
ISTD Amount14,1
ISTD Amount15,1
ISTD Amount16,1
ISTD Amount17,1
ISTD Amount18,1
ISTD Amount19,1
ISTD Amount20,1
ISTD Amount21,1
ISTD Amount22,1
ISTD Amount23,1
ISTD Amount24,1
ISTD Amount25,1
ISTD Amount26,1
ISTD Amount27,1
ISTD Amount28,1
ISTD Amount29,1
ISTD Amount30,1
ISTD Amount31,1
ISTD Amount32,1
Sample Amount,1
Dilution Factor,1
Vial#,14
Injection Volume,20

[Original Files]
Data File,C:\Users\cremerlab\Desktop\Richa\Sep_6th_2022_re-run_Sep2nd\Sep 6th_962022_014_015.lcd
Method File,C:\Users\cremerlab\Desktop\Richa\acetate_excretion.lcm
Batch File,C:\Users\cremerlab\Desktop\Richa\Sep_6th_2022_re-run_Sep2nd\Sep 6th.lcb
Report Format File,c:\LabSolutions\System\DEFAULT.lsr

[File Description]


[Configuration]
Instrument Name,HPLC-PC-Instrument1
Instrument #,1
Line #,1
# of Detectors,2
Detector ID,Detector A,Detector B
Detector Name,Detector A,Detector B
# of Channels,1,1

[Peak Table(Detector A)]
# of Peaks,0

[Peak Table(Detector B)]
# of Peaks,11
Peak#,R.Time,I.Time,F.Time,Area,Height,A/H,Conc.,Mark,ID#,Name,k',Plate #,Plate Ht.,Tailing,Resolution,Sep.Factor,Area Ratio,Height Ratio,Conc. %,Norm Conc.
1,11.025,10.267,12.300,2264313,115534,19.599,0.000,   ,,,0.000,7512,19.967,0.969,0.000,0.000,0,0,0.000,0.000
2,14.333,12.650,15.192,3570021,76491,46.672,0.000,   ,,,0.300,2487,60.310,0.655,3.990,0.000,0,0,0.000,0.000
3,15.765,15.192,17.367,1376935,47139,29.210,0.000, V ,,,0.430,6926,21.656,1.145,1.501,1.433,0,0,0.000,0.000
4,17.870,17.367,18.400,9156,278,32.936,0.000, V ,,,0.621,6436,23.307,0.000,2.553,1.444,0,0,0.000,0.000
5,19.058,18.425,19.750,13420,310,43.345,0.000,   ,,,0.729,4244,35.345,1.026,1.153,1.174,0,0,0.000,0.000
6,20.300,19.758,20.892,22174,609,36.415,0.000,   ,,,0.841,7084,21.176,0.000,1.164,1.155,0,0,0.000,0.000
7,21.573,20.892,22.558,93853,2116,44.345,0.000, V ,,,0.957,5760,26.042,0.000,1.211,1.137,0,0,0.000,0.000
8,23.156,22.592,24.175,9972,251,39.788,0.000,   ,,,1.100,8584,17.474,1.405,1.482,1.150,0,0,0.000,0.000
9,25.086,24.317,26.400,147071,3583,41.052,0.000,   ,,,1.275,9016,16.638,1.146,1.877,1.159,0,0,0.000,0.000
10,29.209,28.333,30.300,128574,2759,46.608,0.000,   ,,,1.649,9216,16.276,1.062,3.626,1.293,0,0,0.000,0.000
11,32.489,31.683,34.417,41150,544,75.636,0.000,   ,,,1.947,1296,115.779,1.603,1.359,1.180,0,0,0.000,0.000

[LC Chromatogram(Detector B-Ch1)]
Interval(msec),500
# of Points,6001
Start Time(min),0.000
End Time(min),50.000
Intensity Units,mV
Intensity Multiplier,0.001
R.Time (min),Intensity
0.00000,-23
0.00833,-23
0.01667,-10
0.02500,-0
0.03333,-1
0.04167,-1
0.05000,-2
0.05833,-2
0.06667,-3
0.07500,-4
0.08333,-5
0.09167,-5
0.10000,-5
0.10833,-6
0.11667,-7
0.12500,-7
0.13333,-8
0.14167,-9
0.15000,-9
0.15833,-9
0.16667,-10
0.17500,-10
0.18333,-11
0.19167,-11
0.20000,-12
0.20833,-13
0.21667,-14
0.22500,-14
0.23333,-15
0.24167,-15
0.25000,-16
0.25833,-17
0.26667,-17
0.27500,-17
0.28333,-17
0.29167,-17
0.30000,-17
0.30833,-18
0.31667,-19
0.32500,-20
0.33333,-20
0.34167,-20
0.35000,-20
0.35833,-21
0.36667,-21
0.37500,-21
0.38333,-21
0.39167,-21
0.40000,-21
0.40833,-22
0.41667,-22
0.42500,-22
0.43333,-23
0.44167,-23
0.45000,-24
0.45833,-24
0.46667,-24
0.47500,-24
0.48333,-24
0.49167,-24
0.50000,-24
0.50833,-24
0.51667,-24
0.52500,-24
0.53333,-24
0.54167,-24
0.55000,-25
0.55833,-25
0.56667,-26
0.57500,-26
0.58333,-26
0.59167,-26
0.60000,-26
0.60833,-26
0.61667,-26
0.62500,-26
0.63333,-26
0.64167,-26
0.65000,-26
0.65833,-26
0.66667,-26
0.67500,-26
0.68333,-26
0.69167,-26
0.70000,-27
0.70833,-27
0.71667,-27
0.72500,-27
0.73333,-27
0.74167,-27
0.75000,-27
0.75833,-27
0.76667,-27
0.77500,-27
0.78333,-27
0.79167,-27
0.80000,-27
0.80833,-27
0.81667,-27
0.82500,-27
0.83333,-27
0.84167,-27
0.85000,-27
0.85833,-27
0.86667,-27
0.87500,-26
0.88333,-26
0.89167,-26
0.90000,-26
0.90833,-26
0.91667,-26
0.92500,-26
0.93333,-25
0.94167,-25
0.95000,-25
0.95833,-25
0.96667,-25
0.97500,-24
0.98333,-25
0.99167,-24
1.00000,-24
1.00833,-24
1.01667,-24
1.02500,-24
1.03333,-24
1.04167,-24
1.05000,-23
1.05833,-23
1.06667,-23
1.07500,-22
1.08333,-22
1.09167,-21
1.10000,-21
1.10833,-21
1.11667,-21
1.12500,-21
1.13333,-21
1.14167,-21
1.15000,-21
1.15833,-21
1.16667,-20
1.17500,-20
1.18333,-20
1.19167,-19
1.20000,-19
1.20833,-19
1.21667,-20
1.22500,-20
1.23333,-20
1.24167,-20
1.25000,-20
1.25833,-20
1.26667,-20
1.27500,-20
1.28333,-19
1.29167,-19
1.30000,-19
1.30833,-19
1.31667,-18
1.32500,-18
1.33333,-18
1.34167,-18
1.35000,-17
1.35833,-17
1.36667,-17
1.37500,-16
1.38333,-16
1.39167,-16
1.40000,-16
1.40833,-16
1.41667,-16
1.42500,-16
1.43333,-16
1.44167,-16
1.45000,-16
1.45833,-15
1.46667,-15
1.47500,-15
1.48333,-15
1.49167,-14
1.50000,-14
1.50833,-14
1.51667,-14
1.52500,-13
1.53333,-14
1.54167,-14
1.55000,-14
1.55833,-13
1.56667,-13
1.57500,-13
1.58333,-13
1.59167,-12
1.60000,-12
1.60833,-12
1.61667,-12
1.62500,-12
1.63333,-12
1.64167,-12
1.65000,-11
1.65833,-11
1.66667,-11
1.67500,-11
1.68333,-11
1.69167,-10
1.70000,-10
1.70833,-10
1.71667,-10
1.72500,-11
1.73333,-11
1.74167,-11
1.75000,-11
1.75833,-11
1.76667,-10
1.77500,-10
1.78333,-10
1.79167,-9
1.80000,-9
1.80833,-9
1.81667,-9
1.82500,-9
1.83333,-9
1.84167,-9
1.85000,-8
1.85833,-8
1.86667,-8
1.87500,-8
1.88333,-8
1.89167,-8
1.90000,-8
1.90833,-8
1.91667,-8
1.92500,-8
1.93333,-8
1.94167,-8
1.95000,-8
1.95833,-7
1.96667,-7
1.97500,-7
1.98333,-7
1.99167,-7
2.00000,-7
2.00833,-7
2.01667,-7
2.02500,-7
2.03333,-7
2.04167,-7
2.05000,-7
2.05833,-7
2.06667,-7
2.07500,-6
2.08333,-6
2.09167,-6
2.10000,-6
2.10833,-6
2.11667,-6
2.12500,-6
2.13333,-6
2.14167,-7
2.15000,-7
2.15833,-8
2.16667,-8
2.17500,-7
2.18333,-7
2.19167,-7
2.20000,-6
2.20833,-6
2.21667,-6
2.22500,-6
2.23333,-6
2.24167,-6
2.25000,-6
2.25833,-6
2.26667,-6
2.27500,-7
2.28333,-7
2.29167,-7
2.30000,-7
2.30833,-7
2.31667,-7
2.32500,-8
2.33333,-8
2.34167,-8
2.35000,-8
2.35833,-8
2.36667,-8
2.37500,-8
2.38333,-8
2.39167,-8
2.40000,-8
2.40833,-7
2.41667,-7
2.42500,-8
2.43333,-8
2.44167,-8
2.45000,-8
2.45833,-8
2.46667,-9
2.47500,-9
2.48333,-10
2.49167,-10
2.50000,-10
2.50833,-10
2.51667,-10
2.52500,-10
2.53333,-9
2.54167,-10
2.55000,-10
2.55833,-10
2.56667,-10
2.57500,-10
2.58333,-10
2.59167,-10
2.60000,-10
2.60833,-10
2.61667,-10
2.62500,-10
2.63333,-11
2.64167,-11
2.65000,-11
2.65833,-11
2.66667,-11
2.67500,-11
2.68333,-11
2.69167,-11
2.70000,-12
2.70833,-12
2.71667,-12
2.72500,-12
2.73333,-12
2.74167,-12
2.75000,-12
2.75833,-13
2.76667,-12
2.77500,-12
2.78333,-12
2.79167,-12
2.80000,-12
2.80833,-12
2.81667,-12
2.82500,-12
2.83333,-12
2.84167,-13
2.85000,-13
2.85833,-13
2.86667,-14
2.87500,-14
2.88333,-14
2.89167,-14
2.90000,-14
2.90833,-14
2.91667,-14
2.92500,-14
2.93333,-14
2.94167,-14
2.95000,-14
2.95833,-14
2.96667,-14
2.97500,-14
2.98333,-14
2.99167,-14
3.00000,-14
3.00833,-14
3.01667,-14
3.02500,-14
3.03333,-14
3.04167,-14
3.05000,-14
3.05833,-14
3.06667,-15
3.07500,-14
3.08333,-15
3.09167,-15
3.10000,-15
3.10833,-16
3.11667,-16
3.12500,-15
3.13333,-15
3.14167,-15
3.15000,-15
3.15833,-15
3.16667,-15
3.17500,-15
3.18333,-15
3.19167,-16
3.20000,-16
3.20833,-15
3.21667,-15
3.22500,-15
3.23333,-15
3.24167,-15
3.25000,-15
3.25833,-15
3.26667,-15
3.27500,-15
3.28333,-15
3.29167,-15
3.30000,-15
3.30833,-15
3.31667,-15
3.32500,-15
3.33333,-16
3.34167,-16
3.35000,-16
3.35833,-16
3.36667,-16
3.37500,-16
3.38333,-17
3.39167,-16
3.40000,-16
3.40833,-15
3.41667,-15
3.42500,-14
3.43333,-14
3.44167,-14
3.45000,-14
3.45833,-14
3.46667,-14
3.47500,-14
3.48333,-14
3.49167,-14
3.50000,-14
3.50833,-13
3.51667,-13
3.52500,-13
3.53333,-13
3.54167,-13
3.55000,-13
3.55833,-13
3.56667,-13
3.57500,-13
3.58333,-13
3.59167,-13
3.60000,-13
3.60833,-13
3.61667,-13
3.62500,-13
3.63333,-13
3.64167,-13
3.65000,-13
3.65833,-13
3.66667,-13
3.67500,-13
3.68333,-12
3.69167,-12
3.70000,-12
3.70833,-11
3.71667,-11
3.72500,-11
3.73333,-11
3.74167,-11
3.75000,-11
3.75833,-11
3.76667,-10
3.77500,-10
3.78333,-10
3.79167,-10
3.80000,-10
3.80833,-9
3.81667,-9
3.82500,-9
3.83333,-8
3.84167,-8
3.85000,-8
3.85833,-8
3.86667,-7
3.87500,-7
3.88333,-7
3.89167,-7
3.90000,-7
3.90833,-7
3.91667,-6
3.92500,-6
3.93333,-6
3.94167,-6
3.95000,-5
3.95833,-5
3.96667,-4
3.97500,-4
3.98333,-4
3.99167,-4
4.00000,-3
4.00833,-3
4.01667,-2
4.02500,-1
4.03333,-1
4.04167,-0
4.05000,0
4.05833,1
4.06667,1
4.07500,1
4.08333,2
4.09167,2
4.10000,3
4.10833,3
4.11667,3
4.12500,3
4.13333,3
4.14167,4
4.15000,4
4.15833,5
4.16667,5
4.17500,6
4.18333,7
4.19167,7
4.20000,7
4.20833,8
4.21667,8
4.22500,9
4.23333,10
4.24167,10
4.25000,11
4.25833,11
4.26667,12
4.27500,13
4.28333,14
4.29167,14
4.30000,15
4.30833,16
4.31667,16
4.32500,17
4.33333,18
4.34167,18
4.35000,19
4.35833,19
4.36667,20
4.37500,21
4.38333,21
4.39167,21
4.40000,22
4.40833,23
4.41667,24
4.42500,24
4.43333,25
4.44167,25
4.45000,26
4.45833,26
4.46667,27
4.47500,28
4.48333,28
4.49167,29
4.50000,30
4.50833,31
4.51667,31
4.52500,32
4.53333,33
4.54167,33
4.55000,34
4.55833,34
4.56667,35
4.57500,36
4.58333,37
4.59167,38
4.60000,38
4.60833,39
4.61667,39
4.62500,39
4.63333,40
4.64167,41
4.65000,41
4.65833,41
4.66667,42
4.67500,42
4.68333,42
4.69167,43
4.70000,43
4.70833,43
4.71667,44
4.72500,44
4.73333,45
4.74167,45
4.75000,45
4.75833,46
4.76667,47
4.77500,47
4.78333,48
4.79167,48
4.80000,48
4.80833,49
4.81667,49
4.82500,49
4.83333,49
4.84167,49
4.85000,50
4.85833,50
4.86667,50
4.87500,51
4.88333,51
4.89167,51
4.90000,51
4.90833,52
4.91667,52
4.92500,52
4.93333,52
4.94167,52
4.95000,52
4.95833,52
4.96667,52
4.97500,53
4.98333,53
4.99167,53
5.00000,53
5.00833,54
5.01667,54
5.02500,54
5.03333,54
5.04167,54
5.05000,54
5.05833,54
5.06667,54
5.07500,54
5.08333,54
5.09167,54
5.10000,54
5.10833,54
5.11667,54
5.12500,54
5.13333,54
5.14167,53
5.15000,53
5.15833,52
5.16667,52
5.17500,52
5.18333,52
5.19167,52
5.20000,51
5.20833,51
5.21667,51
5.22500,50
5.23333,50
5.24167,50
5.25000,49
5.25833,49
5.26667,48
5.27500,48
5.28333,48
5.29167,47
5.30000,47
5.30833,46
5.31667,46
5.32500,46
5.33333,45
5.34167,45
5.35000,45
5.35833,44
5.36667,44
5.37500,43
5.38333,43
5.39167,43
5.40000,43
5.40833,42
5.41667,42
5.42500,41
5.43333,40
5.44167,40
5.45000,39
5.45833,39
5.46667,38
5.47500,37
5.48333,37
5.49167,36
5.50000,36
5.50833,35
5.51667,35
5.52500,34
5.53333,34
5.54167,34
5.55000,33
5.55833,33
5.56667,32
5.57500,31
5.58333,30
5.59167,29
5.60000,29
5.60833,28
5.61667,27
5.62500,27
5.63333,26
5.64167,26
5.65000,25
5.65833,24
5.66667,23
5.67500,22
5.68333,21
5.69167,21
5.70000,20
5.70833,19
5.71667,19
5.72500,18
5.73333,17
5.74167,16
5.75000,16
5.75833,15
5.76667,14
5.77500,13
5.78333,12
5.79167,11
5.80000,11
5.80833,10
5.81667,9
5.82500,8
5.83333,8
5.84167,7
5.85000,6
5.85833,5
5.86667,4
5.87500,4
5.88333,3
5.89167,3
5.90000,2
5.90833,1
5.91667,0
5.92500,-1
5.93333,-2
5.94167,-3
5.95000,-4
5.95833,-4
5.96667,-5
5.97500,-5
5.98333,-6
5.99167,-7
6.00000,-8
6.00833,-9
6.01667,-10
6.02500,-11
6.03333,-12
6.04167,-13
6.05000,-13
6.05833,-14
6.06667,-14
6.07500,-15
6.08333,-15
6.09167,-16
6.10000,-16
6.10833,-17
6.11667,-18
6.12500,-19
6.13333,-20
6.14167,-21
6.15000,-21
6.15833,-21
6.16667,-22
6.17500,-23
6.18333,-23
6.19167,-24
6.20000,-25
6.20833,-25
6.21667,-26
6.22500,-27
6.23333,-28
6.24167,-29
6.25000,-30
6.25833,-30
6.26667,-31
6.27500,-31
6.28333,-31
6.29167,-32
6.30000,-33
6.30833,-33
6.31667,-34
6.32500,-34
6.33333,-35
6.34167,-35
6.35000,-35
6.35833,-36
6.36667,-36
6.37500,-36
6.38333,-37
6.39167,-38
6.40000,-38
6.40833,-39
6.41667,-39
6.42500,-40
6.43333,-40
6.44167,-41
6.45000,-41
6.45833,-41
6.46667,-41
6.47500,-41
6.48333,-41
6.49167,-42
6.50000,-42
6.50833,-43
6.51667,-43
6.52500,-44
6.53333,-44
6.54167,-45
6.55000,-45
6.55833,-45
6.56667,-45
6.57500,-46
6.58333,-45
6.59167,-45
6.60000,-45
6.60833,-45
6.61667,-46
6.62500,-46
6.63333,-47
6.64167,-47
6.65000,-47
6.65833,-47
6.66667,-47
6.67500,-47
6.68333,-47
6.69167,-48
6.70000,-48
6.70833,-48
6.71667,-48
6.72500,-49
6.73333,-49
6.74167,-49
6.75000,-49
6.75833,-49
6.76667,-49
6.77500,-49
6.78333,-49
6.79167,-50
6.80000,-50
6.80833,-50
6.81667,-50
6.82500,-50
6.83333,-50
6.84167,-50
6.85000,-51
6.85833,-51
6.86667,-51
6.87500,-51
6.88333,-51
6.89167,-51
6.90000,-51
6.90833,-51
6.91667,-51
6.92500,-51
6.93333,-51
6.94167,-51
6.95000,-51
6.95833,-51
6.96667,-51
6.97500,-51
6.98333,-52
6.99167,-52
7.00000,-52
7.00833,-52
7.01667,-52
7.02500,-52
7.03333,-52
7.04167,-52
7.05000,-51
7.05833,-52
7.06667,-52
7.07500,-52
7.08333,-52
7.09167,-52
7.10000,-52
7.10833,-52
7.11667,-52
7.12500,-52
7.13333,-52
7.14167,-52
7.15000,-52
7.15833,-53
7.16667,-53
7.17500,-54
7.18333,-54
7.19167,-53
7.20000,-53
7.20833,-53
7.21667,-54
7.22500,-54
7.23333,-53
7.24167,-53
7.25000,-53
7.25833,-53
7.26667,-53
7.27500,-53
7.28333,-53
7.29167,-53
7.30000,-53
7.30833,-53
7.31667,-53
7.32500,-53
7.33333,-53
7.34167,-52
7.35000,-52
7.35833,-52
7.36667,-52
7.37500,-52
7.38333,-53
7.39167,-53
7.40000,-53
7.40833,-53
7.41667,-53
7.42500,-53
7.43333,-53
7.44167,-53
7.45000,-53
7.45833,-53
7.46667,-54
7.47500,-54
7.48333,-54
7.49167,-53
7.50000,-53
7.50833,-53
7.51667,-53
7.52500,-53
7.53333,-53
7.54167,-53
7.55000,-53
7.55833,-54
7.56667,-54
7.57500,-54
7.58333,-54
7.59167,-54
7.60000,-54
7.60833,-54
7.61667,-54
7.62500,-54
7.63333,-53
7.64167,-53
7.65000,-53
7.65833,-53
7.66667,-53
7.67500,-53
7.68333,-53
7.69167,-53
7.70000,-54
7.70833,-54
7.71667,-54
7.72500,-55
7.73333,-55
7.74167,-55
7.75000,-55
7.75833,-55
7.76667,-55
7.77500,-55
7.78333,-55
7.79167,-55
7.80000,-55
7.80833,-55
7.81667,-55
7.82500,-54
7.83333,-55
7.84167,-55
7.85000,-55
7.85833,-55
7.86667,-55
7.87500,-55
7.88333,-55
7.89167,-55
7.90000,-55
7.90833,-55
7.91667,-55
7.92500,-55
7.93333,-55
7.94167,-55
7.95000,-55
7.95833,-55
7.96667,-56
7.97500,-56
7.98333,-56
7.99167,-55
8.00000,-55
8.00833,-55
8.01667,-55
8.02500,-55
8.03333,-55
8.04167,-55
8.05000,-55
8.05833,-55
8.06667,-55
8.07500,-56
8.08333,-56
8.09167,-56
8.10000,-56
8.10833,-56
8.11667,-56
8.12500,-56
8.13333,-56
8.14167,-56
8.15000,-56
8.15833,-56
8.16667,-56
8.17500,-56
8.18333,-56
8.19167,-56
8.20000,-56
8.20833,-56
8.21667,-57
8.22500,-57
8.23333,-57
8.24167,-56
8.25000,-56
8.25833,-56
8.26667,-56
8.27500,-56
8.28333,-56
8.29167,-56
8.30000,-57
8.30833,-57
8.31667,-57
8.32500,-57
8.33333,-57
8.34167,-58
8.35000,-58
8.35833,-58
8.36667,-58
8.37500,-58
8.38333,-58
8.39167,-58
8.40000,-58
8.40833,-58
8.41667,-58
8.42500,-58
8.43333,-58
8.44167,-58
8.45000,-58
8.45833,-57
8.46667,-57
8.47500,-57
8.48333,-57
8.49167,-57
8.50000,-57
8.50833,-57
8.51667,-58
8.52500,-57
8.53333,-57
8.54167,-57
8.55000,-57
8.55833,-57
8.56667,-57
8.57500,-57
8.58333,-57
8.59167,-57
8.60000,-57
8.60833,-57
8.61667,-57
8.62500,-57
8.63333,-57
8.64167,-57
8.65000,-57
8.65833,-57
8.66667,-57
8.67500,-57
8.68333,-57
8.69167,-57
8.70000,-58
8.70833,-58
8.71667,-58
8.72500,-57
8.73333,-57
8.74167,-57
8.75000,-57
8.75833,-57
8.76667,-57
8.77500,-57
8.78333,-57
8.79167,-56
8.80000,-56
8.80833,-56
8.81667,-57
8.82500,-57
8.83333,-57
8.84167,-57
8.85000,-57
8.85833,-57
8.86667,-57
8.87500,-57
8.88333,-57
8.89167,-57
8.90000,-57
8.90833,-57
8.91667,-56
8.92500,-56
8.93333,-56
8.94167,-56
8.95000,-56
8.95833,-56
8.96667,-57
8.97500,-57
8.98333,-57
8.99167,-57
9.00000,-57
9.00833,-57
9.01667,-57
9.02500,-56
9.03333,-56
9.04167,-56
9.05000,-56
9.05833,-56
9.06667,-56
9.07500,-56
9.08333,-57
9.09167,-57
9.10000,-57
9.10833,-57
9.11667,-57
9.12500,-57
9.13333,-57
9.14167,-56
9.15000,-56
9.15833,-56
9.16667,-57
9.17500,-57
9.18333,-57
9.19167,-57
9.20000,-57
9.20833,-57
9.21667,-57
9.22500,-57
9.23333,-57
9.24167,-57
9.25000,-57
9.25833,-56
9.26667,-56
9.27500,-56
9.28333,-57
9.29167,-57
9.30000,-57
9.30833,-57
9.31667,-57
9.32500,-57
9.33333,-57
9.34167,-58
9.35000,-58
9.35833,-58
9.36667,-58
9.37500,-58
9.38333,-57
9.39167,-57
9.40000,-57
9.40833,-58
9.41667,-58
9.42500,-58
9.43333,-58
9.44167,-57
9.45000,-57
9.45833,-57
9.46667,-57
9.47500,-58
9.48333,-57
9.49167,-57
9.50000,-57
9.50833,-57
9.51667,-58
9.52500,-57
9.53333,-57
9.54167,-57
9.55000,-57
9.55833,-57
9.56667,-57
9.57500,-57
9.58333,-57
9.59167,-57
9.60000,-57
9.60833,-57
9.61667,-57
9.62500,-57
9.63333,-57
9.64167,-57
9.65000,-57
9.65833,-57
9.66667,-57
9.67500,-56
9.68333,-56
9.69167,-56
9.70000,-57
9.70833,-57
9.71667,-57
9.72500,-57
9.73333,-57
9.74167,-57
9.75000,-57
9.75833,-57
9.76667,-57
9.77500,-56
9.78333,-56
9.79167,-56
9.80000,-56
9.80833,-56
9.81667,-56
9.82500,-56
9.83333,-56
9.84167,-56
9.85000,-56
9.85833,-56
9.86667,-56
9.87500,-56
9.88333,-55
9.89167,-55
9.90000,-54
9.90833,-55
9.91667,-55
9.92500,-55
9.93333,-55
9.94167,-55
9.95000,-55
9.95833,-55
9.96667,-55
9.97500,-55
9.98333,-54
9.99167,-54
10.00000,-54
10.00833,-53
10.01667,-53
10.02500,-53
10.03333,-53
10.04167,-53
10.05000,-53
10.05833,-53
10.06667,-53
10.07500,-53
10.08333,-53
10.09167,-53
10.10000,-52
10.10833,-51
10.11667,-51
10.12500,-50
10.13333,-49
10.14167,-48
10.15000,-47
10.15833,-46
10.16667,-45
10.17500,-45
10.18333,-44
10.19167,-43
10.20000,-42
10.20833,-40
10.21667,-39
10.22500,-38
10.23333,-36
10.24167,-35
10.25000,-33
10.25833,-31
10.26667,-29
10.27500,-26
10.28333,-23
10.29167,-20
10.30000,-16
10.30833,-12
10.31667,-6
10.32500,-0
10.33333,7
10.34167,16
10.35000,26
10.35833,38
10.36667,50
10.37500,65
10.38333,81
10.39167,98
10.40000,116
10.40833,135
10.41667,153
10.42500,172
10.43333,190
10.44167,206
10.45000,220
10.45833,231
10.46667,240
10.47500,245
10.48333,247
10.49167,247
10.50000,245
10.50833,244
10.51667,245
10.52500,251
10.53333,265
10.54167,290
10.55000,331
10.55833,393
10.56667,481
10.57500,600
10.58333,756
10.59167,956
10.60000,1204
10.60833,1506
10.61667,1870
10.62500,2301
10.63333,2805
10.64167,3388
10.65000,4055
10.65833,4812
10.66667,5663
10.67500,6613
10.68333,7666
10.69167,8826
10.70000,10097
10.70833,11481
10.71667,12980
10.72500,14599
10.73333,16337
10.74167,18196
10.75000,20177
10.75833,22282
10.76667,24510
10.77500,26860
10.78333,29332
10.79167,31925
10.80000,34636
10.80833,37465
10.81667,40407
10.82500,43461
10.83333,46621
10.84167,49883
10.85000,53242
10.85833,56691
10.86667,60224
10.87500,63830
10.88333,67500
10.89167,71222
10.90000,74982
10.90833,78762
10.91667,82543
10.92500,86301
10.93333,90010
10.94167,93638
10.95000,97150
10.95833,100506
10.96667,103660
10.97500,106565
10.98333,109168
10.99167,111415
11.00000,113248
11.00833,114614
11.01667,115458
11.02500,115735
11.03333,115406
11.04167,114443
11.05000,112831
11.05833,110574
11.06667,107691
11.07500,104217
11.08333,100209
11.09167,95733
11.10000,90872
11.10833,85715
11.11667,80356
11.12500,74890
11.13333,69406
11.14167,63988
11.15000,58709
11.15833,53631
11.16667,48803
11.17500,44261
11.18333,40030
11.19167,36123
11.20000,32544
11.20833,29289
11.21667,26348
11.22500,23705
11.23333,21342
11.24167,19238
11.25000,17372
11.25833,15720
11.26667,14262
11.27500,12977
11.28333,11844
11.29167,10848
11.30000,9971
11.30833,9198
11.31667,8516
11.32500,7913
11.33333,7379
11.34167,6904
11.35000,6481
11.35833,6102
11.36667,5762
11.37500,5455
11.38333,5178
11.39167,4926
11.40000,4695
11.40833,4484
11.41667,4289
11.42500,4108
11.43333,3941
11.44167,3785
11.45000,3639
11.45833,3502
11.46667,3373
11.47500,3252
11.48333,3136
11.49167,3027
11.50000,2923
11.50833,2823
11.51667,2729
11.52500,2638
11.53333,2552
11.54167,2469
11.55000,2390
11.55833,2314
11.56667,2241
11.57500,2171
11.58333,2104
11.59167,2040
11.60000,1978
11.60833,1918
11.61667,1861
11.62500,1806
11.63333,1753
11.64167,1702
11.65000,1654
11.65833,1607
11.66667,1562
11.67500,1519
11.68333,1478
11.69167,1438
11.70000,1400
11.70833,1363
11.71667,1328
11.72500,1294
11.73333,1262
11.74167,1232
11.75000,1202
11.75833,1174
11.76667,1146
11.77500,1120
11.78333,1095
11.79167,1071
11.80000,1048
11.80833,1026
11.81667,1005
11.82500,986
11.83333,966
11.84167,948
11.85000,930
11.85833,913
11.86667,897
11.87500,882
11.88333,867
11.89167,853
11.90000,839
11.90833,826
11.91667,813
11.92500,801
11.93333,790
11.94167,779
11.95000,768
11.95833,758
11.96667,749
11.97500,739
11.98333,731
11.99167,722
12.00000,714
12.00833,706
12.01667,699
12.02500,692
12.03333,685
12.04167,678
12.05000,672
12.05833,666
12.06667,660
12.07500,655
12.08333,650
12.09167,645
12.10000,641
12.10833,636
12.11667,632
12.12500,628
12.13333,624
12.14167,620
12.15000,617
12.15833,614
12.16667,611
12.17500,608
12.18333,606
12.19167,604
12.20000,602
12.20833,600
12.21667,597
12.22500,596
12.23333,594
12.24167,592
12.25000,591
12.25833,590
12.26667,589
12.27500,588
12.28333,588
12.29167,588
12.30000,588
12.30833,587
12.31667,587
12.32500,588
12.33333,588
12.34167,588
12.35000,588
12.35833,588
12.36667,588
12.37500,588
12.38333,588
12.39167,588
12.40000,588
12.40833,587
12.41667,587
12.42500,587
12.43333,587
12.44167,587
12.45000,586
12.45833,586
12.46667,585
12.47500,585
12.48333,584
12.49167,583
12.50000,581
12.50833,580
12.51667,579
12.52500,578
12.53333,577
12.54167,575
12.55000,573
12.55833,572
12.56667,570
12.57500,568
12.58333,567
12.59167,565
12.60000,564
12.60833,562
12.61667,561
12.62500,559
12.63333,558
12.64167,558
12.65000,558
12.65833,558
12.66667,559
12.67500,560
12.68333,562
12.69167,566
12.70000,570
12.70833,575
12.71667,582
12.72500,591
12.73333,602
12.74167,615
12.75000,630
12.75833,648
12.76667,668
12.77500,691
12.78333,718
12.79167,748
12.80000,782
12.80833,821
12.81667,863
12.82500,909
12.83333,960
12.84167,1016
12.85000,1076
12.85833,1142
12.86667,1213
12.87500,1289
12.88333,1370
12.89167,1457
12.90000,1549
12.90833,1647
12.91667,1750
12.92500,1858
12.93333,1973
12.94167,2093
12.95000,2218
12.95833,2350
12.96667,2487
12.97500,2630
12.98333,2779
12.99167,2933
13.00000,3093
13.00833,3259
13.01667,3430
13.02500,3606
13.03333,3787
13.04167,3974
13.05000,4167
13.05833,4365
13.06667,4568
13.07500,4776
13.08333,4989
13.09167,5207
13.10000,5429
13.10833,5657
13.11667,5889
13.12500,6126
13.13333,6368
13.14167,6613
13.15000,6863
13.15833,7118
13.16667,7376
13.17500,7639
13.18333,7905
13.19167,8176
13.20000,8450
13.20833,8728
13.21667,9011
13.22500,9296
13.23333,9586
13.24167,9878
13.25000,10175
13.25833,10474
13.26667,10777
13.27500,11084
13.28333,11394
13.29167,11707
13.30000,12024
13.30833,12343
13.31667,12666
13.32500,12991
13.33333,13320
13.34167,13652
13.35000,13987
13.35833,14325
13.36667,14666
13.37500,15010
13.38333,15357
13.39167,15706
13.40000,16059
13.40833,16415
13.41667,16773
13.42500,17135
13.43333,17500
13.44167,17868
13.45000,18238
13.45833,18611
13.46667,18988
13.47500,19368
13.48333,19751
13.49167,20136
13.50000,20525
13.50833,20916
13.51667,21311
13.52500,21709
13.53333,22110
13.54167,22514
13.55000,22920
13.55833,23330
13.56667,23744
13.57500,24161
13.58333,24581
13.59167,25005
13.60000,25431
13.60833,25861
13.61667,26294
13.62500,26730
13.63333,27170
13.64167,27614
13.65000,28061
13.65833,28512
13.66667,28966
13.67500,29424
13.68333,29885
13.69167,30350
13.70000,30819
13.70833,31292
13.71667,31768
13.72500,32248
13.73333,32732
13.74167,33220
13.75000,33712
13.75833,34208
13.76667,34708
13.77500,35212
13.78333,35719
13.79167,36231
13.80000,36747
13.80833,37267
13.81667,37792
13.82500,38322
13.83333,38855
13.84167,39393
13.85000,39935
13.85833,40482
13.86667,41033
13.87500,41590
13.88333,42151
13.89167,42717
13.90000,43287
13.90833,43863
13.91667,44443
13.92500,45028
13.93333,45619
13.94167,46214
13.95000,46814
13.95833,47420
13.96667,48030
13.97500,48646
13.98333,49267
13.99167,49894
14.00000,50527
14.00833,51165
14.01667,51808
14.02500,52457
14.03333,53112
14.04167,53773
14.05000,54439
14.05833,55112
14.06667,55791
14.07500,56475
14.08333,57166
14.09167,57863
14.10000,58566
14.10833,59276
14.11667,59992
14.12500,60715
14.13333,61444
14.14167,62180
14.15000,62923
14.15833,63672
14.16667,64429
14.17500,65192
14.18333,65963
14.19167,66741
14.20000,67525
14.20833,68315
14.21667,69109
14.22500,69904
14.23333,70698
14.24167,71485
14.25000,72258
14.25833,73011
14.26667,73734
14.27500,74416
14.28333,75045
14.29167,75609
14.30000,76096
14.30833,76493
14.31667,76788
14.32500,76972
14.33333,77035
14.34167,76970
14.35000,76770
14.35833,76431
14.36667,75948
14.37500,75320
14.38333,74545
14.39167,73620
14.40000,72543
14.40833,71312
14.41667,69927
14.42500,68384
14.43333,66682
14.44167,64823
14.45000,62807
14.45833,60639
14.46667,58328
14.47500,55884
14.48333,53322
14.49167,50661
14.50000,47921
14.50833,45128
14.51667,42308
14.52500,39488
14.53333,36696
14.54167,33958
14.55000,31297
14.55833,28735
14.56667,26290
14.57500,23978
14.58333,21808
14.59167,19789
14.60000,17922
14.60833,16208
14.61667,14645
14.62500,13227
14.63333,11948
14.64167,10799
14.65000,9771
14.65833,8854
14.66667,8040
14.67500,7318
14.68333,6678
14.69167,6113
14.70000,5614
14.70833,5174
14.71667,4785
14.72500,4442
14.73333,4138
14.74167,3869
14.75000,3630
14.75833,3418
14.76667,3229
14.77500,3060
14.78333,2908
14.79167,2772
14.80000,2648
14.80833,2537
14.81667,2435
14.82500,2343
14.83333,2259
14.84167,2182
14.85000,2111
14.85833,2044
14.86667,1982
14.87500,1924
14.88333,1871
14.89167,1820
14.90000,1773
14.90833,1729
14.91667,1688
14.92500,1649
14.93333,1611
14.94167,1577
14.95000,1543
14.95833,1512
14.96667,1482
14.97500,1454
14.98333,1427
14.99167,1401
15.00000,1376
15.00833,1353
15.01667,1331
15.02500,1310
15.03333,1290
15.04167,1271
15.05000,1253
15.05833,1236
15.06667,1220
15.07500,1205
15.08333,1191
15.09167,1178
15.10000,1165
15.10833,1153
15.11667,1142
15.12500,1132
15.13333,1122
15.14167,1114
15.15000,1107
15.15833,1101
15.16667,1096
15.17500,1092
15.18333,1090
15.19167,1090
15.20000,1092
15.20833,1098
15.21667,1106
15.22500,1119
15.23333,1137
15.24167,1161
15.25000,1192
15.25833,1232
15.26667,1281
15.27500,1341
15.28333,1415
15.29167,1504
15.30000,1610
15.30833,1736
15.31667,1884
15.32500,2058
15.33333,2259
15.34167,2491
15.35000,2757
15.35833,3061
15.36667,3405
15.37500,3793
15.38333,4228
15.39167,4712
15.40000,5248
15.40833,5839
15.41667,6487
15.42500,7194
15.43333,7960
15.44167,8788
15.45000,9676
15.45833,10624
15.46667,11633
15.47500,12699
15.48333,13821
15.49167,14996
15.50000,16220
15.50833,17490
15.51667,18800
15.52500,20144
15.53333,21518
15.54167,22915
15.55000,24328
15.55833,25751
15.56667,27177
15.57500,28598
15.58333,30008
15.59167,31400
15.60000,32767
15.60833,34102
15.61667,35399
15.62500,36653
15.63333,37857
15.64167,39006
15.65000,40098
15.65833,41126
15.66667,42088
15.67500,42981
15.68333,43800
15.69167,44545
15.70000,45213
15.70833,45803
15.71667,46313
15.72500,46743
15.73333,47092
15.74167,47358
15.75000,47544
15.75833,47648
15.76667,47672
15.77500,47615
15.78333,47478
15.79167,47263
15.80000,46970
15.80833,46602
15.81667,46160
15.82500,45647
15.83333,45064
15.84167,44413
15.85000,43698
15.85833,42922
15.86667,42087
15.87500,41199
15.88333,40260
15.89167,39274
15.90000,38247
15.90833,37182
15.91667,36084
15.92500,34958
15.93333,33809
15.94167,32641
15.95000,31460
15.95833,30270
15.96667,29075
15.97500,27881
15.98333,26691
15.99167,25511
16.00000,24344
16.00833,23194
16.01667,22065
16.02500,20959
16.03333,19879
16.04167,18829
16.05000,17810
16.05833,16824
16.06667,15873
16.07500,14957
16.08333,14080
16.09167,13240
16.10000,12438
16.10833,11675
16.11667,10951
16.12500,10264
16.13333,9616
16.14167,9004
16.15000,8428
16.15833,7888
16.16667,7381
16.17500,6908
16.18333,6465
16.19167,6054
16.20000,5670
16.20833,5314
16.21667,4983
16.22500,4677
16.23333,4395
16.24167,4134
16.25000,3893
16.25833,3671
16.26667,3467
16.27500,3279
16.28333,3107
16.29167,2948
16.30000,2803
16.30833,2669
16.31667,2546
16.32500,2433
16.33333,2330
16.34167,2235
16.35000,2148
16.35833,2068
16.36667,1994
16.37500,1926
16.38333,1863
16.39167,1805
16.40000,1752
16.40833,1702
16.41667,1655
16.42500,1612
16.43333,1572
16.44167,1534
16.45000,1499
16.45833,1465
16.46667,1433
16.47500,1403
16.48333,1375
16.49167,1347
16.50000,1320
16.50833,1295
16.51667,1271
16.52500,1247
16.53333,1224
16.54167,1202
16.55000,1180
16.55833,1159
16.56667,1138
16.57500,1117
16.58333,1097
16.59167,1078
16.60000,1058
16.60833,1039
16.61667,1020
16.62500,1002
16.63333,984
16.64167,966
16.65000,949
16.65833,933
16.66667,916
16.67500,900
16.68333,884
16.69167,869
16.70000,854
16.70833,840
16.71667,826
16.72500,813
16.73333,800
16.74167,787
16.75000,776
16.75833,764
16.76667,754
16.77500,743
16.78333,733
16.79167,724
16.80000,715
16.80833,706
16.81667,699
16.82500,692
16.83333,685
16.84167,678
16.85000,672
16.85833,666
16.86667,661
16.87500,656
16.88333,651
16.89167,647
16.90000,643
16.90833,639
16.91667,635
16.92500,632
16.93333,630
16.94167,627
16.95000,625
16.95833,623
16.96667,621
16.97500,619
16.98333,617
16.99167,615
17.00000,614
17.00833,612
17.01667,611
17.02500,610
17.03333,609
17.04167,608
17.05000,607
17.05833,606
17.06667,606
17.07500,605
17.08333,604
17.09167,604
17.10000,603
17.10833,603
17.11667,602
17.12500,601
17.13333,601
17.14167,600
17.15000,599
17.15833,598
17.16667,597
17.17500,597
17.18333,596
17.19167,596
17.20000,595
17.20833,595
17.21667,594
17.22500,593
17.23333,593
17.24167,591
17.25000,591
17.25833,590
17.26667,589
17.27500,588
17.28333,587
17.29167,586
17.30000,586
17.30833,585
17.31667,585
17.32500,585
17.33333,584
17.34167,583
17.35000,582
17.35833,582
17.36667,582
17.37500,582
17.38333,582
17.39167,582
17.40000,582
17.40833,582
17.41667,583
17.42500,585
17.43333,586
17.44167,588
17.45000,590
17.45833,592
17.46667,594
17.47500,596
17.48333,599
17.49167,602
17.50000,605
17.50833,609
17.51667,612
17.52500,616
17.53333,621
17.54167,626
17.55000,631
17.55833,636
17.56667,641
17.57500,647
17.58333,653
17.59167,658
17.60000,664
17.60833,670
17.61667,675
17.62500,681
17.63333,687
17.64167,692
17.65000,699
17.65833,705
17.66667,710
17.67500,716
17.68333,721
17.69167,726
17.70000,732
17.70833,737
17.71667,742
17.72500,747
17.73333,752
17.74167,756
17.75000,761
17.75833,765
17.76667,769
17.77500,772
17.78333,776
17.79167,779
17.80000,783
17.80833,785
17.81667,787
17.82500,789
17.83333,790
17.84167,792
17.85000,793
17.85833,794
17.86667,794
17.87500,794
17.88333,794
17.89167,793
17.90000,792
17.90833,790
17.91667,788
17.92500,785
17.93333,782
17.94167,779
17.95000,776
17.95833,772
17.96667,769
17.97500,764
17.98333,760
17.99167,755
18.00000,750
18.00833,744
18.01667,739
18.02500,733
18.03333,727
18.04167,721
18.05000,715
18.05833,708
18.06667,700
18.07500,693
18.08333,686
18.09167,679
18.10000,672
18.10833,665
18.11667,657
18.12500,651
18.13333,644
18.14167,637
18.15000,630
18.15833,623
18.16667,616
18.17500,610
18.18333,603
18.19167,597
18.20000,591
18.20833,585
18.21667,579
18.22500,573
18.23333,568
18.24167,562
18.25000,557
18.25833,552
18.26667,547
18.27500,543
18.28333,539
18.29167,535
18.30000,531
18.30833,528
18.31667,525
18.32500,522
18.33333,519
18.34167,517
18.35000,516
18.35833,515
18.36667,514
18.37500,513
18.38333,512
18.39167,512
18.40000,512
18.40833,512
18.41667,512
18.42500,513
18.43333,514
18.44167,515
18.45000,516
18.45833,518
18.46667,520
18.47500,522
18.48333,524
18.49167,527
18.50000,530
18.50833,533
18.51667,537
18.52500,541
18.53333,545
18.54167,548
18.55000,552
18.55833,557
18.56667,561
18.57500,566
18.58333,570
18.59167,575
18.60000,580
18.60833,585
18.61667,590
18.62500,595
18.63333,599
18.64167,604
18.65000,609
18.65833,614
18.66667,618
18.67500,623
18.68333,628
18.69167,633
18.70000,638
18.70833,643
18.71667,648
18.72500,653
18.73333,658
18.74167,663
18.75000,668
18.75833,673
18.76667,677
18.77500,682
18.78333,686
18.79167,690
18.80000,694
18.80833,698
18.81667,703
18.82500,707
18.83333,711
18.84167,715
18.85000,718
18.85833,722
18.86667,725
18.87500,728
18.88333,731
18.89167,735
18.90000,738
18.90833,741
18.91667,743
18.92500,746
18.93333,748
18.94167,750
18.95000,753
18.95833,755
18.96667,757
18.97500,759
18.98333,761
18.99167,763
19.00000,765
19.00833,766
19.01667,767
19.02500,768
19.03333,769
19.04167,770
19.05000,771
19.05833,771
19.06667,771
19.07500,770
19.08333,770
19.09167,770
19.10000,769
19.10833,768
19.11667,767
19.12500,766
19.13333,764
19.14167,762
19.15000,761
19.15833,759
19.16667,756
19.17500,754
19.18333,752
19.19167,749
19.20000,745
19.20833,742
19.21667,739
19.22500,735
19.23333,731
19.24167,727
19.25000,723
19.25833,719
19.26667,714
19.27500,709
19.28333,704
19.29167,699
19.30000,693
19.30833,688
19.31667,683
19.32500,677
19.33333,672
19.34167,666
19.35000,660
19.35833,654
19.36667,648
19.37500,642
19.38333,635
19.39167,629
19.40000,622
19.40833,615
19.41667,608
19.42500,601
19.43333,595
19.44167,588
19.45000,581
19.45833,574
19.46667,567
19.47500,560
19.48333,553
19.49167,546
19.50000,540
19.50833,533
19.51667,526
19.52500,520
19.53333,513
19.54167,507
19.55000,500
19.55833,494
19.56667,488
19.57500,482
19.58333,475
19.59167,469
19.60000,463
19.60833,458
19.61667,453
19.62500,448
19.63333,444
19.64167,439
19.65000,435
19.65833,431
19.66667,426
19.67500,422
19.68333,419
19.69167,416
19.70000,413
19.70833,411
19.71667,409
19.72500,407
19.73333,406
19.74167,405
19.75000,405
19.75833,405
19.76667,405
19.77500,406
19.78333,407
19.79167,409
19.80000,411
19.80833,413
19.81667,416
19.82500,420
19.83333,424
19.84167,429
19.85000,435
19.85833,441
19.86667,448
19.87500,456
19.88333,464
19.89167,472
19.90000,482
19.90833,491
19.91667,501
19.92500,512
19.93333,524
19.94167,536
19.95000,549
19.95833,562
19.96667,575
19.97500,589
19.98333,603
19.99167,617
20.00000,632
20.00833,647
20.01667,662
20.02500,677
20.03333,692
20.04167,708
20.05000,723
20.05833,738
20.06667,753
20.07500,768
20.08333,783
20.09167,798
20.10000,813
20.10833,827
20.11667,840
20.12500,853
20.13333,865
20.14167,878
20.15000,889
20.15833,901
20.16667,911
20.17500,921
20.18333,931
20.19167,939
20.20000,948
20.20833,955
20.21667,962
20.22500,969
20.23333,974
20.24167,979
20.25000,983
20.25833,986
20.26667,989
20.27500,991
20.28333,992
20.29167,993
20.30000,994
20.30833,993
20.31667,993
20.32500,991
20.33333,989
20.34167,986
20.35000,982
20.35833,978
20.36667,973
20.37500,968
20.38333,962
20.39167,956
20.40000,949
20.40833,941
20.41667,933
20.42500,924
20.43333,915
20.44167,906
20.45000,896
20.45833,886
20.46667,876
20.47500,866
20.48333,855
20.49167,844
20.50000,833
20.50833,821
20.51667,810
20.52500,798
20.53333,787
20.54167,775
20.55000,764
20.55833,752
20.56667,740
20.57500,729
20.58333,718
20.59167,707
20.60000,696
20.60833,686
20.61667,675
20.62500,665
20.63333,655
20.64167,645
20.65000,636
20.65833,627
20.66667,618
20.67500,610
20.68333,602
20.69167,595
20.70000,587
20.70833,580
20.71667,574
20.72500,567
20.73333,561
20.74167,555
20.75000,549
20.75833,544
20.76667,540
20.77500,535
20.78333,531
20.79167,528
20.80000,524
20.80833,521
20.81667,518
20.82500,515
20.83333,513
20.84167,511
20.85000,510
20.85833,508
20.86667,507
20.87500,506
20.88333,505
20.89167,505
20.90000,505
20.90833,506
20.91667,507
20.92500,508
20.93333,510
20.94167,513
20.95000,516
20.95833,520
20.96667,525
20.97500,530
20.98333,536
20.99167,543
21.00000,551
21.00833,560
21.01667,571
21.02500,583
21.03333,596
21.04167,610
21.05000,626
21.05833,644
21.06667,664
21.07500,685
21.08333,707
21.09167,731
21.10000,757
21.10833,785
21.11667,814
21.12500,845
21.13333,878
21.14167,913
21.15000,949
21.15833,987
21.16667,1026
21.17500,1066
21.18333,1108
21.19167,1150
21.20000,1194
21.20833,1238
21.21667,1283
21.22500,1329
21.23333,1374
21.24167,1420
21.25000,1467
21.25833,1513
21.26667,1559
21.27500,1604
21.28333,1650
21.29167,1694
21.30000,1737
21.30833,1779
21.31667,1820
21.32500,1861
21.33333,1901
21.34167,1939
21.35000,1976
21.35833,2011
21.36667,2045
21.37500,2078
21.38333,2108
21.39167,2138
21.40000,2166
21.40833,2192
21.41667,2218
21.42500,2242
21.43333,2264
21.44167,2286
21.45000,2306
21.45833,2325
21.46667,2342
21.47500,2359
21.48333,2374
21.49167,2388
21.50000,2401
21.50833,2412
21.51667,2422
21.52500,2430
21.53333,2438
21.54167,2444
21.55000,2449
21.55833,2452
21.56667,2454
21.57500,2454
21.58333,2453
21.59167,2451
21.60000,2446
21.60833,2440
21.61667,2433
21.62500,2424
21.63333,2413
21.64167,2400
21.65000,2385
21.65833,2369
21.66667,2351
21.67500,2332
21.68333,2311
21.69167,2289
21.70000,2265
21.70833,2240
21.71667,2213
21.72500,2185
21.73333,2156
21.74167,2126
21.75000,2095
21.75833,2063
21.76667,2030
21.77500,1997
21.78333,1964
21.79167,1930
21.80000,1895
21.80833,1861
21.81667,1826
21.82500,1792
21.83333,1758
21.84167,1725
21.85000,1692
21.85833,1659
21.86667,1626
21.87500,1594
21.88333,1562
21.89167,1531
21.90000,1501
21.90833,1471
21.91667,1442
21.92500,1413
21.93333,1385
21.94167,1358
21.95000,1331
21.95833,1305
21.96667,1280
21.97500,1255
21.98333,1230
21.99167,1206
22.00000,1183
22.00833,1160
22.01667,1137
22.02500,1114
22.03333,1092
22.04167,1071
22.05000,1049
22.05833,1027
22.06667,1006
22.07500,984
22.08333,963
22.09167,942
22.10000,921
22.10833,900
22.11667,879
22.12500,859
22.13333,839
22.14167,819
22.15000,799
22.15833,779
22.16667,759
22.17500,740
22.18333,721
22.19167,702
22.20000,684
22.20833,666
22.21667,648
22.22500,630
22.23333,613
22.24167,596
22.25000,580
22.25833,564
22.26667,549
22.27500,534
22.28333,519
22.29167,505
22.30000,491
22.30833,478
22.31667,465
22.32500,453
22.33333,441
22.34167,430
22.35000,420
22.35833,410
22.36667,401
22.37500,393
22.38333,384
22.39167,377
22.40000,369
22.40833,362
22.41667,356
22.42500,349
22.43333,344
22.44167,338
22.45000,333
22.45833,329
22.46667,325
22.47500,321
22.48333,318
22.49167,315
22.50000,312
22.50833,309
22.51667,307
22.52500,305
22.53333,304
22.54167,303
22.55000,302
22.55833,302
22.56667,302
22.57500,302
22.58333,302
22.59167,302
22.60000,302
22.60833,303
22.61667,304
22.62500,306
22.63333,308
22.64167,310
22.65000,312
22.65833,316
22.66667,319
22.67500,322
22.68333,326
22.69167,330
22.70000,333
22.70833,337
22.71667,342
22.72500,346
22.73333,351
22.74167,355
22.75000,360
22.75833,365
22.76667,371
22.77500,376
22.78333,382
22.79167,388
22.80000,394
22.80833,400
22.81667,406
22.82500,412
22.83333,418
22.84167,425
22.85000,431
22.85833,437
22.86667,444
22.87500,450
22.88333,456
22.89167,462
22.90000,468
22.90833,474
22.91667,479
22.92500,485
22.93333,491
22.94167,496
22.95000,501
22.95833,506
22.96667,511
22.97500,515
22.98333,519
22.99167,523
23.00000,527
23.00833,531
23.01667,534
23.02500,538
23.03333,541
23.04167,545
23.05000,548
23.05833,551
23.06667,554
23.07500,556
23.08333,558
23.09167,560
23.10000,562
23.10833,563
23.11667,564
23.12500,565
23.13333,566
23.14167,566
23.15000,567
23.15833,567
23.16667,567
23.17500,566
23.18333,565
23.19167,564
23.20000,563
23.20833,561
23.21667,559
23.22500,557
23.23333,555
23.24167,552
23.25000,549
23.25833,546
23.26667,542
23.27500,539
23.28333,535
23.29167,531
23.30000,527
23.30833,522
23.31667,518
23.32500,514
23.33333,510
23.34167,505
23.35000,501
23.35833,496
23.36667,492
23.37500,487
23.38333,483
23.39167,479
23.40000,475
23.40833,470
23.41667,466
23.42500,462
23.43333,457
23.44167,453
23.45000,449
23.45833,445
23.46667,442
23.47500,438
23.48333,435
23.49167,431
23.50000,428
23.50833,425
23.51667,422
23.52500,419
23.53333,416
23.54167,414
23.55000,411
23.55833,409
23.56667,406
23.57500,404
23.58333,402
23.59167,400
23.60000,398
23.60833,396
23.61667,395
23.62500,393
23.63333,392
23.64167,391
23.65000,389
23.65833,388
23.66667,387
23.67500,386
23.68333,385
23.69167,384
23.70000,383
23.70833,382
23.71667,381
23.72500,380
23.73333,379
23.74167,378
23.75000,377
23.75833,376
23.76667,375
23.77500,374
23.78333,374
23.79167,373
23.80000,373
23.80833,373
23.81667,372
23.82500,371
23.83333,371
23.84167,370
23.85000,369
23.85833,369
23.86667,368
23.87500,367
23.88333,366
23.89167,366
23.90000,365
23.90833,365
23.91667,364
23.92500,363
23.93333,362
23.94167,361
23.95000,361
23.95833,360
23.96667,359
23.97500,358
23.98333,357
23.99167,357
24.00000,356
24.00833,355
24.01667,355
24.02500,354
24.03333,354
24.04167,353
24.05000,352
24.05833,352
24.06667,351
24.07500,350
24.08333,350
24.09167,349
24.10000,348
24.10833,348
24.11667,347
24.12500,346
24.13333,345
24.14167,344
24.15000,344
24.15833,343
24.16667,343
24.17500,342
24.18333,342
24.19167,342
24.20000,342
24.20833,342
24.21667,342
24.22500,341
24.23333,341
24.24167,341
24.25000,340
24.25833,340
24.26667,340
24.27500,340
24.28333,340
24.29167,341
24.30000,342
24.30833,342
24.31667,343
24.32500,344
24.33333,345
24.34167,347
24.35000,348
24.35833,350
24.36667,353
24.37500,356
24.38333,359
24.39167,363
24.40000,368
24.40833,373
24.41667,379
24.42500,386
24.43333,393
24.44167,402
24.45000,412
24.45833,422
24.46667,434
24.47500,447
24.48333,462
24.49167,478
24.50000,496
24.50833,516
24.51667,537
24.52500,560
24.53333,586
24.54167,613
24.55000,643
24.55833,674
24.56667,708
24.57500,744
24.58333,782
24.59167,823
24.60000,866
24.60833,911
24.61667,959
24.62500,1009
24.63333,1062
24.64167,1118
24.65000,1175
24.65833,1234
24.66667,1296
24.67500,1359
24.68333,1424
24.69167,1491
24.70000,1559
24.70833,1629
24.71667,1700
24.72500,1772
24.73333,1845
24.74167,1919
24.75000,1992
24.75833,2067
24.76667,2141
24.77500,2215
24.78333,2290
24.79167,2364
24.80000,2437
24.80833,2509
24.81667,2581
24.82500,2651
24.83333,2720
24.84167,2788
24.85000,2854
24.85833,2919
24.86667,2982
24.87500,3043
24.88333,3102
24.89167,3160
24.90000,3215
24.90833,3267
24.91667,3318
24.92500,3367
24.93333,3413
24.94167,3458
24.95000,3500
24.95833,3540
24.96667,3578
24.97500,3613
24.98333,3646
24.99167,3677
25.00000,3705
25.00833,3730
25.01667,3753
25.02500,3774
25.03333,3792
25.04167,3807
25.05000,3820
25.05833,3830
25.06667,3838
25.07500,3843
25.08333,3845
25.09167,3844
25.10000,3841
25.10833,3835
25.11667,3826
25.12500,3814
25.13333,3800
25.14167,3782
25.15000,3761
25.15833,3737
25.16667,3710
25.17500,3680
25.18333,3647
25.19167,3612
25.20000,3573
25.20833,3532
25.21667,3488
25.22500,3441
25.23333,3391
25.24167,3339
25.25000,3284
25.25833,3227
25.26667,3168
25.27500,3107
25.28333,3044
25.29167,2980
25.30000,2914
25.30833,2847
25.31667,2779
25.32500,2709
25.33333,2639
25.34167,2568
25.35000,2497
25.35833,2426
25.36667,2354
25.37500,2283
25.38333,2212
25.39167,2141
25.40000,2071
25.40833,2001
25.41667,1932
25.42500,1864
25.43333,1798
25.44167,1733
25.45000,1669
25.45833,1607
25.46667,1546
25.47500,1487
25.48333,1429
25.49167,1373
25.50000,1319
25.50833,1267
25.51667,1217
25.52500,1169
25.53333,1122
25.54167,1077
25.55000,1034
25.55833,993
25.56667,954
25.57500,916
25.58333,881
25.59167,847
25.60000,814
25.60833,784
25.61667,754
25.62500,726
25.63333,699
25.64167,675
25.65000,651
25.65833,629
25.66667,609
25.67500,589
25.68333,571
25.69167,553
25.70000,537
25.70833,521
25.71667,506
25.72500,493
25.73333,480
25.74167,467
25.75000,456
25.75833,445
25.76667,434
25.77500,425
25.78333,415
25.79167,406
25.80000,398
25.80833,389
25.81667,382
25.82500,374
25.83333,368
25.84167,361
25.85000,354
25.85833,348
25.86667,342
25.87500,336
25.88333,330
25.89167,324
25.90000,318
25.90833,313
25.91667,308
25.92500,303
25.93333,298
25.94167,294
25.95000,289
25.95833,284
25.96667,280
25.97500,275
25.98333,270
25.99167,265
26.00000,261
26.00833,257
26.01667,253
26.02500,248
26.03333,244
26.04167,240
26.05000,235
26.05833,231
26.06667,227
26.07500,222
26.08333,218
26.09167,214
26.10000,210
26.10833,206
26.11667,202
26.12500,198
26.13333,195
26.14167,191
26.15000,188
26.15833,185
26.16667,182
26.17500,179
26.18333,175
26.19167,172
26.20000,169
26.20833,166
26.21667,163
26.22500,160
26.23333,158
26.24167,155
26.25000,152
26.25833,150
26.26667,147
26.27500,145
26.28333,144
26.29167,142
26.30000,140
26.30833,138
26.31667,136
26.32500,135
26.33333,133
26.34167,132
26.35000,131
26.35833,129
26.36667,128
26.37500,127
26.38333,126
26.39167,125
26.40000,124
26.40833,124
26.41667,123
26.42500,122
26.43333,121
26.44167,120
26.45000,120
26.45833,119
26.46667,118
26.47500,118
26.48333,118
26.49167,117
26.50000,117
26.50833,117
26.51667,117
26.52500,117
26.53333,117
26.54167,117
26.55000,116
26.55833,116
26.56667,115
26.57500,115
26.58333,116
26.59167,116
26.60000,116
26.60833,116
26.61667,116
26.62500,116
26.63333,116
26.64167,116
26.65000,116
26.65833,115
26.66667,115
26.67500,116
26.68333,116
26.69167,116
26.70000,116
26.70833,116
26.71667,116
26.72500,116
26.73333,116
26.74167,117
26.75000,117
26.75833,117
26.76667,117
26.77500,117
26.78333,117
26.79167,117
26.80000,117
26.80833,117
26.81667,116
26.82500,117
26.83333,117
26.84167,117
26.85000,117
26.85833,117
26.86667,117
26.87500,118
26.88333,118
26.89167,118
26.90000,118
26.90833,119
26.91667,119
26.92500,119
26.93333,119
26.94167,120
26.95000,120
26.95833,120
26.96667,121
26.97500,121
26.98333,121
26.99167,121
27.00000,121
27.00833,122
27.01667,121
27.02500,122
27.03333,122
27.04167,122
27.05000,122
27.05833,122
27.06667,122
27.07500,122
27.08333,122
27.09167,123
27.10000,123
27.10833,123
27.11667,124
27.12500,124
27.13333,124
27.14167,124
27.15000,124
27.15833,124
27.16667,124
27.17500,124
27.18333,125
27.19167,124
27.20000,124
27.20833,125
27.21667,125
27.22500,124
27.23333,124
27.24167,124
27.25000,124
27.25833,124
27.26667,124
27.27500,124
27.28333,124
27.29167,124
27.30000,124
27.30833,123
27.31667,123
27.32500,123
27.33333,124
27.34167,123
27.35000,124
27.35833,124
27.36667,124
27.37500,124
27.38333,123
27.39167,123
27.40000,123
27.40833,123
27.41667,122
27.42500,122
27.43333,122
27.44167,122
27.45000,121
27.45833,121
27.46667,121
27.47500,120
27.48333,120
27.49167,120
27.50000,120
27.50833,119
27.51667,119
27.52500,118
27.53333,117
27.54167,117
27.55000,116
27.55833,116
27.56667,115
27.57500,115
27.58333,114
27.59167,114
27.60000,113
27.60833,112
27.61667,112
27.62500,111
27.63333,111
27.64167,110
27.65000,109
27.65833,109
27.66667,107
27.67500,106
27.68333,105
27.69167,104
27.70000,103
27.70833,103
27.71667,102
27.72500,101
27.73333,100
27.74167,99
27.75000,98
27.75833,97
27.76667,97
27.77500,96
27.78333,95
27.79167,94
27.80000,93
27.80833,92
27.81667,91
27.82500,91
27.83333,90
27.84167,89
27.85000,89
27.85833,88
27.86667,87
27.87500,87
27.88333,86
27.89167,85
27.90000,85
27.90833,84
27.91667,84
27.92500,83
27.93333,83
27.94167,82
27.95000,82
27.95833,81
27.96667,81
27.97500,80
27.98333,80
27.99167,80
28.00000,80
28.00833,80
28.01667,80
28.02500,80
28.03333,79
28.04167,79
28.05000,80
28.05833,80
28.06667,80
28.07500,80
28.08333,80
28.09167,80
28.10000,80
28.10833,80
28.11667,80
28.12500,80
28.13333,80
28.14167,80
28.15000,80
28.15833,80
28.16667,81
28.17500,81
28.18333,82
28.19167,82
28.20000,83
28.20833,84
28.21667,84
28.22500,84
28.23333,84
28.24167,84
28.25000,84
28.25833,85
28.26667,85
28.27500,86
28.28333,86
28.29167,87
28.30000,88
28.30833,89
28.31667,90
28.32500,90
28.33333,91
28.34167,92
28.35000,94
28.35833,95
28.36667,97
28.37500,98
28.38333,101
28.39167,103
28.40000,105
28.40833,108
28.41667,111
28.42500,114
28.43333,118
28.44167,122
28.45000,127
28.45833,132
28.46667,138
28.47500,144
28.48333,151
28.49167,158
28.50000,167
28.50833,175
28.51667,185
28.52500,195
28.53333,207
28.54167,219
28.55000,232
28.55833,246
28.56667,262
28.57500,278
28.58333,296
28.59167,315
28.60000,335
28.60833,356
28.61667,379
28.62500,403
28.63333,428
28.64167,455
28.65000,483
28.65833,513
28.66667,544
28.67500,576
28.68333,610
28.69167,645
28.70000,682
28.70833,720
28.71667,760
28.72500,800
28.73333,842
28.74167,886
28.75000,930
28.75833,976
28.76667,1022
28.77500,1070
28.78333,1118
28.79167,1168
28.80000,1218
28.80833,1269
28.81667,1321
28.82500,1374
28.83333,1426
28.84167,1478
28.85000,1531
28.85833,1584
28.86667,1638
28.87500,1690
28.88333,1742
28.89167,1794
28.90000,1845
28.90833,1896
28.91667,1946
28.92500,1996
28.93333,2045
28.94167,2092
28.95000,2139
28.95833,2184
28.96667,2229
28.97500,2272
28.98333,2313
28.99167,2353
29.00000,2392
29.00833,2429
29.01667,2465
29.02500,2499
29.03333,2531
29.04167,2562
29.05000,2591
29.05833,2619
29.06667,2645
29.07500,2670
29.08333,2693
29.09167,2715
29.10000,2735
29.10833,2753
29.11667,2769
29.12500,2784
29.13333,2798
29.14167,2810
29.15000,2821
29.15833,2830
29.16667,2838
29.17500,2845
29.18333,2849
29.19167,2853
29.20000,2855
29.20833,2856
29.21667,2855
29.22500,2854
29.23333,2850
29.24167,2845
29.25000,2839
29.25833,2831
29.26667,2822
29.27500,2811
29.28333,2799
29.29167,2786
29.30000,2771
29.30833,2754
29.31667,2736
29.32500,2717
29.33333,2697
29.34167,2675
29.35000,2651
29.35833,2626
29.36667,2600
29.37500,2572
29.38333,2543
29.39167,2513
29.40000,2482
29.40833,2449
29.41667,2415
29.42500,2380
29.43333,2343
29.44167,2305
29.45000,2266
29.45833,2226
29.46667,2185
29.47500,2143
29.48333,2101
29.49167,2057
29.50000,2012
29.50833,1967
29.51667,1921
29.52500,1875
29.53333,1829
29.54167,1783
29.55000,1736
29.55833,1689
29.56667,1642
29.57500,1595
29.58333,1547
29.59167,1500
29.60000,1454
29.60833,1407
29.61667,1361
29.62500,1316
29.63333,1271
29.64167,1227
29.65000,1182
29.65833,1139
29.66667,1097
29.67500,1055
29.68333,1014
29.69167,974
29.70000,935
29.70833,898
29.71667,861
29.72500,825
29.73333,789
29.74167,756
29.75000,723
29.75833,691
29.76667,661
29.77500,632
29.78333,604
29.79167,577
29.80000,550
29.80833,525
29.81667,501
29.82500,478
29.83333,456
29.84167,435
29.85000,414
29.85833,395
29.86667,377
29.87500,360
29.88333,344
29.89167,328
29.90000,313
29.90833,300
29.91667,287
29.92500,274
29.93333,263
29.94167,251
29.95000,241
29.95833,231
29.96667,222
29.97500,214
29.98333,206
29.99167,198
30.00000,191
30.00833,184
30.01667,178
30.02500,172
30.03333,167
30.04167,162
30.05000,158
30.05833,153
30.06667,149
30.07500,146
30.08333,143
30.09167,140
30.10000,137
30.10833,134
30.11667,132
30.12500,129
30.13333,127
30.14167,125
30.15000,123
30.15833,121
30.16667,119
30.17500,118
30.18333,116
30.19167,114
30.20000,112
30.20833,111
30.21667,110
30.22500,110
30.23333,109
30.24167,108
30.25000,108
30.25833,107
30.26667,107
30.27500,106
30.28333,106
30.29167,105
30.30000,105
30.30833,105
30.31667,105
30.32500,105
30.33333,105
30.34167,105
30.35000,105
30.35833,105
30.36667,105
30.37500,105
30.38333,105
30.39167,105
30.40000,105
30.40833,106
30.41667,106
30.42500,106
30.43333,106
30.44167,106
30.45000,107
30.45833,107
30.46667,108
30.47500,109
30.48333,109
30.49167,110
30.50000,111
30.50833,111
30.51667,112
30.52500,112
30.53333,113
30.54167,114
30.55000,115
30.55833,116
30.56667,117
30.57500,118
30.58333,119
30.59167,120
30.60000,121
30.60833,122
30.61667,124
30.62500,125
30.63333,127
30.64167,129
30.65000,131
30.65833,132
30.66667,134
30.67500,135
30.68333,137
30.69167,138
30.70000,139
30.70833,141
30.71667,142
30.72500,144
30.73333,146
30.74167,148
30.75000,150
30.75833,152
30.76667,153
30.77500,155
30.78333,156
30.79167,158
30.80000,160
30.80833,162
30.81667,163
30.82500,165
30.83333,166
30.84167,167
30.85000,169
30.85833,170
30.86667,171
30.87500,173
30.88333,174
30.89167,176
30.90000,177
30.90833,179
30.91667,180
30.92500,182
30.93333,183
30.94167,184
30.95000,186
30.95833,187
30.96667,187
30.97500,189
30.98333,190
30.99167,191
31.00000,192
31.00833,193
31.01667,194
31.02500,195
31.03333,195
31.04167,196
31.05000,197
31.05833,197
31.06667,198
31.07500,198
31.08333,198
31.09167,199
31.10000,199
31.10833,199
31.11667,200
31.12500,200
31.13333,200
31.14167,200
31.15000,201
31.15833,200
31.16667,200
31.17500,200
31.18333,199
31.19167,199
31.20000,199
31.20833,198
31.21667,198
31.22500,197
31.23333,197
31.24167,197
31.25000,196
31.25833,195
31.26667,194
31.27500,193
31.28333,193
31.29167,192
31.30000,191
31.30833,190
31.31667,189
31.32500,188
31.33333,187
31.34167,186
31.35000,184
31.35833,183
31.36667,181
31.37500,180
31.38333,180
31.39167,179
31.40000,178
31.40833,177
31.41667,176
31.42500,175
31.43333,174
31.44167,172
31.45000,170
31.45833,169
31.46667,167
31.47500,166
31.48333,165
31.49167,164
31.50000,163
31.50833,162
31.51667,161
31.52500,160
31.53333,159
31.54167,158
31.55000,157
31.55833,156
31.56667,155
31.57500,154
31.58333,153
31.59167,153
31.60000,152
31.60833,151
31.61667,151
31.62500,151
31.63333,151
31.64167,151
31.65000,151
31.65833,152
31.66667,152
31.67500,153
31.68333,153
31.69167,154
31.70000,156
31.70833,157
31.71667,159
31.72500,160
31.73333,162
31.74167,165
31.75000,168
31.75833,170
31.76667,173
31.77500,176
31.78333,179
31.79167,182
31.80000,186
31.80833,190
31.81667,194
31.82500,199
31.83333,204
31.84167,209
31.85000,214
31.85833,220
31.86667,226
31.87500,232
31.88333,238
31.89167,244
31.90000,251
31.90833,257
31.91667,264
31.92500,271
31.93333,279
31.94167,286
31.95000,294
31.95833,302
31.96667,310
31.97500,318
31.98333,326
31.99167,335
32.00000,343
32.00833,352
32.01667,360
32.02500,369
32.03333,377
32.04167,386
32.05000,394
32.05833,403
32.06667,411
32.07500,420
32.08333,428
32.09167,436
32.10000,444
32.10833,452
32.11667,460
32.12500,468
32.13333,475
32.14167,483
32.15000,490
32.15833,498
32.16667,505
32.17500,512
32.18333,519
32.19167,526
32.20000,533
32.20833,540
32.21667,546
32.22500,552
32.23333,558
32.24167,564
32.25000,570
32.25833,575
32.26667,581
32.27500,587
32.28333,592
32.29167,596
32.30000,601
32.30833,605
32.31667,610
32.32500,614
32.33333,619
32.34167,623
32.35000,626
32.35833,630
32.36667,633
32.37500,637
32.38333,640
32.39167,643
32.40000,646
32.40833,648
32.41667,650
32.42500,652
32.43333,654
32.44167,656
32.45000,658
32.45833,659
32.46667,660
32.47500,660
32.48333,661
32.49167,661
32.50000,661
32.50833,660
32.51667,659
32.52500,659
32.53333,658
32.54167,657
32.55000,656
32.55833,655
32.56667,654
32.57500,652
32.58333,650
32.59167,647
32.60000,645
32.60833,642
32.61667,639
32.62500,636
32.63333,632
32.64167,628
32.65000,625
32.65833,621
32.66667,616
32.67500,612
32.68333,608
32.69167,604
32.70000,599
32.70833,595
32.71667,590
32.72500,585
32.73333,580
32.74167,574
32.75000,569
32.75833,564
32.76667,559
32.77500,554
32.78333,549
32.79167,544
32.80000,539
32.80833,534
32.81667,529
32.82500,524
32.83333,520
32.84167,515
32.85000,510
32.85833,505
32.86667,500
32.87500,496
32.88333,491
32.89167,487
32.90000,482
32.90833,478
32.91667,474
32.92500,470
32.93333,467
32.94167,463
32.95000,460
32.95833,457
32.96667,453
32.97500,450
32.98333,447
32.99167,444
33.00000,442
33.00833,439
33.01667,437
33.02500,435
33.03333,433
33.04167,431
33.05000,429
33.05833,427
33.06667,425
33.07500,423
33.08333,422
33.09167,421
33.10000,419
33.10833,418
33.11667,416
33.12500,414
33.13333,413
33.14167,411
33.15000,410
33.15833,409
33.16667,407
33.17500,406
33.18333,404
33.19167,403
33.20000,401
33.20833,400
33.21667,398
33.22500,396
33.23333,395
33.24167,393
33.25000,391
33.25833,389
33.26667,387
33.27500,386
33.28333,384
33.29167,382
33.30000,380
33.30833,378
33.31667,375
33.32500,373
33.33333,371
33.34167,368
33.35000,365
33.35833,362
33.36667,360
33.37500,357
33.38333,354
33.39167,351
33.40000,348
33.40833,346
33.41667,343
33.42500,340
33.43333,337
33.44167,334
33.45000,331
33.45833,327
33.46667,324
33.47500,320
33.48333,317
33.49167,314
33.50000,310
33.50833,307
33.51667,303
33.52500,299
33.53333,296
33.54167,292
33.55000,288
33.55833,284
33.56667,280
33.57500,276
33.58333,273
33.59167,269
33.60000,265
33.60833,261
33.61667,256
33.62500,252
33.63333,248
33.64167,244
33.65000,239
33.65833,235
33.66667,231
33.67500,227
33.68333,224
33.69167,220
33.70000,215
33.70833,211
33.71667,207
33.72500,203
33.73333,199
33.74167,195
33.75000,191
33.75833,188
33.76667,184
33.77500,180
33.78333,176
33.79167,172
33.80000,168
33.80833,164
33.81667,160
33.82500,156
33.83333,153
33.84167,149
33.85000,145
33.85833,142
33.86667,138
33.87500,135
33.88333,131
33.89167,128
33.90000,124
33.90833,121
33.91667,118
33.92500,115
33.93333,112
33.94167,109
33.95000,106
33.95833,103
33.96667,100
33.97500,97
33.98333,94
33.99167,92
34.00000,90
34.00833,88
34.01667,85
34.02500,83
34.03333,80
34.04167,78
34.05000,75
34.05833,73
34.06667,71
34.07500,69
34.08333,67
34.09167,65
34.10000,64
34.10833,62
34.11667,61
34.12500,59
34.13333,58
34.14167,56
34.15000,54
34.15833,53
34.16667,52
34.17500,50
34.18333,49
34.19167,48
34.20000,47
34.20833,46
34.21667,45
34.22500,44
34.23333,43
34.24167,42
34.25000,41
34.25833,40
34.26667,39
34.27500,39
34.28333,38
34.29167,37
34.30000,37
34.30833,36
34.31667,36
34.32500,35
34.33333,35
34.34167,34
34.35000,33
34.35833,33
34.36667,32
34.37500,32
34.38333,31
34.39167,31
34.40000,30
34.40833,30
34.41667,30
34.42500,29
34.43333,29
34.44167,28
34.45000,28
34.45833,27
34.46667,27
34.47500,26
34.48333,26
34.49167,26
34.50000,26
34.50833,26
34.51667,25
34.52500,24
34.53333,24
34.54167,24
34.55000,24
34.55833,24
34.56667,24
34.57500,23
34.58333,23
34.59167,23
34.60000,23
34.60833,22
34.61667,22
34.62500,22
34.63333,22
34.64167,21
34.65000,21
34.65833,21
34.66667,21
34.67500,20
34.68333,20
34.69167,20
34.70000,20
34.70833,19
34.71667,19
34.72500,19
34.73333,18
34.74167,18
34.75000,18
34.75833,17
34.76667,17
34.77500,16
34.78333,16
34.79167,16
34.80000,16
34.80833,16
34.81667,15
34.82500,15
34.83333,15
34.84167,15
34.85000,15
34.85833,15
34.86667,14
34.87500,14
34.88333,14
34.89167,14
34.90000,13
34.90833,13
34.91667,13
34.92500,14
34.93333,14
34.94167,14
34.95000,13
34.95833,13
34.96667,13
34.97500,13
34.98333,12
34.99167,12
35.00000,12
35.00833,12
35.01667,13
35.02500,13
35.03333,13
35.04167,13
35.05000,13
35.05833,13
35.06667,13
35.07500,12
35.08333,12
35.09167,12
35.10000,12
35.10833,13
35.11667,13
35.12500,13
35.13333,13
35.14167,14
35.15000,14
35.15833,14
35.16667,14
35.17500,15
35.18333,16
35.19167,16
35.20000,17
35.20833,17
35.21667,17
35.22500,17
35.23333,18
35.24167,18
35.25000,19
35.25833,20
35.26667,20
35.27500,20
35.28333,21
35.29167,22
35.30000,22
35.30833,23
35.31667,24
35.32500,24
35.33333,25
35.34167,25
35.35000,26
35.35833,27
35.36667,27
35.37500,28
35.38333,28
35.39167,29
35.40000,30
35.40833,31
35.41667,32
35.42500,33
35.43333,34
35.44167,35
35.45000,35
35.45833,36
35.46667,37
35.47500,37
35.48333,38
35.49167,39
35.50000,39
35.50833,40
35.51667,41
35.52500,41
35.53333,42
35.54167,43
35.55000,44
35.55833,45
35.56667,46
35.57500,46
35.58333,47
35.59167,48
35.60000,48
35.60833,49
35.61667,51
35.62500,52
35.63333,53
35.64167,53
35.65000,53
35.65833,54
35.66667,54
35.67500,55
35.68333,56
35.69167,56
35.70000,57
35.70833,57
35.71667,58
35.72500,59
35.73333,60
35.74167,60
35.75000,61
35.75833,61
35.76667,62
35.77500,63
35.78333,63
35.79167,63
35.80000,64
35.80833,64
35.81667,65
35.82500,65
35.83333,66
35.84167,66
35.85000,67
35.85833,67
35.86667,68
35.87500,68
35.88333,68
35.89167,69
35.90000,69
35.90833,69
35.91667,69
35.92500,69
35.93333,69
35.94167,69
35.95000,69
35.95833,69
35.96667,70
35.97500,70
35.98333,70
35.99167,70
36.00000,70
36.00833,70
36.01667,70
36.02500,71
36.03333,71
36.04167,71
36.05000,71
36.05833,71
36.06667,71
36.07500,71
36.08333,71
36.09167,71
36.10000,71
36.10833,70
36.11667,70
36.12500,70
36.13333,70
36.14167,70
36.15000,70
36.15833,69
36.16667,69
36.17500,69
36.18333,68
36.19167,68
36.20000,68
36.20833,68
36.21667,68
36.22500,68
36.23333,68
36.24167,68
36.25000,67
36.25833,67
36.26667,67
36.27500,67
36.28333,67
36.29167,66
36.30000,66
36.30833,65
36.31667,65
36.32500,65
36.33333,65
36.34167,64
36.35000,64
36.35833,63
36.36667,63
36.37500,63
36.38333,62
36.39167,62
36.40000,62
36.40833,61
36.41667,61
36.42500,60
36.43333,60
36.44167,59
36.45000,59
36.45833,59
36.46667,58
36.47500,58
36.48333,58
36.49167,58
36.50000,58
36.50833,57
36.51667,57
36.52500,57
36.53333,57
36.54167,56
36.55000,56
36.55833,56
36.56667,56
36.57500,55
36.58333,55
36.59167,55
36.60000,55
36.60833,55
36.61667,55
36.62500,55
36.63333,55
36.64167,54
36.65000,54
36.65833,54
36.66667,54
36.67500,54
36.68333,54
36.69167,54
36.70000,54
36.70833,54
36.71667,54
36.72500,54
36.73333,54
36.74167,54
36.75000,55
36.75833,55
36.76667,55
36.77500,55
36.78333,55
36.79167,55
36.80000,55
36.80833,56
36.81667,56
36.82500,57
36.83333,57
36.84167,58
36.85000,58
36.85833,58
36.86667,58
36.87500,59
36.88333,59
36.89167,59
36.90000,59
36.90833,59
36.91667,60
36.92500,60
36.93333,61
36.94167,61
36.95000,62
36.95833,62
36.96667,62
36.97500,63
36.98333,64
36.99167,65
37.00000,65
37.00833,66
37.01667,66
37.02500,67
37.03333,67
37.04167,68
37.05000,69
37.05833,69
37.06667,70
37.07500,70
37.08333,71
37.09167,72
37.10000,72
37.10833,73
37.11667,74
37.12500,75
37.13333,76
37.14167,77
37.15000,78
37.15833,78
37.16667,79
37.17500,80
37.18333,81
37.19167,81
37.20000,82
37.20833,82
37.21667,83
37.22500,83
37.23333,84
37.24167,85
37.25000,87
37.25833,88
37.26667,89
37.27500,90
37.28333,91
37.29167,91
37.30000,92
37.30833,93
37.31667,94
37.32500,94
37.33333,95
37.34167,96
37.35000,97
37.35833,98
37.36667,98
37.37500,99
37.38333,100
37.39167,101
37.40000,102
37.40833,103
37.41667,104
37.42500,105
37.43333,106
37.44167,106
37.45000,107
37.45833,108
37.46667,109
37.47500,110
37.48333,111
37.49167,112
37.50000,113
37.50833,114
37.51667,114
37.52500,115
37.53333,116
37.54167,117
37.55000,118
37.55833,119
37.56667,120
37.57500,121
37.58333,122
37.59167,123
37.60000,124
37.60833,124
37.61667,125
37.62500,125
37.63333,126
37.64167,127
37.65000,127
37.65833,128
37.66667,129
37.67500,129
37.68333,130
37.69167,130
37.70000,131
37.70833,131
37.71667,132
37.72500,133
37.73333,133
37.74167,133
37.75000,133
37.75833,134
37.76667,134
37.77500,134
37.78333,134
37.79167,135
37.80000,135
37.80833,136
37.81667,136
37.82500,136
37.83333,136
37.84167,136
37.85000,136
37.85833,136
37.86667,135
37.87500,135
37.88333,135
37.89167,134
37.90000,134
37.90833,134
37.91667,134
37.92500,133
37.93333,133
37.94167,133
37.95000,133
37.95833,132
37.96667,132
37.97500,132
37.98333,132
37.99167,132
38.00000,131
38.00833,131
38.01667,130
38.02500,129
38.03333,129
38.04167,128
38.05000,127
38.05833,126
38.06667,126
38.07500,125
38.08333,125
38.09167,124
38.10000,123
38.10833,122
38.11667,122
38.12500,121
38.13333,120
38.14167,119
38.15000,118
38.15833,118
38.16667,117
38.17500,116
38.18333,115
38.19167,113
38.20000,112
38.20833,112
38.21667,111
38.22500,110
38.23333,109
38.24167,108
38.25000,108
38.25833,107
38.26667,106
38.27500,105
38.28333,104
38.29167,103
38.30000,101
38.30833,100
38.31667,99
38.32500,97
38.33333,96
38.34167,94
38.35000,93
38.35833,92
38.36667,91
38.37500,90
38.38333,89
38.39167,87
38.40000,86
38.40833,85
38.41667,83
38.42500,82
38.43333,81
38.44167,80
38.45000,78
38.45833,77
38.46667,76
38.47500,74
38.48333,73
38.49167,72
38.50000,71
38.50833,69
38.51667,68
38.52500,67
38.53333,65
38.54167,64
38.55000,62
38.55833,61
38.56667,59
38.57500,58
38.58333,57
38.59167,57
38.60000,56
38.60833,54
38.61667,53
38.62500,52
38.63333,51
38.64167,50
38.65000,49
38.65833,48
38.66667,47
38.67500,45
38.68333,44
38.69167,43
38.70000,42
38.70833,41
38.71667,40
38.72500,39
38.73333,38
38.74167,37
38.75000,36
38.75833,35
38.76667,34
38.77500,32
38.78333,32
38.79167,31
38.80000,30
38.80833,29
38.81667,28
38.82500,28
38.83333,27
38.84167,26
38.85000,25
38.85833,25
38.86667,24
38.87500,23
38.88333,22
38.89167,22
38.90000,21
38.90833,20
38.91667,20
38.92500,19
38.93333,18
38.94167,17
38.95000,17
38.95833,16
38.96667,15
38.97500,15
38.98333,14
38.99167,14
39.00000,14
39.00833,13
39.01667,13
39.02500,12
39.03333,12
39.04167,11
39.05000,11
39.05833,10
39.06667,10
39.07500,9
39.08333,9
39.09167,9
39.10000,9
39.10833,9
39.11667,8
39.12500,8
39.13333,8
39.14167,8
39.15000,7
39.15833,7
39.16667,7
39.17500,7
39.18333,6
39.19167,6
39.20000,6
39.20833,5
39.21667,5
39.22500,6
39.23333,6
39.24167,6
39.25000,6
39.25833,5
39.26667,5
39.27500,5
39.28333,5
39.29167,5
39.30000,5
39.30833,5
39.31667,5
39.32500,4
39.33333,4
39.34167,4
39.35000,4
39.35833,4
39.36667,4
39.37500,4
39.38333,4
39.39167,4
39.40000,3
39.40833,3
39.41667,3
39.42500,4
39.43333,4
39.44167,4
39.45000,4
39.45833,4
39.46667,4
39.47500,3
39.48333,3
39.49167,3
39.50000,3
39.50833,3
39.51667,3
39.52500,3
39.53333,3
39.54167,3
39.55000,4
39.55833,4
39.56667,4
39.57500,4
39.58333,4
39.59167,4
39.60000,4
39.60833,4
39.61667,4
39.62500,4
39.63333,4
39.64167,4
39.65000,4
39.65833,4
39.66667,4
39.67500,3
39.68333,3
39.69167,3
39.70000,3
39.70833,3
39.71667,3
39.72500,4
39.73333,4
39.74167,4
39.75000,4
39.75833,4
39.76667,3
39.77500,3
39.78333,3
39.79167,3
39.80000,3
39.80833,3
39.81667,4
39.82500,4
39.83333,5
39.84167,5
39.85000,5
39.85833,4
39.86667,4
39.87500,3
39.88333,3
39.89167,3
39.90000,3
39.90833,4
39.91667,4
39.92500,4
39.93333,4
39.94167,4
39.95000,4
39.95833,4
39.96667,4
39.97500,4
39.98333,3
39.99167,3
40.00000,3
40.00833,3
40.01667,3
40.02500,3
40.03333,3
40.04167,3
40.05000,3
40.05833,3
40.06667,3
40.07500,3
40.08333,3
40.09167,4
40.10000,4
40.10833,4
40.11667,5
40.12500,5
40.13333,5
40.14167,5
40.15000,5
40.15833,5
40.16667,6
40.17500,6
40.18333,6
40.19167,6
40.20000,6
40.20833,6
40.21667,6
40.22500,6
40.23333,6
40.24167,6
40.25000,6
40.25833,6
40.26667,7
40.27500,7
40.28333,8
40.29167,8
40.30000,9
40.30833,9
40.31667,9
40.32500,9
40.33333,9
40.34167,10
40.35000,10
40.35833,10
40.36667,11
40.37500,12
40.38333,12
40.39167,13
40.40000,13
40.40833,14
40.41667,15
40.42500,16
40.43333,16
40.44167,17
40.45000,18
40.45833,19
40.46667,20
40.47500,22
40.48333,23
40.49167,24
40.50000,25
40.50833,27
40.51667,28
40.52500,30
40.53333,31
40.54167,32
40.55000,34
40.55833,35
40.56667,37
40.57500,38
40.58333,41
40.59167,43
40.60000,45
40.60833,47
40.61667,48
40.62500,50
40.63333,52
40.64167,54
40.65000,56
40.65833,59
40.66667,61
40.67500,64
40.68333,66
40.69167,69
40.70000,72
40.70833,74
40.71667,77
40.72500,80
40.73333,83
40.74167,86
40.75000,89
40.75833,92
40.76667,95
40.77500,98
40.78333,101
40.79167,104
40.80000,108
40.80833,111
40.81667,115
40.82500,118
40.83333,122
40.84167,125
40.85000,129
40.85833,132
40.86667,136
40.87500,139
40.88333,143
40.89167,147
40.90000,151
40.90833,154
40.91667,158
40.92500,161
40.93333,164
40.94167,168
40.95000,171
40.95833,175
40.96667,179
40.97500,182
40.98333,186
40.99167,189
41.00000,193
41.00833,196
41.01667,200
41.02500,203
41.03333,206
41.04167,209
41.05000,213
41.05833,216
41.06667,219
41.07500,223
41.08333,226
41.09167,229
41.10000,232
41.10833,235
41.11667,238
41.12500,241
41.13333,244
41.14167,248
41.15000,251
41.15833,254
41.16667,257
41.17500,260
41.18333,262
41.19167,265
41.20000,267
41.20833,270
41.21667,272
41.22500,275
41.23333,277
41.24167,279
41.25000,281
41.25833,283
41.26667,285
41.27500,288
41.28333,290
41.29167,292
41.30000,294
41.30833,296
41.31667,298
41.32500,300
41.33333,302
41.34167,304
41.35000,306
41.35833,308
41.36667,310
41.37500,311
41.38333,313
41.39167,315
41.40000,316
41.40833,318
41.41667,319
41.42500,320
41.43333,321
41.44167,322
41.45000,323
41.45833,324
41.46667,325
41.47500,327
41.48333,328
41.49167,329
41.50000,330
41.50833,331
41.51667,332
41.52500,332
41.53333,333
41.54167,334
41.55000,334
41.55833,335
41.56667,336
41.57500,337
41.58333,337
41.59167,337
41.60000,337
41.60833,337
41.61667,338
41.62500,338
41.63333,338
41.64167,338
41.65000,338
41.65833,337
41.66667,337
41.67500,336
41.68333,335
41.69167,335
41.70000,334
41.70833,334
41.71667,333
41.72500,333
41.73333,331
41.74167,330
41.75000,329
41.75833,328
41.76667,327
41.77500,326
41.78333,325
41.79167,324
41.80000,322
41.80833,321
41.81667,320
41.82500,318
41.83333,316
41.84167,315
41.85000,313
41.85833,312
41.86667,310
41.87500,308
41.88333,307
41.89167,304
41.90000,302
41.90833,301
41.91667,299
41.92500,297
41.93333,295
41.94167,294
41.95000,292
41.95833,290
41.96667,288
41.97500,285
41.98333,283
41.99167,281
42.00000,280
42.00833,278
42.01667,276
42.02500,274
42.03333,272
42.04167,270
42.05000,268
42.05833,266
42.06667,265
42.07500,263
42.08333,261
42.09167,259
42.10000,257
42.10833,255
42.11667,253
42.12500,251
42.13333,249
42.14167,247
42.15000,246
42.15833,244
42.16667,242
42.17500,241
42.18333,239
42.19167,237
42.20000,235
42.20833,234
42.21667,232
42.22500,230
42.23333,228
42.24167,227
42.25000,225
42.25833,224
42.26667,222
42.27500,220
42.28333,218
42.29167,217
42.30000,216
42.30833,214
42.31667,213
42.32500,212
42.33333,211
42.34167,209
42.35000,208
42.35833,207
42.36667,206
42.37500,205
42.38333,203
42.39167,202
42.40000,201
42.40833,199
42.41667,198
42.42500,196
42.43333,195
42.44167,194
42.45000,193
42.45833,192
42.46667,191
42.47500,190
42.48333,189
42.49167,188
42.50000,187
42.50833,186
42.51667,186
42.52500,184
42.53333,183
42.54167,183
42.55000,182
42.55833,180
42.56667,179
42.57500,178
42.58333,178
42.59167,177
42.60000,176
42.60833,176
42.61667,175
42.62500,174
42.63333,173
42.64167,173
42.65000,172
42.65833,171
42.66667,170
42.67500,169
42.68333,168
42.69167,167
42.70000,166
42.70833,165
42.71667,164
42.72500,163
42.73333,162
42.74167,161
42.75000,160
42.75833,159
42.76667,158
42.77500,157
42.78333,157
42.79167,156
42.80000,155
42.80833,154
42.81667,153
42.82500,152
42.83333,151
42.84167,150
42.85000,149
42.85833,149
42.86667,148
42.87500,147
42.88333,146
42.89167,146
42.90000,145
42.90833,144
42.91667,143
42.92500,142
42.93333,141
42.94167,140
42.95000,139
42.95833,138
42.96667,137
42.97500,136
42.98333,136
42.99167,135
43.00000,134
43.00833,133
43.01667,133
43.02500,132
43.03333,131
43.04167,130
43.05000,129
43.05833,128
43.06667,127
43.07500,126
43.08333,125
43.09167,124
43.10000,124
43.10833,123
43.11667,122
43.12500,121
43.13333,120
43.14167,119
43.15000,118
43.15833,117
43.16667,116
43.17500,116
43.18333,115
43.19167,114
43.20000,114
43.20833,113
43.21667,112
43.22500,111
43.23333,110
43.24167,110
43.25000,109
43.25833,109
43.26667,107
43.27500,107
43.28333,106
43.29167,105
43.30000,104
43.30833,103
43.31667,103
43.32500,102
43.33333,101
43.34167,100
43.35000,100
43.35833,99
43.36667,99
43.37500,98
43.38333,97
43.39167,96
43.40000,95
43.40833,94
43.41667,93
43.42500,93
43.43333,92
43.44167,91
43.45000,91
43.45833,90
43.46667,90
43.47500,89
43.48333,88
43.49167,87
43.50000,86
43.50833,85
43.51667,84
43.52500,83
43.53333,82
43.54167,81
43.55000,81
43.55833,80
43.56667,80
43.57500,79
43.58333,79
43.59167,78
43.60000,78
43.60833,77
43.61667,76
43.62500,76
43.63333,75
43.64167,75
43.65000,74
43.65833,73
43.66667,72
43.67500,72
43.68333,71
43.69167,70
43.70000,69
43.70833,68
43.71667,67
43.72500,67
43.73333,66
43.74167,65
43.75000,64
43.75833,64
43.76667,63
43.77500,63
43.78333,62
43.79167,61
43.80000,61
43.80833,60
43.81667,59
43.82500,59
43.83333,58
43.84167,58
43.85000,57
43.85833,56
43.86667,56
43.87500,55
43.88333,54
43.89167,53
43.90000,52
43.90833,52
43.91667,51
43.92500,51
43.93333,50
43.94167,49
43.95000,48
43.95833,48
43.96667,47
43.97500,46
43.98333,46
43.99167,45
44.00000,45
44.00833,44
44.01667,43
44.02500,43
44.03333,42
44.04167,42
44.05000,41
44.05833,40
44.06667,40
44.07500,39
44.08333,39
44.09167,39
44.10000,39
44.10833,38
44.11667,38
44.12500,37
44.13333,36
44.14167,36
44.15000,35
44.15833,35
44.16667,34
44.17500,34
44.18333,33
44.19167,33
44.20000,32
44.20833,32
44.21667,31
44.22500,31
44.23333,30
44.24167,30
44.25000,29
44.25833,29
44.26667,28
44.27500,28
44.28333,27
44.29167,26
44.30000,25
44.30833,25
44.31667,24
44.32500,24
44.33333,24
44.34167,23
44.35000,23
44.35833,23
44.36667,22
44.37500,22
44.38333,22
44.39167,21
44.40000,21
44.40833,20
44.41667,20
44.42500,19
44.43333,19
44.44167,19
44.45000,19
44.45833,19
44.46667,19
44.47500,18
44.48333,18
44.49167,18
44.50000,17
44.50833,16
44.51667,16
44.52500,15
44.53333,15
44.54167,14
44.55000,14
44.55833,14
44.56667,14
44.57500,14
44.58333,14
44.59167,14
44.60000,13
44.60833,13
44.61667,12
44.62500,12
44.63333,11
44.64167,11
44.65000,10
44.65833,10
44.66667,10
44.67500,10
44.68333,9
44.69167,9
44.70000,9
44.70833,9
44.71667,9
44.72500,8
44.73333,8
44.74167,8
44.75000,8
44.75833,8
44.76667,7
44.77500,7
44.78333,7
44.79167,6
44.80000,6
44.80833,5
44.81667,5
44.82500,5
44.83333,5
44.84167,5
44.85000,5
44.85833,5
44.86667,5
44.87500,5
44.88333,4
44.89167,4
44.90000,3
44.90833,3
44.91667,3
44.92500,3
44.93333,3
44.94167,2
44.95000,2
44.95833,2
44.96667,2
44.97500,2
44.98333,2
44.99167,2
45.00000,2
45.00833,2
45.01667,2
45.02500,1
45.03333,1
45.04167,0
45.05000,0
45.05833,0
45.06667,0
45.07500,0
45.08333,0
45.09167,-0
45.10000,-0
45.10833,-0
45.11667,0
45.12500,-0
45.13333,-0
45.14167,-0
45.15000,-0
45.15833,-0
45.16667,-1
45.17500,-1
45.18333,-1
45.19167,-1
45.20000,-2
45.20833,-2
45.21667,-1
45.22500,-1
45.23333,-1
45.24167,-1
45.25000,-1
45.25833,-1
45.26667,-1
45.27500,-1
45.28333,-1
45.29167,-1
45.30000,-1
45.30833,-1
45.31667,-1
45.32500,-1
45.33333,-1
45.34167,-1
45.35000,-1
45.35833,-1
45.36667,-1
45.37500,-1
45.38333,-1
45.39167,-1
45.40000,-1
45.40833,-1
45.41667,-1
45.42500,-1
45.43333,-1
45.44167,-1
45.45000,-1
45.45833,-1
45.46667,-1
45.47500,-2
45.48333,-2
45.49167,-2
45.50000,-2
45.50833,-2
45.51667,-2
45.52500,-2
45.53333,-2
45.54167,-2
45.55000,-2
45.55833,-2
45.56667,-2
45.57500,-2
45.58333,-2
45.59167,-2
45.60000,-2
45.60833,-2
45.61667,-2
45.62500,-2
45.63333,-2
45.64167,-2
45.65000,-2
45.65833,-2
45.66667,-1
45.67500,-1
45.68333,-1
45.69167,-2
45.70000,-2
45.70833,-2
45.71667,-2
45.72500,-2
45.73333,-2
45.74167,-3
45.75000,-3
45.75833,-3
45.76667,-3
45.77500,-3
45.78333,-4
45.79167,-4
45.80000,-4
45.80833,-4
45.81667,-4
45.82500,-4
45.83333,-4
45.84167,-5
45.85000,-5
45.85833,-5
45.86667,-5
45.87500,-4
45.88333,-4
45.89167,-4
45.90000,-4
45.90833,-5
45.91667,-5
45.92500,-6
45.93333,-5
45.94167,-5
45.95000,-5
45.95833,-6
45.96667,-6
45.97500,-6
45.98333,-6
45.99167,-7
46.00000,-6
46.00833,-6
46.01667,-6
46.02500,-7
46.03333,-7
46.04167,-7
46.05000,-7
46.05833,-7
46.06667,-7
46.07500,-8
46.08333,-8
46.09167,-8
46.10000,-8
46.10833,-8
46.11667,-8
46.12500,-8
46.13333,-8
46.14167,-8
46.15000,-9
46.15833,-9
46.16667,-9
46.17500,-9
46.18333,-9
46.19167,-9
46.20000,-9
46.20833,-10
46.21667,-10
46.22500,-10
46.23333,-10
46.24167,-10
46.25000,-10
46.25833,-10
46.26667,-11
46.27500,-11
46.28333,-11
46.29167,-11
46.30000,-12
46.30833,-13
46.31667,-13
46.32500,-13
46.33333,-14
46.34167,-14
46.35000,-14
46.35833,-14
46.36667,-14
46.37500,-14
46.38333,-15
46.39167,-15
46.40000,-15
46.40833,-15
46.41667,-15
46.42500,-15
46.43333,-16
46.44167,-16
46.45000,-16
46.45833,-16
46.46667,-16
46.47500,-16
46.48333,-16
46.49167,-17
46.50000,-17
46.50833,-17
46.51667,-18
46.52500,-18
46.53333,-19
46.54167,-19
46.55000,-19
46.55833,-19
46.56667,-20
46.57500,-20
46.58333,-20
46.59167,-20
46.60000,-20
46.60833,-20
46.61667,-20
46.62500,-20
46.63333,-20
46.64167,-21
46.65000,-21
46.65833,-22
46.66667,-22
46.67500,-22
46.68333,-22
46.69167,-22
46.70000,-23
46.70833,-23
46.71667,-23
46.72500,-24
46.73333,-24
46.74167,-24
46.75000,-24
46.75833,-25
46.76667,-25
46.77500,-25
46.78333,-25
46.79167,-25
46.80000,-25
46.80833,-25
46.81667,-26
46.82500,-26
46.83333,-26
46.84167,-26
46.85000,-26
46.85833,-26
46.86667,-26
46.87500,-26
46.88333,-27
46.89167,-27
46.90000,-26
46.90833,-26
46.91667,-25
46.92500,-25
46.93333,-25
46.94167,-25
46.95000,-25
46.95833,-26
46.96667,-26
46.97500,-26
46.98333,-26
46.99167,-26
47.00000,-26
47.00833,-26
47.01667,-26
47.02500,-26
47.03333,-25
47.04167,-25
47.05000,-25
47.05833,-25
47.06667,-25
47.07500,-25
47.08333,-25
47.09167,-25
47.10000,-25
47.10833,-24
47.11667,-24
47.12500,-24
47.13333,-24
47.14167,-23
47.15000,-23
47.15833,-23
47.16667,-23
47.17500,-23
47.18333,-22
47.19167,-22
47.20000,-22
47.20833,-22
47.21667,-22
47.22500,-21
47.23333,-21
47.24167,-21
47.25000,-20
47.25833,-19
47.26667,-19
47.27500,-18
47.28333,-18
47.29167,-18
47.30000,-18
47.30833,-17
47.31667,-17
47.32500,-16
47.33333,-16
47.34167,-16
47.35000,-15
47.35833,-15
47.36667,-14
47.37500,-14
47.38333,-13
47.39167,-13
47.40000,-12
47.40833,-12
47.41667,-11
47.42500,-11
47.43333,-10
47.44167,-9
47.45000,-8
47.45833,-8
47.46667,-7
47.47500,-6
47.48333,-5
47.49167,-5
47.50000,-4
47.50833,-3
47.51667,-2
47.52500,-1
47.53333,-1
47.54167,-0
47.55000,1
47.55833,1
47.56667,2
47.57500,3
47.58333,4
47.59167,5
47.60000,6
47.60833,6
47.61667,6
47.62500,7
47.63333,8
47.64167,9
47.65000,10
47.65833,11
47.66667,12
47.67500,12
47.68333,13
47.69167,14
47.70000,15
47.70833,16
47.71667,17
47.72500,18
47.73333,19
47.74167,20
47.75000,21
47.75833,22
47.76667,23
47.77500,23
47.78333,24
47.79167,25
47.80000,26
47.80833,27
47.81667,27
47.82500,28
47.83333,29
47.84167,30
47.85000,30
47.85833,31
47.86667,31
47.87500,32
47.88333,32
47.89167,33
47.90000,34
47.90833,34
47.91667,35
47.92500,36
47.93333,36
47.94167,37
47.95000,38
47.95833,39
47.96667,40
47.97500,40
47.98333,40
47.99167,41
48.00000,41
48.00833,41
48.01667,42
48.02500,42
48.03333,43
48.04167,44
48.05000,44
48.05833,45
48.06667,45
48.07500,45
48.08333,46
48.09167,46
48.10000,47
48.10833,47
48.11667,48
48.12500,48
48.13333,49
48.14167,49
48.15000,50
48.15833,50
48.16667,51
48.17500,51
48.18333,51
48.19167,51
48.20000,51
48.20833,52
48.21667,52
48.22500,52
48.23333,53
48.24167,54
48.25000,54
48.25833,54
48.26667,54
48.27500,54
48.28333,54
48.29167,54
48.30000,54
48.30833,54
48.31667,54
48.32500,55
48.33333,55
48.34167,55
48.35000,55
48.35833,55
48.36667,55
48.37500,55
48.38333,55
48.39167,56
48.40000,56
48.40833,56
48.41667,56
48.42500,56
48.43333,56
48.44167,57
48.45000,57
48.45833,56
48.46667,56
48.47500,56
48.48333,56
48.49167,57
48.50000,57
48.50833,57
48.51667,57
48.52500,57
48.53333,57
48.54167,57
48.55000,57
48.55833,58
48.56667,58
48.57500,57
48.58333,58
48.59167,58
48.60000,58
48.60833,58
48.61667,58
48.62500,58
48.63333,58
48.64167,58
48.65000,58
48.65833,58
48.66667,58
48.67500,57
48.68333,57
48.69167,57
48.70000,57
48.70833,58
48.71667,58
48.72500,58
48.73333,58
48.74167,58
48.75000,58
48.75833,58
48.76667,58
48.77500,58
48.78333,58
48.79167,58
48.80000,58
48.80833,58
48.81667,58
48.82500,58
48.83333,58
48.84167,59
48.85000,59
48.85833,59
48.86667,59
48.87500,59
48.88333,59
48.89167,60
48.90000,60
48.90833,60
48.91667,60
48.92500,60
48.93333,60
48.94167,60
48.95000,59
48.95833,59
48.96667,59
48.97500,59
48.98333,59
48.99167,59
49.00000,59
49.00833,59
49.01667,60
49.02500,60
49.03333,60
49.04167,61
49.05000,61
49.05833,61
49.06667,61
49.07500,61
49.08333,61
49.09167,61
49.10000,61
49.10833,61
49.11667,61
49.12500,61
49.13333,61
49.14167,61
49.15000,61
49.15833,61
49.16667,61
49.17500,61
49.18333,60
49.19167,60
49.20000,60
49.20833,60
49.21667,60
49.22500,61
49.23333,61
49.24167,60
49.25000,60
49.25833,60
49.26667,60
49.27500,59
49.28333,59
49.29167,60
49.30000,60
49.30833,60
49.31667,60
49.32500,60
49.33333,60
49.34167,60
49.35000,60
49.35833,59
49.36667,59
49.37500,59
49.38333,59
49.39167,59
49.40000,58
49.40833,58
49.41667,58
49.42500,58
49.43333,57
49.44167,57
49.45000,57
49.45833,57
49.46667,57
49.47500,57
49.48333,56
49.49167,56
49.50000,56
49.50833,55
49.51667,55
49.52500,54
49.53333,54
49.54167,54
49.55000,54
49.55833,54
49.56667,54
49.57500,54
49.58333,54
49.59167,54
49.60000,53
49.60833,52
49.61667,52
49.62500,52
49.63333,52
49.64167,52
49.65000,51
49.65833,51
49.66667,50
49.67500,50
49.68333,50
49.69167,50
49.70000,49
49.70833,49
49.71667,48
49.72500,47
49.73333,47
49.74167,47
49.75000,47
49.75833,46
49.76667,46
49.77500,45
49.78333,44
49.79167,43
49.80000,43
49.80833,42
49.81667,42
49.82500,41
49.83333,41
49.84167,40
49.85000,40
49.85833,39
49.86667,39
49.87500,38
49.88333,38
49.89167,38
49.90000,37
49.90833,36
49.91667,36
49.92500,35
49.93333,34
49.94167,33
49.95000,32
49.95833,32
49.96667,31
49.97500,30
49.98333,30
49.99167,29
50.00000,28

