[Header]
Application Name,LabSolutions
Version,5.97 SP1
Data File Name,C:\Users\cremerlab\Desktop\Richa\Sep_6th_2022_re-run_Sep2nd\Sep 6th_962022_005_006.lcd
Output Date,9/6/2022
Output Time,9:23:42 PM

[File Information]
Type,Data File
Generated,9/6/2022 8:33:23 PM
Generated by,System Administrator
Modified,9/6/2022 9:23:42 PM
Modified by,System Administrator

[Sample Information]
Operator Name,System Administrator
Acquired,9/6/2022 8:33:40 PM
Sample Type,0:Unknown
Level,0
Sample Name,090622_B.ovatus_1
Sample ID,005
ISTD Amount1,1
ISTD Amount2,1
ISTD Amount3,1
ISTD Amount4,1
ISTD Amount5,1
ISTD Amount6,1
ISTD Amount7,1
ISTD Amount8,1
ISTD Amount9,1
ISTD Amount10,1
ISTD Amount11,1
ISTD Amount12,1
ISTD Amount13,1
ISTD Amount14,1
ISTD Amount15,1
ISTD Amount16,1
ISTD Amount17,1
ISTD Amount18,1
ISTD Amount19,1
ISTD Amount20,1
ISTD Amount21,1
ISTD Amount22,1
ISTD Amount23,1
ISTD Amount24,1
ISTD Amount25,1
ISTD Amount26,1
ISTD Amount27,1
ISTD Amount28,1
ISTD Amount29,1
ISTD Amount30,1
ISTD Amount31,1
ISTD Amount32,1
Sample Amount,1
Dilution Factor,1
Vial#,5
Injection Volume,20

[Original Files]
Data File,C:\Users\cremerlab\Desktop\Richa\Sep_6th_2022_re-run_Sep2nd\Sep 6th_962022_005_006.lcd
Method File,C:\Users\cremerlab\Desktop\Richa\acetate_excretion.lcm
Batch File,C:\Users\cremerlab\Desktop\Richa\Sep_6th_2022_re-run_Sep2nd\Sep 6th.lcb
Report Format File,c:\LabSolutions\System\DEFAULT.lsr

[File Description]


[Configuration]
Instrument Name,HPLC-PC-Instrument1
Instrument #,1
Line #,1
# of Detectors,2
Detector ID,Detector A,Detector B
Detector Name,Detector A,Detector B
# of Channels,1,1

[Peak Table(Detector A)]
# of Peaks,0

[Peak Table(Detector B)]
# of Peaks,11
Peak#,R.Time,I.Time,F.Time,Area,Height,A/H,Conc.,Mark,ID#,Name,k',Plate #,Plate Ht.,Tailing,Resolution,Sep.Factor,Area Ratio,Height Ratio,Conc. %,Norm Conc.
1,10.471,10.258,10.517,1419,182,7.801,0.000,   ,,,0.000,12419,12.078,0.000,0.000,0.000,0,0,0.000,0.000
2,11.020,10.517,12.325,2261858,115579,19.570,0.000, V ,,,0.052,7530,19.921,0.969,1.242,0.000,0,0,0.000,0.000
3,14.330,12.650,15.183,3583708,76671,46.741,0.000,   ,,,0.368,2483,60.421,0.655,3.991,7.032,0,0,0.000,0.000
4,15.759,15.183,18.417,1476214,50314,29.340,0.000,SV ,,,0.505,6914,21.695,1.146,1.498,1.370,0,0,0.000,0.000
5,17.853,17.408,18.375,7299,251,29.106,0.000,T  ,,,0.705,7912,18.957,1.078,2.683,1.396,0,0,0.000,0.000
6,19.093,18.417,19.750,12956,307,42.184,0.000,   ,,,0.823,4285,35.009,0.972,1.259,1.168,0,0,0.000,0.000
7,20.293,19.775,21.192,18462,528,34.988,0.000,   ,,,0.938,8515,17.617,1.401,1.173,1.139,0,0,0.000,0.000
8,21.858,21.342,22.500,16873,484,34.840,0.000,   ,,,1.087,9218,16.272,1.079,1.748,1.159,0,0,0.000,0.000
9,25.079,24.308,26.383,139221,3382,41.159,0.000,   ,,,1.395,9026,16.618,1.161,3.276,1.283,0,0,0.000,0.000
10,29.201,28.317,30.283,129364,2778,46.572,0.000,   ,,,1.789,9217,16.274,1.063,3.628,1.282,0,0,0.000,0.000
11,32.495,31.708,34.392,34280,429,79.897,0.000,   ,,,2.103,1536,97.685,1.632,1.453,1.176,0,0,0.000,0.000

[LC Chromatogram(Detector B-Ch1)]
Interval(msec),500
# of Points,6001
Start Time(min),0.000
End Time(min),50.000
Intensity Units,mV
Intensity Multiplier,0.001
R.Time (min),Intensity
0.00000,-18
0.00833,-18
0.01667,-1
0.02500,-1
0.03333,-2
0.04167,-3
0.05000,-3
0.05833,-4
0.06667,-4
0.07500,-5
0.08333,-5
0.09167,-6
0.10000,-7
0.10833,-8
0.11667,-8
0.12500,-9
0.13333,-10
0.14167,-10
0.15000,-11
0.15833,-11
0.16667,-12
0.17500,-12
0.18333,-13
0.19167,-13
0.20000,-14
0.20833,-14
0.21667,-14
0.22500,-14
0.23333,-15
0.24167,-15
0.25000,-16
0.25833,-16
0.26667,-17
0.27500,-17
0.28333,-17
0.29167,-18
0.30000,-18
0.30833,-19
0.31667,-19
0.32500,-20
0.33333,-20
0.34167,-21
0.35000,-21
0.35833,-21
0.36667,-21
0.37500,-22
0.38333,-22
0.39167,-22
0.40000,-22
0.40833,-22
0.41667,-22
0.42500,-23
0.43333,-23
0.44167,-24
0.45000,-24
0.45833,-24
0.46667,-24
0.47500,-25
0.48333,-25
0.49167,-25
0.50000,-26
0.50833,-26
0.51667,-26
0.52500,-27
0.53333,-27
0.54167,-27
0.55000,-27
0.55833,-27
0.56667,-27
0.57500,-27
0.58333,-27
0.59167,-28
0.60000,-28
0.60833,-28
0.61667,-28
0.62500,-28
0.63333,-28
0.64167,-28
0.65000,-28
0.65833,-28
0.66667,-28
0.67500,-28
0.68333,-28
0.69167,-28
0.70000,-28
0.70833,-29
0.71667,-29
0.72500,-29
0.73333,-29
0.74167,-28
0.75000,-28
0.75833,-29
0.76667,-29
0.77500,-29
0.78333,-29
0.79167,-29
0.80000,-28
0.80833,-29
0.81667,-29
0.82500,-29
0.83333,-29
0.84167,-29
0.85000,-29
0.85833,-29
0.86667,-29
0.87500,-29
0.88333,-29
0.89167,-29
0.90000,-29
0.90833,-29
0.91667,-28
0.92500,-29
0.93333,-28
0.94167,-28
0.95000,-28
0.95833,-29
0.96667,-29
0.97500,-28
0.98333,-28
0.99167,-28
1.00000,-28
1.00833,-28
1.01667,-27
1.02500,-27
1.03333,-26
1.04167,-26
1.05000,-25
1.05833,-25
1.06667,-25
1.07500,-25
1.08333,-25
1.09167,-25
1.10000,-24
1.10833,-24
1.11667,-24
1.12500,-24
1.13333,-24
1.14167,-24
1.15000,-24
1.15833,-23
1.16667,-24
1.17500,-24
1.18333,-24
1.19167,-24
1.20000,-24
1.20833,-23
1.21667,-23
1.22500,-23
1.23333,-23
1.24167,-22
1.25000,-22
1.25833,-22
1.26667,-22
1.27500,-22
1.28333,-22
1.29167,-22
1.30000,-22
1.30833,-22
1.31667,-22
1.32500,-22
1.33333,-22
1.34167,-22
1.35000,-22
1.35833,-22
1.36667,-21
1.37500,-21
1.38333,-21
1.39167,-20
1.40000,-20
1.40833,-20
1.41667,-19
1.42500,-19
1.43333,-18
1.44167,-18
1.45000,-17
1.45833,-17
1.46667,-17
1.47500,-17
1.48333,-17
1.49167,-16
1.50000,-16
1.50833,-16
1.51667,-16
1.52500,-16
1.53333,-15
1.54167,-15
1.55000,-15
1.55833,-15
1.56667,-15
1.57500,-15
1.58333,-15
1.59167,-15
1.60000,-15
1.60833,-15
1.61667,-15
1.62500,-15
1.63333,-15
1.64167,-14
1.65000,-14
1.65833,-13
1.66667,-13
1.67500,-13
1.68333,-13
1.69167,-13
1.70000,-13
1.70833,-13
1.71667,-13
1.72500,-13
1.73333,-12
1.74167,-13
1.75000,-13
1.75833,-12
1.76667,-12
1.77500,-12
1.78333,-12
1.79167,-12
1.80000,-12
1.80833,-12
1.81667,-12
1.82500,-12
1.83333,-12
1.84167,-11
1.85000,-11
1.85833,-11
1.86667,-11
1.87500,-11
1.88333,-11
1.89167,-11
1.90000,-11
1.90833,-11
1.91667,-11
1.92500,-11
1.93333,-11
1.94167,-11
1.95000,-10
1.95833,-10
1.96667,-10
1.97500,-10
1.98333,-10
1.99167,-9
2.00000,-9
2.00833,-9
2.01667,-10
2.02500,-10
2.03333,-10
2.04167,-9
2.05000,-10
2.05833,-10
2.06667,-10
2.07500,-10
2.08333,-10
2.09167,-10
2.10000,-10
2.10833,-10
2.11667,-10
2.12500,-10
2.13333,-10
2.14167,-10
2.15000,-10
2.15833,-10
2.16667,-10
2.17500,-10
2.18333,-10
2.19167,-10
2.20000,-10
2.20833,-10
2.21667,-10
2.22500,-10
2.23333,-10
2.24167,-9
2.25000,-9
2.25833,-9
2.26667,-9
2.27500,-9
2.28333,-10
2.29167,-10
2.30000,-10
2.30833,-10
2.31667,-10
2.32500,-10
2.33333,-10
2.34167,-10
2.35000,-10
2.35833,-10
2.36667,-10
2.37500,-11
2.38333,-11
2.39167,-11
2.40000,-11
2.40833,-12
2.41667,-12
2.42500,-12
2.43333,-12
2.44167,-12
2.45000,-12
2.45833,-12
2.46667,-12
2.47500,-12
2.48333,-12
2.49167,-13
2.50000,-13
2.50833,-13
2.51667,-13
2.52500,-13
2.53333,-13
2.54167,-13
2.55000,-13
2.55833,-13
2.56667,-13
2.57500,-13
2.58333,-13
2.59167,-13
2.60000,-13
2.60833,-14
2.61667,-14
2.62500,-14
2.63333,-14
2.64167,-14
2.65000,-14
2.65833,-14
2.66667,-14
2.67500,-14
2.68333,-15
2.69167,-15
2.70000,-15
2.70833,-16
2.71667,-16
2.72500,-16
2.73333,-16
2.74167,-17
2.75000,-17
2.75833,-17
2.76667,-17
2.77500,-17
2.78333,-17
2.79167,-17
2.80000,-17
2.80833,-18
2.81667,-18
2.82500,-18
2.83333,-17
2.84167,-18
2.85000,-18
2.85833,-18
2.86667,-18
2.87500,-18
2.88333,-18
2.89167,-18
2.90000,-18
2.90833,-18
2.91667,-18
2.92500,-18
2.93333,-18
2.94167,-18
2.95000,-18
2.95833,-18
2.96667,-18
2.97500,-18
2.98333,-18
2.99167,-18
3.00000,-18
3.00833,-18
3.01667,-18
3.02500,-18
3.03333,-18
3.04167,-19
3.05000,-19
3.05833,-19
3.06667,-19
3.07500,-19
3.08333,-19
3.09167,-19
3.10000,-19
3.10833,-19
3.11667,-19
3.12500,-19
3.13333,-18
3.14167,-18
3.15000,-18
3.15833,-18
3.16667,-18
3.17500,-18
3.18333,-18
3.19167,-18
3.20000,-18
3.20833,-18
3.21667,-18
3.22500,-18
3.23333,-18
3.24167,-18
3.25000,-18
3.25833,-19
3.26667,-19
3.27500,-20
3.28333,-20
3.29167,-19
3.30000,-19
3.30833,-19
3.31667,-19
3.32500,-19
3.33333,-19
3.34167,-19
3.35000,-19
3.35833,-19
3.36667,-20
3.37500,-20
3.38333,-20
3.39167,-21
3.40000,-20
3.40833,-20
3.41667,-20
3.42500,-19
3.43333,-19
3.44167,-18
3.45000,-18
3.45833,-17
3.46667,-18
3.47500,-18
3.48333,-18
3.49167,-18
3.50000,-18
3.50833,-18
3.51667,-18
3.52500,-18
3.53333,-18
3.54167,-18
3.55000,-17
3.55833,-17
3.56667,-18
3.57500,-18
3.58333,-17
3.59167,-17
3.60000,-17
3.60833,-16
3.61667,-16
3.62500,-16
3.63333,-16
3.64167,-16
3.65000,-16
3.65833,-16
3.66667,-16
3.67500,-16
3.68333,-16
3.69167,-16
3.70000,-16
3.70833,-15
3.71667,-15
3.72500,-15
3.73333,-15
3.74167,-15
3.75000,-15
3.75833,-15
3.76667,-14
3.77500,-14
3.78333,-14
3.79167,-14
3.80000,-14
3.80833,-13
3.81667,-13
3.82500,-13
3.83333,-12
3.84167,-12
3.85000,-11
3.85833,-11
3.86667,-11
3.87500,-10
3.88333,-10
3.89167,-10
3.90000,-10
3.90833,-11
3.91667,-11
3.92500,-11
3.93333,-10
3.94167,-10
3.95000,-9
3.95833,-9
3.96667,-9
3.97500,-9
3.98333,-9
3.99167,-9
4.00000,-8
4.00833,-8
4.01667,-8
4.02500,-7
4.03333,-7
4.04167,-6
4.05000,-6
4.05833,-5
4.06667,-5
4.07500,-4
4.08333,-3
4.09167,-3
4.10000,-2
4.10833,-2
4.11667,-1
4.12500,-1
4.13333,-1
4.14167,-0
4.15000,0
4.15833,1
4.16667,1
4.17500,2
4.18333,3
4.19167,3
4.20000,4
4.20833,4
4.21667,5
4.22500,5
4.23333,6
4.24167,6
4.25000,7
4.25833,7
4.26667,8
4.27500,9
4.28333,9
4.29167,9
4.30000,10
4.30833,11
4.31667,12
4.32500,12
4.33333,13
4.34167,14
4.35000,14
4.35833,15
4.36667,15
4.37500,16
4.38333,16
4.39167,17
4.40000,18
4.40833,18
4.41667,20
4.42500,21
4.43333,21
4.44167,22
4.45000,23
4.45833,24
4.46667,25
4.47500,25
4.48333,26
4.49167,27
4.50000,27
4.50833,28
4.51667,29
4.52500,29
4.53333,29
4.54167,30
4.55000,30
4.55833,31
4.56667,31
4.57500,32
4.58333,32
4.59167,33
4.60000,34
4.60833,34
4.61667,35
4.62500,36
4.63333,36
4.64167,36
4.65000,37
4.65833,37
4.66667,38
4.67500,39
4.68333,39
4.69167,40
4.70000,41
4.70833,41
4.71667,42
4.72500,42
4.73333,43
4.74167,43
4.75000,44
4.75833,44
4.76667,44
4.77500,45
4.78333,45
4.79167,45
4.80000,46
4.80833,46
4.81667,46
4.82500,47
4.83333,47
4.84167,47
4.85000,47
4.85833,48
4.86667,48
4.87500,49
4.88333,49
4.89167,49
4.90000,49
4.90833,49
4.91667,49
4.92500,49
4.93333,49
4.94167,49
4.95000,50
4.95833,50
4.96667,50
4.97500,51
4.98333,51
4.99167,51
5.00000,51
5.00833,51
5.01667,51
5.02500,51
5.03333,51
5.04167,50
5.05000,51
5.05833,51
5.06667,51
5.07500,51
5.08333,51
5.09167,50
5.10000,50
5.10833,50
5.11667,50
5.12500,50
5.13333,50
5.14167,49
5.15000,49
5.15833,49
5.16667,49
5.17500,48
5.18333,48
5.19167,48
5.20000,48
5.20833,48
5.21667,48
5.22500,48
5.23333,48
5.24167,48
5.25000,47
5.25833,46
5.26667,46
5.27500,45
5.28333,45
5.29167,44
5.30000,44
5.30833,44
5.31667,44
5.32500,43
5.33333,43
5.34167,43
5.35000,43
5.35833,42
5.36667,42
5.37500,41
5.38333,41
5.39167,40
5.40000,40
5.40833,39
5.41667,38
5.42500,38
5.43333,37
5.44167,37
5.45000,36
5.45833,36
5.46667,36
5.47500,35
5.48333,35
5.49167,35
5.50000,34
5.50833,33
5.51667,33
5.52500,32
5.53333,32
5.54167,31
5.55000,31
5.55833,30
5.56667,29
5.57500,29
5.58333,28
5.59167,27
5.60000,26
5.60833,26
5.61667,25
5.62500,24
5.63333,23
5.64167,23
5.65000,22
5.65833,22
5.66667,21
5.67500,20
5.68333,19
5.69167,18
5.70000,17
5.70833,17
5.71667,16
5.72500,16
5.73333,15
5.74167,14
5.75000,13
5.75833,12
5.76667,12
5.77500,11
5.78333,10
5.79167,10
5.80000,9
5.80833,8
5.81667,7
5.82500,6
5.83333,5
5.84167,4
5.85000,3
5.85833,2
5.86667,2
5.87500,1
5.88333,-0
5.89167,-1
5.90000,-1
5.90833,-2
5.91667,-2
5.92500,-3
5.93333,-4
5.94167,-5
5.95000,-6
5.95833,-8
5.96667,-8
5.97500,-9
5.98333,-10
5.99167,-10
6.00000,-11
6.00833,-12
6.01667,-13
6.02500,-13
6.03333,-15
6.04167,-16
6.05000,-16
6.05833,-17
6.06667,-18
6.07500,-18
6.08333,-19
6.09167,-19
6.10000,-20
6.10833,-21
6.11667,-21
6.12500,-22
6.13333,-23
6.14167,-24
6.15000,-24
6.15833,-25
6.16667,-26
6.17500,-27
6.18333,-27
6.19167,-28
6.20000,-28
6.20833,-29
6.21667,-29
6.22500,-30
6.23333,-31
6.24167,-32
6.25000,-32
6.25833,-32
6.26667,-33
6.27500,-33
6.28333,-34
6.29167,-35
6.30000,-36
6.30833,-36
6.31667,-36
6.32500,-37
6.33333,-37
6.34167,-38
6.35000,-39
6.35833,-39
6.36667,-40
6.37500,-40
6.38333,-41
6.39167,-41
6.40000,-41
6.40833,-42
6.41667,-42
6.42500,-43
6.43333,-43
6.44167,-43
6.45000,-44
6.45833,-45
6.46667,-45
6.47500,-45
6.48333,-46
6.49167,-46
6.50000,-47
6.50833,-47
6.51667,-47
6.52500,-47
6.53333,-48
6.54167,-48
6.55000,-49
6.55833,-49
6.56667,-50
6.57500,-50
6.58333,-50
6.59167,-51
6.60000,-51
6.60833,-51
6.61667,-51
6.62500,-51
6.63333,-51
6.64167,-51
6.65000,-52
6.65833,-52
6.66667,-52
6.67500,-52
6.68333,-52
6.69167,-52
6.70000,-52
6.70833,-53
6.71667,-53
6.72500,-53
6.73333,-53
6.74167,-53
6.75000,-53
6.75833,-53
6.76667,-53
6.77500,-54
6.78333,-54
6.79167,-54
6.80000,-54
6.80833,-54
6.81667,-54
6.82500,-54
6.83333,-54
6.84167,-54
6.85000,-54
6.85833,-54
6.86667,-54
6.87500,-55
6.88333,-55
6.89167,-55
6.90000,-55
6.90833,-56
6.91667,-56
6.92500,-56
6.93333,-56
6.94167,-57
6.95000,-57
6.95833,-57
6.96667,-57
6.97500,-57
6.98333,-57
6.99167,-57
7.00000,-57
7.00833,-57
7.01667,-57
7.02500,-57
7.03333,-57
7.04167,-57
7.05000,-57
7.05833,-57
7.06667,-57
7.07500,-57
7.08333,-57
7.09167,-57
7.10000,-57
7.10833,-58
7.11667,-58
7.12500,-58
7.13333,-58
7.14167,-58
7.15000,-57
7.15833,-57
7.16667,-57
7.17500,-57
7.18333,-58
7.19167,-58
7.20000,-58
7.20833,-59
7.21667,-59
7.22500,-59
7.23333,-59
7.24167,-59
7.25000,-59
7.25833,-59
7.26667,-58
7.27500,-58
7.28333,-58
7.29167,-58
7.30000,-58
7.30833,-58
7.31667,-59
7.32500,-59
7.33333,-59
7.34167,-59
7.35000,-59
7.35833,-59
7.36667,-59
7.37500,-58
7.38333,-58
7.39167,-58
7.40000,-59
7.40833,-59
7.41667,-59
7.42500,-59
7.43333,-59
7.44167,-59
7.45000,-59
7.45833,-59
7.46667,-59
7.47500,-59
7.48333,-59
7.49167,-59
7.50000,-59
7.50833,-59
7.51667,-59
7.52500,-59
7.53333,-59
7.54167,-58
7.55000,-59
7.55833,-59
7.56667,-59
7.57500,-59
7.58333,-59
7.59167,-59
7.60000,-60
7.60833,-59
7.61667,-59
7.62500,-59
7.63333,-59
7.64167,-59
7.65000,-59
7.65833,-59
7.66667,-59
7.67500,-59
7.68333,-59
7.69167,-59
7.70000,-59
7.70833,-59
7.71667,-59
7.72500,-59
7.73333,-59
7.74167,-59
7.75000,-59
7.75833,-58
7.76667,-58
7.77500,-58
7.78333,-58
7.79167,-58
7.80000,-58
7.80833,-58
7.81667,-58
7.82500,-58
7.83333,-58
7.84167,-59
7.85000,-59
7.85833,-59
7.86667,-59
7.87500,-59
7.88333,-59
7.89167,-59
7.90000,-59
7.90833,-59
7.91667,-60
7.92500,-59
7.93333,-59
7.94167,-59
7.95000,-59
7.95833,-60
7.96667,-60
7.97500,-60
7.98333,-60
7.99167,-60
8.00000,-60
8.00833,-60
8.01667,-61
8.02500,-61
8.03333,-61
8.04167,-61
8.05000,-61
8.05833,-61
8.06667,-61
8.07500,-61
8.08333,-61
8.09167,-62
8.10000,-62
8.10833,-61
8.11667,-62
8.12500,-62
8.13333,-62
8.14167,-61
8.15000,-61
8.15833,-61
8.16667,-61
8.17500,-60
8.18333,-60
8.19167,-60
8.20000,-60
8.20833,-61
8.21667,-61
8.22500,-61
8.23333,-61
8.24167,-61
8.25000,-62
8.25833,-62
8.26667,-61
8.27500,-61
8.28333,-61
8.29167,-61
8.30000,-61
8.30833,-61
8.31667,-60
8.32500,-61
8.33333,-61
8.34167,-61
8.35000,-61
8.35833,-61
8.36667,-61
8.37500,-61
8.38333,-61
8.39167,-61
8.40000,-61
8.40833,-61
8.41667,-60
8.42500,-60
8.43333,-60
8.44167,-61
8.45000,-61
8.45833,-61
8.46667,-61
8.47500,-62
8.48333,-62
8.49167,-62
8.50000,-62
8.50833,-62
8.51667,-62
8.52500,-62
8.53333,-62
8.54167,-62
8.55000,-62
8.55833,-62
8.56667,-62
8.57500,-63
8.58333,-63
8.59167,-63
8.60000,-63
8.60833,-63
8.61667,-63
8.62500,-63
8.63333,-62
8.64167,-62
8.65000,-62
8.65833,-63
8.66667,-63
8.67500,-63
8.68333,-63
8.69167,-63
8.70000,-63
8.70833,-63
8.71667,-62
8.72500,-62
8.73333,-62
8.74167,-62
8.75000,-62
8.75833,-62
8.76667,-62
8.77500,-62
8.78333,-62
8.79167,-62
8.80000,-62
8.80833,-61
8.81667,-61
8.82500,-62
8.83333,-62
8.84167,-62
8.85000,-62
8.85833,-62
8.86667,-62
8.87500,-62
8.88333,-62
8.89167,-62
8.90000,-61
8.90833,-61
8.91667,-61
8.92500,-61
8.93333,-61
8.94167,-61
8.95000,-61
8.95833,-62
8.96667,-62
8.97500,-62
8.98333,-62
8.99167,-62
9.00000,-62
9.00833,-62
9.01667,-62
9.02500,-62
9.03333,-62
9.04167,-62
9.05000,-62
9.05833,-62
9.06667,-62
9.07500,-62
9.08333,-62
9.09167,-62
9.10000,-62
9.10833,-62
9.11667,-62
9.12500,-62
9.13333,-62
9.14167,-62
9.15000,-63
9.15833,-63
9.16667,-63
9.17500,-63
9.18333,-63
9.19167,-63
9.20000,-63
9.20833,-62
9.21667,-62
9.22500,-62
9.23333,-62
9.24167,-62
9.25000,-62
9.25833,-62
9.26667,-62
9.27500,-62
9.28333,-61
9.29167,-61
9.30000,-61
9.30833,-61
9.31667,-61
9.32500,-61
9.33333,-61
9.34167,-61
9.35000,-61
9.35833,-62
9.36667,-62
9.37500,-62
9.38333,-62
9.39167,-62
9.40000,-62
9.40833,-62
9.41667,-62
9.42500,-61
9.43333,-62
9.44167,-62
9.45000,-62
9.45833,-61
9.46667,-61
9.47500,-62
9.48333,-61
9.49167,-62
9.50000,-62
9.50833,-61
9.51667,-61
9.52500,-61
9.53333,-61
9.54167,-61
9.55000,-61
9.55833,-61
9.56667,-61
9.57500,-61
9.58333,-62
9.59167,-61
9.60000,-61
9.60833,-61
9.61667,-61
9.62500,-61
9.63333,-61
9.64167,-60
9.65000,-60
9.65833,-60
9.66667,-60
9.67500,-59
9.68333,-59
9.69167,-59
9.70000,-59
9.70833,-59
9.71667,-59
9.72500,-60
9.73333,-60
9.74167,-60
9.75000,-60
9.75833,-60
9.76667,-60
9.77500,-60
9.78333,-59
9.79167,-59
9.80000,-59
9.80833,-59
9.81667,-58
9.82500,-59
9.83333,-59
9.84167,-59
9.85000,-59
9.85833,-59
9.86667,-59
9.87500,-59
9.88333,-59
9.89167,-59
9.90000,-58
9.90833,-58
9.91667,-58
9.92500,-59
9.93333,-59
9.94167,-59
9.95000,-59
9.95833,-59
9.96667,-59
9.97500,-58
9.98333,-58
9.99167,-58
10.00000,-58
10.00833,-58
10.01667,-58
10.02500,-58
10.03333,-57
10.04167,-57
10.05000,-57
10.05833,-57
10.06667,-56
10.07500,-56
10.08333,-55
10.09167,-55
10.10000,-55
10.10833,-55
10.11667,-54
10.12500,-54
10.13333,-53
10.14167,-52
10.15000,-51
10.15833,-50
10.16667,-49
10.17500,-47
10.18333,-46
10.19167,-45
10.20000,-44
10.20833,-43
10.21667,-41
10.22500,-40
10.23333,-38
10.24167,-37
10.25000,-35
10.25833,-32
10.26667,-30
10.27500,-27
10.28333,-24
10.29167,-21
10.30000,-17
10.30833,-12
10.31667,-7
10.32500,-0
10.33333,8
10.34167,17
10.35000,27
10.35833,38
10.36667,51
10.37500,65
10.38333,80
10.39167,97
10.40000,114
10.40833,132
10.41667,149
10.42500,165
10.43333,180
10.44167,193
10.45000,203
10.45833,209
10.46667,213
10.47500,213
10.48333,210
10.49167,205
10.50000,200
10.50833,196
10.51667,196
10.52500,202
10.53333,219
10.54167,250
10.55000,300
10.55833,374
10.56667,476
10.57500,613
10.58333,790
10.59167,1015
10.60000,1292
10.60833,1627
10.61667,2027
10.62500,2498
10.63333,3046
10.64167,3675
10.65000,4391
10.65833,5200
10.66667,6107
10.67500,7115
10.68333,8228
10.69167,9450
10.70000,10785
10.70833,12234
10.71667,13800
10.72500,15486
10.73333,17293
10.74167,19221
10.75000,21272
10.75833,23447
10.76667,25744
10.77500,28164
10.78333,30705
10.79167,33366
10.80000,36145
10.80833,39039
10.81667,42046
10.82500,45161
10.83333,48382
10.84167,51702
10.85000,55116
10.85833,58617
10.86667,62198
10.87500,65847
10.88333,69553
10.89167,73304
10.90000,77083
10.90833,80872
10.91667,84650
10.92500,88391
10.93333,92067
10.94167,95643
10.95000,99082
10.95833,102340
10.96667,105370
10.97500,108121
10.98333,110539
10.99167,112568
11.00000,114153
11.00833,115238
11.01667,115773
11.02500,115716
11.03333,115034
11.04167,113707
11.05000,111730
11.05833,109114
11.06667,105887
11.07500,102099
11.08333,97811
11.09167,93099
11.10000,88052
11.10833,82762
11.11667,77322
11.12500,71828
11.13333,66364
11.14167,61009
11.15000,55830
11.15833,50882
11.16667,46206
11.17500,41833
11.18333,37780
11.19167,34055
11.20000,30658
11.20833,27580
11.21667,24808
11.22500,22325
11.23333,20109
11.24167,18141
11.25000,16398
11.25833,14858
11.26667,13499
11.27500,12302
11.28333,11248
11.29167,10320
11.30000,9502
11.30833,8781
11.31667,8143
11.32500,7579
11.33333,7078
11.34167,6632
11.35000,6234
11.35833,5876
11.36667,5555
11.37500,5265
11.38333,5002
11.39167,4762
11.40000,4542
11.40833,4340
11.41667,4153
11.42500,3981
11.43333,3820
11.44167,3670
11.45000,3529
11.45833,3397
11.46667,3273
11.47500,3155
11.48333,3043
11.49167,2937
11.50000,2837
11.50833,2741
11.51667,2650
11.52500,2562
11.53333,2478
11.54167,2398
11.55000,2322
11.55833,2248
11.56667,2177
11.57500,2109
11.58333,2044
11.59167,1982
11.60000,1922
11.60833,1864
11.61667,1809
11.62500,1756
11.63333,1705
11.64167,1656
11.65000,1609
11.65833,1563
11.66667,1520
11.67500,1478
11.68333,1437
11.69167,1399
11.70000,1362
11.70833,1327
11.71667,1293
11.72500,1261
11.73333,1229
11.74167,1199
11.75000,1170
11.75833,1143
11.76667,1117
11.77500,1093
11.78333,1069
11.79167,1046
11.80000,1024
11.80833,1003
11.81667,982
11.82500,962
11.83333,944
11.84167,926
11.85000,909
11.85833,893
11.86667,877
11.87500,862
11.88333,848
11.89167,835
11.90000,822
11.90833,810
11.91667,798
11.92500,786
11.93333,775
11.94167,765
11.95000,754
11.95833,745
11.96667,736
11.97500,727
11.98333,718
11.99167,710
12.00000,702
12.00833,695
12.01667,688
12.02500,682
12.03333,675
12.04167,669
12.05000,663
12.05833,658
12.06667,652
12.07500,647
12.08333,642
12.09167,637
12.10000,633
12.10833,629
12.11667,625
12.12500,621
12.13333,617
12.14167,614
12.15000,611
12.15833,608
12.16667,605
12.17500,603
12.18333,600
12.19167,598
12.20000,596
12.20833,594
12.21667,592
12.22500,591
12.23333,590
12.24167,589
12.25000,588
12.25833,586
12.26667,585
12.27500,584
12.28333,583
12.29167,583
12.30000,582
12.30833,582
12.31667,582
12.32500,581
12.33333,581
12.34167,581
12.35000,581
12.35833,581
12.36667,581
12.37500,581
12.38333,581
12.39167,581
12.40000,581
12.40833,580
12.41667,580
12.42500,580
12.43333,580
12.44167,579
12.45000,578
12.45833,577
12.46667,577
12.47500,576
12.48333,575
12.49167,573
12.50000,572
12.50833,571
12.51667,569
12.52500,568
12.53333,566
12.54167,565
12.55000,563
12.55833,561
12.56667,560
12.57500,558
12.58333,556
12.59167,554
12.60000,552
12.60833,551
12.61667,550
12.62500,549
12.63333,548
12.64167,547
12.65000,547
12.65833,547
12.66667,548
12.67500,549
12.68333,551
12.69167,555
12.70000,559
12.70833,565
12.71667,573
12.72500,582
12.73333,594
12.74167,608
12.75000,624
12.75833,643
12.76667,666
12.77500,691
12.78333,720
12.79167,752
12.80000,789
12.80833,829
12.81667,873
12.82500,922
12.83333,976
12.84167,1035
12.85000,1099
12.85833,1167
12.86667,1241
12.87500,1320
12.88333,1405
12.89167,1495
12.90000,1590
12.90833,1692
12.91667,1799
12.92500,1911
12.93333,2029
12.94167,2153
12.95000,2284
12.95833,2419
12.96667,2561
12.97500,2708
12.98333,2861
12.99167,3020
13.00000,3185
13.00833,3355
13.01667,3531
13.02500,3712
13.03333,3899
13.04167,4092
13.05000,4290
13.05833,4493
13.06667,4701
13.07500,4915
13.08333,5133
13.09167,5356
13.10000,5585
13.10833,5818
13.11667,6056
13.12500,6299
13.13333,6546
13.14167,6798
13.15000,7053
13.15833,7313
13.16667,7578
13.17500,7846
13.18333,8118
13.19167,8394
13.20000,8673
13.20833,8957
13.21667,9244
13.22500,9534
13.23333,9829
13.24167,10126
13.25000,10427
13.25833,10730
13.26667,11037
13.27500,11348
13.28333,11661
13.29167,11977
13.30000,12296
13.30833,12618
13.31667,12943
13.32500,13271
13.33333,13602
13.34167,13936
13.35000,14272
13.35833,14612
13.36667,14954
13.37500,15299
13.38333,15647
13.39167,15998
13.40000,16352
13.40833,16708
13.41667,17067
13.42500,17429
13.43333,17794
13.44167,18161
13.45000,18532
13.45833,18905
13.46667,19281
13.47500,19660
13.48333,20042
13.49167,20428
13.50000,20816
13.50833,21207
13.51667,21602
13.52500,21999
13.53333,22400
13.54167,22804
13.55000,23210
13.55833,23620
13.56667,24033
13.57500,24450
13.58333,24870
13.59167,25293
13.60000,25719
13.60833,26149
13.61667,26582
13.62500,27019
13.63333,27460
13.64167,27904
13.65000,28351
13.65833,28803
13.66667,29258
13.67500,29716
13.68333,30179
13.69167,30645
13.70000,31115
13.70833,31589
13.71667,32066
13.72500,32548
13.73333,33034
13.74167,33523
13.75000,34017
13.75833,34515
13.76667,35016
13.77500,35522
13.78333,36032
13.79167,36547
13.80000,37065
13.80833,37589
13.81667,38116
13.82500,38648
13.83333,39185
13.84167,39725
13.85000,40271
13.85833,40821
13.86667,41375
13.87500,41935
13.88333,42499
13.89167,43067
13.90000,43641
13.90833,44220
13.91667,44804
13.92500,45392
13.93333,45986
13.94167,46585
13.95000,47189
13.95833,47799
13.96667,48413
13.97500,49033
13.98333,49659
13.99167,50290
14.00000,50926
14.00833,51568
14.01667,52216
14.02500,52869
14.03333,53528
14.04167,54192
14.05000,54863
14.05833,55540
14.06667,56223
14.07500,56912
14.08333,57607
14.09167,58308
14.10000,59016
14.10833,59730
14.11667,60451
14.12500,61178
14.13333,61912
14.14167,62654
14.15000,63402
14.15833,64157
14.16667,64919
14.17500,65688
14.18333,66464
14.19167,67247
14.20000,68035
14.20833,68829
14.21667,69626
14.22500,70422
14.23333,71215
14.24167,71999
14.25000,72766
14.25833,73508
14.26667,74215
14.27500,74877
14.28333,75480
14.29167,76013
14.30000,76462
14.30833,76817
14.31667,77065
14.32500,77197
14.33333,77205
14.34167,77081
14.35000,76821
14.35833,76420
14.36667,75875
14.37500,75183
14.38333,74344
14.39167,73354
14.40000,72212
14.40833,70915
14.41667,69462
14.42500,67852
14.43333,66082
14.44167,64154
14.45000,62072
14.45833,59840
14.46667,57468
14.47500,54968
14.48333,52358
14.49167,49657
14.50000,46888
14.50833,44075
14.51667,41246
14.52500,38428
14.53333,35649
14.54167,32934
14.55000,30306
14.55833,27785
14.56667,25389
14.57500,23129
14.58333,21016
14.59167,19054
14.60000,17246
14.60833,15591
14.61667,14085
14.62500,12722
14.63333,11495
14.64167,10394
14.65000,9411
14.65833,8535
14.66667,7758
14.67500,7069
14.68333,6460
14.69167,5922
14.70000,5446
14.70833,5026
14.71667,4656
14.72500,4329
14.73333,4039
14.74167,3781
14.75000,3553
14.75833,3350
14.76667,3169
14.77500,3006
14.78333,2861
14.79167,2730
14.80000,2611
14.80833,2504
14.81667,2406
14.82500,2316
14.83333,2234
14.84167,2158
14.85000,2088
14.85833,2023
14.86667,1963
14.87500,1907
14.88333,1854
14.89167,1805
14.90000,1759
14.90833,1715
14.91667,1674
14.92500,1635
14.93333,1599
14.94167,1564
14.95000,1531
14.95833,1501
14.96667,1471
14.97500,1443
14.98333,1416
14.99167,1390
15.00000,1366
15.00833,1343
15.01667,1320
15.02500,1300
15.03333,1280
15.04167,1262
15.05000,1244
15.05833,1227
15.06667,1211
15.07500,1196
15.08333,1182
15.09167,1169
15.10000,1156
15.10833,1145
15.11667,1134
15.12500,1124
15.13333,1115
15.14167,1107
15.15000,1101
15.15833,1095
15.16667,1091
15.17500,1089
15.18333,1088
15.19167,1091
15.20000,1096
15.20833,1105
15.21667,1118
15.22500,1136
15.23333,1160
15.24167,1191
15.25000,1230
15.25833,1280
15.26667,1341
15.27500,1415
15.28333,1505
15.29167,1613
15.30000,1742
15.30833,1893
15.31667,2070
15.32500,2276
15.33333,2514
15.34167,2788
15.35000,3100
15.35833,3454
15.36667,3854
15.37500,4302
15.38333,4802
15.39167,5358
15.40000,5971
15.40833,6643
15.41667,7378
15.42500,8176
15.43333,9039
15.44167,9966
15.45000,10959
15.45833,12016
15.46667,13135
15.47500,14315
15.48333,15553
15.49167,16844
15.50000,18184
15.50833,19570
15.51667,20995
15.52500,22453
15.53333,23938
15.54167,25442
15.55000,26959
15.55833,28481
15.56667,30002
15.57500,31513
15.58333,33006
15.59167,34475
15.60000,35912
15.60833,37311
15.61667,38665
15.62500,39968
15.63333,41214
15.64167,42400
15.65000,43519
15.65833,44568
15.66667,45544
15.67500,46443
15.68333,47262
15.69167,48000
15.70000,48655
15.70833,49226
15.71667,49711
15.72500,50110
15.73333,50422
15.74167,50648
15.75000,50786
15.75833,50837
15.76667,50802
15.77500,50683
15.78333,50480
15.79167,50194
15.80000,49826
15.80833,49379
15.81667,48855
15.82500,48256
15.83333,47584
15.84167,46843
15.85000,46036
15.85833,45166
15.86667,44238
15.87500,43254
15.88333,42219
15.89167,41138
15.90000,40016
15.90833,38856
15.91667,37665
15.92500,36447
15.93333,35208
15.94167,33952
15.95000,32685
15.95833,31412
15.96667,30137
15.97500,28866
15.98333,27603
15.99167,26353
16.00000,25119
16.00833,23906
16.01667,22717
16.02500,21555
16.03333,20423
16.04167,19324
16.05000,18259
16.05833,17231
16.06667,16241
16.07500,15290
16.08333,14380
16.09167,13511
16.10000,12683
16.10833,11895
16.11667,11149
16.12500,10443
16.13333,9776
16.14167,9149
16.15000,8559
16.15833,8006
16.16667,7488
16.17500,7005
16.18333,6555
16.19167,6135
16.20000,5745
16.20833,5384
16.21667,5048
16.22500,4738
16.23333,4452
16.24167,4187
16.25000,3944
16.25833,3720
16.26667,3514
16.27500,3324
16.28333,3150
16.29167,2990
16.30000,2843
16.30833,2708
16.31667,2585
16.32500,2472
16.33333,2368
16.34167,2273
16.35000,2185
16.35833,2104
16.36667,2029
16.37500,1960
16.38333,1897
16.39167,1839
16.40000,1784
16.40833,1734
16.41667,1687
16.42500,1643
16.43333,1603
16.44167,1564
16.45000,1528
16.45833,1494
16.46667,1463
16.47500,1432
16.48333,1403
16.49167,1375
16.50000,1349
16.50833,1324
16.51667,1299
16.52500,1275
16.53333,1252
16.54167,1229
16.55000,1207
16.55833,1186
16.56667,1165
16.57500,1145
16.58333,1125
16.59167,1105
16.60000,1086
16.60833,1067
16.61667,1049
16.62500,1031
16.63333,1013
16.64167,996
16.65000,979
16.65833,963
16.66667,947
16.67500,932
16.68333,917
16.69167,902
16.70000,888
16.70833,875
16.71667,862
16.72500,849
16.73333,838
16.74167,826
16.75000,815
16.75833,804
16.76667,794
16.77500,785
16.78333,776
16.79167,768
16.80000,760
16.80833,752
16.81667,746
16.82500,740
16.83333,735
16.84167,729
16.85000,725
16.85833,720
16.86667,717
16.87500,713
16.88333,710
16.89167,707
16.90000,704
16.90833,702
16.91667,700
16.92500,698
16.93333,696
16.94167,694
16.95000,693
16.95833,692
16.96667,691
16.97500,690
16.98333,689
16.99167,688
17.00000,687
17.00833,686
17.01667,685
17.02500,685
17.03333,684
17.04167,683
17.05000,683
17.05833,682
17.06667,681
17.07500,680
17.08333,679
17.09167,679
17.10000,678
17.10833,677
17.11667,676
17.12500,675
17.13333,674
17.14167,673
17.15000,672
17.15833,671
17.16667,670
17.17500,668
17.18333,667
17.19167,666
17.20000,664
17.20833,662
17.21667,660
17.22500,658
17.23333,656
17.24167,654
17.25000,652
17.25833,650
17.26667,648
17.27500,646
17.28333,644
17.29167,642
17.30000,640
17.30833,638
17.31667,636
17.32500,634
17.33333,633
17.34167,631
17.35000,629
17.35833,627
17.36667,626
17.37500,624
17.38333,623
17.39167,623
17.40000,622
17.40833,622
17.41667,622
17.42500,622
17.43333,623
17.44167,624
17.45000,625
17.45833,627
17.46667,629
17.47500,631
17.48333,633
17.49167,636
17.50000,639
17.50833,643
17.51667,647
17.52500,650
17.53333,655
17.54167,659
17.55000,665
17.55833,670
17.56667,675
17.57500,680
17.58333,686
17.59167,691
17.60000,697
17.60833,702
17.61667,708
17.62500,714
17.63333,720
17.64167,726
17.65000,731
17.65833,737
17.66667,743
17.67500,749
17.68333,754
17.69167,759
17.70000,764
17.70833,769
17.71667,774
17.72500,779
17.73333,784
17.74167,788
17.75000,792
17.75833,796
17.76667,800
17.77500,803
17.78333,806
17.79167,809
17.80000,811
17.80833,813
17.81667,814
17.82500,816
17.83333,817
17.84167,818
17.85000,819
17.85833,819
17.86667,818
17.87500,817
17.88333,816
17.89167,815
17.90000,813
17.90833,811
17.91667,808
17.92500,805
17.93333,802
17.94167,798
17.95000,794
17.95833,789
17.96667,784
17.97500,780
17.98333,775
17.99167,769
18.00000,763
18.00833,757
18.01667,751
18.02500,744
18.03333,737
18.04167,731
18.05000,723
18.05833,716
18.06667,708
18.07500,701
18.08333,694
18.09167,686
18.10000,679
18.10833,671
18.11667,664
18.12500,656
18.13333,649
18.14167,641
18.15000,633
18.15833,625
18.16667,618
18.17500,611
18.18333,604
18.19167,598
18.20000,591
18.20833,584
18.21667,578
18.22500,572
18.23333,566
18.24167,560
18.25000,555
18.25833,550
18.26667,545
18.27500,540
18.28333,536
18.29167,532
18.30000,528
18.30833,524
18.31667,520
18.32500,517
18.33333,514
18.34167,512
18.35000,510
18.35833,508
18.36667,506
18.37500,505
18.38333,504
18.39167,503
18.40000,503
18.40833,502
18.41667,502
18.42500,502
18.43333,502
18.44167,503
18.45000,504
18.45833,506
18.46667,508
18.47500,510
18.48333,513
18.49167,515
18.50000,518
18.50833,521
18.51667,524
18.52500,527
18.53333,531
18.54167,534
18.55000,538
18.55833,542
18.56667,546
18.57500,550
18.58333,554
18.59167,558
18.60000,562
18.60833,567
18.61667,571
18.62500,576
18.63333,580
18.64167,584
18.65000,589
18.65833,594
18.66667,599
18.67500,604
18.68333,609
18.69167,614
18.70000,619
18.70833,624
18.71667,628
18.72500,633
18.73333,638
18.74167,643
18.75000,647
18.75833,652
18.76667,657
18.77500,661
18.78333,666
18.79167,670
18.80000,675
18.80833,680
18.81667,685
18.82500,689
18.83333,694
18.84167,698
18.85000,702
18.85833,706
18.86667,709
18.87500,713
18.88333,717
18.89167,721
18.90000,724
18.90833,728
18.91667,731
18.92500,734
18.93333,737
18.94167,739
18.95000,742
18.95833,745
18.96667,748
18.97500,750
18.98333,753
18.99167,755
19.00000,758
19.00833,760
19.01667,761
19.02500,763
19.03333,764
19.04167,765
19.05000,767
19.05833,767
19.06667,768
19.07500,769
19.08333,769
19.09167,769
19.10000,769
19.10833,768
19.11667,767
19.12500,766
19.13333,765
19.14167,764
19.15000,762
19.15833,760
19.16667,759
19.17500,757
19.18333,755
19.19167,752
19.20000,749
19.20833,746
19.21667,743
19.22500,739
19.23333,736
19.24167,732
19.25000,728
19.25833,724
19.26667,719
19.27500,715
19.28333,710
19.29167,706
19.30000,701
19.30833,695
19.31667,690
19.32500,684
19.33333,679
19.34167,673
19.35000,667
19.35833,662
19.36667,656
19.37500,650
19.38333,644
19.39167,638
19.40000,631
19.40833,625
19.41667,619
19.42500,612
19.43333,606
19.44167,599
19.45000,592
19.45833,585
19.46667,578
19.47500,571
19.48333,564
19.49167,558
19.50000,551
19.50833,545
19.51667,538
19.52500,531
19.53333,525
19.54167,518
19.55000,512
19.55833,506
19.56667,500
19.57500,494
19.58333,489
19.59167,483
19.60000,478
19.60833,474
19.61667,469
19.62500,464
19.63333,459
19.64167,455
19.65000,451
19.65833,447
19.66667,443
19.67500,440
19.68333,437
19.69167,434
19.70000,432
19.70833,429
19.71667,427
19.72500,426
19.73333,425
19.74167,424
19.75000,424
19.75833,424
19.76667,424
19.77500,425
19.78333,426
19.79167,428
19.80000,431
19.80833,434
19.81667,437
19.82500,442
19.83333,447
19.84167,452
19.85000,458
19.85833,465
19.86667,472
19.87500,479
19.88333,488
19.89167,497
19.90000,507
19.90833,517
19.91667,528
19.92500,540
19.93333,551
19.94167,564
19.95000,577
19.95833,590
19.96667,603
19.97500,617
19.98333,632
19.99167,647
20.00000,663
20.00833,678
20.01667,693
20.02500,708
20.03333,723
20.04167,739
20.05000,755
20.05833,770
20.06667,785
20.07500,800
20.08333,814
20.09167,829
20.10000,843
20.10833,857
20.11667,870
20.12500,884
20.13333,896
20.14167,908
20.15000,920
20.15833,931
20.16667,941
20.17500,951
20.18333,960
20.19167,969
20.20000,977
20.20833,984
20.21667,991
20.22500,997
20.23333,1003
20.24167,1007
20.25000,1011
20.25833,1015
20.26667,1017
20.27500,1019
20.28333,1021
20.29167,1022
20.30000,1021
20.30833,1020
20.31667,1018
20.32500,1016
20.33333,1013
20.34167,1010
20.35000,1006
20.35833,1002
20.36667,997
20.37500,991
20.38333,985
20.39167,979
20.40000,971
20.40833,964
20.41667,956
20.42500,947
20.43333,938
20.44167,929
20.45000,920
20.45833,911
20.46667,902
20.47500,892
20.48333,882
20.49167,872
20.50000,862
20.50833,852
20.51667,842
20.52500,832
20.53333,822
20.54167,813
20.55000,803
20.55833,794
20.56667,785
20.57500,776
20.58333,768
20.59167,759
20.60000,751
20.60833,744
20.61667,737
20.62500,730
20.63333,723
20.64167,717
20.65000,712
20.65833,706
20.66667,701
20.67500,696
20.68333,692
20.69167,688
20.70000,684
20.70833,680
20.71667,678
20.72500,675
20.73333,672
20.74167,670
20.75000,667
20.75833,665
20.76667,664
20.77500,662
20.78333,660
20.79167,659
20.80000,658
20.80833,656
20.81667,656
20.82500,655
20.83333,655
20.84167,654
20.85000,654
20.85833,653
20.86667,652
20.87500,652
20.88333,651
20.89167,650
20.90000,649
20.90833,648
20.91667,647
20.92500,646
20.93333,645
20.94167,644
20.95000,643
20.95833,642
20.96667,641
20.97500,640
20.98333,639
20.99167,638
21.00000,636
21.00833,635
21.01667,634
21.02500,632
21.03333,631
21.04167,630
21.05000,629
21.05833,628
21.06667,627
21.07500,626
21.08333,625
21.09167,624
21.10000,623
21.10833,621
21.11667,620
21.12500,619
21.13333,618
21.14167,617
21.15000,616
21.15833,615
21.16667,615
21.17500,614
21.18333,614
21.19167,613
21.20000,613
21.20833,613
21.21667,613
21.22500,612
21.23333,612
21.24167,611
21.25000,611
21.25833,611
21.26667,611
21.27500,610
21.28333,611
21.29167,611
21.30000,612
21.30833,612
21.31667,613
21.32500,613
21.33333,614
21.34167,614
21.35000,615
21.35833,617
21.36667,618
21.37500,620
21.38333,621
21.39167,623
21.40000,625
21.40833,627
21.41667,629
21.42500,632
21.43333,635
21.44167,639
21.45000,642
21.45833,646
21.46667,650
21.47500,655
21.48333,660
21.49167,665
21.50000,672
21.50833,678
21.51667,685
21.52500,692
21.53333,700
21.54167,708
21.55000,716
21.55833,725
21.56667,734
21.57500,744
21.58333,753
21.59167,763
21.60000,773
21.60833,782
21.61667,792
21.62500,802
21.63333,811
21.64167,821
21.65000,831
21.65833,840
21.66667,850
21.67500,859
21.68333,867
21.69167,876
21.70000,885
21.70833,893
21.71667,900
21.72500,907
21.73333,914
21.74167,920
21.75000,926
21.75833,931
21.76667,935
21.77500,940
21.78333,943
21.79167,947
21.80000,950
21.80833,953
21.81667,955
21.82500,957
21.83333,958
21.84167,958
21.85000,959
21.85833,959
21.86667,959
21.87500,958
21.88333,957
21.89167,955
21.90000,953
21.90833,951
21.91667,948
21.92500,944
21.93333,941
21.94167,936
21.95000,932
21.95833,927
21.96667,921
21.97500,916
21.98333,910
21.99167,903
22.00000,896
22.00833,888
22.01667,879
22.02500,871
22.03333,861
22.04167,852
22.05000,841
22.05833,831
22.06667,820
22.07500,808
22.08333,796
22.09167,784
22.10000,771
22.10833,758
22.11667,745
22.12500,732
22.13333,718
22.14167,704
22.15000,690
22.15833,676
22.16667,661
22.17500,647
22.18333,632
22.19167,618
22.20000,603
22.20833,589
22.21667,575
22.22500,561
22.23333,548
22.24167,534
22.25000,521
22.25833,509
22.26667,497
22.27500,485
22.28333,473
22.29167,461
22.30000,450
22.30833,439
22.31667,428
22.32500,418
22.33333,409
22.34167,400
22.35000,392
22.35833,384
22.36667,377
22.37500,369
22.38333,363
22.39167,356
22.40000,350
22.40833,344
22.41667,339
22.42500,334
22.43333,329
22.44167,325
22.45000,321
22.45833,317
22.46667,313
22.47500,310
22.48333,307
22.49167,304
22.50000,302
22.50833,299
22.51667,297
22.52500,295
22.53333,294
22.54167,293
22.55000,291
22.55833,290
22.56667,289
22.57500,288
22.58333,287
22.59167,287
22.60000,286
22.60833,286
22.61667,286
22.62500,286
22.63333,286
22.64167,286
22.65000,286
22.65833,286
22.66667,286
22.67500,286
22.68333,286
22.69167,286
22.70000,287
22.70833,288
22.71667,288
22.72500,288
22.73333,288
22.74167,289
22.75000,289
22.75833,290
22.76667,290
22.77500,291
22.78333,291
22.79167,292
22.80000,293
22.80833,294
22.81667,294
22.82500,295
22.83333,296
22.84167,297
22.85000,298
22.85833,299
22.86667,300
22.87500,301
22.88333,301
22.89167,302
22.90000,303
22.90833,304
22.91667,304
22.92500,305
22.93333,306
22.94167,307
22.95000,308
22.95833,308
22.96667,309
22.97500,310
22.98333,311
22.99167,312
23.00000,313
23.00833,314
23.01667,315
23.02500,315
23.03333,316
23.04167,317
23.05000,318
23.05833,318
23.06667,319
23.07500,320
23.08333,321
23.09167,322
23.10000,323
23.10833,324
23.11667,325
23.12500,325
23.13333,326
23.14167,327
23.15000,329
23.15833,330
23.16667,331
23.17500,331
23.18333,332
23.19167,332
23.20000,333
23.20833,333
23.21667,334
23.22500,335
23.23333,336
23.24167,336
23.25000,337
23.25833,338
23.26667,338
23.27500,339
23.28333,340
23.29167,340
23.30000,341
23.30833,342
23.31667,343
23.32500,344
23.33333,344
23.34167,345
23.35000,346
23.35833,347
23.36667,348
23.37500,349
23.38333,350
23.39167,351
23.40000,351
23.40833,352
23.41667,353
23.42500,353
23.43333,354
23.44167,355
23.45000,356
23.45833,357
23.46667,358
23.47500,358
23.48333,360
23.49167,360
23.50000,361
23.50833,361
23.51667,361
23.52500,362
23.53333,362
23.54167,363
23.55000,363
23.55833,364
23.56667,365
23.57500,365
23.58333,366
23.59167,366
23.60000,366
23.60833,367
23.61667,367
23.62500,368
23.63333,368
23.64167,368
23.65000,369
23.65833,369
23.66667,369
23.67500,369
23.68333,368
23.69167,368
23.70000,369
23.70833,368
23.71667,368
23.72500,368
23.73333,368
23.74167,367
23.75000,367
23.75833,368
23.76667,368
23.77500,368
23.78333,368
23.79167,368
23.80000,368
23.80833,367
23.81667,367
23.82500,367
23.83333,367
23.84167,366
23.85000,366
23.85833,366
23.86667,365
23.87500,364
23.88333,364
23.89167,363
23.90000,362
23.90833,362
23.91667,361
23.92500,361
23.93333,360
23.94167,359
23.95000,359
23.95833,358
23.96667,357
23.97500,357
23.98333,356
23.99167,356
24.00000,355
24.00833,355
24.01667,355
24.02500,355
24.03333,354
24.04167,353
24.05000,353
24.05833,352
24.06667,351
24.07500,350
24.08333,349
24.09167,348
24.10000,348
24.10833,347
24.11667,347
24.12500,346
24.13333,346
24.14167,345
24.15000,344
24.15833,344
24.16667,343
24.17500,342
24.18333,342
24.19167,342
24.20000,342
24.20833,341
24.21667,341
24.22500,341
24.23333,340
24.24167,340
24.25000,340
24.25833,340
24.26667,340
24.27500,340
24.28333,340
24.29167,340
24.30000,341
24.30833,341
24.31667,342
24.32500,343
24.33333,343
24.34167,345
24.35000,347
24.35833,349
24.36667,351
24.37500,354
24.38333,358
24.39167,362
24.40000,367
24.40833,373
24.41667,379
24.42500,386
24.43333,394
24.44167,403
24.45000,413
24.45833,424
24.46667,436
24.47500,450
24.48333,465
24.49167,482
24.50000,500
24.50833,519
24.51667,541
24.52500,564
24.53333,589
24.54167,616
24.55000,646
24.55833,677
24.56667,711
24.57500,747
24.58333,784
24.59167,824
24.60000,867
24.60833,911
24.61667,959
24.62500,1008
24.63333,1060
24.64167,1114
24.65000,1170
24.65833,1227
24.66667,1286
24.67500,1347
24.68333,1410
24.69167,1474
24.70000,1540
24.70833,1607
24.71667,1675
24.72500,1744
24.73333,1813
24.74167,1883
24.75000,1953
24.75833,2023
24.76667,2094
24.77500,2164
24.78333,2234
24.79167,2304
24.80000,2372
24.80833,2440
24.81667,2506
24.82500,2571
24.83333,2635
24.84167,2698
24.85000,2759
24.85833,2818
24.86667,2876
24.87500,2932
24.88333,2986
24.89167,3038
24.90000,3088
24.90833,3137
24.91667,3183
24.92500,3228
24.93333,3270
24.94167,3310
24.95000,3348
24.95833,3384
24.96667,3417
24.97500,3449
24.98333,3478
24.99167,3504
25.00000,3528
25.00833,3550
25.01667,3570
25.02500,3587
25.03333,3602
25.04167,3615
25.05000,3625
25.05833,3633
25.06667,3638
25.07500,3641
25.08333,3641
25.09167,3638
25.10000,3633
25.10833,3625
25.11667,3615
25.12500,3601
25.13333,3585
25.14167,3565
25.15000,3543
25.15833,3518
25.16667,3490
25.17500,3459
25.18333,3426
25.19167,3389
25.20000,3350
25.20833,3309
25.21667,3264
25.22500,3218
25.23333,3168
25.24167,3117
25.25000,3064
25.25833,3009
25.26667,2952
25.27500,2893
25.28333,2833
25.29167,2770
25.30000,2707
25.30833,2642
25.31667,2577
25.32500,2511
25.33333,2444
25.34167,2377
25.35000,2309
25.35833,2242
25.36667,2174
25.37500,2107
25.38333,2040
25.39167,1974
25.40000,1908
25.40833,1844
25.41667,1780
25.42500,1717
25.43333,1656
25.44167,1596
25.45000,1537
25.45833,1479
25.46667,1423
25.47500,1369
25.48333,1316
25.49167,1265
25.50000,1215
25.50833,1168
25.51667,1122
25.52500,1078
25.53333,1036
25.54167,995
25.55000,957
25.55833,920
25.56667,884
25.57500,851
25.58333,818
25.59167,787
25.60000,758
25.60833,730
25.61667,704
25.62500,679
25.63333,655
25.64167,633
25.65000,612
25.65833,592
25.66667,574
25.67500,556
25.68333,540
25.69167,524
25.70000,509
25.70833,495
25.71667,482
25.72500,470
25.73333,458
25.74167,447
25.75000,437
25.75833,427
25.76667,417
25.77500,409
25.78333,401
25.79167,393
25.80000,385
25.80833,377
25.81667,370
25.82500,363
25.83333,357
25.84167,351
25.85000,345
25.85833,339
25.86667,333
25.87500,328
25.88333,322
25.89167,317
25.90000,312
25.90833,307
25.91667,302
25.92500,297
25.93333,292
25.94167,287
25.95000,282
25.95833,277
25.96667,273
25.97500,268
25.98333,263
25.99167,259
26.00000,255
26.00833,251
26.01667,247
26.02500,243
26.03333,238
26.04167,234
26.05000,229
26.05833,225
26.06667,221
26.07500,217
26.08333,213
26.09167,209
26.10000,205
26.10833,201
26.11667,197
26.12500,193
26.13333,190
26.14167,186
26.15000,182
26.15833,179
26.16667,176
26.17500,173
26.18333,170
26.19167,166
26.20000,163
26.20833,160
26.21667,157
26.22500,154
26.23333,152
26.24167,149
26.25000,147
26.25833,144
26.26667,142
26.27500,140
26.28333,138
26.29167,136
26.30000,134
26.30833,132
26.31667,130
26.32500,128
26.33333,126
26.34167,125
26.35000,123
26.35833,122
26.36667,120
26.37500,119
26.38333,118
26.39167,118
26.40000,117
26.40833,116
26.41667,115
26.42500,114
26.43333,114
26.44167,113
26.45000,112
26.45833,112
26.46667,112
26.47500,111
26.48333,111
26.49167,110
26.50000,110
26.50833,110
26.51667,110
26.52500,109
26.53333,109
26.54167,109
26.55000,108
26.55833,108
26.56667,108
26.57500,108
26.58333,108
26.59167,108
26.60000,108
26.60833,109
26.61667,109
26.62500,109
26.63333,109
26.64167,109
26.65000,109
26.65833,109
26.66667,109
26.67500,109
26.68333,109
26.69167,109
26.70000,109
26.70833,109
26.71667,109
26.72500,109
26.73333,110
26.74167,110
26.75000,110
26.75833,110
26.76667,110
26.77500,110
26.78333,110
26.79167,109
26.80000,110
26.80833,110
26.81667,110
26.82500,110
26.83333,111
26.84167,111
26.85000,111
26.85833,111
26.86667,111
26.87500,111
26.88333,112
26.89167,112
26.90000,112
26.90833,112
26.91667,112
26.92500,112
26.93333,112
26.94167,112
26.95000,112
26.95833,113
26.96667,113
26.97500,113
26.98333,113
26.99167,113
27.00000,113
27.00833,113
27.01667,113
27.02500,113
27.03333,113
27.04167,113
27.05000,113
27.05833,113
27.06667,113
27.07500,114
27.08333,114
27.09167,114
27.10000,114
27.10833,114
27.11667,114
27.12500,115
27.13333,115
27.14167,115
27.15000,114
27.15833,114
27.16667,114
27.17500,114
27.18333,115
27.19167,115
27.20000,115
27.20833,115
27.21667,115
27.22500,115
27.23333,115
27.24167,114
27.25000,114
27.25833,115
27.26667,115
27.27500,116
27.28333,116
27.29167,116
27.30000,115
27.30833,115
27.31667,115
27.32500,115
27.33333,115
27.34167,115
27.35000,115
27.35833,115
27.36667,115
27.37500,114
27.38333,114
27.39167,114
27.40000,114
27.40833,114
27.41667,114
27.42500,114
27.43333,113
27.44167,113
27.45000,113
27.45833,114
27.46667,113
27.47500,113
27.48333,113
27.49167,112
27.50000,111
27.50833,110
27.51667,110
27.52500,109
27.53333,109
27.54167,108
27.55000,108
27.55833,108
27.56667,107
27.57500,107
27.58333,106
27.59167,106
27.60000,106
27.60833,105
27.61667,104
27.62500,104
27.63333,103
27.64167,102
27.65000,101
27.65833,100
27.66667,100
27.67500,99
27.68333,98
27.69167,97
27.70000,96
27.70833,95
27.71667,95
27.72500,94
27.73333,94
27.74167,93
27.75000,92
27.75833,91
27.76667,90
27.77500,89
27.78333,88
27.79167,88
27.80000,87
27.80833,87
27.81667,86
27.82500,85
27.83333,84
27.84167,84
27.85000,83
27.85833,82
27.86667,81
27.87500,81
27.88333,80
27.89167,79
27.90000,79
27.90833,79
27.91667,78
27.92500,78
27.93333,77
27.94167,77
27.95000,76
27.95833,76
27.96667,76
27.97500,75
27.98333,75
27.99167,75
28.00000,75
28.00833,75
28.01667,75
28.02500,75
28.03333,75
28.04167,74
28.05000,74
28.05833,75
28.06667,75
28.07500,75
28.08333,75
28.09167,75
28.10000,75
28.10833,75
28.11667,75
28.12500,75
28.13333,75
28.14167,75
28.15000,76
28.15833,76
28.16667,75
28.17500,76
28.18333,76
28.19167,76
28.20000,77
28.20833,77
28.21667,77
28.22500,78
28.23333,78
28.24167,79
28.25000,79
28.25833,79
28.26667,80
28.27500,80
28.28333,80
28.29167,81
28.30000,81
28.30833,82
28.31667,83
28.32500,84
28.33333,85
28.34167,86
28.35000,87
28.35833,89
28.36667,91
28.37500,93
28.38333,95
28.39167,97
28.40000,100
28.40833,103
28.41667,106
28.42500,110
28.43333,114
28.44167,118
28.45000,123
28.45833,128
28.46667,134
28.47500,141
28.48333,148
28.49167,157
28.50000,166
28.50833,175
28.51667,185
28.52500,196
28.53333,208
28.54167,221
28.55000,236
28.55833,251
28.56667,267
28.57500,285
28.58333,303
28.59167,323
28.60000,344
28.60833,366
28.61667,390
28.62500,415
28.63333,441
28.64167,469
28.65000,498
28.65833,529
28.66667,561
28.67500,595
28.68333,630
28.69167,667
28.70000,705
28.70833,744
28.71667,785
28.72500,827
28.73333,870
28.74167,915
28.75000,961
28.75833,1008
28.76667,1056
28.77500,1105
28.78333,1155
28.79167,1206
28.80000,1257
28.80833,1309
28.81667,1362
28.82500,1414
28.83333,1467
28.84167,1520
28.85000,1574
28.85833,1627
28.86667,1680
28.87500,1733
28.88333,1786
28.89167,1838
28.90000,1889
28.90833,1940
28.91667,1989
28.92500,2039
28.93333,2087
28.94167,2134
28.95000,2181
28.95833,2225
28.96667,2269
28.97500,2311
28.98333,2352
28.99167,2391
29.00000,2428
29.00833,2465
29.01667,2500
29.02500,2533
29.03333,2565
29.04167,2595
29.05000,2624
29.05833,2651
29.06667,2676
29.07500,2699
29.08333,2721
29.09167,2742
29.10000,2760
29.10833,2778
29.11667,2793
29.12500,2807
29.13333,2819
29.14167,2831
29.15000,2841
29.15833,2849
29.16667,2856
29.17500,2861
29.18333,2864
29.19167,2866
29.20000,2867
29.20833,2867
29.21667,2865
29.22500,2862
29.23333,2858
29.24167,2852
29.25000,2844
29.25833,2835
29.26667,2825
29.27500,2813
29.28333,2800
29.29167,2785
29.30000,2769
29.30833,2752
29.31667,2733
29.32500,2713
29.33333,2691
29.34167,2668
29.35000,2643
29.35833,2617
29.36667,2589
29.37500,2560
29.38333,2529
29.39167,2497
29.40000,2464
29.40833,2431
29.41667,2396
29.42500,2359
29.43333,2322
29.44167,2282
29.45000,2242
29.45833,2201
29.46667,2158
29.47500,2115
29.48333,2071
29.49167,2027
29.50000,1981
29.50833,1936
29.51667,1889
29.52500,1843
29.53333,1796
29.54167,1748
29.55000,1701
29.55833,1654
29.56667,1606
29.57500,1559
29.58333,1512
29.59167,1465
29.60000,1418
29.60833,1371
29.61667,1325
29.62500,1279
29.63333,1234
29.64167,1189
29.65000,1145
29.65833,1102
29.66667,1060
29.67500,1018
29.68333,978
29.69167,938
29.70000,900
29.70833,863
29.71667,827
29.72500,791
29.73333,756
29.74167,723
29.75000,691
29.75833,661
29.76667,631
29.77500,602
29.78333,575
29.79167,549
29.80000,523
29.80833,499
29.81667,475
29.82500,453
29.83333,431
29.84167,411
29.85000,392
29.85833,373
29.86667,356
29.87500,339
29.88333,323
29.89167,308
29.90000,294
29.90833,281
29.91667,268
29.92500,257
29.93333,245
29.94167,235
29.95000,225
29.95833,216
29.96667,207
29.97500,199
29.98333,191
29.99167,184
30.00000,178
30.00833,171
30.01667,166
30.02500,160
30.03333,155
30.04167,150
30.05000,146
30.05833,142
30.06667,138
30.07500,135
30.08333,132
30.09167,129
30.10000,126
30.10833,123
30.11667,121
30.12500,118
30.13333,116
30.14167,113
30.15000,112
30.15833,110
30.16667,109
30.17500,108
30.18333,107
30.19167,105
30.20000,104
30.20833,103
30.21667,102
30.22500,101
30.23333,101
30.24167,100
30.25000,99
30.25833,99
30.26667,98
30.27500,98
30.28333,97
30.29167,97
30.30000,97
30.30833,96
30.31667,96
30.32500,96
30.33333,95
30.34167,94
30.35000,94
30.35833,94
30.36667,94
30.37500,94
30.38333,94
30.39167,94
30.40000,94
30.40833,94
30.41667,94
30.42500,94
30.43333,95
30.44167,95
30.45000,96
30.45833,96
30.46667,97
30.47500,97
30.48333,98
30.49167,98
30.50000,99
30.50833,100
30.51667,101
30.52500,102
30.53333,103
30.54167,104
30.55000,105
30.55833,105
30.56667,106
30.57500,107
30.58333,108
30.59167,110
30.60000,111
30.60833,112
30.61667,113
30.62500,114
30.63333,116
30.64167,117
30.65000,119
30.65833,120
30.66667,122
30.67500,124
30.68333,125
30.69167,127
30.70000,129
30.70833,131
30.71667,133
30.72500,134
30.73333,136
30.74167,137
30.75000,139
30.75833,141
30.76667,143
30.77500,144
30.78333,146
30.79167,148
30.80000,150
30.80833,152
30.81667,154
30.82500,156
30.83333,157
30.84167,159
30.85000,161
30.85833,162
30.86667,163
30.87500,165
30.88333,166
30.89167,168
30.90000,170
30.90833,171
30.91667,173
30.92500,174
30.93333,176
30.94167,177
30.95000,178
30.95833,179
30.96667,180
30.97500,181
30.98333,182
30.99167,183
31.00000,184
31.00833,185
31.01667,186
31.02500,187
31.03333,188
31.04167,189
31.05000,190
31.05833,190
31.06667,190
31.07500,191
31.08333,192
31.09167,192
31.10000,193
31.10833,193
31.11667,193
31.12500,193
31.13333,194
31.14167,194
31.15000,194
31.15833,194
31.16667,194
31.17500,194
31.18333,193
31.19167,193
31.20000,193
31.20833,193
31.21667,193
31.22500,193
31.23333,193
31.24167,192
31.25000,191
31.25833,190
31.26667,189
31.27500,188
31.28333,187
31.29167,186
31.30000,185
31.30833,185
31.31667,184
31.32500,183
31.33333,182
31.34167,180
31.35000,179
31.35833,178
31.36667,177
31.37500,175
31.38333,174
31.39167,173
31.40000,171
31.40833,170
31.41667,169
31.42500,167
31.43333,166
31.44167,165
31.45000,163
31.45833,162
31.46667,161
31.47500,159
31.48333,158
31.49167,156
31.50000,155
31.50833,153
31.51667,152
31.52500,151
31.53333,149
31.54167,148
31.55000,147
31.55833,146
31.56667,145
31.57500,144
31.58333,143
31.59167,142
31.60000,141
31.60833,140
31.61667,139
31.62500,139
31.63333,138
31.64167,138
31.65000,138
31.65833,138
31.66667,138
31.67500,138
31.68333,138
31.69167,139
31.70000,140
31.70833,141
31.71667,142
31.72500,143
31.73333,143
31.74167,145
31.75000,146
31.75833,148
31.76667,151
31.77500,153
31.78333,155
31.79167,157
31.80000,160
31.80833,163
31.81667,166
31.82500,170
31.83333,173
31.84167,177
31.85000,181
31.85833,185
31.86667,190
31.87500,194
31.88333,199
31.89167,204
31.90000,209
31.90833,214
31.91667,220
31.92500,225
31.93333,231
31.94167,237
31.95000,243
31.95833,249
31.96667,255
31.97500,261
31.98333,268
31.99167,274
32.00000,281
32.00833,288
32.01667,294
32.02500,300
32.03333,307
32.04167,314
32.05000,320
32.05833,327
32.06667,334
32.07500,340
32.08333,347
32.09167,353
32.10000,360
32.10833,366
32.11667,372
32.12500,379
32.13333,385
32.14167,391
32.15000,398
32.15833,404
32.16667,409
32.17500,415
32.18333,420
32.19167,425
32.20000,431
32.20833,436
32.21667,441
32.22500,446
32.23333,451
32.24167,455
32.25000,460
32.25833,464
32.26667,468
32.27500,473
32.28333,477
32.29167,481
32.30000,484
32.30833,488
32.31667,491
32.32500,495
32.33333,498
32.34167,501
32.35000,504
32.35833,507
32.36667,510
32.37500,513
32.38333,516
32.39167,518
32.40000,520
32.40833,522
32.41667,524
32.42500,526
32.43333,528
32.44167,529
32.45000,531
32.45833,532
32.46667,533
32.47500,534
32.48333,534
32.49167,535
32.50000,535
32.50833,534
32.51667,534
32.52500,534
32.53333,534
32.54167,533
32.55000,532
32.55833,531
32.56667,529
32.57500,528
32.58333,527
32.59167,525
32.60000,524
32.60833,522
32.61667,519
32.62500,517
32.63333,514
32.64167,512
32.65000,509
32.65833,506
32.66667,503
32.67500,500
32.68333,497
32.69167,494
32.70000,490
32.70833,487
32.71667,483
32.72500,480
32.73333,477
32.74167,473
32.75000,469
32.75833,465
32.76667,462
32.77500,458
32.78333,455
32.79167,451
32.80000,447
32.80833,444
32.81667,440
32.82500,437
32.83333,434
32.84167,431
32.85000,427
32.85833,424
32.86667,421
32.87500,418
32.88333,415
32.89167,412
32.90000,410
32.90833,407
32.91667,404
32.92500,402
32.93333,400
32.94167,398
32.95000,396
32.95833,393
32.96667,391
32.97500,389
32.98333,388
32.99167,386
33.00000,385
33.00833,383
33.01667,382
33.02500,381
33.03333,380
33.04167,379
33.05000,378
33.05833,377
33.06667,376
33.07500,375
33.08333,374
33.09167,374
33.10000,373
33.10833,373
33.11667,372
33.12500,370
33.13333,370
33.14167,369
33.15000,368
33.15833,367
33.16667,367
33.17500,366
33.18333,364
33.19167,363
33.20000,362
33.20833,362
33.21667,361
33.22500,360
33.23333,359
33.24167,358
33.25000,356
33.25833,355
33.26667,353
33.27500,352
33.28333,350
33.29167,348
33.30000,347
33.30833,345
33.31667,343
33.32500,341
33.33333,339
33.34167,338
33.35000,336
33.35833,333
33.36667,331
33.37500,328
33.38333,326
33.39167,324
33.40000,321
33.40833,319
33.41667,316
33.42500,314
33.43333,311
33.44167,308
33.45000,304
33.45833,301
33.46667,299
33.47500,296
33.48333,293
33.49167,289
33.50000,286
33.50833,283
33.51667,279
33.52500,276
33.53333,272
33.54167,269
33.55000,266
33.55833,263
33.56667,259
33.57500,255
33.58333,251
33.59167,248
33.60000,244
33.60833,240
33.61667,236
33.62500,232
33.63333,229
33.64167,225
33.65000,221
33.65833,217
33.66667,213
33.67500,209
33.68333,206
33.69167,201
33.70000,198
33.70833,194
33.71667,190
33.72500,185
33.73333,181
33.74167,178
33.75000,174
33.75833,170
33.76667,166
33.77500,162
33.78333,158
33.79167,154
33.80000,151
33.80833,147
33.81667,143
33.82500,139
33.83333,136
33.84167,132
33.85000,128
33.85833,125
33.86667,121
33.87500,118
33.88333,115
33.89167,112
33.90000,109
33.90833,106
33.91667,103
33.92500,100
33.93333,97
33.94167,94
33.95000,91
33.95833,88
33.96667,85
33.97500,83
33.98333,80
33.99167,78
34.00000,75
34.00833,73
34.01667,71
34.02500,68
34.03333,66
34.04167,64
34.05000,62
34.05833,60
34.06667,58
34.07500,57
34.08333,55
34.09167,54
34.10000,52
34.10833,50
34.11667,49
34.12500,47
34.13333,46
34.14167,44
34.15000,43
34.15833,42
34.16667,40
34.17500,39
34.18333,38
34.19167,37
34.20000,37
34.20833,36
34.21667,35
34.22500,34
34.23333,33
34.24167,31
34.25000,31
34.25833,30
34.26667,29
34.27500,29
34.28333,28
34.29167,28
34.30000,27
34.30833,26
34.31667,25
34.32500,25
34.33333,24
34.34167,24
34.35000,23
34.35833,22
34.36667,22
34.37500,21
34.38333,21
34.39167,21
34.40000,20
34.40833,20
34.41667,20
34.42500,19
34.43333,19
34.44167,18
34.45000,18
34.45833,17
34.46667,16
34.47500,16
34.48333,16
34.49167,16
34.50000,16
34.50833,16
34.51667,15
34.52500,15
34.53333,15
34.54167,14
34.55000,14
34.55833,14
34.56667,13
34.57500,13
34.58333,12
34.59167,11
34.60000,11
34.60833,11
34.61667,10
34.62500,10
34.63333,10
34.64167,9
34.65000,9
34.65833,8
34.66667,8
34.67500,8
34.68333,7
34.69167,7
34.70000,6
34.70833,6
34.71667,6
34.72500,6
34.73333,5
34.74167,5
34.75000,4
34.75833,4
34.76667,4
34.77500,4
34.78333,3
34.79167,3
34.80000,3
34.80833,3
34.81667,2
34.82500,2
34.83333,2
34.84167,2
34.85000,1
34.85833,1
34.86667,1
34.87500,1
34.88333,1
34.89167,1
34.90000,0
34.90833,0
34.91667,-0
34.92500,-0
34.93333,-0
34.94167,-0
34.95000,-1
34.95833,-1
34.96667,-1
34.97500,-1
34.98333,-1
34.99167,-2
35.00000,-2
35.00833,-3
35.01667,-3
35.02500,-3
35.03333,-3
35.04167,-3
35.05000,-3
35.05833,-3
35.06667,-3
35.07500,-3
35.08333,-3
35.09167,-2
35.10000,-2
35.10833,-1
35.11667,-1
35.12500,-1
35.13333,-1
35.14167,-1
35.15000,-1
35.15833,-1
35.16667,-1
35.17500,-1
35.18333,-0
35.19167,-0
35.20000,0
35.20833,0
35.21667,0
35.22500,0
35.23333,1
35.24167,1
35.25000,1
35.25833,1
35.26667,1
35.27500,2
35.28333,2
35.29167,3
35.30000,3
35.30833,3
35.31667,3
35.32500,3
35.33333,4
35.34167,4
35.35000,5
35.35833,5
35.36667,5
35.37500,5
35.38333,5
35.39167,6
35.40000,6
35.40833,7
35.41667,7
35.42500,7
35.43333,8
35.44167,8
35.45000,9
35.45833,9
35.46667,9
35.47500,10
35.48333,10
35.49167,10
35.50000,10
35.50833,11
35.51667,11
35.52500,11
35.53333,12
35.54167,12
35.55000,12
35.55833,13
35.56667,13
35.57500,14
35.58333,14
35.59167,15
35.60000,15
35.60833,15
35.61667,15
35.62500,14
35.63333,14
35.64167,15
35.65000,15
35.65833,15
35.66667,16
35.67500,16
35.68333,16
35.69167,17
35.70000,17
35.70833,18
35.71667,18
35.72500,19
35.73333,19
35.74167,19
35.75000,19
35.75833,18
35.76667,19
35.77500,19
35.78333,20
35.79167,20
35.80000,20
35.80833,20
35.81667,20
35.82500,20
35.83333,21
35.84167,21
35.85000,21
35.85833,21
35.86667,21
35.87500,22
35.88333,22
35.89167,22
35.90000,22
35.90833,22
35.91667,22
35.92500,22
35.93333,22
35.94167,22
35.95000,22
35.95833,22
35.96667,23
35.97500,22
35.98333,22
35.99167,23
36.00000,23
36.00833,24
36.01667,24
36.02500,24
36.03333,24
36.04167,24
36.05000,24
36.05833,24
36.06667,24
36.07500,24
36.08333,24
36.09167,24
36.10000,25
36.10833,25
36.11667,25
36.12500,25
36.13333,25
36.14167,25
36.15000,25
36.15833,25
36.16667,25
36.17500,25
36.18333,25
36.19167,25
36.20000,25
36.20833,25
36.21667,25
36.22500,25
36.23333,25
36.24167,25
36.25000,25
36.25833,25
36.26667,25
36.27500,25
36.28333,25
36.29167,25
36.30000,25
36.30833,25
36.31667,25
36.32500,25
36.33333,25
36.34167,25
36.35000,25
36.35833,25
36.36667,25
36.37500,26
36.38333,26
36.39167,25
36.40000,25
36.40833,25
36.41667,25
36.42500,25
36.43333,25
36.44167,25
36.45000,25
36.45833,25
36.46667,24
36.47500,24
36.48333,24
36.49167,25
36.50000,25
36.50833,25
36.51667,25
36.52500,26
36.53333,26
36.54167,26
36.55000,26
36.55833,26
36.56667,26
36.57500,27
36.58333,27
36.59167,27
36.60000,28
36.60833,28
36.61667,28
36.62500,28
36.63333,28
36.64167,28
36.65000,28
36.65833,28
36.66667,29
36.67500,29
36.68333,29
36.69167,29
36.70000,29
36.70833,30
36.71667,30
36.72500,31
36.73333,31
36.74167,32
36.75000,33
36.75833,33
36.76667,33
36.77500,33
36.78333,34
36.79167,34
36.80000,35
36.80833,36
36.81667,36
36.82500,37
36.83333,37
36.84167,37
36.85000,38
36.85833,38
36.86667,38
36.87500,39
36.88333,40
36.89167,40
36.90000,41
36.90833,42
36.91667,42
36.92500,42
36.93333,43
36.94167,43
36.95000,44
36.95833,44
36.96667,45
36.97500,45
36.98333,46
36.99167,46
37.00000,47
37.00833,48
37.01667,48
37.02500,49
37.03333,50
37.04167,50
37.05000,51
37.05833,51
37.06667,52
37.07500,52
37.08333,53
37.09167,54
37.10000,55
37.10833,56
37.11667,56
37.12500,57
37.13333,57
37.14167,58
37.15000,59
37.15833,60
37.16667,61
37.17500,62
37.18333,63
37.19167,64
37.20000,64
37.20833,65
37.21667,65
37.22500,66
37.23333,67
37.24167,68
37.25000,69
37.25833,70
37.26667,71
37.27500,72
37.28333,73
37.29167,74
37.30000,74
37.30833,75
37.31667,76
37.32500,77
37.33333,78
37.34167,79
37.35000,80
37.35833,81
37.36667,82
37.37500,83
37.38333,83
37.39167,84
37.40000,85
37.40833,86
37.41667,86
37.42500,87
37.43333,88
37.44167,89
37.45000,90
37.45833,91
37.46667,92
37.47500,93
37.48333,94
37.49167,95
37.50000,96
37.50833,97
37.51667,97
37.52500,98
37.53333,99
37.54167,100
37.55000,101
37.55833,101
37.56667,103
37.57500,103
37.58333,103
37.59167,104
37.60000,104
37.60833,105
37.61667,106
37.62500,106
37.63333,107
37.64167,108
37.65000,108
37.65833,109
37.66667,109
37.67500,110
37.68333,111
37.69167,111
37.70000,112
37.70833,112
37.71667,113
37.72500,113
37.73333,114
37.74167,114
37.75000,114
37.75833,114
37.76667,115
37.77500,115
37.78333,115
37.79167,115
37.80000,115
37.80833,115
37.81667,115
37.82500,115
37.83333,115
37.84167,115
37.85000,115
37.85833,114
37.86667,114
37.87500,114
37.88333,113
37.89167,113
37.90000,113
37.90833,113
37.91667,112
37.92500,112
37.93333,112
37.94167,111
37.95000,111
37.95833,110
37.96667,109
37.97500,109
37.98333,108
37.99167,108
38.00000,107
38.00833,106
38.01667,106
38.02500,105
38.03333,104
38.04167,104
38.05000,103
38.05833,102
38.06667,102
38.07500,101
38.08333,99
38.09167,99
38.10000,98
38.10833,97
38.11667,96
38.12500,95
38.13333,94
38.14167,93
38.15000,92
38.15833,91
38.16667,90
38.17500,89
38.18333,88
38.19167,87
38.20000,86
38.20833,85
38.21667,83
38.22500,82
38.23333,81
38.24167,80
38.25000,79
38.25833,78
38.26667,77
38.27500,76
38.28333,74
38.29167,73
38.30000,72
38.30833,70
38.31667,69
38.32500,67
38.33333,66
38.34167,64
38.35000,63
38.35833,62
38.36667,61
38.37500,60
38.38333,58
38.39167,57
38.40000,55
38.40833,54
38.41667,53
38.42500,52
38.43333,50
38.44167,49
38.45000,48
38.45833,47
38.46667,46
38.47500,44
38.48333,43
38.49167,42
38.50000,41
38.50833,39
38.51667,38
38.52500,37
38.53333,36
38.54167,34
38.55000,33
38.55833,31
38.56667,30
38.57500,29
38.58333,28
38.59167,27
38.60000,25
38.60833,24
38.61667,23
38.62500,21
38.63333,20
38.64167,20
38.65000,18
38.65833,17
38.66667,16
38.67500,15
38.68333,13
38.69167,12
38.70000,11
38.70833,10
38.71667,9
38.72500,8
38.73333,8
38.74167,7
38.75000,6
38.75833,5
38.76667,4
38.77500,3
38.78333,3
38.79167,2
38.80000,1
38.80833,-0
38.81667,-1
38.82500,-2
38.83333,-2
38.84167,-3
38.85000,-3
38.85833,-3
38.86667,-4
38.87500,-5
38.88333,-6
38.89167,-7
38.90000,-7
38.90833,-8
38.91667,-9
38.92500,-10
38.93333,-10
38.94167,-11
38.95000,-11
38.95833,-11
38.96667,-11
38.97500,-12
38.98333,-12
38.99167,-13
39.00000,-13
39.00833,-14
39.01667,-14
39.02500,-15
39.03333,-15
39.04167,-15
39.05000,-15
39.05833,-16
39.06667,-16
39.07500,-17
39.08333,-17
39.09167,-17
39.10000,-18
39.10833,-18
39.11667,-18
39.12500,-18
39.13333,-18
39.14167,-18
39.15000,-18
39.15833,-18
39.16667,-18
39.17500,-18
39.18333,-19
39.19167,-19
39.20000,-19
39.20833,-19
39.21667,-19
39.22500,-19
39.23333,-19
39.24167,-19
39.25000,-19
39.25833,-20
39.26667,-20
39.27500,-20
39.28333,-20
39.29167,-20
39.30000,-20
39.30833,-21
39.31667,-21
39.32500,-21
39.33333,-21
39.34167,-21
39.35000,-21
39.35833,-21
39.36667,-21
39.37500,-21
39.38333,-21
39.39167,-21
39.40000,-21
39.40833,-20
39.41667,-20
39.42500,-20
39.43333,-20
39.44167,-20
39.45000,-20
39.45833,-20
39.46667,-20
39.47500,-20
39.48333,-20
39.49167,-20
39.50000,-20
39.50833,-20
39.51667,-20
39.52500,-20
39.53333,-20
39.54167,-20
39.55000,-20
39.55833,-20
39.56667,-20
39.57500,-20
39.58333,-19
39.59167,-19
39.60000,-19
39.60833,-19
39.61667,-19
39.62500,-19
39.63333,-19
39.64167,-19
39.65000,-19
39.65833,-19
39.66667,-19
39.67500,-20
39.68333,-20
39.69167,-20
39.70000,-20
39.70833,-20
39.71667,-20
39.72500,-20
39.73333,-20
39.74167,-20
39.75000,-20
39.75833,-20
39.76667,-20
39.77500,-20
39.78333,-20
39.79167,-20
39.80000,-20
39.80833,-20
39.81667,-20
39.82500,-20
39.83333,-20
39.84167,-20
39.85000,-20
39.85833,-20
39.86667,-20
39.87500,-20
39.88333,-19
39.89167,-20
39.90000,-20
39.90833,-20
39.91667,-20
39.92500,-20
39.93333,-20
39.94167,-20
39.95000,-20
39.95833,-20
39.96667,-20
39.97500,-20
39.98333,-21
39.99167,-21
40.00000,-20
40.00833,-21
40.01667,-21
40.02500,-21
40.03333,-21
40.04167,-20
40.05000,-20
40.05833,-20
40.06667,-20
40.07500,-20
40.08333,-20
40.09167,-21
40.10000,-20
40.10833,-20
40.11667,-20
40.12500,-20
40.13333,-20
40.14167,-20
40.15000,-20
40.15833,-20
40.16667,-20
40.17500,-20
40.18333,-20
40.19167,-19
40.20000,-19
40.20833,-19
40.21667,-19
40.22500,-19
40.23333,-19
40.24167,-19
40.25000,-19
40.25833,-19
40.26667,-19
40.27500,-19
40.28333,-19
40.29167,-19
40.30000,-18
40.30833,-18
40.31667,-18
40.32500,-18
40.33333,-18
40.34167,-18
40.35000,-18
40.35833,-18
40.36667,-18
40.37500,-17
40.38333,-17
40.39167,-17
40.40000,-17
40.40833,-16
40.41667,-16
40.42500,-16
40.43333,-15
40.44167,-14
40.45000,-13
40.45833,-13
40.46667,-12
40.47500,-12
40.48333,-12
40.49167,-12
40.50000,-12
40.50833,-12
40.51667,-11
40.52500,-11
40.53333,-11
40.54167,-11
40.55000,-10
40.55833,-10
40.56667,-9
40.57500,-8
40.58333,-8
40.59167,-7
40.60000,-6
40.60833,-5
40.61667,-5
40.62500,-5
40.63333,-4
40.64167,-4
40.65000,-3
40.65833,-3
40.66667,-3
40.67500,-2
40.68333,-1
40.69167,-0
40.70000,1
40.70833,2
40.71667,3
40.72500,4
40.73333,5
40.74167,5
40.75000,6
40.75833,7
40.76667,8
40.77500,9
40.78333,10
40.79167,10
40.80000,11
40.80833,12
40.81667,14
40.82500,15
40.83333,16
40.84167,17
40.85000,18
40.85833,19
40.86667,20
40.87500,21
40.88333,22
40.89167,23
40.90000,24
40.90833,25
40.91667,26
40.92500,27
40.93333,28
40.94167,30
40.95000,31
40.95833,32
40.96667,34
40.97500,35
40.98333,36
40.99167,37
41.00000,38
41.00833,39
41.01667,40
41.02500,41
41.03333,42
41.04167,44
41.05000,45
41.05833,47
41.06667,48
41.07500,50
41.08333,51
41.09167,52
41.10000,54
41.10833,55
41.11667,56
41.12500,57
41.13333,58
41.14167,59
41.15000,60
41.15833,62
41.16667,63
41.17500,65
41.18333,66
41.19167,68
41.20000,69
41.20833,70
41.21667,72
41.22500,73
41.23333,74
41.24167,76
41.25000,77
41.25833,78
41.26667,80
41.27500,81
41.28333,83
41.29167,84
41.30000,85
41.30833,87
41.31667,88
41.32500,89
41.33333,90
41.34167,92
41.35000,93
41.35833,95
41.36667,96
41.37500,98
41.38333,99
41.39167,101
41.40000,102
41.40833,104
41.41667,105
41.42500,107
41.43333,108
41.44167,110
41.45000,111
41.45833,112
41.46667,114
41.47500,115
41.48333,117
41.49167,118
41.50000,119
41.50833,120
41.51667,121
41.52500,122
41.53333,124
41.54167,125
41.55000,126
41.55833,127
41.56667,128
41.57500,129
41.58333,130
41.59167,132
41.60000,133
41.60833,134
41.61667,136
41.62500,137
41.63333,138
41.64167,139
41.65000,140
41.65833,141
41.66667,142
41.67500,143
41.68333,144
41.69167,145
41.70000,146
41.70833,147
41.71667,148
41.72500,149
41.73333,150
41.74167,151
41.75000,152
41.75833,153
41.76667,154
41.77500,155
41.78333,156
41.79167,157
41.80000,157
41.80833,158
41.81667,158
41.82500,159
41.83333,160
41.84167,160
41.85000,161
41.85833,161
41.86667,161
41.87500,162
41.88333,162
41.89167,163
41.90000,163
41.90833,164
41.91667,165
41.92500,165
41.93333,165
41.94167,166
41.95000,166
41.95833,167
41.96667,167
41.97500,167
41.98333,167
41.99167,167
42.00000,167
42.00833,167
42.01667,168
42.02500,168
42.03333,168
42.04167,169
42.05000,169
42.05833,169
42.06667,169
42.07500,169
42.08333,169
42.09167,169
42.10000,169
42.10833,169
42.11667,169
42.12500,169
42.13333,169
42.14167,169
42.15000,170
42.15833,170
42.16667,170
42.17500,169
42.18333,169
42.19167,169
42.20000,168
42.20833,168
42.21667,168
42.22500,168
42.23333,168
42.24167,167
42.25000,167
42.25833,167
42.26667,166
42.27500,167
42.28333,167
42.29167,167
42.30000,167
42.30833,166
42.31667,166
42.32500,165
42.33333,165
42.34167,164
42.35000,164
42.35833,164
42.36667,163
42.37500,163
42.38333,162
42.39167,162
42.40000,162
42.40833,161
42.41667,161
42.42500,160
42.43333,160
42.44167,159
42.45000,159
42.45833,159
42.46667,158
42.47500,158
42.48333,158
42.49167,158
42.50000,157
42.50833,156
42.51667,156
42.52500,155
42.53333,154
42.54167,153
42.55000,153
42.55833,152
42.56667,152
42.57500,151
42.58333,151
42.59167,150
42.60000,149
42.60833,149
42.61667,148
42.62500,147
42.63333,146
42.64167,145
42.65000,144
42.65833,144
42.66667,143
42.67500,142
42.68333,141
42.69167,140
42.70000,139
42.70833,138
42.71667,138
42.72500,137
42.73333,137
42.74167,136
42.75000,135
42.75833,134
42.76667,134
42.77500,133
42.78333,132
42.79167,131
42.80000,130
42.80833,129
42.81667,128
42.82500,128
42.83333,127
42.84167,126
42.85000,125
42.85833,124
42.86667,123
42.87500,123
42.88333,122
42.89167,121
42.90000,120
42.90833,119
42.91667,118
42.92500,117
42.93333,116
42.94167,116
42.95000,115
42.95833,114
42.96667,114
42.97500,113
42.98333,113
42.99167,112
43.00000,111
43.00833,109
43.01667,108
43.02500,107
43.03333,106
43.04167,105
43.05000,104
43.05833,103
43.06667,102
43.07500,102
43.08333,101
43.09167,101
43.10000,100
43.10833,99
43.11667,98
43.12500,97
43.13333,96
43.14167,95
43.15000,94
43.15833,93
43.16667,92
43.17500,92
43.18333,91
43.19167,90
43.20000,89
43.20833,88
43.21667,87
43.22500,87
43.23333,86
43.24167,85
43.25000,84
43.25833,83
43.26667,83
43.27500,82
43.28333,82
43.29167,81
43.30000,80
43.30833,80
43.31667,79
43.32500,78
43.33333,77
43.34167,77
43.35000,76
43.35833,75
43.36667,75
43.37500,74
43.38333,73
43.39167,72
43.40000,71
43.40833,70
43.41667,69
43.42500,68
43.43333,67
43.44167,67
43.45000,66
43.45833,66
43.46667,65
43.47500,65
43.48333,64
43.49167,63
43.50000,62
43.50833,61
43.51667,60
43.52500,59
43.53333,59
43.54167,58
43.55000,57
43.55833,56
43.56667,56
43.57500,55
43.58333,54
43.59167,53
43.60000,53
43.60833,52
43.61667,52
43.62500,51
43.63333,51
43.64167,50
43.65000,49
43.65833,48
43.66667,47
43.67500,46
43.68333,46
43.69167,45
43.70000,44
43.70833,43
43.71667,43
43.72500,42
43.73333,41
43.74167,40
43.75000,40
43.75833,39
43.76667,39
43.77500,38
43.78333,38
43.79167,37
43.80000,36
43.80833,36
43.81667,36
43.82500,35
43.83333,35
43.84167,34
43.85000,34
43.85833,33
43.86667,32
43.87500,31
43.88333,30
43.89167,29
43.90000,28
43.90833,27
43.91667,27
43.92500,27
43.93333,26
43.94167,26
43.95000,25
43.95833,24
43.96667,24
43.97500,24
43.98333,23
43.99167,22
44.00000,22
44.00833,21
44.01667,21
44.02500,20
44.03333,20
44.04167,19
44.05000,19
44.05833,18
44.06667,18
44.07500,17
44.08333,16
44.09167,15
44.10000,15
44.10833,14
44.11667,14
44.12500,13
44.13333,13
44.14167,12
44.15000,12
44.15833,12
44.16667,11
44.17500,11
44.18333,10
44.19167,9
44.20000,8
44.20833,8
44.21667,7
44.22500,7
44.23333,7
44.24167,6
44.25000,6
44.25833,5
44.26667,5
44.27500,4
44.28333,4
44.29167,3
44.30000,3
44.30833,2
44.31667,2
44.32500,1
44.33333,1
44.34167,1
44.35000,1
44.35833,1
44.36667,0
44.37500,0
44.38333,-0
44.39167,-1
44.40000,-2
44.40833,-2
44.41667,-3
44.42500,-4
44.43333,-4
44.44167,-4
44.45000,-5
44.45833,-5
44.46667,-5
44.47500,-5
44.48333,-6
44.49167,-6
44.50000,-7
44.50833,-8
44.51667,-8
44.52500,-8
44.53333,-8
44.54167,-8
44.55000,-9
44.55833,-9
44.56667,-9
44.57500,-9
44.58333,-10
44.59167,-10
44.60000,-11
44.60833,-11
44.61667,-12
44.62500,-12
44.63333,-12
44.64167,-13
44.65000,-13
44.65833,-13
44.66667,-13
44.67500,-13
44.68333,-14
44.69167,-14
44.70000,-14
44.70833,-15
44.71667,-15
44.72500,-16
44.73333,-16
44.74167,-17
44.75000,-17
44.75833,-17
44.76667,-17
44.77500,-18
44.78333,-18
44.79167,-18
44.80000,-18
44.80833,-18
44.81667,-18
44.82500,-18
44.83333,-18
44.84167,-18
44.85000,-18
44.85833,-19
44.86667,-19
44.87500,-19
44.88333,-19
44.89167,-19
44.90000,-20
44.90833,-20
44.91667,-21
44.92500,-21
44.93333,-21
44.94167,-21
44.95000,-21
44.95833,-21
44.96667,-21
44.97500,-22
44.98333,-22
44.99167,-22
45.00000,-22
45.00833,-22
45.01667,-22
45.02500,-22
45.03333,-23
45.04167,-23
45.05000,-23
45.05833,-23
45.06667,-23
45.07500,-23
45.08333,-23
45.09167,-23
45.10000,-23
45.10833,-23
45.11667,-23
45.12500,-23
45.13333,-24
45.14167,-24
45.15000,-24
45.15833,-24
45.16667,-24
45.17500,-24
45.18333,-24
45.19167,-24
45.20000,-24
45.20833,-24
45.21667,-25
45.22500,-24
45.23333,-24
45.24167,-24
45.25000,-24
45.25833,-24
45.26667,-24
45.27500,-24
45.28333,-24
45.29167,-24
45.30000,-24
45.30833,-24
45.31667,-24
45.32500,-24
45.33333,-24
45.34167,-24
45.35000,-24
45.35833,-24
45.36667,-24
45.37500,-24
45.38333,-24
45.39167,-24
45.40000,-24
45.40833,-24
45.41667,-24
45.42500,-24
45.43333,-24
45.44167,-24
45.45000,-24
45.45833,-24
45.46667,-24
45.47500,-24
45.48333,-23
45.49167,-24
45.50000,-24
45.50833,-24
45.51667,-24
45.52500,-24
45.53333,-25
45.54167,-25
45.55000,-24
45.55833,-24
45.56667,-24
45.57500,-24
45.58333,-24
45.59167,-25
45.60000,-25
45.60833,-25
45.61667,-25
45.62500,-26
45.63333,-26
45.64167,-27
45.65000,-27
45.65833,-26
45.66667,-26
45.67500,-26
45.68333,-26
45.69167,-26
45.70000,-26
45.70833,-26
45.71667,-26
45.72500,-26
45.73333,-26
45.74167,-26
45.75000,-26
45.75833,-26
45.76667,-26
45.77500,-26
45.78333,-27
45.79167,-27
45.80000,-27
45.80833,-27
45.81667,-27
45.82500,-28
45.83333,-28
45.84167,-28
45.85000,-27
45.85833,-27
45.86667,-27
45.87500,-28
45.88333,-28
45.89167,-28
45.90000,-28
45.90833,-28
45.91667,-28
45.92500,-28
45.93333,-28
45.94167,-29
45.95000,-29
45.95833,-29
45.96667,-29
45.97500,-29
45.98333,-29
45.99167,-29
46.00000,-28
46.00833,-29
46.01667,-29
46.02500,-29
46.03333,-30
46.04167,-30
46.05000,-30
46.05833,-30
46.06667,-30
46.07500,-31
46.08333,-31
46.09167,-31
46.10000,-31
46.10833,-32
46.11667,-32
46.12500,-32
46.13333,-32
46.14167,-32
46.15000,-33
46.15833,-33
46.16667,-33
46.17500,-33
46.18333,-33
46.19167,-34
46.20000,-34
46.20833,-34
46.21667,-34
46.22500,-34
46.23333,-34
46.24167,-34
46.25000,-34
46.25833,-34
46.26667,-34
46.27500,-34
46.28333,-34
46.29167,-35
46.30000,-35
46.30833,-36
46.31667,-36
46.32500,-36
46.33333,-37
46.34167,-37
46.35000,-38
46.35833,-38
46.36667,-38
46.37500,-39
46.38333,-39
46.39167,-39
46.40000,-40
46.40833,-40
46.41667,-40
46.42500,-40
46.43333,-40
46.44167,-40
46.45000,-40
46.45833,-41
46.46667,-41
46.47500,-42
46.48333,-42
46.49167,-42
46.50000,-43
46.50833,-43
46.51667,-43
46.52500,-43
46.53333,-43
46.54167,-43
46.55000,-43
46.55833,-43
46.56667,-44
46.57500,-45
46.58333,-45
46.59167,-45
46.60000,-45
46.60833,-45
46.61667,-45
46.62500,-45
46.63333,-46
46.64167,-46
46.65000,-46
46.65833,-45
46.66667,-45
46.67500,-46
46.68333,-46
46.69167,-47
46.70000,-47
46.70833,-47
46.71667,-47
46.72500,-47
46.73333,-47
46.74167,-47
46.75000,-47
46.75833,-47
46.76667,-47
46.77500,-48
46.78333,-48
46.79167,-48
46.80000,-48
46.80833,-48
46.81667,-49
46.82500,-49
46.83333,-49
46.84167,-49
46.85000,-50
46.85833,-50
46.86667,-50
46.87500,-50
46.88333,-50
46.89167,-50
46.90000,-50
46.90833,-51
46.91667,-51
46.92500,-51
46.93333,-51
46.94167,-51
46.95000,-51
46.95833,-51
46.96667,-51
46.97500,-51
46.98333,-51
46.99167,-51
47.00000,-51
47.00833,-51
47.01667,-50
47.02500,-50
47.03333,-51
47.04167,-51
47.05000,-50
47.05833,-50
47.06667,-50
47.07500,-50
47.08333,-49
47.09167,-49
47.10000,-49
47.10833,-48
47.11667,-48
47.12500,-48
47.13333,-48
47.14167,-48
47.15000,-48
47.15833,-48
47.16667,-48
47.17500,-48
47.18333,-48
47.19167,-48
47.20000,-47
47.20833,-47
47.21667,-47
47.22500,-46
47.23333,-46
47.24167,-46
47.25000,-45
47.25833,-45
47.26667,-45
47.27500,-44
47.28333,-44
47.29167,-43
47.30000,-43
47.30833,-42
47.31667,-42
47.32500,-41
47.33333,-41
47.34167,-41
47.35000,-40
47.35833,-39
47.36667,-39
47.37500,-39
47.38333,-38
47.39167,-38
47.40000,-37
47.40833,-37
47.41667,-36
47.42500,-35
47.43333,-35
47.44167,-34
47.45000,-33
47.45833,-33
47.46667,-32
47.47500,-31
47.48333,-30
47.49167,-29
47.50000,-28
47.50833,-28
47.51667,-27
47.52500,-26
47.53333,-25
47.54167,-25
47.55000,-24
47.55833,-24
47.56667,-23
47.57500,-22
47.58333,-21
47.59167,-20
47.60000,-19
47.60833,-18
47.61667,-18
47.62500,-17
47.63333,-17
47.64167,-16
47.65000,-15
47.65833,-14
47.66667,-13
47.67500,-12
47.68333,-11
47.69167,-10
47.70000,-9
47.70833,-9
47.71667,-8
47.72500,-7
47.73333,-6
47.74167,-6
47.75000,-4
47.75833,-4
47.76667,-3
47.77500,-2
47.78333,-1
47.79167,-0
47.80000,0
47.80833,1
47.81667,2
47.82500,3
47.83333,3
47.84167,4
47.85000,4
47.85833,5
47.86667,6
47.87500,6
47.88333,7
47.89167,8
47.90000,9
47.90833,9
47.91667,10
47.92500,10
47.93333,11
47.94167,11
47.95000,12
47.95833,13
47.96667,13
47.97500,14
47.98333,14
47.99167,15
48.00000,16
48.00833,17
48.01667,18
48.02500,18
48.03333,19
48.04167,19
48.05000,20
48.05833,20
48.06667,20
48.07500,20
48.08333,21
48.09167,21
48.10000,22
48.10833,22
48.11667,23
48.12500,23
48.13333,23
48.14167,23
48.15000,24
48.15833,24
48.16667,25
48.17500,25
48.18333,26
48.19167,26
48.20000,26
48.20833,26
48.21667,26
48.22500,27
48.23333,27
48.24167,28
48.25000,28
48.25833,29
48.26667,29
48.27500,29
48.28333,29
48.29167,29
48.30000,30
48.30833,30
48.31667,30
48.32500,31
48.33333,31
48.34167,31
48.35000,31
48.35833,31
48.36667,31
48.37500,32
48.38333,31
48.39167,31
48.40000,31
48.40833,31
48.41667,32
48.42500,32
48.43333,32
48.44167,32
48.45000,33
48.45833,33
48.46667,33
48.47500,33
48.48333,33
48.49167,33
48.50000,33
48.50833,33
48.51667,33
48.52500,33
48.53333,32
48.54167,33
48.55000,33
48.55833,33
48.56667,33
48.57500,33
48.58333,33
48.59167,34
48.60000,33
48.60833,34
48.61667,34
48.62500,34
48.63333,34
48.64167,34
48.65000,34
48.65833,33
48.66667,33
48.67500,33
48.68333,33
48.69167,33
48.70000,34
48.70833,34
48.71667,34
48.72500,34
48.73333,34
48.74167,33
48.75000,33
48.75833,33
48.76667,33
48.77500,34
48.78333,34
48.79167,33
48.80000,33
48.80833,34
48.81667,34
48.82500,34
48.83333,34
48.84167,34
48.85000,34
48.85833,34
48.86667,34
48.87500,34
48.88333,34
48.89167,34
48.90000,34
48.90833,34
48.91667,34
48.92500,34
48.93333,34
48.94167,33
48.95000,33
48.95833,34
48.96667,34
48.97500,34
48.98333,35
48.99167,35
49.00000,35
49.00833,35
49.01667,35
49.02500,35
49.03333,35
49.04167,34
49.05000,34
49.05833,34
49.06667,34
49.07500,34
49.08333,34
49.09167,34
49.10000,34
49.10833,34
49.11667,34
49.12500,35
49.13333,34
49.14167,34
49.15000,34
49.15833,34
49.16667,34
49.17500,35
49.18333,35
49.19167,35
49.20000,34
49.20833,34
49.21667,34
49.22500,34
49.23333,34
49.24167,33
49.25000,33
49.25833,33
49.26667,33
49.27500,33
49.28333,33
49.29167,33
49.30000,33
49.30833,33
49.31667,33
49.32500,33
49.33333,34
49.34167,33
49.35000,33
49.35833,33
49.36667,33
49.37500,32
49.38333,32
49.39167,32
49.40000,32
49.40833,32
49.41667,32
49.42500,31
49.43333,31
49.44167,31
49.45000,30
49.45833,30
49.46667,30
49.47500,30
49.48333,30
49.49167,29
49.50000,29
49.50833,29
49.51667,29
49.52500,29
49.53333,28
49.54167,28
49.55000,28
49.55833,28
49.56667,27
49.57500,27
49.58333,27
49.59167,26
49.60000,26
49.60833,26
49.61667,25
49.62500,25
49.63333,25
49.64167,25
49.65000,24
49.65833,24
49.66667,24
49.67500,24
49.68333,23
49.69167,22
49.70000,22
49.70833,22
49.71667,21
49.72500,21
49.73333,21
49.74167,20
49.75000,19
49.75833,19
49.76667,18
49.77500,18
49.78333,17
49.79167,17
49.80000,16
49.80833,16
49.81667,15
49.82500,15
49.83333,15
49.84167,14
49.85000,14
49.85833,13
49.86667,12
49.87500,11
49.88333,10
49.89167,9
49.90000,8
49.90833,8
49.91667,7
49.92500,6
49.93333,6
49.94167,5
49.95000,5
49.95833,4
49.96667,4
49.97500,3
49.98333,2
49.99167,1
50.00000,-0

