[Header]
Application Name,LabSolutions
Version,5.97 SP1
Data File Name,C:\Users\cremerlab\Desktop\Richa\Sep_6th_2022_re-run_Sep2nd\Sep 6th_962022_003_004.lcd
Output Date,9/6/2022
Output Time,7:43:01 PM

[File Information]
Type,Data File
Generated,9/6/2022 6:52:42 PM
Generated by,System Administrator
Modified,9/6/2022 7:43:01 PM
Modified by,System Administrator

[Sample Information]
Operator Name,System Administrator
Acquired,9/6/2022 6:53:00 PM
Sample Type,0:Unknown
Level,0
Sample Name,090622_B.fragilis_3
Sample ID,003
ISTD Amount1,1
ISTD Amount2,1
ISTD Amount3,1
ISTD Amount4,1
ISTD Amount5,1
ISTD Amount6,1
ISTD Amount7,1
ISTD Amount8,1
ISTD Amount9,1
ISTD Amount10,1
ISTD Amount11,1
ISTD Amount12,1
ISTD Amount13,1
ISTD Amount14,1
ISTD Amount15,1
ISTD Amount16,1
ISTD Amount17,1
ISTD Amount18,1
ISTD Amount19,1
ISTD Amount20,1
ISTD Amount21,1
ISTD Amount22,1
ISTD Amount23,1
ISTD Amount24,1
ISTD Amount25,1
ISTD Amount26,1
ISTD Amount27,1
ISTD Amount28,1
ISTD Amount29,1
ISTD Amount30,1
ISTD Amount31,1
ISTD Amount32,1
Sample Amount,1
Dilution Factor,1
Vial#,3
Injection Volume,20

[Original Files]
Data File,C:\Users\cremerlab\Desktop\Richa\Sep_6th_2022_re-run_Sep2nd\Sep 6th_962022_003_004.lcd
Method File,C:\Users\cremerlab\Desktop\Richa\acetate_excretion.lcm
Batch File,C:\Users\cremerlab\Desktop\Richa\Sep_6th_2022_re-run_Sep2nd\Sep 6th.lcb
Report Format File,c:\LabSolutions\System\DEFAULT.lsr

[File Description]


[Configuration]
Instrument Name,HPLC-PC-Instrument1
Instrument #,1
Line #,1
# of Detectors,2
Detector ID,Detector A,Detector B
Detector Name,Detector A,Detector B
# of Channels,1,1

[Peak Table(Detector A)]
# of Peaks,0

[Peak Table(Detector B)]
# of Peaks,13
Peak#,R.Time,I.Time,F.Time,Area,Height,A/H,Conc.,Mark,ID#,Name,k',Plate #,Plate Ht.,Tailing,Resolution,Sep.Factor,Area Ratio,Height Ratio,Conc. %,Norm Conc.
1,10.472,10.258,10.508,1492,198,7.541,0.000,   ,,,0.000,8968,16.726,0.000,0.000,0.000,0,0,0.000,0.000
2,11.017,10.508,12.317,2263393,115784,19.548,0.000, V ,,,0.052,7522,19.941,0.967,1.147,0.000,0,0,0.000,0.000
3,14.326,12.650,15.175,3585039,76680,46.753,0.000,   ,,,0.368,2480,60.496,0.655,3.989,7.070,0,0,0.000,0.000
4,15.755,15.175,18.408,1432219,48632,29.450,0.000,SV ,,,0.504,6905,21.724,1.145,1.497,1.371,0,0,0.000,0.000
5,17.859,17.400,18.383,7547,255,29.567,0.000,T  ,,,0.705,7752,19.349,1.059,2.680,1.398,0,0,0.000,0.000
6,19.122,18.433,19.758,11892,288,41.237,0.000,   ,,,0.826,4418,33.954,0.949,1.288,1.171,0,0,0.000,0.000
7,20.291,19.758,20.642,19734,591,33.399,0.000,   ,,,0.938,4847,30.945,0.000,1.009,1.135,0,0,0.000,0.000
8,21.017,20.642,21.150,14879,527,28.208,0.000, V ,,,1.007,0,0.000,0.000,0.000,1.074,0,0,0.000,0.000
9,21.716,21.150,22.583,41643,782,53.281,0.000, V ,,,1.074,1079,139.014,0.000,0.000,1.066,0,0,0.000,0.000
10,23.165,22.642,23.700,3848,115,33.554,0.000,   ,,,1.212,10800,13.889,1.010,0.820,1.129,0,0,0.000,0.000
11,25.076,24.300,26.417,148219,3593,41.248,0.000,   ,,,1.395,8995,16.676,1.160,1.961,1.151,0,0,0.000,0.000
12,29.199,28.342,30.300,130969,2814,46.537,0.000,   ,,,1.788,9247,16.222,1.067,3.629,1.282,0,0,0.000,0.000
13,32.488,31.700,34.258,32493,432,75.212,0.000,   ,,,2.102,2462,60.925,1.561,1.716,1.176,0,0,0.000,0.000

[LC Chromatogram(Detector B-Ch1)]
Interval(msec),500
# of Points,6001
Start Time(min),0.000
End Time(min),50.000
Intensity Units,mV
Intensity Multiplier,0.001
R.Time (min),Intensity
0.00000,-25
0.00833,-25
0.01667,-2
0.02500,-1
0.03333,-2
0.04167,-3
0.05000,-4
0.05833,-4
0.06667,-5
0.07500,-5
0.08333,-6
0.09167,-6
0.10000,-7
0.10833,-8
0.11667,-8
0.12500,-9
0.13333,-10
0.14167,-10
0.15000,-11
0.15833,-11
0.16667,-12
0.17500,-12
0.18333,-12
0.19167,-13
0.20000,-13
0.20833,-14
0.21667,-14
0.22500,-15
0.23333,-16
0.24167,-16
0.25000,-16
0.25833,-17
0.26667,-17
0.27500,-18
0.28333,-18
0.29167,-18
0.30000,-18
0.30833,-18
0.31667,-18
0.32500,-19
0.33333,-20
0.34167,-21
0.35000,-21
0.35833,-21
0.36667,-22
0.37500,-22
0.38333,-22
0.39167,-22
0.40000,-22
0.40833,-23
0.41667,-23
0.42500,-23
0.43333,-23
0.44167,-23
0.45000,-23
0.45833,-24
0.46667,-24
0.47500,-24
0.48333,-25
0.49167,-25
0.50000,-25
0.50833,-25
0.51667,-25
0.52500,-25
0.53333,-25
0.54167,-25
0.55000,-26
0.55833,-26
0.56667,-27
0.57500,-27
0.58333,-27
0.59167,-27
0.60000,-27
0.60833,-27
0.61667,-27
0.62500,-27
0.63333,-27
0.64167,-27
0.65000,-28
0.65833,-28
0.66667,-28
0.67500,-28
0.68333,-28
0.69167,-29
0.70000,-29
0.70833,-29
0.71667,-29
0.72500,-29
0.73333,-30
0.74167,-30
0.75000,-30
0.75833,-30
0.76667,-30
0.77500,-30
0.78333,-30
0.79167,-29
0.80000,-29
0.80833,-29
0.81667,-29
0.82500,-29
0.83333,-29
0.84167,-28
0.85000,-28
0.85833,-28
0.86667,-28
0.87500,-28
0.88333,-28
0.89167,-28
0.90000,-28
0.90833,-28
0.91667,-28
0.92500,-28
0.93333,-28
0.94167,-28
0.95000,-28
0.95833,-28
0.96667,-27
0.97500,-27
0.98333,-27
0.99167,-26
1.00000,-27
1.00833,-27
1.01667,-27
1.02500,-27
1.03333,-27
1.04167,-26
1.05000,-26
1.05833,-26
1.06667,-26
1.07500,-25
1.08333,-25
1.09167,-25
1.10000,-25
1.10833,-24
1.11667,-24
1.12500,-24
1.13333,-24
1.14167,-24
1.15000,-23
1.15833,-23
1.16667,-23
1.17500,-24
1.18333,-24
1.19167,-24
1.20000,-23
1.20833,-23
1.21667,-24
1.22500,-24
1.23333,-23
1.24167,-23
1.25000,-22
1.25833,-22
1.26667,-22
1.27500,-21
1.28333,-21
1.29167,-21
1.30000,-21
1.30833,-21
1.31667,-21
1.32500,-20
1.33333,-20
1.34167,-20
1.35000,-20
1.35833,-20
1.36667,-20
1.37500,-20
1.38333,-19
1.39167,-19
1.40000,-18
1.40833,-18
1.41667,-18
1.42500,-18
1.43333,-18
1.44167,-18
1.45000,-18
1.45833,-18
1.46667,-18
1.47500,-18
1.48333,-18
1.49167,-18
1.50000,-17
1.50833,-17
1.51667,-17
1.52500,-17
1.53333,-16
1.54167,-16
1.55000,-16
1.55833,-16
1.56667,-15
1.57500,-15
1.58333,-15
1.59167,-15
1.60000,-15
1.60833,-15
1.61667,-14
1.62500,-14
1.63333,-14
1.64167,-14
1.65000,-13
1.65833,-13
1.66667,-13
1.67500,-14
1.68333,-14
1.69167,-14
1.70000,-14
1.70833,-14
1.71667,-14
1.72500,-14
1.73333,-13
1.74167,-13
1.75000,-13
1.75833,-13
1.76667,-12
1.77500,-12
1.78333,-12
1.79167,-12
1.80000,-12
1.80833,-12
1.81667,-12
1.82500,-12
1.83333,-11
1.84167,-11
1.85000,-11
1.85833,-11
1.86667,-11
1.87500,-11
1.88333,-11
1.89167,-11
1.90000,-11
1.90833,-11
1.91667,-11
1.92500,-11
1.93333,-11
1.94167,-11
1.95000,-11
1.95833,-11
1.96667,-11
1.97500,-11
1.98333,-10
1.99167,-10
2.00000,-10
2.00833,-10
2.01667,-10
2.02500,-11
2.03333,-11
2.04167,-11
2.05000,-11
2.05833,-11
2.06667,-11
2.07500,-12
2.08333,-12
2.09167,-12
2.10000,-12
2.10833,-11
2.11667,-11
2.12500,-11
2.13333,-11
2.14167,-11
2.15000,-11
2.15833,-11
2.16667,-11
2.17500,-11
2.18333,-11
2.19167,-11
2.20000,-10
2.20833,-10
2.21667,-10
2.22500,-10
2.23333,-10
2.24167,-10
2.25000,-11
2.25833,-11
2.26667,-11
2.27500,-11
2.28333,-11
2.29167,-11
2.30000,-11
2.30833,-11
2.31667,-11
2.32500,-11
2.33333,-11
2.34167,-11
2.35000,-11
2.35833,-12
2.36667,-12
2.37500,-12
2.38333,-12
2.39167,-12
2.40000,-12
2.40833,-12
2.41667,-12
2.42500,-12
2.43333,-12
2.44167,-12
2.45000,-12
2.45833,-13
2.46667,-13
2.47500,-13
2.48333,-13
2.49167,-13
2.50000,-13
2.50833,-13
2.51667,-14
2.52500,-14
2.53333,-14
2.54167,-14
2.55000,-14
2.55833,-14
2.56667,-14
2.57500,-14
2.58333,-14
2.59167,-14
2.60000,-14
2.60833,-14
2.61667,-14
2.62500,-14
2.63333,-15
2.64167,-15
2.65000,-15
2.65833,-15
2.66667,-15
2.67500,-16
2.68333,-16
2.69167,-16
2.70000,-17
2.70833,-17
2.71667,-17
2.72500,-18
2.73333,-18
2.74167,-18
2.75000,-18
2.75833,-18
2.76667,-18
2.77500,-18
2.78333,-18
2.79167,-19
2.80000,-19
2.80833,-19
2.81667,-19
2.82500,-19
2.83333,-19
2.84167,-19
2.85000,-19
2.85833,-19
2.86667,-20
2.87500,-20
2.88333,-20
2.89167,-20
2.90000,-21
2.90833,-21
2.91667,-20
2.92500,-20
2.93333,-21
2.94167,-21
2.95000,-22
2.95833,-22
2.96667,-21
2.97500,-21
2.98333,-21
2.99167,-22
3.00000,-22
3.00833,-22
3.01667,-22
3.02500,-22
3.03333,-22
3.04167,-22
3.05000,-21
3.05833,-21
3.06667,-21
3.07500,-21
3.08333,-21
3.09167,-21
3.10000,-21
3.10833,-22
3.11667,-22
3.12500,-22
3.13333,-22
3.14167,-22
3.15000,-22
3.15833,-22
3.16667,-22
3.17500,-22
3.18333,-22
3.19167,-22
3.20000,-22
3.20833,-22
3.21667,-22
3.22500,-22
3.23333,-22
3.24167,-22
3.25000,-22
3.25833,-22
3.26667,-22
3.27500,-22
3.28333,-22
3.29167,-22
3.30000,-22
3.30833,-22
3.31667,-22
3.32500,-22
3.33333,-22
3.34167,-22
3.35000,-21
3.35833,-21
3.36667,-21
3.37500,-21
3.38333,-21
3.39167,-21
3.40000,-20
3.40833,-20
3.41667,-20
3.42500,-20
3.43333,-20
3.44167,-20
3.45000,-20
3.45833,-20
3.46667,-20
3.47500,-20
3.48333,-20
3.49167,-20
3.50000,-20
3.50833,-20
3.51667,-20
3.52500,-20
3.53333,-20
3.54167,-20
3.55000,-20
3.55833,-20
3.56667,-20
3.57500,-20
3.58333,-20
3.59167,-20
3.60000,-20
3.60833,-20
3.61667,-20
3.62500,-20
3.63333,-19
3.64167,-19
3.65000,-19
3.65833,-18
3.66667,-18
3.67500,-17
3.68333,-17
3.69167,-17
3.70000,-17
3.70833,-17
3.71667,-17
3.72500,-17
3.73333,-16
3.74167,-16
3.75000,-16
3.75833,-16
3.76667,-16
3.77500,-15
3.78333,-15
3.79167,-15
3.80000,-14
3.80833,-14
3.81667,-14
3.82500,-14
3.83333,-14
3.84167,-14
3.85000,-13
3.85833,-13
3.86667,-12
3.87500,-12
3.88333,-12
3.89167,-12
3.90000,-12
3.90833,-12
3.91667,-12
3.92500,-11
3.93333,-11
3.94167,-11
3.95000,-11
3.95833,-10
3.96667,-10
3.97500,-10
3.98333,-9
3.99167,-9
4.00000,-9
4.00833,-8
4.01667,-8
4.02500,-8
4.03333,-8
4.04167,-8
4.05000,-7
4.05833,-7
4.06667,-7
4.07500,-7
4.08333,-7
4.09167,-6
4.10000,-5
4.10833,-5
4.11667,-4
4.12500,-3
4.13333,-2
4.14167,-2
4.15000,-1
4.15833,-1
4.16667,-0
4.17500,0
4.18333,1
4.19167,1
4.20000,2
4.20833,2
4.21667,3
4.22500,3
4.23333,3
4.24167,4
4.25000,5
4.25833,5
4.26667,6
4.27500,7
4.28333,7
4.29167,8
4.30000,9
4.30833,10
4.31667,10
4.32500,11
4.33333,11
4.34167,12
4.35000,12
4.35833,13
4.36667,13
4.37500,14
4.38333,15
4.39167,15
4.40000,16
4.40833,16
4.41667,17
4.42500,18
4.43333,19
4.44167,19
4.45000,20
4.45833,20
4.46667,21
4.47500,22
4.48333,23
4.49167,23
4.50000,23
4.50833,24
4.51667,24
4.52500,25
4.53333,26
4.54167,26
4.55000,27
4.55833,28
4.56667,28
4.57500,28
4.58333,29
4.59167,30
4.60000,31
4.60833,32
4.61667,32
4.62500,32
4.63333,33
4.64167,33
4.65000,34
4.65833,34
4.66667,35
4.67500,36
4.68333,36
4.69167,36
4.70000,36
4.70833,37
4.71667,38
4.72500,38
4.73333,39
4.74167,40
4.75000,40
4.75833,41
4.76667,41
4.77500,41
4.78333,42
4.79167,42
4.80000,42
4.80833,43
4.81667,43
4.82500,43
4.83333,43
4.84167,43
4.85000,43
4.85833,44
4.86667,44
4.87500,44
4.88333,44
4.89167,45
4.90000,45
4.90833,45
4.91667,45
4.92500,45
4.93333,45
4.94167,46
4.95000,46
4.95833,46
4.96667,46
4.97500,46
4.98333,46
4.99167,46
5.00000,46
5.00833,46
5.01667,46
5.02500,46
5.03333,46
5.04167,46
5.05000,46
5.05833,46
5.06667,46
5.07500,46
5.08333,46
5.09167,46
5.10000,46
5.10833,46
5.11667,46
5.12500,45
5.13333,45
5.14167,44
5.15000,44
5.15833,44
5.16667,44
5.17500,44
5.18333,44
5.19167,44
5.20000,43
5.20833,43
5.21667,42
5.22500,42
5.23333,42
5.24167,42
5.25000,42
5.25833,42
5.26667,41
5.27500,41
5.28333,41
5.29167,41
5.30000,40
5.30833,40
5.31667,39
5.32500,39
5.33333,38
5.34167,38
5.35000,38
5.35833,37
5.36667,36
5.37500,36
5.38333,36
5.39167,35
5.40000,35
5.40833,34
5.41667,33
5.42500,33
5.43333,33
5.44167,33
5.45000,33
5.45833,32
5.46667,31
5.47500,31
5.48333,30
5.49167,30
5.50000,29
5.50833,29
5.51667,28
5.52500,27
5.53333,27
5.54167,26
5.55000,25
5.55833,24
5.56667,24
5.57500,23
5.58333,22
5.59167,22
5.60000,21
5.60833,20
5.61667,19
5.62500,19
5.63333,18
5.64167,18
5.65000,17
5.65833,17
5.66667,17
5.67500,16
5.68333,15
5.69167,15
5.70000,14
5.70833,14
5.71667,13
5.72500,13
5.73333,12
5.74167,11
5.75000,10
5.75833,9
5.76667,8
5.77500,7
5.78333,6
5.79167,6
5.80000,4
5.80833,3
5.81667,2
5.82500,1
5.83333,1
5.84167,0
5.85000,-1
5.85833,-1
5.86667,-2
5.87500,-3
5.88333,-3
5.89167,-4
5.90000,-5
5.90833,-6
5.91667,-7
5.92500,-8
5.93333,-9
5.94167,-10
5.95000,-10
5.95833,-11
5.96667,-12
5.97500,-12
5.98333,-13
5.99167,-14
6.00000,-15
6.00833,-15
6.01667,-16
6.02500,-17
6.03333,-18
6.04167,-19
6.05000,-19
6.05833,-20
6.06667,-21
6.07500,-22
6.08333,-23
6.09167,-23
6.10000,-24
6.10833,-25
6.11667,-26
6.12500,-27
6.13333,-27
6.14167,-28
6.15000,-28
6.15833,-29
6.16667,-29
6.17500,-30
6.18333,-31
6.19167,-32
6.20000,-32
6.20833,-33
6.21667,-34
6.22500,-34
6.23333,-35
6.24167,-36
6.25000,-37
6.25833,-37
6.26667,-37
6.27500,-38
6.28333,-38
6.29167,-38
6.30000,-39
6.30833,-39
6.31667,-40
6.32500,-40
6.33333,-41
6.34167,-42
6.35000,-42
6.35833,-43
6.36667,-43
6.37500,-44
6.38333,-44
6.39167,-45
6.40000,-46
6.40833,-46
6.41667,-46
6.42500,-47
6.43333,-47
6.44167,-47
6.45000,-48
6.45833,-48
6.46667,-49
6.47500,-49
6.48333,-49
6.49167,-49
6.50000,-49
6.50833,-50
6.51667,-50
6.52500,-50
6.53333,-51
6.54167,-51
6.55000,-51
6.55833,-52
6.56667,-52
6.57500,-53
6.58333,-53
6.59167,-54
6.60000,-54
6.60833,-54
6.61667,-55
6.62500,-55
6.63333,-55
6.64167,-55
6.65000,-55
6.65833,-56
6.66667,-56
6.67500,-56
6.68333,-56
6.69167,-56
6.70000,-57
6.70833,-57
6.71667,-57
6.72500,-58
6.73333,-58
6.74167,-58
6.75000,-58
6.75833,-58
6.76667,-58
6.77500,-59
6.78333,-59
6.79167,-59
6.80000,-59
6.80833,-59
6.81667,-60
6.82500,-60
6.83333,-59
6.84167,-59
6.85000,-59
6.85833,-59
6.86667,-59
6.87500,-60
6.88333,-60
6.89167,-60
6.90000,-61
6.90833,-61
6.91667,-61
6.92500,-61
6.93333,-61
6.94167,-61
6.95000,-60
6.95833,-60
6.96667,-60
6.97500,-60
6.98333,-60
6.99167,-60
7.00000,-60
7.00833,-61
7.01667,-61
7.02500,-61
7.03333,-61
7.04167,-62
7.05000,-61
7.05833,-61
7.06667,-61
7.07500,-61
7.08333,-61
7.09167,-61
7.10000,-61
7.10833,-61
7.11667,-61
7.12500,-61
7.13333,-61
7.14167,-61
7.15000,-61
7.15833,-61
7.16667,-61
7.17500,-61
7.18333,-61
7.19167,-61
7.20000,-61
7.20833,-62
7.21667,-62
7.22500,-62
7.23333,-62
7.24167,-63
7.25000,-63
7.25833,-63
7.26667,-63
7.27500,-63
7.28333,-63
7.29167,-63
7.30000,-63
7.30833,-62
7.31667,-62
7.32500,-62
7.33333,-62
7.34167,-62
7.35000,-62
7.35833,-61
7.36667,-61
7.37500,-61
7.38333,-61
7.39167,-62
7.40000,-62
7.40833,-62
7.41667,-62
7.42500,-62
7.43333,-63
7.44167,-63
7.45000,-63
7.45833,-63
7.46667,-63
7.47500,-63
7.48333,-63
7.49167,-63
7.50000,-63
7.50833,-63
7.51667,-63
7.52500,-63
7.53333,-63
7.54167,-63
7.55000,-63
7.55833,-63
7.56667,-64
7.57500,-64
7.58333,-64
7.59167,-63
7.60000,-63
7.60833,-64
7.61667,-64
7.62500,-64
7.63333,-64
7.64167,-64
7.65000,-64
7.65833,-64
7.66667,-64
7.67500,-64
7.68333,-64
7.69167,-64
7.70000,-64
7.70833,-64
7.71667,-63
7.72500,-63
7.73333,-63
7.74167,-63
7.75000,-63
7.75833,-63
7.76667,-63
7.77500,-63
7.78333,-62
7.79167,-62
7.80000,-63
7.80833,-63
7.81667,-63
7.82500,-63
7.83333,-63
7.84167,-63
7.85000,-63
7.85833,-63
7.86667,-63
7.87500,-62
7.88333,-62
7.89167,-62
7.90000,-63
7.90833,-63
7.91667,-63
7.92500,-63
7.93333,-63
7.94167,-63
7.95000,-63
7.95833,-63
7.96667,-63
7.97500,-63
7.98333,-64
7.99167,-64
8.00000,-63
8.00833,-63
8.01667,-63
8.02500,-62
8.03333,-63
8.04167,-63
8.05000,-63
8.05833,-64
8.06667,-64
8.07500,-64
8.08333,-64
8.09167,-64
8.10000,-64
8.10833,-64
8.11667,-64
8.12500,-64
8.13333,-64
8.14167,-65
8.15000,-65
8.15833,-65
8.16667,-65
8.17500,-65
8.18333,-64
8.19167,-64
8.20000,-64
8.20833,-65
8.21667,-64
8.22500,-64
8.23333,-64
8.24167,-64
8.25000,-64
8.25833,-64
8.26667,-64
8.27500,-64
8.28333,-64
8.29167,-64
8.30000,-64
8.30833,-64
8.31667,-64
8.32500,-64
8.33333,-64
8.34167,-64
8.35000,-64
8.35833,-64
8.36667,-64
8.37500,-64
8.38333,-65
8.39167,-65
8.40000,-64
8.40833,-64
8.41667,-64
8.42500,-64
8.43333,-65
8.44167,-65
8.45000,-65
8.45833,-64
8.46667,-64
8.47500,-64
8.48333,-64
8.49167,-64
8.50000,-64
8.50833,-64
8.51667,-64
8.52500,-64
8.53333,-64
8.54167,-64
8.55000,-65
8.55833,-65
8.56667,-65
8.57500,-65
8.58333,-65
8.59167,-65
8.60000,-65
8.60833,-65
8.61667,-65
8.62500,-65
8.63333,-65
8.64167,-65
8.65000,-65
8.65833,-65
8.66667,-65
8.67500,-65
8.68333,-65
8.69167,-65
8.70000,-65
8.70833,-65
8.71667,-65
8.72500,-65
8.73333,-65
8.74167,-65
8.75000,-65
8.75833,-65
8.76667,-65
8.77500,-65
8.78333,-65
8.79167,-64
8.80000,-64
8.80833,-64
8.81667,-65
8.82500,-65
8.83333,-65
8.84167,-66
8.85000,-66
8.85833,-65
8.86667,-65
8.87500,-65
8.88333,-65
8.89167,-65
8.90000,-65
8.90833,-65
8.91667,-65
8.92500,-65
8.93333,-65
8.94167,-65
8.95000,-65
8.95833,-65
8.96667,-65
8.97500,-65
8.98333,-66
8.99167,-66
9.00000,-65
9.00833,-65
9.01667,-65
9.02500,-65
9.03333,-65
9.04167,-65
9.05000,-65
9.05833,-65
9.06667,-65
9.07500,-64
9.08333,-64
9.09167,-64
9.10000,-64
9.10833,-64
9.11667,-64
9.12500,-64
9.13333,-64
9.14167,-64
9.15000,-64
9.15833,-64
9.16667,-64
9.17500,-64
9.18333,-64
9.19167,-64
9.20000,-64
9.20833,-65
9.21667,-65
9.22500,-65
9.23333,-65
9.24167,-65
9.25000,-65
9.25833,-65
9.26667,-65
9.27500,-65
9.28333,-65
9.29167,-64
9.30000,-64
9.30833,-64
9.31667,-64
9.32500,-64
9.33333,-64
9.34167,-63
9.35000,-63
9.35833,-64
9.36667,-64
9.37500,-64
9.38333,-64
9.39167,-64
9.40000,-64
9.40833,-64
9.41667,-64
9.42500,-64
9.43333,-64
9.44167,-64
9.45000,-64
9.45833,-64
9.46667,-64
9.47500,-65
9.48333,-65
9.49167,-65
9.50000,-65
9.50833,-65
9.51667,-64
9.52500,-64
9.53333,-64
9.54167,-64
9.55000,-64
9.55833,-64
9.56667,-64
9.57500,-64
9.58333,-64
9.59167,-64
9.60000,-64
9.60833,-63
9.61667,-63
9.62500,-63
9.63333,-64
9.64167,-64
9.65000,-64
9.65833,-64
9.66667,-64
9.67500,-64
9.68333,-65
9.69167,-64
9.70000,-64
9.70833,-64
9.71667,-64
9.72500,-64
9.73333,-63
9.74167,-63
9.75000,-63
9.75833,-63
9.76667,-63
9.77500,-63
9.78333,-63
9.79167,-63
9.80000,-63
9.80833,-63
9.81667,-64
9.82500,-63
9.83333,-63
9.84167,-63
9.85000,-63
9.85833,-63
9.86667,-63
9.87500,-63
9.88333,-63
9.89167,-63
9.90000,-63
9.90833,-63
9.91667,-63
9.92500,-63
9.93333,-64
9.94167,-64
9.95000,-63
9.95833,-63
9.96667,-63
9.97500,-63
9.98333,-63
9.99167,-63
10.00000,-62
10.00833,-62
10.01667,-61
10.02500,-61
10.03333,-60
10.04167,-60
10.05000,-60
10.05833,-60
10.06667,-59
10.07500,-59
10.08333,-59
10.09167,-59
10.10000,-58
10.10833,-57
10.11667,-57
10.12500,-56
10.13333,-56
10.14167,-55
10.15000,-54
10.15833,-54
10.16667,-53
10.17500,-52
10.18333,-51
10.19167,-50
10.20000,-48
10.20833,-46
10.21667,-45
10.22500,-43
10.23333,-41
10.24167,-40
10.25000,-38
10.25833,-36
10.26667,-33
10.27500,-30
10.28333,-27
10.29167,-23
10.30000,-18
10.30833,-13
10.31667,-7
10.32500,-0
10.33333,8
10.34167,17
10.35000,28
10.35833,41
10.36667,55
10.37500,70
10.38333,87
10.39167,105
10.40000,123
10.40833,141
10.41667,159
10.42500,176
10.43333,191
10.44167,203
10.45000,213
10.45833,220
10.46667,224
10.47500,224
10.48333,222
10.49167,218
10.50000,215
10.50833,213
10.51667,216
10.52500,227
10.53333,248
10.54167,286
10.55000,344
10.55833,427
10.56667,540
10.57500,691
10.58333,883
10.59167,1124
10.60000,1419
10.60833,1775
10.61667,2198
10.62500,2694
10.63333,3268
10.64167,3925
10.65000,4672
10.65833,5512
10.66667,6451
10.67500,7493
10.68333,8642
10.69167,9901
10.70000,11273
10.70833,12761
10.71667,14368
10.72500,16094
10.73333,17942
10.74167,19912
10.75000,22005
10.75833,24221
10.76667,26560
10.77500,29022
10.78333,31605
10.79167,34307
10.80000,37127
10.80833,40061
10.81667,43107
10.82500,46261
10.83333,49518
10.84167,52874
10.85000,56322
10.85833,59853
10.86667,63462
10.87500,67136
10.88333,70864
10.89167,74631
10.90000,78422
10.90833,82216
10.91667,85991
10.92500,89720
10.93333,93373
10.94167,96914
10.95000,100304
10.95833,103498
10.96667,106448
10.97500,109100
10.98333,111400
10.99167,113291
11.00000,114718
11.00833,115627
11.01667,115970
11.02500,115706
11.03333,114808
11.04167,113259
11.05000,111059
11.05833,108227
11.06667,104798
11.07500,100824
11.08333,96374
11.09167,91528
11.10000,86376
11.10833,81013
11.11667,75532
11.12500,70027
11.13333,64579
11.14167,59265
11.15000,54148
11.15833,49277
11.16667,44690
11.17500,40414
11.18333,36462
11.19167,32840
11.20000,29545
11.20833,26566
11.21667,23889
11.22500,21495
11.23333,19362
11.24167,17470
11.25000,15796
11.25833,14318
11.26667,13015
11.27500,11868
11.28333,10858
11.29167,9969
11.30000,9186
11.30833,8496
11.31667,7885
11.32500,7345
11.33333,6865
11.34167,6438
11.35000,6056
11.35833,5713
11.36667,5404
11.37500,5125
11.38333,4871
11.39167,4639
11.40000,4427
11.40833,4233
11.41667,4053
11.42500,3887
11.43333,3732
11.44167,3587
11.45000,3451
11.45833,3322
11.46667,3202
11.47500,3087
11.48333,2979
11.49167,2876
11.50000,2779
11.50833,2685
11.51667,2596
11.52500,2510
11.53333,2429
11.54167,2351
11.55000,2276
11.55833,2204
11.56667,2136
11.57500,2070
11.58333,2006
11.59167,1945
11.60000,1886
11.60833,1829
11.61667,1775
11.62500,1723
11.63333,1673
11.64167,1625
11.65000,1578
11.65833,1534
11.66667,1492
11.67500,1451
11.68333,1412
11.69167,1374
11.70000,1338
11.70833,1303
11.71667,1270
11.72500,1238
11.73333,1207
11.74167,1177
11.75000,1149
11.75833,1122
11.76667,1097
11.77500,1072
11.78333,1049
11.79167,1026
11.80000,1004
11.80833,983
11.81667,963
11.82500,944
11.83333,925
11.84167,908
11.85000,891
11.85833,875
11.86667,860
11.87500,845
11.88333,831
11.89167,817
11.90000,805
11.90833,792
11.91667,780
11.92500,769
11.93333,758
11.94167,748
11.95000,738
11.95833,728
11.96667,719
11.97500,711
11.98333,702
11.99167,694
12.00000,687
12.00833,680
12.01667,673
12.02500,666
12.03333,659
12.04167,653
12.05000,646
12.05833,640
12.06667,635
12.07500,630
12.08333,625
12.09167,620
12.10000,616
12.10833,612
12.11667,608
12.12500,604
12.13333,601
12.14167,597
12.15000,594
12.15833,591
12.16667,588
12.17500,586
12.18333,584
12.19167,581
12.20000,579
12.20833,577
12.21667,575
12.22500,574
12.23333,572
12.24167,571
12.25000,570
12.25833,569
12.26667,568
12.27500,568
12.28333,567
12.29167,566
12.30000,566
12.30833,566
12.31667,565
12.32500,565
12.33333,565
12.34167,564
12.35000,564
12.35833,564
12.36667,564
12.37500,563
12.38333,563
12.39167,563
12.40000,563
12.40833,562
12.41667,562
12.42500,561
12.43333,560
12.44167,559
12.45000,559
12.45833,558
12.46667,557
12.47500,556
12.48333,555
12.49167,554
12.50000,553
12.50833,552
12.51667,551
12.52500,549
12.53333,548
12.54167,546
12.55000,545
12.55833,543
12.56667,541
12.57500,540
12.58333,538
12.59167,536
12.60000,535
12.60833,533
12.61667,532
12.62500,531
12.63333,530
12.64167,529
12.65000,529
12.65833,529
12.66667,530
12.67500,532
12.68333,535
12.69167,539
12.70000,544
12.70833,551
12.71667,560
12.72500,570
12.73333,583
12.74167,597
12.75000,615
12.75833,636
12.76667,659
12.77500,686
12.78333,716
12.79167,750
12.80000,787
12.80833,829
12.81667,876
12.82500,927
12.83333,983
12.84167,1044
12.85000,1109
12.85833,1180
12.86667,1256
12.87500,1338
12.88333,1424
12.89167,1516
12.90000,1614
12.90833,1718
12.91667,1828
12.92500,1943
12.93333,2064
12.94167,2191
12.95000,2323
12.95833,2462
12.96667,2606
12.97500,2755
12.98333,2911
12.99167,3072
13.00000,3239
13.00833,3411
13.01667,3590
13.02500,3774
13.03333,3964
13.04167,4159
13.05000,4358
13.05833,4563
13.06667,4774
13.07500,4990
13.08333,5211
13.09167,5437
13.10000,5668
13.10833,5904
13.11667,6144
13.12500,6389
13.13333,6638
13.14167,6892
13.15000,7150
13.15833,7412
13.16667,7678
13.17500,7948
13.18333,8222
13.19167,8501
13.20000,8783
13.20833,9068
13.21667,9357
13.22500,9649
13.23333,9944
13.24167,10243
13.25000,10545
13.25833,10850
13.26667,11159
13.27500,11471
13.28333,11785
13.29167,12103
13.30000,12424
13.30833,12748
13.31667,13075
13.32500,13404
13.33333,13737
13.34167,14072
13.35000,14410
13.35833,14751
13.36667,15094
13.37500,15441
13.38333,15790
13.39167,16143
13.40000,16497
13.40833,16855
13.41667,17215
13.42500,17579
13.43333,17944
13.44167,18313
13.45000,18685
13.45833,19060
13.46667,19438
13.47500,19819
13.48333,20202
13.49167,20589
13.50000,20978
13.50833,21371
13.51667,21766
13.52500,22165
13.53333,22566
13.54167,22971
13.55000,23379
13.55833,23791
13.56667,24206
13.57500,24624
13.58333,25046
13.59167,25471
13.60000,25899
13.60833,26331
13.61667,26766
13.62500,27204
13.63333,27646
13.64167,28092
13.65000,28541
13.65833,28994
13.66667,29451
13.67500,29911
13.68333,30375
13.69167,30843
13.70000,31314
13.70833,31790
13.71667,32269
13.72500,32752
13.73333,33239
13.74167,33730
13.75000,34226
13.75833,34725
13.76667,35229
13.77500,35737
13.78333,36249
13.79167,36765
13.80000,37286
13.80833,37811
13.81667,38339
13.82500,38873
13.83333,39411
13.84167,39954
13.85000,40501
13.85833,41053
13.86667,41609
13.87500,42171
13.88333,42737
13.89167,43308
13.90000,43884
13.90833,44465
13.91667,45051
13.92500,45642
13.93333,46238
13.94167,46839
13.95000,47445
13.95833,48057
13.96667,48674
13.97500,49296
13.98333,49924
13.99167,50557
14.00000,51196
14.00833,51840
14.01667,52490
14.02500,53146
14.03333,53808
14.04167,54476
14.05000,55150
14.05833,55829
14.06667,56515
14.07500,57207
14.08333,57905
14.09167,58610
14.10000,59321
14.10833,60038
14.11667,60762
14.12500,61493
14.13333,62231
14.14167,62975
14.15000,63726
14.15833,64485
14.16667,65250
14.17500,66023
14.18333,66802
14.19167,67588
14.20000,68380
14.20833,69175
14.21667,69972
14.22500,70767
14.23333,71557
14.24167,72333
14.25000,73090
14.25833,73817
14.26667,74504
14.27500,75140
14.28333,75711
14.29167,76205
14.30000,76612
14.30833,76917
14.31667,77112
14.32500,77186
14.33333,77133
14.34167,76946
14.35000,76620
14.35833,76152
14.36667,75539
14.37500,74778
14.38333,73869
14.39167,72808
14.40000,71594
14.40833,70224
14.41667,68698
14.42500,67012
14.43333,65169
14.44167,63169
14.45000,61017
14.45833,58721
14.46667,56292
14.47500,53742
14.48333,51091
14.49167,48360
14.50000,45573
14.50833,42755
14.51667,39935
14.52500,37139
14.53333,34393
14.54167,31722
14.55000,29146
14.55833,26686
14.56667,24356
14.57500,22166
14.58333,20125
14.59167,18236
14.60000,16499
14.60833,14914
14.61667,13474
14.62500,12173
14.63333,11003
14.64167,9956
14.65000,9021
14.65833,8190
14.66667,7452
14.67500,6799
14.68333,6221
14.69167,5711
14.70000,5259
14.70833,4861
14.71667,4509
14.72500,4197
14.73333,3921
14.74167,3677
14.75000,3459
14.75833,3265
14.76667,3092
14.77500,2937
14.78333,2797
14.79167,2671
14.80000,2557
14.80833,2453
14.81667,2358
14.82500,2272
14.83333,2192
14.84167,2119
14.85000,2051
14.85833,1988
14.86667,1930
14.87500,1875
14.88333,1823
14.89167,1775
14.90000,1731
14.90833,1688
14.91667,1649
14.92500,1611
14.93333,1575
14.94167,1541
14.95000,1509
14.95833,1478
14.96667,1449
14.97500,1422
14.98333,1396
14.99167,1371
15.00000,1347
15.00833,1325
15.01667,1304
15.02500,1284
15.03333,1265
15.04167,1247
15.05000,1230
15.05833,1215
15.06667,1200
15.07500,1185
15.08333,1172
15.09167,1160
15.10000,1149
15.10833,1139
15.11667,1129
15.12500,1121
15.13333,1113
15.14167,1106
15.15000,1100
15.15833,1096
15.16667,1093
15.17500,1093
15.18333,1094
15.19167,1098
15.20000,1104
15.20833,1115
15.21667,1130
15.22500,1150
15.23333,1177
15.24167,1211
15.25000,1255
15.25833,1309
15.26667,1375
15.27500,1455
15.28333,1551
15.29167,1665
15.30000,1800
15.30833,1959
15.31667,2143
15.32500,2358
15.33333,2605
15.34167,2887
15.35000,3209
15.35833,3573
15.36667,3983
15.37500,4441
15.38333,4951
15.39167,5515
15.40000,6135
15.40833,6815
15.41667,7555
15.42500,8357
15.43333,9222
15.44167,10150
15.45000,11139
15.45833,12190
15.46667,13301
15.47500,14468
15.48333,15689
15.49167,16960
15.50000,18277
15.50833,19634
15.51667,21026
15.52500,22446
15.53333,23889
15.54167,25348
15.55000,26815
15.55833,28284
15.56667,29747
15.57500,31196
15.58333,32626
15.59167,34029
15.60000,35398
15.60833,36726
15.61667,38009
15.62500,39240
15.63333,40414
15.64167,41526
15.65000,42573
15.65833,43551
15.66667,44457
15.67500,45287
15.68333,46040
15.69167,46714
15.70000,47306
15.70833,47816
15.71667,48242
15.72500,48586
15.73333,48845
15.74167,49020
15.75000,49111
15.75833,49119
15.76667,49044
15.77500,48887
15.78333,48650
15.79167,48333
15.80000,47939
15.80833,47469
15.81667,46925
15.82500,46310
15.83333,45626
15.84167,44877
15.85000,44065
15.85833,43194
15.86667,42269
15.87500,41292
15.88333,40269
15.89167,39203
15.90000,38099
15.90833,36962
15.91667,35797
15.92500,34609
15.93333,33403
15.94167,32183
15.95000,30955
15.95833,29724
15.96667,28493
15.97500,27268
15.98333,26054
15.99167,24853
16.00000,23671
16.00833,22510
16.01667,21373
16.02500,20265
16.03333,19187
16.04167,18142
16.05000,17131
16.05833,16157
16.06667,15220
16.07500,14322
16.08333,13464
16.09167,12645
16.10000,11865
16.10833,11125
16.11667,10424
16.12500,9762
16.13333,9138
16.14167,8551
16.15000,7999
16.15833,7482
16.16667,6999
16.17500,6549
16.18333,6129
16.19167,5738
16.20000,5375
16.20833,5039
16.21667,4728
16.22500,4440
16.23333,4175
16.24167,3930
16.25000,3704
16.25833,3497
16.26667,3306
16.27500,3131
16.28333,2970
16.29167,2822
16.30000,2687
16.30833,2563
16.31667,2448
16.32500,2344
16.33333,2247
16.34167,2159
16.35000,2079
16.35833,2004
16.36667,1936
16.37500,1874
16.38333,1817
16.39167,1764
16.40000,1714
16.40833,1669
16.41667,1627
16.42500,1588
16.43333,1551
16.44167,1517
16.45000,1485
16.45833,1454
16.46667,1426
16.47500,1399
16.48333,1373
16.49167,1349
16.50000,1326
16.50833,1304
16.51667,1282
16.52500,1262
16.53333,1242
16.54167,1222
16.55000,1203
16.55833,1185
16.56667,1166
16.57500,1149
16.58333,1131
16.59167,1114
16.60000,1098
16.60833,1082
16.61667,1066
16.62500,1050
16.63333,1035
16.64167,1020
16.65000,1005
16.65833,991
16.66667,977
16.67500,963
16.68333,950
16.69167,937
16.70000,924
16.70833,911
16.71667,899
16.72500,888
16.73333,876
16.74167,865
16.75000,855
16.75833,845
16.76667,835
16.77500,826
16.78333,817
16.79167,808
16.80000,800
16.80833,792
16.81667,785
16.82500,778
16.83333,771
16.84167,764
16.85000,758
16.85833,752
16.86667,746
16.87500,741
16.88333,736
16.89167,731
16.90000,726
16.90833,722
16.91667,717
16.92500,713
16.93333,710
16.94167,706
16.95000,702
16.95833,698
16.96667,694
16.97500,691
16.98333,687
16.99167,684
17.00000,681
17.00833,678
17.01667,676
17.02500,673
17.03333,670
17.04167,667
17.05000,665
17.05833,662
17.06667,659
17.07500,656
17.08333,653
17.09167,651
17.10000,648
17.10833,646
17.11667,643
17.12500,641
17.13333,639
17.14167,637
17.15000,635
17.15833,632
17.16667,630
17.17500,627
17.18333,625
17.19167,623
17.20000,621
17.20833,619
17.21667,617
17.22500,615
17.23333,613
17.24167,611
17.25000,609
17.25833,607
17.26667,605
17.27500,603
17.28333,601
17.29167,599
17.30000,597
17.30833,595
17.31667,593
17.32500,591
17.33333,590
17.34167,588
17.35000,587
17.35833,585
17.36667,584
17.37500,584
17.38333,583
17.39167,583
17.40000,583
17.40833,583
17.41667,583
17.42500,584
17.43333,585
17.44167,586
17.45000,587
17.45833,589
17.46667,591
17.47500,594
17.48333,597
17.49167,600
17.50000,603
17.50833,607
17.51667,611
17.52500,615
17.53333,619
17.54167,624
17.55000,629
17.55833,634
17.56667,639
17.57500,644
17.58333,650
17.59167,656
17.60000,661
17.60833,667
17.61667,672
17.62500,678
17.63333,683
17.64167,689
17.65000,695
17.65833,700
17.66667,706
17.67500,712
17.68333,717
17.69167,722
17.70000,728
17.70833,733
17.71667,737
17.72500,741
17.73333,746
17.74167,750
17.75000,754
17.75833,757
17.76667,761
17.77500,764
17.78333,767
17.79167,770
17.80000,772
17.80833,774
17.81667,775
17.82500,776
17.83333,777
17.84167,777
17.85000,777
17.85833,778
17.86667,777
17.87500,777
17.88333,776
17.89167,774
17.90000,772
17.90833,770
17.91667,767
17.92500,764
17.93333,760
17.94167,756
17.95000,752
17.95833,748
17.96667,743
17.97500,738
17.98333,732
17.99167,726
18.00000,721
18.00833,714
18.01667,708
18.02500,701
18.03333,694
18.04167,687
18.05000,679
18.05833,672
18.06667,664
18.07500,656
18.08333,649
18.09167,641
18.10000,634
18.10833,626
18.11667,618
18.12500,611
18.13333,603
18.14167,596
18.15000,588
18.15833,581
18.16667,573
18.17500,566
18.18333,559
18.19167,552
18.20000,545
18.20833,539
18.21667,533
18.22500,526
18.23333,520
18.24167,514
18.25000,509
18.25833,504
18.26667,499
18.27500,494
18.28333,489
18.29167,485
18.30000,481
18.30833,477
18.31667,473
18.32500,469
18.33333,466
18.34167,463
18.35000,461
18.35833,459
18.36667,457
18.37500,455
18.38333,453
18.39167,452
18.40000,451
18.40833,451
18.41667,451
18.42500,452
18.43333,452
18.44167,453
18.45000,454
18.45833,456
18.46667,457
18.47500,459
18.48333,461
18.49167,463
18.50000,465
18.50833,467
18.51667,470
18.52500,473
18.53333,475
18.54167,478
18.55000,481
18.55833,485
18.56667,488
18.57500,492
18.58333,496
18.59167,500
18.60000,503
18.60833,507
18.61667,511
18.62500,516
18.63333,520
18.64167,525
18.65000,529
18.65833,534
18.66667,538
18.67500,543
18.68333,547
18.69167,552
18.70000,556
18.70833,561
18.71667,565
18.72500,570
18.73333,575
18.74167,580
18.75000,585
18.75833,590
18.76667,595
18.77500,599
18.78333,604
18.79167,609
18.80000,614
18.80833,619
18.81667,624
18.82500,629
18.83333,634
18.84167,638
18.85000,643
18.85833,647
18.86667,652
18.87500,656
18.88333,660
18.89167,665
18.90000,669
18.90833,673
18.91667,677
18.92500,681
18.93333,685
18.94167,689
18.95000,692
18.95833,696
18.96667,700
18.97500,703
18.98333,706
18.99167,709
19.00000,711
19.00833,714
19.01667,716
19.02500,718
19.03333,721
19.04167,723
19.05000,724
19.05833,726
19.06667,727
19.07500,728
19.08333,729
19.09167,730
19.10000,730
19.10833,731
19.11667,731
19.12500,731
19.13333,731
19.14167,730
19.15000,729
19.15833,728
19.16667,726
19.17500,725
19.18333,723
19.19167,720
19.20000,718
19.20833,716
19.21667,714
19.22500,711
19.23333,708
19.24167,705
19.25000,701
19.25833,697
19.26667,693
19.27500,689
19.28333,686
19.29167,682
19.30000,678
19.30833,674
19.31667,670
19.32500,665
19.33333,660
19.34167,655
19.35000,651
19.35833,646
19.36667,641
19.37500,635
19.38333,630
19.39167,624
19.40000,619
19.40833,613
19.41667,607
19.42500,602
19.43333,596
19.44167,591
19.45000,585
19.45833,580
19.46667,575
19.47500,569
19.48333,563
19.49167,557
19.50000,551
19.50833,545
19.51667,540
19.52500,535
19.53333,529
19.54167,524
19.55000,518
19.55833,513
19.56667,507
19.57500,502
19.58333,497
19.59167,492
19.60000,487
19.60833,482
19.61667,478
19.62500,474
19.63333,470
19.64167,466
19.65000,462
19.65833,458
19.66667,455
19.67500,451
19.68333,448
19.69167,445
19.70000,443
19.70833,441
19.71667,439
19.72500,438
19.73333,436
19.74167,435
19.75000,434
19.75833,434
19.76667,435
19.77500,436
19.78333,437
19.79167,439
19.80000,441
19.80833,444
19.81667,448
19.82500,452
19.83333,456
19.84167,461
19.85000,467
19.85833,473
19.86667,480
19.87500,487
19.88333,495
19.89167,504
19.90000,513
19.90833,522
19.91667,532
19.92500,543
19.93333,554
19.94167,565
19.95000,577
19.95833,590
19.96667,603
19.97500,617
19.98333,631
19.99167,645
20.00000,660
20.00833,674
20.01667,688
20.02500,702
20.03333,717
20.04167,732
20.05000,747
20.05833,762
20.06667,777
20.07500,791
20.08333,804
20.09167,818
20.10000,832
20.10833,845
20.11667,857
20.12500,869
20.13333,881
20.14167,892
20.15000,903
20.15833,913
20.16667,923
20.17500,932
20.18333,941
20.19167,949
20.20000,956
20.20833,963
20.21667,968
20.22500,974
20.23333,979
20.24167,982
20.25000,986
20.25833,988
20.26667,990
20.27500,992
20.28333,992
20.29167,992
20.30000,992
20.30833,991
20.31667,989
20.32500,987
20.33333,984
20.34167,980
20.35000,976
20.35833,971
20.36667,966
20.37500,960
20.38333,954
20.39167,948
20.40000,941
20.40833,935
20.41667,928
20.42500,920
20.43333,912
20.44167,904
20.45000,896
20.45833,889
20.46667,881
20.47500,874
20.48333,866
20.49167,858
20.50000,851
20.50833,843
20.51667,836
20.52500,829
20.53333,823
20.54167,817
20.55000,811
20.55833,806
20.56667,801
20.57500,797
20.58333,793
20.59167,790
20.60000,788
20.60833,786
20.61667,784
20.62500,783
20.63333,783
20.64167,783
20.65000,783
20.65833,784
20.66667,784
20.67500,786
20.68333,787
20.69167,789
20.70000,792
20.70833,794
20.71667,797
20.72500,800
20.73333,804
20.74167,807
20.75000,810
20.75833,813
20.76667,817
20.77500,820
20.78333,823
20.79167,827
20.80000,831
20.80833,835
20.81667,838
20.82500,842
20.83333,845
20.84167,848
20.85000,851
20.85833,854
20.86667,857
20.87500,860
20.88333,863
20.89167,865
20.90000,867
20.90833,869
20.91667,871
20.92500,873
20.93333,875
20.94167,877
20.95000,878
20.95833,879
20.96667,881
20.97500,882
20.98333,882
20.99167,882
21.00000,883
21.00833,883
21.01667,884
21.02500,885
21.03333,885
21.04167,885
21.05000,886
21.05833,886
21.06667,886
21.07500,886
21.08333,886
21.09167,887
21.10000,887
21.10833,888
21.11667,888
21.12500,889
21.13333,890
21.14167,891
21.15000,893
21.15833,894
21.16667,896
21.17500,898
21.18333,899
21.19167,901
21.20000,903
21.20833,905
21.21667,908
21.22500,910
21.23333,913
21.24167,915
21.25000,918
21.25833,921
21.26667,923
21.27500,926
21.28333,929
21.29167,931
21.30000,934
21.30833,937
21.31667,939
21.32500,942
21.33333,945
21.34167,947
21.35000,949
21.35833,952
21.36667,954
21.37500,956
21.38333,959
21.39167,961
21.40000,963
21.40833,965
21.41667,968
21.42500,970
21.43333,973
21.44167,976
21.45000,979
21.45833,982
21.46667,986
21.47500,989
21.48333,993
21.49167,997
21.50000,1001
21.50833,1005
21.51667,1009
21.52500,1014
21.53333,1019
21.54167,1024
21.55000,1029
21.55833,1034
21.56667,1039
21.57500,1044
21.58333,1049
21.59167,1054
21.60000,1059
21.60833,1063
21.61667,1068
21.62500,1072
21.63333,1076
21.64167,1080
21.65000,1084
21.65833,1086
21.66667,1089
21.67500,1091
21.68333,1092
21.69167,1093
21.70000,1094
21.70833,1095
21.71667,1095
21.72500,1095
21.73333,1094
21.74167,1092
21.75000,1090
21.75833,1088
21.76667,1085
21.77500,1082
21.78333,1079
21.79167,1075
21.80000,1071
21.80833,1066
21.81667,1060
21.82500,1055
21.83333,1049
21.84167,1044
21.85000,1038
21.85833,1032
21.86667,1025
21.87500,1019
21.88333,1013
21.89167,1006
21.90000,999
21.90833,992
21.91667,984
21.92500,977
21.93333,968
21.94167,960
21.95000,952
21.95833,943
21.96667,934
21.97500,925
21.98333,915
21.99167,905
22.00000,895
22.00833,885
22.01667,874
22.02500,863
22.03333,851
22.04167,839
22.05000,827
22.05833,815
22.06667,802
22.07500,789
22.08333,775
22.09167,762
22.10000,748
22.10833,734
22.11667,720
22.12500,706
22.13333,691
22.14167,676
22.15000,661
22.15833,646
22.16667,631
22.17500,616
22.18333,601
22.19167,587
22.20000,572
22.20833,557
22.21667,543
22.22500,529
22.23333,515
22.24167,502
22.25000,488
22.25833,475
22.26667,462
22.27500,450
22.28333,438
22.29167,427
22.30000,416
22.30833,405
22.31667,395
22.32500,385
22.33333,376
22.34167,367
22.35000,358
22.35833,350
22.36667,342
22.37500,335
22.38333,328
22.39167,322
22.40000,316
22.40833,310
22.41667,305
22.42500,300
22.43333,296
22.44167,291
22.45000,287
22.45833,284
22.46667,280
22.47500,277
22.48333,274
22.49167,271
22.50000,269
22.50833,267
22.51667,265
22.52500,264
22.53333,263
22.54167,262
22.55000,261
22.55833,261
22.56667,260
22.57500,260
22.58333,260
22.59167,260
22.60000,260
22.60833,261
22.61667,262
22.62500,263
22.63333,264
22.64167,265
22.65000,267
22.65833,269
22.66667,270
22.67500,272
22.68333,274
22.69167,276
22.70000,279
22.70833,281
22.71667,284
22.72500,286
22.73333,289
22.74167,292
22.75000,295
22.75833,298
22.76667,302
22.77500,305
22.78333,309
22.79167,312
22.80000,316
22.80833,319
22.81667,322
22.82500,326
22.83333,330
22.84167,334
22.85000,337
22.85833,341
22.86667,344
22.87500,348
22.88333,351
22.89167,354
22.90000,358
22.90833,361
22.91667,364
22.92500,368
22.93333,371
22.94167,374
22.95000,377
22.95833,380
22.96667,382
22.97500,385
22.98333,387
22.99167,389
23.00000,392
23.00833,394
23.01667,397
23.02500,399
23.03333,401
23.04167,403
23.05000,405
23.05833,407
23.06667,409
23.07500,410
23.08333,412
23.09167,413
23.10000,414
23.10833,415
23.11667,416
23.12500,417
23.13333,417
23.14167,418
23.15000,418
23.15833,418
23.16667,418
23.17500,418
23.18333,417
23.19167,417
23.20000,416
23.20833,415
23.21667,415
23.22500,414
23.23333,413
23.24167,411
23.25000,410
23.25833,408
23.26667,407
23.27500,406
23.28333,404
23.29167,402
23.30000,400
23.30833,399
23.31667,397
23.32500,395
23.33333,393
23.34167,391
23.35000,389
23.35833,387
23.36667,385
23.37500,384
23.38333,382
23.39167,380
23.40000,377
23.40833,375
23.41667,374
23.42500,372
23.43333,370
23.44167,369
23.45000,367
23.45833,366
23.46667,364
23.47500,363
23.48333,362
23.49167,361
23.50000,360
23.50833,359
23.51667,358
23.52500,357
23.53333,356
23.54167,355
23.55000,354
23.55833,353
23.56667,352
23.57500,351
23.58333,351
23.59167,350
23.60000,349
23.60833,348
23.61667,347
23.62500,347
23.63333,346
23.64167,345
23.65000,345
23.65833,344
23.66667,344
23.67500,343
23.68333,343
23.69167,342
23.70000,342
23.70833,342
23.71667,341
23.72500,341
23.73333,340
23.74167,339
23.75000,338
23.75833,338
23.76667,337
23.77500,337
23.78333,336
23.79167,336
23.80000,335
23.80833,334
23.81667,333
23.82500,333
23.83333,332
23.84167,331
23.85000,330
23.85833,330
23.86667,329
23.87500,328
23.88333,328
23.89167,327
23.90000,326
23.90833,325
23.91667,324
23.92500,324
23.93333,323
23.94167,322
23.95000,321
23.95833,320
23.96667,319
23.97500,318
23.98333,317
23.99167,317
24.00000,316
24.00833,315
24.01667,314
24.02500,313
24.03333,312
24.04167,311
24.05000,310
24.05833,309
24.06667,308
24.07500,308
24.08333,307
24.09167,306
24.10000,306
24.10833,305
24.11667,304
24.12500,304
24.13333,303
24.14167,303
24.15000,302
24.15833,302
24.16667,302
24.17500,301
24.18333,301
24.19167,301
24.20000,300
24.20833,300
24.21667,300
24.22500,300
24.23333,300
24.24167,299
24.25000,299
24.25833,299
24.26667,299
24.27500,299
24.28333,299
24.29167,299
24.30000,300
24.30833,300
24.31667,301
24.32500,302
24.33333,304
24.34167,306
24.35000,308
24.35833,311
24.36667,315
24.37500,319
24.38333,323
24.39167,328
24.40000,334
24.40833,340
24.41667,348
24.42500,356
24.43333,365
24.44167,375
24.45000,387
24.45833,399
24.46667,413
24.47500,429
24.48333,446
24.49167,464
24.50000,485
24.50833,507
24.51667,531
24.52500,557
24.53333,584
24.54167,614
24.55000,647
24.55833,681
24.56667,718
24.57500,757
24.58333,799
24.59167,843
24.60000,890
24.60833,939
24.61667,990
24.62500,1043
24.63333,1099
24.64167,1157
24.65000,1217
24.65833,1279
24.66667,1343
24.67500,1408
24.68333,1475
24.69167,1545
24.70000,1615
24.70833,1686
24.71667,1758
24.72500,1831
24.73333,1905
24.74167,1980
24.75000,2055
24.75833,2130
24.76667,2204
24.77500,2279
24.78333,2352
24.79167,2425
24.80000,2497
24.80833,2569
24.81667,2638
24.82500,2707
24.83333,2774
24.84167,2840
24.85000,2904
24.85833,2967
24.86667,3028
24.87500,3087
24.88333,3144
24.89167,3199
24.90000,3252
24.90833,3302
24.91667,3350
24.92500,3396
24.93333,3440
24.94167,3482
24.95000,3520
24.95833,3557
24.96667,3592
24.97500,3624
24.98333,3654
24.99167,3681
25.00000,3706
25.00833,3728
25.01667,3748
25.02500,3766
25.03333,3780
25.04167,3792
25.05000,3802
25.05833,3809
25.06667,3814
25.07500,3816
25.08333,3814
25.09167,3811
25.10000,3804
25.10833,3794
25.11667,3781
25.12500,3765
25.13333,3746
25.14167,3725
25.15000,3700
25.15833,3673
25.16667,3642
25.17500,3608
25.18333,3571
25.19167,3532
25.20000,3489
25.20833,3444
25.21667,3397
25.22500,3346
25.23333,3294
25.24167,3238
25.25000,3181
25.25833,3121
25.26667,3059
25.27500,2996
25.28333,2932
25.29167,2866
25.30000,2798
25.30833,2730
25.31667,2660
25.32500,2589
25.33333,2519
25.34167,2447
25.35000,2376
25.35833,2304
25.36667,2232
25.37500,2161
25.38333,2091
25.39167,2022
25.40000,1953
25.40833,1885
25.41667,1818
25.42500,1752
25.43333,1688
25.44167,1624
25.45000,1562
25.45833,1501
25.46667,1443
25.47500,1386
25.48333,1330
25.49167,1277
25.50000,1226
25.50833,1176
25.51667,1129
25.52500,1083
25.53333,1039
25.54167,997
25.55000,956
25.55833,917
25.56667,880
25.57500,845
25.58333,811
25.59167,780
25.60000,750
25.60833,721
25.61667,694
25.62500,668
25.63333,644
25.64167,622
25.65000,600
25.65833,580
25.66667,561
25.67500,543
25.68333,526
25.69167,510
25.70000,494
25.70833,480
25.71667,466
25.72500,454
25.73333,442
25.74167,430
25.75000,419
25.75833,409
25.76667,400
25.77500,390
25.78333,382
25.79167,373
25.80000,365
25.80833,358
25.81667,350
25.82500,344
25.83333,337
25.84167,330
25.85000,324
25.85833,318
25.86667,312
25.87500,306
25.88333,301
25.89167,296
25.90000,291
25.90833,286
25.91667,281
25.92500,276
25.93333,271
25.94167,266
25.95000,261
25.95833,257
25.96667,252
25.97500,247
25.98333,243
25.99167,238
26.00000,233
26.00833,228
26.01667,224
26.02500,219
26.03333,215
26.04167,210
26.05000,206
26.05833,202
26.06667,198
26.07500,194
26.08333,190
26.09167,185
26.10000,181
26.10833,177
26.11667,173
26.12500,170
26.13333,166
26.14167,163
26.15000,159
26.15833,155
26.16667,151
26.17500,147
26.18333,144
26.19167,141
26.20000,138
26.20833,136
26.21667,133
26.22500,130
26.23333,127
26.24167,124
26.25000,122
26.25833,119
26.26667,117
26.27500,114
26.28333,112
26.29167,110
26.30000,108
26.30833,106
26.31667,105
26.32500,103
26.33333,101
26.34167,100
26.35000,98
26.35833,96
26.36667,95
26.37500,94
26.38333,93
26.39167,92
26.40000,90
26.40833,89
26.41667,88
26.42500,88
26.43333,87
26.44167,87
26.45000,86
26.45833,86
26.46667,85
26.47500,85
26.48333,85
26.49167,84
26.50000,84
26.50833,84
26.51667,84
26.52500,84
26.53333,84
26.54167,84
26.55000,84
26.55833,84
26.56667,83
26.57500,83
26.58333,83
26.59167,83
26.60000,83
26.60833,83
26.61667,84
26.62500,84
26.63333,83
26.64167,83
26.65000,83
26.65833,83
26.66667,83
26.67500,83
26.68333,83
26.69167,83
26.70000,83
26.70833,83
26.71667,83
26.72500,84
26.73333,84
26.74167,84
26.75000,84
26.75833,84
26.76667,84
26.77500,84
26.78333,84
26.79167,84
26.80000,84
26.80833,84
26.81667,84
26.82500,84
26.83333,84
26.84167,85
26.85000,85
26.85833,84
26.86667,84
26.87500,84
26.88333,84
26.89167,84
26.90000,84
26.90833,84
26.91667,84
26.92500,84
26.93333,85
26.94167,85
26.95000,85
26.95833,85
26.96667,85
26.97500,85
26.98333,85
26.99167,85
27.00000,86
27.00833,86
27.01667,86
27.02500,86
27.03333,86
27.04167,86
27.05000,87
27.05833,87
27.06667,87
27.07500,87
27.08333,87
27.09167,87
27.10000,87
27.10833,87
27.11667,87
27.12500,87
27.13333,87
27.14167,87
27.15000,87
27.15833,87
27.16667,88
27.17500,88
27.18333,88
27.19167,88
27.20000,88
27.20833,88
27.21667,89
27.22500,88
27.23333,89
27.24167,89
27.25000,89
27.25833,90
27.26667,90
27.27500,90
27.28333,90
27.29167,89
27.30000,89
27.30833,89
27.31667,89
27.32500,89
27.33333,89
27.34167,89
27.35000,89
27.35833,89
27.36667,89
27.37500,89
27.38333,89
27.39167,89
27.40000,90
27.40833,90
27.41667,90
27.42500,90
27.43333,89
27.44167,89
27.45000,89
27.45833,89
27.46667,89
27.47500,89
27.48333,88
27.49167,88
27.50000,88
27.50833,88
27.51667,88
27.52500,88
27.53333,88
27.54167,88
27.55000,87
27.55833,87
27.56667,86
27.57500,86
27.58333,85
27.59167,85
27.60000,84
27.60833,84
27.61667,83
27.62500,83
27.63333,82
27.64167,81
27.65000,81
27.65833,80
27.66667,80
27.67500,80
27.68333,79
27.69167,79
27.70000,78
27.70833,77
27.71667,77
27.72500,77
27.73333,76
27.74167,75
27.75000,74
27.75833,74
27.76667,73
27.77500,72
27.78333,71
27.79167,70
27.80000,70
27.80833,69
27.81667,69
27.82500,68
27.83333,67
27.84167,66
27.85000,66
27.85833,66
27.86667,65
27.87500,65
27.88333,64
27.89167,64
27.90000,63
27.90833,62
27.91667,62
27.92500,62
27.93333,62
27.94167,61
27.95000,61
27.95833,60
27.96667,60
27.97500,60
27.98333,60
27.99167,59
28.00000,59
28.00833,59
28.01667,59
28.02500,59
28.03333,59
28.04167,59
28.05000,59
28.05833,59
28.06667,59
28.07500,59
28.08333,59
28.09167,59
28.10000,59
28.10833,59
28.11667,58
28.12500,58
28.13333,58
28.14167,58
28.15000,57
28.15833,57
28.16667,58
28.17500,58
28.18333,58
28.19167,58
28.20000,58
28.20833,58
28.21667,58
28.22500,58
28.23333,58
28.24167,58
28.25000,58
28.25833,59
28.26667,59
28.27500,60
28.28333,60
28.29167,60
28.30000,60
28.30833,61
28.31667,62
28.32500,63
28.33333,64
28.34167,65
28.35000,66
28.35833,67
28.36667,69
28.37500,70
28.38333,72
28.39167,75
28.40000,77
28.40833,80
28.41667,84
28.42500,88
28.43333,92
28.44167,96
28.45000,101
28.45833,107
28.46667,113
28.47500,120
28.48333,127
28.49167,135
28.50000,144
28.50833,154
28.51667,165
28.52500,176
28.53333,189
28.54167,203
28.55000,217
28.55833,232
28.56667,249
28.57500,267
28.58333,286
28.59167,306
28.60000,327
28.60833,350
28.61667,375
28.62500,401
28.63333,428
28.64167,456
28.65000,486
28.65833,518
28.66667,551
28.67500,586
28.68333,622
28.69167,659
28.70000,697
28.70833,737
28.71667,779
28.72500,822
28.73333,866
28.74167,911
28.75000,958
28.75833,1006
28.76667,1055
28.77500,1105
28.78333,1155
28.79167,1207
28.80000,1259
28.80833,1312
28.81667,1365
28.82500,1419
28.83333,1472
28.84167,1527
28.85000,1581
28.85833,1635
28.86667,1689
28.87500,1742
28.88333,1796
28.89167,1849
28.90000,1901
28.90833,1953
28.91667,2004
28.92500,2053
28.93333,2102
28.94167,2149
28.95000,2196
28.95833,2241
28.96667,2285
28.97500,2327
28.98333,2368
28.99167,2408
29.00000,2446
29.00833,2483
29.01667,2518
29.02500,2551
29.03333,2583
29.04167,2613
29.05000,2642
29.05833,2669
29.06667,2694
29.07500,2718
29.08333,2741
29.09167,2761
29.10000,2780
29.10833,2797
29.11667,2813
29.12500,2827
29.13333,2839
29.14167,2850
29.15000,2860
29.15833,2868
29.16667,2874
29.17500,2879
29.18333,2882
29.19167,2884
29.20000,2884
29.20833,2883
29.21667,2881
29.22500,2878
29.23333,2874
29.24167,2868
29.25000,2860
29.25833,2851
29.26667,2840
29.27500,2828
29.28333,2814
29.29167,2799
29.30000,2783
29.30833,2765
29.31667,2746
29.32500,2725
29.33333,2703
29.34167,2679
29.35000,2654
29.35833,2627
29.36667,2599
29.37500,2569
29.38333,2538
29.39167,2506
29.40000,2472
29.40833,2437
29.41667,2401
29.42500,2364
29.43333,2325
29.44167,2285
29.45000,2244
29.45833,2202
29.46667,2159
29.47500,2115
29.48333,2071
29.49167,2025
29.50000,1979
29.50833,1933
29.51667,1886
29.52500,1839
29.53333,1791
29.54167,1743
29.55000,1695
29.55833,1647
29.56667,1598
29.57500,1550
29.58333,1502
29.59167,1454
29.60000,1407
29.60833,1359
29.61667,1312
29.62500,1266
29.63333,1220
29.64167,1176
29.65000,1131
29.65833,1088
29.66667,1046
29.67500,1004
29.68333,963
29.69167,924
29.70000,885
29.70833,848
29.71667,811
29.72500,775
29.73333,741
29.74167,707
29.75000,675
29.75833,643
29.76667,613
29.77500,584
29.78333,556
29.79167,529
29.80000,504
29.80833,479
29.81667,456
29.82500,433
29.83333,411
29.84167,391
29.85000,371
29.85833,353
29.86667,335
29.87500,319
29.88333,303
29.89167,288
29.90000,274
29.90833,261
29.91667,248
29.92500,236
29.93333,225
29.94167,214
29.95000,204
29.95833,195
29.96667,186
29.97500,177
29.98333,170
29.99167,163
30.00000,156
30.00833,150
30.01667,145
30.02500,139
30.03333,134
30.04167,129
30.05000,125
30.05833,121
30.06667,117
30.07500,114
30.08333,110
30.09167,107
30.10000,104
30.10833,102
30.11667,100
30.12500,97
30.13333,95
30.14167,93
30.15000,91
30.15833,89
30.16667,88
30.17500,86
30.18333,85
30.19167,84
30.20000,83
30.20833,82
30.21667,81
30.22500,81
30.23333,80
30.24167,80
30.25000,79
30.25833,79
30.26667,78
30.27500,77
30.28333,77
30.29167,76
30.30000,76
30.30833,76
30.31667,76
30.32500,76
30.33333,76
30.34167,76
30.35000,76
30.35833,76
30.36667,76
30.37500,76
30.38333,77
30.39167,77
30.40000,77
30.40833,77
30.41667,77
30.42500,78
30.43333,78
30.44167,78
30.45000,79
30.45833,80
30.46667,80
30.47500,81
30.48333,82
30.49167,83
30.50000,83
30.50833,84
30.51667,85
30.52500,86
30.53333,87
30.54167,88
30.55000,89
30.55833,90
30.56667,91
30.57500,92
30.58333,94
30.59167,96
30.60000,97
30.60833,99
30.61667,100
30.62500,102
30.63333,104
30.64167,105
30.65000,107
30.65833,108
30.66667,109
30.67500,111
30.68333,112
30.69167,113
30.70000,115
30.70833,116
30.71667,118
30.72500,120
30.73333,122
30.74167,123
30.75000,125
30.75833,127
30.76667,128
30.77500,130
30.78333,132
30.79167,133
30.80000,135
30.80833,136
30.81667,138
30.82500,140
30.83333,142
30.84167,144
30.85000,145
30.85833,147
30.86667,149
30.87500,150
30.88333,151
30.89167,152
30.90000,153
30.90833,155
30.91667,156
30.92500,157
30.93333,159
30.94167,160
30.95000,161
30.95833,162
30.96667,163
30.97500,165
30.98333,166
30.99167,167
31.00000,168
31.00833,169
31.01667,170
31.02500,170
31.03333,171
31.04167,171
31.05000,172
31.05833,172
31.06667,173
31.07500,173
31.08333,173
31.09167,173
31.10000,173
31.10833,173
31.11667,174
31.12500,174
31.13333,174
31.14167,174
31.15000,175
31.15833,175
31.16667,174
31.17500,174
31.18333,173
31.19167,172
31.20000,172
31.20833,171
31.21667,171
31.22500,171
31.23333,171
31.24167,170
31.25000,170
31.25833,169
31.26667,168
31.27500,167
31.28333,166
31.29167,166
31.30000,164
31.30833,163
31.31667,162
31.32500,161
31.33333,160
31.34167,159
31.35000,158
31.35833,157
31.36667,156
31.37500,155
31.38333,154
31.39167,153
31.40000,152
31.40833,150
31.41667,149
31.42500,147
31.43333,145
31.44167,144
31.45000,142
31.45833,140
31.46667,139
31.47500,137
31.48333,136
31.49167,135
31.50000,134
31.50833,132
31.51667,131
31.52500,130
31.53333,129
31.54167,128
31.55000,127
31.55833,125
31.56667,124
31.57500,123
31.58333,122
31.59167,121
31.60000,120
31.60833,120
31.61667,119
31.62500,118
31.63333,118
31.64167,117
31.65000,117
31.65833,117
31.66667,117
31.67500,117
31.68333,118
31.69167,118
31.70000,119
31.70833,120
31.71667,121
31.72500,122
31.73333,123
31.74167,125
31.75000,127
31.75833,129
31.76667,131
31.77500,133
31.78333,135
31.79167,138
31.80000,141
31.80833,144
31.81667,147
31.82500,150
31.83333,154
31.84167,157
31.85000,161
31.85833,165
31.86667,170
31.87500,174
31.88333,179
31.89167,184
31.90000,189
31.90833,195
31.91667,201
31.92500,206
31.93333,212
31.94167,218
31.95000,224
31.95833,230
31.96667,236
31.97500,242
31.98333,249
31.99167,255
32.00000,262
32.00833,269
32.01667,275
32.02500,282
32.03333,288
32.04167,295
32.05000,302
32.05833,308
32.06667,314
32.07500,321
32.08333,328
32.09167,334
32.10000,340
32.10833,347
32.11667,353
32.12500,359
32.13333,366
32.14167,372
32.15000,378
32.15833,384
32.16667,390
32.17500,396
32.18333,401
32.19167,407
32.20000,412
32.20833,418
32.21667,422
32.22500,427
32.23333,432
32.24167,437
32.25000,442
32.25833,446
32.26667,450
32.27500,455
32.28333,459
32.29167,463
32.30000,466
32.30833,470
32.31667,473
32.32500,476
32.33333,479
32.34167,483
32.35000,486
32.35833,489
32.36667,492
32.37500,494
32.38333,497
32.39167,499
32.40000,502
32.40833,504
32.41667,505
32.42500,507
32.43333,509
32.44167,511
32.45000,512
32.45833,513
32.46667,514
32.47500,514
32.48333,515
32.49167,515
32.50000,515
32.50833,515
32.51667,515
32.52500,515
32.53333,514
32.54167,514
32.55000,513
32.55833,512
32.56667,511
32.57500,510
32.58333,509
32.59167,507
32.60000,505
32.60833,503
32.61667,501
32.62500,499
32.63333,496
32.64167,493
32.65000,491
32.65833,488
32.66667,485
32.67500,482
32.68333,479
32.69167,475
32.70000,472
32.70833,468
32.71667,465
32.72500,461
32.73333,457
32.74167,454
32.75000,450
32.75833,446
32.76667,443
32.77500,439
32.78333,435
32.79167,431
32.80000,428
32.80833,424
32.81667,421
32.82500,417
32.83333,414
32.84167,410
32.85000,406
32.85833,403
32.86667,399
32.87500,396
32.88333,392
32.89167,389
32.90000,386
32.90833,383
32.91667,381
32.92500,378
32.93333,375
32.94167,372
32.95000,370
32.95833,367
32.96667,365
32.97500,363
32.98333,361
32.99167,358
33.00000,356
33.00833,354
33.01667,352
33.02500,350
33.03333,348
33.04167,346
33.05000,344
33.05833,343
33.06667,341
33.07500,339
33.08333,338
33.09167,336
33.10000,334
33.10833,332
33.11667,331
33.12500,329
33.13333,328
33.14167,327
33.15000,325
33.15833,324
33.16667,323
33.17500,321
33.18333,319
33.19167,318
33.20000,316
33.20833,314
33.21667,312
33.22500,310
33.23333,308
33.24167,306
33.25000,304
33.25833,302
33.26667,300
33.27500,298
33.28333,295
33.29167,293
33.30000,291
33.30833,289
33.31667,287
33.32500,284
33.33333,282
33.34167,280
33.35000,277
33.35833,274
33.36667,271
33.37500,268
33.38333,266
33.39167,263
33.40000,260
33.40833,257
33.41667,254
33.42500,251
33.43333,248
33.44167,245
33.45000,242
33.45833,238
33.46667,235
33.47500,232
33.48333,228
33.49167,225
33.50000,221
33.50833,217
33.51667,214
33.52500,210
33.53333,207
33.54167,203
33.55000,200
33.55833,196
33.56667,192
33.57500,188
33.58333,184
33.59167,181
33.60000,177
33.60833,173
33.61667,169
33.62500,165
33.63333,162
33.64167,158
33.65000,154
33.65833,151
33.66667,147
33.67500,144
33.68333,140
33.69167,137
33.70000,133
33.70833,129
33.71667,125
33.72500,121
33.73333,118
33.74167,114
33.75000,111
33.75833,107
33.76667,104
33.77500,101
33.78333,98
33.79167,94
33.80000,91
33.80833,88
33.81667,85
33.82500,82
33.83333,79
33.84167,76
33.85000,73
33.85833,71
33.86667,68
33.87500,65
33.88333,62
33.89167,60
33.90000,57
33.90833,54
33.91667,52
33.92500,49
33.93333,47
33.94167,45
33.95000,43
33.95833,41
33.96667,39
33.97500,37
33.98333,35
33.99167,33
34.00000,31
34.00833,30
34.01667,28
34.02500,27
34.03333,25
34.04167,24
34.05000,23
34.05833,22
34.06667,20
34.07500,19
34.08333,18
34.09167,17
34.10000,15
34.10833,14
34.11667,13
34.12500,12
34.13333,11
34.14167,10
34.15000,10
34.15833,9
34.16667,8
34.17500,7
34.18333,6
34.19167,6
34.20000,6
34.20833,5
34.21667,4
34.22500,4
34.23333,3
34.24167,3
34.25000,2
34.25833,2
34.26667,2
34.27500,2
34.28333,2
34.29167,1
34.30000,0
34.30833,0
34.31667,-0
34.32500,-1
34.33333,-1
34.34167,-1
34.35000,-1
34.35833,-2
34.36667,-2
34.37500,-2
34.38333,-2
34.39167,-2
34.40000,-3
34.40833,-3
34.41667,-3
34.42500,-3
34.43333,-4
34.44167,-4
34.45000,-4
34.45833,-5
34.46667,-5
34.47500,-6
34.48333,-6
34.49167,-6
34.50000,-5
34.50833,-5
34.51667,-5
34.52500,-5
34.53333,-6
34.54167,-6
34.55000,-7
34.55833,-7
34.56667,-8
34.57500,-8
34.58333,-8
34.59167,-8
34.60000,-8
34.60833,-8
34.61667,-9
34.62500,-9
34.63333,-9
34.64167,-9
34.65000,-9
34.65833,-10
34.66667,-10
34.67500,-11
34.68333,-11
34.69167,-11
34.70000,-12
34.70833,-12
34.71667,-12
34.72500,-13
34.73333,-13
34.74167,-13
34.75000,-13
34.75833,-13
34.76667,-14
34.77500,-14
34.78333,-15
34.79167,-15
34.80000,-14
34.80833,-14
34.81667,-14
34.82500,-14
34.83333,-15
34.84167,-15
34.85000,-16
34.85833,-16
34.86667,-16
34.87500,-16
34.88333,-17
34.89167,-17
34.90000,-17
34.90833,-17
34.91667,-17
34.92500,-16
34.93333,-16
34.94167,-16
34.95000,-16
34.95833,-16
34.96667,-16
34.97500,-16
34.98333,-16
34.99167,-15
35.00000,-15
35.00833,-14
35.01667,-14
35.02500,-14
35.03333,-15
35.04167,-15
35.05000,-14
35.05833,-14
35.06667,-13
35.07500,-13
35.08333,-12
35.09167,-12
35.10000,-11
35.10833,-11
35.11667,-10
35.12500,-9
35.13333,-8
35.14167,-7
35.15000,-6
35.15833,-6
35.16667,-5
35.17500,-4
35.18333,-3
35.19167,-2
35.20000,-1
35.20833,0
35.21667,2
35.22500,3
35.23333,4
35.24167,5
35.25000,6
35.25833,7
35.26667,8
35.27500,9
35.28333,10
35.29167,12
35.30000,13
35.30833,14
35.31667,16
35.32500,17
35.33333,19
35.34167,20
35.35000,22
35.35833,23
35.36667,25
35.37500,26
35.38333,28
35.39167,29
35.40000,31
35.40833,32
35.41667,34
35.42500,36
35.43333,37
35.44167,39
35.45000,40
35.45833,42
35.46667,43
35.47500,44
35.48333,46
35.49167,47
35.50000,49
35.50833,50
35.51667,51
35.52500,52
35.53333,54
35.54167,55
35.55000,57
35.55833,58
35.56667,59
35.57500,60
35.58333,61
35.59167,62
35.60000,63
35.60833,64
35.61667,65
35.62500,67
35.63333,68
35.64167,69
35.65000,70
35.65833,70
35.66667,71
35.67500,72
35.68333,73
35.69167,73
35.70000,74
35.70833,75
35.71667,76
35.72500,77
35.73333,77
35.74167,78
35.75000,78
35.75833,79
35.76667,79
35.77500,80
35.78333,80
35.79167,81
35.80000,81
35.80833,82
35.81667,82
35.82500,83
35.83333,83
35.84167,83
35.85000,83
35.85833,84
35.86667,84
35.87500,84
35.88333,84
35.89167,84
35.90000,84
35.90833,85
35.91667,85
35.92500,85
35.93333,85
35.94167,84
35.95000,84
35.95833,84
35.96667,84
35.97500,84
35.98333,84
35.99167,84
36.00000,83
36.00833,83
36.01667,82
36.02500,82
36.03333,81
36.04167,81
36.05000,81
36.05833,80
36.06667,80
36.07500,79
36.08333,79
36.09167,78
36.10000,78
36.10833,77
36.11667,76
36.12500,75
36.13333,74
36.14167,73
36.15000,73
36.15833,72
36.16667,71
36.17500,70
36.18333,70
36.19167,69
36.20000,68
36.20833,67
36.21667,66
36.22500,65
36.23333,64
36.24167,63
36.25000,62
36.25833,61
36.26667,60
36.27500,59
36.28333,58
36.29167,57
36.30000,56
36.30833,55
36.31667,53
36.32500,52
36.33333,51
36.34167,50
36.35000,49
36.35833,48
36.36667,47
36.37500,47
36.38333,46
36.39167,45
36.40000,44
36.40833,43
36.41667,42
36.42500,41
36.43333,40
36.44167,39
36.45000,39
36.45833,38
36.46667,37
36.47500,36
36.48333,35
36.49167,35
36.50000,34
36.50833,33
36.51667,33
36.52500,32
36.53333,32
36.54167,31
36.55000,31
36.55833,30
36.56667,30
36.57500,30
36.58333,29
36.59167,29
36.60000,29
36.60833,29
36.61667,29
36.62500,29
36.63333,29
36.64167,29
36.65000,29
36.65833,28
36.66667,28
36.67500,28
36.68333,28
36.69167,28
36.70000,28
36.70833,28
36.71667,28
36.72500,28
36.73333,28
36.74167,28
36.75000,28
36.75833,29
36.76667,29
36.77500,29
36.78333,29
36.79167,29
36.80000,29
36.80833,30
36.81667,30
36.82500,30
36.83333,31
36.84167,31
36.85000,31
36.85833,32
36.86667,32
36.87500,33
36.88333,33
36.89167,34
36.90000,34
36.90833,35
36.91667,35
36.92500,36
36.93333,37
36.94167,37
36.95000,38
36.95833,38
36.96667,38
36.97500,39
36.98333,40
36.99167,41
37.00000,42
37.00833,42
37.01667,43
37.02500,44
37.03333,45
37.04167,46
37.05000,46
37.05833,47
37.06667,47
37.07500,48
37.08333,49
37.09167,49
37.10000,50
37.10833,51
37.11667,52
37.12500,53
37.13333,54
37.14167,55
37.15000,56
37.15833,57
37.16667,58
37.17500,58
37.18333,59
37.19167,60
37.20000,61
37.20833,62
37.21667,63
37.22500,64
37.23333,65
37.24167,66
37.25000,67
37.25833,68
37.26667,68
37.27500,69
37.28333,70
37.29167,72
37.30000,73
37.30833,74
37.31667,74
37.32500,75
37.33333,76
37.34167,77
37.35000,78
37.35833,79
37.36667,80
37.37500,81
37.38333,82
37.39167,83
37.40000,84
37.40833,85
37.41667,86
37.42500,87
37.43333,88
37.44167,89
37.45000,90
37.45833,91
37.46667,92
37.47500,93
37.48333,94
37.49167,95
37.50000,96
37.50833,97
37.51667,98
37.52500,98
37.53333,99
37.54167,100
37.55000,101
37.55833,101
37.56667,102
37.57500,104
37.58333,105
37.59167,106
37.60000,106
37.60833,107
37.61667,108
37.62500,108
37.63333,109
37.64167,110
37.65000,111
37.65833,112
37.66667,112
37.67500,113
37.68333,113
37.69167,114
37.70000,114
37.70833,114
37.71667,115
37.72500,115
37.73333,115
37.74167,116
37.75000,116
37.75833,116
37.76667,116
37.77500,117
37.78333,117
37.79167,117
37.80000,116
37.80833,116
37.81667,116
37.82500,116
37.83333,117
37.84167,117
37.85000,117
37.85833,116
37.86667,116
37.87500,116
37.88333,116
37.89167,116
37.90000,116
37.90833,116
37.91667,115
37.92500,114
37.93333,114
37.94167,113
37.95000,112
37.95833,112
37.96667,111
37.97500,111
37.98333,111
37.99167,110
38.00000,110
38.00833,109
38.01667,108
38.02500,108
38.03333,107
38.04167,106
38.05000,106
38.05833,105
38.06667,104
38.07500,103
38.08333,102
38.09167,101
38.10000,100
38.10833,99
38.11667,99
38.12500,97
38.13333,96
38.14167,95
38.15000,94
38.15833,92
38.16667,91
38.17500,90
38.18333,89
38.19167,87
38.20000,86
38.20833,85
38.21667,84
38.22500,83
38.23333,82
38.24167,81
38.25000,80
38.25833,78
38.26667,77
38.27500,75
38.28333,74
38.29167,73
38.30000,71
38.30833,70
38.31667,69
38.32500,68
38.33333,66
38.34167,65
38.35000,63
38.35833,62
38.36667,60
38.37500,59
38.38333,57
38.39167,56
38.40000,54
38.40833,53
38.41667,52
38.42500,50
38.43333,49
38.44167,48
38.45000,46
38.45833,45
38.46667,43
38.47500,41
38.48333,40
38.49167,39
38.50000,37
38.50833,36
38.51667,35
38.52500,33
38.53333,32
38.54167,31
38.55000,29
38.55833,28
38.56667,26
38.57500,24
38.58333,23
38.59167,21
38.60000,19
38.60833,18
38.61667,17
38.62500,16
38.63333,15
38.64167,13
38.65000,12
38.65833,11
38.66667,10
38.67500,8
38.68333,7
38.69167,6
38.70000,5
38.70833,4
38.71667,2
38.72500,1
38.73333,0
38.74167,-1
38.75000,-2
38.75833,-3
38.76667,-5
38.77500,-5
38.78333,-6
38.79167,-7
38.80000,-8
38.80833,-9
38.81667,-9
38.82500,-10
38.83333,-11
38.84167,-12
38.85000,-12
38.85833,-13
38.86667,-14
38.87500,-14
38.88333,-15
38.89167,-17
38.90000,-18
38.90833,-19
38.91667,-19
38.92500,-20
38.93333,-20
38.94167,-21
38.95000,-21
38.95833,-22
38.96667,-22
38.97500,-22
38.98333,-23
38.99167,-23
39.00000,-23
39.00833,-24
39.01667,-24
39.02500,-24
39.03333,-25
39.04167,-25
39.05000,-25
39.05833,-26
39.06667,-26
39.07500,-27
39.08333,-27
39.09167,-28
39.10000,-28
39.10833,-29
39.11667,-30
39.12500,-30
39.13333,-30
39.14167,-30
39.15000,-31
39.15833,-31
39.16667,-31
39.17500,-31
39.18333,-31
39.19167,-32
39.20000,-32
39.20833,-32
39.21667,-32
39.22500,-32
39.23333,-33
39.24167,-33
39.25000,-33
39.25833,-34
39.26667,-34
39.27500,-34
39.28333,-34
39.29167,-34
39.30000,-34
39.30833,-34
39.31667,-34
39.32500,-34
39.33333,-34
39.34167,-35
39.35000,-35
39.35833,-35
39.36667,-36
39.37500,-36
39.38333,-36
39.39167,-36
39.40000,-36
39.40833,-37
39.41667,-37
39.42500,-36
39.43333,-36
39.44167,-36
39.45000,-36
39.45833,-36
39.46667,-36
39.47500,-36
39.48333,-37
39.49167,-37
39.50000,-37
39.50833,-37
39.51667,-37
39.52500,-37
39.53333,-37
39.54167,-37
39.55000,-37
39.55833,-37
39.56667,-37
39.57500,-37
39.58333,-37
39.59167,-37
39.60000,-37
39.60833,-37
39.61667,-38
39.62500,-37
39.63333,-38
39.64167,-38
39.65000,-38
39.65833,-38
39.66667,-37
39.67500,-37
39.68333,-37
39.69167,-37
39.70000,-37
39.70833,-37
39.71667,-37
39.72500,-37
39.73333,-37
39.74167,-37
39.75000,-37
39.75833,-37
39.76667,-37
39.77500,-37
39.78333,-38
39.79167,-38
39.80000,-38
39.80833,-39
39.81667,-38
39.82500,-38
39.83333,-38
39.84167,-38
39.85000,-38
39.85833,-39
39.86667,-39
39.87500,-38
39.88333,-38
39.89167,-38
39.90000,-38
39.90833,-38
39.91667,-38
39.92500,-38
39.93333,-39
39.94167,-38
39.95000,-38
39.95833,-38
39.96667,-38
39.97500,-39
39.98333,-39
39.99167,-39
40.00000,-39
40.00833,-39
40.01667,-39
40.02500,-39
40.03333,-39
40.04167,-39
40.05000,-39
40.05833,-39
40.06667,-39
40.07500,-39
40.08333,-39
40.09167,-39
40.10000,-39
40.10833,-39
40.11667,-39
40.12500,-39
40.13333,-38
40.14167,-38
40.15000,-38
40.15833,-38
40.16667,-38
40.17500,-38
40.18333,-38
40.19167,-37
40.20000,-37
40.20833,-37
40.21667,-37
40.22500,-38
40.23333,-38
40.24167,-38
40.25000,-38
40.25833,-38
40.26667,-38
40.27500,-38
40.28333,-38
40.29167,-38
40.30000,-37
40.30833,-36
40.31667,-36
40.32500,-36
40.33333,-36
40.34167,-36
40.35000,-36
40.35833,-36
40.36667,-36
40.37500,-36
40.38333,-36
40.39167,-36
40.40000,-35
40.40833,-35
40.41667,-34
40.42500,-34
40.43333,-34
40.44167,-33
40.45000,-33
40.45833,-32
40.46667,-32
40.47500,-32
40.48333,-31
40.49167,-31
40.50000,-31
40.50833,-31
40.51667,-30
40.52500,-30
40.53333,-29
40.54167,-29
40.55000,-29
40.55833,-28
40.56667,-28
40.57500,-27
40.58333,-27
40.59167,-26
40.60000,-25
40.60833,-24
40.61667,-24
40.62500,-23
40.63333,-23
40.64167,-22
40.65000,-21
40.65833,-20
40.66667,-20
40.67500,-19
40.68333,-19
40.69167,-18
40.70000,-17
40.70833,-16
40.71667,-15
40.72500,-14
40.73333,-13
40.74167,-12
40.75000,-11
40.75833,-10
40.76667,-10
40.77500,-9
40.78333,-8
40.79167,-7
40.80000,-6
40.80833,-4
40.81667,-3
40.82500,-2
40.83333,-1
40.84167,0
40.85000,1
40.85833,2
40.86667,3
40.87500,4
40.88333,5
40.89167,7
40.90000,8
40.90833,9
40.91667,10
40.92500,12
40.93333,13
40.94167,14
40.95000,15
40.95833,16
40.96667,17
40.97500,19
40.98333,20
40.99167,22
41.00000,23
41.00833,25
41.01667,26
41.02500,27
41.03333,29
41.04167,30
41.05000,31
41.05833,32
41.06667,34
41.07500,35
41.08333,36
41.09167,37
41.10000,39
41.10833,40
41.11667,41
41.12500,43
41.13333,44
41.14167,45
41.15000,47
41.15833,48
41.16667,50
41.17500,51
41.18333,53
41.19167,55
41.20000,56
41.20833,57
41.21667,58
41.22500,60
41.23333,61
41.24167,62
41.25000,64
41.25833,65
41.26667,66
41.27500,67
41.28333,69
41.29167,70
41.30000,72
41.30833,73
41.31667,74
41.32500,76
41.33333,77
41.34167,79
41.35000,80
41.35833,82
41.36667,84
41.37500,85
41.38333,86
41.39167,87
41.40000,89
41.40833,90
41.41667,92
41.42500,93
41.43333,94
41.44167,95
41.45000,96
41.45833,98
41.46667,99
41.47500,101
41.48333,102
41.49167,104
41.50000,105
41.50833,107
41.51667,108
41.52500,109
41.53333,110
41.54167,112
41.55000,113
41.55833,114
41.56667,115
41.57500,116
41.58333,117
41.59167,118
41.60000,120
41.60833,121
41.61667,122
41.62500,123
41.63333,124
41.64167,125
41.65000,125
41.65833,126
41.66667,127
41.67500,128
41.68333,129
41.69167,130
41.70000,131
41.70833,132
41.71667,133
41.72500,134
41.73333,135
41.74167,136
41.75000,137
41.75833,138
41.76667,139
41.77500,139
41.78333,140
41.79167,140
41.80000,141
41.80833,141
41.81667,142
41.82500,143
41.83333,144
41.84167,144
41.85000,145
41.85833,145
41.86667,145
41.87500,146
41.88333,146
41.89167,146
41.90000,146
41.90833,147
41.91667,147
41.92500,148
41.93333,148
41.94167,148
41.95000,148
41.95833,148
41.96667,148
41.97500,149
41.98333,149
41.99167,149
42.00000,149
42.00833,149
42.01667,149
42.02500,150
42.03333,150
42.04167,150
42.05000,150
42.05833,150
42.06667,150
42.07500,150
42.08333,150
42.09167,151
42.10000,151
42.10833,150
42.11667,150
42.12500,149
42.13333,149
42.14167,149
42.15000,148
42.15833,148
42.16667,148
42.17500,148
42.18333,148
42.19167,148
42.20000,148
42.20833,148
42.21667,148
42.22500,148
42.23333,147
42.24167,146
42.25000,146
42.25833,146
42.26667,145
42.27500,145
42.28333,145
42.29167,144
42.30000,144
42.30833,144
42.31667,144
42.32500,144
42.33333,144
42.34167,143
42.35000,143
42.35833,142
42.36667,142
42.37500,141
42.38333,140
42.39167,140
42.40000,139
42.40833,139
42.41667,138
42.42500,138
42.43333,137
42.44167,136
42.45000,136
42.45833,135
42.46667,135
42.47500,134
42.48333,134
42.49167,133
42.50000,132
42.50833,132
42.51667,131
42.52500,131
42.53333,130
42.54167,129
42.55000,128
42.55833,128
42.56667,127
42.57500,126
42.58333,126
42.59167,125
42.60000,125
42.60833,124
42.61667,123
42.62500,122
42.63333,122
42.64167,121
42.65000,120
42.65833,119
42.66667,119
42.67500,118
42.68333,117
42.69167,116
42.70000,116
42.70833,115
42.71667,114
42.72500,112
42.73333,111
42.74167,110
42.75000,109
42.75833,108
42.76667,107
42.77500,107
42.78333,106
42.79167,105
42.80000,104
42.80833,103
42.81667,102
42.82500,101
42.83333,100
42.84167,99
42.85000,98
42.85833,97
42.86667,97
42.87500,96
42.88333,95
42.89167,95
42.90000,94
42.90833,93
42.91667,92
42.92500,91
42.93333,90
42.94167,90
42.95000,89
42.95833,88
42.96667,87
42.97500,86
42.98333,86
42.99167,85
43.00000,84
43.00833,83
43.01667,83
43.02500,82
43.03333,80
43.04167,79
43.05000,79
43.05833,78
43.06667,77
43.07500,76
43.08333,75
43.09167,75
43.10000,74
43.10833,73
43.11667,72
43.12500,72
43.13333,71
43.14167,70
43.15000,69
43.15833,68
43.16667,68
43.17500,67
43.18333,66
43.19167,65
43.20000,63
43.20833,63
43.21667,62
43.22500,61
43.23333,61
43.24167,60
43.25000,59
43.25833,58
43.26667,57
43.27500,56
43.28333,56
43.29167,55
43.30000,55
43.30833,54
43.31667,53
43.32500,52
43.33333,51
43.34167,50
43.35000,49
43.35833,48
43.36667,48
43.37500,47
43.38333,47
43.39167,46
43.40000,45
43.40833,45
43.41667,44
43.42500,44
43.43333,43
43.44167,42
43.45000,41
43.45833,40
43.46667,39
43.47500,38
43.48333,37
43.49167,36
43.50000,35
43.50833,35
43.51667,34
43.52500,34
43.53333,33
43.54167,33
43.55000,32
43.55833,31
43.56667,31
43.57500,30
43.58333,29
43.59167,29
43.60000,28
43.60833,27
43.61667,26
43.62500,25
43.63333,24
43.64167,23
43.65000,23
43.65833,23
43.66667,23
43.67500,22
43.68333,21
43.69167,20
43.70000,19
43.70833,19
43.71667,18
43.72500,18
43.73333,17
43.74167,17
43.75000,16
43.75833,16
43.76667,15
43.77500,14
43.78333,14
43.79167,13
43.80000,13
43.80833,12
43.81667,11
43.82500,10
43.83333,10
43.84167,9
43.85000,9
43.85833,8
43.86667,8
43.87500,8
43.88333,7
43.89167,7
43.90000,6
43.90833,5
43.91667,4
43.92500,3
43.93333,3
43.94167,2
43.95000,2
43.95833,1
43.96667,1
43.97500,0
43.98333,-0
43.99167,-1
44.00000,-1
44.00833,-2
44.01667,-3
44.02500,-3
44.03333,-4
44.04167,-4
44.05000,-5
44.05833,-6
44.06667,-6
44.07500,-7
44.08333,-7
44.09167,-8
44.10000,-8
44.10833,-9
44.11667,-9
44.12500,-9
44.13333,-10
44.14167,-11
44.15000,-11
44.15833,-12
44.16667,-13
44.17500,-13
44.18333,-13
44.19167,-14
44.20000,-14
44.20833,-15
44.21667,-15
44.22500,-16
44.23333,-16
44.24167,-17
44.25000,-17
44.25833,-18
44.26667,-18
44.27500,-18
44.28333,-19
44.29167,-19
44.30000,-19
44.30833,-19
44.31667,-20
44.32500,-20
44.33333,-21
44.34167,-22
44.35000,-22
44.35833,-23
44.36667,-23
44.37500,-23
44.38333,-23
44.39167,-24
44.40000,-25
44.40833,-25
44.41667,-26
44.42500,-26
44.43333,-27
44.44167,-27
44.45000,-28
44.45833,-28
44.46667,-28
44.47500,-28
44.48333,-29
44.49167,-29
44.50000,-30
44.50833,-30
44.51667,-30
44.52500,-31
44.53333,-31
44.54167,-31
44.55000,-32
44.55833,-32
44.56667,-32
44.57500,-32
44.58333,-33
44.59167,-33
44.60000,-33
44.60833,-34
44.61667,-34
44.62500,-35
44.63333,-35
44.64167,-35
44.65000,-36
44.65833,-36
44.66667,-36
44.67500,-36
44.68333,-36
44.69167,-36
44.70000,-36
44.70833,-37
44.71667,-37
44.72500,-38
44.73333,-38
44.74167,-38
44.75000,-39
44.75833,-39
44.76667,-39
44.77500,-40
44.78333,-40
44.79167,-40
44.80000,-40
44.80833,-41
44.81667,-41
44.82500,-41
44.83333,-41
44.84167,-42
44.85000,-42
44.85833,-41
44.86667,-41
44.87500,-42
44.88333,-42
44.89167,-42
44.90000,-43
44.90833,-43
44.91667,-43
44.92500,-44
44.93333,-44
44.94167,-44
44.95000,-44
44.95833,-45
44.96667,-45
44.97500,-45
44.98333,-45
44.99167,-45
45.00000,-45
45.00833,-45
45.01667,-46
45.02500,-46
45.03333,-46
45.04167,-46
45.05000,-46
45.05833,-46
45.06667,-46
45.07500,-46
45.08333,-46
45.09167,-46
45.10000,-46
45.10833,-46
45.11667,-46
45.12500,-47
45.13333,-47
45.14167,-47
45.15000,-47
45.15833,-47
45.16667,-47
45.17500,-47
45.18333,-47
45.19167,-47
45.20000,-47
45.20833,-48
45.21667,-48
45.22500,-48
45.23333,-48
45.24167,-48
45.25000,-48
45.25833,-48
45.26667,-48
45.27500,-48
45.28333,-48
45.29167,-48
45.30000,-49
45.30833,-49
45.31667,-48
45.32500,-48
45.33333,-48
45.34167,-47
45.35000,-47
45.35833,-47
45.36667,-48
45.37500,-48
45.38333,-48
45.39167,-48
45.40000,-48
45.40833,-48
45.41667,-49
45.42500,-49
45.43333,-49
45.44167,-49
45.45000,-49
45.45833,-49
45.46667,-49
45.47500,-49
45.48333,-49
45.49167,-49
45.50000,-49
45.50833,-49
45.51667,-49
45.52500,-49
45.53333,-49
45.54167,-49
45.55000,-49
45.55833,-49
45.56667,-50
45.57500,-50
45.58333,-50
45.59167,-49
45.60000,-49
45.60833,-49
45.61667,-49
45.62500,-49
45.63333,-49
45.64167,-50
45.65000,-50
45.65833,-50
45.66667,-50
45.67500,-50
45.68333,-50
45.69167,-50
45.70000,-50
45.70833,-50
45.71667,-51
45.72500,-51
45.73333,-51
45.74167,-51
45.75000,-51
45.75833,-51
45.76667,-51
45.77500,-51
45.78333,-51
45.79167,-51
45.80000,-51
45.80833,-51
45.81667,-52
45.82500,-52
45.83333,-52
45.84167,-52
45.85000,-52
45.85833,-52
45.86667,-51
45.87500,-51
45.88333,-51
45.89167,-52
45.90000,-52
45.90833,-52
45.91667,-53
45.92500,-53
45.93333,-53
45.94167,-53
45.95000,-53
45.95833,-53
45.96667,-53
45.97500,-54
45.98333,-54
45.99167,-55
46.00000,-56
46.00833,-56
46.01667,-57
46.02500,-57
46.03333,-57
46.04167,-57
46.05000,-57
46.05833,-57
46.06667,-57
46.07500,-57
46.08333,-57
46.09167,-56
46.10000,-57
46.10833,-57
46.11667,-57
46.12500,-57
46.13333,-57
46.14167,-58
46.15000,-58
46.15833,-58
46.16667,-58
46.17500,-59
46.18333,-59
46.19167,-59
46.20000,-59
46.20833,-60
46.21667,-60
46.22500,-60
46.23333,-60
46.24167,-61
46.25000,-61
46.25833,-62
46.26667,-62
46.27500,-62
46.28333,-62
46.29167,-62
46.30000,-62
46.30833,-62
46.31667,-62
46.32500,-62
46.33333,-63
46.34167,-63
46.35000,-63
46.35833,-64
46.36667,-64
46.37500,-64
46.38333,-65
46.39167,-65
46.40000,-65
46.40833,-65
46.41667,-65
46.42500,-65
46.43333,-66
46.44167,-66
46.45000,-67
46.45833,-67
46.46667,-68
46.47500,-68
46.48333,-68
46.49167,-69
46.50000,-69
46.50833,-69
46.51667,-69
46.52500,-69
46.53333,-69
46.54167,-69
46.55000,-70
46.55833,-70
46.56667,-70
46.57500,-70
46.58333,-71
46.59167,-71
46.60000,-71
46.60833,-71
46.61667,-71
46.62500,-71
46.63333,-72
46.64167,-72
46.65000,-73
46.65833,-73
46.66667,-73
46.67500,-73
46.68333,-73
46.69167,-73
46.70000,-73
46.70833,-73
46.71667,-74
46.72500,-74
46.73333,-75
46.74167,-75
46.75000,-76
46.75833,-76
46.76667,-76
46.77500,-76
46.78333,-76
46.79167,-76
46.80000,-76
46.80833,-76
46.81667,-76
46.82500,-77
46.83333,-77
46.84167,-77
46.85000,-77
46.85833,-77
46.86667,-77
46.87500,-77
46.88333,-78
46.89167,-78
46.90000,-78
46.90833,-79
46.91667,-79
46.92500,-79
46.93333,-79
46.94167,-79
46.95000,-78
46.95833,-78
46.96667,-78
46.97500,-78
46.98333,-79
46.99167,-79
47.00000,-79
47.00833,-79
47.01667,-79
47.02500,-79
47.03333,-79
47.04167,-79
47.05000,-79
47.05833,-79
47.06667,-79
47.07500,-79
47.08333,-79
47.09167,-79
47.10000,-78
47.10833,-78
47.11667,-78
47.12500,-78
47.13333,-77
47.14167,-77
47.15000,-77
47.15833,-77
47.16667,-77
47.17500,-77
47.18333,-77
47.19167,-76
47.20000,-76
47.20833,-76
47.21667,-75
47.22500,-75
47.23333,-75
47.24167,-75
47.25000,-74
47.25833,-74
47.26667,-74
47.27500,-74
47.28333,-73
47.29167,-73
47.30000,-72
47.30833,-72
47.31667,-71
47.32500,-71
47.33333,-70
47.34167,-70
47.35000,-69
47.35833,-69
47.36667,-69
47.37500,-68
47.38333,-67
47.39167,-66
47.40000,-66
47.40833,-65
47.41667,-65
47.42500,-64
47.43333,-63
47.44167,-62
47.45000,-62
47.45833,-62
47.46667,-61
47.47500,-61
47.48333,-61
47.49167,-60
47.50000,-60
47.50833,-59
47.51667,-58
47.52500,-57
47.53333,-56
47.54167,-55
47.55000,-54
47.55833,-53
47.56667,-52
47.57500,-51
47.58333,-51
47.59167,-50
47.60000,-50
47.60833,-49
47.61667,-48
47.62500,-47
47.63333,-46
47.64167,-45
47.65000,-45
47.65833,-44
47.66667,-43
47.67500,-42
47.68333,-42
47.69167,-41
47.70000,-40
47.70833,-39
47.71667,-38
47.72500,-37
47.73333,-36
47.74167,-36
47.75000,-35
47.75833,-34
47.76667,-33
47.77500,-32
47.78333,-32
47.79167,-31
47.80000,-30
47.80833,-29
47.81667,-29
47.82500,-28
47.83333,-27
47.84167,-26
47.85000,-26
47.85833,-25
47.86667,-24
47.87500,-23
47.88333,-23
47.89167,-22
47.90000,-21
47.90833,-21
47.91667,-20
47.92500,-20
47.93333,-20
47.94167,-19
47.95000,-19
47.95833,-18
47.96667,-18
47.97500,-17
47.98333,-17
47.99167,-17
48.00000,-16
48.00833,-15
48.01667,-15
48.02500,-14
48.03333,-13
48.04167,-12
48.05000,-12
48.05833,-12
48.06667,-12
48.07500,-11
48.08333,-11
48.09167,-10
48.10000,-9
48.10833,-9
48.11667,-8
48.12500,-8
48.13333,-7
48.14167,-7
48.15000,-7
48.15833,-6
48.16667,-6
48.17500,-5
48.18333,-5
48.19167,-5
48.20000,-5
48.20833,-5
48.21667,-5
48.22500,-5
48.23333,-5
48.24167,-4
48.25000,-4
48.25833,-4
48.26667,-3
48.27500,-3
48.28333,-3
48.29167,-3
48.30000,-3
48.30833,-3
48.31667,-3
48.32500,-2
48.33333,-2
48.34167,-2
48.35000,-2
48.35833,-2
48.36667,-2
48.37500,-2
48.38333,-1
48.39167,-1
48.40000,-1
48.40833,-1
48.41667,-0
48.42500,-0
48.43333,-0
48.44167,0
48.45000,0
48.45833,-0
48.46667,-0
48.47500,-1
48.48333,-1
48.49167,-1
48.50000,-0
48.50833,-0
48.51667,-0
48.52500,0
48.53333,-0
48.54167,-0
48.55000,-0
48.55833,-0
48.56667,-0
48.57500,-0
48.58333,-0
48.59167,-0
48.60000,-0
48.60833,-0
48.61667,-0
48.62500,-0
48.63333,-1
48.64167,-1
48.65000,-2
48.65833,-2
48.66667,-1
48.67500,-1
48.68333,-1
48.69167,-1
48.70000,-1
48.70833,-0
48.71667,-0
48.72500,-1
48.73333,-1
48.74167,-1
48.75000,-1
48.75833,-1
48.76667,-0
48.77500,-0
48.78333,0
48.79167,0
48.80000,-0
48.80833,-0
48.81667,-1
48.82500,-1
48.83333,-1
48.84167,-1
48.85000,-1
48.85833,-1
48.86667,-1
48.87500,-0
48.88333,-0
48.89167,-0
48.90000,0
48.90833,0
48.91667,1
48.92500,1
48.93333,1
48.94167,1
48.95000,2
48.95833,2
48.96667,2
48.97500,2
48.98333,1
48.99167,1
49.00000,1
49.00833,1
49.01667,1
49.02500,1
49.03333,1
49.04167,1
49.05000,0
49.05833,0
49.06667,-0
49.07500,-0
49.08333,-0
49.09167,-0
49.10000,-1
49.10833,-1
49.11667,-1
49.12500,-1
49.13333,-0
49.14167,0
49.15000,0
49.15833,1
49.16667,1
49.17500,1
49.18333,1
49.19167,1
49.20000,1
49.20833,1
49.21667,1
49.22500,1
49.23333,1
49.24167,0
49.25000,0
49.25833,0
49.26667,-0
49.27500,-0
49.28333,-0
49.29167,-0
49.30000,-0
49.30833,-0
49.31667,-0
49.32500,-0
49.33333,-0
49.34167,-1
49.35000,-1
49.35833,-1
49.36667,-1
49.37500,-1
49.38333,-2
49.39167,-2
49.40000,-2
49.40833,-2
49.41667,-2
49.42500,-2
49.43333,-3
49.44167,-3
49.45000,-3
49.45833,-3
49.46667,-4
49.47500,-4
49.48333,-4
49.49167,-4
49.50000,-4
49.50833,-4
49.51667,-5
49.52500,-5
49.53333,-5
49.54167,-6
49.55000,-6
49.55833,-6
49.56667,-6
49.57500,-6
49.58333,-6
49.59167,-7
49.60000,-7
49.60833,-8
49.61667,-8
49.62500,-8
49.63333,-9
49.64167,-9
49.65000,-9
49.65833,-9
49.66667,-9
49.67500,-10
49.68333,-10
49.69167,-11
49.70000,-11
49.70833,-12
49.71667,-13
49.72500,-13
49.73333,-14
49.74167,-14
49.75000,-15
49.75833,-15
49.76667,-16
49.77500,-16
49.78333,-17
49.79167,-17
49.80000,-18
49.80833,-18
49.81667,-19
49.82500,-19
49.83333,-20
49.84167,-20
49.85000,-21
49.85833,-22
49.86667,-23
49.87500,-23
49.88333,-24
49.89167,-24
49.90000,-25
49.90833,-25
49.91667,-26
49.92500,-27
49.93333,-28
49.94167,-29
49.95000,-29
49.95833,-30
49.96667,-30
49.97500,-31
49.98333,-31
49.99167,-32
50.00000,-32

