[Header]
Application Name,LabSolutions
Version,5.97 SP1
Data File Name,C:\Users\cremerlab\Desktop\Richa\Sep_6th_2022_re-run_Sep2nd\Sep 6th_962022_011_012.lcd
Output Date,9/7/2022
Output Time,2:25:42 AM

[File Information]
Type,Data File
Generated,9/7/2022 1:35:23 AM
Generated by,System Administrator
Modified,9/7/2022 2:25:42 AM
Modified by,System Administrator

[Sample Information]
Operator Name,System Administrator
Acquired,9/7/2022 1:35:41 AM
Sample Type,0:Unknown
Level,0
Sample Name,090622_B.theta_3
Sample ID,011
ISTD Amount1,1
ISTD Amount2,1
ISTD Amount3,1
ISTD Amount4,1
ISTD Amount5,1
ISTD Amount6,1
ISTD Amount7,1
ISTD Amount8,1
ISTD Amount9,1
ISTD Amount10,1
ISTD Amount11,1
ISTD Amount12,1
ISTD Amount13,1
ISTD Amount14,1
ISTD Amount15,1
ISTD Amount16,1
ISTD Amount17,1
ISTD Amount18,1
ISTD Amount19,1
ISTD Amount20,1
ISTD Amount21,1
ISTD Amount22,1
ISTD Amount23,1
ISTD Amount24,1
ISTD Amount25,1
ISTD Amount26,1
ISTD Amount27,1
ISTD Amount28,1
ISTD Amount29,1
ISTD Amount30,1
ISTD Amount31,1
ISTD Amount32,1
Sample Amount,1
Dilution Factor,1
Vial#,11
Injection Volume,20

[Original Files]
Data File,C:\Users\cremerlab\Desktop\Richa\Sep_6th_2022_re-run_Sep2nd\Sep 6th_962022_011_012.lcd
Method File,C:\Users\cremerlab\Desktop\Richa\acetate_excretion.lcm
Batch File,C:\Users\cremerlab\Desktop\Richa\Sep_6th_2022_re-run_Sep2nd\Sep 6th.lcb
Report Format File,c:\LabSolutions\System\DEFAULT.lsr

[File Description]


[Configuration]
Instrument Name,HPLC-PC-Instrument1
Instrument #,1
Line #,1
# of Detectors,2
Detector ID,Detector A,Detector B
Detector Name,Detector A,Detector B
# of Channels,1,1

[Peak Table(Detector A)]
# of Peaks,0

[Peak Table(Detector B)]
# of Peaks,12
Peak#,R.Time,I.Time,F.Time,Area,Height,A/H,Conc.,Mark,ID#,Name,k',Plate #,Plate Ht.,Tailing,Resolution,Sep.Factor,Area Ratio,Height Ratio,Conc. %,Norm Conc.
1,10.475,10.267,10.517,1487,197,7.534,0.000,   ,,,0.000,6865,21.850,0.000,0.000,0.000,0,0,0.000,0.000
2,11.022,10.517,12.308,2256604,115075,19.610,0.000, V ,,,0.052,7515,19.961,0.976,1.079,0.000,0,0,0.000,0.000
3,14.331,12.650,15.183,3569017,76447,46.686,0.000,   ,,,0.368,2486,60.339,0.654,3.990,7.044,0,0,0.000,0.000
4,15.763,15.183,18.392,1398715,47639,29.361,0.000,SV ,,,0.505,6926,21.657,1.145,1.502,1.371,0,0,0.000,0.000
5,17.857,17.425,18.367,7046,244,28.838,0.000,T  ,,,0.705,8366,17.929,1.073,2.722,1.396,0,0,0.000,0.000
6,19.057,18.400,19.750,13564,311,43.682,0.000,   ,,,0.819,3866,38.803,1.013,1.196,1.163,0,0,0.000,0.000
7,20.299,19.750,20.608,22505,695,32.385,0.000,   ,,,0.938,3927,38.195,0.000,0.985,1.145,0,0,0.000,0.000
8,20.936,20.608,21.308,25958,680,38.191,0.000, V ,,,0.999,1064,141.009,0.000,0.330,1.065,0,0,0.000,0.000
9,21.743,21.308,22.583,36169,782,46.271,0.000, V ,,,1.076,2830,53.007,0.000,0.384,1.077,0,0,0.000,0.000
10,25.086,24.308,26.400,150391,3643,41.279,0.000,   ,,,1.395,8972,16.719,1.164,2.481,1.297,0,0,0.000,0.000
11,29.213,28.333,30.367,133352,2854,46.732,0.000,   ,,,1.789,9209,16.288,1.064,3.625,1.282,0,0,0.000,0.000
12,32.486,31.700,34.425,35817,443,80.927,0.000,   ,,,2.101,540,277.860,1.672,0.961,1.175,0,0,0.000,0.000

[LC Chromatogram(Detector B-Ch1)]
Interval(msec),500
# of Points,6001
Start Time(min),0.000
End Time(min),50.000
Intensity Units,mV
Intensity Multiplier,0.001
R.Time (min),Intensity
0.00000,-18
0.00833,-18
0.01667,-1
0.02500,-1
0.03333,-2
0.04167,-2
0.05000,-2
0.05833,-3
0.06667,-3
0.07500,-4
0.08333,-5
0.09167,-5
0.10000,-6
0.10833,-6
0.11667,-7
0.12500,-7
0.13333,-8
0.14167,-9
0.15000,-9
0.15833,-9
0.16667,-10
0.17500,-10
0.18333,-11
0.19167,-11
0.20000,-12
0.20833,-13
0.21667,-13
0.22500,-14
0.23333,-14
0.24167,-15
0.25000,-15
0.25833,-15
0.26667,-16
0.27500,-16
0.28333,-17
0.29167,-17
0.30000,-17
0.30833,-18
0.31667,-19
0.32500,-19
0.33333,-19
0.34167,-19
0.35000,-20
0.35833,-20
0.36667,-21
0.37500,-21
0.38333,-21
0.39167,-21
0.40000,-21
0.40833,-22
0.41667,-22
0.42500,-22
0.43333,-22
0.44167,-22
0.45000,-23
0.45833,-23
0.46667,-23
0.47500,-23
0.48333,-24
0.49167,-24
0.50000,-24
0.50833,-24
0.51667,-24
0.52500,-24
0.53333,-25
0.54167,-25
0.55000,-24
0.55833,-24
0.56667,-25
0.57500,-25
0.58333,-25
0.59167,-25
0.60000,-25
0.60833,-25
0.61667,-25
0.62500,-26
0.63333,-26
0.64167,-27
0.65000,-27
0.65833,-27
0.66667,-27
0.67500,-27
0.68333,-27
0.69167,-27
0.70000,-27
0.70833,-27
0.71667,-27
0.72500,-27
0.73333,-27
0.74167,-27
0.75000,-26
0.75833,-26
0.76667,-26
0.77500,-26
0.78333,-26
0.79167,-26
0.80000,-26
0.80833,-26
0.81667,-26
0.82500,-26
0.83333,-26
0.84167,-26
0.85000,-26
0.85833,-26
0.86667,-26
0.87500,-25
0.88333,-25
0.89167,-26
0.90000,-26
0.90833,-26
0.91667,-26
0.92500,-26
0.93333,-26
0.94167,-25
0.95000,-25
0.95833,-25
0.96667,-25
0.97500,-25
0.98333,-25
0.99167,-25
1.00000,-25
1.00833,-24
1.01667,-24
1.02500,-24
1.03333,-23
1.04167,-23
1.05000,-23
1.05833,-23
1.06667,-22
1.07500,-22
1.08333,-22
1.09167,-22
1.10000,-23
1.10833,-22
1.11667,-22
1.12500,-22
1.13333,-22
1.14167,-22
1.15000,-22
1.15833,-21
1.16667,-20
1.17500,-20
1.18333,-20
1.19167,-20
1.20000,-20
1.20833,-20
1.21667,-20
1.22500,-20
1.23333,-20
1.24167,-20
1.25000,-20
1.25833,-21
1.26667,-21
1.27500,-20
1.28333,-20
1.29167,-19
1.30000,-19
1.30833,-18
1.31667,-18
1.32500,-18
1.33333,-17
1.34167,-17
1.35000,-17
1.35833,-17
1.36667,-17
1.37500,-17
1.38333,-17
1.39167,-17
1.40000,-17
1.40833,-17
1.41667,-16
1.42500,-16
1.43333,-15
1.44167,-15
1.45000,-15
1.45833,-15
1.46667,-15
1.47500,-15
1.48333,-15
1.49167,-15
1.50000,-15
1.50833,-15
1.51667,-15
1.52500,-14
1.53333,-14
1.54167,-13
1.55000,-13
1.55833,-12
1.56667,-12
1.57500,-12
1.58333,-12
1.59167,-12
1.60000,-12
1.60833,-13
1.61667,-12
1.62500,-12
1.63333,-12
1.64167,-12
1.65000,-11
1.65833,-11
1.66667,-11
1.67500,-11
1.68333,-11
1.69167,-11
1.70000,-11
1.70833,-11
1.71667,-10
1.72500,-10
1.73333,-10
1.74167,-10
1.75000,-10
1.75833,-10
1.76667,-10
1.77500,-10
1.78333,-10
1.79167,-10
1.80000,-10
1.80833,-10
1.81667,-10
1.82500,-10
1.83333,-10
1.84167,-10
1.85000,-10
1.85833,-10
1.86667,-9
1.87500,-9
1.88333,-9
1.89167,-10
1.90000,-10
1.90833,-10
1.91667,-10
1.92500,-10
1.93333,-10
1.94167,-9
1.95000,-9
1.95833,-9
1.96667,-9
1.97500,-9
1.98333,-9
1.99167,-8
2.00000,-8
2.00833,-8
2.01667,-8
2.02500,-8
2.03333,-8
2.04167,-8
2.05000,-9
2.05833,-9
2.06667,-9
2.07500,-9
2.08333,-10
2.09167,-10
2.10000,-10
2.10833,-10
2.11667,-10
2.12500,-10
2.13333,-10
2.14167,-9
2.15000,-9
2.15833,-9
2.16667,-9
2.17500,-9
2.18333,-10
2.19167,-10
2.20000,-10
2.20833,-10
2.21667,-9
2.22500,-10
2.23333,-10
2.24167,-10
2.25000,-10
2.25833,-10
2.26667,-11
2.27500,-11
2.28333,-11
2.29167,-11
2.30000,-11
2.30833,-11
2.31667,-10
2.32500,-10
2.33333,-10
2.34167,-10
2.35000,-11
2.35833,-11
2.36667,-10
2.37500,-10
2.38333,-11
2.39167,-11
2.40000,-10
2.40833,-10
2.41667,-11
2.42500,-11
2.43333,-11
2.44167,-11
2.45000,-12
2.45833,-12
2.46667,-12
2.47500,-12
2.48333,-13
2.49167,-13
2.50000,-13
2.50833,-13
2.51667,-13
2.52500,-13
2.53333,-13
2.54167,-13
2.55000,-13
2.55833,-14
2.56667,-14
2.57500,-15
2.58333,-15
2.59167,-15
2.60000,-15
2.60833,-15
2.61667,-15
2.62500,-15
2.63333,-15
2.64167,-15
2.65000,-15
2.65833,-15
2.66667,-15
2.67500,-16
2.68333,-16
2.69167,-16
2.70000,-16
2.70833,-16
2.71667,-16
2.72500,-17
2.73333,-16
2.74167,-16
2.75000,-16
2.75833,-16
2.76667,-16
2.77500,-16
2.78333,-17
2.79167,-17
2.80000,-18
2.80833,-18
2.81667,-18
2.82500,-18
2.83333,-18
2.84167,-18
2.85000,-18
2.85833,-18
2.86667,-18
2.87500,-18
2.88333,-18
2.89167,-18
2.90000,-19
2.90833,-19
2.91667,-19
2.92500,-19
2.93333,-19
2.94167,-19
2.95000,-19
2.95833,-19
2.96667,-19
2.97500,-19
2.98333,-19
2.99167,-20
3.00000,-19
3.00833,-19
3.01667,-20
3.02500,-20
3.03333,-20
3.04167,-20
3.05000,-20
3.05833,-20
3.06667,-20
3.07500,-19
3.08333,-19
3.09167,-19
3.10000,-19
3.10833,-20
3.11667,-20
3.12500,-20
3.13333,-20
3.14167,-20
3.15000,-19
3.15833,-19
3.16667,-20
3.17500,-20
3.18333,-20
3.19167,-20
3.20000,-20
3.20833,-20
3.21667,-20
3.22500,-20
3.23333,-20
3.24167,-20
3.25000,-20
3.25833,-19
3.26667,-19
3.27500,-19
3.28333,-19
3.29167,-19
3.30000,-18
3.30833,-18
3.31667,-18
3.32500,-18
3.33333,-18
3.34167,-18
3.35000,-18
3.35833,-19
3.36667,-19
3.37500,-19
3.38333,-19
3.39167,-19
3.40000,-18
3.40833,-18
3.41667,-18
3.42500,-18
3.43333,-18
3.44167,-18
3.45000,-17
3.45833,-17
3.46667,-18
3.47500,-17
3.48333,-17
3.49167,-17
3.50000,-17
3.50833,-16
3.51667,-17
3.52500,-17
3.53333,-16
3.54167,-16
3.55000,-16
3.55833,-16
3.56667,-16
3.57500,-16
3.58333,-15
3.59167,-15
3.60000,-15
3.60833,-15
3.61667,-15
3.62500,-15
3.63333,-15
3.64167,-15
3.65000,-15
3.65833,-14
3.66667,-14
3.67500,-14
3.68333,-13
3.69167,-13
3.70000,-13
3.70833,-13
3.71667,-13
3.72500,-13
3.73333,-12
3.74167,-12
3.75000,-12
3.75833,-12
3.76667,-11
3.77500,-11
3.78333,-11
3.79167,-11
3.80000,-10
3.80833,-10
3.81667,-9
3.82500,-9
3.83333,-9
3.84167,-9
3.85000,-10
3.85833,-9
3.86667,-9
3.87500,-9
3.88333,-9
3.89167,-8
3.90000,-8
3.90833,-7
3.91667,-6
3.92500,-6
3.93333,-5
3.94167,-4
3.95000,-4
3.95833,-4
3.96667,-4
3.97500,-4
3.98333,-4
3.99167,-4
4.00000,-3
4.00833,-3
4.01667,-2
4.02500,-2
4.03333,-2
4.04167,-1
4.05000,-1
4.05833,-0
4.06667,-0
4.07500,-0
4.08333,0
4.09167,1
4.10000,1
4.10833,1
4.11667,2
4.12500,2
4.13333,2
4.14167,3
4.15000,4
4.15833,4
4.16667,5
4.17500,6
4.18333,7
4.19167,7
4.20000,8
4.20833,8
4.21667,8
4.22500,9
4.23333,10
4.24167,11
4.25000,11
4.25833,12
4.26667,12
4.27500,13
4.28333,13
4.29167,14
4.30000,14
4.30833,15
4.31667,16
4.32500,17
4.33333,18
4.34167,18
4.35000,19
4.35833,19
4.36667,20
4.37500,20
4.38333,21
4.39167,21
4.40000,22
4.40833,22
4.41667,23
4.42500,24
4.43333,24
4.44167,25
4.45000,25
4.45833,26
4.46667,27
4.47500,28
4.48333,28
4.49167,29
4.50000,30
4.50833,30
4.51667,31
4.52500,32
4.53333,32
4.54167,32
4.55000,33
4.55833,33
4.56667,34
4.57500,34
4.58333,35
4.59167,36
4.60000,37
4.60833,37
4.61667,38
4.62500,38
4.63333,39
4.64167,40
4.65000,40
4.65833,41
4.66667,41
4.67500,42
4.68333,42
4.69167,42
4.70000,43
4.70833,44
4.71667,44
4.72500,45
4.73333,45
4.74167,46
4.75000,46
4.75833,46
4.76667,46
4.77500,46
4.78333,47
4.79167,47
4.80000,47
4.80833,47
4.81667,47
4.82500,47
4.83333,48
4.84167,48
4.85000,48
4.85833,48
4.86667,49
4.87500,49
4.88333,50
4.89167,50
4.90000,50
4.90833,51
4.91667,51
4.92500,51
4.93333,51
4.94167,51
4.95000,51
4.95833,51
4.96667,51
4.97500,51
4.98333,51
4.99167,51
5.00000,51
5.00833,51
5.01667,51
5.02500,51
5.03333,51
5.04167,51
5.05000,51
5.05833,51
5.06667,51
5.07500,51
5.08333,50
5.09167,50
5.10000,50
5.10833,50
5.11667,50
5.12500,50
5.13333,50
5.14167,50
5.15000,49
5.15833,49
5.16667,48
5.17500,48
5.18333,48
5.19167,48
5.20000,48
5.20833,48
5.21667,48
5.22500,48
5.23333,47
5.24167,47
5.25000,46
5.25833,46
5.26667,46
5.27500,46
5.28333,46
5.29167,45
5.30000,45
5.30833,45
5.31667,44
5.32500,44
5.33333,44
5.34167,43
5.35000,43
5.35833,43
5.36667,43
5.37500,43
5.38333,42
5.39167,41
5.40000,41
5.40833,40
5.41667,40
5.42500,40
5.43333,39
5.44167,38
5.45000,37
5.45833,37
5.46667,36
5.47500,36
5.48333,35
5.49167,34
5.50000,34
5.50833,33
5.51667,33
5.52500,32
5.53333,31
5.54167,31
5.55000,30
5.55833,30
5.56667,29
5.57500,29
5.58333,28
5.59167,27
5.60000,27
5.60833,26
5.61667,25
5.62500,24
5.63333,23
5.64167,22
5.65000,21
5.65833,21
5.66667,20
5.67500,20
5.68333,19
5.69167,18
5.70000,17
5.70833,16
5.71667,16
5.72500,15
5.73333,14
5.74167,14
5.75000,13
5.75833,13
5.76667,12
5.77500,11
5.78333,10
5.79167,9
5.80000,8
5.80833,7
5.81667,6
5.82500,5
5.83333,4
5.84167,3
5.85000,3
5.85833,2
5.86667,2
5.87500,1
5.88333,1
5.89167,-0
5.90000,-2
5.90833,-3
5.91667,-3
5.92500,-4
5.93333,-5
5.94167,-5
5.95000,-6
5.95833,-7
5.96667,-8
5.97500,-8
5.98333,-10
5.99167,-11
6.00000,-12
6.00833,-12
6.01667,-13
6.02500,-13
6.03333,-14
6.04167,-15
6.05000,-15
6.05833,-16
6.06667,-17
6.07500,-18
6.08333,-19
6.09167,-20
6.10000,-20
6.10833,-21
6.11667,-21
6.12500,-22
6.13333,-23
6.14167,-24
6.15000,-25
6.15833,-26
6.16667,-26
6.17500,-27
6.18333,-28
6.19167,-28
6.20000,-29
6.20833,-29
6.21667,-30
6.22500,-30
6.23333,-31
6.24167,-31
6.25000,-32
6.25833,-32
6.26667,-33
6.27500,-33
6.28333,-34
6.29167,-35
6.30000,-35
6.30833,-36
6.31667,-36
6.32500,-37
6.33333,-37
6.34167,-38
6.35000,-38
6.35833,-39
6.36667,-39
6.37500,-39
6.38333,-40
6.39167,-40
6.40000,-40
6.40833,-41
6.41667,-42
6.42500,-42
6.43333,-43
6.44167,-43
6.45000,-44
6.45833,-44
6.46667,-45
6.47500,-45
6.48333,-46
6.49167,-46
6.50000,-46
6.50833,-46
6.51667,-47
6.52500,-47
6.53333,-48
6.54167,-48
6.55000,-48
6.55833,-49
6.56667,-48
6.57500,-48
6.58333,-49
6.59167,-49
6.60000,-49
6.60833,-49
6.61667,-50
6.62500,-50
6.63333,-50
6.64167,-50
6.65000,-51
6.65833,-51
6.66667,-51
6.67500,-51
6.68333,-51
6.69167,-52
6.70000,-52
6.70833,-53
6.71667,-53
6.72500,-53
6.73333,-53
6.74167,-53
6.75000,-53
6.75833,-52
6.76667,-53
6.77500,-53
6.78333,-53
6.79167,-53
6.80000,-53
6.80833,-53
6.81667,-53
6.82500,-54
6.83333,-54
6.84167,-54
6.85000,-54
6.85833,-54
6.86667,-54
6.87500,-54
6.88333,-55
6.89167,-55
6.90000,-54
6.90833,-54
6.91667,-55
6.92500,-55
6.93333,-55
6.94167,-55
6.95000,-55
6.95833,-56
6.96667,-56
6.97500,-56
6.98333,-56
6.99167,-56
7.00000,-56
7.00833,-56
7.01667,-56
7.02500,-57
7.03333,-57
7.04167,-57
7.05000,-57
7.05833,-57
7.06667,-57
7.07500,-57
7.08333,-57
7.09167,-57
7.10000,-56
7.10833,-56
7.11667,-56
7.12500,-56
7.13333,-56
7.14167,-56
7.15000,-56
7.15833,-56
7.16667,-56
7.17500,-57
7.18333,-57
7.19167,-57
7.20000,-56
7.20833,-56
7.21667,-56
7.22500,-56
7.23333,-56
7.24167,-56
7.25000,-56
7.25833,-57
7.26667,-57
7.27500,-57
7.28333,-57
7.29167,-57
7.30000,-57
7.30833,-58
7.31667,-58
7.32500,-57
7.33333,-57
7.34167,-57
7.35000,-57
7.35833,-57
7.36667,-57
7.37500,-58
7.38333,-58
7.39167,-58
7.40000,-58
7.40833,-58
7.41667,-58
7.42500,-58
7.43333,-57
7.44167,-57
7.45000,-57
7.45833,-57
7.46667,-57
7.47500,-57
7.48333,-57
7.49167,-57
7.50000,-57
7.50833,-57
7.51667,-58
7.52500,-58
7.53333,-58
7.54167,-58
7.55000,-58
7.55833,-58
7.56667,-59
7.57500,-59
7.58333,-59
7.59167,-59
7.60000,-58
7.60833,-58
7.61667,-57
7.62500,-57
7.63333,-57
7.64167,-56
7.65000,-56
7.65833,-56
7.66667,-56
7.67500,-56
7.68333,-57
7.69167,-57
7.70000,-57
7.70833,-57
7.71667,-58
7.72500,-58
7.73333,-58
7.74167,-58
7.75000,-58
7.75833,-58
7.76667,-58
7.77500,-58
7.78333,-58
7.79167,-58
7.80000,-58
7.80833,-58
7.81667,-58
7.82500,-58
7.83333,-58
7.84167,-58
7.85000,-58
7.85833,-58
7.86667,-58
7.87500,-58
7.88333,-58
7.89167,-58
7.90000,-58
7.90833,-58
7.91667,-58
7.92500,-58
7.93333,-58
7.94167,-58
7.95000,-58
7.95833,-58
7.96667,-59
7.97500,-59
7.98333,-59
7.99167,-59
8.00000,-59
8.00833,-59
8.01667,-59
8.02500,-59
8.03333,-59
8.04167,-59
8.05000,-59
8.05833,-59
8.06667,-59
8.07500,-59
8.08333,-59
8.09167,-59
8.10000,-59
8.10833,-59
8.11667,-59
8.12500,-59
8.13333,-59
8.14167,-59
8.15000,-60
8.15833,-60
8.16667,-60
8.17500,-60
8.18333,-60
8.19167,-60
8.20000,-59
8.20833,-59
8.21667,-60
8.22500,-60
8.23333,-60
8.24167,-60
8.25000,-60
8.25833,-60
8.26667,-60
8.27500,-61
8.28333,-61
8.29167,-61
8.30000,-60
8.30833,-60
8.31667,-60
8.32500,-60
8.33333,-61
8.34167,-61
8.35000,-61
8.35833,-61
8.36667,-61
8.37500,-60
8.38333,-60
8.39167,-60
8.40000,-61
8.40833,-60
8.41667,-61
8.42500,-61
8.43333,-61
8.44167,-61
8.45000,-61
8.45833,-61
8.46667,-61
8.47500,-61
8.48333,-62
8.49167,-62
8.50000,-62
8.50833,-62
8.51667,-62
8.52500,-62
8.53333,-61
8.54167,-61
8.55000,-61
8.55833,-61
8.56667,-60
8.57500,-60
8.58333,-61
8.59167,-61
8.60000,-61
8.60833,-61
8.61667,-62
8.62500,-62
8.63333,-61
8.64167,-61
8.65000,-62
8.65833,-61
8.66667,-61
8.67500,-61
8.68333,-61
8.69167,-62
8.70000,-62
8.70833,-61
8.71667,-61
8.72500,-62
8.73333,-62
8.74167,-62
8.75000,-62
8.75833,-62
8.76667,-62
8.77500,-62
8.78333,-62
8.79167,-62
8.80000,-62
8.80833,-62
8.81667,-61
8.82500,-61
8.83333,-61
8.84167,-62
8.85000,-62
8.85833,-61
8.86667,-62
8.87500,-62
8.88333,-62
8.89167,-62
8.90000,-62
8.90833,-62
8.91667,-62
8.92500,-61
8.93333,-61
8.94167,-61
8.95000,-61
8.95833,-61
8.96667,-62
8.97500,-61
8.98333,-61
8.99167,-61
9.00000,-61
9.00833,-61
9.01667,-61
9.02500,-61
9.03333,-62
9.04167,-62
9.05000,-62
9.05833,-62
9.06667,-61
9.07500,-61
9.08333,-61
9.09167,-61
9.10000,-60
9.10833,-60
9.11667,-60
9.12500,-60
9.13333,-60
9.14167,-60
9.15000,-60
9.15833,-60
9.16667,-60
9.17500,-60
9.18333,-60
9.19167,-60
9.20000,-59
9.20833,-59
9.21667,-60
9.22500,-60
9.23333,-59
9.24167,-59
9.25000,-60
9.25833,-60
9.26667,-60
9.27500,-60
9.28333,-61
9.29167,-61
9.30000,-61
9.30833,-61
9.31667,-60
9.32500,-60
9.33333,-60
9.34167,-60
9.35000,-61
9.35833,-61
9.36667,-61
9.37500,-61
9.38333,-61
9.39167,-60
9.40000,-60
9.40833,-60
9.41667,-60
9.42500,-60
9.43333,-60
9.44167,-60
9.45000,-60
9.45833,-60
9.46667,-60
9.47500,-60
9.48333,-60
9.49167,-60
9.50000,-60
9.50833,-60
9.51667,-60
9.52500,-60
9.53333,-60
9.54167,-60
9.55000,-59
9.55833,-59
9.56667,-58
9.57500,-58
9.58333,-58
9.59167,-58
9.60000,-59
9.60833,-59
9.61667,-59
9.62500,-59
9.63333,-59
9.64167,-59
9.65000,-59
9.65833,-59
9.66667,-59
9.67500,-59
9.68333,-58
9.69167,-59
9.70000,-59
9.70833,-59
9.71667,-59
9.72500,-59
9.73333,-59
9.74167,-60
9.75000,-60
9.75833,-60
9.76667,-60
9.77500,-59
9.78333,-59
9.79167,-59
9.80000,-59
9.80833,-59
9.81667,-59
9.82500,-59
9.83333,-58
9.84167,-58
9.85000,-57
9.85833,-57
9.86667,-58
9.87500,-58
9.88333,-58
9.89167,-58
9.90000,-58
9.90833,-58
9.91667,-57
9.92500,-57
9.93333,-57
9.94167,-57
9.95000,-56
9.95833,-56
9.96667,-56
9.97500,-56
9.98333,-56
9.99167,-56
10.00000,-57
10.00833,-57
10.01667,-57
10.02500,-57
10.03333,-56
10.04167,-56
10.05000,-56
10.05833,-56
10.06667,-55
10.07500,-55
10.08333,-54
10.09167,-54
10.10000,-53
10.10833,-53
10.11667,-52
10.12500,-51
10.13333,-51
10.14167,-50
10.15000,-50
10.15833,-49
10.16667,-48
10.17500,-47
10.18333,-47
10.19167,-46
10.20000,-44
10.20833,-43
10.21667,-41
10.22500,-40
10.23333,-39
10.24167,-37
10.25000,-35
10.25833,-33
10.26667,-31
10.27500,-28
10.28333,-25
10.29167,-22
10.30000,-18
10.30833,-14
10.31667,-8
10.32500,-2
10.33333,5
10.34167,13
10.35000,23
10.35833,34
10.36667,47
10.37500,61
10.38333,77
10.39167,94
10.40000,111
10.40833,130
10.41667,148
10.42500,166
10.43333,183
10.44167,198
10.45000,210
10.45833,220
10.46667,226
10.47500,229
10.48333,230
10.49167,228
10.50000,225
10.50833,222
10.51667,223
10.52500,229
10.53333,243
10.54167,270
10.55000,315
10.55833,381
10.56667,474
10.57500,599
10.58333,763
10.59167,971
10.60000,1230
10.60833,1544
10.61667,1921
10.62500,2367
10.63333,2887
10.64167,3487
10.65000,4172
10.65833,4948
10.66667,5819
10.67500,6791
10.68333,7865
10.69167,9048
10.70000,10341
10.70833,11749
10.71667,13273
10.72500,14915
10.73333,16678
10.74167,18562
10.75000,20569
10.75833,22699
10.76667,24952
10.77500,27327
10.78333,29824
10.79167,32441
10.80000,35176
10.80833,38027
10.81667,40991
10.82500,44066
10.83333,47246
10.84167,50527
10.85000,53904
10.85833,57369
10.86667,60915
10.87500,64531
10.88333,68209
10.89167,71934
10.90000,75692
10.90833,79466
10.91667,83234
10.92500,86972
10.93333,90654
10.94167,94245
10.95000,97710
10.95833,101007
10.96667,104090
10.97500,106910
10.98333,109413
10.99167,111545
11.00000,113249
11.00833,114471
11.01667,115161
11.02500,115272
11.03333,114771
11.04167,113631
11.05000,111844
11.05833,109417
11.06667,106374
11.07500,102757
11.08333,98624
11.09167,94048
11.10000,89112
11.10833,83908
11.11667,78531
11.12500,73072
11.13333,67621
11.14167,62259
11.15000,57054
11.15833,52065
11.16667,47338
11.17500,42904
11.18333,38785
11.19167,34993
11.20000,31528
11.20833,28384
11.21667,25549
11.22500,23006
11.23333,20736
11.24167,18718
11.25000,16930
11.25833,15350
11.26667,13957
11.27500,12729
11.28333,11648
11.29167,10697
11.30000,9860
11.30833,9121
11.31667,8470
11.32500,7893
11.33333,7382
11.34167,6927
11.35000,6520
11.35833,6156
11.36667,5828
11.37500,5532
11.38333,5263
11.39167,5017
11.40000,4792
11.40833,4584
11.41667,4392
11.42500,4214
11.43333,4049
11.44167,3893
11.45000,3747
11.45833,3609
11.46667,3478
11.47500,3354
11.48333,3236
11.49167,3124
11.50000,3017
11.50833,2914
11.51667,2816
11.52500,2722
11.53333,2632
11.54167,2546
11.55000,2463
11.55833,2383
11.56667,2307
11.57500,2233
11.58333,2163
11.59167,2095
11.60000,2030
11.60833,1968
11.61667,1908
11.62500,1850
11.63333,1795
11.64167,1741
11.65000,1690
11.65833,1641
11.66667,1594
11.67500,1549
11.68333,1506
11.69167,1465
11.70000,1425
11.70833,1386
11.71667,1350
11.72500,1315
11.73333,1281
11.74167,1248
11.75000,1217
11.75833,1187
11.76667,1159
11.77500,1132
11.78333,1106
11.79167,1081
11.80000,1058
11.80833,1035
11.81667,1014
11.82500,993
11.83333,973
11.84167,953
11.85000,935
11.85833,917
11.86667,901
11.87500,885
11.88333,870
11.89167,855
11.90000,841
11.90833,828
11.91667,815
11.92500,802
11.93333,790
11.94167,779
11.95000,768
11.95833,758
11.96667,748
11.97500,739
11.98333,730
11.99167,722
12.00000,713
12.00833,706
12.01667,698
12.02500,691
12.03333,684
12.04167,677
12.05000,671
12.05833,665
12.06667,659
12.07500,654
12.08333,649
12.09167,644
12.10000,639
12.10833,634
12.11667,630
12.12500,625
12.13333,621
12.14167,618
12.15000,615
12.15833,611
12.16667,608
12.17500,606
12.18333,603
12.19167,601
12.20000,599
12.20833,597
12.21667,595
12.22500,593
12.23333,592
12.24167,590
12.25000,589
12.25833,588
12.26667,587
12.27500,586
12.28333,585
12.29167,585
12.30000,585
12.30833,584
12.31667,584
12.32500,584
12.33333,584
12.34167,584
12.35000,584
12.35833,584
12.36667,584
12.37500,584
12.38333,584
12.39167,584
12.40000,583
12.40833,583
12.41667,582
12.42500,582
12.43333,582
12.44167,582
12.45000,581
12.45833,581
12.46667,580
12.47500,579
12.48333,578
12.49167,577
12.50000,576
12.50833,575
12.51667,574
12.52500,573
12.53333,571
12.54167,570
12.55000,569
12.55833,568
12.56667,566
12.57500,565
12.58333,563
12.59167,561
12.60000,560
12.60833,559
12.61667,558
12.62500,557
12.63333,556
12.64167,555
12.65000,555
12.65833,556
12.66667,557
12.67500,559
12.68333,562
12.69167,565
12.70000,570
12.70833,576
12.71667,584
12.72500,593
12.73333,605
12.74167,618
12.75000,634
12.75833,653
12.76667,674
12.77500,699
12.78333,727
12.79167,759
12.80000,794
12.80833,833
12.81667,877
12.82500,924
12.83333,977
12.84167,1033
12.85000,1095
12.85833,1163
12.86667,1235
12.87500,1313
12.88333,1396
12.89167,1485
12.90000,1579
12.90833,1678
12.91667,1784
12.92500,1895
12.93333,2011
12.94167,2134
12.95000,2261
12.95833,2395
12.96667,2534
12.97500,2679
12.98333,2830
12.99167,2986
13.00000,3149
13.00833,3317
13.01667,3490
13.02500,3669
13.03333,3854
13.04167,4043
13.05000,4239
13.05833,4439
13.06667,4645
13.07500,4856
13.08333,5072
13.09167,5294
13.10000,5519
13.10833,5750
13.11667,5985
13.12500,6226
13.13333,6470
13.14167,6719
13.15000,6972
13.15833,7230
13.16667,7491
13.17500,7757
13.18333,8027
13.19167,8301
13.20000,8578
13.20833,8860
13.21667,9144
13.22500,9433
13.23333,9725
13.24167,10020
13.25000,10319
13.25833,10621
13.26667,10926
13.27500,11234
13.28333,11545
13.29167,11859
13.30000,12177
13.30833,12498
13.31667,12821
13.32500,13148
13.33333,13478
13.34167,13810
13.35000,14146
13.35833,14484
13.36667,14825
13.37500,15169
13.38333,15516
13.39167,15865
13.40000,16217
13.40833,16572
13.41667,16930
13.42500,17291
13.43333,17655
13.44167,18021
13.45000,18391
13.45833,18763
13.46667,19139
13.47500,19517
13.48333,19898
13.49167,20282
13.50000,20669
13.50833,21059
13.51667,21452
13.52500,21848
13.53333,22248
13.54167,22650
13.55000,23056
13.55833,23465
13.56667,23878
13.57500,24293
13.58333,24713
13.59167,25135
13.60000,25560
13.60833,25989
13.61667,26420
13.62500,26856
13.63333,27295
13.64167,27738
13.65000,28185
13.65833,28635
13.66667,29089
13.67500,29546
13.68333,30006
13.69167,30471
13.70000,30939
13.70833,31412
13.71667,31888
13.72500,32368
13.73333,32852
13.74167,33340
13.75000,33832
13.75833,34328
13.76667,34829
13.77500,35333
13.78333,35841
13.79167,36354
13.80000,36871
13.80833,37392
13.81667,37918
13.82500,38448
13.83333,38982
13.84167,39521
13.85000,40065
13.85833,40613
13.86667,41165
13.87500,41723
13.88333,42285
13.89167,42852
13.90000,43423
13.90833,44000
13.91667,44581
13.92500,45167
13.93333,45759
13.94167,46356
13.95000,46957
13.95833,47565
13.96667,48177
13.97500,48795
13.98333,49418
13.99167,50047
14.00000,50681
14.00833,51320
14.01667,51965
14.02500,52616
14.03333,53272
14.04167,53934
14.05000,54602
14.05833,55277
14.06667,55957
14.07500,56643
14.08333,57336
14.09167,58034
14.10000,58739
14.10833,59451
14.11667,60169
14.12500,60893
14.13333,61625
14.14167,62363
14.15000,63108
14.15833,63860
14.16667,64619
14.17500,65385
14.18333,66158
14.19167,66938
14.20000,67724
14.20833,68516
14.21667,69310
14.22500,70105
14.23333,70897
14.24167,71680
14.25000,72449
14.25833,73193
14.26667,73905
14.27500,74572
14.28333,75183
14.29167,75725
14.30000,76186
14.30833,76554
14.31667,76818
14.32500,76966
14.33333,76992
14.34167,76886
14.35000,76645
14.35833,76263
14.36667,75738
14.37500,75068
14.38333,74249
14.39167,73281
14.40000,72160
14.40833,70885
14.41667,69454
14.42500,67865
14.43333,66119
14.44167,64214
14.45000,62154
14.45833,59944
14.46667,57594
14.47500,55115
14.48333,52523
14.49167,49839
14.50000,47083
14.50833,44282
14.51667,41461
14.52500,38649
14.53333,35873
14.54167,33157
14.55000,30526
14.55833,28000
14.56667,25596
14.57500,23328
14.58333,21204
14.59167,19230
14.60000,17410
14.60833,15742
14.61667,14222
14.62500,12846
14.63333,11605
14.64167,10492
14.65000,9497
14.65833,8610
14.66667,7822
14.67500,7124
14.68333,6506
14.69167,5959
14.70000,5477
14.70833,5051
14.71667,4674
14.72500,4341
14.73333,4046
14.74167,3785
14.75000,3553
14.75833,3346
14.76667,3162
14.77500,2997
14.78333,2849
14.79167,2717
14.80000,2597
14.80833,2488
14.81667,2389
14.82500,2299
14.83333,2215
14.84167,2139
14.85000,2068
14.85833,2002
14.86667,1941
14.87500,1885
14.88333,1832
14.89167,1783
14.90000,1736
14.90833,1692
14.91667,1651
14.92500,1612
14.93333,1576
14.94167,1541
14.95000,1508
14.95833,1477
14.96667,1447
14.97500,1419
14.98333,1392
14.99167,1367
15.00000,1343
15.00833,1321
15.01667,1299
15.02500,1278
15.03333,1259
15.04167,1240
15.05000,1223
15.05833,1206
15.06667,1191
15.07500,1176
15.08333,1162
15.09167,1149
15.10000,1137
15.10833,1126
15.11667,1115
15.12500,1106
15.13333,1097
15.14167,1089
15.15000,1083
15.15833,1077
15.16667,1073
15.17500,1070
15.18333,1070
15.19167,1071
15.20000,1074
15.20833,1081
15.21667,1092
15.22500,1107
15.23333,1128
15.24167,1154
15.25000,1188
15.25833,1231
15.26667,1284
15.27500,1349
15.28333,1428
15.29167,1523
15.30000,1635
15.30833,1769
15.31667,1926
15.32500,2109
15.33333,2321
15.34167,2566
15.35000,2846
15.35833,3164
15.36667,3524
15.37500,3929
15.38333,4381
15.39167,4884
15.40000,5441
15.40833,6053
15.41667,6724
15.42500,7454
15.43333,8245
15.44167,9098
15.45000,10012
15.45833,10987
15.46667,12022
15.47500,13116
15.48333,14265
15.49167,15466
15.50000,16717
15.50833,18012
15.51667,19346
15.52500,20715
15.53333,22111
15.54167,23528
15.55000,24961
15.55833,26401
15.56667,27842
15.57500,29277
15.58333,30698
15.59167,32098
15.60000,33473
15.60833,34813
15.61667,36113
15.62500,37367
15.63333,38571
15.64167,39718
15.65000,40804
15.65833,41826
15.66667,42780
15.67500,43663
15.68333,44472
15.69167,45205
15.70000,45859
15.70833,46435
15.71667,46929
15.72500,47342
15.73333,47672
15.74167,47921
15.75000,48087
15.75833,48171
15.76667,48174
15.77500,48095
15.78333,47937
15.79167,47699
15.80000,47384
15.80833,46992
15.81667,46526
15.82500,45989
15.83333,45381
15.84167,44706
15.85000,43967
15.85833,43167
15.86667,42310
15.87500,41399
15.88333,40438
15.89167,39431
15.90000,38383
15.90833,37298
15.91667,36181
15.92500,35036
15.93333,33869
15.94167,32684
15.95000,31487
15.95833,30283
15.96667,29075
15.97500,27868
15.98333,26667
15.99167,25477
16.00000,24301
16.00833,23143
16.01667,22006
16.02500,20894
16.03333,19810
16.04167,18756
16.05000,17733
16.05833,16745
16.06667,15792
16.07500,14877
16.08333,13999
16.09167,13159
16.10000,12359
16.10833,11597
16.11667,10875
16.12500,10190
16.13333,9544
16.14167,8935
16.15000,8362
16.15833,7825
16.16667,7321
16.17500,6851
16.18333,6411
16.19167,6002
16.20000,5622
16.20833,5269
16.21667,4942
16.22500,4640
16.23333,4360
16.24167,4102
16.25000,3864
16.25833,3644
16.26667,3442
16.27500,3257
16.28333,3087
16.29167,2930
16.30000,2786
16.30833,2655
16.31667,2534
16.32500,2423
16.33333,2321
16.34167,2228
16.35000,2142
16.35833,2064
16.36667,1992
16.37500,1926
16.38333,1865
16.39167,1809
16.40000,1757
16.40833,1709
16.41667,1664
16.42500,1623
16.43333,1584
16.44167,1548
16.45000,1514
16.45833,1483
16.46667,1453
16.47500,1425
16.48333,1398
16.49167,1372
16.50000,1348
16.50833,1325
16.51667,1303
16.52500,1281
16.53333,1260
16.54167,1240
16.55000,1221
16.55833,1202
16.56667,1183
16.57500,1165
16.58333,1147
16.59167,1129
16.60000,1112
16.60833,1096
16.61667,1079
16.62500,1063
16.63333,1047
16.64167,1031
16.65000,1016
16.65833,1002
16.66667,987
16.67500,972
16.68333,958
16.69167,945
16.70000,931
16.70833,919
16.71667,906
16.72500,894
16.73333,882
16.74167,872
16.75000,861
16.75833,851
16.76667,842
16.77500,833
16.78333,824
16.79167,816
16.80000,809
16.80833,801
16.81667,794
16.82500,788
16.83333,782
16.84167,776
16.85000,771
16.85833,766
16.86667,762
16.87500,758
16.88333,754
16.89167,750
16.90000,746
16.90833,743
16.91667,740
16.92500,738
16.93333,735
16.94167,733
16.95000,730
16.95833,728
16.96667,725
16.97500,723
16.98333,721
16.99167,718
17.00000,716
17.00833,714
17.01667,712
17.02500,710
17.03333,708
17.04167,706
17.05000,705
17.05833,703
17.06667,702
17.07500,700
17.08333,699
17.09167,697
17.10000,695
17.10833,693
17.11667,691
17.12500,689
17.13333,687
17.14167,686
17.15000,684
17.15833,682
17.16667,680
17.17500,678
17.18333,676
17.19167,673
17.20000,671
17.20833,669
17.21667,667
17.22500,665
17.23333,663
17.24167,661
17.25000,659
17.25833,657
17.26667,654
17.27500,652
17.28333,650
17.29167,648
17.30000,646
17.30833,643
17.31667,641
17.32500,638
17.33333,636
17.34167,634
17.35000,632
17.35833,630
17.36667,628
17.37500,626
17.38333,626
17.39167,625
17.40000,624
17.40833,624
17.41667,623
17.42500,623
17.43333,624
17.44167,625
17.45000,626
17.45833,627
17.46667,629
17.47500,631
17.48333,633
17.49167,635
17.50000,638
17.50833,641
17.51667,645
17.52500,649
17.53333,653
17.54167,657
17.55000,662
17.55833,667
17.56667,672
17.57500,678
17.58333,683
17.59167,689
17.60000,695
17.60833,701
17.61667,707
17.62500,713
17.63333,719
17.64167,725
17.65000,731
17.65833,737
17.66667,742
17.67500,748
17.68333,754
17.69167,759
17.70000,765
17.70833,770
17.71667,775
17.72500,779
17.73333,784
17.74167,789
17.75000,793
17.75833,797
17.76667,801
17.77500,804
17.78333,807
17.79167,810
17.80000,812
17.80833,815
17.81667,817
17.82500,818
17.83333,819
17.84167,820
17.85000,820
17.85833,820
17.86667,820
17.87500,819
17.88333,818
17.89167,817
17.90000,816
17.90833,814
17.91667,811
17.92500,809
17.93333,806
17.94167,802
17.95000,799
17.95833,794
17.96667,790
17.97500,785
17.98333,780
17.99167,775
18.00000,769
18.00833,763
18.01667,757
18.02500,750
18.03333,744
18.04167,737
18.05000,730
18.05833,723
18.06667,716
18.07500,708
18.08333,701
18.09167,693
18.10000,686
18.10833,678
18.11667,671
18.12500,663
18.13333,656
18.14167,648
18.15000,641
18.15833,634
18.16667,627
18.17500,620
18.18333,613
18.19167,606
18.20000,600
18.20833,594
18.21667,588
18.22500,582
18.23333,576
18.24167,570
18.25000,565
18.25833,560
18.26667,555
18.27500,550
18.28333,546
18.29167,542
18.30000,538
18.30833,535
18.31667,532
18.32500,529
18.33333,527
18.34167,525
18.35000,523
18.35833,521
18.36667,520
18.37500,519
18.38333,518
18.39167,518
18.40000,518
18.40833,519
18.41667,519
18.42500,520
18.43333,522
18.44167,523
18.45000,525
18.45833,527
18.46667,530
18.47500,533
18.48333,535
18.49167,538
18.50000,542
18.50833,546
18.51667,549
18.52500,553
18.53333,557
18.54167,562
18.55000,566
18.55833,571
18.56667,576
18.57500,581
18.58333,586
18.59167,591
18.60000,596
18.60833,601
18.61667,606
18.62500,611
18.63333,616
18.64167,621
18.65000,627
18.65833,632
18.66667,637
18.67500,642
18.68333,648
18.69167,653
18.70000,658
18.70833,664
18.71667,669
18.72500,674
18.73333,678
18.74167,683
18.75000,688
18.75833,692
18.76667,697
18.77500,701
18.78333,705
18.79167,710
18.80000,715
18.80833,719
18.81667,723
18.82500,727
18.83333,732
18.84167,736
18.85000,739
18.85833,743
18.86667,747
18.87500,750
18.88333,753
18.89167,756
18.90000,759
18.90833,762
18.91667,765
18.92500,768
18.93333,770
18.94167,773
18.95000,775
18.95833,776
18.96667,778
18.97500,780
18.98333,781
18.99167,782
19.00000,783
19.00833,784
19.01667,784
19.02500,785
19.03333,785
19.04167,786
19.05000,786
19.05833,786
19.06667,786
19.07500,786
19.08333,785
19.09167,784
19.10000,784
19.10833,782
19.11667,781
19.12500,779
19.13333,777
19.14167,775
19.15000,773
19.15833,771
19.16667,768
19.17500,766
19.18333,763
19.19167,760
19.20000,757
19.20833,753
19.21667,749
19.22500,745
19.23333,741
19.24167,737
19.25000,733
19.25833,728
19.26667,724
19.27500,719
19.28333,714
19.29167,709
19.30000,704
19.30833,699
19.31667,694
19.32500,688
19.33333,683
19.34167,676
19.35000,671
19.35833,664
19.36667,658
19.37500,652
19.38333,646
19.39167,640
19.40000,634
19.40833,627
19.41667,621
19.42500,614
19.43333,608
19.44167,601
19.45000,595
19.45833,588
19.46667,582
19.47500,575
19.48333,569
19.49167,562
19.50000,556
19.50833,550
19.51667,543
19.52500,537
19.53333,531
19.54167,525
19.55000,519
19.55833,513
19.56667,508
19.57500,502
19.58333,497
19.59167,492
19.60000,486
19.60833,481
19.61667,476
19.62500,472
19.63333,467
19.64167,462
19.65000,458
19.65833,454
19.66667,450
19.67500,447
19.68333,444
19.69167,441
19.70000,439
19.70833,436
19.71667,434
19.72500,433
19.73333,432
19.74167,431
19.75000,431
19.75833,431
19.76667,432
19.77500,433
19.78333,435
19.79167,437
19.80000,440
19.80833,443
19.81667,447
19.82500,452
19.83333,457
19.84167,463
19.85000,469
19.85833,476
19.86667,483
19.87500,492
19.88333,501
19.89167,511
19.90000,522
19.90833,533
19.91667,545
19.92500,557
19.93333,570
19.94167,583
19.95000,597
19.95833,612
19.96667,627
19.97500,643
19.98333,659
19.99167,676
20.00000,693
20.00833,709
20.01667,726
20.02500,743
20.03333,760
20.04167,777
20.05000,794
20.05833,811
20.06667,828
20.07500,845
20.08333,861
20.09167,878
20.10000,894
20.10833,910
20.11667,925
20.12500,940
20.13333,954
20.14167,968
20.15000,981
20.15833,993
20.16667,1005
20.17500,1017
20.18333,1027
20.19167,1037
20.20000,1047
20.20833,1055
20.21667,1063
20.22500,1070
20.23333,1076
20.24167,1082
20.25000,1087
20.25833,1091
20.26667,1094
20.27500,1097
20.28333,1099
20.29167,1100
20.30000,1100
20.30833,1100
20.31667,1099
20.32500,1097
20.33333,1095
20.34167,1092
20.35000,1089
20.35833,1085
20.36667,1080
20.37500,1076
20.38333,1071
20.39167,1065
20.40000,1058
20.40833,1051
20.41667,1044
20.42500,1037
20.43333,1029
20.44167,1021
20.45000,1014
20.45833,1006
20.46667,999
20.47500,991
20.48333,983
20.49167,976
20.50000,969
20.50833,962
20.51667,955
20.52500,949
20.53333,944
20.54167,939
20.55000,935
20.55833,931
20.56667,928
20.57500,925
20.58333,923
20.59167,921
20.60000,920
20.60833,920
20.61667,920
20.62500,921
20.63333,922
20.64167,924
20.65000,926
20.65833,929
20.66667,933
20.67500,937
20.68333,941
20.69167,945
20.70000,950
20.70833,955
20.71667,960
20.72500,965
20.73333,970
20.74167,975
20.75000,981
20.75833,987
20.76667,993
20.77500,998
20.78333,1003
20.79167,1009
20.80000,1014
20.80833,1018
20.81667,1023
20.82500,1027
20.83333,1031
20.84167,1035
20.85000,1038
20.85833,1041
20.86667,1044
20.87500,1047
20.88333,1050
20.89167,1052
20.90000,1053
20.90833,1054
20.91667,1055
20.92500,1056
20.93333,1056
20.94167,1056
20.95000,1055
20.95833,1055
20.96667,1054
20.97500,1052
20.98333,1050
20.99167,1048
21.00000,1045
21.00833,1043
21.01667,1040
21.02500,1036
21.03333,1034
21.04167,1030
21.05000,1027
21.05833,1023
21.06667,1019
21.07500,1015
21.08333,1010
21.09167,1006
21.10000,1002
21.10833,998
21.11667,994
21.12500,989
21.13333,985
21.14167,981
21.15000,977
21.15833,973
21.16667,970
21.17500,966
21.18333,963
21.19167,961
21.20000,958
21.20833,956
21.21667,954
21.22500,952
21.23333,950
21.24167,949
21.25000,947
21.25833,945
21.26667,944
21.27500,943
21.28333,942
21.29167,941
21.30000,940
21.30833,940
21.31667,940
21.32500,940
21.33333,940
21.34167,940
21.35000,941
21.35833,942
21.36667,942
21.37500,943
21.38333,943
21.39167,945
21.40000,946
21.40833,947
21.41667,949
21.42500,952
21.43333,954
21.44167,957
21.45000,960
21.45833,963
21.46667,967
21.47500,971
21.48333,976
21.49167,980
21.50000,985
21.50833,989
21.51667,995
21.52500,1000
21.53333,1006
21.54167,1012
21.55000,1018
21.55833,1024
21.56667,1031
21.57500,1037
21.58333,1044
21.59167,1050
21.60000,1057
21.60833,1063
21.61667,1070
21.62500,1076
21.63333,1082
21.64167,1087
21.65000,1093
21.65833,1097
21.66667,1102
21.67500,1106
21.68333,1110
21.69167,1113
21.70000,1116
21.70833,1118
21.71667,1119
21.72500,1120
21.73333,1121
21.74167,1121
21.75000,1121
21.75833,1120
21.76667,1119
21.77500,1118
21.78333,1115
21.79167,1112
21.80000,1109
21.80833,1105
21.81667,1101
21.82500,1096
21.83333,1092
21.84167,1087
21.85000,1082
21.85833,1076
21.86667,1071
21.87500,1065
21.88333,1059
21.89167,1053
21.90000,1047
21.90833,1040
21.91667,1032
21.92500,1025
21.93333,1017
21.94167,1010
21.95000,1002
21.95833,994
21.96667,985
21.97500,976
21.98333,967
21.99167,957
22.00000,947
22.00833,938
22.01667,927
22.02500,917
22.03333,906
22.04167,894
22.05000,882
22.05833,870
22.06667,857
22.07500,844
22.08333,831
22.09167,817
22.10000,804
22.10833,790
22.11667,776
22.12500,761
22.13333,746
22.14167,731
22.15000,715
22.15833,700
22.16667,686
22.17500,671
22.18333,656
22.19167,641
22.20000,626
22.20833,611
22.21667,597
22.22500,582
22.23333,568
22.24167,554
22.25000,541
22.25833,528
22.26667,515
22.27500,502
22.28333,490
22.29167,477
22.30000,466
22.30833,455
22.31667,445
22.32500,435
22.33333,425
22.34167,415
22.35000,406
22.35833,397
22.36667,389
22.37500,382
22.38333,374
22.39167,368
22.40000,361
22.40833,355
22.41667,349
22.42500,344
22.43333,339
22.44167,335
22.45000,331
22.45833,327
22.46667,324
22.47500,321
22.48333,317
22.49167,314
22.50000,312
22.50833,310
22.51667,308
22.52500,306
22.53333,305
22.54167,303
22.55000,302
22.55833,301
22.56667,301
22.57500,301
22.58333,301
22.59167,301
22.60000,301
22.60833,301
22.61667,301
22.62500,302
22.63333,302
22.64167,303
22.65000,304
22.65833,305
22.66667,307
22.67500,309
22.68333,310
22.69167,312
22.70000,314
22.70833,316
22.71667,318
22.72500,320
22.73333,322
22.74167,325
22.75000,328
22.75833,331
22.76667,334
22.77500,336
22.78333,339
22.79167,342
22.80000,345
22.80833,348
22.81667,352
22.82500,355
22.83333,358
22.84167,361
22.85000,365
22.85833,368
22.86667,371
22.87500,374
22.88333,377
22.89167,380
22.90000,383
22.90833,386
22.91667,389
22.92500,392
22.93333,395
22.94167,398
22.95000,400
22.95833,403
22.96667,406
22.97500,408
22.98333,411
22.99167,414
23.00000,416
23.00833,418
23.01667,421
23.02500,423
23.03333,425
23.04167,427
23.05000,429
23.05833,431
23.06667,433
23.07500,434
23.08333,436
23.09167,437
23.10000,438
23.10833,439
23.11667,440
23.12500,440
23.13333,441
23.14167,442
23.15000,443
23.15833,443
23.16667,443
23.17500,444
23.18333,444
23.19167,444
23.20000,444
23.20833,444
23.21667,444
23.22500,444
23.23333,443
23.24167,442
23.25000,441
23.25833,440
23.26667,439
23.27500,438
23.28333,437
23.29167,436
23.30000,434
23.30833,433
23.31667,431
23.32500,430
23.33333,428
23.34167,427
23.35000,425
23.35833,424
23.36667,422
23.37500,421
23.38333,419
23.39167,418
23.40000,417
23.40833,415
23.41667,414
23.42500,413
23.43333,412
23.44167,411
23.45000,409
23.45833,408
23.46667,407
23.47500,406
23.48333,404
23.49167,403
23.50000,402
23.50833,401
23.51667,401
23.52500,400
23.53333,399
23.54167,399
23.55000,398
23.55833,398
23.56667,398
23.57500,397
23.58333,397
23.59167,396
23.60000,396
23.60833,395
23.61667,395
23.62500,394
23.63333,394
23.64167,393
23.65000,393
23.65833,392
23.66667,393
23.67500,393
23.68333,392
23.69167,392
23.70000,392
23.70833,392
23.71667,391
23.72500,391
23.73333,390
23.74167,390
23.75000,389
23.75833,389
23.76667,389
23.77500,389
23.78333,388
23.79167,388
23.80000,388
23.80833,388
23.81667,387
23.82500,387
23.83333,387
23.84167,386
23.85000,386
23.85833,386
23.86667,385
23.87500,384
23.88333,384
23.89167,383
23.90000,382
23.90833,382
23.91667,381
23.92500,381
23.93333,380
23.94167,379
23.95000,378
23.95833,377
23.96667,377
23.97500,376
23.98333,375
23.99167,375
24.00000,374
24.00833,373
24.01667,372
24.02500,372
24.03333,371
24.04167,370
24.05000,369
24.05833,368
24.06667,368
24.07500,367
24.08333,367
24.09167,366
24.10000,365
24.10833,365
24.11667,364
24.12500,364
24.13333,363
24.14167,363
24.15000,362
24.15833,362
24.16667,361
24.17500,361
24.18333,360
24.19167,359
24.20000,359
24.20833,358
24.21667,357
24.22500,357
24.23333,356
24.24167,356
24.25000,355
24.25833,355
24.26667,355
24.27500,355
24.28333,355
24.29167,355
24.30000,356
24.30833,357
24.31667,358
24.32500,359
24.33333,360
24.34167,361
24.35000,363
24.35833,365
24.36667,368
24.37500,371
24.38333,374
24.39167,378
24.40000,382
24.40833,388
24.41667,394
24.42500,401
24.43333,409
24.44167,418
24.45000,428
24.45833,439
24.46667,451
24.47500,465
24.48333,480
24.49167,496
24.50000,515
24.50833,535
24.51667,556
24.52500,580
24.53333,606
24.54167,634
24.55000,664
24.55833,697
24.56667,731
24.57500,768
24.58333,807
24.59167,848
24.60000,892
24.60833,938
24.61667,987
24.62500,1039
24.63333,1093
24.64167,1149
24.65000,1207
24.65833,1267
24.66667,1329
24.67500,1393
24.68333,1459
24.69167,1527
24.70000,1597
24.70833,1668
24.71667,1741
24.72500,1814
24.73333,1888
24.74167,1963
24.75000,2038
24.75833,2114
24.76667,2190
24.77500,2266
24.78333,2341
24.79167,2415
24.80000,2490
24.80833,2563
24.81667,2636
24.82500,2707
24.83333,2777
24.84167,2846
24.85000,2913
24.85833,2978
24.86667,3041
24.87500,3103
24.88333,3163
24.89167,3221
24.90000,3277
24.90833,3331
24.91667,3382
24.92500,3432
24.93333,3479
24.94167,3524
24.95000,3566
24.95833,3607
24.96667,3644
24.97500,3680
24.98333,3714
24.99167,3745
25.00000,3773
25.00833,3799
25.01667,3822
25.02500,3843
25.03333,3862
25.04167,3877
25.05000,3890
25.05833,3901
25.06667,3909
25.07500,3914
25.08333,3917
25.09167,3916
25.10000,3913
25.10833,3907
25.11667,3898
25.12500,3886
25.13333,3871
25.14167,3852
25.15000,3831
25.15833,3806
25.16667,3778
25.17500,3748
25.18333,3715
25.19167,3679
25.20000,3640
25.20833,3598
25.21667,3553
25.22500,3506
25.23333,3456
25.24167,3403
25.25000,3348
25.25833,3291
25.26667,3231
25.27500,3169
25.28333,3106
25.29167,3041
25.30000,2974
25.30833,2905
25.31667,2836
25.32500,2766
25.33333,2695
25.34167,2623
25.35000,2551
25.35833,2478
25.36667,2406
25.37500,2334
25.38333,2262
25.39167,2191
25.40000,2120
25.40833,2050
25.41667,1981
25.42500,1912
25.43333,1845
25.44167,1780
25.45000,1715
25.45833,1652
25.46667,1591
25.47500,1531
25.48333,1473
25.49167,1417
25.50000,1362
25.50833,1310
25.51667,1259
25.52500,1210
25.53333,1163
25.54167,1117
25.55000,1074
25.55833,1032
25.56667,992
25.57500,955
25.58333,918
25.59167,884
25.60000,851
25.60833,820
25.61667,791
25.62500,763
25.63333,736
25.64167,711
25.65000,687
25.65833,665
25.66667,644
25.67500,624
25.68333,606
25.69167,588
25.70000,571
25.70833,554
25.71667,539
25.72500,525
25.73333,512
25.74167,500
25.75000,488
25.75833,476
25.76667,466
25.77500,456
25.78333,446
25.79167,437
25.80000,428
25.80833,419
25.81667,411
25.82500,403
25.83333,396
25.84167,390
25.85000,383
25.85833,376
25.86667,370
25.87500,363
25.88333,357
25.89167,351
25.90000,346
25.90833,340
25.91667,335
25.92500,330
25.93333,324
25.94167,319
25.95000,314
25.95833,309
25.96667,304
25.97500,298
25.98333,293
25.99167,288
26.00000,284
26.00833,279
26.01667,274
26.02500,270
26.03333,266
26.04167,261
26.05000,256
26.05833,252
26.06667,248
26.07500,243
26.08333,239
26.09167,234
26.10000,230
26.10833,226
26.11667,222
26.12500,218
26.13333,214
26.14167,209
26.15000,205
26.15833,201
26.16667,197
26.17500,194
26.18333,190
26.19167,187
26.20000,184
26.20833,180
26.21667,177
26.22500,174
26.23333,171
26.24167,169
26.25000,166
26.25833,164
26.26667,162
26.27500,159
26.28333,156
26.29167,154
26.30000,151
26.30833,149
26.31667,148
26.32500,146
26.33333,144
26.34167,143
26.35000,141
26.35833,140
26.36667,138
26.37500,137
26.38333,135
26.39167,134
26.40000,133
26.40833,132
26.41667,132
26.42500,131
26.43333,130
26.44167,129
26.45000,129
26.45833,128
26.46667,127
26.47500,126
26.48333,126
26.49167,125
26.50000,125
26.50833,125
26.51667,124
26.52500,124
26.53333,124
26.54167,124
26.55000,123
26.55833,123
26.56667,123
26.57500,123
26.58333,123
26.59167,123
26.60000,123
26.60833,123
26.61667,123
26.62500,123
26.63333,122
26.64167,122
26.65000,122
26.65833,121
26.66667,121
26.67500,122
26.68333,122
26.69167,122
26.70000,122
26.70833,122
26.71667,123
26.72500,123
26.73333,123
26.74167,123
26.75000,123
26.75833,123
26.76667,123
26.77500,123
26.78333,124
26.79167,124
26.80000,124
26.80833,124
26.81667,124
26.82500,124
26.83333,124
26.84167,124
26.85000,124
26.85833,124
26.86667,124
26.87500,125
26.88333,125
26.89167,125
26.90000,125
26.90833,125
26.91667,125
26.92500,125
26.93333,126
26.94167,126
26.95000,126
26.95833,126
26.96667,126
26.97500,127
26.98333,127
26.99167,127
27.00000,126
27.00833,126
27.01667,127
27.02500,127
27.03333,127
27.04167,127
27.05000,128
27.05833,128
27.06667,128
27.07500,128
27.08333,128
27.09167,128
27.10000,128
27.10833,128
27.11667,129
27.12500,129
27.13333,129
27.14167,129
27.15000,128
27.15833,128
27.16667,128
27.17500,128
27.18333,129
27.19167,129
27.20000,128
27.20833,129
27.21667,129
27.22500,129
27.23333,129
27.24167,129
27.25000,129
27.25833,129
27.26667,129
27.27500,129
27.28333,129
27.29167,129
27.30000,129
27.30833,129
27.31667,130
27.32500,130
27.33333,130
27.34167,130
27.35000,130
27.35833,129
27.36667,128
27.37500,128
27.38333,128
27.39167,128
27.40000,127
27.40833,127
27.41667,126
27.42500,126
27.43333,126
27.44167,125
27.45000,125
27.45833,124
27.46667,124
27.47500,124
27.48333,124
27.49167,123
27.50000,123
27.50833,122
27.51667,121
27.52500,121
27.53333,121
27.54167,121
27.55000,120
27.55833,119
27.56667,119
27.57500,118
27.58333,118
27.59167,117
27.60000,117
27.60833,116
27.61667,115
27.62500,114
27.63333,114
27.64167,113
27.65000,112
27.65833,111
27.66667,110
27.67500,109
27.68333,108
27.69167,108
27.70000,107
27.70833,106
27.71667,106
27.72500,105
27.73333,104
27.74167,104
27.75000,103
27.75833,102
27.76667,101
27.77500,100
27.78333,99
27.79167,98
27.80000,97
27.80833,96
27.81667,96
27.82500,95
27.83333,95
27.84167,94
27.85000,93
27.85833,93
27.86667,92
27.87500,91
27.88333,91
27.89167,90
27.90000,89
27.90833,88
27.91667,88
27.92500,87
27.93333,87
27.94167,87
27.95000,87
27.95833,87
27.96667,87
27.97500,87
27.98333,86
27.99167,86
28.00000,86
28.00833,85
28.01667,85
28.02500,85
28.03333,85
28.04167,84
28.05000,84
28.05833,84
28.06667,83
28.07500,83
28.08333,84
28.09167,84
28.10000,84
28.10833,84
28.11667,85
28.12500,85
28.13333,85
28.14167,86
28.15000,85
28.15833,86
28.16667,86
28.17500,86
28.18333,86
28.19167,87
28.20000,87
28.20833,87
28.21667,88
28.22500,88
28.23333,88
28.24167,88
28.25000,89
28.25833,89
28.26667,90
28.27500,90
28.28333,91
28.29167,91
28.30000,92
28.30833,93
28.31667,93
28.32500,94
28.33333,94
28.34167,95
28.35000,97
28.35833,98
28.36667,100
28.37500,102
28.38333,104
28.39167,106
28.40000,109
28.40833,112
28.41667,115
28.42500,118
28.43333,122
28.44167,126
28.45000,130
28.45833,135
28.46667,141
28.47500,147
28.48333,154
28.49167,162
28.50000,170
28.50833,178
28.51667,188
28.52500,198
28.53333,210
28.54167,222
28.55000,236
28.55833,250
28.56667,265
28.57500,282
28.58333,300
28.59167,318
28.60000,338
28.60833,359
28.61667,382
28.62500,406
28.63333,432
28.64167,459
28.65000,488
28.65833,518
28.66667,550
28.67500,583
28.68333,617
28.69167,653
28.70000,690
28.70833,730
28.71667,770
28.72500,812
28.73333,855
28.74167,899
28.75000,944
28.75833,991
28.76667,1039
28.77500,1088
28.78333,1138
28.79167,1189
28.80000,1240
28.80833,1293
28.81667,1345
28.82500,1399
28.83333,1452
28.84167,1507
28.85000,1561
28.85833,1616
28.86667,1671
28.87500,1726
28.88333,1780
28.89167,1834
28.90000,1888
28.90833,1941
28.91667,1993
28.92500,2044
28.93333,2094
28.94167,2144
28.95000,2192
28.95833,2239
28.96667,2285
28.97500,2330
28.98333,2373
28.99167,2415
29.00000,2455
29.00833,2495
29.01667,2532
29.02500,2568
29.03333,2602
29.04167,2635
29.05000,2666
29.05833,2695
29.06667,2723
29.07500,2749
29.08333,2774
29.09167,2796
29.10000,2817
29.10833,2837
29.11667,2855
29.12500,2872
29.13333,2887
29.14167,2900
29.15000,2912
29.15833,2922
29.16667,2931
29.17500,2938
29.18333,2943
29.19167,2948
29.20000,2950
29.20833,2951
29.21667,2951
29.22500,2950
29.23333,2947
29.24167,2942
29.25000,2936
29.25833,2928
29.26667,2920
29.27500,2909
29.28333,2897
29.29167,2884
29.30000,2869
29.30833,2854
29.31667,2836
29.32500,2817
29.33333,2797
29.34167,2775
29.35000,2752
29.35833,2726
29.36667,2700
29.37500,2672
29.38333,2642
29.39167,2611
29.40000,2579
29.40833,2545
29.41667,2510
29.42500,2475
29.43333,2437
29.44167,2399
29.45000,2359
29.45833,2318
29.46667,2276
29.47500,2233
29.48333,2189
29.49167,2145
29.50000,2099
29.50833,2053
29.51667,2006
29.52500,1959
29.53333,1911
29.54167,1863
29.55000,1815
29.55833,1767
29.56667,1718
29.57500,1669
29.58333,1620
29.59167,1571
29.60000,1523
29.60833,1475
29.61667,1427
29.62500,1380
29.63333,1333
29.64167,1287
29.65000,1241
29.65833,1197
29.66667,1153
29.67500,1109
29.68333,1066
29.69167,1025
29.70000,984
29.70833,944
29.71667,906
29.72500,868
29.73333,832
29.74167,797
29.75000,763
29.75833,730
29.76667,698
29.77500,667
29.78333,637
29.79167,608
29.80000,581
29.80833,555
29.81667,529
29.82500,505
29.83333,482
29.84167,460
29.85000,438
29.85833,418
29.86667,399
29.87500,381
29.88333,364
29.89167,347
29.90000,331
29.90833,317
29.91667,303
29.92500,290
29.93333,278
29.94167,266
29.95000,255
29.95833,245
29.96667,235
29.97500,226
29.98333,218
29.99167,210
30.00000,203
30.00833,196
30.01667,189
30.02500,183
30.03333,177
30.04167,172
30.05000,167
30.05833,162
30.06667,158
30.07500,154
30.08333,150
30.09167,146
30.10000,143
30.10833,140
30.11667,137
30.12500,134
30.13333,132
30.14167,129
30.15000,127
30.15833,125
30.16667,124
30.17500,122
30.18333,120
30.19167,118
30.20000,117
30.20833,115
30.21667,114
30.22500,113
30.23333,112
30.24167,111
30.25000,110
30.25833,109
30.26667,108
30.27500,108
30.28333,108
30.29167,107
30.30000,106
30.30833,106
30.31667,105
30.32500,105
30.33333,104
30.34167,104
30.35000,103
30.35833,103
30.36667,103
30.37500,102
30.38333,102
30.39167,102
30.40000,102
30.40833,102
30.41667,102
30.42500,102
30.43333,102
30.44167,103
30.45000,103
30.45833,103
30.46667,104
30.47500,104
30.48333,105
30.49167,106
30.50000,107
30.50833,107
30.51667,108
30.52500,109
30.53333,110
30.54167,111
30.55000,111
30.55833,112
30.56667,113
30.57500,114
30.58333,115
30.59167,116
30.60000,117
30.60833,118
30.61667,119
30.62500,120
30.63333,121
30.64167,122
30.65000,124
30.65833,125
30.66667,127
30.67500,129
30.68333,131
30.69167,132
30.70000,134
30.70833,136
30.71667,138
30.72500,139
30.73333,141
30.74167,143
30.75000,145
30.75833,147
30.76667,149
30.77500,150
30.78333,152
30.79167,153
30.80000,155
30.80833,157
30.81667,158
30.82500,160
30.83333,162
30.84167,164
30.85000,166
30.85833,168
30.86667,170
30.87500,171
30.88333,173
30.89167,175
30.90000,176
30.90833,177
30.91667,179
30.92500,181
30.93333,182
30.94167,184
30.95000,185
30.95833,187
30.96667,188
30.97500,189
30.98333,190
30.99167,192
31.00000,193
31.00833,194
31.01667,195
31.02500,196
31.03333,197
31.04167,198
31.05000,198
31.05833,199
31.06667,200
31.07500,200
31.08333,201
31.09167,201
31.10000,202
31.10833,202
31.11667,203
31.12500,203
31.13333,203
31.14167,203
31.15000,203
31.15833,204
31.16667,204
31.17500,204
31.18333,204
31.19167,204
31.20000,204
31.20833,203
31.21667,203
31.22500,203
31.23333,202
31.24167,202
31.25000,201
31.25833,201
31.26667,200
31.27500,199
31.28333,199
31.29167,198
31.30000,197
31.30833,196
31.31667,195
31.32500,194
31.33333,194
31.34167,193
31.35000,192
31.35833,191
31.36667,191
31.37500,190
31.38333,188
31.39167,187
31.40000,186
31.40833,184
31.41667,183
31.42500,182
31.43333,181
31.44167,179
31.45000,178
31.45833,176
31.46667,175
31.47500,174
31.48333,173
31.49167,171
31.50000,170
31.50833,169
31.51667,167
31.52500,166
31.53333,165
31.54167,164
31.55000,162
31.55833,161
31.56667,161
31.57500,160
31.58333,159
31.59167,158
31.60000,157
31.60833,157
31.61667,156
31.62500,156
31.63333,155
31.64167,155
31.65000,155
31.65833,155
31.66667,155
31.67500,156
31.68333,156
31.69167,157
31.70000,158
31.70833,158
31.71667,159
31.72500,160
31.73333,162
31.74167,163
31.75000,165
31.75833,167
31.76667,169
31.77500,171
31.78333,173
31.79167,176
31.80000,179
31.80833,182
31.81667,185
31.82500,189
31.83333,192
31.84167,196
31.85000,200
31.85833,205
31.86667,209
31.87500,214
31.88333,219
31.89167,224
31.90000,230
31.90833,235
31.91667,241
31.92500,246
31.93333,252
31.94167,258
31.95000,265
31.95833,271
31.96667,278
31.97500,285
31.98333,291
31.99167,298
32.00000,305
32.00833,311
32.01667,318
32.02500,325
32.03333,332
32.04167,339
32.05000,346
32.05833,353
32.06667,360
32.07500,367
32.08333,373
32.09167,380
32.10000,386
32.10833,393
32.11667,399
32.12500,405
32.13333,412
32.14167,418
32.15000,425
32.15833,431
32.16667,437
32.17500,443
32.18333,448
32.19167,454
32.20000,459
32.20833,465
32.21667,471
32.22500,476
32.23333,481
32.24167,486
32.25000,490
32.25833,495
32.26667,499
32.27500,504
32.28333,508
32.29167,512
32.30000,516
32.30833,520
32.31667,524
32.32500,527
32.33333,530
32.34167,534
32.35000,537
32.35833,540
32.36667,543
32.37500,545
32.38333,547
32.39167,550
32.40000,552
32.40833,554
32.41667,556
32.42500,557
32.43333,558
32.44167,560
32.45000,561
32.45833,563
32.46667,564
32.47500,564
32.48333,565
32.49167,565
32.50000,564
32.50833,564
32.51667,564
32.52500,563
32.53333,563
32.54167,562
32.55000,561
32.55833,560
32.56667,558
32.57500,557
32.58333,555
32.59167,553
32.60000,551
32.60833,549
32.61667,546
32.62500,544
32.63333,541
32.64167,538
32.65000,536
32.65833,532
32.66667,529
32.67500,526
32.68333,522
32.69167,519
32.70000,515
32.70833,512
32.71667,508
32.72500,504
32.73333,500
32.74167,496
32.75000,492
32.75833,488
32.76667,484
32.77500,480
32.78333,476
32.79167,472
32.80000,469
32.80833,465
32.81667,461
32.82500,458
32.83333,454
32.84167,450
32.85000,447
32.85833,444
32.86667,440
32.87500,437
32.88333,434
32.89167,431
32.90000,428
32.90833,426
32.91667,423
32.92500,421
32.93333,419
32.94167,416
32.95000,414
32.95833,412
32.96667,410
32.97500,408
32.98333,406
32.99167,405
33.00000,403
33.00833,401
33.01667,400
33.02500,400
33.03333,399
33.04167,398
33.05000,397
33.05833,396
33.06667,395
33.07500,394
33.08333,393
33.09167,392
33.10000,392
33.10833,391
33.11667,391
33.12500,391
33.13333,390
33.14167,389
33.15000,389
33.15833,388
33.16667,388
33.17500,387
33.18333,386
33.19167,385
33.20000,385
33.20833,384
33.21667,383
33.22500,381
33.23333,381
33.24167,380
33.25000,379
33.25833,378
33.26667,377
33.27500,375
33.28333,374
33.29167,373
33.30000,372
33.30833,370
33.31667,369
33.32500,368
33.33333,366
33.34167,364
33.35000,363
33.35833,361
33.36667,359
33.37500,356
33.38333,354
33.39167,352
33.40000,350
33.40833,348
33.41667,345
33.42500,343
33.43333,340
33.44167,338
33.45000,335
33.45833,333
33.46667,330
33.47500,327
33.48333,324
33.49167,321
33.50000,318
33.50833,315
33.51667,312
33.52500,308
33.53333,305
33.54167,302
33.55000,298
33.55833,295
33.56667,292
33.57500,288
33.58333,284
33.59167,281
33.60000,277
33.60833,273
33.61667,270
33.62500,266
33.63333,263
33.64167,259
33.65000,255
33.65833,251
33.66667,247
33.67500,243
33.68333,239
33.69167,235
33.70000,231
33.70833,227
33.71667,223
33.72500,219
33.73333,215
33.74167,211
33.75000,207
33.75833,203
33.76667,199
33.77500,195
33.78333,191
33.79167,187
33.80000,183
33.80833,179
33.81667,174
33.82500,171
33.83333,167
33.84167,164
33.85000,161
33.85833,157
33.86667,154
33.87500,150
33.88333,146
33.89167,142
33.90000,139
33.90833,135
33.91667,132
33.92500,128
33.93333,125
33.94167,122
33.95000,119
33.95833,115
33.96667,112
33.97500,109
33.98333,107
33.99167,105
34.00000,102
34.00833,100
34.01667,97
34.02500,94
34.03333,91
34.04167,89
34.05000,87
34.05833,85
34.06667,83
34.07500,80
34.08333,78
34.09167,76
34.10000,74
34.10833,72
34.11667,70
34.12500,68
34.13333,66
34.14167,64
34.15000,63
34.15833,61
34.16667,60
34.17500,58
34.18333,57
34.19167,56
34.20000,55
34.20833,54
34.21667,52
34.22500,51
34.23333,50
34.24167,49
34.25000,48
34.25833,48
34.26667,47
34.27500,46
34.28333,45
34.29167,45
34.30000,44
34.30833,43
34.31667,42
34.32500,41
34.33333,41
34.34167,39
34.35000,39
34.35833,38
34.36667,37
34.37500,37
34.38333,36
34.39167,36
34.40000,35
34.40833,34
34.41667,34
34.42500,34
34.43333,34
34.44167,33
34.45000,33
34.45833,32
34.46667,31
34.47500,31
34.48333,31
34.49167,31
34.50000,31
34.50833,30
34.51667,30
34.52500,29
34.53333,29
34.54167,29
34.55000,28
34.55833,28
34.56667,28
34.57500,27
34.58333,27
34.59167,26
34.60000,26
34.60833,26
34.61667,26
34.62500,26
34.63333,26
34.64167,25
34.65000,25
34.65833,24
34.66667,24
34.67500,23
34.68333,23
34.69167,22
34.70000,22
34.70833,22
34.71667,21
34.72500,21
34.73333,21
34.74167,21
34.75000,21
34.75833,21
34.76667,20
34.77500,20
34.78333,20
34.79167,19
34.80000,19
34.80833,19
34.81667,19
34.82500,18
34.83333,18
34.84167,18
34.85000,18
34.85833,18
34.86667,18
34.87500,18
34.88333,18
34.89167,18
34.90000,18
34.90833,18
34.91667,17
34.92500,17
34.93333,17
34.94167,17
34.95000,17
34.95833,17
34.96667,16
34.97500,16
34.98333,16
34.99167,16
35.00000,16
35.00833,16
35.01667,16
35.02500,16
35.03333,16
35.04167,15
35.05000,15
35.05833,15
35.06667,15
35.07500,15
35.08333,15
35.09167,15
35.10000,16
35.10833,16
35.11667,16
35.12500,17
35.13333,17
35.14167,17
35.15000,17
35.15833,17
35.16667,18
35.17500,18
35.18333,19
35.19167,19
35.20000,20
35.20833,20
35.21667,21
35.22500,21
35.23333,22
35.24167,22
35.25000,22
35.25833,23
35.26667,23
35.27500,24
35.28333,25
35.29167,25
35.30000,26
35.30833,27
35.31667,27
35.32500,28
35.33333,29
35.34167,30
35.35000,31
35.35833,32
35.36667,33
35.37500,34
35.38333,35
35.39167,35
35.40000,36
35.40833,37
35.41667,37
35.42500,38
35.43333,39
35.44167,40
35.45000,41
35.45833,42
35.46667,43
35.47500,44
35.48333,45
35.49167,46
35.50000,47
35.50833,48
35.51667,49
35.52500,50
35.53333,51
35.54167,52
35.55000,53
35.55833,53
35.56667,54
35.57500,55
35.58333,56
35.59167,57
35.60000,57
35.60833,58
35.61667,59
35.62500,60
35.63333,61
35.64167,62
35.65000,63
35.65833,63
35.66667,64
35.67500,65
35.68333,65
35.69167,66
35.70000,67
35.70833,67
35.71667,68
35.72500,68
35.73333,69
35.74167,70
35.75000,71
35.75833,71
35.76667,72
35.77500,72
35.78333,73
35.79167,74
35.80000,74
35.80833,75
35.81667,75
35.82500,76
35.83333,76
35.84167,76
35.85000,77
35.85833,77
35.86667,78
35.87500,78
35.88333,79
35.89167,79
35.90000,80
35.90833,80
35.91667,80
35.92500,80
35.93333,81
35.94167,81
35.95000,81
35.95833,81
35.96667,82
35.97500,82
35.98333,82
35.99167,82
36.00000,82
36.00833,82
36.01667,83
36.02500,83
36.03333,83
36.04167,83
36.05000,83
36.05833,83
36.06667,83
36.07500,83
36.08333,83
36.09167,83
36.10000,83
36.10833,83
36.11667,82
36.12500,82
36.13333,82
36.14167,82
36.15000,82
36.15833,82
36.16667,81
36.17500,81
36.18333,81
36.19167,81
36.20000,81
36.20833,81
36.21667,80
36.22500,81
36.23333,81
36.24167,80
36.25000,80
36.25833,79
36.26667,79
36.27500,79
36.28333,78
36.29167,78
36.30000,77
36.30833,77
36.31667,76
36.32500,75
36.33333,75
36.34167,74
36.35000,74
36.35833,74
36.36667,74
36.37500,74
36.38333,73
36.39167,73
36.40000,73
36.40833,72
36.41667,72
36.42500,71
36.43333,71
36.44167,70
36.45000,69
36.45833,68
36.46667,68
36.47500,68
36.48333,67
36.49167,67
36.50000,67
36.50833,66
36.51667,66
36.52500,66
36.53333,66
36.54167,65
36.55000,65
36.55833,65
36.56667,64
36.57500,64
36.58333,64
36.59167,64
36.60000,63
36.60833,63
36.61667,63
36.62500,63
36.63333,63
36.64167,63
36.65000,63
36.65833,63
36.66667,62
36.67500,62
36.68333,62
36.69167,62
36.70000,62
36.70833,62
36.71667,62
36.72500,62
36.73333,62
36.74167,61
36.75000,61
36.75833,61
36.76667,61
36.77500,62
36.78333,61
36.79167,61
36.80000,61
36.80833,61
36.81667,62
36.82500,62
36.83333,63
36.84167,63
36.85000,63
36.85833,63
36.86667,64
36.87500,64
36.88333,65
36.89167,65
36.90000,65
36.90833,66
36.91667,66
36.92500,67
36.93333,67
36.94167,67
36.95000,67
36.95833,68
36.96667,68
36.97500,68
36.98333,69
36.99167,69
37.00000,70
37.00833,71
37.01667,72
37.02500,73
37.03333,74
37.04167,75
37.05000,76
37.05833,76
37.06667,77
37.07500,78
37.08333,78
37.09167,79
37.10000,80
37.10833,80
37.11667,81
37.12500,81
37.13333,82
37.14167,83
37.15000,83
37.15833,84
37.16667,85
37.17500,85
37.18333,86
37.19167,87
37.20000,88
37.20833,89
37.21667,90
37.22500,91
37.23333,91
37.24167,92
37.25000,93
37.25833,94
37.26667,95
37.27500,96
37.28333,97
37.29167,98
37.30000,99
37.30833,100
37.31667,101
37.32500,101
37.33333,102
37.34167,103
37.35000,104
37.35833,104
37.36667,105
37.37500,106
37.38333,107
37.39167,108
37.40000,109
37.40833,110
37.41667,111
37.42500,112
37.43333,113
37.44167,114
37.45000,115
37.45833,116
37.46667,116
37.47500,117
37.48333,118
37.49167,119
37.50000,120
37.50833,121
37.51667,122
37.52500,123
37.53333,123
37.54167,124
37.55000,125
37.55833,126
37.56667,127
37.57500,127
37.58333,128
37.59167,129
37.60000,130
37.60833,131
37.61667,132
37.62500,133
37.63333,133
37.64167,134
37.65000,135
37.65833,135
37.66667,135
37.67500,136
37.68333,136
37.69167,137
37.70000,137
37.70833,138
37.71667,138
37.72500,139
37.73333,139
37.74167,139
37.75000,140
37.75833,140
37.76667,140
37.77500,140
37.78333,140
37.79167,140
37.80000,141
37.80833,141
37.81667,141
37.82500,140
37.83333,140
37.84167,140
37.85000,140
37.85833,140
37.86667,140
37.87500,140
37.88333,140
37.89167,140
37.90000,140
37.90833,139
37.91667,139
37.92500,139
37.93333,139
37.94167,139
37.95000,138
37.95833,138
37.96667,137
37.97500,136
37.98333,135
37.99167,135
38.00000,135
38.00833,134
38.01667,134
38.02500,133
38.03333,132
38.04167,132
38.05000,131
38.05833,131
38.06667,130
38.07500,129
38.08333,129
38.09167,128
38.10000,127
38.10833,126
38.11667,124
38.12500,123
38.13333,122
38.14167,121
38.15000,120
38.15833,119
38.16667,118
38.17500,118
38.18333,117
38.19167,116
38.20000,115
38.20833,114
38.21667,113
38.22500,112
38.23333,110
38.24167,109
38.25000,108
38.25833,107
38.26667,106
38.27500,104
38.28333,103
38.29167,102
38.30000,100
38.30833,99
38.31667,98
38.32500,96
38.33333,95
38.34167,94
38.35000,93
38.35833,92
38.36667,91
38.37500,89
38.38333,88
38.39167,87
38.40000,86
38.40833,84
38.41667,82
38.42500,81
38.43333,80
38.44167,79
38.45000,77
38.45833,76
38.46667,74
38.47500,73
38.48333,71
38.49167,70
38.50000,69
38.50833,68
38.51667,66
38.52500,65
38.53333,63
38.54167,62
38.55000,61
38.55833,59
38.56667,58
38.57500,57
38.58333,56
38.59167,55
38.60000,55
38.60833,53
38.61667,52
38.62500,50
38.63333,49
38.64167,47
38.65000,46
38.65833,45
38.66667,44
38.67500,42
38.68333,41
38.69167,40
38.70000,39
38.70833,38
38.71667,37
38.72500,36
38.73333,35
38.74167,34
38.75000,33
38.75833,33
38.76667,31
38.77500,30
38.78333,29
38.79167,29
38.80000,28
38.80833,27
38.81667,26
38.82500,25
38.83333,24
38.84167,23
38.85000,23
38.85833,22
38.86667,21
38.87500,21
38.88333,20
38.89167,20
38.90000,19
38.90833,18
38.91667,18
38.92500,18
38.93333,17
38.94167,16
38.95000,16
38.95833,16
38.96667,15
38.97500,14
38.98333,13
38.99167,12
39.00000,12
39.00833,12
39.01667,12
39.02500,11
39.03333,11
39.04167,10
39.05000,10
39.05833,10
39.06667,9
39.07500,10
39.08333,9
39.09167,9
39.10000,9
39.10833,9
39.11667,9
39.12500,9
39.13333,8
39.14167,8
39.15000,7
39.15833,6
39.16667,6
39.17500,6
39.18333,6
39.19167,6
39.20000,6
39.20833,6
39.21667,6
39.22500,7
39.23333,7
39.24167,7
39.25000,6
39.25833,6
39.26667,6
39.27500,5
39.28333,5
39.29167,5
39.30000,5
39.30833,5
39.31667,5
39.32500,5
39.33333,5
39.34167,5
39.35000,5
39.35833,5
39.36667,5
39.37500,5
39.38333,5
39.39167,5
39.40000,5
39.40833,4
39.41667,4
39.42500,4
39.43333,4
39.44167,4
39.45000,4
39.45833,4
39.46667,4
39.47500,4
39.48333,4
39.49167,4
39.50000,4
39.50833,4
39.51667,4
39.52500,3
39.53333,3
39.54167,3
39.55000,2
39.55833,2
39.56667,2
39.57500,3
39.58333,3
39.59167,3
39.60000,3
39.60833,3
39.61667,3
39.62500,3
39.63333,4
39.64167,3
39.65000,3
39.65833,3
39.66667,2
39.67500,2
39.68333,2
39.69167,3
39.70000,3
39.70833,3
39.71667,3
39.72500,3
39.73333,3
39.74167,3
39.75000,2
39.75833,2
39.76667,2
39.77500,2
39.78333,3
39.79167,2
39.80000,2
39.80833,2
39.81667,2
39.82500,1
39.83333,1
39.84167,1
39.85000,1
39.85833,1
39.86667,1
39.87500,1
39.88333,1
39.89167,1
39.90000,1
39.90833,1
39.91667,1
39.92500,1
39.93333,1
39.94167,1
39.95000,1
39.95833,1
39.96667,1
39.97500,2
39.98333,2
39.99167,2
40.00000,2
40.00833,2
40.01667,2
40.02500,1
40.03333,1
40.04167,2
40.05000,2
40.05833,2
40.06667,2
40.07500,2
40.08333,2
40.09167,2
40.10000,2
40.10833,1
40.11667,1
40.12500,0
40.13333,0
40.14167,1
40.15000,1
40.15833,1
40.16667,1
40.17500,1
40.18333,2
40.19167,2
40.20000,2
40.20833,2
40.21667,2
40.22500,2
40.23333,2
40.24167,2
40.25000,2
40.25833,2
40.26667,2
40.27500,2
40.28333,3
40.29167,3
40.30000,3
40.30833,3
40.31667,3
40.32500,4
40.33333,4
40.34167,4
40.35000,4
40.35833,4
40.36667,5
40.37500,5
40.38333,5
40.39167,6
40.40000,6
40.40833,6
40.41667,7
40.42500,7
40.43333,7
40.44167,7
40.45000,7
40.45833,8
40.46667,8
40.47500,8
40.48333,9
40.49167,10
40.50000,10
40.50833,11
40.51667,11
40.52500,11
40.53333,12
40.54167,12
40.55000,13
40.55833,14
40.56667,14
40.57500,15
40.58333,16
40.59167,17
40.60000,17
40.60833,17
40.61667,18
40.62500,19
40.63333,19
40.64167,21
40.65000,22
40.65833,23
40.66667,24
40.67500,25
40.68333,27
40.69167,27
40.70000,29
40.70833,30
40.71667,31
40.72500,32
40.73333,33
40.74167,34
40.75000,35
40.75833,37
40.76667,38
40.77500,40
40.78333,41
40.79167,42
40.80000,43
40.80833,44
40.81667,46
40.82500,47
40.83333,48
40.84167,50
40.85000,51
40.85833,52
40.86667,54
40.87500,55
40.88333,57
40.89167,58
40.90000,60
40.90833,61
40.91667,63
40.92500,64
40.93333,66
40.94167,68
40.95000,70
40.95833,71
40.96667,72
40.97500,74
40.98333,75
40.99167,76
41.00000,78
41.00833,80
41.01667,82
41.02500,83
41.03333,85
41.04167,86
41.05000,87
41.05833,89
41.06667,90
41.07500,92
41.08333,93
41.09167,94
41.10000,96
41.10833,98
41.11667,99
41.12500,101
41.13333,103
41.14167,105
41.15000,106
41.15833,108
41.16667,109
41.17500,111
41.18333,113
41.19167,114
41.20000,116
41.20833,118
41.21667,119
41.22500,121
41.23333,123
41.24167,125
41.25000,126
41.25833,128
41.26667,129
41.27500,130
41.28333,132
41.29167,133
41.30000,135
41.30833,136
41.31667,138
41.32500,139
41.33333,141
41.34167,142
41.35000,144
41.35833,145
41.36667,147
41.37500,149
41.38333,150
41.39167,152
41.40000,153
41.40833,155
41.41667,156
41.42500,157
41.43333,159
41.44167,160
41.45000,161
41.45833,162
41.46667,164
41.47500,165
41.48333,166
41.49167,167
41.50000,169
41.50833,170
41.51667,171
41.52500,172
41.53333,174
41.54167,175
41.55000,176
41.55833,177
41.56667,178
41.57500,179
41.58333,180
41.59167,182
41.60000,183
41.60833,184
41.61667,185
41.62500,186
41.63333,187
41.64167,188
41.65000,189
41.65833,190
41.66667,191
41.67500,192
41.68333,192
41.69167,193
41.70000,194
41.70833,195
41.71667,196
41.72500,197
41.73333,197
41.74167,198
41.75000,199
41.75833,200
41.76667,201
41.77500,201
41.78333,201
41.79167,201
41.80000,202
41.80833,202
41.81667,203
41.82500,203
41.83333,204
41.84167,204
41.85000,204
41.85833,204
41.86667,204
41.87500,205
41.88333,205
41.89167,205
41.90000,205
41.90833,205
41.91667,206
41.92500,206
41.93333,206
41.94167,206
41.95000,206
41.95833,206
41.96667,206
41.97500,206
41.98333,206
41.99167,205
42.00000,205
42.00833,205
42.01667,205
42.02500,205
42.03333,205
42.04167,205
42.05000,205
42.05833,205
42.06667,205
42.07500,205
42.08333,205
42.09167,204
42.10000,204
42.10833,203
42.11667,203
42.12500,203
42.13333,203
42.14167,203
42.15000,203
42.15833,202
42.16667,202
42.17500,201
42.18333,201
42.19167,201
42.20000,201
42.20833,200
42.21667,200
42.22500,199
42.23333,199
42.24167,198
42.25000,198
42.25833,197
42.26667,197
42.27500,196
42.28333,196
42.29167,195
42.30000,195
42.30833,194
42.31667,194
42.32500,194
42.33333,194
42.34167,194
42.35000,193
42.35833,192
42.36667,191
42.37500,191
42.38333,190
42.39167,190
42.40000,189
42.40833,188
42.41667,188
42.42500,187
42.43333,187
42.44167,186
42.45000,186
42.45833,186
42.46667,185
42.47500,185
42.48333,184
42.49167,183
42.50000,183
42.50833,182
42.51667,182
42.52500,181
42.53333,181
42.54167,180
42.55000,179
42.55833,179
42.56667,178
42.57500,177
42.58333,177
42.59167,176
42.60000,176
42.60833,175
42.61667,175
42.62500,174
42.63333,173
42.64167,172
42.65000,171
42.65833,170
42.66667,170
42.67500,169
42.68333,168
42.69167,167
42.70000,166
42.70833,165
42.71667,164
42.72500,164
42.73333,163
42.74167,162
42.75000,161
42.75833,161
42.76667,160
42.77500,160
42.78333,159
42.79167,158
42.80000,157
42.80833,156
42.81667,156
42.82500,155
42.83333,154
42.84167,153
42.85000,151
42.85833,150
42.86667,149
42.87500,149
42.88333,148
42.89167,147
42.90000,147
42.90833,146
42.91667,145
42.92500,144
42.93333,143
42.94167,142
42.95000,141
42.95833,141
42.96667,140
42.97500,139
42.98333,138
42.99167,137
43.00000,136
43.00833,136
43.01667,135
43.02500,133
43.03333,133
43.04167,132
43.05000,131
43.05833,130
43.06667,129
43.07500,128
43.08333,127
43.09167,127
43.10000,126
43.10833,125
43.11667,124
43.12500,123
43.13333,122
43.14167,121
43.15000,121
43.15833,120
43.16667,119
43.17500,118
43.18333,117
43.19167,116
43.20000,115
43.20833,115
43.21667,114
43.22500,114
43.23333,113
43.24167,112
43.25000,111
43.25833,110
43.26667,109
43.27500,109
43.28333,108
43.29167,107
43.30000,106
43.30833,105
43.31667,104
43.32500,103
43.33333,102
43.34167,101
43.35000,100
43.35833,99
43.36667,99
43.37500,98
43.38333,97
43.39167,97
43.40000,96
43.40833,95
43.41667,94
43.42500,93
43.43333,93
43.44167,92
43.45000,91
43.45833,91
43.46667,89
43.47500,89
43.48333,88
43.49167,88
43.50000,87
43.50833,86
43.51667,85
43.52500,85
43.53333,84
43.54167,83
43.55000,82
43.55833,81
43.56667,80
43.57500,80
43.58333,79
43.59167,78
43.60000,78
43.60833,77
43.61667,76
43.62500,75
43.63333,75
43.64167,74
43.65000,73
43.65833,72
43.66667,71
43.67500,70
43.68333,69
43.69167,68
43.70000,68
43.70833,67
43.71667,66
43.72500,65
43.73333,65
43.74167,64
43.75000,63
43.75833,63
43.76667,62
43.77500,62
43.78333,61
43.79167,60
43.80000,60
43.80833,59
43.81667,57
43.82500,56
43.83333,56
43.84167,55
43.85000,55
43.85833,54
43.86667,53
43.87500,52
43.88333,51
43.89167,51
43.90000,50
43.90833,50
43.91667,49
43.92500,49
43.93333,48
43.94167,48
43.95000,47
43.95833,47
43.96667,46
43.97500,46
43.98333,45
43.99167,45
44.00000,44
44.00833,43
44.01667,43
44.02500,42
44.03333,41
44.04167,40
44.05000,39
44.05833,39
44.06667,38
44.07500,37
44.08333,37
44.09167,37
44.10000,37
44.10833,36
44.11667,36
44.12500,35
44.13333,34
44.14167,33
44.15000,33
44.15833,33
44.16667,32
44.17500,32
44.18333,31
44.19167,31
44.20000,31
44.20833,30
44.21667,30
44.22500,29
44.23333,29
44.24167,28
44.25000,28
44.25833,27
44.26667,27
44.27500,26
44.28333,26
44.29167,25
44.30000,24
44.30833,24
44.31667,23
44.32500,23
44.33333,23
44.34167,22
44.35000,22
44.35833,22
44.36667,21
44.37500,20
44.38333,20
44.39167,20
44.40000,19
44.40833,19
44.41667,18
44.42500,18
44.43333,17
44.44167,17
44.45000,17
44.45833,17
44.46667,17
44.47500,16
44.48333,16
44.49167,15
44.50000,15
44.50833,14
44.51667,14
44.52500,14
44.53333,13
44.54167,13
44.55000,13
44.55833,12
44.56667,12
44.57500,11
44.58333,11
44.59167,11
44.60000,11
44.60833,11
44.61667,11
44.62500,10
44.63333,10
44.64167,10
44.65000,9
44.65833,9
44.66667,8
44.67500,8
44.68333,8
44.69167,7
44.70000,7
44.70833,7
44.71667,7
44.72500,7
44.73333,6
44.74167,6
44.75000,5
44.75833,5
44.76667,4
44.77500,4
44.78333,3
44.79167,3
44.80000,3
44.80833,4
44.81667,4
44.82500,4
44.83333,3
44.84167,4
44.85000,4
44.85833,3
44.86667,3
44.87500,2
44.88333,2
44.89167,2
44.90000,2
44.90833,2
44.91667,1
44.92500,1
44.93333,1
44.94167,1
44.95000,1
44.95833,1
44.96667,1
44.97500,1
44.98333,0
44.99167,0
45.00000,0
45.00833,0
45.01667,0
45.02500,1
45.03333,1
45.04167,1
45.05000,1
45.05833,1
45.06667,1
45.07500,0
45.08333,0
45.09167,-0
45.10000,-0
45.10833,-0
45.11667,-1
45.12500,-1
45.13333,-1
45.14167,-1
45.15000,-2
45.15833,-2
45.16667,-2
45.17500,-2
45.18333,-1
45.19167,-1
45.20000,-1
45.20833,-2
45.21667,-2
45.22500,-2
45.23333,-2
45.24167,-2
45.25000,-2
45.25833,-2
45.26667,-2
45.27500,-2
45.28333,-2
45.29167,-2
45.30000,-2
45.30833,-2
45.31667,-1
45.32500,-1
45.33333,-1
45.34167,-1
45.35000,-1
45.35833,-1
45.36667,-1
45.37500,-1
45.38333,-1
45.39167,-1
45.40000,-1
45.40833,-1
45.41667,-1
45.42500,-2
45.43333,-1
45.44167,-1
45.45000,-2
45.45833,-2
45.46667,-2
45.47500,-2
45.48333,-2
45.49167,-2
45.50000,-2
45.50833,-2
45.51667,-2
45.52500,-2
45.53333,-2
45.54167,-2
45.55000,-2
45.55833,-2
45.56667,-2
45.57500,-2
45.58333,-2
45.59167,-2
45.60000,-2
45.60833,-1
45.61667,-1
45.62500,-1
45.63333,-1
45.64167,-2
45.65000,-2
45.65833,-3
45.66667,-3
45.67500,-2
45.68333,-2
45.69167,-2
45.70000,-2
45.70833,-3
45.71667,-2
45.72500,-2
45.73333,-2
45.74167,-2
45.75000,-2
45.75833,-2
45.76667,-2
45.77500,-3
45.78333,-3
45.79167,-3
45.80000,-3
45.80833,-3
45.81667,-3
45.82500,-3
45.83333,-3
45.84167,-3
45.85000,-4
45.85833,-4
45.86667,-4
45.87500,-4
45.88333,-5
45.89167,-5
45.90000,-5
45.90833,-5
45.91667,-5
45.92500,-5
45.93333,-5
45.94167,-5
45.95000,-5
45.95833,-5
45.96667,-5
45.97500,-5
45.98333,-6
45.99167,-6
46.00000,-6
46.00833,-6
46.01667,-6
46.02500,-6
46.03333,-6
46.04167,-7
46.05000,-7
46.05833,-8
46.06667,-8
46.07500,-8
46.08333,-8
46.09167,-9
46.10000,-9
46.10833,-9
46.11667,-9
46.12500,-9
46.13333,-9
46.14167,-9
46.15000,-9
46.15833,-9
46.16667,-9
46.17500,-10
46.18333,-10
46.19167,-10
46.20000,-10
46.20833,-10
46.21667,-10
46.22500,-10
46.23333,-11
46.24167,-11
46.25000,-12
46.25833,-11
46.26667,-11
46.27500,-12
46.28333,-12
46.29167,-12
46.30000,-12
46.30833,-12
46.31667,-13
46.32500,-13
46.33333,-14
46.34167,-14
46.35000,-14
46.35833,-15
46.36667,-15
46.37500,-16
46.38333,-16
46.39167,-16
46.40000,-16
46.40833,-16
46.41667,-16
46.42500,-16
46.43333,-17
46.44167,-17
46.45000,-17
46.45833,-17
46.46667,-18
46.47500,-18
46.48333,-18
46.49167,-19
46.50000,-19
46.50833,-19
46.51667,-19
46.52500,-19
46.53333,-19
46.54167,-19
46.55000,-19
46.55833,-20
46.56667,-20
46.57500,-21
46.58333,-21
46.59167,-21
46.60000,-22
46.60833,-22
46.61667,-22
46.62500,-22
46.63333,-22
46.64167,-23
46.65000,-23
46.65833,-23
46.66667,-23
46.67500,-23
46.68333,-23
46.69167,-24
46.70000,-24
46.70833,-24
46.71667,-24
46.72500,-24
46.73333,-24
46.74167,-24
46.75000,-25
46.75833,-25
46.76667,-26
46.77500,-26
46.78333,-26
46.79167,-26
46.80000,-26
46.80833,-26
46.81667,-26
46.82500,-26
46.83333,-26
46.84167,-27
46.85000,-27
46.85833,-27
46.86667,-27
46.87500,-27
46.88333,-27
46.89167,-27
46.90000,-27
46.90833,-27
46.91667,-28
46.92500,-28
46.93333,-28
46.94167,-28
46.95000,-28
46.95833,-28
46.96667,-27
46.97500,-28
46.98333,-28
46.99167,-28
47.00000,-27
47.00833,-27
47.01667,-27
47.02500,-27
47.03333,-28
47.04167,-28
47.05000,-28
47.05833,-28
47.06667,-28
47.07500,-27
47.08333,-27
47.09167,-27
47.10000,-27
47.10833,-26
47.11667,-26
47.12500,-26
47.13333,-26
47.14167,-26
47.15000,-26
47.15833,-25
47.16667,-25
47.17500,-25
47.18333,-25
47.19167,-25
47.20000,-25
47.20833,-25
47.21667,-24
47.22500,-24
47.23333,-24
47.24167,-23
47.25000,-23
47.25833,-22
47.26667,-21
47.27500,-21
47.28333,-21
47.29167,-21
47.30000,-20
47.30833,-20
47.31667,-20
47.32500,-19
47.33333,-19
47.34167,-18
47.35000,-18
47.35833,-17
47.36667,-17
47.37500,-16
47.38333,-15
47.39167,-14
47.40000,-13
47.40833,-12
47.41667,-12
47.42500,-11
47.43333,-11
47.44167,-10
47.45000,-9
47.45833,-9
47.46667,-8
47.47500,-8
47.48333,-7
47.49167,-7
47.50000,-6
47.50833,-6
47.51667,-5
47.52500,-4
47.53333,-3
47.54167,-3
47.55000,-2
47.55833,-1
47.56667,0
47.57500,1
47.58333,2
47.59167,2
47.60000,3
47.60833,3
47.61667,4
47.62500,5
47.63333,6
47.64167,7
47.65000,8
47.65833,9
47.66667,9
47.67500,10
47.68333,11
47.69167,12
47.70000,13
47.70833,14
47.71667,14
47.72500,15
47.73333,16
47.74167,17
47.75000,18
47.75833,19
47.76667,19
47.77500,20
47.78333,21
47.79167,22
47.80000,23
47.80833,24
47.81667,25
47.82500,26
47.83333,26
47.84167,27
47.85000,28
47.85833,28
47.86667,29
47.87500,30
47.88333,31
47.89167,32
47.90000,33
47.90833,34
47.91667,34
47.92500,34
47.93333,35
47.94167,36
47.95000,36
47.95833,37
47.96667,37
47.97500,38
47.98333,38
47.99167,39
48.00000,40
48.00833,41
48.01667,41
48.02500,42
48.03333,42
48.04167,43
48.05000,43
48.05833,44
48.06667,44
48.07500,45
48.08333,45
48.09167,45
48.10000,45
48.10833,46
48.11667,46
48.12500,46
48.13333,46
48.14167,47
48.15000,47
48.15833,47
48.16667,47
48.17500,48
48.18333,48
48.19167,48
48.20000,48
48.20833,49
48.21667,49
48.22500,49
48.23333,50
48.24167,50
48.25000,50
48.25833,51
48.26667,51
48.27500,52
48.28333,52
48.29167,52
48.30000,52
48.30833,53
48.31667,53
48.32500,53
48.33333,54
48.34167,54
48.35000,54
48.35833,54
48.36667,54
48.37500,54
48.38333,54
48.39167,54
48.40000,55
48.40833,55
48.41667,55
48.42500,56
48.43333,56
48.44167,56
48.45000,56
48.45833,56
48.46667,56
48.47500,56
48.48333,56
48.49167,56
48.50000,56
48.50833,56
48.51667,55
48.52500,55
48.53333,55
48.54167,55
48.55000,55
48.55833,55
48.56667,56
48.57500,56
48.58333,56
48.59167,56
48.60000,56
48.60833,56
48.61667,56
48.62500,56
48.63333,56
48.64167,56
48.65000,56
48.65833,56
48.66667,56
48.67500,56
48.68333,56
48.69167,56
48.70000,56
48.70833,56
48.71667,57
48.72500,57
48.73333,57
48.74167,58
48.75000,58
48.75833,58
48.76667,58
48.77500,57
48.78333,56
48.79167,56
48.80000,56
48.80833,56
48.81667,57
48.82500,57
48.83333,57
48.84167,57
48.85000,57
48.85833,57
48.86667,58
48.87500,58
48.88333,58
48.89167,58
48.90000,57
48.90833,57
48.91667,57
48.92500,57
48.93333,57
48.94167,57
48.95000,58
48.95833,58
48.96667,58
48.97500,58
48.98333,58
48.99167,58
49.00000,58
49.00833,58
49.01667,58
49.02500,58
49.03333,58
49.04167,58
49.05000,58
49.05833,59
49.06667,59
49.07500,59
49.08333,59
49.09167,59
49.10000,59
49.10833,59
49.11667,59
49.12500,59
49.13333,59
49.14167,59
49.15000,59
49.15833,59
49.16667,59
49.17500,59
49.18333,59
49.19167,59
49.20000,59
49.20833,59
49.21667,59
49.22500,59
49.23333,59
49.24167,59
49.25000,60
49.25833,60
49.26667,60
49.27500,60
49.28333,60
49.29167,59
49.30000,59
49.30833,59
49.31667,58
49.32500,58
49.33333,58
49.34167,58
49.35000,57
49.35833,57
49.36667,57
49.37500,57
49.38333,57
49.39167,57
49.40000,57
49.40833,57
49.41667,57
49.42500,57
49.43333,57
49.44167,57
49.45000,56
49.45833,56
49.46667,56
49.47500,56
49.48333,56
49.49167,56
49.50000,56
49.50833,55
49.51667,55
49.52500,55
49.53333,55
49.54167,55
49.55000,54
49.55833,54
49.56667,53
49.57500,53
49.58333,53
49.59167,52
49.60000,52
49.60833,52
49.61667,52
49.62500,51
49.63333,51
49.64167,50
49.65000,50
49.65833,50
49.66667,49
49.67500,49
49.68333,49
49.69167,48
49.70000,48
49.70833,47
49.71667,47
49.72500,47
49.73333,46
49.74167,46
49.75000,45
49.75833,45
49.76667,45
49.77500,44
49.78333,43
49.79167,42
49.80000,42
49.80833,42
49.81667,42
49.82500,41
49.83333,41
49.84167,40
49.85000,39
49.85833,39
49.86667,38
49.87500,37
49.88333,36
49.89167,36
49.90000,36
49.90833,35
49.91667,34
49.92500,34
49.93333,33
49.94167,32
49.95000,31
49.95833,30
49.96667,29
49.97500,29
49.98333,28
49.99167,27
50.00000,26

