[Header]
Application Name,LabSolutions
Version,5.97 SP1
Data File Name,C:\Users\cremerlab\Desktop\Richa\Sep_6th_2022_re-run_Sep2nd\Sep 6th_962022_012_013.lcd
Output Date,9/7/2022
Output Time,3:16:01 AM

[File Information]
Type,Data File
Generated,9/7/2022 2:25:42 AM
Generated by,System Administrator
Modified,9/7/2022 3:16:01 AM
Modified by,System Administrator

[Sample Information]
Operator Name,System Administrator
Acquired,9/7/2022 2:26:01 AM
Sample Type,0:Unknown
Level,0
Sample Name,090622_B.theta_4
Sample ID,012
ISTD Amount1,1
ISTD Amount2,1
ISTD Amount3,1
ISTD Amount4,1
ISTD Amount5,1
ISTD Amount6,1
ISTD Amount7,1
ISTD Amount8,1
ISTD Amount9,1
ISTD Amount10,1
ISTD Amount11,1
ISTD Amount12,1
ISTD Amount13,1
ISTD Amount14,1
ISTD Amount15,1
ISTD Amount16,1
ISTD Amount17,1
ISTD Amount18,1
ISTD Amount19,1
ISTD Amount20,1
ISTD Amount21,1
ISTD Amount22,1
ISTD Amount23,1
ISTD Amount24,1
ISTD Amount25,1
ISTD Amount26,1
ISTD Amount27,1
ISTD Amount28,1
ISTD Amount29,1
ISTD Amount30,1
ISTD Amount31,1
ISTD Amount32,1
Sample Amount,1
Dilution Factor,1
Vial#,12
Injection Volume,20

[Original Files]
Data File,C:\Users\cremerlab\Desktop\Richa\Sep_6th_2022_re-run_Sep2nd\Sep 6th_962022_012_013.lcd
Method File,C:\Users\cremerlab\Desktop\Richa\acetate_excretion.lcm
Batch File,C:\Users\cremerlab\Desktop\Richa\Sep_6th_2022_re-run_Sep2nd\Sep 6th.lcb
Report Format File,c:\LabSolutions\System\DEFAULT.lsr

[File Description]


[Configuration]
Instrument Name,HPLC-PC-Instrument1
Instrument #,1
Line #,1
# of Detectors,2
Detector ID,Detector A,Detector B
Detector Name,Detector A,Detector B
# of Channels,1,1

[Peak Table(Detector A)]
# of Peaks,0

[Peak Table(Detector B)]
# of Peaks,13
Peak#,R.Time,I.Time,F.Time,Area,Height,A/H,Conc.,Mark,ID#,Name,k',Plate #,Plate Ht.,Tailing,Resolution,Sep.Factor,Area Ratio,Height Ratio,Conc. %,Norm Conc.
1,10.475,10.275,10.517,1475,194,7.596,0.000,   ,,,0.000,7386,20.308,0.000,0.000,0.000,0,0,0.000,0.000
2,11.022,10.517,12.300,2265696,115523,19.613,0.000, V ,,,0.052,7508,19.979,0.975,1.099,0.000,0,0,0.000,0.000
3,14.333,12.650,15.183,3578022,76607,46.706,0.000,   ,,,0.368,2482,60.428,0.654,3.989,7.048,0,0,0.000,0.000
4,15.763,15.183,18.392,1339445,45497,29.440,0.000,SV ,,,0.505,6920,21.677,1.144,1.499,1.371,0,0,0.000,0.000
5,17.856,17.442,18.367,6759,239,28.322,0.000,T  ,,,0.705,8448,17.756,1.095,2.727,1.396,0,0,0.000,0.000
6,19.054,18.408,19.750,13530,310,43.654,0.000,   ,,,0.819,4126,36.352,1.021,1.220,1.162,0,0,0.000,0.000
7,20.300,19.750,20.550,20989,700,29.970,0.000,   ,,,0.938,2856,52.529,0.000,0.921,1.145,0,0,0.000,0.000
8,20.961,20.550,21.208,33575,970,34.606,0.000, V ,,,1.001,706,212.378,0.000,0.283,1.067,0,0,0.000,0.000
9,21.636,21.208,22.575,52906,1067,49.570,0.000, V ,,,1.065,963,155.750,0.000,0.227,1.064,0,0,0.000,0.000
10,23.143,22.608,24.200,8852,216,41.008,0.000,   ,,,1.209,8711,17.220,1.498,0.797,1.135,0,0,0.000,0.000
11,25.086,24.308,26.433,158160,3837,41.214,0.000,   ,,,1.395,8980,16.703,1.158,1.895,1.153,0,0,0.000,0.000
12,29.212,28.333,30.325,136182,2918,46.670,0.000,   ,,,1.789,9216,16.275,1.064,3.626,1.282,0,0,0.000,0.000
13,32.499,31.717,34.358,35560,445,79.896,0.000,   ,,,2.103,2606,57.562,1.634,1.746,1.175,0,0,0.000,0.000

[LC Chromatogram(Detector B-Ch1)]
Interval(msec),500
# of Points,6001
Start Time(min),0.000
End Time(min),50.000
Intensity Units,mV
Intensity Multiplier,0.001
R.Time (min),Intensity
0.00000,-13
0.00833,-13
0.01667,-1
0.02500,-1
0.03333,-1
0.04167,-2
0.05000,-3
0.05833,-4
0.06667,-5
0.07500,-6
0.08333,-6
0.09167,-7
0.10000,-7
0.10833,-7
0.11667,-8
0.12500,-8
0.13333,-9
0.14167,-9
0.15000,-10
0.15833,-10
0.16667,-11
0.17500,-12
0.18333,-13
0.19167,-14
0.20000,-14
0.20833,-14
0.21667,-15
0.22500,-15
0.23333,-16
0.24167,-16
0.25000,-17
0.25833,-17
0.26667,-18
0.27500,-18
0.28333,-18
0.29167,-18
0.30000,-19
0.30833,-19
0.31667,-20
0.32500,-20
0.33333,-20
0.34167,-20
0.35000,-20
0.35833,-21
0.36667,-21
0.37500,-21
0.38333,-21
0.39167,-22
0.40000,-23
0.40833,-23
0.41667,-24
0.42500,-24
0.43333,-24
0.44167,-24
0.45000,-24
0.45833,-24
0.46667,-24
0.47500,-24
0.48333,-25
0.49167,-25
0.50000,-25
0.50833,-25
0.51667,-25
0.52500,-26
0.53333,-26
0.54167,-26
0.55000,-26
0.55833,-26
0.56667,-26
0.57500,-27
0.58333,-27
0.59167,-27
0.60000,-27
0.60833,-27
0.61667,-28
0.62500,-28
0.63333,-29
0.64167,-29
0.65000,-30
0.65833,-29
0.66667,-29
0.67500,-29
0.68333,-29
0.69167,-29
0.70000,-29
0.70833,-29
0.71667,-29
0.72500,-29
0.73333,-29
0.74167,-29
0.75000,-29
0.75833,-29
0.76667,-29
0.77500,-29
0.78333,-29
0.79167,-29
0.80000,-29
0.80833,-29
0.81667,-29
0.82500,-29
0.83333,-29
0.84167,-29
0.85000,-29
0.85833,-30
0.86667,-30
0.87500,-30
0.88333,-30
0.89167,-30
0.90000,-30
0.90833,-29
0.91667,-29
0.92500,-29
0.93333,-29
0.94167,-29
0.95000,-29
0.95833,-29
0.96667,-29
0.97500,-28
0.98333,-28
0.99167,-28
1.00000,-28
1.00833,-27
1.01667,-27
1.02500,-27
1.03333,-27
1.04167,-27
1.05000,-27
1.05833,-26
1.06667,-26
1.07500,-25
1.08333,-25
1.09167,-25
1.10000,-25
1.10833,-24
1.11667,-24
1.12500,-24
1.13333,-24
1.14167,-24
1.15000,-24
1.15833,-24
1.16667,-24
1.17500,-24
1.18333,-24
1.19167,-25
1.20000,-25
1.20833,-24
1.21667,-24
1.22500,-24
1.23333,-24
1.24167,-24
1.25000,-24
1.25833,-24
1.26667,-24
1.27500,-24
1.28333,-23
1.29167,-23
1.30000,-23
1.30833,-23
1.31667,-23
1.32500,-22
1.33333,-22
1.34167,-21
1.35000,-21
1.35833,-21
1.36667,-21
1.37500,-21
1.38333,-20
1.39167,-20
1.40000,-20
1.40833,-19
1.41667,-19
1.42500,-20
1.43333,-20
1.44167,-20
1.45000,-20
1.45833,-19
1.46667,-19
1.47500,-19
1.48333,-19
1.49167,-19
1.50000,-19
1.50833,-18
1.51667,-18
1.52500,-18
1.53333,-17
1.54167,-17
1.55000,-17
1.55833,-17
1.56667,-16
1.57500,-16
1.58333,-17
1.59167,-17
1.60000,-16
1.60833,-16
1.61667,-16
1.62500,-16
1.63333,-16
1.64167,-16
1.65000,-15
1.65833,-15
1.66667,-15
1.67500,-15
1.68333,-15
1.69167,-15
1.70000,-15
1.70833,-15
1.71667,-15
1.72500,-15
1.73333,-15
1.74167,-15
1.75000,-15
1.75833,-15
1.76667,-14
1.77500,-14
1.78333,-14
1.79167,-13
1.80000,-13
1.80833,-13
1.81667,-12
1.82500,-12
1.83333,-12
1.84167,-13
1.85000,-13
1.85833,-13
1.86667,-13
1.87500,-12
1.88333,-12
1.89167,-12
1.90000,-12
1.90833,-12
1.91667,-12
1.92500,-11
1.93333,-12
1.94167,-12
1.95000,-12
1.95833,-11
1.96667,-11
1.97500,-11
1.98333,-10
1.99167,-10
2.00000,-11
2.00833,-11
2.01667,-11
2.02500,-11
2.03333,-11
2.04167,-11
2.05000,-11
2.05833,-12
2.06667,-12
2.07500,-11
2.08333,-11
2.09167,-12
2.10000,-12
2.10833,-12
2.11667,-12
2.12500,-12
2.13333,-12
2.14167,-12
2.15000,-11
2.15833,-11
2.16667,-11
2.17500,-11
2.18333,-11
2.19167,-12
2.20000,-12
2.20833,-12
2.21667,-12
2.22500,-12
2.23333,-11
2.24167,-11
2.25000,-11
2.25833,-11
2.26667,-12
2.27500,-12
2.28333,-12
2.29167,-13
2.30000,-13
2.30833,-13
2.31667,-12
2.32500,-12
2.33333,-12
2.34167,-12
2.35000,-13
2.35833,-13
2.36667,-13
2.37500,-14
2.38333,-14
2.39167,-14
2.40000,-14
2.40833,-14
2.41667,-14
2.42500,-14
2.43333,-14
2.44167,-14
2.45000,-14
2.45833,-14
2.46667,-14
2.47500,-14
2.48333,-14
2.49167,-14
2.50000,-15
2.50833,-15
2.51667,-15
2.52500,-15
2.53333,-15
2.54167,-15
2.55000,-15
2.55833,-15
2.56667,-16
2.57500,-16
2.58333,-16
2.59167,-17
2.60000,-17
2.60833,-17
2.61667,-17
2.62500,-17
2.63333,-17
2.64167,-17
2.65000,-17
2.65833,-17
2.66667,-18
2.67500,-18
2.68333,-17
2.69167,-17
2.70000,-17
2.70833,-18
2.71667,-18
2.72500,-18
2.73333,-19
2.74167,-19
2.75000,-19
2.75833,-19
2.76667,-19
2.77500,-19
2.78333,-19
2.79167,-19
2.80000,-19
2.80833,-19
2.81667,-19
2.82500,-19
2.83333,-19
2.84167,-20
2.85000,-20
2.85833,-20
2.86667,-19
2.87500,-19
2.88333,-20
2.89167,-20
2.90000,-20
2.90833,-21
2.91667,-21
2.92500,-21
2.93333,-21
2.94167,-21
2.95000,-21
2.95833,-21
2.96667,-21
2.97500,-21
2.98333,-21
2.99167,-20
3.00000,-20
3.00833,-20
3.01667,-20
3.02500,-21
3.03333,-21
3.04167,-21
3.05000,-22
3.05833,-22
3.06667,-22
3.07500,-22
3.08333,-22
3.09167,-21
3.10000,-21
3.10833,-21
3.11667,-21
3.12500,-21
3.13333,-21
3.14167,-21
3.15000,-21
3.15833,-21
3.16667,-21
3.17500,-21
3.18333,-21
3.19167,-21
3.20000,-21
3.20833,-21
3.21667,-21
3.22500,-21
3.23333,-21
3.24167,-21
3.25000,-21
3.25833,-21
3.26667,-21
3.27500,-21
3.28333,-21
3.29167,-21
3.30000,-21
3.30833,-21
3.31667,-21
3.32500,-21
3.33333,-21
3.34167,-22
3.35000,-21
3.35833,-21
3.36667,-21
3.37500,-20
3.38333,-20
3.39167,-20
3.40000,-19
3.40833,-19
3.41667,-18
3.42500,-18
3.43333,-19
3.44167,-19
3.45000,-19
3.45833,-19
3.46667,-19
3.47500,-18
3.48333,-18
3.49167,-18
3.50000,-18
3.50833,-18
3.51667,-18
3.52500,-18
3.53333,-17
3.54167,-17
3.55000,-17
3.55833,-17
3.56667,-17
3.57500,-17
3.58333,-16
3.59167,-16
3.60000,-16
3.60833,-16
3.61667,-17
3.62500,-17
3.63333,-17
3.64167,-17
3.65000,-16
3.65833,-16
3.66667,-16
3.67500,-15
3.68333,-15
3.69167,-15
3.70000,-15
3.70833,-15
3.71667,-15
3.72500,-14
3.73333,-14
3.74167,-13
3.75000,-13
3.75833,-13
3.76667,-13
3.77500,-12
3.78333,-12
3.79167,-12
3.80000,-12
3.80833,-12
3.81667,-12
3.82500,-11
3.83333,-11
3.84167,-11
3.85000,-11
3.85833,-11
3.86667,-11
3.87500,-11
3.88333,-10
3.89167,-10
3.90000,-10
3.90833,-9
3.91667,-9
3.92500,-8
3.93333,-8
3.94167,-8
3.95000,-8
3.95833,-7
3.96667,-7
3.97500,-6
3.98333,-5
3.99167,-5
4.00000,-4
4.00833,-4
4.01667,-4
4.02500,-4
4.03333,-4
4.04167,-3
4.05000,-3
4.05833,-3
4.06667,-2
4.07500,-2
4.08333,-2
4.09167,-1
4.10000,-1
4.10833,-1
4.11667,-1
4.12500,-0
4.13333,0
4.14167,1
4.15000,2
4.15833,3
4.16667,4
4.17500,4
4.18333,5
4.19167,5
4.20000,6
4.20833,6
4.21667,7
4.22500,7
4.23333,7
4.24167,8
4.25000,8
4.25833,9
4.26667,9
4.27500,10
4.28333,11
4.29167,12
4.30000,13
4.30833,13
4.31667,13
4.32500,13
4.33333,14
4.34167,14
4.35000,15
4.35833,16
4.36667,17
4.37500,17
4.38333,19
4.39167,20
4.40000,20
4.40833,21
4.41667,22
4.42500,22
4.43333,22
4.44167,23
4.45000,23
4.45833,23
4.46667,24
4.47500,25
4.48333,26
4.49167,26
4.50000,27
4.50833,27
4.51667,28
4.52500,29
4.53333,30
4.54167,31
4.55000,31
4.55833,32
4.56667,32
4.57500,33
4.58333,33
4.59167,33
4.60000,34
4.60833,34
4.61667,35
4.62500,35
4.63333,36
4.64167,37
4.65000,37
4.65833,38
4.66667,39
4.67500,39
4.68333,40
4.69167,41
4.70000,41
4.70833,42
4.71667,42
4.72500,43
4.73333,43
4.74167,43
4.75000,43
4.75833,44
4.76667,44
4.77500,44
4.78333,45
4.79167,45
4.80000,45
4.80833,45
4.81667,46
4.82500,46
4.83333,47
4.84167,47
4.85000,47
4.85833,47
4.86667,48
4.87500,48
4.88333,49
4.89167,49
4.90000,49
4.90833,49
4.91667,49
4.92500,50
4.93333,50
4.94167,50
4.95000,50
4.95833,50
4.96667,50
4.97500,50
4.98333,50
4.99167,50
5.00000,50
5.00833,50
5.01667,50
5.02500,50
5.03333,50
5.04167,50
5.05000,50
5.05833,50
5.06667,50
5.07500,50
5.08333,50
5.09167,49
5.10000,49
5.10833,49
5.11667,49
5.12500,49
5.13333,50
5.14167,50
5.15000,49
5.15833,49
5.16667,49
5.17500,48
5.18333,48
5.19167,48
5.20000,48
5.20833,47
5.21667,47
5.22500,47
5.23333,46
5.24167,46
5.25000,46
5.25833,46
5.26667,45
5.27500,45
5.28333,44
5.29167,44
5.30000,44
5.30833,43
5.31667,43
5.32500,43
5.33333,42
5.34167,42
5.35000,42
5.35833,42
5.36667,41
5.37500,41
5.38333,41
5.39167,40
5.40000,40
5.40833,40
5.41667,39
5.42500,39
5.43333,38
5.44167,38
5.45000,38
5.45833,37
5.46667,37
5.47500,36
5.48333,36
5.49167,35
5.50000,34
5.50833,33
5.51667,33
5.52500,33
5.53333,32
5.54167,32
5.55000,31
5.55833,31
5.56667,30
5.57500,29
5.58333,29
5.59167,28
5.60000,27
5.60833,27
5.61667,26
5.62500,25
5.63333,24
5.64167,23
5.65000,22
5.65833,22
5.66667,21
5.67500,20
5.68333,20
5.69167,19
5.70000,18
5.70833,17
5.71667,17
5.72500,16
5.73333,15
5.74167,14
5.75000,13
5.75833,12
5.76667,11
5.77500,10
5.78333,10
5.79167,9
5.80000,8
5.80833,7
5.81667,7
5.82500,6
5.83333,5
5.84167,4
5.85000,4
5.85833,3
5.86667,2
5.87500,2
5.88333,1
5.89167,0
5.90000,-1
5.90833,-1
5.91667,-2
5.92500,-3
5.93333,-4
5.94167,-5
5.95000,-6
5.95833,-6
5.96667,-7
5.97500,-8
5.98333,-9
5.99167,-10
6.00000,-11
6.00833,-11
6.01667,-12
6.02500,-13
6.03333,-14
6.04167,-14
6.05000,-15
6.05833,-15
6.06667,-16
6.07500,-17
6.08333,-17
6.09167,-18
6.10000,-19
6.10833,-19
6.11667,-20
6.12500,-21
6.13333,-22
6.14167,-22
6.15000,-23
6.15833,-24
6.16667,-25
6.17500,-25
6.18333,-26
6.19167,-27
6.20000,-27
6.20833,-28
6.21667,-29
6.22500,-29
6.23333,-30
6.24167,-30
6.25000,-31
6.25833,-31
6.26667,-32
6.27500,-33
6.28333,-34
6.29167,-34
6.30000,-35
6.30833,-36
6.31667,-36
6.32500,-37
6.33333,-37
6.34167,-37
6.35000,-38
6.35833,-39
6.36667,-39
6.37500,-40
6.38333,-40
6.39167,-41
6.40000,-41
6.40833,-42
6.41667,-42
6.42500,-42
6.43333,-43
6.44167,-43
6.45000,-43
6.45833,-43
6.46667,-44
6.47500,-44
6.48333,-45
6.49167,-45
6.50000,-45
6.50833,-46
6.51667,-46
6.52500,-47
6.53333,-47
6.54167,-47
6.55000,-47
6.55833,-48
6.56667,-48
6.57500,-49
6.58333,-49
6.59167,-49
6.60000,-50
6.60833,-50
6.61667,-50
6.62500,-50
6.63333,-50
6.64167,-51
6.65000,-51
6.65833,-51
6.66667,-51
6.67500,-52
6.68333,-52
6.69167,-52
6.70000,-52
6.70833,-52
6.71667,-52
6.72500,-52
6.73333,-52
6.74167,-52
6.75000,-52
6.75833,-52
6.76667,-52
6.77500,-52
6.78333,-53
6.79167,-53
6.80000,-53
6.80833,-54
6.81667,-54
6.82500,-54
6.83333,-54
6.84167,-54
6.85000,-55
6.85833,-55
6.86667,-55
6.87500,-54
6.88333,-54
6.89167,-55
6.90000,-55
6.90833,-55
6.91667,-55
6.92500,-55
6.93333,-55
6.94167,-55
6.95000,-55
6.95833,-55
6.96667,-55
6.97500,-54
6.98333,-54
6.99167,-54
7.00000,-55
7.00833,-55
7.01667,-55
7.02500,-55
7.03333,-55
7.04167,-55
7.05000,-56
7.05833,-56
7.06667,-56
7.07500,-56
7.08333,-56
7.09167,-56
7.10000,-56
7.10833,-56
7.11667,-57
7.12500,-57
7.13333,-57
7.14167,-57
7.15000,-56
7.15833,-56
7.16667,-56
7.17500,-56
7.18333,-56
7.19167,-56
7.20000,-56
7.20833,-56
7.21667,-56
7.22500,-57
7.23333,-57
7.24167,-57
7.25000,-57
7.25833,-57
7.26667,-57
7.27500,-57
7.28333,-57
7.29167,-57
7.30000,-57
7.30833,-57
7.31667,-57
7.32500,-57
7.33333,-57
7.34167,-58
7.35000,-58
7.35833,-58
7.36667,-58
7.37500,-58
7.38333,-58
7.39167,-58
7.40000,-58
7.40833,-58
7.41667,-57
7.42500,-57
7.43333,-57
7.44167,-57
7.45000,-57
7.45833,-57
7.46667,-57
7.47500,-57
7.48333,-57
7.49167,-57
7.50000,-57
7.50833,-57
7.51667,-57
7.52500,-57
7.53333,-57
7.54167,-56
7.55000,-57
7.55833,-57
7.56667,-57
7.57500,-57
7.58333,-57
7.59167,-57
7.60000,-57
7.60833,-57
7.61667,-57
7.62500,-57
7.63333,-57
7.64167,-58
7.65000,-58
7.65833,-58
7.66667,-57
7.67500,-57
7.68333,-57
7.69167,-57
7.70000,-57
7.70833,-58
7.71667,-58
7.72500,-57
7.73333,-58
7.74167,-57
7.75000,-57
7.75833,-58
7.76667,-58
7.77500,-58
7.78333,-58
7.79167,-58
7.80000,-58
7.80833,-58
7.81667,-58
7.82500,-58
7.83333,-58
7.84167,-58
7.85000,-58
7.85833,-58
7.86667,-58
7.87500,-59
7.88333,-59
7.89167,-59
7.90000,-59
7.90833,-59
7.91667,-59
7.92500,-59
7.93333,-59
7.94167,-60
7.95000,-60
7.95833,-60
7.96667,-59
7.97500,-59
7.98333,-59
7.99167,-59
8.00000,-58
8.00833,-58
8.01667,-58
8.02500,-58
8.03333,-58
8.04167,-58
8.05000,-58
8.05833,-58
8.06667,-58
8.07500,-59
8.08333,-59
8.09167,-59
8.10000,-59
8.10833,-59
8.11667,-59
8.12500,-59
8.13333,-59
8.14167,-59
8.15000,-59
8.15833,-59
8.16667,-59
8.17500,-59
8.18333,-59
8.19167,-58
8.20000,-58
8.20833,-58
8.21667,-58
8.22500,-58
8.23333,-58
8.24167,-58
8.25000,-58
8.25833,-58
8.26667,-58
8.27500,-59
8.28333,-59
8.29167,-59
8.30000,-59
8.30833,-59
8.31667,-59
8.32500,-59
8.33333,-59
8.34167,-59
8.35000,-59
8.35833,-59
8.36667,-60
8.37500,-60
8.38333,-60
8.39167,-60
8.40000,-59
8.40833,-59
8.41667,-59
8.42500,-59
8.43333,-60
8.44167,-60
8.45000,-61
8.45833,-61
8.46667,-60
8.47500,-60
8.48333,-60
8.49167,-60
8.50000,-61
8.50833,-61
8.51667,-61
8.52500,-60
8.53333,-60
8.54167,-60
8.55000,-60
8.55833,-60
8.56667,-60
8.57500,-60
8.58333,-60
8.59167,-60
8.60000,-60
8.60833,-60
8.61667,-61
8.62500,-61
8.63333,-61
8.64167,-60
8.65000,-60
8.65833,-60
8.66667,-61
8.67500,-60
8.68333,-60
8.69167,-60
8.70000,-60
8.70833,-60
8.71667,-60
8.72500,-60
8.73333,-59
8.74167,-60
8.75000,-60
8.75833,-60
8.76667,-60
8.77500,-60
8.78333,-60
8.79167,-60
8.80000,-60
8.80833,-60
8.81667,-60
8.82500,-61
8.83333,-60
8.84167,-60
8.85000,-59
8.85833,-59
8.86667,-59
8.87500,-60
8.88333,-60
8.89167,-60
8.90000,-60
8.90833,-60
8.91667,-60
8.92500,-60
8.93333,-60
8.94167,-59
8.95000,-60
8.95833,-60
8.96667,-60
8.97500,-60
8.98333,-60
8.99167,-60
9.00000,-60
9.00833,-60
9.01667,-61
9.02500,-61
9.03333,-61
9.04167,-61
9.05000,-60
9.05833,-60
9.06667,-60
9.07500,-61
9.08333,-61
9.09167,-61
9.10000,-61
9.10833,-60
9.11667,-60
9.12500,-60
9.13333,-60
9.14167,-60
9.15000,-60
9.15833,-60
9.16667,-60
9.17500,-60
9.18333,-60
9.19167,-59
9.20000,-59
9.20833,-59
9.21667,-59
9.22500,-59
9.23333,-59
9.24167,-60
9.25000,-60
9.25833,-60
9.26667,-60
9.27500,-60
9.28333,-59
9.29167,-59
9.30000,-59
9.30833,-59
9.31667,-60
9.32500,-60
9.33333,-60
9.34167,-60
9.35000,-60
9.35833,-60
9.36667,-59
9.37500,-59
9.38333,-59
9.39167,-59
9.40000,-59
9.40833,-59
9.41667,-59
9.42500,-59
9.43333,-59
9.44167,-59
9.45000,-59
9.45833,-60
9.46667,-60
9.47500,-60
9.48333,-59
9.49167,-59
9.50000,-59
9.50833,-59
9.51667,-58
9.52500,-58
9.53333,-58
9.54167,-58
9.55000,-58
9.55833,-58
9.56667,-58
9.57500,-58
9.58333,-58
9.59167,-58
9.60000,-58
9.60833,-58
9.61667,-58
9.62500,-58
9.63333,-58
9.64167,-58
9.65000,-58
9.65833,-58
9.66667,-58
9.67500,-58
9.68333,-58
9.69167,-57
9.70000,-57
9.70833,-57
9.71667,-57
9.72500,-58
9.73333,-58
9.74167,-58
9.75000,-58
9.75833,-58
9.76667,-58
9.77500,-58
9.78333,-58
9.79167,-57
9.80000,-57
9.80833,-57
9.81667,-56
9.82500,-56
9.83333,-56
9.84167,-56
9.85000,-57
9.85833,-57
9.86667,-57
9.87500,-57
9.88333,-57
9.89167,-57
9.90000,-57
9.90833,-56
9.91667,-56
9.92500,-56
9.93333,-56
9.94167,-56
9.95000,-56
9.95833,-56
9.96667,-56
9.97500,-56
9.98333,-56
9.99167,-56
10.00000,-56
10.00833,-56
10.01667,-56
10.02500,-56
10.03333,-56
10.04167,-55
10.05000,-54
10.05833,-54
10.06667,-53
10.07500,-53
10.08333,-52
10.09167,-52
10.10000,-52
10.10833,-52
10.11667,-51
10.12500,-50
10.13333,-50
10.14167,-49
10.15000,-49
10.15833,-48
10.16667,-48
10.17500,-47
10.18333,-46
10.19167,-45
10.20000,-44
10.20833,-43
10.21667,-41
10.22500,-39
10.23333,-37
10.24167,-36
10.25000,-34
10.25833,-32
10.26667,-30
10.27500,-28
10.28333,-25
10.29167,-22
10.30000,-18
10.30833,-14
10.31667,-8
10.32500,-2
10.33333,6
10.34167,15
10.35000,25
10.35833,36
10.36667,49
10.37500,63
10.38333,78
10.39167,95
10.40000,112
10.40833,130
10.41667,149
10.42500,166
10.43333,183
10.44167,197
10.45000,209
10.45833,218
10.46667,224
10.47500,227
10.48333,227
10.49167,224
10.50000,221
10.50833,219
10.51667,219
10.52500,226
10.53333,242
10.54167,270
10.55000,317
10.55833,385
10.56667,480
10.57500,608
10.58333,776
10.59167,988
10.60000,1251
10.60833,1570
10.61667,1953
10.62500,2405
10.63333,2932
10.64167,3540
10.65000,4234
10.65833,5018
10.66667,5898
10.67500,6879
10.68333,7963
10.69167,9156
10.70000,10460
10.70833,11878
10.71667,13413
10.72500,15067
10.73333,16841
10.74167,18736
10.75000,20754
10.75833,22894
10.76667,25157
10.77500,27543
10.78333,30050
10.79167,32678
10.80000,35423
10.80833,38285
10.81667,41260
10.82500,44345
10.83333,47534
10.84167,50824
10.85000,54210
10.85833,57685
10.86667,61239
10.87500,64865
10.88333,68552
10.89167,72286
10.90000,76053
10.90833,79836
10.91667,83614
10.92500,87362
10.93333,91052
10.94167,94652
10.95000,98125
10.95833,101430
10.96667,104520
10.97500,107347
10.98333,109856
10.99167,111992
11.00000,113699
11.00833,114923
11.01667,115612
11.02500,115721
11.03333,115214
11.04167,114066
11.05000,112268
11.05833,109826
11.06667,106766
11.07500,103130
11.08333,98975
11.09167,94376
11.10000,89416
11.10833,84186
11.11667,78783
11.12500,73300
11.13333,67825
11.14167,62439
11.15000,57212
11.15833,52203
11.16667,47456
11.17500,43006
11.18333,38872
11.19167,35066
11.20000,31589
11.20833,28434
11.21667,25589
11.22500,23038
11.23333,20761
11.24167,18738
11.25000,16945
11.25833,15360
11.26667,13963
11.27500,12733
11.28333,11650
11.29167,10697
11.30000,9858
11.30833,9119
11.31667,8467
11.32500,7889
11.33333,7378
11.34167,6922
11.35000,6516
11.35833,6151
11.36667,5824
11.37500,5527
11.38333,5258
11.39167,5013
11.40000,4788
11.40833,4581
11.41667,4389
11.42500,4211
11.43333,4045
11.44167,3889
11.45000,3743
11.45833,3605
11.46667,3475
11.47500,3352
11.48333,3234
11.49167,3122
11.50000,3014
11.50833,2912
11.51667,2813
11.52500,2719
11.53333,2629
11.54167,2543
11.55000,2460
11.55833,2381
11.56667,2304
11.57500,2231
11.58333,2160
11.59167,2093
11.60000,2028
11.60833,1965
11.61667,1905
11.62500,1847
11.63333,1792
11.64167,1738
11.65000,1687
11.65833,1639
11.66667,1592
11.67500,1547
11.68333,1503
11.69167,1462
11.70000,1422
11.70833,1384
11.71667,1347
11.72500,1312
11.73333,1279
11.74167,1246
11.75000,1216
11.75833,1186
11.76667,1158
11.77500,1131
11.78333,1105
11.79167,1080
11.80000,1056
11.80833,1034
11.81667,1012
11.82500,991
11.83333,971
11.84167,952
11.85000,934
11.85833,917
11.86667,900
11.87500,883
11.88333,868
11.89167,854
11.90000,840
11.90833,827
11.91667,814
11.92500,802
11.93333,790
11.94167,779
11.95000,768
11.95833,758
11.96667,748
11.97500,738
11.98333,730
11.99167,721
12.00000,713
12.00833,706
12.01667,698
12.02500,690
12.03333,683
12.04167,676
12.05000,670
12.05833,664
12.06667,659
12.07500,653
12.08333,648
12.09167,643
12.10000,638
12.10833,634
12.11667,629
12.12500,625
12.13333,621
12.14167,618
12.15000,614
12.15833,611
12.16667,608
12.17500,605
12.18333,602
12.19167,600
12.20000,598
12.20833,596
12.21667,594
12.22500,593
12.23333,591
12.24167,589
12.25000,588
12.25833,587
12.26667,586
12.27500,585
12.28333,585
12.29167,585
12.30000,584
12.30833,584
12.31667,584
12.32500,584
12.33333,584
12.34167,584
12.35000,584
12.35833,584
12.36667,584
12.37500,584
12.38333,584
12.39167,583
12.40000,583
12.40833,583
12.41667,583
12.42500,582
12.43333,582
12.44167,581
12.45000,581
12.45833,580
12.46667,580
12.47500,579
12.48333,578
12.49167,577
12.50000,576
12.50833,575
12.51667,574
12.52500,573
12.53333,572
12.54167,570
12.55000,568
12.55833,567
12.56667,565
12.57500,564
12.58333,562
12.59167,561
12.60000,560
12.60833,559
12.61667,558
12.62500,557
12.63333,557
12.64167,556
12.65000,556
12.65833,556
12.66667,557
12.67500,558
12.68333,561
12.69167,564
12.70000,569
12.70833,576
12.71667,584
12.72500,593
12.73333,604
12.74167,618
12.75000,634
12.75833,653
12.76667,674
12.77500,699
12.78333,727
12.79167,758
12.80000,793
12.80833,833
12.81667,876
12.82500,924
12.83333,976
12.84167,1033
12.85000,1095
12.85833,1162
12.86667,1234
12.87500,1312
12.88333,1395
12.89167,1483
12.90000,1577
12.90833,1676
12.91667,1781
12.92500,1892
12.93333,2008
12.94167,2130
12.95000,2257
12.95833,2391
12.96667,2530
12.97500,2675
12.98333,2825
12.99167,2981
13.00000,3143
13.00833,3310
13.01667,3483
13.02500,3662
13.03333,3846
13.04167,4035
13.05000,4230
13.05833,4430
13.06667,4636
13.07500,4846
13.08333,5062
13.09167,5282
13.10000,5508
13.10833,5737
13.11667,5972
13.12500,6211
13.13333,6455
13.14167,6703
13.15000,6956
13.15833,7212
13.16667,7474
13.17500,7739
13.18333,8008
13.19167,8281
13.20000,8558
13.20833,8838
13.21667,9122
13.22500,9410
13.23333,9701
13.24167,9996
13.25000,10294
13.25833,10597
13.26667,10902
13.27500,11210
13.28333,11521
13.29167,11835
13.30000,12152
13.30833,12473
13.31667,12796
13.32500,13122
13.33333,13452
13.34167,13784
13.35000,14119
13.35833,14457
13.36667,14798
13.37500,15142
13.38333,15489
13.39167,15838
13.40000,16191
13.40833,16546
13.41667,16904
13.42500,17265
13.43333,17629
13.44167,17995
13.45000,18365
13.45833,18737
13.46667,19112
13.47500,19490
13.48333,19872
13.49167,20256
13.50000,20644
13.50833,21034
13.51667,21428
13.52500,21824
13.53333,22223
13.54167,22625
13.55000,23031
13.55833,23441
13.56667,23853
13.57500,24269
13.58333,24688
13.59167,25110
13.60000,25536
13.60833,25965
13.61667,26398
13.62500,26834
13.63333,27273
13.64167,27717
13.65000,28163
13.65833,28613
13.66667,29066
13.67500,29523
13.68333,29984
13.69167,30449
13.70000,30918
13.70833,31390
13.71667,31867
13.72500,32348
13.73333,32832
13.74167,33320
13.75000,33812
13.75833,34308
13.76667,34808
13.77500,35312
13.78333,35820
13.79167,36333
13.80000,36850
13.80833,37371
13.81667,37896
13.82500,38426
13.83333,38961
13.84167,39500
13.85000,40043
13.85833,40591
13.86667,41144
13.87500,41701
13.88333,42263
13.89167,42830
13.90000,43401
13.90833,43978
13.91667,44558
13.92500,45145
13.93333,45736
13.94167,46332
13.95000,46934
13.95833,47540
13.96667,48153
13.97500,48770
13.98333,49393
13.99167,50021
14.00000,50655
14.00833,51294
14.01667,51939
14.02500,52590
14.03333,53247
14.04167,53909
14.05000,54577
14.05833,55251
14.06667,55931
14.07500,56617
14.08333,57309
14.09167,58007
14.10000,58712
14.10833,59424
14.11667,60141
14.12500,60865
14.13333,61596
14.14167,62333
14.15000,63078
14.15833,63830
14.16667,64589
14.17500,65355
14.18333,66128
14.19167,66907
14.20000,67693
14.20833,68484
14.21667,69279
14.22500,70075
14.23333,70870
14.24167,71657
14.25000,72430
14.25833,73182
14.26667,73902
14.27500,74581
14.28333,75206
14.29167,75765
14.30000,76246
14.30833,76635
14.31667,76923
14.32500,77097
14.33333,77150
14.34167,77073
14.35000,76862
14.35833,76510
14.36667,76016
14.37500,75376
14.38333,74588
14.39167,73650
14.40000,72560
14.40833,71316
14.41667,69918
14.42500,68361
14.43333,66646
14.44167,64773
14.45000,62743
14.45833,60563
14.46667,58239
14.47500,55783
14.48333,53211
14.49167,50540
14.50000,47793
14.50833,44995
14.51667,42172
14.52500,39352
14.53333,36560
14.54167,33825
14.55000,31168
14.55833,28613
14.56667,26176
14.57500,23872
14.58333,21711
14.59167,19699
14.60000,17841
14.60833,16135
14.61667,14580
14.62500,13169
14.63333,11897
14.64167,10753
14.65000,9730
14.65833,8817
14.66667,8006
14.67500,7286
14.68333,6649
14.69167,6086
14.70000,5588
14.70833,5148
14.71667,4760
14.72500,4417
14.73333,4114
14.74167,3845
14.75000,3606
14.75833,3394
14.76667,3205
14.77500,3035
14.78333,2883
14.79167,2746
14.80000,2623
14.80833,2512
14.81667,2410
14.82500,2318
14.83333,2233
14.84167,2155
14.85000,2083
14.85833,2016
14.86667,1954
14.87500,1897
14.88333,1844
14.89167,1794
14.90000,1747
14.90833,1702
14.91667,1661
14.92500,1621
14.93333,1584
14.94167,1549
14.95000,1515
14.95833,1484
14.96667,1454
14.97500,1425
14.98333,1398
14.99167,1373
15.00000,1349
15.00833,1326
15.01667,1304
15.02500,1284
15.03333,1265
15.04167,1246
15.05000,1229
15.05833,1212
15.06667,1197
15.07500,1182
15.08333,1169
15.09167,1156
15.10000,1144
15.10833,1132
15.11667,1122
15.12500,1112
15.13333,1103
15.14167,1096
15.15000,1089
15.15833,1083
15.16667,1079
15.17500,1076
15.18333,1075
15.19167,1075
15.20000,1079
15.20833,1085
15.21667,1095
15.22500,1109
15.23333,1128
15.24167,1153
15.25000,1185
15.25833,1226
15.26667,1276
15.27500,1338
15.28333,1413
15.29167,1503
15.30000,1610
15.30833,1737
15.31667,1887
15.32500,2061
15.33333,2263
15.34167,2496
15.35000,2762
15.35833,3065
15.36667,3408
15.37500,3794
15.38333,4225
15.39167,4705
15.40000,5236
15.40833,5820
15.41667,6459
15.42500,7155
15.43333,7909
15.44167,8722
15.45000,9593
15.45833,10524
15.46667,11511
15.47500,12553
15.48333,13649
15.49167,14795
15.50000,15987
15.50833,17221
15.51667,18493
15.52500,19797
15.53333,21128
15.54167,22479
15.55000,23845
15.55833,25218
15.56667,26593
15.57500,27960
15.58333,29316
15.59167,30652
15.60000,31962
15.60833,33241
15.61667,34482
15.62500,35679
15.63333,36828
15.64167,37924
15.65000,38963
15.65833,39940
15.66667,40852
15.67500,41695
15.68333,42469
15.69167,43170
15.70000,43797
15.70833,44349
15.71667,44824
15.72500,45221
15.73333,45539
15.74167,45779
15.75000,45940
15.75833,46023
15.76667,46028
15.77500,45956
15.78333,45806
15.79167,45581
15.80000,45282
15.80833,44910
15.81667,44467
15.82500,43955
15.83333,43375
15.84167,42732
15.85000,42027
15.85833,41264
15.86667,40446
15.87500,39577
15.88333,38659
15.89167,37698
15.90000,36698
15.90833,35662
15.91667,34596
15.92500,33503
15.93333,32389
15.94167,31258
15.95000,30115
15.95833,28964
15.96667,27811
15.97500,26658
15.98333,25512
15.99167,24375
16.00000,23253
16.00833,22147
16.01667,21062
16.02500,20000
16.03333,18965
16.04167,17958
16.05000,16981
16.05833,16037
16.06667,15128
16.07500,14253
16.08333,13414
16.09167,12612
16.10000,11847
16.10833,11119
16.11667,10429
16.12500,9775
16.13333,9157
16.14167,8575
16.15000,8028
16.15833,7514
16.16667,7033
16.17500,6582
16.18333,6163
16.19167,5772
16.20000,5409
16.20833,5072
16.21667,4759
16.22500,4470
16.23333,4203
16.24167,3956
16.25000,3728
16.25833,3519
16.26667,3326
16.27500,3149
16.28333,2986
16.29167,2837
16.30000,2700
16.30833,2574
16.31667,2459
16.32500,2354
16.33333,2257
16.34167,2168
16.35000,2086
16.35833,2011
16.36667,1942
16.37500,1879
16.38333,1820
16.39167,1767
16.40000,1717
16.40833,1672
16.41667,1629
16.42500,1589
16.43333,1552
16.44167,1518
16.45000,1486
16.45833,1456
16.46667,1427
16.47500,1401
16.48333,1375
16.49167,1352
16.50000,1329
16.50833,1307
16.51667,1286
16.52500,1265
16.53333,1245
16.54167,1226
16.55000,1207
16.55833,1189
16.56667,1171
16.57500,1154
16.58333,1137
16.59167,1120
16.60000,1103
16.60833,1087
16.61667,1072
16.62500,1056
16.63333,1041
16.64167,1026
16.65000,1011
16.65833,997
16.66667,983
16.67500,970
16.68333,956
16.69167,944
16.70000,931
16.70833,919
16.71667,908
16.72500,897
16.73333,886
16.74167,875
16.75000,866
16.75833,857
16.76667,848
16.77500,840
16.78333,832
16.79167,825
16.80000,818
16.80833,811
16.81667,805
16.82500,800
16.83333,795
16.84167,791
16.85000,786
16.85833,783
16.86667,779
16.87500,776
16.88333,774
16.89167,771
16.90000,769
16.90833,768
16.91667,766
16.92500,764
16.93333,762
16.94167,761
16.95000,760
16.95833,759
16.96667,758
16.97500,757
16.98333,756
16.99167,755
17.00000,754
17.00833,753
17.01667,752
17.02500,750
17.03333,749
17.04167,748
17.05000,747
17.05833,745
17.06667,744
17.07500,742
17.08333,740
17.09167,739
17.10000,737
17.10833,736
17.11667,733
17.12500,732
17.13333,730
17.14167,728
17.15000,726
17.15833,724
17.16667,721
17.17500,719
17.18333,716
17.19167,714
17.20000,711
17.20833,709
17.21667,706
17.22500,703
17.23333,700
17.24167,697
17.25000,693
17.25833,690
17.26667,687
17.27500,684
17.28333,680
17.29167,676
17.30000,673
17.30833,669
17.31667,665
17.32500,661
17.33333,658
17.34167,655
17.35000,652
17.35833,649
17.36667,646
17.37500,643
17.38333,641
17.39167,639
17.40000,637
17.40833,635
17.41667,634
17.42500,633
17.43333,632
17.44167,632
17.45000,632
17.45833,633
17.46667,634
17.47500,636
17.48333,637
17.49167,640
17.50000,642
17.50833,645
17.51667,649
17.52500,652
17.53333,656
17.54167,660
17.55000,664
17.55833,669
17.56667,674
17.57500,679
17.58333,684
17.59167,689
17.60000,694
17.60833,700
17.61667,706
17.62500,712
17.63333,718
17.64167,723
17.65000,729
17.65833,734
17.66667,739
17.67500,745
17.68333,750
17.69167,756
17.70000,761
17.70833,767
17.71667,771
17.72500,776
17.73333,780
17.74167,785
17.75000,789
17.75833,793
17.76667,797
17.77500,800
17.78333,803
17.79167,806
17.80000,809
17.80833,811
17.81667,813
17.82500,815
17.83333,816
17.84167,817
17.85000,817
17.85833,817
17.86667,817
17.87500,817
17.88333,816
17.89167,814
17.90000,813
17.90833,810
17.91667,808
17.92500,804
17.93333,801
17.94167,797
17.95000,794
17.95833,789
17.96667,785
17.97500,780
17.98333,775
17.99167,770
18.00000,764
18.00833,758
18.01667,752
18.02500,746
18.03333,739
18.04167,732
18.05000,725
18.05833,718
18.06667,711
18.07500,703
18.08333,696
18.09167,688
18.10000,680
18.10833,673
18.11667,665
18.12500,658
18.13333,650
18.14167,643
18.15000,635
18.15833,628
18.16667,621
18.17500,614
18.18333,607
18.19167,600
18.20000,594
18.20833,587
18.21667,581
18.22500,575
18.23333,569
18.24167,564
18.25000,558
18.25833,553
18.26667,548
18.27500,544
18.28333,540
18.29167,536
18.30000,532
18.30833,529
18.31667,526
18.32500,523
18.33333,520
18.34167,518
18.35000,516
18.35833,514
18.36667,513
18.37500,512
18.38333,511
18.39167,511
18.40000,511
18.40833,512
18.41667,513
18.42500,514
18.43333,515
18.44167,516
18.45000,518
18.45833,520
18.46667,523
18.47500,525
18.48333,528
18.49167,531
18.50000,535
18.50833,538
18.51667,542
18.52500,546
18.53333,550
18.54167,555
18.55000,559
18.55833,563
18.56667,568
18.57500,573
18.58333,577
18.59167,582
18.60000,587
18.60833,593
18.61667,598
18.62500,603
18.63333,608
18.64167,614
18.65000,619
18.65833,625
18.66667,630
18.67500,635
18.68333,640
18.69167,645
18.70000,650
18.70833,656
18.71667,661
18.72500,666
18.73333,671
18.74167,676
18.75000,681
18.75833,686
18.76667,691
18.77500,695
18.78333,700
18.79167,704
18.80000,709
18.80833,713
18.81667,717
18.82500,721
18.83333,725
18.84167,729
18.85000,733
18.85833,736
18.86667,740
18.87500,743
18.88333,747
18.89167,750
18.90000,753
18.90833,755
18.91667,758
18.92500,760
18.93333,763
18.94167,765
18.95000,768
18.95833,770
18.96667,772
18.97500,773
18.98333,774
18.99167,776
19.00000,777
19.00833,778
19.01667,779
19.02500,779
19.03333,779
19.04167,780
19.05000,780
19.05833,780
19.06667,780
19.07500,780
19.08333,779
19.09167,779
19.10000,778
19.10833,777
19.11667,775
19.12500,774
19.13333,773
19.14167,771
19.15000,768
19.15833,766
19.16667,763
19.17500,761
19.18333,758
19.19167,754
19.20000,751
19.20833,747
19.21667,744
19.22500,740
19.23333,736
19.24167,732
19.25000,728
19.25833,724
19.26667,720
19.27500,715
19.28333,710
19.29167,705
19.30000,700
19.30833,694
19.31667,689
19.32500,683
19.33333,677
19.34167,671
19.35000,665
19.35833,658
19.36667,652
19.37500,646
19.38333,640
19.39167,634
19.40000,628
19.40833,622
19.41667,615
19.42500,609
19.43333,603
19.44167,596
19.45000,590
19.45833,583
19.46667,577
19.47500,571
19.48333,564
19.49167,558
19.50000,551
19.50833,544
19.51667,538
19.52500,532
19.53333,525
19.54167,520
19.55000,514
19.55833,508
19.56667,502
19.57500,496
19.58333,490
19.59167,485
19.60000,480
19.60833,475
19.61667,470
19.62500,465
19.63333,460
19.64167,456
19.65000,452
19.65833,449
19.66667,445
19.67500,441
19.68333,438
19.69167,435
19.70000,433
19.70833,431
19.71667,429
19.72500,427
19.73333,426
19.74167,425
19.75000,425
19.75833,425
19.76667,426
19.77500,427
19.78333,429
19.79167,431
19.80000,434
19.80833,437
19.81667,441
19.82500,445
19.83333,450
19.84167,456
19.85000,463
19.85833,470
19.86667,478
19.87500,486
19.88333,495
19.89167,506
19.90000,516
19.90833,528
19.91667,540
19.92500,552
19.93333,565
19.94167,579
19.95000,593
19.95833,608
19.96667,623
19.97500,639
19.98333,655
19.99167,671
20.00000,688
20.00833,705
20.01667,722
20.02500,740
20.03333,758
20.04167,775
20.05000,793
20.05833,810
20.06667,827
20.07500,844
20.08333,861
20.09167,877
20.10000,893
20.10833,908
20.11667,924
20.12500,939
20.13333,953
20.14167,967
20.15000,981
20.15833,994
20.16667,1006
20.17500,1017
20.18333,1028
20.19167,1037
20.20000,1047
20.20833,1055
20.21667,1063
20.22500,1070
20.23333,1077
20.24167,1083
20.25000,1087
20.25833,1092
20.26667,1095
20.27500,1098
20.28333,1100
20.29167,1101
20.30000,1101
20.30833,1101
20.31667,1100
20.32500,1098
20.33333,1096
20.34167,1093
20.35000,1090
20.35833,1087
20.36667,1082
20.37500,1078
20.38333,1073
20.39167,1067
20.40000,1062
20.40833,1056
20.41667,1050
20.42500,1044
20.43333,1038
20.44167,1032
20.45000,1026
20.45833,1020
20.46667,1014
20.47500,1009
20.48333,1004
20.49167,999
20.50000,994
20.50833,991
20.51667,988
20.52500,985
20.53333,984
20.54167,983
20.55000,983
20.55833,983
20.56667,985
20.57500,987
20.58333,990
20.59167,994
20.60000,998
20.60833,1004
20.61667,1010
20.62500,1017
20.63333,1025
20.64167,1034
20.65000,1043
20.65833,1053
20.66667,1063
20.67500,1073
20.68333,1084
20.69167,1095
20.70000,1107
20.70833,1119
20.71667,1131
20.72500,1143
20.73333,1156
20.74167,1168
20.75000,1180
20.75833,1191
20.76667,1203
20.77500,1214
20.78333,1225
20.79167,1235
20.80000,1246
20.80833,1256
20.81667,1265
20.82500,1273
20.83333,1281
20.84167,1289
20.85000,1297
20.85833,1304
20.86667,1310
20.87500,1316
20.88333,1321
20.89167,1326
20.90000,1330
20.90833,1333
20.91667,1336
20.92500,1339
20.93333,1340
20.94167,1341
20.95000,1342
20.95833,1343
20.96667,1342
20.97500,1342
20.98333,1341
20.99167,1340
21.00000,1338
21.00833,1336
21.01667,1334
21.02500,1331
21.03333,1328
21.04167,1324
21.05000,1320
21.05833,1317
21.06667,1313
21.07500,1309
21.08333,1305
21.09167,1301
21.10000,1298
21.10833,1294
21.11667,1291
21.12500,1287
21.13333,1284
21.14167,1281
21.15000,1279
21.15833,1276
21.16667,1275
21.17500,1274
21.18333,1272
21.19167,1272
21.20000,1271
21.20833,1270
21.21667,1270
21.22500,1271
21.23333,1271
21.24167,1273
21.25000,1274
21.25833,1276
21.26667,1277
21.27500,1278
21.28333,1280
21.29167,1282
21.30000,1284
21.30833,1287
21.31667,1289
21.32500,1292
21.33333,1295
21.34167,1297
21.35000,1300
21.35833,1302
21.36667,1305
21.37500,1308
21.38333,1311
21.39167,1314
21.40000,1317
21.40833,1320
21.41667,1323
21.42500,1326
21.43333,1330
21.44167,1334
21.45000,1337
21.45833,1341
21.46667,1344
21.47500,1348
21.48333,1352
21.49167,1356
21.50000,1360
21.50833,1365
21.51667,1369
21.52500,1373
21.53333,1378
21.54167,1382
21.55000,1385
21.55833,1389
21.56667,1392
21.57500,1395
21.58333,1398
21.59167,1401
21.60000,1404
21.60833,1406
21.61667,1408
21.62500,1409
21.63333,1410
21.64167,1410
21.65000,1409
21.65833,1408
21.66667,1406
21.67500,1403
21.68333,1400
21.69167,1396
21.70000,1392
21.70833,1387
21.71667,1381
21.72500,1374
21.73333,1367
21.74167,1359
21.75000,1351
21.75833,1343
21.76667,1333
21.77500,1323
21.78333,1313
21.79167,1302
21.80000,1291
21.80833,1280
21.81667,1269
21.82500,1257
21.83333,1244
21.84167,1232
21.85000,1219
21.85833,1207
21.86667,1195
21.87500,1182
21.88333,1170
21.89167,1157
21.90000,1145
21.90833,1133
21.91667,1120
21.92500,1108
21.93333,1095
21.94167,1083
21.95000,1070
21.95833,1058
21.96667,1045
21.97500,1032
21.98333,1019
21.99167,1006
22.00000,993
22.00833,980
22.01667,967
22.02500,953
22.03333,940
22.04167,926
22.05000,913
22.05833,898
22.06667,884
22.07500,869
22.08333,854
22.09167,839
22.10000,824
22.10833,808
22.11667,793
22.12500,777
22.13333,761
22.14167,745
22.15000,729
22.15833,713
22.16667,697
22.17500,681
22.18333,665
22.19167,649
22.20000,634
22.20833,619
22.21667,603
22.22500,588
22.23333,573
22.24167,559
22.25000,545
22.25833,531
22.26667,518
22.27500,505
22.28333,492
22.29167,480
22.30000,469
22.30833,457
22.31667,447
22.32500,437
22.33333,426
22.34167,417
22.35000,408
22.35833,399
22.36667,391
22.37500,383
22.38333,375
22.39167,368
22.40000,362
22.40833,355
22.41667,349
22.42500,344
22.43333,338
22.44167,334
22.45000,330
22.45833,326
22.46667,323
22.47500,320
22.48333,317
22.49167,315
22.50000,312
22.50833,310
22.51667,308
22.52500,306
22.53333,305
22.54167,304
22.55000,303
22.55833,302
22.56667,302
22.57500,302
22.58333,302
22.59167,303
22.60000,304
22.60833,305
22.61667,306
22.62500,307
22.63333,309
22.64167,310
22.65000,312
22.65833,315
22.66667,317
22.67500,320
22.68333,324
22.69167,327
22.70000,330
22.70833,334
22.71667,338
22.72500,341
22.73333,346
22.74167,350
22.75000,354
22.75833,359
22.76667,363
22.77500,368
22.78333,373
22.79167,378
22.80000,384
22.80833,389
22.81667,394
22.82500,399
22.83333,404
22.84167,409
22.85000,415
22.85833,421
22.86667,426
22.87500,432
22.88333,438
22.89167,443
22.90000,448
22.90833,453
22.91667,458
22.92500,463
22.93333,468
22.94167,472
22.95000,477
22.95833,481
22.96667,485
22.97500,489
22.98333,493
22.99167,497
23.00000,500
23.00833,504
23.01667,508
23.02500,511
23.03333,514
23.04167,517
23.05000,520
23.05833,523
23.06667,526
23.07500,528
23.08333,530
23.09167,532
23.10000,534
23.10833,535
23.11667,536
23.12500,537
23.13333,538
23.14167,538
23.15000,538
23.15833,538
23.16667,538
23.17500,538
23.18333,538
23.19167,537
23.20000,536
23.20833,534
23.21667,533
23.22500,531
23.23333,529
23.24167,527
23.25000,525
23.25833,522
23.26667,519
23.27500,516
23.28333,513
23.29167,510
23.30000,507
23.30833,503
23.31667,499
23.32500,496
23.33333,492
23.34167,489
23.35000,485
23.35833,482
23.36667,478
23.37500,474
23.38333,470
23.39167,467
23.40000,463
23.40833,459
23.41667,456
23.42500,453
23.43333,450
23.44167,446
23.45000,443
23.45833,440
23.46667,437
23.47500,434
23.48333,432
23.49167,429
23.50000,427
23.50833,424
23.51667,422
23.52500,419
23.53333,417
23.54167,415
23.55000,413
23.55833,412
23.56667,410
23.57500,408
23.58333,407
23.59167,405
23.60000,404
23.60833,403
23.61667,402
23.62500,401
23.63333,400
23.64167,399
23.65000,397
23.65833,396
23.66667,396
23.67500,395
23.68333,394
23.69167,394
23.70000,393
23.70833,393
23.71667,392
23.72500,391
23.73333,391
23.74167,390
23.75000,390
23.75833,389
23.76667,389
23.77500,388
23.78333,388
23.79167,387
23.80000,387
23.80833,387
23.81667,386
23.82500,386
23.83333,385
23.84167,384
23.85000,383
23.85833,383
23.86667,382
23.87500,381
23.88333,381
23.89167,380
23.90000,379
23.90833,379
23.91667,378
23.92500,377
23.93333,376
23.94167,375
23.95000,375
23.95833,374
23.96667,374
23.97500,373
23.98333,373
23.99167,372
24.00000,372
24.00833,371
24.01667,370
24.02500,369
24.03333,368
24.04167,368
24.05000,367
24.05833,367
24.06667,366
24.07500,365
24.08333,365
24.09167,364
24.10000,363
24.10833,362
24.11667,362
24.12500,361
24.13333,360
24.14167,359
24.15000,359
24.15833,358
24.16667,358
24.17500,357
24.18333,357
24.19167,356
24.20000,356
24.20833,356
24.21667,356
24.22500,355
24.23333,355
24.24167,355
24.25000,354
24.25833,354
24.26667,354
24.27500,353
24.28333,353
24.29167,354
24.30000,354
24.30833,355
24.31667,356
24.32500,357
24.33333,358
24.34167,359
24.35000,361
24.35833,363
24.36667,366
24.37500,370
24.38333,373
24.39167,378
24.40000,383
24.40833,388
24.41667,395
24.42500,402
24.43333,410
24.44167,419
24.45000,429
24.45833,441
24.46667,454
24.47500,468
24.48333,484
24.49167,502
24.50000,521
24.50833,543
24.51667,566
24.52500,591
24.53333,618
24.54167,647
24.55000,678
24.55833,712
24.56667,748
24.57500,787
24.58333,827
24.59167,871
24.60000,917
24.60833,966
24.61667,1018
24.62500,1072
24.63333,1128
24.64167,1187
24.65000,1248
24.65833,1312
24.66667,1378
24.67500,1445
24.68333,1515
24.69167,1586
24.70000,1660
24.70833,1735
24.71667,1811
24.72500,1888
24.73333,1966
24.74167,2044
24.75000,2123
24.75833,2203
24.76667,2282
24.77500,2362
24.78333,2442
24.79167,2521
24.80000,2599
24.80833,2677
24.81667,2753
24.82500,2828
24.83333,2902
24.84167,2974
24.85000,3045
24.85833,3114
24.86667,3181
24.87500,3247
24.88333,3310
24.89167,3371
24.90000,3431
24.90833,3488
24.91667,3542
24.92500,3594
24.93333,3644
24.94167,3691
24.95000,3736
24.95833,3778
24.96667,3818
24.97500,3856
24.98333,3892
24.99167,3924
25.00000,3955
25.00833,3982
25.01667,4007
25.02500,4030
25.03333,4049
25.04167,4066
25.05000,4081
25.05833,4092
25.06667,4101
25.07500,4106
25.08333,4109
25.09167,4108
25.10000,4105
25.10833,4098
25.11667,4089
25.12500,4077
25.13333,4061
25.14167,4042
25.15000,4020
25.15833,3994
25.16667,3966
25.17500,3935
25.18333,3900
25.19167,3862
25.20000,3822
25.20833,3777
25.21667,3730
25.22500,3680
25.23333,3628
25.24167,3572
25.25000,3513
25.25833,3453
25.26667,3390
25.27500,3325
25.28333,3258
25.29167,3190
25.30000,3120
25.30833,3048
25.31667,2975
25.32500,2901
25.33333,2826
25.34167,2751
25.35000,2675
25.35833,2599
25.36667,2523
25.37500,2447
25.38333,2371
25.39167,2295
25.40000,2220
25.40833,2146
25.41667,2073
25.42500,2001
25.43333,1930
25.44167,1861
25.45000,1792
25.45833,1725
25.46667,1660
25.47500,1597
25.48333,1536
25.49167,1477
25.50000,1420
25.50833,1364
25.51667,1310
25.52500,1259
25.53333,1209
25.54167,1161
25.55000,1115
25.55833,1070
25.56667,1028
25.57500,988
25.58333,949
25.59167,913
25.60000,878
25.60833,845
25.61667,814
25.62500,784
25.63333,757
25.64167,730
25.65000,705
25.65833,682
25.66667,659
25.67500,638
25.68333,618
25.69167,599
25.70000,581
25.70833,564
25.71667,548
25.72500,533
25.73333,519
25.74167,506
25.75000,494
25.75833,483
25.76667,472
25.77500,462
25.78333,451
25.79167,442
25.80000,432
25.80833,423
25.81667,414
25.82500,406
25.83333,398
25.84167,391
25.85000,384
25.85833,377
25.86667,371
25.87500,365
25.88333,358
25.89167,352
25.90000,346
25.90833,340
25.91667,335
25.92500,330
25.93333,324
25.94167,319
25.95000,313
25.95833,308
25.96667,303
25.97500,298
25.98333,292
25.99167,287
26.00000,282
26.00833,277
26.01667,272
26.02500,268
26.03333,263
26.04167,258
26.05000,253
26.05833,248
26.06667,244
26.07500,239
26.08333,234
26.09167,230
26.10000,225
26.10833,221
26.11667,217
26.12500,213
26.13333,209
26.14167,206
26.15000,202
26.15833,198
26.16667,195
26.17500,192
26.18333,189
26.19167,185
26.20000,182
26.20833,179
26.21667,175
26.22500,172
26.23333,169
26.24167,165
26.25000,162
26.25833,160
26.26667,157
26.27500,155
26.28333,152
26.29167,150
26.30000,147
26.30833,145
26.31667,144
26.32500,142
26.33333,141
26.34167,140
26.35000,139
26.35833,137
26.36667,136
26.37500,134
26.38333,133
26.39167,132
26.40000,131
26.40833,129
26.41667,128
26.42500,127
26.43333,127
26.44167,126
26.45000,125
26.45833,124
26.46667,123
26.47500,123
26.48333,122
26.49167,122
26.50000,122
26.50833,121
26.51667,120
26.52500,120
26.53333,119
26.54167,119
26.55000,119
26.55833,119
26.56667,119
26.57500,119
26.58333,119
26.59167,119
26.60000,119
26.60833,119
26.61667,119
26.62500,119
26.63333,119
26.64167,119
26.65000,119
26.65833,119
26.66667,119
26.67500,119
26.68333,119
26.69167,119
26.70000,119
26.70833,119
26.71667,119
26.72500,119
26.73333,120
26.74167,120
26.75000,121
26.75833,121
26.76667,121
26.77500,121
26.78333,121
26.79167,121
26.80000,121
26.80833,121
26.81667,121
26.82500,121
26.83333,121
26.84167,121
26.85000,121
26.85833,121
26.86667,122
26.87500,122
26.88333,122
26.89167,123
26.90000,123
26.90833,123
26.91667,123
26.92500,123
26.93333,123
26.94167,123
26.95000,123
26.95833,123
26.96667,123
26.97500,123
26.98333,124
26.99167,124
27.00000,124
27.00833,124
27.01667,124
27.02500,124
27.03333,124
27.04167,124
27.05000,124
27.05833,124
27.06667,124
27.07500,124
27.08333,125
27.09167,125
27.10000,125
27.10833,125
27.11667,125
27.12500,125
27.13333,125
27.14167,125
27.15000,125
27.15833,125
27.16667,125
27.17500,126
27.18333,126
27.19167,126
27.20000,126
27.20833,126
27.21667,126
27.22500,126
27.23333,127
27.24167,127
27.25000,127
27.25833,127
27.26667,127
27.27500,126
27.28333,126
27.29167,126
27.30000,126
27.30833,125
27.31667,125
27.32500,125
27.33333,125
27.34167,125
27.35000,125
27.35833,125
27.36667,125
27.37500,125
27.38333,124
27.39167,124
27.40000,123
27.40833,123
27.41667,122
27.42500,122
27.43333,121
27.44167,121
27.45000,121
27.45833,121
27.46667,120
27.47500,120
27.48333,120
27.49167,119
27.50000,118
27.50833,118
27.51667,118
27.52500,117
27.53333,116
27.54167,116
27.55000,115
27.55833,114
27.56667,113
27.57500,113
27.58333,112
27.59167,112
27.60000,112
27.60833,111
27.61667,110
27.62500,110
27.63333,109
27.64167,109
27.65000,108
27.65833,107
27.66667,106
27.67500,106
27.68333,105
27.69167,104
27.70000,103
27.70833,103
27.71667,102
27.72500,101
27.73333,100
27.74167,99
27.75000,98
27.75833,97
27.76667,96
27.77500,95
27.78333,94
27.79167,93
27.80000,92
27.80833,91
27.81667,90
27.82500,90
27.83333,89
27.84167,88
27.85000,87
27.85833,86
27.86667,85
27.87500,85
27.88333,84
27.89167,84
27.90000,84
27.90833,83
27.91667,83
27.92500,82
27.93333,82
27.94167,81
27.95000,81
27.95833,81
27.96667,81
27.97500,81
27.98333,80
27.99167,80
28.00000,80
28.00833,79
28.01667,79
28.02500,79
28.03333,78
28.04167,78
28.05000,78
28.05833,78
28.06667,79
28.07500,79
28.08333,79
28.09167,79
28.10000,80
28.10833,80
28.11667,80
28.12500,80
28.13333,80
28.14167,81
28.15000,81
28.15833,82
28.16667,82
28.17500,83
28.18333,83
28.19167,83
28.20000,83
28.20833,83
28.21667,84
28.22500,84
28.23333,84
28.24167,84
28.25000,84
28.25833,85
28.26667,85
28.27500,86
28.28333,87
28.29167,88
28.30000,88
28.30833,89
28.31667,89
28.32500,90
28.33333,91
28.34167,92
28.35000,93
28.35833,95
28.36667,96
28.37500,98
28.38333,100
28.39167,102
28.40000,104
28.40833,107
28.41667,110
28.42500,114
28.43333,118
28.44167,122
28.45000,128
28.45833,133
28.46667,138
28.47500,145
28.48333,152
28.49167,159
28.50000,167
28.50833,177
28.51667,186
28.52500,197
28.53333,209
28.54167,222
28.55000,235
28.55833,249
28.56667,265
28.57500,282
28.58333,300
28.59167,319
28.60000,340
28.60833,362
28.61667,385
28.62500,410
28.63333,436
28.64167,464
28.65000,493
28.65833,523
28.66667,555
28.67500,589
28.68333,624
28.69167,660
28.70000,698
28.70833,738
28.71667,779
28.72500,822
28.73333,866
28.74167,911
28.75000,958
28.75833,1005
28.76667,1054
28.77500,1104
28.78333,1155
28.79167,1207
28.80000,1259
28.80833,1313
28.81667,1367
28.82500,1421
28.83333,1476
28.84167,1532
28.85000,1588
28.85833,1644
28.86667,1700
28.87500,1756
28.88333,1811
28.89167,1866
28.90000,1921
28.90833,1975
28.91667,2029
28.92500,2081
28.93333,2133
28.94167,2183
28.95000,2233
28.95833,2281
28.96667,2328
28.97500,2374
28.98333,2418
28.99167,2462
29.00000,2503
29.00833,2543
29.01667,2582
29.02500,2619
29.03333,2655
29.04167,2689
29.05000,2721
29.05833,2751
29.06667,2780
29.07500,2807
29.08333,2832
29.09167,2856
29.10000,2878
29.10833,2898
29.11667,2916
29.12500,2933
29.13333,2949
29.14167,2963
29.15000,2975
29.15833,2986
29.16667,2995
29.17500,3003
29.18333,3009
29.19167,3014
29.20000,3017
29.20833,3018
29.21667,3018
29.22500,3017
29.23333,3014
29.24167,3010
29.25000,3004
29.25833,2998
29.26667,2989
29.27500,2979
29.28333,2966
29.29167,2953
29.30000,2938
29.30833,2922
29.31667,2904
29.32500,2885
29.33333,2865
29.34167,2842
29.35000,2819
29.35833,2793
29.36667,2766
29.37500,2737
29.38333,2707
29.39167,2676
29.40000,2643
29.40833,2609
29.41667,2574
29.42500,2538
29.43333,2499
29.44167,2460
29.45000,2419
29.45833,2378
29.46667,2335
29.47500,2291
29.48333,2247
29.49167,2201
29.50000,2155
29.50833,2108
29.51667,2060
29.52500,2011
29.53333,1962
29.54167,1913
29.55000,1863
29.55833,1813
29.56667,1763
29.57500,1713
29.58333,1663
29.59167,1614
29.60000,1564
29.60833,1516
29.61667,1467
29.62500,1419
29.63333,1371
29.64167,1324
29.65000,1277
29.65833,1230
29.66667,1185
29.67500,1140
29.68333,1096
29.69167,1054
29.70000,1013
29.70833,972
29.71667,932
29.72500,894
29.73333,857
29.74167,820
29.75000,785
29.75833,751
29.76667,717
29.77500,686
29.78333,655
29.79167,626
29.80000,598
29.80833,571
29.81667,544
29.82500,519
29.83333,495
29.84167,472
29.85000,450
29.85833,429
29.86667,410
29.87500,391
29.88333,374
29.89167,357
29.90000,341
29.90833,326
29.91667,312
29.92500,298
29.93333,286
29.94167,273
29.95000,262
29.95833,251
29.96667,241
29.97500,231
29.98333,223
29.99167,214
30.00000,207
30.00833,200
30.01667,194
30.02500,188
30.03333,182
30.04167,177
30.05000,172
30.05833,167
30.06667,162
30.07500,158
30.08333,154
30.09167,150
30.10000,147
30.10833,144
30.11667,141
30.12500,138
30.13333,135
30.14167,133
30.15000,131
30.15833,129
30.16667,127
30.17500,125
30.18333,124
30.19167,123
30.20000,122
30.20833,121
30.21667,120
30.22500,119
30.23333,118
30.24167,117
30.25000,116
30.25833,115
30.26667,115
30.27500,114
30.28333,114
30.29167,113
30.30000,112
30.30833,112
30.31667,112
30.32500,112
30.33333,111
30.34167,111
30.35000,111
30.35833,111
30.36667,111
30.37500,112
30.38333,112
30.39167,112
30.40000,113
30.40833,113
30.41667,113
30.42500,113
30.43333,114
30.44167,114
30.45000,115
30.45833,115
30.46667,115
30.47500,116
30.48333,117
30.49167,117
30.50000,118
30.50833,119
30.51667,120
30.52500,121
30.53333,122
30.54167,123
30.55000,124
30.55833,125
30.56667,126
30.57500,127
30.58333,129
30.59167,130
30.60000,132
30.60833,133
30.61667,135
30.62500,136
30.63333,137
30.64167,138
30.65000,140
30.65833,141
30.66667,142
30.67500,144
30.68333,146
30.69167,148
30.70000,150
30.70833,151
30.71667,153
30.72500,155
30.73333,157
30.74167,158
30.75000,160
30.75833,162
30.76667,163
30.77500,165
30.78333,166
30.79167,168
30.80000,170
30.80833,172
30.81667,173
30.82500,175
30.83333,176
30.84167,177
30.85000,179
30.85833,181
30.86667,182
30.87500,184
30.88333,186
30.89167,188
30.90000,189
30.90833,190
30.91667,191
30.92500,192
30.93333,194
30.94167,195
30.95000,196
30.95833,197
30.96667,198
30.97500,199
30.98333,200
30.99167,201
31.00000,202
31.00833,202
31.01667,203
31.02500,204
31.03333,205
31.04167,206
31.05000,207
31.05833,207
31.06667,207
31.07500,208
31.08333,208
31.09167,209
31.10000,209
31.10833,209
31.11667,209
31.12500,209
31.13333,209
31.14167,209
31.15000,210
31.15833,210
31.16667,209
31.17500,209
31.18333,209
31.19167,208
31.20000,208
31.20833,207
31.21667,207
31.22500,206
31.23333,205
31.24167,204
31.25000,204
31.25833,203
31.26667,203
31.27500,202
31.28333,201
31.29167,200
31.30000,200
31.30833,199
31.31667,198
31.32500,197
31.33333,196
31.34167,195
31.35000,194
31.35833,193
31.36667,191
31.37500,190
31.38333,188
31.39167,187
31.40000,185
31.40833,184
31.41667,183
31.42500,181
31.43333,180
31.44167,179
31.45000,177
31.45833,176
31.46667,175
31.47500,173
31.48333,172
31.49167,171
31.50000,170
31.50833,169
31.51667,167
31.52500,166
31.53333,165
31.54167,165
31.55000,164
31.55833,163
31.56667,162
31.57500,161
31.58333,160
31.59167,159
31.60000,158
31.60833,157
31.61667,157
31.62500,156
31.63333,156
31.64167,155
31.65000,155
31.65833,155
31.66667,156
31.67500,156
31.68333,156
31.69167,157
31.70000,157
31.70833,158
31.71667,159
31.72500,161
31.73333,162
31.74167,163
31.75000,165
31.75833,167
31.76667,169
31.77500,171
31.78333,174
31.79167,177
31.80000,180
31.80833,183
31.81667,186
31.82500,190
31.83333,193
31.84167,197
31.85000,202
31.85833,206
31.86667,211
31.87500,216
31.88333,221
31.89167,227
31.90000,232
31.90833,238
31.91667,243
31.92500,249
31.93333,255
31.94167,261
31.95000,267
31.95833,273
31.96667,279
31.97500,286
31.98333,293
31.99167,300
32.00000,306
32.00833,313
32.01667,320
32.02500,327
32.03333,334
32.04167,341
32.05000,348
32.05833,355
32.06667,362
32.07500,369
32.08333,376
32.09167,383
32.10000,390
32.10833,396
32.11667,403
32.12500,409
32.13333,416
32.14167,423
32.15000,429
32.15833,435
32.16667,441
32.17500,446
32.18333,451
32.19167,457
32.20000,462
32.20833,468
32.21667,473
32.22500,479
32.23333,484
32.24167,489
32.25000,493
32.25833,498
32.26667,502
32.27500,507
32.28333,511
32.29167,515
32.30000,519
32.30833,522
32.31667,526
32.32500,530
32.33333,533
32.34167,536
32.35000,539
32.35833,542
32.36667,544
32.37500,547
32.38333,549
32.39167,551
32.40000,553
32.40833,555
32.41667,557
32.42500,559
32.43333,561
32.44167,562
32.45000,563
32.45833,564
32.46667,566
32.47500,567
32.48333,567
32.49167,567
32.50000,568
32.50833,567
32.51667,567
32.52500,567
32.53333,566
32.54167,565
32.55000,564
32.55833,563
32.56667,562
32.57500,560
32.58333,559
32.59167,557
32.60000,554
32.60833,552
32.61667,550
32.62500,547
32.63333,544
32.64167,541
32.65000,538
32.65833,535
32.66667,532
32.67500,529
32.68333,525
32.69167,522
32.70000,518
32.70833,515
32.71667,511
32.72500,507
32.73333,504
32.74167,499
32.75000,496
32.75833,492
32.76667,488
32.77500,485
32.78333,481
32.79167,477
32.80000,473
32.80833,469
32.81667,465
32.82500,461
32.83333,458
32.84167,454
32.85000,451
32.85833,447
32.86667,444
32.87500,441
32.88333,438
32.89167,435
32.90000,432
32.90833,429
32.91667,426
32.92500,423
32.93333,421
32.94167,419
32.95000,417
32.95833,414
32.96667,412
32.97500,410
32.98333,408
32.99167,406
33.00000,404
33.00833,403
33.01667,402
33.02500,401
33.03333,400
33.04167,399
33.05000,397
33.05833,396
33.06667,395
33.07500,394
33.08333,394
33.09167,393
33.10000,392
33.10833,391
33.11667,391
33.12500,390
33.13333,388
33.14167,388
33.15000,387
33.15833,387
33.16667,386
33.17500,386
33.18333,385
33.19167,384
33.20000,383
33.20833,382
33.21667,381
33.22500,380
33.23333,379
33.24167,378
33.25000,377
33.25833,376
33.26667,375
33.27500,373
33.28333,372
33.29167,370
33.30000,369
33.30833,367
33.31667,365
33.32500,364
33.33333,362
33.34167,361
33.35000,359
33.35833,357
33.36667,355
33.37500,353
33.38333,351
33.39167,349
33.40000,346
33.40833,344
33.41667,341
33.42500,338
33.43333,335
33.44167,332
33.45000,329
33.45833,326
33.46667,323
33.47500,320
33.48333,317
33.49167,314
33.50000,311
33.50833,308
33.51667,304
33.52500,301
33.53333,298
33.54167,294
33.55000,291
33.55833,288
33.56667,284
33.57500,280
33.58333,276
33.59167,273
33.60000,269
33.60833,265
33.61667,261
33.62500,257
33.63333,253
33.64167,249
33.65000,246
33.65833,242
33.66667,238
33.67500,234
33.68333,230
33.69167,226
33.70000,222
33.70833,218
33.71667,214
33.72500,210
33.73333,206
33.74167,202
33.75000,198
33.75833,194
33.76667,190
33.77500,186
33.78333,182
33.79167,179
33.80000,175
33.80833,172
33.81667,168
33.82500,164
33.83333,160
33.84167,156
33.85000,153
33.85833,149
33.86667,146
33.87500,142
33.88333,138
33.89167,134
33.90000,131
33.90833,128
33.91667,125
33.92500,122
33.93333,119
33.94167,116
33.95000,113
33.95833,110
33.96667,107
33.97500,104
33.98333,101
33.99167,98
34.00000,95
34.00833,93
34.01667,90
34.02500,88
34.03333,85
34.04167,83
34.05000,81
34.05833,79
34.06667,77
34.07500,75
34.08333,73
34.09167,71
34.10000,69
34.10833,67
34.11667,66
34.12500,64
34.13333,63
34.14167,61
34.15000,59
34.15833,58
34.16667,56
34.17500,54
34.18333,54
34.19167,53
34.20000,52
34.20833,51
34.21667,50
34.22500,48
34.23333,47
34.24167,46
34.25000,46
34.25833,45
34.26667,44
34.27500,43
34.28333,42
34.29167,41
34.30000,40
34.30833,39
34.31667,38
34.32500,37
34.33333,37
34.34167,36
34.35000,36
34.35833,35
34.36667,35
34.37500,35
34.38333,35
34.39167,34
34.40000,33
34.40833,32
34.41667,32
34.42500,31
34.43333,30
34.44167,30
34.45000,29
34.45833,29
34.46667,29
34.47500,28
34.48333,28
34.49167,28
34.50000,27
34.50833,27
34.51667,27
34.52500,27
34.53333,26
34.54167,26
34.55000,26
34.55833,25
34.56667,25
34.57500,25
34.58333,25
34.59167,24
34.60000,24
34.60833,24
34.61667,23
34.62500,23
34.63333,23
34.64167,22
34.65000,22
34.65833,22
34.66667,21
34.67500,20
34.68333,20
34.69167,20
34.70000,20
34.70833,20
34.71667,20
34.72500,19
34.73333,20
34.74167,19
34.75000,19
34.75833,19
34.76667,19
34.77500,18
34.78333,18
34.79167,17
34.80000,17
34.80833,17
34.81667,17
34.82500,17
34.83333,17
34.84167,17
34.85000,17
34.85833,17
34.86667,16
34.87500,16
34.88333,16
34.89167,16
34.90000,15
34.90833,15
34.91667,15
34.92500,15
34.93333,15
34.94167,15
34.95000,15
34.95833,15
34.96667,15
34.97500,15
34.98333,14
34.99167,14
35.00000,15
35.00833,15
35.01667,15
35.02500,15
35.03333,15
35.04167,15
35.05000,14
35.05833,14
35.06667,14
35.07500,14
35.08333,14
35.09167,14
35.10000,14
35.10833,14
35.11667,14
35.12500,15
35.13333,15
35.14167,16
35.15000,16
35.15833,17
35.16667,18
35.17500,18
35.18333,19
35.19167,19
35.20000,19
35.20833,20
35.21667,20
35.22500,21
35.23333,21
35.24167,22
35.25000,22
35.25833,22
35.26667,23
35.27500,23
35.28333,24
35.29167,25
35.30000,26
35.30833,26
35.31667,27
35.32500,28
35.33333,28
35.34167,29
35.35000,30
35.35833,31
35.36667,32
35.37500,33
35.38333,34
35.39167,35
35.40000,36
35.40833,37
35.41667,38
35.42500,38
35.43333,39
35.44167,40
35.45000,40
35.45833,41
35.46667,42
35.47500,43
35.48333,44
35.49167,45
35.50000,46
35.50833,48
35.51667,49
35.52500,50
35.53333,51
35.54167,52
35.55000,53
35.55833,54
35.56667,55
35.57500,56
35.58333,57
35.59167,58
35.60000,59
35.60833,60
35.61667,61
35.62500,62
35.63333,63
35.64167,64
35.65000,65
35.65833,66
35.66667,66
35.67500,66
35.68333,67
35.69167,68
35.70000,69
35.70833,70
35.71667,71
35.72500,71
35.73333,72
35.74167,73
35.75000,74
35.75833,74
35.76667,75
35.77500,76
35.78333,76
35.79167,77
35.80000,78
35.80833,78
35.81667,79
35.82500,79
35.83333,79
35.84167,80
35.85000,80
35.85833,81
35.86667,81
35.87500,82
35.88333,82
35.89167,83
35.90000,83
35.90833,83
35.91667,83
35.92500,83
35.93333,84
35.94167,84
35.95000,84
35.95833,85
35.96667,85
35.97500,85
35.98333,86
35.99167,86
36.00000,86
36.00833,86
36.01667,86
36.02500,86
36.03333,86
36.04167,86
36.05000,86
36.05833,86
36.06667,86
36.07500,86
36.08333,86
36.09167,85
36.10000,85
36.10833,85
36.11667,85
36.12500,85
36.13333,85
36.14167,85
36.15000,84
36.15833,84
36.16667,84
36.17500,84
36.18333,83
36.19167,83
36.20000,83
36.20833,83
36.21667,82
36.22500,82
36.23333,82
36.24167,81
36.25000,81
36.25833,81
36.26667,81
36.27500,80
36.28333,80
36.29167,79
36.30000,79
36.30833,79
36.31667,78
36.32500,77
36.33333,76
36.34167,76
36.35000,75
36.35833,75
36.36667,74
36.37500,73
36.38333,73
36.39167,73
36.40000,73
36.40833,72
36.41667,71
36.42500,70
36.43333,70
36.44167,69
36.45000,69
36.45833,69
36.46667,68
36.47500,68
36.48333,67
36.49167,67
36.50000,67
36.50833,66
36.51667,66
36.52500,65
36.53333,64
36.54167,64
36.55000,64
36.55833,63
36.56667,63
36.57500,62
36.58333,62
36.59167,62
36.60000,62
36.60833,62
36.61667,61
36.62500,61
36.63333,61
36.64167,61
36.65000,60
36.65833,60
36.66667,60
36.67500,60
36.68333,59
36.69167,59
36.70000,59
36.70833,59
36.71667,59
36.72500,59
36.73333,59
36.74167,59
36.75000,59
36.75833,59
36.76667,59
36.77500,59
36.78333,59
36.79167,59
36.80000,60
36.80833,60
36.81667,61
36.82500,61
36.83333,61
36.84167,61
36.85000,61
36.85833,61
36.86667,61
36.87500,61
36.88333,62
36.89167,62
36.90000,62
36.90833,62
36.91667,63
36.92500,63
36.93333,64
36.94167,64
36.95000,65
36.95833,65
36.96667,66
36.97500,67
36.98333,67
36.99167,67
37.00000,68
37.00833,68
37.01667,68
37.02500,69
37.03333,70
37.04167,71
37.05000,72
37.05833,72
37.06667,73
37.07500,74
37.08333,74
37.09167,75
37.10000,75
37.10833,76
37.11667,77
37.12500,78
37.13333,78
37.14167,79
37.15000,79
37.15833,80
37.16667,80
37.17500,81
37.18333,82
37.19167,82
37.20000,83
37.20833,84
37.21667,85
37.22500,86
37.23333,87
37.24167,89
37.25000,90
37.25833,91
37.26667,92
37.27500,92
37.28333,93
37.29167,93
37.30000,93
37.30833,94
37.31667,94
37.32500,95
37.33333,96
37.34167,98
37.35000,99
37.35833,100
37.36667,100
37.37500,101
37.38333,102
37.39167,103
37.40000,104
37.40833,104
37.41667,105
37.42500,106
37.43333,108
37.44167,109
37.45000,110
37.45833,111
37.46667,112
37.47500,113
37.48333,114
37.49167,115
37.50000,116
37.50833,117
37.51667,118
37.52500,118
37.53333,119
37.54167,120
37.55000,121
37.55833,122
37.56667,123
37.57500,123
37.58333,124
37.59167,125
37.60000,126
37.60833,127
37.61667,127
37.62500,128
37.63333,129
37.64167,129
37.65000,130
37.65833,131
37.66667,131
37.67500,131
37.68333,132
37.69167,132
37.70000,132
37.70833,132
37.71667,133
37.72500,133
37.73333,133
37.74167,134
37.75000,134
37.75833,135
37.76667,135
37.77500,135
37.78333,135
37.79167,135
37.80000,135
37.80833,135
37.81667,135
37.82500,135
37.83333,135
37.84167,136
37.85000,136
37.85833,136
37.86667,136
37.87500,136
37.88333,136
37.89167,136
37.90000,135
37.90833,134
37.91667,134
37.92500,133
37.93333,133
37.94167,133
37.95000,132
37.95833,132
37.96667,131
37.97500,131
37.98333,131
37.99167,130
38.00000,130
38.00833,129
38.01667,129
38.02500,128
38.03333,128
38.04167,127
38.05000,126
38.05833,125
38.06667,124
38.07500,124
38.08333,123
38.09167,122
38.10000,121
38.10833,120
38.11667,119
38.12500,118
38.13333,118
38.14167,117
38.15000,116
38.15833,115
38.16667,114
38.17500,113
38.18333,112
38.19167,111
38.20000,109
38.20833,108
38.21667,107
38.22500,106
38.23333,105
38.24167,104
38.25000,103
38.25833,102
38.26667,101
38.27500,100
38.28333,99
38.29167,97
38.30000,96
38.30833,95
38.31667,93
38.32500,92
38.33333,91
38.34167,89
38.35000,88
38.35833,87
38.36667,85
38.37500,83
38.38333,82
38.39167,81
38.40000,80
38.40833,79
38.41667,78
38.42500,76
38.43333,75
38.44167,74
38.45000,72
38.45833,71
38.46667,70
38.47500,69
38.48333,67
38.49167,66
38.50000,64
38.50833,63
38.51667,61
38.52500,60
38.53333,58
38.54167,57
38.55000,56
38.55833,55
38.56667,53
38.57500,52
38.58333,51
38.59167,50
38.60000,49
38.60833,48
38.61667,46
38.62500,45
38.63333,44
38.64167,43
38.65000,42
38.65833,41
38.66667,39
38.67500,38
38.68333,37
38.69167,36
38.70000,34
38.70833,33
38.71667,32
38.72500,31
38.73333,30
38.74167,29
38.75000,29
38.75833,28
38.76667,27
38.77500,26
38.78333,25
38.79167,24
38.80000,23
38.80833,22
38.81667,21
38.82500,20
38.83333,20
38.84167,19
38.85000,18
38.85833,18
38.86667,17
38.87500,16
38.88333,15
38.89167,15
38.90000,14
38.90833,13
38.91667,12
38.92500,12
38.93333,11
38.94167,11
38.95000,10
38.95833,10
38.96667,9
38.97500,9
38.98333,8
38.99167,8
39.00000,7
39.00833,7
39.01667,7
39.02500,6
39.03333,6
39.04167,5
39.05000,5
39.05833,4
39.06667,4
39.07500,4
39.08333,4
39.09167,3
39.10000,3
39.10833,3
39.11667,3
39.12500,2
39.13333,2
39.14167,1
39.15000,1
39.15833,0
39.16667,0
39.17500,0
39.18333,0
39.19167,1
39.20000,0
39.20833,0
39.21667,0
39.22500,0
39.23333,-0
39.24167,0
39.25000,0
39.25833,0
39.26667,-0
39.27500,-0
39.28333,-0
39.29167,-0
39.30000,-1
39.30833,-1
39.31667,-1
39.32500,-1
39.33333,-2
39.34167,-2
39.35000,-2
39.35833,-1
39.36667,-1
39.37500,-2
39.38333,-2
39.39167,-2
39.40000,-2
39.40833,-2
39.41667,-2
39.42500,-2
39.43333,-3
39.44167,-3
39.45000,-3
39.45833,-3
39.46667,-2
39.47500,-2
39.48333,-2
39.49167,-2
39.50000,-2
39.50833,-2
39.51667,-2
39.52500,-2
39.53333,-2
39.54167,-3
39.55000,-3
39.55833,-3
39.56667,-3
39.57500,-3
39.58333,-3
39.59167,-3
39.60000,-3
39.60833,-3
39.61667,-3
39.62500,-3
39.63333,-4
39.64167,-4
39.65000,-4
39.65833,-4
39.66667,-4
39.67500,-3
39.68333,-3
39.69167,-3
39.70000,-3
39.70833,-3
39.71667,-3
39.72500,-3
39.73333,-4
39.74167,-4
39.75000,-4
39.75833,-3
39.76667,-3
39.77500,-3
39.78333,-4
39.79167,-4
39.80000,-4
39.80833,-4
39.81667,-4
39.82500,-4
39.83333,-5
39.84167,-5
39.85000,-5
39.85833,-5
39.86667,-5
39.87500,-5
39.88333,-5
39.89167,-5
39.90000,-6
39.90833,-6
39.91667,-6
39.92500,-6
39.93333,-5
39.94167,-5
39.95000,-4
39.95833,-4
39.96667,-5
39.97500,-5
39.98333,-6
39.99167,-6
40.00000,-6
40.00833,-6
40.01667,-6
40.02500,-6
40.03333,-6
40.04167,-6
40.05000,-6
40.05833,-6
40.06667,-6
40.07500,-6
40.08333,-6
40.09167,-5
40.10000,-6
40.10833,-6
40.11667,-6
40.12500,-6
40.13333,-6
40.14167,-6
40.15000,-5
40.15833,-5
40.16667,-5
40.17500,-5
40.18333,-5
40.19167,-5
40.20000,-5
40.20833,-6
40.21667,-6
40.22500,-6
40.23333,-6
40.24167,-6
40.25000,-5
40.25833,-6
40.26667,-6
40.27500,-5
40.28333,-5
40.29167,-4
40.30000,-4
40.30833,-4
40.31667,-3
40.32500,-3
40.33333,-3
40.34167,-3
40.35000,-2
40.35833,-2
40.36667,-2
40.37500,-2
40.38333,-2
40.39167,-2
40.40000,-1
40.40833,-0
40.41667,0
40.42500,0
40.43333,1
40.44167,1
40.45000,2
40.45833,3
40.46667,3
40.47500,4
40.48333,4
40.49167,5
40.50000,6
40.50833,6
40.51667,7
40.52500,8
40.53333,9
40.54167,10
40.55000,10
40.55833,11
40.56667,11
40.57500,12
40.58333,13
40.59167,14
40.60000,15
40.60833,16
40.61667,17
40.62500,19
40.63333,20
40.64167,21
40.65000,22
40.65833,24
40.66667,25
40.67500,25
40.68333,26
40.69167,28
40.70000,29
40.70833,30
40.71667,32
40.72500,33
40.73333,35
40.74167,36
40.75000,38
40.75833,39
40.76667,40
40.77500,42
40.78333,43
40.79167,45
40.80000,47
40.80833,48
40.81667,50
40.82500,52
40.83333,54
40.84167,55
40.85000,57
40.85833,59
40.86667,61
40.87500,63
40.88333,65
40.89167,67
40.90000,69
40.90833,71
40.91667,73
40.92500,75
40.93333,77
40.94167,79
40.95000,80
40.95833,82
40.96667,83
40.97500,85
40.98333,87
40.99167,89
41.00000,91
41.00833,94
41.01667,96
41.02500,98
41.03333,100
41.04167,102
41.05000,103
41.05833,105
41.06667,107
41.07500,109
41.08333,110
41.09167,112
41.10000,114
41.10833,116
41.11667,118
41.12500,119
41.13333,121
41.14167,123
41.15000,126
41.15833,128
41.16667,129
41.17500,131
41.18333,133
41.19167,134
41.20000,136
41.20833,138
41.21667,140
41.22500,141
41.23333,143
41.24167,145
41.25000,147
41.25833,149
41.26667,150
41.27500,152
41.28333,153
41.29167,155
41.30000,157
41.30833,159
41.31667,160
41.32500,162
41.33333,164
41.34167,165
41.35000,167
41.35833,169
41.36667,170
41.37500,172
41.38333,174
41.39167,175
41.40000,177
41.40833,178
41.41667,179
41.42500,181
41.43333,182
41.44167,183
41.45000,185
41.45833,186
41.46667,188
41.47500,189
41.48333,190
41.49167,191
41.50000,192
41.50833,193
41.51667,194
41.52500,196
41.53333,197
41.54167,198
41.55000,199
41.55833,200
41.56667,201
41.57500,202
41.58333,203
41.59167,204
41.60000,205
41.60833,206
41.61667,206
41.62500,207
41.63333,208
41.64167,208
41.65000,209
41.65833,210
41.66667,210
41.67500,211
41.68333,211
41.69167,212
41.70000,212
41.70833,213
41.71667,214
41.72500,214
41.73333,214
41.74167,215
41.75000,216
41.75833,216
41.76667,217
41.77500,217
41.78333,217
41.79167,217
41.80000,217
41.80833,217
41.81667,217
41.82500,217
41.83333,217
41.84167,217
41.85000,217
41.85833,217
41.86667,217
41.87500,217
41.88333,217
41.89167,217
41.90000,217
41.90833,217
41.91667,216
41.92500,216
41.93333,216
41.94167,215
41.95000,215
41.95833,215
41.96667,214
41.97500,214
41.98333,213
41.99167,213
42.00000,213
42.00833,213
42.01667,212
42.02500,212
42.03333,211
42.04167,211
42.05000,210
42.05833,209
42.06667,209
42.07500,209
42.08333,208
42.09167,208
42.10000,207
42.10833,207
42.11667,206
42.12500,205
42.13333,205
42.14167,204
42.15000,204
42.15833,203
42.16667,203
42.17500,202
42.18333,202
42.19167,202
42.20000,201
42.20833,200
42.21667,199
42.22500,199
42.23333,198
42.24167,198
42.25000,197
42.25833,196
42.26667,196
42.27500,195
42.28333,194
42.29167,193
42.30000,193
42.30833,193
42.31667,193
42.32500,192
42.33333,192
42.34167,192
42.35000,191
42.35833,190
42.36667,190
42.37500,189
42.38333,188
42.39167,187
42.40000,186
42.40833,186
42.41667,185
42.42500,184
42.43333,184
42.44167,183
42.45000,182
42.45833,181
42.46667,181
42.47500,180
42.48333,180
42.49167,179
42.50000,179
42.50833,178
42.51667,177
42.52500,177
42.53333,176
42.54167,176
42.55000,175
42.55833,174
42.56667,174
42.57500,173
42.58333,172
42.59167,170
42.60000,169
42.60833,169
42.61667,168
42.62500,167
42.63333,167
42.64167,166
42.65000,165
42.65833,165
42.66667,164
42.67500,163
42.68333,162
42.69167,162
42.70000,161
42.70833,160
42.71667,160
42.72500,159
42.73333,158
42.74167,157
42.75000,156
42.75833,156
42.76667,155
42.77500,154
42.78333,154
42.79167,153
42.80000,152
42.80833,151
42.81667,151
42.82500,149
42.83333,148
42.84167,148
42.85000,147
42.85833,146
42.86667,145
42.87500,144
42.88333,144
42.89167,143
42.90000,142
42.90833,141
42.91667,140
42.92500,139
42.93333,138
42.94167,137
42.95000,135
42.95833,135
42.96667,134
42.97500,133
42.98333,132
42.99167,132
43.00000,131
43.00833,130
43.01667,130
43.02500,129
43.03333,128
43.04167,127
43.05000,126
43.05833,126
43.06667,125
43.07500,124
43.08333,123
43.09167,122
43.10000,121
43.10833,120
43.11667,119
43.12500,118
43.13333,117
43.14167,116
43.15000,115
43.15833,114
43.16667,113
43.17500,113
43.18333,112
43.19167,112
43.20000,111
43.20833,110
43.21667,109
43.22500,108
43.23333,107
43.24167,106
43.25000,105
43.25833,104
43.26667,104
43.27500,103
43.28333,102
43.29167,101
43.30000,101
43.30833,100
43.31667,99
43.32500,98
43.33333,98
43.34167,97
43.35000,96
43.35833,95
43.36667,94
43.37500,93
43.38333,92
43.39167,92
43.40000,91
43.40833,90
43.41667,89
43.42500,88
43.43333,88
43.44167,87
43.45000,86
43.45833,85
43.46667,85
43.47500,84
43.48333,83
43.49167,82
43.50000,81
43.50833,80
43.51667,80
43.52500,79
43.53333,78
43.54167,77
43.55000,76
43.55833,76
43.56667,75
43.57500,74
43.58333,74
43.59167,73
43.60000,72
43.60833,71
43.61667,70
43.62500,70
43.63333,69
43.64167,68
43.65000,67
43.65833,66
43.66667,66
43.67500,65
43.68333,64
43.69167,63
43.70000,62
43.70833,62
43.71667,61
43.72500,60
43.73333,59
43.74167,59
43.75000,58
43.75833,57
43.76667,56
43.77500,55
43.78333,54
43.79167,54
43.80000,53
43.80833,52
43.81667,52
43.82500,52
43.83333,51
43.84167,50
43.85000,49
43.85833,49
43.86667,48
43.87500,47
43.88333,47
43.89167,46
43.90000,45
43.90833,45
43.91667,44
43.92500,43
43.93333,43
43.94167,42
43.95000,41
43.95833,40
43.96667,40
43.97500,39
43.98333,39
43.99167,38
44.00000,37
44.00833,37
44.01667,36
44.02500,35
44.03333,35
44.04167,34
44.05000,34
44.05833,33
44.06667,33
44.07500,32
44.08333,32
44.09167,31
44.10000,30
44.10833,29
44.11667,29
44.12500,29
44.13333,28
44.14167,28
44.15000,27
44.15833,27
44.16667,26
44.17500,25
44.18333,25
44.19167,24
44.20000,24
44.20833,23
44.21667,23
44.22500,23
44.23333,22
44.24167,22
44.25000,22
44.25833,21
44.26667,21
44.27500,21
44.28333,20
44.29167,20
44.30000,19
44.30833,18
44.31667,18
44.32500,17
44.33333,17
44.34167,17
44.35000,16
44.35833,16
44.36667,16
44.37500,16
44.38333,15
44.39167,14
44.40000,14
44.40833,13
44.41667,13
44.42500,12
44.43333,12
44.44167,11
44.45000,11
44.45833,10
44.46667,10
44.47500,9
44.48333,8
44.49167,8
44.50000,7
44.50833,7
44.51667,6
44.52500,6
44.53333,6
44.54167,6
44.55000,7
44.55833,7
44.56667,6
44.57500,6
44.58333,6
44.59167,6
44.60000,5
44.60833,5
44.61667,5
44.62500,4
44.63333,4
44.64167,4
44.65000,4
44.65833,4
44.66667,4
44.67500,3
44.68333,3
44.69167,2
44.70000,2
44.70833,1
44.71667,1
44.72500,0
44.73333,0
44.74167,0
44.75000,-0
44.75833,-0
44.76667,-0
44.77500,-0
44.78333,-1
44.79167,-1
44.80000,-1
44.80833,-1
44.81667,-1
44.82500,-2
44.83333,-2
44.84167,-2
44.85000,-3
44.85833,-3
44.86667,-3
44.87500,-4
44.88333,-4
44.89167,-5
44.90000,-5
44.90833,-5
44.91667,-5
44.92500,-4
44.93333,-4
44.94167,-4
44.95000,-4
44.95833,-4
44.96667,-4
44.97500,-4
44.98333,-5
44.99167,-5
45.00000,-5
45.00833,-5
45.01667,-5
45.02500,-5
45.03333,-5
45.04167,-6
45.05000,-6
45.05833,-6
45.06667,-6
45.07500,-6
45.08333,-6
45.09167,-6
45.10000,-6
45.10833,-6
45.11667,-6
45.12500,-6
45.13333,-6
45.14167,-7
45.15000,-7
45.15833,-7
45.16667,-7
45.17500,-7
45.18333,-6
45.19167,-6
45.20000,-7
45.20833,-7
45.21667,-7
45.22500,-7
45.23333,-7
45.24167,-7
45.25000,-7
45.25833,-7
45.26667,-7
45.27500,-7
45.28333,-8
45.29167,-8
45.30000,-8
45.30833,-9
45.31667,-8
45.32500,-8
45.33333,-8
45.34167,-8
45.35000,-8
45.35833,-8
45.36667,-8
45.37500,-8
45.38333,-8
45.39167,-8
45.40000,-8
45.40833,-8
45.41667,-8
45.42500,-8
45.43333,-8
45.44167,-8
45.45000,-7
45.45833,-7
45.46667,-7
45.47500,-7
45.48333,-7
45.49167,-7
45.50000,-8
45.50833,-8
45.51667,-8
45.52500,-8
45.53333,-9
45.54167,-9
45.55000,-9
45.55833,-9
45.56667,-9
45.57500,-9
45.58333,-9
45.59167,-9
45.60000,-9
45.60833,-8
45.61667,-8
45.62500,-8
45.63333,-8
45.64167,-8
45.65000,-8
45.65833,-8
45.66667,-8
45.67500,-9
45.68333,-9
45.69167,-9
45.70000,-9
45.70833,-9
45.71667,-9
45.72500,-9
45.73333,-9
45.74167,-9
45.75000,-9
45.75833,-9
45.76667,-9
45.77500,-9
45.78333,-9
45.79167,-9
45.80000,-10
45.80833,-10
45.81667,-10
45.82500,-10
45.83333,-10
45.84167,-10
45.85000,-10
45.85833,-10
45.86667,-10
45.87500,-10
45.88333,-10
45.89167,-10
45.90000,-11
45.90833,-11
45.91667,-11
45.92500,-12
45.93333,-12
45.94167,-12
45.95000,-12
45.95833,-12
45.96667,-12
45.97500,-13
45.98333,-13
45.99167,-13
46.00000,-13
46.00833,-13
46.01667,-13
46.02500,-13
46.03333,-14
46.04167,-14
46.05000,-14
46.05833,-14
46.06667,-14
46.07500,-14
46.08333,-14
46.09167,-14
46.10000,-14
46.10833,-15
46.11667,-15
46.12500,-15
46.13333,-15
46.14167,-16
46.15000,-16
46.15833,-16
46.16667,-16
46.17500,-16
46.18333,-17
46.19167,-17
46.20000,-17
46.20833,-18
46.21667,-18
46.22500,-19
46.23333,-19
46.24167,-19
46.25000,-19
46.25833,-19
46.26667,-18
46.27500,-18
46.28333,-19
46.29167,-19
46.30000,-19
46.30833,-20
46.31667,-20
46.32500,-20
46.33333,-21
46.34167,-21
46.35000,-21
46.35833,-21
46.36667,-21
46.37500,-21
46.38333,-21
46.39167,-21
46.40000,-21
46.40833,-22
46.41667,-23
46.42500,-23
46.43333,-24
46.44167,-24
46.45000,-24
46.45833,-24
46.46667,-24
46.47500,-25
46.48333,-25
46.49167,-25
46.50000,-25
46.50833,-25
46.51667,-25
46.52500,-26
46.53333,-26
46.54167,-26
46.55000,-27
46.55833,-27
46.56667,-27
46.57500,-27
46.58333,-27
46.59167,-27
46.60000,-27
46.60833,-27
46.61667,-28
46.62500,-28
46.63333,-28
46.64167,-29
46.65000,-29
46.65833,-30
46.66667,-30
46.67500,-31
46.68333,-31
46.69167,-31
46.70000,-31
46.70833,-32
46.71667,-32
46.72500,-32
46.73333,-31
46.74167,-31
46.75000,-31
46.75833,-32
46.76667,-32
46.77500,-32
46.78333,-32
46.79167,-32
46.80000,-32
46.80833,-32
46.81667,-32
46.82500,-33
46.83333,-33
46.84167,-33
46.85000,-33
46.85833,-33
46.86667,-33
46.87500,-33
46.88333,-33
46.89167,-33
46.90000,-33
46.90833,-33
46.91667,-33
46.92500,-34
46.93333,-34
46.94167,-35
46.95000,-35
46.95833,-35
46.96667,-35
46.97500,-35
46.98333,-34
46.99167,-34
47.00000,-34
47.00833,-34
47.01667,-34
47.02500,-34
47.03333,-34
47.04167,-34
47.05000,-34
47.05833,-34
47.06667,-34
47.07500,-34
47.08333,-34
47.09167,-34
47.10000,-34
47.10833,-34
47.11667,-34
47.12500,-34
47.13333,-34
47.14167,-34
47.15000,-33
47.15833,-33
47.16667,-33
47.17500,-33
47.18333,-33
47.19167,-33
47.20000,-33
47.20833,-32
47.21667,-32
47.22500,-31
47.23333,-31
47.24167,-31
47.25000,-30
47.25833,-30
47.26667,-30
47.27500,-29
47.28333,-29
47.29167,-28
47.30000,-28
47.30833,-27
47.31667,-26
47.32500,-26
47.33333,-25
47.34167,-25
47.35000,-24
47.35833,-24
47.36667,-23
47.37500,-22
47.38333,-22
47.39167,-21
47.40000,-21
47.40833,-21
47.41667,-20
47.42500,-19
47.43333,-19
47.44167,-18
47.45000,-17
47.45833,-16
47.46667,-15
47.47500,-15
47.48333,-14
47.49167,-13
47.50000,-13
47.50833,-12
47.51667,-11
47.52500,-10
47.53333,-9
47.54167,-8
47.55000,-8
47.55833,-8
47.56667,-7
47.57500,-6
47.58333,-5
47.59167,-5
47.60000,-4
47.60833,-3
47.61667,-2
47.62500,-1
47.63333,-1
47.64167,0
47.65000,1
47.65833,2
47.66667,3
47.67500,4
47.68333,5
47.69167,5
47.70000,6
47.70833,7
47.71667,8
47.72500,9
47.73333,10
47.74167,11
47.75000,11
47.75833,12
47.76667,13
47.77500,14
47.78333,15
47.79167,16
47.80000,17
47.80833,18
47.81667,18
47.82500,19
47.83333,20
47.84167,21
47.85000,21
47.85833,22
47.86667,23
47.87500,23
47.88333,24
47.89167,25
47.90000,25
47.90833,26
47.91667,27
47.92500,28
47.93333,28
47.94167,29
47.95000,29
47.95833,30
47.96667,31
47.97500,31
47.98333,32
47.99167,32
48.00000,33
48.00833,33
48.01667,34
48.02500,34
48.03333,35
48.04167,35
48.05000,36
48.05833,36
48.06667,37
48.07500,37
48.08333,38
48.09167,38
48.10000,38
48.10833,39
48.11667,39
48.12500,39
48.13333,40
48.14167,40
48.15000,40
48.15833,41
48.16667,41
48.17500,41
48.18333,42
48.19167,43
48.20000,43
48.20833,43
48.21667,43
48.22500,43
48.23333,44
48.24167,44
48.25000,44
48.25833,44
48.26667,44
48.27500,45
48.28333,45
48.29167,45
48.30000,45
48.30833,45
48.31667,45
48.32500,46
48.33333,46
48.34167,46
48.35000,47
48.35833,47
48.36667,47
48.37500,48
48.38333,48
48.39167,48
48.40000,48
48.40833,47
48.41667,47
48.42500,47
48.43333,47
48.44167,47
48.45000,47
48.45833,47
48.46667,48
48.47500,48
48.48333,48
48.49167,48
48.50000,49
48.50833,49
48.51667,49
48.52500,49
48.53333,49
48.54167,49
48.55000,49
48.55833,49
48.56667,50
48.57500,50
48.58333,50
48.59167,50
48.60000,50
48.60833,49
48.61667,49
48.62500,49
48.63333,49
48.64167,50
48.65000,50
48.65833,50
48.66667,50
48.67500,50
48.68333,50
48.69167,49
48.70000,49
48.70833,49
48.71667,49
48.72500,48
48.73333,49
48.74167,49
48.75000,49
48.75833,49
48.76667,49
48.77500,49
48.78333,49
48.79167,49
48.80000,50
48.80833,50
48.81667,50
48.82500,50
48.83333,50
48.84167,50
48.85000,50
48.85833,50
48.86667,50
48.87500,50
48.88333,51
48.89167,50
48.90000,50
48.90833,50
48.91667,50
48.92500,50
48.93333,51
48.94167,51
48.95000,51
48.95833,51
48.96667,51
48.97500,51
48.98333,51
48.99167,50
49.00000,50
49.00833,51
49.01667,51
49.02500,51
49.03333,51
49.04167,51
49.05000,51
49.05833,51
49.06667,51
49.07500,52
49.08333,52
49.09167,52
49.10000,52
49.10833,52
49.11667,52
49.12500,52
49.13333,52
49.14167,52
49.15000,52
49.15833,52
49.16667,52
49.17500,51
49.18333,51
49.19167,51
49.20000,52
49.20833,52
49.21667,52
49.22500,52
49.23333,52
49.24167,52
49.25000,52
49.25833,51
49.26667,51
49.27500,51
49.28333,51
49.29167,51
49.30000,51
49.30833,51
49.31667,51
49.32500,51
49.33333,51
49.34167,51
49.35000,51
49.35833,51
49.36667,51
49.37500,51
49.38333,51
49.39167,50
49.40000,50
49.40833,50
49.41667,50
49.42500,50
49.43333,50
49.44167,50
49.45000,49
49.45833,49
49.46667,49
49.47500,49
49.48333,49
49.49167,49
49.50000,48
49.50833,48
49.51667,47
49.52500,47
49.53333,47
49.54167,46
49.55000,46
49.55833,45
49.56667,45
49.57500,45
49.58333,45
49.59167,44
49.60000,44
49.60833,43
49.61667,43
49.62500,43
49.63333,42
49.64167,42
49.65000,42
49.65833,42
49.66667,41
49.67500,41
49.68333,41
49.69167,40
49.70000,40
49.70833,40
49.71667,40
49.72500,40
49.73333,39
49.74167,39
49.75000,38
49.75833,37
49.76667,37
49.77500,36
49.78333,36
49.79167,35
49.80000,34
49.80833,34
49.81667,34
49.82500,33
49.83333,33
49.84167,32
49.85000,31
49.85833,31
49.86667,30
49.87500,29
49.88333,29
49.89167,28
49.90000,28
49.90833,27
49.91667,27
49.92500,26
49.93333,26
49.94167,25
49.95000,24
49.95833,24
49.96667,23
49.97500,22
49.98333,22
49.99167,21
50.00000,21

