[Header]
Application Name,LabSolutions
Version,5.97 SP1
Data File Name,C:\Users\cremerlab\Desktop\Richa\Sep_6th_2022_re-run_Sep2nd\Sep 6th_962022_015_016.lcd
Output Date,9/7/2022
Output Time,5:47:00 AM

[File Information]
Type,Data File
Generated,9/7/2022 4:56:42 AM
Generated by,System Administrator
Modified,9/7/2022 5:47:00 AM
Modified by,System Administrator

[Sample Information]
Operator Name,System Administrator
Acquired,9/7/2022 4:57:00 AM
Sample Type,0:Unknown
Level,0
Sample Name,090622_C.aerofaciens_3
Sample ID,015
ISTD Amount1,1
ISTD Amount2,1
ISTD Amount3,1
ISTD Amount4,1
ISTD Amount5,1
ISTD Amount6,1
ISTD Amount7,1
ISTD Amount8,1
ISTD Amount9,1
ISTD Amount10,1
ISTD Amount11,1
ISTD Amount12,1
ISTD Amount13,1
ISTD Amount14,1
ISTD Amount15,1
ISTD Amount16,1
ISTD Amount17,1
ISTD Amount18,1
ISTD Amount19,1
ISTD Amount20,1
ISTD Amount21,1
ISTD Amount22,1
ISTD Amount23,1
ISTD Amount24,1
ISTD Amount25,1
ISTD Amount26,1
ISTD Amount27,1
ISTD Amount28,1
ISTD Amount29,1
ISTD Amount30,1
ISTD Amount31,1
ISTD Amount32,1
Sample Amount,1
Dilution Factor,1
Vial#,15
Injection Volume,20

[Original Files]
Data File,C:\Users\cremerlab\Desktop\Richa\Sep_6th_2022_re-run_Sep2nd\Sep 6th_962022_015_016.lcd
Method File,C:\Users\cremerlab\Desktop\Richa\acetate_excretion.lcm
Batch File,C:\Users\cremerlab\Desktop\Richa\Sep_6th_2022_re-run_Sep2nd\Sep 6th.lcb
Report Format File,c:\LabSolutions\System\DEFAULT.lsr

[File Description]


[Configuration]
Instrument Name,HPLC-PC-Instrument1
Instrument #,1
Line #,1
# of Detectors,2
Detector ID,Detector A,Detector B
Detector Name,Detector A,Detector B
# of Channels,1,1

[Peak Table(Detector A)]
# of Peaks,0

[Peak Table(Detector B)]
# of Peaks,11
Peak#,R.Time,I.Time,F.Time,Area,Height,A/H,Conc.,Mark,ID#,Name,k',Plate #,Plate Ht.,Tailing,Resolution,Sep.Factor,Area Ratio,Height Ratio,Conc. %,Norm Conc.
1,11.023,10.258,12.317,2265510,115592,19.599,0.000,   ,,,0.000,7511,19.972,0.969,0.000,0.000,0,0,0.000,0.000
2,14.332,12.642,15.183,3573366,76539,46.687,0.000,   ,,,0.300,2482,60.439,0.655,3.988,0.000,0,0,0.000,0.000
3,15.763,15.183,17.375,1339298,45815,29.233,0.000, V ,,,0.430,6921,21.673,1.144,1.500,1.433,0,0,0.000,0.000
4,17.859,17.375,18.392,8980,275,32.655,0.000, V ,,,0.620,6640,22.590,0.000,2.565,1.442,0,0,0.000,0.000
5,19.057,18.408,19.750,13693,312,43.839,0.000,   ,,,0.729,4162,36.040,1.017,1.163,1.175,0,0,0.000,0.000
6,20.296,19.750,20.883,22172,611,36.309,0.000,   ,,,0.841,7087,21.167,0.000,1.155,1.154,0,0,0.000,0.000
7,21.557,20.883,22.558,115004,2704,42.524,0.000, V ,,,0.956,6385,23.494,0.000,1.234,1.136,0,0,0.000,0.000
8,23.148,22.575,24.208,12165,313,38.806,0.000,   ,,,1.100,8902,16.850,1.398,1.544,1.151,0,0,0.000,0.000
9,25.086,24.317,26.408,150419,3668,41.011,0.000,   ,,,1.276,9020,16.629,1.142,1.902,1.160,0,0,0.000,0.000
10,29.207,28.325,30.267,129169,2773,46.589,0.000,   ,,,1.650,9242,16.231,1.061,3.629,1.293,0,0,0.000,0.000
11,32.506,31.667,34.367,42191,559,75.420,0.000,   ,,,1.949,1529,98.107,1.551,1.453,1.181,0,0,0.000,0.000

[LC Chromatogram(Detector B-Ch1)]
Interval(msec),500
# of Points,6001
Start Time(min),0.000
End Time(min),50.000
Intensity Units,mV
Intensity Multiplier,0.001
R.Time (min),Intensity
0.00000,-16
0.00833,-16
0.01667,-0
0.02500,-1
0.03333,-1
0.04167,-1
0.05000,-2
0.05833,-2
0.06667,-3
0.07500,-4
0.08333,-5
0.09167,-6
0.10000,-7
0.10833,-7
0.11667,-8
0.12500,-8
0.13333,-9
0.14167,-10
0.15000,-11
0.15833,-11
0.16667,-11
0.17500,-12
0.18333,-12
0.19167,-12
0.20000,-13
0.20833,-13
0.21667,-14
0.22500,-14
0.23333,-14
0.24167,-15
0.25000,-15
0.25833,-16
0.26667,-17
0.27500,-17
0.28333,-17
0.29167,-17
0.30000,-18
0.30833,-18
0.31667,-19
0.32500,-19
0.33333,-19
0.34167,-19
0.35000,-19
0.35833,-20
0.36667,-20
0.37500,-21
0.38333,-21
0.39167,-22
0.40000,-22
0.40833,-22
0.41667,-22
0.42500,-23
0.43333,-23
0.44167,-23
0.45000,-23
0.45833,-23
0.46667,-23
0.47500,-24
0.48333,-24
0.49167,-24
0.50000,-24
0.50833,-24
0.51667,-24
0.52500,-24
0.53333,-24
0.54167,-25
0.55000,-25
0.55833,-25
0.56667,-25
0.57500,-25
0.58333,-25
0.59167,-25
0.60000,-25
0.60833,-25
0.61667,-25
0.62500,-25
0.63333,-26
0.64167,-26
0.65000,-26
0.65833,-26
0.66667,-26
0.67500,-27
0.68333,-27
0.69167,-27
0.70000,-27
0.70833,-27
0.71667,-27
0.72500,-27
0.73333,-27
0.74167,-27
0.75000,-27
0.75833,-27
0.76667,-27
0.77500,-27
0.78333,-27
0.79167,-27
0.80000,-27
0.80833,-27
0.81667,-27
0.82500,-27
0.83333,-27
0.84167,-27
0.85000,-27
0.85833,-28
0.86667,-28
0.87500,-28
0.88333,-28
0.89167,-27
0.90000,-27
0.90833,-27
0.91667,-27
0.92500,-27
0.93333,-27
0.94167,-27
0.95000,-27
0.95833,-26
0.96667,-26
0.97500,-26
0.98333,-26
0.99167,-26
1.00000,-26
1.00833,-25
1.01667,-25
1.02500,-24
1.03333,-24
1.04167,-24
1.05000,-24
1.05833,-24
1.06667,-24
1.07500,-24
1.08333,-24
1.09167,-23
1.10000,-23
1.10833,-23
1.11667,-23
1.12500,-23
1.13333,-22
1.14167,-22
1.15000,-22
1.15833,-22
1.16667,-22
1.17500,-22
1.18333,-22
1.19167,-21
1.20000,-21
1.20833,-21
1.21667,-21
1.22500,-20
1.23333,-20
1.24167,-20
1.25000,-20
1.25833,-20
1.26667,-20
1.27500,-20
1.28333,-20
1.29167,-20
1.30000,-20
1.30833,-20
1.31667,-19
1.32500,-19
1.33333,-19
1.34167,-19
1.35000,-19
1.35833,-18
1.36667,-18
1.37500,-18
1.38333,-18
1.39167,-18
1.40000,-18
1.40833,-18
1.41667,-18
1.42500,-17
1.43333,-17
1.44167,-17
1.45000,-17
1.45833,-17
1.46667,-17
1.47500,-17
1.48333,-17
1.49167,-17
1.50000,-16
1.50833,-16
1.51667,-15
1.52500,-15
1.53333,-15
1.54167,-15
1.55000,-15
1.55833,-15
1.56667,-14
1.57500,-14
1.58333,-13
1.59167,-13
1.60000,-13
1.60833,-13
1.61667,-13
1.62500,-13
1.63333,-13
1.64167,-12
1.65000,-12
1.65833,-13
1.66667,-13
1.67500,-12
1.68333,-12
1.69167,-11
1.70000,-11
1.70833,-12
1.71667,-12
1.72500,-12
1.73333,-12
1.74167,-12
1.75000,-12
1.75833,-11
1.76667,-11
1.77500,-11
1.78333,-11
1.79167,-11
1.80000,-11
1.80833,-11
1.81667,-11
1.82500,-12
1.83333,-12
1.84167,-11
1.85000,-11
1.85833,-11
1.86667,-10
1.87500,-10
1.88333,-10
1.89167,-10
1.90000,-10
1.90833,-10
1.91667,-10
1.92500,-10
1.93333,-10
1.94167,-10
1.95000,-10
1.95833,-10
1.96667,-10
1.97500,-10
1.98333,-10
1.99167,-9
2.00000,-9
2.00833,-9
2.01667,-9
2.02500,-9
2.03333,-9
2.04167,-9
2.05000,-9
2.05833,-9
2.06667,-9
2.07500,-9
2.08333,-9
2.09167,-9
2.10000,-9
2.10833,-9
2.11667,-9
2.12500,-9
2.13333,-9
2.14167,-9
2.15000,-9
2.15833,-9
2.16667,-9
2.17500,-9
2.18333,-9
2.19167,-9
2.20000,-8
2.20833,-8
2.21667,-8
2.22500,-8
2.23333,-8
2.24167,-8
2.25000,-9
2.25833,-9
2.26667,-9
2.27500,-9
2.28333,-9
2.29167,-9
2.30000,-9
2.30833,-9
2.31667,-10
2.32500,-10
2.33333,-10
2.34167,-10
2.35000,-10
2.35833,-10
2.36667,-10
2.37500,-10
2.38333,-10
2.39167,-10
2.40000,-10
2.40833,-10
2.41667,-10
2.42500,-9
2.43333,-10
2.44167,-10
2.45000,-10
2.45833,-10
2.46667,-10
2.47500,-10
2.48333,-10
2.49167,-10
2.50000,-10
2.50833,-10
2.51667,-10
2.52500,-10
2.53333,-10
2.54167,-11
2.55000,-11
2.55833,-11
2.56667,-11
2.57500,-12
2.58333,-12
2.59167,-12
2.60000,-12
2.60833,-12
2.61667,-12
2.62500,-13
2.63333,-13
2.64167,-13
2.65000,-13
2.65833,-13
2.66667,-13
2.67500,-13
2.68333,-13
2.69167,-13
2.70000,-13
2.70833,-13
2.71667,-13
2.72500,-13
2.73333,-13
2.74167,-13
2.75000,-13
2.75833,-13
2.76667,-13
2.77500,-13
2.78333,-14
2.79167,-14
2.80000,-14
2.80833,-14
2.81667,-15
2.82500,-15
2.83333,-15
2.84167,-15
2.85000,-15
2.85833,-15
2.86667,-15
2.87500,-15
2.88333,-15
2.89167,-16
2.90000,-16
2.90833,-16
2.91667,-16
2.92500,-16
2.93333,-16
2.94167,-16
2.95000,-17
2.95833,-17
2.96667,-17
2.97500,-17
2.98333,-17
2.99167,-17
3.00000,-16
3.00833,-16
3.01667,-16
3.02500,-16
3.03333,-17
3.04167,-17
3.05000,-17
3.05833,-17
3.06667,-17
3.07500,-17
3.08333,-17
3.09167,-17
3.10000,-17
3.10833,-17
3.11667,-17
3.12500,-17
3.13333,-17
3.14167,-18
3.15000,-18
3.15833,-17
3.16667,-17
3.17500,-17
3.18333,-17
3.19167,-17
3.20000,-17
3.20833,-17
3.21667,-17
3.22500,-17
3.23333,-18
3.24167,-18
3.25000,-18
3.25833,-18
3.26667,-18
3.27500,-18
3.28333,-17
3.29167,-17
3.30000,-17
3.30833,-16
3.31667,-16
3.32500,-16
3.33333,-16
3.34167,-17
3.35000,-17
3.35833,-18
3.36667,-18
3.37500,-18
3.38333,-18
3.39167,-18
3.40000,-18
3.40833,-18
3.41667,-17
3.42500,-17
3.43333,-17
3.44167,-17
3.45000,-17
3.45833,-17
3.46667,-17
3.47500,-17
3.48333,-17
3.49167,-17
3.50000,-16
3.50833,-16
3.51667,-16
3.52500,-16
3.53333,-15
3.54167,-15
3.55000,-16
3.55833,-16
3.56667,-16
3.57500,-15
3.58333,-15
3.59167,-15
3.60000,-15
3.60833,-15
3.61667,-15
3.62500,-14
3.63333,-14
3.64167,-15
3.65000,-14
3.65833,-14
3.66667,-14
3.67500,-14
3.68333,-14
3.69167,-14
3.70000,-14
3.70833,-14
3.71667,-14
3.72500,-14
3.73333,-14
3.74167,-13
3.75000,-13
3.75833,-13
3.76667,-13
3.77500,-13
3.78333,-13
3.79167,-13
3.80000,-13
3.80833,-13
3.81667,-13
3.82500,-12
3.83333,-12
3.84167,-12
3.85000,-11
3.85833,-11
3.86667,-11
3.87500,-11
3.88333,-11
3.89167,-10
3.90000,-9
3.90833,-9
3.91667,-9
3.92500,-9
3.93333,-9
3.94167,-8
3.95000,-8
3.95833,-8
3.96667,-8
3.97500,-8
3.98333,-7
3.99167,-7
4.00000,-6
4.00833,-6
4.01667,-5
4.02500,-5
4.03333,-5
4.04167,-4
4.05000,-3
4.05833,-3
4.06667,-2
4.07500,-2
4.08333,-2
4.09167,-2
4.10000,-1
4.10833,-1
4.11667,-1
4.12500,-0
4.13333,-0
4.14167,0
4.15000,1
4.15833,1
4.16667,2
4.17500,3
4.18333,3
4.19167,4
4.20000,4
4.20833,5
4.21667,5
4.22500,6
4.23333,6
4.24167,7
4.25000,8
4.25833,9
4.26667,9
4.27500,10
4.28333,11
4.29167,12
4.30000,12
4.30833,13
4.31667,13
4.32500,14
4.33333,15
4.34167,15
4.35000,16
4.35833,17
4.36667,17
4.37500,18
4.38333,18
4.39167,19
4.40000,19
4.40833,19
4.41667,20
4.42500,21
4.43333,21
4.44167,21
4.45000,22
4.45833,23
4.46667,24
4.47500,24
4.48333,25
4.49167,26
4.50000,27
4.50833,27
4.51667,28
4.52500,28
4.53333,29
4.54167,29
4.55000,30
4.55833,31
4.56667,32
4.57500,33
4.58333,33
4.59167,34
4.60000,34
4.60833,34
4.61667,34
4.62500,35
4.63333,36
4.64167,36
4.65000,37
4.65833,38
4.66667,38
4.67500,39
4.68333,40
4.69167,40
4.70000,40
4.70833,40
4.71667,40
4.72500,41
4.73333,41
4.74167,42
4.75000,43
4.75833,43
4.76667,43
4.77500,44
4.78333,44
4.79167,44
4.80000,45
4.80833,45
4.81667,45
4.82500,46
4.83333,46
4.84167,47
4.85000,47
4.85833,47
4.86667,46
4.87500,46
4.88333,46
4.89167,47
4.90000,47
4.90833,47
4.91667,48
4.92500,48
4.93333,48
4.94167,48
4.95000,48
4.95833,49
4.96667,49
4.97500,49
4.98333,49
4.99167,49
5.00000,49
5.00833,49
5.01667,48
5.02500,48
5.03333,48
5.04167,48
5.05000,48
5.05833,48
5.06667,48
5.07500,48
5.08333,48
5.09167,48
5.10000,48
5.10833,48
5.11667,48
5.12500,47
5.13333,47
5.14167,47
5.15000,47
5.15833,47
5.16667,46
5.17500,46
5.18333,46
5.19167,46
5.20000,45
5.20833,45
5.21667,45
5.22500,45
5.23333,45
5.24167,44
5.25000,44
5.25833,44
5.26667,43
5.27500,43
5.28333,43
5.29167,42
5.30000,41
5.30833,41
5.31667,41
5.32500,40
5.33333,40
5.34167,39
5.35000,39
5.35833,39
5.36667,38
5.37500,38
5.38333,37
5.39167,37
5.40000,37
5.40833,36
5.41667,36
5.42500,35
5.43333,35
5.44167,35
5.45000,34
5.45833,34
5.46667,33
5.47500,33
5.48333,32
5.49167,31
5.50000,31
5.50833,30
5.51667,30
5.52500,29
5.53333,28
5.54167,28
5.55000,27
5.55833,26
5.56667,26
5.57500,25
5.58333,25
5.59167,24
5.60000,23
5.60833,22
5.61667,21
5.62500,21
5.63333,20
5.64167,20
5.65000,20
5.65833,19
5.66667,18
5.67500,17
5.68333,17
5.69167,16
5.70000,15
5.70833,14
5.71667,14
5.72500,13
5.73333,12
5.74167,12
5.75000,11
5.75833,10
5.76667,9
5.77500,9
5.78333,8
5.79167,7
5.80000,7
5.80833,5
5.81667,4
5.82500,3
5.83333,2
5.84167,1
5.85000,1
5.85833,0
5.86667,-1
5.87500,-2
5.88333,-3
5.89167,-4
5.90000,-5
5.90833,-5
5.91667,-6
5.92500,-7
5.93333,-8
5.94167,-8
5.95000,-9
5.95833,-10
5.96667,-10
5.97500,-11
5.98333,-12
5.99167,-12
6.00000,-13
6.00833,-14
6.01667,-15
6.02500,-16
6.03333,-17
6.04167,-18
6.05000,-19
6.05833,-20
6.06667,-20
6.07500,-21
6.08333,-21
6.09167,-21
6.10000,-22
6.10833,-23
6.11667,-24
6.12500,-24
6.13333,-25
6.14167,-25
6.15000,-26
6.15833,-27
6.16667,-27
6.17500,-28
6.18333,-29
6.19167,-29
6.20000,-30
6.20833,-31
6.21667,-31
6.22500,-31
6.23333,-32
6.24167,-33
6.25000,-33
6.25833,-34
6.26667,-35
6.27500,-35
6.28333,-36
6.29167,-37
6.30000,-37
6.30833,-37
6.31667,-38
6.32500,-38
6.33333,-39
6.34167,-40
6.35000,-40
6.35833,-41
6.36667,-41
6.37500,-41
6.38333,-41
6.39167,-42
6.40000,-42
6.40833,-43
6.41667,-43
6.42500,-44
6.43333,-45
6.44167,-45
6.45000,-46
6.45833,-46
6.46667,-46
6.47500,-47
6.48333,-48
6.49167,-48
6.50000,-48
6.50833,-48
6.51667,-48
6.52500,-48
6.53333,-49
6.54167,-49
6.55000,-49
6.55833,-49
6.56667,-49
6.57500,-49
6.58333,-50
6.59167,-50
6.60000,-51
6.60833,-51
6.61667,-50
6.62500,-50
6.63333,-50
6.64167,-50
6.65000,-50
6.65833,-50
6.66667,-51
6.67500,-51
6.68333,-51
6.69167,-51
6.70000,-51
6.70833,-51
6.71667,-52
6.72500,-52
6.73333,-53
6.74167,-53
6.75000,-53
6.75833,-54
6.76667,-54
6.77500,-54
6.78333,-54
6.79167,-54
6.80000,-54
6.80833,-54
6.81667,-55
6.82500,-55
6.83333,-55
6.84167,-55
6.85000,-55
6.85833,-55
6.86667,-55
6.87500,-55
6.88333,-55
6.89167,-55
6.90000,-55
6.90833,-56
6.91667,-56
6.92500,-56
6.93333,-56
6.94167,-56
6.95000,-56
6.95833,-56
6.96667,-56
6.97500,-56
6.98333,-56
6.99167,-56
7.00000,-57
7.00833,-57
7.01667,-57
7.02500,-57
7.03333,-57
7.04167,-58
7.05000,-58
7.05833,-58
7.06667,-57
7.07500,-57
7.08333,-57
7.09167,-57
7.10000,-57
7.10833,-57
7.11667,-57
7.12500,-58
7.13333,-58
7.14167,-58
7.15000,-58
7.15833,-58
7.16667,-58
7.17500,-58
7.18333,-58
7.19167,-58
7.20000,-58
7.20833,-58
7.21667,-58
7.22500,-58
7.23333,-58
7.24167,-58
7.25000,-58
7.25833,-58
7.26667,-58
7.27500,-58
7.28333,-58
7.29167,-58
7.30000,-58
7.30833,-58
7.31667,-59
7.32500,-59
7.33333,-58
7.34167,-58
7.35000,-58
7.35833,-58
7.36667,-58
7.37500,-58
7.38333,-58
7.39167,-58
7.40000,-58
7.40833,-57
7.41667,-57
7.42500,-57
7.43333,-57
7.44167,-58
7.45000,-58
7.45833,-58
7.46667,-58
7.47500,-58
7.48333,-58
7.49167,-58
7.50000,-58
7.50833,-58
7.51667,-58
7.52500,-58
7.53333,-59
7.54167,-59
7.55000,-59
7.55833,-58
7.56667,-58
7.57500,-58
7.58333,-58
7.59167,-58
7.60000,-58
7.60833,-58
7.61667,-58
7.62500,-58
7.63333,-58
7.64167,-59
7.65000,-59
7.65833,-60
7.66667,-60
7.67500,-59
7.68333,-59
7.69167,-59
7.70000,-59
7.70833,-59
7.71667,-60
7.72500,-60
7.73333,-60
7.74167,-60
7.75000,-60
7.75833,-60
7.76667,-60
7.77500,-60
7.78333,-60
7.79167,-60
7.80000,-60
7.80833,-59
7.81667,-59
7.82500,-59
7.83333,-59
7.84167,-59
7.85000,-59
7.85833,-60
7.86667,-60
7.87500,-60
7.88333,-60
7.89167,-60
7.90000,-60
7.90833,-59
7.91667,-60
7.92500,-60
7.93333,-60
7.94167,-60
7.95000,-61
7.95833,-61
7.96667,-61
7.97500,-61
7.98333,-61
7.99167,-61
8.00000,-62
8.00833,-62
8.01667,-62
8.02500,-62
8.03333,-62
8.04167,-62
8.05000,-62
8.05833,-62
8.06667,-62
8.07500,-61
8.08333,-61
8.09167,-61
8.10000,-61
8.10833,-61
8.11667,-61
8.12500,-61
8.13333,-61
8.14167,-61
8.15000,-61
8.15833,-60
8.16667,-60
8.17500,-60
8.18333,-60
8.19167,-59
8.20000,-59
8.20833,-59
8.21667,-60
8.22500,-60
8.23333,-61
8.24167,-61
8.25000,-61
8.25833,-61
8.26667,-62
8.27500,-61
8.28333,-62
8.29167,-62
8.30000,-62
8.30833,-62
8.31667,-62
8.32500,-62
8.33333,-62
8.34167,-62
8.35000,-62
8.35833,-62
8.36667,-62
8.37500,-62
8.38333,-62
8.39167,-62
8.40000,-62
8.40833,-62
8.41667,-62
8.42500,-62
8.43333,-62
8.44167,-62
8.45000,-62
8.45833,-62
8.46667,-62
8.47500,-62
8.48333,-61
8.49167,-61
8.50000,-61
8.50833,-61
8.51667,-62
8.52500,-62
8.53333,-62
8.54167,-63
8.55000,-63
8.55833,-62
8.56667,-62
8.57500,-63
8.58333,-63
8.59167,-62
8.60000,-62
8.60833,-62
8.61667,-62
8.62500,-62
8.63333,-62
8.64167,-62
8.65000,-63
8.65833,-63
8.66667,-63
8.67500,-63
8.68333,-62
8.69167,-62
8.70000,-62
8.70833,-62
8.71667,-62
8.72500,-62
8.73333,-62
8.74167,-63
8.75000,-63
8.75833,-63
8.76667,-63
8.77500,-63
8.78333,-63
8.79167,-64
8.80000,-63
8.80833,-63
8.81667,-62
8.82500,-62
8.83333,-62
8.84167,-62
8.85000,-62
8.85833,-63
8.86667,-63
8.87500,-63
8.88333,-63
8.89167,-62
8.90000,-62
8.90833,-63
8.91667,-63
8.92500,-63
8.93333,-63
8.94167,-63
8.95000,-63
8.95833,-63
8.96667,-63
8.97500,-63
8.98333,-62
8.99167,-62
9.00000,-62
9.00833,-62
9.01667,-62
9.02500,-62
9.03333,-62
9.04167,-62
9.05000,-62
9.05833,-62
9.06667,-62
9.07500,-62
9.08333,-62
9.09167,-62
9.10000,-62
9.10833,-62
9.11667,-62
9.12500,-62
9.13333,-62
9.14167,-62
9.15000,-62
9.15833,-62
9.16667,-62
9.17500,-63
9.18333,-63
9.19167,-63
9.20000,-63
9.20833,-63
9.21667,-63
9.22500,-63
9.23333,-63
9.24167,-62
9.25000,-62
9.25833,-62
9.26667,-62
9.27500,-62
9.28333,-62
9.29167,-62
9.30000,-62
9.30833,-62
9.31667,-61
9.32500,-61
9.33333,-61
9.34167,-61
9.35000,-61
9.35833,-61
9.36667,-61
9.37500,-61
9.38333,-61
9.39167,-61
9.40000,-60
9.40833,-60
9.41667,-60
9.42500,-60
9.43333,-60
9.44167,-60
9.45000,-60
9.45833,-60
9.46667,-60
9.47500,-60
9.48333,-60
9.49167,-60
9.50000,-60
9.50833,-61
9.51667,-61
9.52500,-61
9.53333,-61
9.54167,-61
9.55000,-61
9.55833,-61
9.56667,-61
9.57500,-61
9.58333,-61
9.59167,-61
9.60000,-61
9.60833,-61
9.61667,-61
9.62500,-61
9.63333,-61
9.64167,-61
9.65000,-61
9.65833,-61
9.66667,-61
9.67500,-61
9.68333,-61
9.69167,-61
9.70000,-61
9.70833,-61
9.71667,-60
9.72500,-60
9.73333,-60
9.74167,-60
9.75000,-61
9.75833,-61
9.76667,-60
9.77500,-61
9.78333,-61
9.79167,-61
9.80000,-61
9.80833,-61
9.81667,-61
9.82500,-61
9.83333,-61
9.84167,-61
9.85000,-60
9.85833,-60
9.86667,-60
9.87500,-60
9.88333,-60
9.89167,-61
9.90000,-61
9.90833,-61
9.91667,-60
9.92500,-60
9.93333,-60
9.94167,-59
9.95000,-59
9.95833,-59
9.96667,-59
9.97500,-59
9.98333,-59
9.99167,-59
10.00000,-59
10.00833,-59
10.01667,-59
10.02500,-59
10.03333,-59
10.04167,-58
10.05000,-58
10.05833,-58
10.06667,-57
10.07500,-57
10.08333,-57
10.09167,-56
10.10000,-56
10.10833,-56
10.11667,-55
10.12500,-55
10.13333,-54
10.14167,-54
10.15000,-53
10.15833,-51
10.16667,-50
10.17500,-49
10.18333,-48
10.19167,-47
10.20000,-46
10.20833,-45
10.21667,-43
10.22500,-42
10.23333,-40
10.24167,-39
10.25000,-37
10.25833,-35
10.26667,-32
10.27500,-29
10.28333,-26
10.29167,-23
10.30000,-19
10.30833,-15
10.31667,-10
10.32500,-3
10.33333,4
10.34167,13
10.35000,23
10.35833,35
10.36667,49
10.37500,63
10.38333,80
10.39167,97
10.40000,115
10.40833,134
10.41667,153
10.42500,172
10.43333,189
10.44167,205
10.45000,218
10.45833,229
10.46667,237
10.47500,241
10.48333,243
10.49167,243
10.50000,242
10.50833,241
10.51667,242
10.52500,250
10.53333,266
10.54167,295
10.55000,341
10.55833,408
10.56667,503
10.57500,629
10.58333,793
10.59167,1002
10.60000,1261
10.60833,1576
10.61667,1955
10.62500,2401
10.63333,2922
10.64167,3523
10.65000,4210
10.65833,4987
10.66667,5859
10.67500,6832
10.68333,7908
10.69167,9093
10.70000,10388
10.70833,11797
10.71667,13322
10.72500,14966
10.73333,16731
10.74167,18617
10.75000,20625
10.75833,22757
10.76667,25012
10.77500,27389
10.78333,29888
10.79167,32508
10.80000,35246
10.80833,38100
10.81667,41068
10.82500,44146
10.83333,47329
10.84167,50614
10.85000,53994
10.85833,57464
10.86667,61015
10.87500,64638
10.88333,68323
10.89167,72057
10.90000,75825
10.90833,79609
10.91667,83389
10.92500,87142
10.93333,90840
10.94167,94450
10.95000,97935
10.95833,101255
10.96667,104364
10.97500,107213
10.98333,109747
10.99167,111912
11.00000,113652
11.00833,114911
11.01667,115638
11.02500,115788
11.03333,115324
11.04167,114220
11.05000,112466
11.05833,110068
11.06667,107049
11.07500,103450
11.08333,99329
11.09167,94757
11.10000,89818
11.10833,84604
11.11667,79209
11.12500,73726
11.13333,68245
11.14167,62846
11.15000,57601
11.15833,52569
11.16667,47795
11.17500,43314
11.18333,39149
11.19167,35309
11.20000,31799
11.20833,28611
11.21667,25734
11.22500,23152
11.23333,20846
11.24167,18796
11.25000,16978
11.25833,15371
11.26667,13952
11.27500,12702
11.28333,11602
11.29167,10634
11.30000,9782
11.30833,9030
11.31667,8367
11.32500,7780
11.33333,7260
11.34167,6798
11.35000,6385
11.35833,6016
11.36667,5684
11.37500,5385
11.38333,5115
11.39167,4868
11.40000,4643
11.40833,4436
11.41667,4245
11.42500,4069
11.43333,3904
11.44167,3751
11.45000,3608
11.45833,3473
11.46667,3346
11.47500,3225
11.48333,3111
11.49167,3002
11.50000,2899
11.50833,2801
11.51667,2708
11.52500,2618
11.53333,2533
11.54167,2450
11.55000,2372
11.55833,2296
11.56667,2224
11.57500,2154
11.58333,2088
11.59167,2024
11.60000,1962
11.60833,1903
11.61667,1846
11.62500,1791
11.63333,1739
11.64167,1688
11.65000,1640
11.65833,1594
11.66667,1550
11.67500,1507
11.68333,1466
11.69167,1427
11.70000,1389
11.70833,1353
11.71667,1318
11.72500,1284
11.73333,1252
11.74167,1222
11.75000,1193
11.75833,1165
11.76667,1138
11.77500,1112
11.78333,1087
11.79167,1063
11.80000,1040
11.80833,1019
11.81667,998
11.82500,978
11.83333,959
11.84167,941
11.85000,923
11.85833,906
11.86667,890
11.87500,875
11.88333,860
11.89167,846
11.90000,832
11.90833,820
11.91667,808
11.92500,796
11.93333,785
11.94167,774
11.95000,764
11.95833,754
11.96667,745
11.97500,736
11.98333,727
11.99167,719
12.00000,711
12.00833,703
12.01667,695
12.02500,688
12.03333,681
12.04167,674
12.05000,668
12.05833,663
12.06667,657
12.07500,652
12.08333,647
12.09167,642
12.10000,637
12.10833,632
12.11667,628
12.12500,624
12.13333,620
12.14167,617
12.15000,614
12.15833,610
12.16667,608
12.17500,605
12.18333,602
12.19167,600
12.20000,598
12.20833,596
12.21667,594
12.22500,592
12.23333,591
12.24167,590
12.25000,589
12.25833,588
12.26667,588
12.27500,587
12.28333,587
12.29167,586
12.30000,586
12.30833,585
12.31667,585
12.32500,585
12.33333,585
12.34167,585
12.35000,585
12.35833,585
12.36667,585
12.37500,585
12.38333,586
12.39167,586
12.40000,586
12.40833,586
12.41667,586
12.42500,585
12.43333,585
12.44167,585
12.45000,585
12.45833,584
12.46667,584
12.47500,583
12.48333,582
12.49167,581
12.50000,580
12.50833,579
12.51667,577
12.52500,576
12.53333,574
12.54167,573
12.55000,571
12.55833,570
12.56667,568
12.57500,566
12.58333,565
12.59167,564
12.60000,562
12.60833,561
12.61667,559
12.62500,558
12.63333,558
12.64167,557
12.65000,557
12.65833,558
12.66667,558
12.67500,560
12.68333,563
12.69167,566
12.70000,570
12.70833,576
12.71667,584
12.72500,593
12.73333,604
12.74167,617
12.75000,633
12.75833,651
12.76667,673
12.77500,697
12.78333,725
12.79167,757
12.80000,792
12.80833,832
12.81667,875
12.82500,923
12.83333,975
12.84167,1032
12.85000,1093
12.85833,1160
12.86667,1233
12.87500,1310
12.88333,1393
12.89167,1481
12.90000,1574
12.90833,1672
12.91667,1776
12.92500,1886
12.93333,2002
12.94167,2124
12.95000,2251
12.95833,2384
12.96667,2523
12.97500,2667
12.98333,2817
12.99167,2972
13.00000,3133
13.00833,3299
13.01667,3471
13.02500,3649
13.03333,3832
13.04167,4020
13.05000,4214
13.05833,4412
13.06667,4616
13.07500,4826
13.08333,5040
13.09167,5259
13.10000,5482
13.10833,5711
13.11667,5944
13.12500,6181
13.13333,6424
13.14167,6670
13.15000,6922
13.15833,7177
13.16667,7436
13.17500,7700
13.18333,7968
13.19167,8239
13.20000,8515
13.20833,8794
13.21667,9077
13.22500,9364
13.23333,9654
13.24167,9947
13.25000,10244
13.25833,10544
13.26667,10848
13.27500,11156
13.28333,11466
13.29167,11781
13.30000,12098
13.30833,12418
13.31667,12741
13.32500,13067
13.33333,13397
13.34167,13729
13.35000,14065
13.35833,14403
13.36667,14745
13.37500,15090
13.38333,15437
13.39167,15788
13.40000,16142
13.40833,16498
13.41667,16858
13.42500,17220
13.43333,17585
13.44167,17953
13.45000,18325
13.45833,18699
13.46667,19077
13.47500,19457
13.48333,19840
13.49167,20227
13.50000,20617
13.50833,21010
13.51667,21405
13.52500,21804
13.53333,22206
13.54167,22611
13.55000,23019
13.55833,23430
13.56667,23845
13.57500,24262
13.58333,24683
13.59167,25108
13.60000,25535
13.60833,25966
13.61667,26401
13.62500,26838
13.63333,27279
13.64167,27724
13.65000,28173
13.65833,28624
13.66667,29079
13.67500,29538
13.68333,30000
13.69167,30466
13.70000,30936
13.70833,31409
13.71667,31886
13.72500,32367
13.73333,32852
13.74167,33341
13.75000,33834
13.75833,34331
13.76667,34832
13.77500,35337
13.78333,35846
13.79167,36359
13.80000,36877
13.80833,37398
13.81667,37924
13.82500,38455
13.83333,38990
13.84167,39529
13.85000,40073
13.85833,40621
13.86667,41174
13.87500,41731
13.88333,42293
13.89167,42861
13.90000,43433
13.90833,44010
13.91667,44592
13.92500,45178
13.93333,45769
13.94167,46366
13.95000,46968
13.95833,47575
13.96667,48187
13.97500,48804
13.98333,49427
13.99167,50055
14.00000,50689
14.00833,51328
14.01667,51973
14.02500,52624
14.03333,53280
14.04167,53942
14.05000,54610
14.05833,55284
14.06667,55964
14.07500,56650
14.08333,57343
14.09167,58041
14.10000,58746
14.10833,59458
14.11667,60176
14.12500,60900
14.13333,61631
14.14167,62369
14.15000,63114
14.15833,63865
14.16667,64623
14.17500,65388
14.18333,66161
14.19167,66940
14.20000,67726
14.20833,68516
14.21667,69311
14.22500,70106
14.23333,70898
14.24167,71683
14.25000,72453
14.25833,73201
14.26667,73917
14.27500,74591
14.28333,75209
14.29167,75760
14.30000,76230
14.30833,76608
14.31667,76883
14.32500,77044
14.33333,77082
14.34167,76990
14.35000,76762
14.35833,76394
14.36667,75883
14.37500,75225
14.38333,74420
14.39167,73465
14.40000,72358
14.40833,71097
14.41667,69681
14.42500,68106
14.43333,66373
14.44167,64482
14.45000,62436
14.45833,60240
14.46667,57901
14.47500,55433
14.48333,52849
14.49167,50170
14.50000,47417
14.50833,44616
14.51667,41793
14.52500,38975
14.53333,36189
14.54167,33463
14.55000,30818
14.55833,28277
14.56667,25856
14.57500,23570
14.58333,21428
14.59167,19437
14.60000,17599
14.60833,15914
14.61667,14379
14.62500,12988
14.63333,11733
14.64167,10608
14.65000,9602
14.65833,8706
14.66667,7910
14.67500,7204
14.68333,6580
14.69167,6029
14.70000,5542
14.70833,5112
14.71667,4732
14.72500,4397
14.73333,4101
14.74167,3838
14.75000,3605
14.75833,3398
14.76667,3213
14.77500,3047
14.78333,2899
14.79167,2765
14.80000,2644
14.80833,2535
14.81667,2435
14.82500,2345
14.83333,2262
14.84167,2185
14.85000,2115
14.85833,2049
14.86667,1989
14.87500,1932
14.88333,1879
14.89167,1830
14.90000,1784
14.90833,1740
14.91667,1699
14.92500,1660
14.93333,1623
14.94167,1589
14.95000,1556
14.95833,1525
14.96667,1495
14.97500,1467
14.98333,1440
14.99167,1414
15.00000,1390
15.00833,1367
15.01667,1345
15.02500,1325
15.03333,1305
15.04167,1287
15.05000,1269
15.05833,1252
15.06667,1236
15.07500,1221
15.08333,1207
15.09167,1193
15.10000,1180
15.10833,1169
15.11667,1158
15.12500,1148
15.13333,1139
15.14167,1131
15.15000,1124
15.15833,1118
15.16667,1113
15.17500,1109
15.18333,1107
15.19167,1107
15.20000,1110
15.20833,1115
15.21667,1124
15.22500,1137
15.23333,1156
15.24167,1180
15.25000,1212
15.25833,1252
15.26667,1302
15.27500,1363
15.28333,1438
15.29167,1528
15.30000,1635
15.30833,1762
15.31667,1911
15.32500,2085
15.33333,2288
15.34167,2521
15.35000,2789
15.35833,3093
15.36667,3437
15.37500,3824
15.38333,4258
15.39167,4740
15.40000,5274
15.40833,5861
15.41667,6504
15.42500,7204
15.43333,7963
15.44167,8782
15.45000,9659
15.45833,10595
15.46667,11589
15.47500,12639
15.48333,13742
15.49167,14895
15.50000,16096
15.50833,17339
15.51667,18620
15.52500,19933
15.53333,21274
15.54167,22636
15.55000,24011
15.55833,25394
15.56667,26779
15.57500,28157
15.58333,29522
15.59167,30868
15.60000,32188
15.60833,33476
15.61667,34726
15.62500,35933
15.63333,37090
15.64167,38194
15.65000,39240
15.65833,40224
15.66667,41142
15.67500,41992
15.68333,42771
15.69167,43477
15.70000,44107
15.70833,44662
15.71667,45139
15.72500,45538
15.73333,45858
15.74167,46099
15.75000,46260
15.75833,46342
15.76667,46346
15.77500,46271
15.78333,46120
15.79167,45893
15.80000,45592
15.80833,45216
15.81667,44769
15.82500,44252
15.83333,43669
15.84167,43021
15.85000,42310
15.85833,41541
15.86667,40716
15.87500,39839
15.88333,38915
15.89167,37947
15.90000,36939
15.90833,35895
15.91667,34821
15.92500,33720
15.93333,32598
15.94167,31459
15.95000,30308
15.95833,29149
15.96667,27988
15.97500,26828
15.98333,25674
15.99167,24531
16.00000,23400
16.00833,22286
16.01667,21194
16.02500,20125
16.03333,19082
16.04167,18068
16.05000,17085
16.05833,16135
16.06667,15219
16.07500,14338
16.08333,13494
16.09167,12687
16.10000,11917
16.10833,11185
16.11667,10490
16.12500,9832
16.13333,9211
16.14167,8625
16.15000,8074
16.15833,7557
16.16667,7072
16.17500,6620
16.18333,6197
16.19167,5804
16.20000,5439
16.20833,5099
16.21667,4784
16.22500,4493
16.23333,4224
16.24167,3975
16.25000,3746
16.25833,3535
16.26667,3340
16.27500,3162
16.28333,2997
16.29167,2846
16.30000,2708
16.30833,2581
16.31667,2464
16.32500,2357
16.33333,2260
16.34167,2169
16.35000,2086
16.35833,2010
16.36667,1940
16.37500,1875
16.38333,1816
16.39167,1760
16.40000,1710
16.40833,1662
16.41667,1618
16.42500,1576
16.43333,1538
16.44167,1501
16.45000,1467
16.45833,1435
16.46667,1404
16.47500,1375
16.48333,1347
16.49167,1321
16.50000,1295
16.50833,1270
16.51667,1247
16.52500,1223
16.53333,1201
16.54167,1179
16.55000,1157
16.55833,1136
16.56667,1115
16.57500,1096
16.58333,1076
16.59167,1057
16.60000,1039
16.60833,1020
16.61667,1001
16.62500,983
16.63333,966
16.64167,949
16.65000,932
16.65833,915
16.66667,899
16.67500,883
16.68333,868
16.69167,853
16.70000,839
16.70833,824
16.71667,811
16.72500,798
16.73333,785
16.74167,773
16.75000,761
16.75833,750
16.76667,739
16.77500,729
16.78333,719
16.79167,710
16.80000,702
16.80833,694
16.81667,686
16.82500,679
16.83333,672
16.84167,665
16.85000,660
16.85833,654
16.86667,650
16.87500,645
16.88333,640
16.89167,636
16.90000,633
16.90833,629
16.91667,626
16.92500,623
16.93333,620
16.94167,617
16.95000,615
16.95833,613
16.96667,611
16.97500,609
16.98333,608
16.99167,607
17.00000,605
17.00833,604
17.01667,603
17.02500,602
17.03333,601
17.04167,600
17.05000,599
17.05833,598
17.06667,597
17.07500,596
17.08333,596
17.09167,595
17.10000,594
17.10833,594
17.11667,593
17.12500,593
17.13333,592
17.14167,592
17.15000,591
17.15833,590
17.16667,590
17.17500,590
17.18333,589
17.19167,588
17.20000,587
17.20833,587
17.21667,586
17.22500,586
17.23333,585
17.24167,584
17.25000,583
17.25833,582
17.26667,582
17.27500,581
17.28333,580
17.29167,579
17.30000,579
17.30833,578
17.31667,578
17.32500,577
17.33333,576
17.34167,576
17.35000,575
17.35833,574
17.36667,574
17.37500,574
17.38333,574
17.39167,574
17.40000,575
17.40833,575
17.41667,576
17.42500,577
17.43333,579
17.44167,580
17.45000,582
17.45833,584
17.46667,586
17.47500,589
17.48333,592
17.49167,595
17.50000,598
17.50833,601
17.51667,605
17.52500,610
17.53333,615
17.54167,619
17.55000,624
17.55833,629
17.56667,635
17.57500,640
17.58333,646
17.59167,651
17.60000,657
17.60833,663
17.61667,669
17.62500,675
17.63333,681
17.64167,687
17.65000,693
17.65833,699
17.66667,705
17.67500,710
17.68333,716
17.69167,722
17.70000,727
17.70833,732
17.71667,737
17.72500,742
17.73333,747
17.74167,751
17.75000,755
17.75833,759
17.76667,763
17.77500,766
17.78333,770
17.79167,773
17.80000,776
17.80833,778
17.81667,781
17.82500,783
17.83333,785
17.84167,786
17.85000,787
17.85833,787
17.86667,787
17.87500,787
17.88333,787
17.89167,786
17.90000,785
17.90833,783
17.91667,781
17.92500,779
17.93333,776
17.94167,773
17.95000,770
17.95833,766
17.96667,762
17.97500,758
17.98333,753
17.99167,748
18.00000,743
18.00833,738
18.01667,732
18.02500,726
18.03333,720
18.04167,714
18.05000,707
18.05833,700
18.06667,693
18.07500,685
18.08333,678
18.09167,671
18.10000,664
18.10833,657
18.11667,649
18.12500,642
18.13333,636
18.14167,629
18.15000,623
18.15833,616
18.16667,609
18.17500,603
18.18333,597
18.19167,590
18.20000,584
18.20833,578
18.21667,572
18.22500,566
18.23333,561
18.24167,556
18.25000,551
18.25833,546
18.26667,542
18.27500,538
18.28333,534
18.29167,530
18.30000,527
18.30833,524
18.31667,521
18.32500,518
18.33333,516
18.34167,513
18.35000,512
18.35833,510
18.36667,509
18.37500,508
18.38333,508
18.39167,507
18.40000,508
18.40833,508
18.41667,508
18.42500,509
18.43333,510
18.44167,512
18.45000,514
18.45833,516
18.46667,518
18.47500,521
18.48333,525
18.49167,528
18.50000,531
18.50833,534
18.51667,537
18.52500,541
18.53333,545
18.54167,549
18.55000,552
18.55833,557
18.56667,562
18.57500,567
18.58333,571
18.59167,576
18.60000,581
18.60833,586
18.61667,591
18.62500,596
18.63333,601
18.64167,606
18.65000,611
18.65833,616
18.66667,621
18.67500,626
18.68333,631
18.69167,636
18.70000,640
18.70833,645
18.71667,650
18.72500,655
18.73333,660
18.74167,665
18.75000,670
18.75833,674
18.76667,679
18.77500,684
18.78333,688
18.79167,692
18.80000,696
18.80833,700
18.81667,704
18.82500,708
18.83333,712
18.84167,716
18.85000,720
18.85833,723
18.86667,727
18.87500,729
18.88333,732
18.89167,735
18.90000,738
18.90833,741
18.91667,744
18.92500,747
18.93333,749
18.94167,751
18.95000,753
18.95833,755
18.96667,757
18.97500,759
18.98333,761
18.99167,762
19.00000,763
19.00833,764
19.01667,765
19.02500,766
19.03333,767
19.04167,767
19.05000,768
19.05833,768
19.06667,768
19.07500,768
19.08333,767
19.09167,767
19.10000,766
19.10833,765
19.11667,764
19.12500,763
19.13333,761
19.14167,759
19.15000,757
19.15833,754
19.16667,752
19.17500,749
19.18333,746
19.19167,743
19.20000,740
19.20833,737
19.21667,733
19.22500,730
19.23333,726
19.24167,722
19.25000,717
19.25833,713
19.26667,708
19.27500,703
19.28333,699
19.29167,694
19.30000,689
19.30833,683
19.31667,677
19.32500,671
19.33333,665
19.34167,660
19.35000,654
19.35833,648
19.36667,642
19.37500,636
19.38333,630
19.39167,623
19.40000,617
19.40833,610
19.41667,603
19.42500,596
19.43333,589
19.44167,583
19.45000,576
19.45833,569
19.46667,561
19.47500,554
19.48333,547
19.49167,540
19.50000,533
19.50833,526
19.51667,520
19.52500,513
19.53333,507
19.54167,500
19.55000,494
19.55833,487
19.56667,481
19.57500,475
19.58333,469
19.59167,464
19.60000,458
19.60833,453
19.61667,448
19.62500,443
19.63333,438
19.64167,433
19.65000,429
19.65833,425
19.66667,421
19.67500,418
19.68333,415
19.69167,411
19.70000,408
19.70833,406
19.71667,404
19.72500,402
19.73333,401
19.74167,400
19.75000,399
19.75833,399
19.76667,400
19.77500,401
19.78333,402
19.79167,404
19.80000,406
19.80833,409
19.81667,412
19.82500,416
19.83333,421
19.84167,426
19.85000,432
19.85833,438
19.86667,445
19.87500,453
19.88333,461
19.89167,469
19.90000,479
19.90833,489
19.91667,499
19.92500,510
19.93333,521
19.94167,533
19.95000,545
19.95833,559
19.96667,572
19.97500,586
19.98333,601
19.99167,615
20.00000,630
20.00833,645
20.01667,660
20.02500,675
20.03333,691
20.04167,706
20.05000,722
20.05833,737
20.06667,752
20.07500,767
20.08333,781
20.09167,796
20.10000,810
20.10833,824
20.11667,837
20.12500,851
20.13333,864
20.14167,876
20.15000,887
20.15833,898
20.16667,909
20.17500,919
20.18333,929
20.19167,937
20.20000,945
20.20833,952
20.21667,959
20.22500,965
20.23333,971
20.24167,976
20.25000,980
20.25833,984
20.26667,987
20.27500,989
20.28333,990
20.29167,991
20.30000,991
20.30833,990
20.31667,989
20.32500,987
20.33333,985
20.34167,982
20.35000,978
20.35833,973
20.36667,968
20.37500,963
20.38333,957
20.39167,951
20.40000,944
20.40833,936
20.41667,928
20.42500,920
20.43333,910
20.44167,901
20.45000,891
20.45833,882
20.46667,871
20.47500,860
20.48333,850
20.49167,839
20.50000,827
20.50833,816
20.51667,805
20.52500,793
20.53333,781
20.54167,770
20.55000,758
20.55833,747
20.56667,735
20.57500,724
20.58333,712
20.59167,701
20.60000,690
20.60833,680
20.61667,670
20.62500,660
20.63333,650
20.64167,640
20.65000,631
20.65833,622
20.66667,613
20.67500,605
20.68333,597
20.69167,589
20.70000,582
20.70833,575
20.71667,569
20.72500,562
20.73333,557
20.74167,551
20.75000,546
20.75833,542
20.76667,538
20.77500,534
20.78333,530
20.79167,526
20.80000,523
20.80833,520
20.81667,517
20.82500,515
20.83333,513
20.84167,511
20.85000,509
20.85833,508
20.86667,507
20.87500,507
20.88333,507
20.89167,507
20.90000,508
20.90833,510
20.91667,512
20.92500,514
20.93333,517
20.94167,521
20.95000,526
20.95833,532
20.96667,539
20.97500,546
20.98333,555
20.99167,566
21.00000,577
21.00833,590
21.01667,604
21.02500,620
21.03333,638
21.04167,658
21.05000,680
21.05833,703
21.06667,729
21.07500,757
21.08333,787
21.09167,820
21.10000,854
21.10833,890
21.11667,929
21.12500,971
21.13333,1015
21.14167,1061
21.15000,1109
21.15833,1159
21.16667,1211
21.17500,1264
21.18333,1319
21.19167,1375
21.20000,1432
21.20833,1491
21.21667,1550
21.22500,1610
21.23333,1671
21.24167,1732
21.25000,1793
21.25833,1854
21.26667,1914
21.27500,1974
21.28333,2033
21.29167,2090
21.30000,2148
21.30833,2204
21.31667,2258
21.32500,2311
21.33333,2362
21.34167,2412
21.35000,2459
21.35833,2504
21.36667,2548
21.37500,2590
21.38333,2630
21.39167,2669
21.40000,2705
21.40833,2739
21.41667,2772
21.42500,2802
21.43333,2831
21.44167,2858
21.45000,2883
21.45833,2906
21.46667,2927
21.47500,2947
21.48333,2965
21.49167,2981
21.50000,2995
21.50833,3008
21.51667,3018
21.52500,3027
21.53333,3034
21.54167,3038
21.55000,3041
21.55833,3042
21.56667,3040
21.57500,3037
21.58333,3031
21.59167,3023
21.60000,3012
21.60833,3000
21.61667,2986
21.62500,2969
21.63333,2950
21.64167,2929
21.65000,2905
21.65833,2878
21.66667,2851
21.67500,2821
21.68333,2789
21.69167,2755
21.70000,2719
21.70833,2682
21.71667,2643
21.72500,2603
21.73333,2561
21.74167,2518
21.75000,2473
21.75833,2428
21.76667,2382
21.77500,2335
21.78333,2289
21.79167,2241
21.80000,2194
21.80833,2146
21.81667,2099
21.82500,2052
21.83333,2006
21.84167,1960
21.85000,1915
21.85833,1870
21.86667,1826
21.87500,1784
21.88333,1742
21.89167,1701
21.90000,1660
21.90833,1621
21.91667,1583
21.92500,1545
21.93333,1509
21.94167,1474
21.95000,1440
21.95833,1407
21.96667,1375
21.97500,1343
21.98333,1312
21.99167,1282
22.00000,1253
22.00833,1224
22.01667,1197
22.02500,1170
22.03333,1144
22.04167,1118
22.05000,1093
22.05833,1068
22.06667,1044
22.07500,1020
22.08333,996
22.09167,972
22.10000,949
22.10833,926
22.11667,903
22.12500,881
22.13333,859
22.14167,837
22.15000,815
22.15833,794
22.16667,773
22.17500,753
22.18333,732
22.19167,712
22.20000,693
22.20833,674
22.21667,655
22.22500,636
22.23333,618
22.24167,601
22.25000,584
22.25833,567
22.26667,552
22.27500,536
22.28333,522
22.29167,508
22.30000,494
22.30833,481
22.31667,468
22.32500,455
22.33333,444
22.34167,432
22.35000,422
22.35833,412
22.36667,402
22.37500,393
22.38333,385
22.39167,377
22.40000,369
22.40833,362
22.41667,356
22.42500,349
22.43333,344
22.44167,339
22.45000,334
22.45833,329
22.46667,325
22.47500,321
22.48333,318
22.49167,315
22.50000,312
22.50833,309
22.51667,308
22.52500,306
22.53333,305
22.54167,304
22.55000,303
22.55833,303
22.56667,303
22.57500,303
22.58333,304
22.59167,304
22.60000,306
22.60833,307
22.61667,310
22.62500,312
22.63333,314
22.64167,317
22.65000,320
22.65833,324
22.66667,327
22.67500,332
22.68333,336
22.69167,341
22.70000,345
22.70833,350
22.71667,355
22.72500,361
22.73333,366
22.74167,372
22.75000,379
22.75833,385
22.76667,392
22.77500,399
22.78333,406
22.79167,413
22.80000,420
22.80833,428
22.81667,435
22.82500,442
22.83333,450
22.84167,457
22.85000,465
22.85833,472
22.86667,480
22.87500,488
22.88333,495
22.89167,503
22.90000,510
22.90833,517
22.91667,523
22.92500,530
22.93333,536
22.94167,543
22.95000,550
22.95833,556
22.96667,562
22.97500,568
22.98333,573
22.99167,578
23.00000,583
23.00833,588
23.01667,593
23.02500,597
23.03333,601
23.04167,605
23.05000,609
23.05833,613
23.06667,616
23.07500,619
23.08333,621
23.09167,623
23.10000,625
23.10833,627
23.11667,628
23.12500,629
23.13333,630
23.14167,630
23.15000,630
23.15833,630
23.16667,629
23.17500,628
23.18333,626
23.19167,625
23.20000,623
23.20833,621
23.21667,618
23.22500,614
23.23333,610
23.24167,607
23.25000,603
23.25833,599
23.26667,595
23.27500,590
23.28333,585
23.29167,580
23.30000,575
23.30833,569
23.31667,563
23.32500,558
23.33333,552
23.34167,546
23.35000,540
23.35833,534
23.36667,528
23.37500,522
23.38333,517
23.39167,512
23.40000,506
23.40833,499
23.41667,493
23.42500,488
23.43333,482
23.44167,477
23.45000,472
23.45833,467
23.46667,462
23.47500,458
23.48333,453
23.49167,448
23.50000,444
23.50833,439
23.51667,435
23.52500,431
23.53333,427
23.54167,424
23.55000,421
23.55833,418
23.56667,415
23.57500,412
23.58333,410
23.59167,408
23.60000,405
23.60833,403
23.61667,400
23.62500,398
23.63333,397
23.64167,395
23.65000,393
23.65833,391
23.66667,390
23.67500,388
23.68333,387
23.69167,386
23.70000,385
23.70833,384
23.71667,383
23.72500,382
23.73333,381
23.74167,380
23.75000,380
23.75833,379
23.76667,378
23.77500,377
23.78333,376
23.79167,375
23.80000,375
23.80833,374
23.81667,373
23.82500,372
23.83333,371
23.84167,370
23.85000,369
23.85833,368
23.86667,368
23.87500,367
23.88333,366
23.89167,366
23.90000,366
23.90833,365
23.91667,365
23.92500,364
23.93333,363
23.94167,362
23.95000,361
23.95833,360
23.96667,360
23.97500,359
23.98333,358
23.99167,358
24.00000,357
24.00833,356
24.01667,355
24.02500,355
24.03333,354
24.04167,354
24.05000,353
24.05833,352
24.06667,352
24.07500,351
24.08333,351
24.09167,350
24.10000,350
24.10833,349
24.11667,349
24.12500,348
24.13333,348
24.14167,347
24.15000,346
24.15833,346
24.16667,345
24.17500,344
24.18333,344
24.19167,343
24.20000,343
24.20833,342
24.21667,342
24.22500,342
24.23333,342
24.24167,342
24.25000,341
24.25833,341
24.26667,341
24.27500,341
24.28333,341
24.29167,341
24.30000,342
24.30833,343
24.31667,344
24.32500,345
24.33333,347
24.34167,348
24.35000,350
24.35833,352
24.36667,355
24.37500,358
24.38333,361
24.39167,365
24.40000,369
24.40833,375
24.41667,381
24.42500,389
24.43333,397
24.44167,406
24.45000,416
24.45833,427
24.46667,439
24.47500,452
24.48333,467
24.49167,484
24.50000,503
24.50833,523
24.51667,545
24.52500,569
24.53333,595
24.54167,623
24.55000,653
24.55833,686
24.56667,720
24.57500,758
24.58333,797
24.59167,839
24.60000,884
24.60833,931
24.61667,981
24.62500,1033
24.63333,1087
24.64167,1143
24.65000,1201
24.65833,1262
24.66667,1325
24.67500,1390
24.68333,1457
24.69167,1526
24.70000,1596
24.70833,1668
24.71667,1741
24.72500,1815
24.73333,1889
24.74167,1965
24.75000,2040
24.75833,2116
24.76667,2192
24.77500,2268
24.78333,2344
24.79167,2420
24.80000,2495
24.80833,2568
24.81667,2641
24.82500,2714
24.83333,2784
24.84167,2854
24.85000,2922
24.85833,2987
24.86667,3051
24.87500,3113
24.88333,3174
24.89167,3233
24.90000,3289
24.90833,3343
24.91667,3395
24.92500,3445
24.93333,3492
24.94167,3537
24.95000,3580
24.95833,3621
24.96667,3659
24.97500,3695
24.98333,3728
24.99167,3759
25.00000,3788
25.00833,3813
25.01667,3837
25.02500,3858
25.03333,3876
25.04167,3892
25.05000,3905
25.05833,3916
25.06667,3923
25.07500,3928
25.08333,3931
25.09167,3930
25.10000,3927
25.10833,3920
25.11667,3911
25.12500,3898
25.13333,3883
25.14167,3864
25.15000,3843
25.15833,3818
25.16667,3790
25.17500,3759
25.18333,3725
25.19167,3688
25.20000,3648
25.20833,3605
25.21667,3560
25.22500,3512
25.23333,3461
25.24167,3407
25.25000,3351
25.25833,3292
25.26667,3232
25.27500,3169
25.28333,3105
25.29167,3038
25.30000,2971
25.30833,2902
25.31667,2831
25.32500,2760
25.33333,2688
25.34167,2616
25.35000,2543
25.35833,2470
25.36667,2397
25.37500,2323
25.38333,2250
25.39167,2178
25.40000,2106
25.40833,2035
25.41667,1965
25.42500,1896
25.43333,1828
25.44167,1761
25.45000,1696
25.45833,1632
25.46667,1570
25.47500,1510
25.48333,1451
25.49167,1394
25.50000,1339
25.50833,1286
25.51667,1234
25.52500,1185
25.53333,1137
25.54167,1091
25.55000,1047
25.55833,1005
25.56667,965
25.57500,927
25.58333,890
25.59167,855
25.60000,822
25.60833,791
25.61667,761
25.62500,733
25.63333,707
25.64167,681
25.65000,657
25.65833,635
25.66667,614
25.67500,594
25.68333,575
25.69167,556
25.70000,539
25.70833,523
25.71667,508
25.72500,494
25.73333,481
25.74167,469
25.75000,457
25.75833,446
25.76667,435
25.77500,425
25.78333,416
25.79167,407
25.80000,398
25.80833,391
25.81667,383
25.82500,375
25.83333,368
25.84167,361
25.85000,354
25.85833,348
25.86667,341
25.87500,336
25.88333,330
25.89167,325
25.90000,319
25.90833,314
25.91667,309
25.92500,304
25.93333,299
25.94167,294
25.95000,289
25.95833,284
25.96667,280
25.97500,275
25.98333,270
25.99167,265
26.00000,260
26.00833,256
26.01667,252
26.02500,247
26.03333,243
26.04167,239
26.05000,235
26.05833,231
26.06667,227
26.07500,223
26.08333,219
26.09167,216
26.10000,211
26.10833,207
26.11667,203
26.12500,200
26.13333,196
26.14167,192
26.15000,188
26.15833,185
26.16667,181
26.17500,178
26.18333,175
26.19167,172
26.20000,169
26.20833,167
26.21667,164
26.22500,162
26.23333,159
26.24167,156
26.25000,153
26.25833,151
26.26667,149
26.27500,147
26.28333,145
26.29167,143
26.30000,141
26.30833,139
26.31667,138
26.32500,136
26.33333,134
26.34167,133
26.35000,131
26.35833,130
26.36667,128
26.37500,127
26.38333,126
26.39167,125
26.40000,124
26.40833,123
26.41667,122
26.42500,121
26.43333,121
26.44167,120
26.45000,119
26.45833,119
26.46667,118
26.47500,118
26.48333,117
26.49167,117
26.50000,117
26.50833,116
26.51667,116
26.52500,116
26.53333,115
26.54167,115
26.55000,115
26.55833,115
26.56667,115
26.57500,115
26.58333,116
26.59167,116
26.60000,116
26.60833,116
26.61667,116
26.62500,116
26.63333,116
26.64167,117
26.65000,117
26.65833,117
26.66667,117
26.67500,117
26.68333,117
26.69167,117
26.70000,117
26.70833,117
26.71667,117
26.72500,117
26.73333,117
26.74167,117
26.75000,117
26.75833,117
26.76667,117
26.77500,117
26.78333,117
26.79167,118
26.80000,118
26.80833,118
26.81667,118
26.82500,118
26.83333,118
26.84167,119
26.85000,119
26.85833,119
26.86667,119
26.87500,119
26.88333,119
26.89167,120
26.90000,120
26.90833,120
26.91667,120
26.92500,120
26.93333,120
26.94167,120
26.95000,121
26.95833,121
26.96667,121
26.97500,121
26.98333,121
26.99167,121
27.00000,121
27.00833,121
27.01667,121
27.02500,122
27.03333,122
27.04167,122
27.05000,123
27.05833,123
27.06667,123
27.07500,124
27.08333,124
27.09167,124
27.10000,124
27.10833,124
27.11667,124
27.12500,125
27.13333,125
27.14167,125
27.15000,125
27.15833,125
27.16667,126
27.17500,126
27.18333,126
27.19167,126
27.20000,126
27.20833,126
27.21667,126
27.22500,126
27.23333,126
27.24167,126
27.25000,126
27.25833,126
27.26667,126
27.27500,126
27.28333,126
27.29167,126
27.30000,126
27.30833,126
27.31667,126
27.32500,126
27.33333,126
27.34167,126
27.35000,126
27.35833,126
27.36667,125
27.37500,125
27.38333,125
27.39167,125
27.40000,124
27.40833,124
27.41667,124
27.42500,124
27.43333,124
27.44167,124
27.45000,123
27.45833,123
27.46667,123
27.47500,122
27.48333,122
27.49167,121
27.50000,121
27.50833,120
27.51667,120
27.52500,119
27.53333,119
27.54167,118
27.55000,117
27.55833,117
27.56667,117
27.57500,116
27.58333,116
27.59167,115
27.60000,115
27.60833,114
27.61667,113
27.62500,112
27.63333,111
27.64167,110
27.65000,109
27.65833,108
27.66667,108
27.67500,107
27.68333,107
27.69167,106
27.70000,105
27.70833,104
27.71667,103
27.72500,102
27.73333,101
27.74167,100
27.75000,99
27.75833,99
27.76667,97
27.77500,97
27.78333,96
27.79167,96
27.80000,95
27.80833,95
27.81667,94
27.82500,93
27.83333,93
27.84167,92
27.85000,91
27.85833,90
27.86667,89
27.87500,89
27.88333,88
27.89167,88
27.90000,87
27.90833,87
27.91667,86
27.92500,85
27.93333,85
27.94167,84
27.95000,83
27.95833,83
27.96667,83
27.97500,83
27.98333,83
27.99167,83
28.00000,82
28.00833,82
28.01667,82
28.02500,82
28.03333,82
28.04167,82
28.05000,82
28.05833,82
28.06667,82
28.07500,82
28.08333,82
28.09167,82
28.10000,82
28.10833,82
28.11667,82
28.12500,82
28.13333,82
28.14167,83
28.15000,83
28.15833,83
28.16667,83
28.17500,83
28.18333,83
28.19167,84
28.20000,84
28.20833,84
28.21667,84
28.22500,84
28.23333,85
28.24167,85
28.25000,85
28.25833,86
28.26667,86
28.27500,87
28.28333,87
28.29167,88
28.30000,89
28.30833,90
28.31667,91
28.32500,92
28.33333,93
28.34167,94
28.35000,95
28.35833,97
28.36667,99
28.37500,101
28.38333,103
28.39167,105
28.40000,108
28.40833,111
28.41667,114
28.42500,117
28.43333,121
28.44167,125
28.45000,129
28.45833,134
28.46667,140
28.47500,146
28.48333,153
28.49167,161
28.50000,169
28.50833,178
28.51667,188
28.52500,199
28.53333,211
28.54167,223
28.55000,237
28.55833,251
28.56667,267
28.57500,283
28.58333,301
28.59167,320
28.60000,340
28.60833,362
28.61667,385
28.62500,409
28.63333,435
28.64167,462
28.65000,491
28.65833,520
28.66667,552
28.67500,585
28.68333,619
28.69167,654
28.70000,691
28.70833,730
28.71667,769
28.72500,811
28.73333,853
28.74167,896
28.75000,941
28.75833,987
28.76667,1034
28.77500,1082
28.78333,1131
28.79167,1181
28.80000,1231
28.80833,1282
28.81667,1334
28.82500,1386
28.83333,1439
28.84167,1492
28.85000,1546
28.85833,1599
28.86667,1652
28.87500,1705
28.88333,1758
28.89167,1810
28.90000,1862
28.90833,1913
28.91667,1963
28.92500,2013
28.93333,2062
28.94167,2109
28.95000,2156
28.95833,2201
28.96667,2245
28.97500,2288
28.98333,2330
28.99167,2370
29.00000,2409
29.00833,2446
29.01667,2482
29.02500,2516
29.03333,2549
29.04167,2580
29.05000,2610
29.05833,2638
29.06667,2664
29.07500,2689
29.08333,2712
29.09167,2734
29.10000,2754
29.10833,2772
29.11667,2789
29.12500,2804
29.13333,2817
29.14167,2829
29.15000,2840
29.15833,2849
29.16667,2856
29.17500,2863
29.18333,2868
29.19167,2871
29.20000,2873
29.20833,2873
29.21667,2873
29.22500,2871
29.23333,2867
29.24167,2862
29.25000,2856
29.25833,2848
29.26667,2839
29.27500,2828
29.28333,2816
29.29167,2802
29.30000,2787
29.30833,2771
29.31667,2753
29.32500,2733
29.33333,2713
29.34167,2691
29.35000,2667
29.35833,2642
29.36667,2616
29.37500,2588
29.38333,2559
29.39167,2528
29.40000,2496
29.40833,2463
29.41667,2428
29.42500,2392
29.43333,2355
29.44167,2317
29.45000,2277
29.45833,2237
29.46667,2196
29.47500,2154
29.48333,2110
29.49167,2066
29.50000,2022
29.50833,1977
29.51667,1931
29.52500,1885
29.53333,1838
29.54167,1791
29.55000,1743
29.55833,1695
29.56667,1648
29.57500,1601
29.58333,1554
29.59167,1507
29.60000,1460
29.60833,1413
29.61667,1367
29.62500,1321
29.63333,1276
29.64167,1232
29.65000,1188
29.65833,1144
29.66667,1102
29.67500,1060
29.68333,1019
29.69167,979
29.70000,940
29.70833,902
29.71667,865
29.72500,829
29.73333,794
29.74167,760
29.75000,727
29.75833,695
29.76667,665
29.77500,635
29.78333,607
29.79167,580
29.80000,553
29.80833,528
29.81667,504
29.82500,480
29.83333,458
29.84167,437
29.85000,417
29.85833,398
29.86667,380
29.87500,363
29.88333,347
29.89167,332
29.90000,317
29.90833,303
29.91667,290
29.92500,277
29.93333,266
29.94167,254
29.95000,243
29.95833,233
29.96667,224
29.97500,216
29.98333,208
29.99167,201
30.00000,194
30.00833,187
30.01667,181
30.02500,175
30.03333,170
30.04167,164
30.05000,159
30.05833,155
30.06667,151
30.07500,147
30.08333,144
30.09167,140
30.10000,137
30.10833,135
30.11667,133
30.12500,131
30.13333,129
30.14167,127
30.15000,125
30.15833,123
30.16667,122
30.17500,120
30.18333,119
30.19167,118
30.20000,117
30.20833,115
30.21667,114
30.22500,113
30.23333,113
30.24167,112
30.25000,112
30.25833,111
30.26667,111
30.27500,111
30.28333,110
30.29167,110
30.30000,110
30.30833,109
30.31667,109
30.32500,108
30.33333,107
30.34167,107
30.35000,107
30.35833,107
30.36667,107
30.37500,106
30.38333,107
30.39167,107
30.40000,107
30.40833,107
30.41667,108
30.42500,108
30.43333,109
30.44167,109
30.45000,109
30.45833,110
30.46667,110
30.47500,111
30.48333,111
30.49167,112
30.50000,113
30.50833,113
30.51667,113
30.52500,114
30.53333,115
30.54167,116
30.55000,117
30.55833,118
30.56667,119
30.57500,121
30.58333,122
30.59167,123
30.60000,124
30.60833,126
30.61667,127
30.62500,128
30.63333,130
30.64167,132
30.65000,133
30.65833,135
30.66667,136
30.67500,137
30.68333,139
30.69167,140
30.70000,142
30.70833,144
30.71667,145
30.72500,147
30.73333,148
30.74167,150
30.75000,152
30.75833,153
30.76667,155
30.77500,157
30.78333,159
30.79167,161
30.80000,162
30.80833,164
30.81667,166
30.82500,168
30.83333,169
30.84167,171
30.85000,173
30.85833,174
30.86667,176
30.87500,177
30.88333,178
30.89167,180
30.90000,181
30.90833,182
30.91667,183
30.92500,184
30.93333,185
30.94167,187
30.95000,188
30.95833,190
30.96667,191
30.97500,192
30.98333,194
30.99167,195
31.00000,195
31.00833,196
31.01667,197
31.02500,198
31.03333,198
31.04167,199
31.05000,200
31.05833,200
31.06667,201
31.07500,201
31.08333,201
31.09167,202
31.10000,202
31.10833,202
31.11667,202
31.12500,202
31.13333,202
31.14167,203
31.15000,203
31.15833,202
31.16667,202
31.17500,202
31.18333,201
31.19167,201
31.20000,200
31.20833,200
31.21667,200
31.22500,200
31.23333,200
31.24167,199
31.25000,199
31.25833,199
31.26667,198
31.27500,197
31.28333,196
31.29167,195
31.30000,193
31.30833,192
31.31667,191
31.32500,190
31.33333,189
31.34167,188
31.35000,187
31.35833,187
31.36667,186
31.37500,185
31.38333,183
31.39167,182
31.40000,180
31.40833,179
31.41667,178
31.42500,176
31.43333,175
31.44167,174
31.45000,173
31.45833,172
31.46667,171
31.47500,170
31.48333,168
31.49167,167
31.50000,166
31.50833,165
31.51667,164
31.52500,163
31.53333,162
31.54167,160
31.55000,159
31.55833,158
31.56667,156
31.57500,155
31.58333,155
31.59167,154
31.60000,154
31.60833,153
31.61667,153
31.62500,153
31.63333,153
31.64167,154
31.65000,154
31.65833,154
31.66667,155
31.67500,156
31.68333,157
31.69167,158
31.70000,159
31.70833,161
31.71667,163
31.72500,164
31.73333,166
31.74167,168
31.75000,170
31.75833,173
31.76667,177
31.77500,180
31.78333,184
31.79167,188
31.80000,192
31.80833,196
31.81667,200
31.82500,205
31.83333,209
31.84167,214
31.85000,220
31.85833,225
31.86667,231
31.87500,238
31.88333,244
31.89167,250
31.90000,257
31.90833,264
31.91667,271
31.92500,279
31.93333,286
31.94167,294
31.95000,302
31.95833,310
31.96667,318
31.97500,326
31.98333,335
31.99167,343
32.00000,352
32.00833,361
32.01667,369
32.02500,378
32.03333,387
32.04167,395
32.05000,404
32.05833,412
32.06667,421
32.07500,429
32.08333,438
32.09167,447
32.10000,455
32.10833,464
32.11667,472
32.12500,480
32.13333,488
32.14167,496
32.15000,504
32.15833,512
32.16667,519
32.17500,526
32.18333,533
32.19167,539
32.20000,546
32.20833,553
32.21667,559
32.22500,566
32.23333,572
32.24167,578
32.25000,584
32.25833,589
32.26667,595
32.27500,600
32.28333,605
32.29167,610
32.30000,615
32.30833,620
32.31667,624
32.32500,629
32.33333,633
32.34167,637
32.35000,641
32.35833,644
32.36667,648
32.37500,652
32.38333,655
32.39167,658
32.40000,660
32.40833,663
32.41667,665
32.42500,667
32.43333,669
32.44167,671
32.45000,673
32.45833,674
32.46667,675
32.47500,675
32.48333,676
32.49167,676
32.50000,676
32.50833,676
32.51667,676
32.52500,676
32.53333,676
32.54167,675
32.55000,674
32.55833,673
32.56667,671
32.57500,669
32.58333,667
32.59167,664
32.60000,662
32.60833,659
32.61667,656
32.62500,652
32.63333,649
32.64167,645
32.65000,641
32.65833,637
32.66667,633
32.67500,629
32.68333,625
32.69167,620
32.70000,616
32.70833,611
32.71667,606
32.72500,601
32.73333,596
32.74167,591
32.75000,585
32.75833,580
32.76667,575
32.77500,570
32.78333,565
32.79167,560
32.80000,554
32.80833,549
32.81667,544
32.82500,539
32.83333,534
32.84167,529
32.85000,524
32.85833,519
32.86667,515
32.87500,511
32.88333,506
32.89167,502
32.90000,497
32.90833,493
32.91667,489
32.92500,485
32.93333,482
32.94167,478
32.95000,474
32.95833,471
32.96667,467
32.97500,464
32.98333,461
32.99167,459
33.00000,456
33.00833,454
33.01667,452
33.02500,449
33.03333,447
33.04167,444
33.05000,442
33.05833,440
33.06667,438
33.07500,436
33.08333,434
33.09167,432
33.10000,431
33.10833,429
33.11667,428
33.12500,426
33.13333,424
33.14167,422
33.15000,420
33.15833,419
33.16667,417
33.17500,415
33.18333,413
33.19167,412
33.20000,410
33.20833,409
33.21667,407
33.22500,405
33.23333,403
33.24167,400
33.25000,398
33.25833,396
33.26667,394
33.27500,393
33.28333,391
33.29167,389
33.30000,387
33.30833,385
33.31667,382
33.32500,380
33.33333,377
33.34167,374
33.35000,371
33.35833,368
33.36667,365
33.37500,362
33.38333,360
33.39167,357
33.40000,353
33.40833,350
33.41667,346
33.42500,343
33.43333,340
33.44167,337
33.45000,333
33.45833,330
33.46667,326
33.47500,323
33.48333,319
33.49167,315
33.50000,312
33.50833,308
33.51667,304
33.52500,300
33.53333,296
33.54167,291
33.55000,287
33.55833,283
33.56667,279
33.57500,275
33.58333,272
33.59167,267
33.60000,263
33.60833,259
33.61667,255
33.62500,251
33.63333,248
33.64167,244
33.65000,239
33.65833,235
33.66667,230
33.67500,226
33.68333,222
33.69167,218
33.70000,214
33.70833,210
33.71667,205
33.72500,201
33.73333,197
33.74167,193
33.75000,189
33.75833,185
33.76667,181
33.77500,176
33.78333,172
33.79167,168
33.80000,164
33.80833,160
33.81667,156
33.82500,153
33.83333,149
33.84167,145
33.85000,142
33.85833,139
33.86667,136
33.87500,133
33.88333,130
33.89167,126
33.90000,123
33.90833,120
33.91667,117
33.92500,114
33.93333,111
33.94167,108
33.95000,105
33.95833,101
33.96667,98
33.97500,96
33.98333,93
33.99167,91
34.00000,88
34.00833,86
34.01667,84
34.02500,82
34.03333,79
34.04167,77
34.05000,75
34.05833,73
34.06667,71
34.07500,69
34.08333,68
34.09167,66
34.10000,64
34.10833,62
34.11667,61
34.12500,59
34.13333,58
34.14167,56
34.15000,55
34.15833,54
34.16667,53
34.17500,51
34.18333,50
34.19167,49
34.20000,47
34.20833,46
34.21667,45
34.22500,43
34.23333,43
34.24167,42
34.25000,41
34.25833,41
34.26667,40
34.27500,40
34.28333,39
34.29167,38
34.30000,38
34.30833,37
34.31667,36
34.32500,35
34.33333,34
34.34167,33
34.35000,33
34.35833,33
34.36667,33
34.37500,32
34.38333,32
34.39167,32
34.40000,32
34.40833,31
34.41667,31
34.42500,31
34.43333,30
34.44167,29
34.45000,29
34.45833,28
34.46667,27
34.47500,27
34.48333,27
34.49167,26
34.50000,26
34.50833,26
34.51667,26
34.52500,25
34.53333,25
34.54167,25
34.55000,25
34.55833,25
34.56667,25
34.57500,24
34.58333,24
34.59167,24
34.60000,23
34.60833,22
34.61667,22
34.62500,21
34.63333,21
34.64167,21
34.65000,21
34.65833,21
34.66667,21
34.67500,21
34.68333,21
34.69167,20
34.70000,20
34.70833,20
34.71667,20
34.72500,20
34.73333,19
34.74167,19
34.75000,19
34.75833,19
34.76667,18
34.77500,18
34.78333,18
34.79167,17
34.80000,17
34.80833,17
34.81667,17
34.82500,16
34.83333,16
34.84167,16
34.85000,16
34.85833,16
34.86667,15
34.87500,15
34.88333,14
34.89167,14
34.90000,14
34.90833,14
34.91667,14
34.92500,14
34.93333,14
34.94167,14
34.95000,14
34.95833,14
34.96667,14
34.97500,14
34.98333,14
34.99167,14
35.00000,14
35.00833,14
35.01667,14
35.02500,14
35.03333,14
35.04167,14
35.05000,14
35.05833,14
35.06667,14
35.07500,15
35.08333,15
35.09167,15
35.10000,15
35.10833,15
35.11667,16
35.12500,16
35.13333,16
35.14167,16
35.15000,16
35.15833,16
35.16667,16
35.17500,16
35.18333,17
35.19167,17
35.20000,18
35.20833,18
35.21667,19
35.22500,19
35.23333,19
35.24167,20
35.25000,20
35.25833,21
35.26667,21
35.27500,22
35.28333,23
35.29167,23
35.30000,24
35.30833,24
35.31667,25
35.32500,26
35.33333,26
35.34167,27
35.35000,27
35.35833,28
35.36667,29
35.37500,30
35.38333,31
35.39167,31
35.40000,32
35.40833,33
35.41667,34
35.42500,36
35.43333,37
35.44167,38
35.45000,39
35.45833,39
35.46667,40
35.47500,40
35.48333,41
35.49167,42
35.50000,43
35.50833,44
35.51667,45
35.52500,46
35.53333,46
35.54167,47
35.55000,48
35.55833,49
35.56667,50
35.57500,51
35.58333,52
35.59167,52
35.60000,53
35.60833,54
35.61667,55
35.62500,56
35.63333,57
35.64167,57
35.65000,58
35.65833,59
35.66667,59
35.67500,60
35.68333,60
35.69167,61
35.70000,62
35.70833,62
35.71667,63
35.72500,63
35.73333,63
35.74167,64
35.75000,64
35.75833,65
35.76667,66
35.77500,67
35.78333,68
35.79167,68
35.80000,68
35.80833,68
35.81667,68
35.82500,69
35.83333,70
35.84167,70
35.85000,71
35.85833,72
35.86667,73
35.87500,73
35.88333,73
35.89167,73
35.90000,73
35.90833,73
35.91667,74
35.92500,74
35.93333,74
35.94167,74
35.95000,75
35.95833,75
35.96667,74
35.97500,74
35.98333,74
35.99167,74
36.00000,74
36.00833,74
36.01667,75
36.02500,75
36.03333,75
36.04167,75
36.05000,75
36.05833,75
36.06667,75
36.07500,76
36.08333,76
36.09167,76
36.10000,75
36.10833,75
36.11667,75
36.12500,75
36.13333,75
36.14167,75
36.15000,74
36.15833,74
36.16667,75
36.17500,75
36.18333,75
36.19167,74
36.20000,74
36.20833,73
36.21667,73
36.22500,72
36.23333,72
36.24167,72
36.25000,71
36.25833,71
36.26667,71
36.27500,71
36.28333,70
36.29167,70
36.30000,70
36.30833,69
36.31667,69
36.32500,68
36.33333,68
36.34167,67
36.35000,67
36.35833,67
36.36667,66
36.37500,66
36.38333,65
36.39167,65
36.40000,64
36.40833,64
36.41667,64
36.42500,63
36.43333,63
36.44167,62
36.45000,62
36.45833,61
36.46667,60
36.47500,60
36.48333,60
36.49167,60
36.50000,59
36.50833,59
36.51667,59
36.52500,58
36.53333,57
36.54167,57
36.55000,57
36.55833,56
36.56667,56
36.57500,56
36.58333,56
36.59167,56
36.60000,55
36.60833,55
36.61667,54
36.62500,54
36.63333,54
36.64167,53
36.65000,54
36.65833,54
36.66667,54
36.67500,54
36.68333,54
36.69167,54
36.70000,54
36.70833,54
36.71667,54
36.72500,54
36.73333,55
36.74167,55
36.75000,54
36.75833,54
36.76667,54
36.77500,54
36.78333,55
36.79167,55
36.80000,55
36.80833,55
36.81667,55
36.82500,56
36.83333,56
36.84167,56
36.85000,57
36.85833,57
36.86667,57
36.87500,58
36.88333,58
36.89167,58
36.90000,58
36.90833,59
36.91667,59
36.92500,60
36.93333,60
36.94167,61
36.95000,61
36.95833,62
36.96667,62
36.97500,63
36.98333,64
36.99167,65
37.00000,65
37.00833,66
37.01667,66
37.02500,67
37.03333,68
37.04167,68
37.05000,69
37.05833,70
37.06667,71
37.07500,71
37.08333,72
37.09167,73
37.10000,73
37.10833,74
37.11667,74
37.12500,74
37.13333,75
37.14167,75
37.15000,76
37.15833,77
37.16667,78
37.17500,79
37.18333,80
37.19167,81
37.20000,82
37.20833,82
37.21667,83
37.22500,84
37.23333,84
37.24167,85
37.25000,86
37.25833,87
37.26667,88
37.27500,89
37.28333,89
37.29167,90
37.30000,91
37.30833,92
37.31667,93
37.32500,93
37.33333,94
37.34167,95
37.35000,96
37.35833,97
37.36667,98
37.37500,99
37.38333,100
37.39167,101
37.40000,102
37.40833,102
37.41667,103
37.42500,104
37.43333,105
37.44167,106
37.45000,107
37.45833,108
37.46667,109
37.47500,110
37.48333,111
37.49167,112
37.50000,113
37.50833,114
37.51667,115
37.52500,115
37.53333,116
37.54167,116
37.55000,117
37.55833,118
37.56667,120
37.57500,120
37.58333,121
37.59167,122
37.60000,123
37.60833,123
37.61667,124
37.62500,125
37.63333,126
37.64167,126
37.65000,127
37.65833,128
37.66667,129
37.67500,129
37.68333,129
37.69167,130
37.70000,130
37.70833,131
37.71667,131
37.72500,132
37.73333,132
37.74167,132
37.75000,132
37.75833,132
37.76667,132
37.77500,132
37.78333,133
37.79167,133
37.80000,134
37.80833,134
37.81667,134
37.82500,134
37.83333,135
37.84167,135
37.85000,135
37.85833,135
37.86667,135
37.87500,135
37.88333,135
37.89167,135
37.90000,135
37.90833,135
37.91667,135
37.92500,135
37.93333,135
37.94167,134
37.95000,133
37.95833,133
37.96667,133
37.97500,132
37.98333,132
37.99167,131
38.00000,131
38.00833,131
38.01667,131
38.02500,130
38.03333,130
38.04167,130
38.05000,129
38.05833,128
38.06667,128
38.07500,127
38.08333,127
38.09167,126
38.10000,126
38.10833,125
38.11667,123
38.12500,122
38.13333,121
38.14167,120
38.15000,120
38.15833,119
38.16667,118
38.17500,117
38.18333,116
38.19167,115
38.20000,114
38.20833,113
38.21667,112
38.22500,111
38.23333,110
38.24167,109
38.25000,108
38.25833,108
38.26667,106
38.27500,105
38.28333,105
38.29167,104
38.30000,103
38.30833,102
38.31667,101
38.32500,99
38.33333,98
38.34167,97
38.35000,95
38.35833,94
38.36667,93
38.37500,92
38.38333,90
38.39167,89
38.40000,87
38.40833,86
38.41667,85
38.42500,84
38.43333,83
38.44167,81
38.45000,80
38.45833,79
38.46667,78
38.47500,77
38.48333,76
38.49167,74
38.50000,73
38.50833,72
38.51667,71
38.52500,70
38.53333,68
38.54167,67
38.55000,66
38.55833,64
38.56667,63
38.57500,62
38.58333,60
38.59167,59
38.60000,58
38.60833,56
38.61667,55
38.62500,54
38.63333,52
38.64167,51
38.65000,50
38.65833,49
38.66667,48
38.67500,47
38.68333,46
38.69167,45
38.70000,44
38.70833,43
38.71667,41
38.72500,40
38.73333,39
38.74167,38
38.75000,37
38.75833,35
38.76667,35
38.77500,34
38.78333,33
38.79167,32
38.80000,31
38.80833,30
38.81667,29
38.82500,28
38.83333,27
38.84167,26
38.85000,26
38.85833,25
38.86667,24
38.87500,24
38.88333,23
38.89167,21
38.90000,21
38.90833,20
38.91667,20
38.92500,20
38.93333,20
38.94167,19
38.95000,19
38.95833,18
38.96667,17
38.97500,16
38.98333,16
38.99167,15
39.00000,15
39.00833,14
39.01667,13
39.02500,12
39.03333,12
39.04167,12
39.05000,12
39.05833,11
39.06667,10
39.07500,10
39.08333,9
39.09167,9
39.10000,8
39.10833,8
39.11667,7
39.12500,7
39.13333,6
39.14167,6
39.15000,6
39.15833,6
39.16667,6
39.17500,6
39.18333,5
39.19167,4
39.20000,4
39.20833,4
39.21667,4
39.22500,4
39.23333,4
39.24167,4
39.25000,4
39.25833,4
39.26667,4
39.27500,3
39.28333,3
39.29167,3
39.30000,3
39.30833,3
39.31667,3
39.32500,3
39.33333,3
39.34167,2
39.35000,2
39.35833,2
39.36667,2
39.37500,2
39.38333,2
39.39167,2
39.40000,2
39.40833,2
39.41667,2
39.42500,1
39.43333,1
39.44167,1
39.45000,1
39.45833,2
39.46667,2
39.47500,2
39.48333,1
39.49167,1
39.50000,1
39.50833,1
39.51667,1
39.52500,1
39.53333,1
39.54167,1
39.55000,1
39.55833,1
39.56667,1
39.57500,1
39.58333,1
39.59167,2
39.60000,2
39.60833,2
39.61667,1
39.62500,2
39.63333,1
39.64167,1
39.65000,1
39.65833,1
39.66667,1
39.67500,1
39.68333,1
39.69167,1
39.70000,1
39.70833,1
39.71667,1
39.72500,1
39.73333,1
39.74167,1
39.75000,1
39.75833,1
39.76667,1
39.77500,1
39.78333,1
39.79167,1
39.80000,1
39.80833,1
39.81667,1
39.82500,1
39.83333,0
39.84167,0
39.85000,0
39.85833,0
39.86667,1
39.87500,1
39.88333,1
39.89167,1
39.90000,1
39.90833,1
39.91667,1
39.92500,1
39.93333,2
39.94167,2
39.95000,2
39.95833,2
39.96667,2
39.97500,2
39.98333,2
39.99167,2
40.00000,2
40.00833,2
40.01667,2
40.02500,2
40.03333,2
40.04167,2
40.05000,2
40.05833,2
40.06667,2
40.07500,2
40.08333,2
40.09167,2
40.10000,2
40.10833,2
40.11667,1
40.12500,1
40.13333,1
40.14167,1
40.15000,1
40.15833,1
40.16667,1
40.17500,2
40.18333,2
40.19167,3
40.20000,3
40.20833,3
40.21667,3
40.22500,3
40.23333,3
40.24167,3
40.25000,4
40.25833,4
40.26667,4
40.27500,5
40.28333,5
40.29167,6
40.30000,6
40.30833,7
40.31667,7
40.32500,8
40.33333,8
40.34167,9
40.35000,9
40.35833,10
40.36667,11
40.37500,12
40.38333,12
40.39167,12
40.40000,13
40.40833,14
40.41667,15
40.42500,17
40.43333,18
40.44167,19
40.45000,20
40.45833,21
40.46667,22
40.47500,23
40.48333,25
40.49167,26
40.50000,28
40.50833,30
40.51667,31
40.52500,33
40.53333,35
40.54167,37
40.55000,39
40.55833,41
40.56667,42
40.57500,44
40.58333,46
40.59167,48
40.60000,50
40.60833,52
40.61667,55
40.62500,57
40.63333,60
40.64167,63
40.65000,66
40.65833,69
40.66667,72
40.67500,75
40.68333,78
40.69167,81
40.70000,84
40.70833,88
40.71667,91
40.72500,95
40.73333,98
40.74167,102
40.75000,106
40.75833,110
40.76667,113
40.77500,117
40.78333,121
40.79167,125
40.80000,130
40.80833,134
40.81667,138
40.82500,142
40.83333,146
40.84167,150
40.85000,154
40.85833,158
40.86667,162
40.87500,167
40.88333,171
40.89167,175
40.90000,180
40.90833,184
40.91667,189
40.92500,193
40.93333,197
40.94167,201
40.95000,205
40.95833,210
40.96667,214
40.97500,219
40.98333,223
40.99167,228
41.00000,232
41.00833,236
41.01667,240
41.02500,244
41.03333,248
41.04167,252
41.05000,256
41.05833,260
41.06667,264
41.07500,267
41.08333,271
41.09167,275
41.10000,279
41.10833,282
41.11667,286
41.12500,290
41.13333,294
41.14167,297
41.15000,300
41.15833,303
41.16667,306
41.17500,310
41.18333,313
41.19167,316
41.20000,318
41.20833,321
41.21667,324
41.22500,327
41.23333,330
41.24167,332
41.25000,335
41.25833,338
41.26667,341
41.27500,343
41.28333,346
41.29167,348
41.30000,350
41.30833,353
41.31667,355
41.32500,358
41.33333,360
41.34167,362
41.35000,364
41.35833,366
41.36667,368
41.37500,370
41.38333,371
41.39167,373
41.40000,375
41.40833,376
41.41667,377
41.42500,379
41.43333,380
41.44167,382
41.45000,383
41.45833,384
41.46667,385
41.47500,386
41.48333,387
41.49167,387
41.50000,388
41.50833,388
41.51667,389
41.52500,389
41.53333,390
41.54167,390
41.55000,390
41.55833,390
41.56667,390
41.57500,391
41.58333,391
41.59167,391
41.60000,391
41.60833,390
41.61667,390
41.62500,389
41.63333,389
41.64167,388
41.65000,388
41.65833,387
41.66667,386
41.67500,386
41.68333,385
41.69167,384
41.70000,383
41.70833,382
41.71667,380
41.72500,379
41.73333,378
41.74167,376
41.75000,375
41.75833,374
41.76667,372
41.77500,370
41.78333,368
41.79167,366
41.80000,364
41.80833,362
41.81667,360
41.82500,358
41.83333,356
41.84167,354
41.85000,351
41.85833,349
41.86667,347
41.87500,345
41.88333,342
41.89167,339
41.90000,337
41.90833,334
41.91667,332
41.92500,330
41.93333,327
41.94167,324
41.95000,321
41.95833,319
41.96667,316
41.97500,313
41.98333,310
41.99167,308
42.00000,305
42.00833,302
42.01667,300
42.02500,297
42.03333,294
42.04167,292
42.05000,289
42.05833,287
42.06667,284
42.07500,282
42.08333,279
42.09167,276
42.10000,274
42.10833,271
42.11667,269
42.12500,266
42.13333,264
42.14167,262
42.15000,259
42.15833,257
42.16667,254
42.17500,252
42.18333,250
42.19167,247
42.20000,246
42.20833,243
42.21667,241
42.22500,239
42.23333,237
42.24167,235
42.25000,233
42.25833,231
42.26667,229
42.27500,227
42.28333,225
42.29167,223
42.30000,222
42.30833,220
42.31667,219
42.32500,217
42.33333,216
42.34167,214
42.35000,212
42.35833,211
42.36667,210
42.37500,208
42.38333,206
42.39167,205
42.40000,203
42.40833,202
42.41667,200
42.42500,199
42.43333,198
42.44167,197
42.45000,196
42.45833,194
42.46667,193
42.47500,192
42.48333,191
42.49167,190
42.50000,188
42.50833,187
42.51667,186
42.52500,185
42.53333,183
42.54167,182
42.55000,181
42.55833,180
42.56667,179
42.57500,178
42.58333,178
42.59167,177
42.60000,176
42.60833,176
42.61667,175
42.62500,173
42.63333,172
42.64167,171
42.65000,170
42.65833,169
42.66667,168
42.67500,168
42.68333,167
42.69167,166
42.70000,165
42.70833,164
42.71667,163
42.72500,161
42.73333,160
42.74167,159
42.75000,158
42.75833,157
42.76667,156
42.77500,156
42.78333,155
42.79167,154
42.80000,153
42.80833,152
42.81667,151
42.82500,150
42.83333,149
42.84167,149
42.85000,148
42.85833,147
42.86667,146
42.87500,145
42.88333,144
42.89167,143
42.90000,142
42.90833,141
42.91667,140
42.92500,139
42.93333,139
42.94167,138
42.95000,137
42.95833,136
42.96667,136
42.97500,135
42.98333,134
42.99167,133
43.00000,132
43.00833,131
43.01667,130
43.02500,129
43.03333,127
43.04167,126
43.05000,125
43.05833,124
43.06667,123
43.07500,123
43.08333,122
43.09167,122
43.10000,121
43.10833,120
43.11667,119
43.12500,119
43.13333,118
43.14167,117
43.15000,116
43.15833,115
43.16667,115
43.17500,114
43.18333,113
43.19167,112
43.20000,111
43.20833,110
43.21667,109
43.22500,109
43.23333,108
43.24167,107
43.25000,107
43.25833,106
43.26667,104
43.27500,103
43.28333,102
43.29167,102
43.30000,101
43.30833,100
43.31667,99
43.32500,99
43.33333,98
43.34167,97
43.35000,96
43.35833,96
43.36667,95
43.37500,94
43.38333,93
43.39167,93
43.40000,92
43.40833,91
43.41667,90
43.42500,90
43.43333,89
43.44167,88
43.45000,87
43.45833,86
43.46667,85
43.47500,85
43.48333,84
43.49167,84
43.50000,83
43.50833,82
43.51667,81
43.52500,80
43.53333,79
43.54167,78
43.55000,78
43.55833,77
43.56667,76
43.57500,76
43.58333,75
43.59167,74
43.60000,73
43.60833,73
43.61667,72
43.62500,72
43.63333,71
43.64167,70
43.65000,69
43.65833,68
43.66667,68
43.67500,67
43.68333,66
43.69167,66
43.70000,65
43.70833,64
43.71667,63
43.72500,63
43.73333,62
43.74167,61
43.75000,61
43.75833,60
43.76667,59
43.77500,59
43.78333,58
43.79167,58
43.80000,57
43.80833,56
43.81667,55
43.82500,55
43.83333,54
43.84167,53
43.85000,52
43.85833,51
43.86667,51
43.87500,50
43.88333,50
43.89167,49
43.90000,49
43.90833,48
43.91667,48
43.92500,47
43.93333,47
43.94167,46
43.95000,45
43.95833,44
43.96667,43
43.97500,42
43.98333,42
43.99167,41
44.00000,41
44.00833,41
44.01667,40
44.02500,40
44.03333,39
44.04167,38
44.05000,38
44.05833,37
44.06667,36
44.07500,36
44.08333,35
44.09167,35
44.10000,35
44.10833,34
44.11667,34
44.12500,33
44.13333,33
44.14167,32
44.15000,31
44.15833,31
44.16667,30
44.17500,29
44.18333,29
44.19167,28
44.20000,28
44.20833,27
44.21667,26
44.22500,26
44.23333,26
44.24167,26
44.25000,26
44.25833,25
44.26667,25
44.27500,24
44.28333,24
44.29167,23
44.30000,22
44.30833,22
44.31667,22
44.32500,21
44.33333,21
44.34167,20
44.35000,20
44.35833,19
44.36667,18
44.37500,18
44.38333,18
44.39167,18
44.40000,17
44.40833,17
44.41667,16
44.42500,16
44.43333,15
44.44167,15
44.45000,15
44.45833,14
44.46667,14
44.47500,14
44.48333,13
44.49167,13
44.50000,12
44.50833,12
44.51667,12
44.52500,11
44.53333,11
44.54167,10
44.55000,10
44.55833,10
44.56667,10
44.57500,9
44.58333,8
44.59167,8
44.60000,7
44.60833,7
44.61667,7
44.62500,6
44.63333,6
44.64167,6
44.65000,6
44.65833,5
44.66667,5
44.67500,5
44.68333,5
44.69167,4
44.70000,4
44.70833,3
44.71667,3
44.72500,2
44.73333,2
44.74167,2
44.75000,2
44.75833,2
44.76667,1
44.77500,1
44.78333,2
44.79167,2
44.80000,1
44.80833,1
44.81667,1
44.82500,0
44.83333,-0
44.84167,-0
44.85000,-0
44.85833,-1
44.86667,-1
44.87500,-1
44.88333,-1
44.89167,-1
44.90000,-2
44.90833,-2
44.91667,-2
44.92500,-2
44.93333,-2
44.94167,-2
44.95000,-2
44.95833,-2
44.96667,-2
44.97500,-2
44.98333,-2
44.99167,-2
45.00000,-3
45.00833,-3
45.01667,-3
45.02500,-3
45.03333,-3
45.04167,-4
45.05000,-4
45.05833,-4
45.06667,-4
45.07500,-4
45.08333,-4
45.09167,-4
45.10000,-4
45.10833,-4
45.11667,-5
45.12500,-5
45.13333,-5
45.14167,-5
45.15000,-5
45.15833,-5
45.16667,-5
45.17500,-5
45.18333,-5
45.19167,-5
45.20000,-5
45.20833,-5
45.21667,-5
45.22500,-5
45.23333,-5
45.24167,-5
45.25000,-6
45.25833,-6
45.26667,-6
45.27500,-6
45.28333,-7
45.29167,-6
45.30000,-6
45.30833,-6
45.31667,-6
45.32500,-7
45.33333,-7
45.34167,-7
45.35000,-7
45.35833,-6
45.36667,-6
45.37500,-6
45.38333,-6
45.39167,-6
45.40000,-6
45.40833,-6
45.41667,-6
45.42500,-5
45.43333,-6
45.44167,-6
45.45000,-6
45.45833,-6
45.46667,-6
45.47500,-6
45.48333,-6
45.49167,-6
45.50000,-6
45.50833,-6
45.51667,-6
45.52500,-6
45.53333,-6
45.54167,-6
45.55000,-6
45.55833,-6
45.56667,-6
45.57500,-6
45.58333,-7
45.59167,-7
45.60000,-6
45.60833,-6
45.61667,-6
45.62500,-7
45.63333,-7
45.64167,-7
45.65000,-7
45.65833,-7
45.66667,-7
45.67500,-7
45.68333,-7
45.69167,-7
45.70000,-7
45.70833,-7
45.71667,-7
45.72500,-7
45.73333,-7
45.74167,-7
45.75000,-7
45.75833,-7
45.76667,-7
45.77500,-7
45.78333,-7
45.79167,-7
45.80000,-8
45.80833,-8
45.81667,-8
45.82500,-8
45.83333,-8
45.84167,-9
45.85000,-9
45.85833,-9
45.86667,-9
45.87500,-9
45.88333,-9
45.89167,-9
45.90000,-9
45.90833,-9
45.91667,-9
45.92500,-9
45.93333,-9
45.94167,-9
45.95000,-9
45.95833,-9
45.96667,-9
45.97500,-9
45.98333,-9
45.99167,-9
46.00000,-10
46.00833,-10
46.01667,-11
46.02500,-11
46.03333,-11
46.04167,-11
46.05000,-11
46.05833,-11
46.06667,-12
46.07500,-12
46.08333,-12
46.09167,-12
46.10000,-12
46.10833,-13
46.11667,-13
46.12500,-13
46.13333,-14
46.14167,-14
46.15000,-14
46.15833,-15
46.16667,-15
46.17500,-15
46.18333,-15
46.19167,-14
46.20000,-14
46.20833,-15
46.21667,-15
46.22500,-15
46.23333,-15
46.24167,-15
46.25000,-15
46.25833,-15
46.26667,-16
46.27500,-16
46.28333,-17
46.29167,-17
46.30000,-17
46.30833,-18
46.31667,-18
46.32500,-18
46.33333,-18
46.34167,-18
46.35000,-18
46.35833,-18
46.36667,-18
46.37500,-18
46.38333,-18
46.39167,-19
46.40000,-19
46.40833,-20
46.41667,-21
46.42500,-21
46.43333,-22
46.44167,-22
46.45000,-22
46.45833,-22
46.46667,-22
46.47500,-22
46.48333,-22
46.49167,-23
46.50000,-23
46.50833,-23
46.51667,-24
46.52500,-24
46.53333,-25
46.54167,-25
46.55000,-25
46.55833,-25
46.56667,-25
46.57500,-25
46.58333,-25
46.59167,-26
46.60000,-26
46.60833,-26
46.61667,-26
46.62500,-26
46.63333,-26
46.64167,-27
46.65000,-27
46.65833,-27
46.66667,-27
46.67500,-27
46.68333,-27
46.69167,-27
46.70000,-27
46.70833,-28
46.71667,-28
46.72500,-28
46.73333,-29
46.74167,-29
46.75000,-30
46.75833,-30
46.76667,-31
46.77500,-31
46.78333,-31
46.79167,-31
46.80000,-31
46.80833,-31
46.81667,-31
46.82500,-31
46.83333,-31
46.84167,-31
46.85000,-31
46.85833,-31
46.86667,-31
46.87500,-31
46.88333,-31
46.89167,-31
46.90000,-32
46.90833,-32
46.91667,-32
46.92500,-32
46.93333,-32
46.94167,-32
46.95000,-32
46.95833,-32
46.96667,-32
46.97500,-32
46.98333,-32
46.99167,-31
47.00000,-32
47.00833,-32
47.01667,-32
47.02500,-32
47.03333,-32
47.04167,-32
47.05000,-32
47.05833,-32
47.06667,-32
47.07500,-32
47.08333,-32
47.09167,-32
47.10000,-32
47.10833,-32
47.11667,-31
47.12500,-31
47.13333,-31
47.14167,-31
47.15000,-31
47.15833,-30
47.16667,-30
47.17500,-30
47.18333,-30
47.19167,-30
47.20000,-29
47.20833,-29
47.21667,-28
47.22500,-28
47.23333,-28
47.24167,-27
47.25000,-27
47.25833,-26
47.26667,-26
47.27500,-26
47.28333,-25
47.29167,-25
47.30000,-25
47.30833,-24
47.31667,-24
47.32500,-24
47.33333,-23
47.34167,-22
47.35000,-21
47.35833,-21
47.36667,-20
47.37500,-20
47.38333,-20
47.39167,-20
47.40000,-19
47.40833,-18
47.41667,-18
47.42500,-17
47.43333,-16
47.44167,-15
47.45000,-14
47.45833,-13
47.46667,-11
47.47500,-11
47.48333,-10
47.49167,-9
47.50000,-9
47.50833,-8
47.51667,-8
47.52500,-7
47.53333,-7
47.54167,-6
47.55000,-6
47.55833,-5
47.56667,-4
47.57500,-3
47.58333,-2
47.59167,-2
47.60000,-1
47.60833,0
47.61667,1
47.62500,2
47.63333,3
47.64167,4
47.65000,4
47.65833,5
47.66667,6
47.67500,7
47.68333,8
47.69167,9
47.70000,10
47.70833,10
47.71667,11
47.72500,11
47.73333,12
47.74167,13
47.75000,14
47.75833,14
47.76667,15
47.77500,16
47.78333,17
47.79167,17
47.80000,18
47.80833,19
47.81667,20
47.82500,21
47.83333,21
47.84167,22
47.85000,23
47.85833,24
47.86667,24
47.87500,25
47.88333,25
47.89167,26
47.90000,27
47.90833,28
47.91667,28
47.92500,29
47.93333,29
47.94167,30
47.95000,30
47.95833,30
47.96667,31
47.97500,31
47.98333,32
47.99167,33
48.00000,33
48.00833,34
48.01667,35
48.02500,36
48.03333,36
48.04167,37
48.05000,37
48.05833,38
48.06667,38
48.07500,39
48.08333,39
48.09167,40
48.10000,40
48.10833,40
48.11667,40
48.12500,41
48.13333,41
48.14167,42
48.15000,42
48.15833,43
48.16667,43
48.17500,43
48.18333,43
48.19167,44
48.20000,44
48.20833,44
48.21667,44
48.22500,45
48.23333,45
48.24167,45
48.25000,46
48.25833,46
48.26667,46
48.27500,46
48.28333,47
48.29167,47
48.30000,47
48.30833,47
48.31667,47
48.32500,47
48.33333,48
48.34167,48
48.35000,48
48.35833,48
48.36667,49
48.37500,49
48.38333,49
48.39167,49
48.40000,49
48.40833,50
48.41667,50
48.42500,50
48.43333,50
48.44167,49
48.45000,49
48.45833,49
48.46667,49
48.47500,50
48.48333,50
48.49167,51
48.50000,51
48.50833,51
48.51667,50
48.52500,50
48.53333,50
48.54167,50
48.55000,50
48.55833,50
48.56667,50
48.57500,50
48.58333,51
48.59167,51
48.60000,51
48.60833,51
48.61667,51
48.62500,51
48.63333,51
48.64167,51
48.65000,51
48.65833,51
48.66667,51
48.67500,52
48.68333,52
48.69167,51
48.70000,51
48.70833,51
48.71667,51
48.72500,51
48.73333,51
48.74167,51
48.75000,51
48.75833,52
48.76667,52
48.77500,51
48.78333,51
48.79167,51
48.80000,51
48.80833,51
48.81667,51
48.82500,51
48.83333,51
48.84167,52
48.85000,52
48.85833,52
48.86667,52
48.87500,52
48.88333,52
48.89167,52
48.90000,52
48.90833,52
48.91667,52
48.92500,52
48.93333,52
48.94167,52
48.95000,52
48.95833,52
48.96667,53
48.97500,53
48.98333,53
48.99167,53
49.00000,53
49.00833,53
49.01667,53
49.02500,54
49.03333,53
49.04167,53
49.05000,53
49.05833,53
49.06667,53
49.07500,53
49.08333,53
49.09167,53
49.10000,53
49.10833,54
49.11667,54
49.12500,54
49.13333,54
49.14167,54
49.15000,54
49.15833,54
49.16667,54
49.17500,54
49.18333,54
49.19167,53
49.20000,53
49.20833,53
49.21667,53
49.22500,52
49.23333,53
49.24167,53
49.25000,53
49.25833,53
49.26667,52
49.27500,52
49.28333,52
49.29167,52
49.30000,52
49.30833,52
49.31667,52
49.32500,52
49.33333,52
49.34167,52
49.35000,52
49.35833,52
49.36667,52
49.37500,52
49.38333,52
49.39167,52
49.40000,52
49.40833,52
49.41667,52
49.42500,52
49.43333,52
49.44167,52
49.45000,51
49.45833,51
49.46667,51
49.47500,51
49.48333,50
49.49167,50
49.50000,50
49.50833,49
49.51667,49
49.52500,49
49.53333,48
49.54167,48
49.55000,47
49.55833,47
49.56667,47
49.57500,47
49.58333,47
49.59167,47
49.60000,46
49.60833,46
49.61667,45
49.62500,45
49.63333,44
49.64167,44
49.65000,44
49.65833,44
49.66667,44
49.67500,43
49.68333,43
49.69167,43
49.70000,42
49.70833,42
49.71667,41
49.72500,41
49.73333,41
49.74167,40
49.75000,39
49.75833,39
49.76667,38
49.77500,38
49.78333,37
49.79167,36
49.80000,36
49.80833,36
49.81667,35
49.82500,35
49.83333,34
49.84167,34
49.85000,33
49.85833,33
49.86667,32
49.87500,32
49.88333,31
49.89167,30
49.90000,29
49.90833,29
49.91667,28
49.92500,27
49.93333,26
49.94167,25
49.95000,25
49.95833,24
49.96667,24
49.97500,23
49.98333,23
49.99167,22
50.00000,22

