[Header]
Application Name,LabSolutions
Version,5.97 SP1
Data File Name,C:\Users\cremerlab\Desktop\Richa\Sep_6th_2022_re-run_Sep2nd\Sep 6th_962022_004_005.lcd
Output Date,9/6/2022
Output Time,8:33:22 PM

[File Information]
Type,Data File
Generated,9/6/2022 7:43:02 PM
Generated by,System Administrator
Modified,9/6/2022 8:33:22 PM
Modified by,System Administrator

[Sample Information]
Operator Name,System Administrator
Acquired,9/6/2022 7:43:20 PM
Sample Type,0:Unknown
Level,0
Sample Name,090622_B.fragilis_4
Sample ID,004
ISTD Amount1,1
ISTD Amount2,1
ISTD Amount3,1
ISTD Amount4,1
ISTD Amount5,1
ISTD Amount6,1
ISTD Amount7,1
ISTD Amount8,1
ISTD Amount9,1
ISTD Amount10,1
ISTD Amount11,1
ISTD Amount12,1
ISTD Amount13,1
ISTD Amount14,1
ISTD Amount15,1
ISTD Amount16,1
ISTD Amount17,1
ISTD Amount18,1
ISTD Amount19,1
ISTD Amount20,1
ISTD Amount21,1
ISTD Amount22,1
ISTD Amount23,1
ISTD Amount24,1
ISTD Amount25,1
ISTD Amount26,1
ISTD Amount27,1
ISTD Amount28,1
ISTD Amount29,1
ISTD Amount30,1
ISTD Amount31,1
ISTD Amount32,1
Sample Amount,1
Dilution Factor,1
Vial#,4
Injection Volume,20

[Original Files]
Data File,C:\Users\cremerlab\Desktop\Richa\Sep_6th_2022_re-run_Sep2nd\Sep 6th_962022_004_005.lcd
Method File,C:\Users\cremerlab\Desktop\Richa\acetate_excretion.lcm
Batch File,C:\Users\cremerlab\Desktop\Richa\Sep_6th_2022_re-run_Sep2nd\Sep 6th.lcb
Report Format File,c:\LabSolutions\System\DEFAULT.lsr

[File Description]


[Configuration]
Instrument Name,HPLC-PC-Instrument1
Instrument #,1
Line #,1
# of Detectors,2
Detector ID,Detector A,Detector B
Detector Name,Detector A,Detector B
# of Channels,1,1

[Peak Table(Detector A)]
# of Peaks,0

[Peak Table(Detector B)]
# of Peaks,13
Peak#,R.Time,I.Time,F.Time,Area,Height,A/H,Conc.,Mark,ID#,Name,k',Plate #,Plate Ht.,Tailing,Resolution,Sep.Factor,Area Ratio,Height Ratio,Conc. %,Norm Conc.
1,10.467,10.267,10.508,1504,201,7.479,0.000,   ,,,0.000,7732,19.399,0.000,0.000,0.000,0,0,0.000,0.000
2,11.021,10.508,12.292,2328582,118934,19.579,0.000, V ,,,0.053,7516,19.957,0.962,1.125,0.000,0,0,0.000,0.000
3,14.341,12.642,15.175,3679108,78271,47.005,0.000,   ,,,0.370,2471,60.699,0.654,3.995,6.995,0,0,0.000,0.000
4,15.756,15.175,18.408,1400945,47417,29.545,0.000,SV ,,,0.505,6905,21.724,1.143,1.479,1.365,0,0,0.000,0.000
5,17.853,17.425,18.375,7405,257,28.843,0.000,T  ,,,0.706,8268,18.141,1.091,2.717,1.396,0,0,0.000,0.000
6,19.117,18.433,19.758,12251,295,41.555,0.000,   ,,,0.826,4407,34.040,0.960,1.305,1.171,0,0,0.000,0.000
7,20.296,19.758,20.542,18280,616,29.660,0.000,   ,,,0.939,3061,49.004,0.000,0.900,1.136,0,0,0.000,0.000
8,20.961,20.542,21.367,38161,892,42.766,0.000, V ,,,1.003,1079,138.967,0.000,0.331,1.068,0,0,0.000,0.000
9,21.674,21.367,22.550,37882,879,43.109,0.000, V ,,,1.071,1212,123.799,0.000,0.283,1.068,0,0,0.000,0.000
10,23.141,22.567,24.200,16793,321,52.243,0.000,   ,,,1.211,6420,23.364,0.000,0.805,1.131,0,0,0.000,0.000
11,25.074,24.200,26.508,172576,4059,42.521,0.000, V ,,,1.396,8703,17.236,1.120,1.733,1.152,0,0,0.000,0.000
12,29.205,28.342,30.308,139352,2995,46.526,0.000,   ,,,1.790,9235,16.242,1.063,3.607,1.283,0,0,0.000,0.000
13,32.537,31.758,34.292,28745,353,81.472,0.000,   ,,,2.109,3324,45.126,1.535,1.919,1.178,0,0,0.000,0.000

[LC Chromatogram(Detector B-Ch1)]
Interval(msec),500
# of Points,6001
Start Time(min),0.000
End Time(min),50.000
Intensity Units,mV
Intensity Multiplier,0.001
R.Time (min),Intensity
0.00000,-26
0.00833,-26
0.01667,-13
0.02500,-1
0.03333,-1
0.04167,-2
0.05000,-2
0.05833,-3
0.06667,-3
0.07500,-3
0.08333,-4
0.09167,-5
0.10000,-6
0.10833,-6
0.11667,-7
0.12500,-7
0.13333,-8
0.14167,-9
0.15000,-9
0.15833,-10
0.16667,-10
0.17500,-11
0.18333,-11
0.19167,-12
0.20000,-12
0.20833,-12
0.21667,-13
0.22500,-13
0.23333,-14
0.24167,-14
0.25000,-14
0.25833,-15
0.26667,-15
0.27500,-16
0.28333,-16
0.29167,-17
0.30000,-17
0.30833,-18
0.31667,-18
0.32500,-18
0.33333,-18
0.34167,-19
0.35000,-19
0.35833,-20
0.36667,-20
0.37500,-21
0.38333,-21
0.39167,-21
0.40000,-21
0.40833,-22
0.41667,-22
0.42500,-23
0.43333,-23
0.44167,-24
0.45000,-24
0.45833,-24
0.46667,-24
0.47500,-24
0.48333,-24
0.49167,-24
0.50000,-24
0.50833,-24
0.51667,-25
0.52500,-25
0.53333,-25
0.54167,-25
0.55000,-25
0.55833,-25
0.56667,-25
0.57500,-25
0.58333,-25
0.59167,-25
0.60000,-26
0.60833,-26
0.61667,-26
0.62500,-26
0.63333,-26
0.64167,-26
0.65000,-27
0.65833,-27
0.66667,-27
0.67500,-27
0.68333,-27
0.69167,-27
0.70000,-28
0.70833,-28
0.71667,-28
0.72500,-28
0.73333,-28
0.74167,-28
0.75000,-28
0.75833,-28
0.76667,-29
0.77500,-29
0.78333,-28
0.79167,-28
0.80000,-28
0.80833,-28
0.81667,-28
0.82500,-28
0.83333,-28
0.84167,-28
0.85000,-28
0.85833,-28
0.86667,-27
0.87500,-27
0.88333,-27
0.89167,-27
0.90000,-27
0.90833,-28
0.91667,-28
0.92500,-28
0.93333,-28
0.94167,-29
0.95000,-29
0.95833,-28
0.96667,-28
0.97500,-28
0.98333,-28
0.99167,-28
1.00000,-27
1.00833,-27
1.01667,-27
1.02500,-26
1.03333,-26
1.04167,-25
1.05000,-25
1.05833,-24
1.06667,-24
1.07500,-24
1.08333,-24
1.09167,-24
1.10000,-24
1.10833,-23
1.11667,-23
1.12500,-23
1.13333,-23
1.14167,-23
1.15000,-23
1.15833,-23
1.16667,-23
1.17500,-23
1.18333,-23
1.19167,-22
1.20000,-22
1.20833,-22
1.21667,-23
1.22500,-23
1.23333,-23
1.24167,-23
1.25000,-22
1.25833,-22
1.26667,-22
1.27500,-22
1.28333,-21
1.29167,-21
1.30000,-21
1.30833,-20
1.31667,-20
1.32500,-20
1.33333,-19
1.34167,-19
1.35000,-20
1.35833,-20
1.36667,-20
1.37500,-19
1.38333,-19
1.39167,-19
1.40000,-19
1.40833,-18
1.41667,-18
1.42500,-18
1.43333,-18
1.44167,-17
1.45000,-17
1.45833,-17
1.46667,-17
1.47500,-17
1.48333,-17
1.49167,-17
1.50000,-16
1.50833,-16
1.51667,-16
1.52500,-16
1.53333,-16
1.54167,-15
1.55000,-15
1.55833,-15
1.56667,-16
1.57500,-16
1.58333,-16
1.59167,-15
1.60000,-15
1.60833,-15
1.61667,-14
1.62500,-14
1.63333,-14
1.64167,-14
1.65000,-14
1.65833,-14
1.66667,-13
1.67500,-13
1.68333,-13
1.69167,-13
1.70000,-13
1.70833,-13
1.71667,-13
1.72500,-13
1.73333,-12
1.74167,-12
1.75000,-12
1.75833,-12
1.76667,-11
1.77500,-11
1.78333,-11
1.79167,-11
1.80000,-11
1.80833,-11
1.81667,-11
1.82500,-11
1.83333,-11
1.84167,-11
1.85000,-11
1.85833,-11
1.86667,-11
1.87500,-11
1.88333,-11
1.89167,-11
1.90000,-11
1.90833,-11
1.91667,-11
1.92500,-11
1.93333,-11
1.94167,-10
1.95000,-11
1.95833,-10
1.96667,-10
1.97500,-10
1.98333,-10
1.99167,-10
2.00000,-10
2.00833,-10
2.01667,-10
2.02500,-10
2.03333,-10
2.04167,-10
2.05000,-10
2.05833,-9
2.06667,-10
2.07500,-10
2.08333,-10
2.09167,-10
2.10000,-10
2.10833,-10
2.11667,-10
2.12500,-10
2.13333,-9
2.14167,-9
2.15000,-10
2.15833,-10
2.16667,-10
2.17500,-10
2.18333,-10
2.19167,-10
2.20000,-10
2.20833,-10
2.21667,-10
2.22500,-10
2.23333,-10
2.24167,-10
2.25000,-10
2.25833,-10
2.26667,-9
2.27500,-9
2.28333,-10
2.29167,-10
2.30000,-10
2.30833,-11
2.31667,-10
2.32500,-10
2.33333,-11
2.34167,-11
2.35000,-11
2.35833,-11
2.36667,-11
2.37500,-12
2.38333,-12
2.39167,-12
2.40000,-12
2.40833,-11
2.41667,-12
2.42500,-12
2.43333,-12
2.44167,-12
2.45000,-12
2.45833,-12
2.46667,-12
2.47500,-12
2.48333,-12
2.49167,-13
2.50000,-13
2.50833,-13
2.51667,-14
2.52500,-13
2.53333,-13
2.54167,-14
2.55000,-14
2.55833,-14
2.56667,-13
2.57500,-13
2.58333,-13
2.59167,-13
2.60000,-13
2.60833,-14
2.61667,-14
2.62500,-14
2.63333,-14
2.64167,-15
2.65000,-15
2.65833,-15
2.66667,-15
2.67500,-15
2.68333,-15
2.69167,-15
2.70000,-15
2.70833,-15
2.71667,-16
2.72500,-16
2.73333,-16
2.74167,-16
2.75000,-16
2.75833,-16
2.76667,-17
2.77500,-17
2.78333,-17
2.79167,-17
2.80000,-17
2.80833,-17
2.81667,-17
2.82500,-17
2.83333,-18
2.84167,-18
2.85000,-18
2.85833,-18
2.86667,-19
2.87500,-19
2.88333,-19
2.89167,-19
2.90000,-19
2.90833,-19
2.91667,-19
2.92500,-19
2.93333,-19
2.94167,-19
2.95000,-19
2.95833,-18
2.96667,-18
2.97500,-18
2.98333,-19
2.99167,-19
3.00000,-19
3.00833,-19
3.01667,-19
3.02500,-19
3.03333,-19
3.04167,-20
3.05000,-20
3.05833,-20
3.06667,-20
3.07500,-20
3.08333,-19
3.09167,-19
3.10000,-20
3.10833,-19
3.11667,-19
3.12500,-20
3.13333,-20
3.14167,-20
3.15000,-20
3.15833,-20
3.16667,-20
3.17500,-20
3.18333,-20
3.19167,-20
3.20000,-20
3.20833,-20
3.21667,-20
3.22500,-20
3.23333,-20
3.24167,-20
3.25000,-20
3.25833,-20
3.26667,-20
3.27500,-19
3.28333,-19
3.29167,-19
3.30000,-19
3.30833,-19
3.31667,-19
3.32500,-19
3.33333,-19
3.34167,-19
3.35000,-19
3.35833,-19
3.36667,-19
3.37500,-19
3.38333,-19
3.39167,-19
3.40000,-19
3.40833,-19
3.41667,-19
3.42500,-20
3.43333,-20
3.44167,-20
3.45000,-20
3.45833,-20
3.46667,-20
3.47500,-20
3.48333,-19
3.49167,-19
3.50000,-19
3.50833,-19
3.51667,-18
3.52500,-18
3.53333,-18
3.54167,-18
3.55000,-18
3.55833,-18
3.56667,-17
3.57500,-17
3.58333,-17
3.59167,-17
3.60000,-17
3.60833,-17
3.61667,-17
3.62500,-17
3.63333,-17
3.64167,-16
3.65000,-16
3.65833,-16
3.66667,-16
3.67500,-16
3.68333,-16
3.69167,-16
3.70000,-16
3.70833,-16
3.71667,-16
3.72500,-16
3.73333,-15
3.74167,-15
3.75000,-14
3.75833,-14
3.76667,-14
3.77500,-13
3.78333,-13
3.79167,-13
3.80000,-12
3.80833,-12
3.81667,-12
3.82500,-12
3.83333,-13
3.84167,-13
3.85000,-12
3.85833,-12
3.86667,-12
3.87500,-11
3.88333,-10
3.89167,-10
3.90000,-9
3.90833,-9
3.91667,-9
3.92500,-9
3.93333,-9
3.94167,-8
3.95000,-8
3.95833,-7
3.96667,-7
3.97500,-6
3.98333,-6
3.99167,-6
4.00000,-6
4.00833,-5
4.01667,-5
4.02500,-4
4.03333,-4
4.04167,-4
4.05000,-3
4.05833,-3
4.06667,-3
4.07500,-2
4.08333,-2
4.09167,-2
4.10000,-1
4.10833,-0
4.11667,-0
4.12500,1
4.13333,1
4.14167,1
4.15000,2
4.15833,2
4.16667,2
4.17500,3
4.18333,4
4.19167,4
4.20000,5
4.20833,5
4.21667,6
4.22500,7
4.23333,7
4.24167,8
4.25000,9
4.25833,10
4.26667,10
4.27500,10
4.28333,11
4.29167,11
4.30000,12
4.30833,12
4.31667,13
4.32500,14
4.33333,14
4.34167,15
4.35000,16
4.35833,17
4.36667,18
4.37500,19
4.38333,19
4.39167,20
4.40000,20
4.40833,20
4.41667,20
4.42500,21
4.43333,21
4.44167,22
4.45000,23
4.45833,24
4.46667,25
4.47500,26
4.48333,26
4.49167,27
4.50000,27
4.50833,28
4.51667,28
4.52500,29
4.53333,30
4.54167,30
4.55000,31
4.55833,31
4.56667,32
4.57500,32
4.58333,32
4.59167,33
4.60000,33
4.60833,34
4.61667,35
4.62500,35
4.63333,36
4.64167,37
4.65000,38
4.65833,38
4.66667,39
4.67500,40
4.68333,40
4.69167,41
4.70000,41
4.70833,42
4.71667,42
4.72500,42
4.73333,43
4.74167,43
4.75000,43
4.75833,44
4.76667,44
4.77500,44
4.78333,44
4.79167,45
4.80000,45
4.80833,45
4.81667,46
4.82500,46
4.83333,47
4.84167,47
4.85000,47
4.85833,47
4.86667,47
4.87500,47
4.88333,47
4.89167,47
4.90000,47
4.90833,48
4.91667,48
4.92500,48
4.93333,49
4.94167,49
4.95000,49
4.95833,49
4.96667,50
4.97500,50
4.98333,50
4.99167,49
5.00000,49
5.00833,49
5.01667,49
5.02500,49
5.03333,49
5.04167,50
5.05000,50
5.05833,51
5.06667,51
5.07500,51
5.08333,51
5.09167,51
5.10000,50
5.10833,50
5.11667,50
5.12500,49
5.13333,49
5.14167,48
5.15000,48
5.15833,48
5.16667,48
5.17500,48
5.18333,47
5.19167,47
5.20000,47
5.20833,47
5.21667,47
5.22500,47
5.23333,47
5.24167,47
5.25000,46
5.25833,46
5.26667,45
5.27500,45
5.28333,45
5.29167,45
5.30000,44
5.30833,44
5.31667,43
5.32500,43
5.33333,42
5.34167,42
5.35000,42
5.35833,42
5.36667,41
5.37500,41
5.38333,40
5.39167,39
5.40000,39
5.40833,38
5.41667,37
5.42500,37
5.43333,37
5.44167,37
5.45000,36
5.45833,35
5.46667,35
5.47500,34
5.48333,34
5.49167,33
5.50000,32
5.50833,32
5.51667,31
5.52500,30
5.53333,29
5.54167,29
5.55000,29
5.55833,29
5.56667,28
5.57500,27
5.58333,26
5.59167,26
5.60000,25
5.60833,24
5.61667,24
5.62500,24
5.63333,24
5.64167,24
5.65000,23
5.65833,22
5.66667,21
5.67500,20
5.68333,19
5.69167,18
5.70000,17
5.70833,16
5.71667,16
5.72500,15
5.73333,15
5.74167,14
5.75000,13
5.75833,12
5.76667,11
5.77500,11
5.78333,10
5.79167,9
5.80000,9
5.80833,8
5.81667,8
5.82500,7
5.83333,6
5.84167,6
5.85000,5
5.85833,4
5.86667,3
5.87500,2
5.88333,1
5.89167,0
5.90000,-0
5.90833,-1
5.91667,-2
5.92500,-3
5.93333,-4
5.94167,-5
5.95000,-6
5.95833,-7
5.96667,-8
5.97500,-9
5.98333,-10
5.99167,-10
6.00000,-11
6.00833,-12
6.01667,-12
6.02500,-13
6.03333,-13
6.04167,-14
6.05000,-15
6.05833,-16
6.06667,-17
6.07500,-17
6.08333,-18
6.09167,-19
6.10000,-20
6.10833,-21
6.11667,-22
6.12500,-23
6.13333,-24
6.14167,-25
6.15000,-26
6.15833,-26
6.16667,-27
6.17500,-27
6.18333,-28
6.19167,-28
6.20000,-29
6.20833,-29
6.21667,-30
6.22500,-31
6.23333,-31
6.24167,-31
6.25000,-32
6.25833,-32
6.26667,-32
6.27500,-33
6.28333,-33
6.29167,-34
6.30000,-34
6.30833,-35
6.31667,-36
6.32500,-36
6.33333,-37
6.34167,-38
6.35000,-38
6.35833,-39
6.36667,-40
6.37500,-40
6.38333,-40
6.39167,-40
6.40000,-40
6.40833,-41
6.41667,-41
6.42500,-42
6.43333,-43
6.44167,-43
6.45000,-43
6.45833,-44
6.46667,-44
6.47500,-45
6.48333,-45
6.49167,-45
6.50000,-45
6.50833,-46
6.51667,-46
6.52500,-47
6.53333,-47
6.54167,-48
6.55000,-48
6.55833,-48
6.56667,-48
6.57500,-48
6.58333,-49
6.59167,-49
6.60000,-49
6.60833,-50
6.61667,-50
6.62500,-51
6.63333,-51
6.64167,-51
6.65000,-51
6.65833,-51
6.66667,-51
6.67500,-51
6.68333,-51
6.69167,-51
6.70000,-51
6.70833,-51
6.71667,-51
6.72500,-52
6.73333,-52
6.74167,-52
6.75000,-52
6.75833,-52
6.76667,-52
6.77500,-52
6.78333,-52
6.79167,-52
6.80000,-52
6.80833,-53
6.81667,-53
6.82500,-53
6.83333,-53
6.84167,-53
6.85000,-53
6.85833,-54
6.86667,-53
6.87500,-54
6.88333,-54
6.89167,-54
6.90000,-54
6.90833,-54
6.91667,-55
6.92500,-55
6.93333,-55
6.94167,-56
6.95000,-56
6.95833,-55
6.96667,-55
6.97500,-55
6.98333,-55
6.99167,-54
7.00000,-54
7.00833,-54
7.01667,-54
7.02500,-54
7.03333,-55
7.04167,-55
7.05000,-55
7.05833,-56
7.06667,-56
7.07500,-55
7.08333,-55
7.09167,-55
7.10000,-55
7.10833,-56
7.11667,-56
7.12500,-56
7.13333,-56
7.14167,-56
7.15000,-56
7.15833,-56
7.16667,-56
7.17500,-56
7.18333,-56
7.19167,-56
7.20000,-56
7.20833,-56
7.21667,-56
7.22500,-56
7.23333,-56
7.24167,-56
7.25000,-56
7.25833,-56
7.26667,-56
7.27500,-56
7.28333,-55
7.29167,-55
7.30000,-56
7.30833,-56
7.31667,-56
7.32500,-56
7.33333,-56
7.34167,-56
7.35000,-56
7.35833,-57
7.36667,-57
7.37500,-57
7.38333,-57
7.39167,-57
7.40000,-56
7.40833,-56
7.41667,-56
7.42500,-56
7.43333,-56
7.44167,-57
7.45000,-57
7.45833,-57
7.46667,-56
7.47500,-56
7.48333,-56
7.49167,-56
7.50000,-56
7.50833,-57
7.51667,-57
7.52500,-57
7.53333,-57
7.54167,-57
7.55000,-57
7.55833,-56
7.56667,-56
7.57500,-56
7.58333,-56
7.59167,-57
7.60000,-57
7.60833,-57
7.61667,-57
7.62500,-57
7.63333,-57
7.64167,-57
7.65000,-57
7.65833,-57
7.66667,-57
7.67500,-57
7.68333,-57
7.69167,-57
7.70000,-57
7.70833,-57
7.71667,-57
7.72500,-58
7.73333,-58
7.74167,-57
7.75000,-57
7.75833,-57
7.76667,-58
7.77500,-58
7.78333,-58
7.79167,-58
7.80000,-58
7.80833,-58
7.81667,-58
7.82500,-58
7.83333,-58
7.84167,-58
7.85000,-58
7.85833,-58
7.86667,-58
7.87500,-58
7.88333,-58
7.89167,-58
7.90000,-58
7.90833,-58
7.91667,-59
7.92500,-59
7.93333,-58
7.94167,-58
7.95000,-58
7.95833,-57
7.96667,-57
7.97500,-57
7.98333,-57
7.99167,-57
8.00000,-57
8.00833,-58
8.01667,-58
8.02500,-58
8.03333,-57
8.04167,-57
8.05000,-58
8.05833,-58
8.06667,-59
8.07500,-59
8.08333,-59
8.09167,-59
8.10000,-59
8.10833,-59
8.11667,-59
8.12500,-59
8.13333,-59
8.14167,-59
8.15000,-59
8.15833,-59
8.16667,-59
8.17500,-59
8.18333,-58
8.19167,-58
8.20000,-58
8.20833,-58
8.21667,-58
8.22500,-59
8.23333,-58
8.24167,-59
8.25000,-59
8.25833,-59
8.26667,-59
8.27500,-59
8.28333,-59
8.29167,-59
8.30000,-59
8.30833,-59
8.31667,-58
8.32500,-58
8.33333,-57
8.34167,-57
8.35000,-57
8.35833,-58
8.36667,-58
8.37500,-58
8.38333,-59
8.39167,-59
8.40000,-59
8.40833,-60
8.41667,-59
8.42500,-59
8.43333,-59
8.44167,-59
8.45000,-59
8.45833,-59
8.46667,-59
8.47500,-59
8.48333,-59
8.49167,-59
8.50000,-59
8.50833,-59
8.51667,-59
8.52500,-59
8.53333,-59
8.54167,-60
8.55000,-60
8.55833,-60
8.56667,-60
8.57500,-60
8.58333,-59
8.59167,-59
8.60000,-59
8.60833,-59
8.61667,-59
8.62500,-59
8.63333,-58
8.64167,-58
8.65000,-58
8.65833,-59
8.66667,-59
8.67500,-59
8.68333,-59
8.69167,-59
8.70000,-59
8.70833,-60
8.71667,-59
8.72500,-60
8.73333,-60
8.74167,-60
8.75000,-60
8.75833,-60
8.76667,-60
8.77500,-60
8.78333,-60
8.79167,-60
8.80000,-60
8.80833,-59
8.81667,-59
8.82500,-59
8.83333,-59
8.84167,-60
8.85000,-60
8.85833,-60
8.86667,-60
8.87500,-60
8.88333,-60
8.89167,-60
8.90000,-60
8.90833,-60
8.91667,-60
8.92500,-60
8.93333,-60
8.94167,-60
8.95000,-60
8.95833,-60
8.96667,-60
8.97500,-60
8.98333,-59
8.99167,-59
9.00000,-59
9.00833,-59
9.01667,-60
9.02500,-60
9.03333,-60
9.04167,-59
9.05000,-59
9.05833,-59
9.06667,-59
9.07500,-59
9.08333,-59
9.09167,-59
9.10000,-59
9.10833,-59
9.11667,-59
9.12500,-59
9.13333,-59
9.14167,-58
9.15000,-58
9.15833,-57
9.16667,-57
9.17500,-57
9.18333,-57
9.19167,-57
9.20000,-58
9.20833,-58
9.21667,-58
9.22500,-58
9.23333,-59
9.24167,-59
9.25000,-59
9.25833,-59
9.26667,-59
9.27500,-59
9.28333,-59
9.29167,-58
9.30000,-58
9.30833,-58
9.31667,-58
9.32500,-58
9.33333,-58
9.34167,-58
9.35000,-58
9.35833,-58
9.36667,-58
9.37500,-59
9.38333,-59
9.39167,-58
9.40000,-58
9.40833,-58
9.41667,-58
9.42500,-58
9.43333,-59
9.44167,-59
9.45000,-59
9.45833,-59
9.46667,-58
9.47500,-58
9.48333,-58
9.49167,-59
9.50000,-58
9.50833,-58
9.51667,-57
9.52500,-57
9.53333,-57
9.54167,-57
9.55000,-57
9.55833,-57
9.56667,-57
9.57500,-57
9.58333,-57
9.59167,-57
9.60000,-57
9.60833,-57
9.61667,-57
9.62500,-57
9.63333,-57
9.64167,-57
9.65000,-57
9.65833,-57
9.66667,-57
9.67500,-56
9.68333,-56
9.69167,-56
9.70000,-56
9.70833,-57
9.71667,-57
9.72500,-56
9.73333,-56
9.74167,-56
9.75000,-56
9.75833,-56
9.76667,-56
9.77500,-56
9.78333,-56
9.79167,-56
9.80000,-56
9.80833,-56
9.81667,-56
9.82500,-56
9.83333,-56
9.84167,-56
9.85000,-57
9.85833,-56
9.86667,-56
9.87500,-56
9.88333,-55
9.89167,-55
9.90000,-55
9.90833,-55
9.91667,-55
9.92500,-55
9.93333,-55
9.94167,-54
9.95000,-54
9.95833,-54
9.96667,-54
9.97500,-54
9.98333,-54
9.99167,-53
10.00000,-53
10.00833,-53
10.01667,-53
10.02500,-53
10.03333,-53
10.04167,-53
10.05000,-52
10.05833,-52
10.06667,-52
10.07500,-52
10.08333,-51
10.09167,-51
10.10000,-51
10.10833,-51
10.11667,-50
10.12500,-49
10.13333,-49
10.14167,-48
10.15000,-47
10.15833,-46
10.16667,-45
10.17500,-44
10.18333,-43
10.19167,-42
10.20000,-40
10.20833,-39
10.21667,-37
10.22500,-36
10.23333,-34
10.24167,-32
10.25000,-30
10.25833,-27
10.26667,-25
10.27500,-22
10.28333,-19
10.29167,-15
10.30000,-10
10.30833,-5
10.31667,1
10.32500,9
10.33333,17
10.34167,27
10.35000,38
10.35833,50
10.36667,65
10.37500,81
10.38333,98
10.39167,116
10.40000,134
10.40833,153
10.41667,170
10.42500,187
10.43333,203
10.44167,216
10.45000,226
10.45833,233
10.46667,237
10.47500,238
10.48333,236
10.49167,233
10.50000,230
10.50833,229
10.51667,232
10.52500,244
10.53333,267
10.54167,306
10.55000,365
10.55833,450
10.56667,565
10.57500,718
10.58333,912
10.59167,1156
10.60000,1455
10.60833,1816
10.61667,2243
10.62500,2744
10.63333,3323
10.64167,3987
10.65000,4740
10.65833,5588
10.66667,6535
10.67500,7586
10.68333,8743
10.69167,10012
10.70000,11395
10.70833,12894
10.71667,14512
10.72500,16251
10.73333,18112
10.74167,20096
10.75000,22204
10.75833,24436
10.76667,26792
10.77500,29271
10.78333,31873
10.79167,34596
10.80000,37437
10.80833,40395
10.81667,43467
10.82500,46648
10.83333,49935
10.84167,53322
10.85000,56805
10.85833,60376
10.86667,64028
10.87500,67751
10.88333,71533
10.89167,75362
10.90000,79222
10.90833,83095
10.91667,86959
10.92500,90790
10.93333,94558
10.94167,98229
10.95000,101765
10.95833,105122
10.96667,108251
10.97500,111100
10.98333,113612
10.99167,115729
11.00000,117393
11.00833,118547
11.01667,119138
11.02500,119119
11.03333,118455
11.04167,117123
11.05000,115115
11.05833,112444
11.06667,109138
11.07500,105245
11.08333,100830
11.09167,95972
11.10000,90761
11.10833,85294
11.11667,79669
11.12500,73985
11.13333,68332
11.14167,62792
11.15000,57434
11.15833,52315
11.16667,47479
11.17500,42957
11.18333,38768
11.19167,34921
11.20000,31413
11.20833,28237
11.21667,25379
11.22500,22820
11.23333,20540
11.24167,18516
11.25000,16724
11.25833,15142
11.26667,13747
11.27500,12519
11.28333,11440
11.29167,10491
11.30000,9655
11.30833,8919
11.31667,8270
11.32500,7695
11.33333,7185
11.34167,6732
11.35000,6327
11.35833,5964
11.36667,5638
11.37500,5343
11.38333,5076
11.39167,4833
11.40000,4611
11.40833,4407
11.41667,4218
11.42500,4044
11.43333,3882
11.44167,3730
11.45000,3588
11.45833,3455
11.46667,3329
11.47500,3210
11.48333,3098
11.49167,2990
11.50000,2889
11.50833,2792
11.51667,2700
11.52500,2611
11.53333,2526
11.54167,2445
11.55000,2367
11.55833,2292
11.56667,2220
11.57500,2152
11.58333,2085
11.59167,2022
11.60000,1962
11.60833,1903
11.61667,1847
11.62500,1794
11.63333,1742
11.64167,1692
11.65000,1644
11.65833,1597
11.66667,1553
11.67500,1510
11.68333,1469
11.69167,1430
11.70000,1392
11.70833,1356
11.71667,1321
11.72500,1288
11.73333,1255
11.74167,1225
11.75000,1196
11.75833,1168
11.76667,1141
11.77500,1115
11.78333,1091
11.79167,1067
11.80000,1044
11.80833,1023
11.81667,1002
11.82500,982
11.83333,963
11.84167,945
11.85000,928
11.85833,911
11.86667,895
11.87500,880
11.88333,865
11.89167,851
11.90000,838
11.90833,825
11.91667,813
11.92500,801
11.93333,790
11.94167,779
11.95000,769
11.95833,759
11.96667,750
11.97500,740
11.98333,732
11.99167,723
12.00000,715
12.00833,707
12.01667,700
12.02500,694
12.03333,687
12.04167,681
12.05000,675
12.05833,669
12.06667,663
12.07500,657
12.08333,652
12.09167,647
12.10000,642
12.10833,637
12.11667,632
12.12500,628
12.13333,624
12.14167,620
12.15000,617
12.15833,614
12.16667,611
12.17500,608
12.18333,606
12.19167,603
12.20000,601
12.20833,599
12.21667,598
12.22500,596
12.23333,595
12.24167,594
12.25000,593
12.25833,591
12.26667,591
12.27500,590
12.28333,590
12.29167,590
12.30000,590
12.30833,589
12.31667,589
12.32500,588
12.33333,588
12.34167,588
12.35000,588
12.35833,588
12.36667,587
12.37500,587
12.38333,587
12.39167,586
12.40000,586
12.40833,586
12.41667,585
12.42500,585
12.43333,584
12.44167,583
12.45000,582
12.45833,581
12.46667,580
12.47500,579
12.48333,579
12.49167,578
12.50000,577
12.50833,576
12.51667,574
12.52500,572
12.53333,571
12.54167,569
12.55000,567
12.55833,565
12.56667,563
12.57500,562
12.58333,560
12.59167,558
12.60000,557
12.60833,555
12.61667,554
12.62500,553
12.63333,552
12.64167,552
12.65000,552
12.65833,552
12.66667,553
12.67500,555
12.68333,557
12.69167,561
12.70000,566
12.70833,572
12.71667,580
12.72500,590
12.73333,601
12.74167,616
12.75000,633
12.75833,652
12.76667,675
12.77500,701
12.78333,730
12.79167,764
12.80000,801
12.80833,842
12.81667,888
12.82500,938
12.83333,992
12.84167,1052
12.85000,1117
12.85833,1187
12.86667,1262
12.87500,1342
12.88333,1428
12.89167,1520
12.90000,1617
12.90833,1719
12.91667,1828
12.92500,1942
12.93333,2062
12.94167,2188
12.95000,2319
12.95833,2456
12.96667,2600
12.97500,2749
12.98333,2904
12.99167,3065
13.00000,3231
13.00833,3403
13.01667,3581
13.02500,3764
13.03333,3953
13.04167,4147
13.05000,4346
13.05833,4551
13.06667,4761
13.07500,4976
13.08333,5197
13.09167,5423
13.10000,5653
13.10833,5888
13.11667,6128
13.12500,6372
13.13333,6620
13.14167,6873
13.15000,7131
13.15833,7393
13.16667,7659
13.17500,7929
13.18333,8203
13.19167,8480
13.20000,8762
13.20833,9047
13.21667,9335
13.22500,9628
13.23333,9923
13.24167,10222
13.25000,10524
13.25833,10829
13.26667,11138
13.27500,11449
13.28333,11763
13.29167,12081
13.30000,12401
13.30833,12725
13.31667,13051
13.32500,13381
13.33333,13713
13.34167,14048
13.35000,14385
13.35833,14726
13.36667,15069
13.37500,15415
13.38333,15764
13.39167,16116
13.40000,16470
13.40833,16827
13.41667,17187
13.42500,17550
13.43333,17915
13.44167,18284
13.45000,18655
13.45833,19029
13.46667,19406
13.47500,19786
13.48333,20169
13.49167,20555
13.50000,20944
13.50833,21336
13.51667,21731
13.52500,22130
13.53333,22531
13.54167,22936
13.55000,23344
13.55833,23755
13.56667,24169
13.57500,24587
13.58333,25008
13.59167,25433
13.60000,25861
13.60833,26292
13.61667,26726
13.62500,27164
13.63333,27606
13.64167,28051
13.65000,28500
13.65833,28952
13.66667,29408
13.67500,29868
13.68333,30331
13.69167,30798
13.70000,31269
13.70833,31745
13.71667,32224
13.72500,32707
13.73333,33194
13.74167,33685
13.75000,34179
13.75833,34678
13.76667,35181
13.77500,35687
13.78333,36199
13.79167,36714
13.80000,37234
13.80833,37759
13.81667,38287
13.82500,38821
13.83333,39358
13.84167,39900
13.85000,40447
13.85833,40999
13.86667,41556
13.87500,42117
13.88333,42682
13.89167,43253
13.90000,43829
13.90833,44409
13.91667,44995
13.92500,45586
13.93333,46181
13.94167,46782
13.95000,47389
13.95833,48000
13.96667,48617
13.97500,49239
13.98333,49867
13.99167,50500
14.00000,51139
14.00833,51783
14.01667,52433
14.02500,53089
14.03333,53750
14.04167,54418
14.05000,55091
14.05833,55771
14.06667,56457
14.07500,57148
14.08333,57846
14.09167,58550
14.10000,59261
14.10833,59978
14.11667,60701
14.12500,61432
14.13333,62169
14.14167,62914
14.15000,63665
14.15833,64423
14.16667,65188
14.17500,65960
14.18333,66740
14.19167,67527
14.20000,68321
14.20833,69121
14.21667,69926
14.22500,70736
14.23333,71548
14.24167,72358
14.25000,73160
14.25833,73949
14.26667,74716
14.27500,75452
14.28333,76146
14.29167,76786
14.30000,77359
14.30833,77853
14.31667,78255
14.32500,78553
14.33333,78738
14.34167,78800
14.35000,78732
14.35833,78527
14.36667,78181
14.37500,77691
14.38333,77054
14.39167,76268
14.40000,75330
14.40833,74239
14.41667,72993
14.42500,71590
14.43333,70028
14.44167,68306
14.45000,66422
14.45833,64381
14.46667,62184
14.47500,59841
14.48333,57362
14.49167,54762
14.50000,52059
14.50833,49275
14.51667,46436
14.52500,43566
14.53333,40693
14.54167,37846
14.55000,35049
14.55833,32329
14.56667,29707
14.57500,27202
14.58333,24829
14.59167,22600
14.60000,20521
14.60833,18598
14.61667,16830
14.62500,15215
14.63333,13749
14.64167,12424
14.65000,11232
14.65833,10165
14.66667,9213
14.67500,8365
14.68333,7613
14.69167,6947
14.70000,6358
14.70833,5837
14.71667,5377
14.72500,4970
14.73333,4611
14.74167,4293
14.75000,4012
14.75833,3762
14.76667,3541
14.77500,3343
14.78333,3166
14.79167,3007
14.80000,2864
14.80833,2735
14.81667,2618
14.82500,2513
14.83333,2416
14.84167,2328
14.85000,2247
14.85833,2172
14.86667,2103
14.87500,2039
14.88333,1980
14.89167,1924
14.90000,1872
14.90833,1823
14.91667,1778
14.92500,1735
14.93333,1694
14.94167,1656
14.95000,1620
14.95833,1586
14.96667,1554
14.97500,1524
14.98333,1495
14.99167,1468
15.00000,1441
15.00833,1417
15.01667,1393
15.02500,1371
15.03333,1351
15.04167,1331
15.05000,1313
15.05833,1296
15.06667,1280
15.07500,1266
15.08333,1251
15.09167,1238
15.10000,1225
15.10833,1214
15.11667,1203
15.12500,1194
15.13333,1185
15.14167,1178
15.15000,1171
15.15833,1167
15.16667,1163
15.17500,1161
15.18333,1162
15.19167,1164
15.20000,1170
15.20833,1180
15.21667,1194
15.22500,1213
15.23333,1237
15.24167,1269
15.25000,1310
15.25833,1360
15.26667,1422
15.27500,1497
15.28333,1588
15.29167,1697
15.30000,1826
15.30833,1978
15.31667,2155
15.32500,2360
15.33333,2597
15.34167,2868
15.35000,3176
15.35833,3526
15.36667,3921
15.37500,4362
15.38333,4853
15.39167,5397
15.40000,5996
15.40833,6653
15.41667,7368
15.42500,8144
15.43333,8981
15.44167,9879
15.45000,10838
15.45833,11857
15.46667,12934
15.47500,14066
15.48333,15251
15.49167,16485
15.50000,17765
15.50833,19084
15.51667,20437
15.52500,21819
15.53333,23223
15.54167,24643
15.55000,26072
15.55833,27502
15.56667,28928
15.57500,30341
15.58333,31735
15.59167,33104
15.60000,34440
15.60833,35737
15.61667,36990
15.62500,38193
15.63333,39342
15.64167,40431
15.65000,41457
15.65833,42415
15.66667,43303
15.67500,44119
15.68333,44859
15.69167,45522
15.70000,46106
15.70833,46611
15.71667,47034
15.72500,47376
15.73333,47636
15.74167,47815
15.75000,47912
15.75833,47928
15.76667,47862
15.77500,47717
15.78333,47493
15.79167,47192
15.80000,46815
15.80833,46363
15.81667,45840
15.82500,45246
15.83333,44585
15.84167,43860
15.85000,43073
15.85833,42228
15.86667,41330
15.87500,40381
15.88333,39387
15.89167,38350
15.90000,37276
15.90833,36169
15.91667,35035
15.92500,33877
15.93333,32701
15.94167,31511
15.95000,30314
15.95833,29112
15.96667,27912
15.97500,26716
15.98333,25530
15.99167,24358
16.00000,23203
16.00833,22069
16.01667,20960
16.02500,19877
16.03333,18823
16.04167,17801
16.05000,16812
16.05833,15860
16.06667,14944
16.07500,14065
16.08333,13225
16.09167,12424
16.10000,11661
16.10833,10936
16.11667,10250
16.12500,9602
16.13333,8991
16.14167,8415
16.15000,7875
16.15833,7370
16.16667,6897
16.17500,6456
16.18333,6044
16.19167,5662
16.20000,5308
16.20833,4979
16.21667,4675
16.22500,4394
16.23333,4134
16.24167,3895
16.25000,3674
16.25833,3471
16.26667,3284
16.27500,3113
16.28333,2956
16.29167,2811
16.30000,2679
16.30833,2557
16.31667,2446
16.32500,2344
16.33333,2251
16.34167,2165
16.35000,2086
16.35833,2014
16.36667,1948
16.37500,1887
16.38333,1830
16.39167,1778
16.40000,1730
16.40833,1685
16.41667,1644
16.42500,1606
16.43333,1571
16.44167,1537
16.45000,1506
16.45833,1476
16.46667,1448
16.47500,1421
16.48333,1396
16.49167,1373
16.50000,1351
16.50833,1330
16.51667,1309
16.52500,1289
16.53333,1270
16.54167,1251
16.55000,1232
16.55833,1214
16.56667,1197
16.57500,1180
16.58333,1163
16.59167,1147
16.60000,1131
16.60833,1115
16.61667,1099
16.62500,1084
16.63333,1069
16.64167,1054
16.65000,1040
16.65833,1025
16.66667,1012
16.67500,998
16.68333,985
16.69167,972
16.70000,960
16.70833,948
16.71667,937
16.72500,926
16.73333,916
16.74167,906
16.75000,897
16.75833,888
16.76667,879
16.77500,871
16.78333,863
16.79167,856
16.80000,848
16.80833,842
16.81667,836
16.82500,830
16.83333,825
16.84167,820
16.85000,815
16.85833,811
16.86667,807
16.87500,804
16.88333,801
16.89167,798
16.90000,795
16.90833,792
16.91667,790
16.92500,787
16.93333,785
16.94167,782
16.95000,780
16.95833,778
16.96667,776
16.97500,774
16.98333,772
16.99167,770
17.00000,768
17.00833,766
17.01667,764
17.02500,762
17.03333,759
17.04167,757
17.05000,755
17.05833,753
17.06667,751
17.07500,749
17.08333,747
17.09167,745
17.10000,742
17.10833,740
17.11667,738
17.12500,735
17.13333,732
17.14167,730
17.15000,728
17.15833,725
17.16667,723
17.17500,720
17.18333,717
17.19167,714
17.20000,711
17.20833,707
17.21667,704
17.22500,701
17.23333,698
17.24167,694
17.25000,691
17.25833,687
17.26667,684
17.27500,680
17.28333,676
17.29167,673
17.30000,669
17.30833,666
17.31667,662
17.32500,659
17.33333,656
17.34167,653
17.35000,650
17.35833,648
17.36667,645
17.37500,643
17.38333,641
17.39167,639
17.40000,637
17.40833,636
17.41667,635
17.42500,634
17.43333,634
17.44167,635
17.45000,636
17.45833,637
17.46667,638
17.47500,640
17.48333,642
17.49167,644
17.50000,647
17.50833,650
17.51667,653
17.52500,657
17.53333,661
17.54167,665
17.55000,670
17.55833,674
17.56667,679
17.57500,684
17.58333,690
17.59167,695
17.60000,701
17.60833,706
17.61667,712
17.62500,718
17.63333,724
17.64167,730
17.65000,736
17.65833,742
17.66667,748
17.67500,753
17.68333,759
17.69167,765
17.70000,769
17.70833,774
17.71667,779
17.72500,783
17.73333,788
17.74167,792
17.75000,796
17.75833,800
17.76667,803
17.77500,807
17.78333,810
17.79167,813
17.80000,815
17.80833,816
17.81667,818
17.82500,819
17.83333,820
17.84167,821
17.85000,821
17.85833,821
17.86667,820
17.87500,819
17.88333,818
17.89167,816
17.90000,814
17.90833,811
17.91667,808
17.92500,805
17.93333,802
17.94167,797
17.95000,793
17.95833,789
17.96667,783
17.97500,777
17.98333,771
17.99167,765
18.00000,759
18.00833,752
18.01667,745
18.02500,738
18.03333,731
18.04167,723
18.05000,715
18.05833,707
18.06667,699
18.07500,692
18.08333,684
18.09167,675
18.10000,667
18.10833,659
18.11667,651
18.12500,643
18.13333,635
18.14167,627
18.15000,619
18.15833,612
18.16667,604
18.17500,596
18.18333,588
18.19167,581
18.20000,574
18.20833,567
18.21667,560
18.22500,554
18.23333,548
18.24167,542
18.25000,536
18.25833,530
18.26667,525
18.27500,520
18.28333,515
18.29167,510
18.30000,505
18.30833,501
18.31667,497
18.32500,493
18.33333,490
18.34167,488
18.35000,486
18.35833,483
18.36667,481
18.37500,479
18.38333,478
18.39167,477
18.40000,476
18.40833,476
18.41667,476
18.42500,476
18.43333,477
18.44167,478
18.45000,478
18.45833,480
18.46667,481
18.47500,483
18.48333,485
18.49167,487
18.50000,489
18.50833,491
18.51667,494
18.52500,497
18.53333,500
18.54167,503
18.55000,507
18.55833,511
18.56667,514
18.57500,518
18.58333,522
18.59167,527
18.60000,531
18.60833,535
18.61667,540
18.62500,545
18.63333,549
18.64167,555
18.65000,559
18.65833,564
18.66667,569
18.67500,573
18.68333,578
18.69167,583
18.70000,588
18.70833,592
18.71667,597
18.72500,602
18.73333,607
18.74167,612
18.75000,617
18.75833,622
18.76667,627
18.77500,632
18.78333,637
18.79167,642
18.80000,647
18.80833,652
18.81667,657
18.82500,662
18.83333,667
18.84167,671
18.85000,676
18.85833,681
18.86667,685
18.87500,690
18.88333,694
18.89167,699
18.90000,703
18.90833,707
18.91667,711
18.92500,715
18.93333,719
18.94167,723
18.95000,727
18.95833,730
18.96667,733
18.97500,737
18.98333,740
18.99167,743
19.00000,746
19.00833,749
19.01667,751
19.02500,754
19.03333,756
19.04167,758
19.05000,759
19.05833,761
19.06667,762
19.07500,763
19.08333,764
19.09167,764
19.10000,765
19.10833,765
19.11667,766
19.12500,765
19.13333,765
19.14167,765
19.15000,764
19.15833,763
19.16667,762
19.17500,760
19.18333,758
19.19167,756
19.20000,753
19.20833,751
19.21667,748
19.22500,746
19.23333,743
19.24167,739
19.25000,736
19.25833,733
19.26667,729
19.27500,725
19.28333,721
19.29167,717
19.30000,712
19.30833,708
19.31667,704
19.32500,699
19.33333,694
19.34167,689
19.35000,684
19.35833,679
19.36667,674
19.37500,669
19.38333,663
19.39167,658
19.40000,653
19.40833,647
19.41667,641
19.42500,636
19.43333,630
19.44167,625
19.45000,619
19.45833,613
19.46667,607
19.47500,601
19.48333,595
19.49167,589
19.50000,584
19.50833,578
19.51667,572
19.52500,566
19.53333,561
19.54167,556
19.55000,550
19.55833,545
19.56667,540
19.57500,535
19.58333,530
19.59167,526
19.60000,521
19.60833,516
19.61667,511
19.62500,506
19.63333,501
19.64167,497
19.65000,493
19.65833,489
19.66667,485
19.67500,482
19.68333,478
19.69167,476
19.70000,473
19.70833,471
19.71667,469
19.72500,468
19.73333,466
19.74167,465
19.75000,465
19.75833,465
19.76667,465
19.77500,466
19.78333,467
19.79167,469
19.80000,471
19.80833,474
19.81667,477
19.82500,482
19.83333,487
19.84167,492
19.85000,498
19.85833,504
19.86667,511
19.87500,519
19.88333,527
19.89167,536
19.90000,545
19.90833,556
19.91667,566
19.92500,578
19.93333,590
19.94167,602
19.95000,614
19.95833,628
19.96667,642
19.97500,655
19.98333,669
19.99167,684
20.00000,698
20.00833,714
20.01667,729
20.02500,744
20.03333,759
20.04167,775
20.05000,790
20.05833,805
20.06667,821
20.07500,836
20.08333,850
20.09167,864
20.10000,878
20.10833,892
20.11667,905
20.12500,919
20.13333,931
20.14167,943
20.15000,954
20.15833,965
20.16667,975
20.17500,985
20.18333,993
20.19167,1002
20.20000,1009
20.20833,1016
20.21667,1023
20.22500,1028
20.23333,1033
20.24167,1038
20.25000,1041
20.25833,1044
20.26667,1046
20.27500,1048
20.28333,1049
20.29167,1050
20.30000,1050
20.30833,1049
20.31667,1047
20.32500,1045
20.33333,1043
20.34167,1040
20.35000,1036
20.35833,1032
20.36667,1027
20.37500,1022
20.38333,1017
20.39167,1012
20.40000,1006
20.40833,1001
20.41667,995
20.42500,989
20.43333,984
20.44167,978
20.45000,972
20.45833,967
20.46667,961
20.47500,956
20.48333,952
20.49167,948
20.50000,945
20.50833,942
20.51667,940
20.52500,938
20.53333,937
20.54167,937
20.55000,937
20.55833,938
20.56667,941
20.57500,944
20.58333,948
20.59167,953
20.60000,958
20.60833,964
20.61667,970
20.62500,977
20.63333,985
20.64167,994
20.65000,1003
20.65833,1012
20.66667,1022
20.67500,1032
20.68333,1043
20.69167,1054
20.70000,1065
20.70833,1076
20.71667,1087
20.72500,1099
20.73333,1110
20.74167,1121
20.75000,1132
20.75833,1143
20.76667,1153
20.77500,1164
20.78333,1174
20.79167,1184
20.80000,1193
20.80833,1202
20.81667,1211
20.82500,1219
20.83333,1227
20.84167,1234
20.85000,1241
20.85833,1247
20.86667,1253
20.87500,1258
20.88333,1263
20.89167,1268
20.90000,1272
20.90833,1275
20.91667,1278
20.92500,1281
20.93333,1283
20.94167,1285
20.95000,1286
20.95833,1286
20.96667,1286
20.97500,1286
20.98333,1285
20.99167,1283
21.00000,1281
21.00833,1279
21.01667,1276
21.02500,1273
21.03333,1269
21.04167,1265
21.05000,1262
21.05833,1258
21.06667,1253
21.07500,1248
21.08333,1243
21.09167,1239
21.10000,1234
21.10833,1229
21.11667,1225
21.12500,1220
21.13333,1215
21.14167,1210
21.15000,1206
21.15833,1201
21.16667,1197
21.17500,1193
21.18333,1189
21.19167,1185
21.20000,1181
21.20833,1178
21.21667,1175
21.22500,1172
21.23333,1169
21.24167,1166
21.25000,1164
21.25833,1162
21.26667,1160
21.27500,1158
21.28333,1157
21.29167,1155
21.30000,1153
21.30833,1152
21.31667,1151
21.32500,1150
21.33333,1149
21.34167,1148
21.35000,1147
21.35833,1147
21.36667,1146
21.37500,1147
21.38333,1147
21.39167,1147
21.40000,1147
21.40833,1148
21.41667,1149
21.42500,1150
21.43333,1151
21.44167,1152
21.45000,1154
21.45833,1155
21.46667,1157
21.47500,1159
21.48333,1162
21.49167,1165
21.50000,1168
21.50833,1172
21.51667,1175
21.52500,1179
21.53333,1183
21.54167,1186
21.55000,1190
21.55833,1194
21.56667,1197
21.57500,1201
21.58333,1205
21.59167,1209
21.60000,1213
21.60833,1217
21.61667,1220
21.62500,1223
21.63333,1225
21.64167,1227
21.65000,1229
21.65833,1230
21.66667,1231
21.67500,1231
21.68333,1231
21.69167,1230
21.70000,1229
21.70833,1227
21.71667,1225
21.72500,1222
21.73333,1219
21.74167,1215
21.75000,1211
21.75833,1206
21.76667,1201
21.77500,1196
21.78333,1190
21.79167,1183
21.80000,1176
21.80833,1169
21.81667,1162
21.82500,1155
21.83333,1147
21.84167,1140
21.85000,1132
21.85833,1124
21.86667,1115
21.87500,1107
21.88333,1098
21.89167,1089
21.90000,1080
21.90833,1071
21.91667,1061
21.92500,1052
21.93333,1043
21.94167,1033
21.95000,1023
21.95833,1013
21.96667,1003
21.97500,993
21.98333,982
21.99167,971
22.00000,960
22.00833,948
22.01667,936
22.02500,924
22.03333,912
22.04167,899
22.05000,886
22.05833,873
22.06667,859
22.07500,845
22.08333,831
22.09167,817
22.10000,802
22.10833,787
22.11667,772
22.12500,756
22.13333,741
22.14167,725
22.15000,710
22.15833,695
22.16667,680
22.17500,664
22.18333,649
22.19167,634
22.20000,618
22.20833,603
22.21667,588
22.22500,574
22.23333,559
22.24167,545
22.25000,531
22.25833,517
22.26667,504
22.27500,492
22.28333,480
22.29167,468
22.30000,456
22.30833,445
22.31667,434
22.32500,424
22.33333,414
22.34167,405
22.35000,397
22.35833,388
22.36667,380
22.37500,373
22.38333,366
22.39167,359
22.40000,353
22.40833,347
22.41667,341
22.42500,336
22.43333,331
22.44167,327
22.45000,323
22.45833,319
22.46667,316
22.47500,312
22.48333,310
22.49167,307
22.50000,305
22.50833,304
22.51667,302
22.52500,301
22.53333,301
22.54167,301
22.55000,300
22.55833,300
22.56667,300
22.57500,301
22.58333,302
22.59167,303
22.60000,305
22.60833,306
22.61667,308
22.62500,310
22.63333,313
22.64167,315
22.65000,318
22.65833,321
22.66667,325
22.67500,329
22.68333,333
22.69167,337
22.70000,342
22.70833,347
22.71667,352
22.72500,357
22.73333,362
22.74167,368
22.75000,374
22.75833,380
22.76667,386
22.77500,392
22.78333,399
22.79167,405
22.80000,412
22.80833,419
22.81667,426
22.82500,433
22.83333,440
22.84167,447
22.85000,453
22.85833,460
22.86667,468
22.87500,475
22.88333,481
22.89167,487
22.90000,493
22.90833,499
22.91667,505
22.92500,511
22.93333,517
22.94167,523
22.95000,528
22.95833,533
22.96667,538
22.97500,543
22.98333,548
22.99167,553
23.00000,558
23.00833,562
23.01667,566
23.02500,570
23.03333,573
23.04167,576
23.05000,579
23.05833,582
23.06667,584
23.07500,586
23.08333,588
23.09167,590
23.10000,592
23.10833,593
23.11667,594
23.12500,594
23.13333,595
23.14167,595
23.15000,595
23.15833,594
23.16667,593
23.17500,592
23.18333,590
23.19167,588
23.20000,586
23.20833,583
23.21667,580
23.22500,577
23.23333,574
23.24167,571
23.25000,567
23.25833,564
23.26667,560
23.27500,555
23.28333,551
23.29167,546
23.30000,541
23.30833,536
23.31667,531
23.32500,526
23.33333,522
23.34167,516
23.35000,511
23.35833,506
23.36667,501
23.37500,496
23.38333,490
23.39167,485
23.40000,480
23.40833,476
23.41667,471
23.42500,467
23.43333,462
23.44167,458
23.45000,454
23.45833,449
23.46667,445
23.47500,441
23.48333,438
23.49167,434
23.50000,430
23.50833,427
23.51667,424
23.52500,421
23.53333,418
23.54167,415
23.55000,412
23.55833,410
23.56667,408
23.57500,406
23.58333,404
23.59167,402
23.60000,400
23.60833,398
23.61667,396
23.62500,395
23.63333,393
23.64167,392
23.65000,391
23.65833,390
23.66667,389
23.67500,388
23.68333,387
23.69167,386
23.70000,385
23.70833,384
23.71667,383
23.72500,382
23.73333,381
23.74167,380
23.75000,378
23.75833,377
23.76667,376
23.77500,375
23.78333,374
23.79167,374
23.80000,373
23.80833,372
23.81667,372
23.82500,371
23.83333,370
23.84167,370
23.85000,369
23.85833,369
23.86667,368
23.87500,366
23.88333,365
23.89167,364
23.90000,363
23.90833,362
23.91667,361
23.92500,360
23.93333,359
23.94167,358
23.95000,357
23.95833,356
23.96667,355
23.97500,354
23.98333,354
23.99167,353
24.00000,353
24.00833,352
24.01667,352
24.02500,350
24.03333,349
24.04167,349
24.05000,348
24.05833,347
24.06667,346
24.07500,346
24.08333,345
24.09167,344
24.10000,343
24.10833,342
24.11667,341
24.12500,341
24.13333,340
24.14167,340
24.15000,339
24.15833,339
24.16667,338
24.17500,338
24.18333,337
24.19167,337
24.20000,337
24.20833,336
24.21667,336
24.22500,336
24.23333,336
24.24167,336
24.25000,336
24.25833,336
24.26667,336
24.27500,337
24.28333,338
24.29167,339
24.30000,340
24.30833,341
24.31667,343
24.32500,345
24.33333,348
24.34167,350
24.35000,353
24.35833,357
24.36667,361
24.37500,366
24.38333,371
24.39167,377
24.40000,384
24.40833,392
24.41667,401
24.42500,410
24.43333,421
24.44167,432
24.45000,446
24.45833,461
24.46667,477
24.47500,495
24.48333,515
24.49167,537
24.50000,560
24.50833,585
24.51667,612
24.52500,641
24.53333,673
24.54167,707
24.55000,743
24.55833,782
24.56667,824
24.57500,868
24.58333,915
24.59167,964
24.60000,1016
24.60833,1070
24.61667,1127
24.62500,1186
24.63333,1249
24.64167,1313
24.65000,1380
24.65833,1449
24.66667,1520
24.67500,1593
24.68333,1668
24.69167,1744
24.70000,1822
24.70833,1901
24.71667,1981
24.72500,2062
24.73333,2144
24.74167,2226
24.75000,2309
24.75833,2391
24.76667,2474
24.77500,2556
24.78333,2637
24.79167,2718
24.80000,2798
24.80833,2877
24.81667,2954
24.82500,3030
24.83333,3104
24.84167,3177
24.85000,3248
24.85833,3316
24.86667,3383
24.87500,3447
24.88333,3510
24.89167,3570
24.90000,3628
24.90833,3683
24.91667,3736
24.92500,3786
24.93333,3834
24.94167,3880
24.95000,3923
24.95833,3964
24.96667,4001
24.97500,4036
24.98333,4068
24.99167,4097
25.00000,4124
25.00833,4148
25.01667,4170
25.02500,4189
25.03333,4205
25.04167,4218
25.05000,4228
25.05833,4236
25.06667,4240
25.07500,4241
25.08333,4239
25.09167,4234
25.10000,4225
25.10833,4214
25.11667,4199
25.12500,4181
25.13333,4160
25.14167,4135
25.15000,4107
25.15833,4076
25.16667,4042
25.17500,4004
25.18333,3963
25.19167,3919
25.20000,3872
25.20833,3822
25.21667,3768
25.22500,3712
25.23333,3654
25.24167,3592
25.25000,3528
25.25833,3462
25.26667,3393
25.27500,3323
25.28333,3251
25.29167,3178
25.30000,3103
25.30833,3026
25.31667,2949
25.32500,2871
25.33333,2793
25.34167,2714
25.35000,2635
25.35833,2555
25.36667,2476
25.37500,2398
25.38333,2320
25.39167,2242
25.40000,2166
25.40833,2090
25.41667,2016
25.42500,1943
25.43333,1871
25.44167,1801
25.45000,1732
25.45833,1666
25.46667,1601
25.47500,1538
25.48333,1477
25.49167,1418
25.50000,1361
25.50833,1306
25.51667,1253
25.52500,1203
25.53333,1154
25.54167,1107
25.55000,1062
25.55833,1019
25.56667,978
25.57500,939
25.58333,902
25.59167,867
25.60000,834
25.60833,802
25.61667,772
25.62500,743
25.63333,717
25.64167,691
25.65000,667
25.65833,645
25.66667,624
25.67500,604
25.68333,585
25.69167,567
25.70000,551
25.70833,536
25.71667,521
25.72500,507
25.73333,493
25.74167,481
25.75000,469
25.75833,457
25.76667,447
25.77500,436
25.78333,427
25.79167,417
25.80000,409
25.80833,400
25.81667,393
25.82500,385
25.83333,378
25.84167,371
25.85000,364
25.85833,358
25.86667,352
25.87500,346
25.88333,340
25.89167,335
25.90000,330
25.90833,324
25.91667,319
25.92500,314
25.93333,308
25.94167,303
25.95000,298
25.95833,293
25.96667,288
25.97500,283
25.98333,279
25.99167,274
26.00000,269
26.00833,264
26.01667,260
26.02500,255
26.03333,250
26.04167,246
26.05000,241
26.05833,236
26.06667,232
26.07500,227
26.08333,223
26.09167,219
26.10000,214
26.10833,210
26.11667,206
26.12500,202
26.13333,198
26.14167,194
26.15000,191
26.15833,187
26.16667,183
26.17500,179
26.18333,176
26.19167,173
26.20000,170
26.20833,167
26.21667,164
26.22500,161
26.23333,158
26.24167,155
26.25000,153
26.25833,150
26.26667,148
26.27500,146
26.28333,144
26.29167,142
26.30000,140
26.30833,138
26.31667,136
26.32500,134
26.33333,133
26.34167,131
26.35000,130
26.35833,128
26.36667,127
26.37500,125
26.38333,124
26.39167,123
26.40000,122
26.40833,122
26.41667,121
26.42500,120
26.43333,120
26.44167,119
26.45000,119
26.45833,118
26.46667,117
26.47500,116
26.48333,116
26.49167,115
26.50000,115
26.50833,115
26.51667,115
26.52500,115
26.53333,114
26.54167,114
26.55000,114
26.55833,113
26.56667,113
26.57500,113
26.58333,113
26.59167,112
26.60000,112
26.60833,112
26.61667,112
26.62500,112
26.63333,113
26.64167,113
26.65000,113
26.65833,113
26.66667,112
26.67500,112
26.68333,112
26.69167,112
26.70000,112
26.70833,112
26.71667,112
26.72500,112
26.73333,112
26.74167,112
26.75000,113
26.75833,112
26.76667,112
26.77500,113
26.78333,113
26.79167,113
26.80000,113
26.80833,114
26.81667,114
26.82500,114
26.83333,114
26.84167,114
26.85000,114
26.85833,114
26.86667,114
26.87500,114
26.88333,114
26.89167,114
26.90000,114
26.90833,114
26.91667,114
26.92500,114
26.93333,114
26.94167,114
26.95000,114
26.95833,114
26.96667,114
26.97500,115
26.98333,115
26.99167,115
27.00000,115
27.00833,115
27.01667,115
27.02500,115
27.03333,115
27.04167,115
27.05000,115
27.05833,115
27.06667,116
27.07500,116
27.08333,116
27.09167,116
27.10000,117
27.10833,117
27.11667,117
27.12500,118
27.13333,117
27.14167,117
27.15000,117
27.15833,117
27.16667,117
27.17500,117
27.18333,117
27.19167,117
27.20000,117
27.20833,118
27.21667,118
27.22500,118
27.23333,118
27.24167,118
27.25000,118
27.25833,118
27.26667,118
27.27500,119
27.28333,119
27.29167,119
27.30000,119
27.30833,119
27.31667,119
27.32500,120
27.33333,120
27.34167,120
27.35000,120
27.35833,119
27.36667,119
27.37500,119
27.38333,119
27.39167,119
27.40000,119
27.40833,119
27.41667,119
27.42500,119
27.43333,119
27.44167,119
27.45000,119
27.45833,119
27.46667,119
27.47500,119
27.48333,119
27.49167,118
27.50000,118
27.50833,118
27.51667,118
27.52500,117
27.53333,117
27.54167,117
27.55000,117
27.55833,116
27.56667,116
27.57500,115
27.58333,115
27.59167,114
27.60000,114
27.60833,113
27.61667,113
27.62500,112
27.63333,112
27.64167,111
27.65000,111
27.65833,110
27.66667,110
27.67500,109
27.68333,109
27.69167,108
27.70000,108
27.70833,107
27.71667,107
27.72500,106
27.73333,106
27.74167,106
27.75000,105
27.75833,104
27.76667,103
27.77500,102
27.78333,101
27.79167,101
27.80000,101
27.80833,100
27.81667,100
27.82500,100
27.83333,99
27.84167,99
27.85000,98
27.85833,97
27.86667,97
27.87500,96
27.88333,95
27.89167,95
27.90000,95
27.90833,94
27.91667,93
27.92500,93
27.93333,92
27.94167,92
27.95000,91
27.95833,91
27.96667,91
27.97500,90
27.98333,90
27.99167,90
28.00000,89
28.00833,89
28.01667,88
28.02500,88
28.03333,88
28.04167,88
28.05000,88
28.05833,88
28.06667,87
28.07500,87
28.08333,87
28.09167,86
28.10000,86
28.10833,86
28.11667,86
28.12500,86
28.13333,86
28.14167,86
28.15000,86
28.15833,86
28.16667,86
28.17500,86
28.18333,86
28.19167,86
28.20000,86
28.20833,87
28.21667,87
28.22500,87
28.23333,87
28.24167,87
28.25000,87
28.25833,88
28.26667,88
28.27500,89
28.28333,89
28.29167,89
28.30000,90
28.30833,91
28.31667,92
28.32500,93
28.33333,93
28.34167,94
28.35000,95
28.35833,96
28.36667,98
28.37500,99
28.38333,101
28.39167,103
28.40000,106
28.40833,108
28.41667,112
28.42500,116
28.43333,120
28.44167,124
28.45000,129
28.45833,135
28.46667,141
28.47500,148
28.48333,155
28.49167,163
28.50000,173
28.50833,183
28.51667,194
28.52500,207
28.53333,220
28.54167,233
28.55000,248
28.55833,264
28.56667,281
28.57500,299
28.58333,319
28.59167,339
28.60000,362
28.60833,386
28.61667,411
28.62500,438
28.63333,466
28.64167,496
28.65000,528
28.65833,560
28.66667,595
28.67500,630
28.68333,668
28.69167,706
28.70000,747
28.70833,789
28.71667,833
28.72500,878
28.73333,924
28.74167,972
28.75000,1021
28.75833,1072
28.76667,1123
28.77500,1175
28.78333,1228
28.79167,1283
28.80000,1338
28.80833,1394
28.81667,1449
28.82500,1506
28.83333,1564
28.84167,1621
28.85000,1679
28.85833,1736
28.86667,1793
28.87500,1850
28.88333,1907
28.89167,1964
28.90000,2020
28.90833,2075
28.91667,2129
28.92500,2182
28.93333,2234
28.94167,2285
28.95000,2335
28.95833,2384
28.96667,2431
28.97500,2477
28.98333,2521
28.99167,2564
29.00000,2605
29.00833,2645
29.01667,2682
29.02500,2719
29.03333,2754
29.04167,2787
29.05000,2819
29.05833,2848
29.06667,2876
29.07500,2902
29.08333,2926
29.09167,2948
29.10000,2969
29.10833,2988
29.11667,3006
29.12500,3022
29.13333,3036
29.14167,3049
29.15000,3060
29.15833,3069
29.16667,3077
29.17500,3084
29.18333,3089
29.19167,3092
29.20000,3094
29.20833,3094
29.21667,3093
29.22500,3090
29.23333,3085
29.24167,3079
29.25000,3072
29.25833,3063
29.26667,3053
29.27500,3041
29.28333,3028
29.29167,3013
29.30000,2996
29.30833,2978
29.31667,2958
29.32500,2937
29.33333,2914
29.34167,2890
29.35000,2864
29.35833,2836
29.36667,2806
29.37500,2775
29.38333,2743
29.39167,2710
29.40000,2674
29.40833,2638
29.41667,2600
29.42500,2561
29.43333,2521
29.44167,2479
29.45000,2436
29.45833,2392
29.46667,2347
29.47500,2301
29.48333,2254
29.49167,2207
29.50000,2158
29.50833,2109
29.51667,2059
29.52500,2009
29.53333,1958
29.54167,1908
29.55000,1857
29.55833,1805
29.56667,1754
29.57500,1702
29.58333,1651
29.59167,1600
29.60000,1549
29.60833,1498
29.61667,1448
29.62500,1398
29.63333,1350
29.64167,1302
29.65000,1254
29.65833,1207
29.66667,1161
29.67500,1116
29.68333,1072
29.69167,1030
29.70000,988
29.70833,947
29.71667,908
29.72500,869
29.73333,831
29.74167,795
29.75000,760
29.75833,726
29.76667,693
29.77500,662
29.78333,632
29.79167,603
29.80000,574
29.80833,547
29.81667,522
29.82500,497
29.83333,474
29.84167,452
29.85000,430
29.85833,410
29.86667,390
29.87500,372
29.88333,354
29.89167,338
29.90000,322
29.90833,308
29.91667,294
29.92500,281
29.93333,268
29.94167,257
29.95000,246
29.95833,236
29.96667,226
29.97500,217
29.98333,208
29.99167,200
30.00000,192
30.00833,185
30.01667,179
30.02500,173
30.03333,167
30.04167,162
30.05000,157
30.05833,153
30.06667,149
30.07500,145
30.08333,142
30.09167,139
30.10000,136
30.10833,133
30.11667,130
30.12500,127
30.13333,125
30.14167,122
30.15000,120
30.15833,118
30.16667,117
30.17500,116
30.18333,115
30.19167,113
30.20000,112
30.20833,111
30.21667,111
30.22500,110
30.23333,109
30.24167,109
30.25000,109
30.25833,108
30.26667,108
30.27500,107
30.28333,107
30.29167,106
30.30000,105
30.30833,105
30.31667,105
30.32500,105
30.33333,105
30.34167,105
30.35000,105
30.35833,105
30.36667,105
30.37500,106
30.38333,106
30.39167,106
30.40000,106
30.40833,107
30.41667,107
30.42500,107
30.43333,108
30.44167,109
30.45000,110
30.45833,111
30.46667,112
30.47500,112
30.48333,113
30.49167,114
30.50000,114
30.50833,115
30.51667,116
30.52500,117
30.53333,119
30.54167,120
30.55000,121
30.55833,123
30.56667,124
30.57500,125
30.58333,127
30.59167,128
30.60000,130
30.60833,131
30.61667,132
30.62500,134
30.63333,135
30.64167,137
30.65000,138
30.65833,140
30.66667,142
30.67500,143
30.68333,145
30.69167,147
30.70000,148
30.70833,150
30.71667,152
30.72500,154
30.73333,155
30.74167,157
30.75000,159
30.75833,160
30.76667,162
30.77500,163
30.78333,165
30.79167,167
30.80000,168
30.80833,170
30.81667,172
30.82500,173
30.83333,174
30.84167,176
30.85000,178
30.85833,179
30.86667,181
30.87500,182
30.88333,184
30.89167,185
30.90000,187
30.90833,188
30.91667,190
30.92500,191
30.93333,192
30.94167,193
30.95000,194
30.95833,195
30.96667,196
30.97500,196
30.98333,197
30.99167,198
31.00000,199
31.00833,200
31.01667,201
31.02500,202
31.03333,202
31.04167,203
31.05000,203
31.05833,204
31.06667,204
31.07500,205
31.08333,205
31.09167,206
31.10000,206
31.10833,207
31.11667,207
31.12500,207
31.13333,207
31.14167,206
31.15000,206
31.15833,206
31.16667,206
31.17500,205
31.18333,205
31.19167,205
31.20000,204
31.20833,203
31.21667,203
31.22500,202
31.23333,201
31.24167,200
31.25000,199
31.25833,198
31.26667,197
31.27500,196
31.28333,195
31.29167,194
31.30000,193
31.30833,192
31.31667,191
31.32500,190
31.33333,189
31.34167,188
31.35000,187
31.35833,185
31.36667,184
31.37500,183
31.38333,182
31.39167,181
31.40000,180
31.40833,178
31.41667,176
31.42500,175
31.43333,173
31.44167,171
31.45000,169
31.45833,168
31.46667,167
31.47500,165
31.48333,164
31.49167,162
31.50000,161
31.50833,160
31.51667,158
31.52500,157
31.53333,155
31.54167,154
31.55000,153
31.55833,151
31.56667,150
31.57500,148
31.58333,148
31.59167,147
31.60000,145
31.60833,144
31.61667,143
31.62500,142
31.63333,142
31.64167,141
31.65000,141
31.65833,141
31.66667,141
31.67500,140
31.68333,140
31.69167,140
31.70000,140
31.70833,140
31.71667,141
31.72500,141
31.73333,142
31.74167,143
31.75000,144
31.75833,145
31.76667,146
31.77500,147
31.78333,149
31.79167,150
31.80000,152
31.80833,154
31.81667,157
31.82500,159
31.83333,162
31.84167,166
31.85000,169
31.85833,172
31.86667,176
31.87500,179
31.88333,182
31.89167,186
31.90000,189
31.90833,193
31.91667,197
31.92500,201
31.93333,206
31.94167,211
31.95000,216
31.95833,221
31.96667,226
31.97500,231
31.98333,236
31.99167,241
32.00000,246
32.00833,251
32.01667,257
32.02500,262
32.03333,267
32.04167,272
32.05000,277
32.05833,282
32.06667,288
32.07500,293
32.08333,298
32.09167,303
32.10000,309
32.10833,314
32.11667,319
32.12500,325
32.13333,329
32.14167,334
32.15000,339
32.15833,344
32.16667,348
32.17500,353
32.18333,357
32.19167,361
32.20000,366
32.20833,370
32.21667,375
32.22500,378
32.23333,382
32.24167,386
32.25000,390
32.25833,394
32.26667,398
32.27500,402
32.28333,405
32.29167,408
32.30000,412
32.30833,415
32.31667,418
32.32500,421
32.33333,424
32.34167,426
32.35000,428
32.35833,430
32.36667,433
32.37500,435
32.38333,438
32.39167,440
32.40000,442
32.40833,444
32.41667,446
32.42500,448
32.43333,449
32.44167,451
32.45000,452
32.45833,453
32.46667,455
32.47500,455
32.48333,456
32.49167,457
32.50000,458
32.50833,459
32.51667,459
32.52500,460
32.53333,460
32.54167,460
32.55000,460
32.55833,460
32.56667,459
32.57500,459
32.58333,459
32.59167,458
32.60000,458
32.60833,456
32.61667,455
32.62500,454
32.63333,453
32.64167,451
32.65000,450
32.65833,449
32.66667,447
32.67500,445
32.68333,444
32.69167,442
32.70000,440
32.70833,438
32.71667,436
32.72500,434
32.73333,432
32.74167,430
32.75000,428
32.75833,425
32.76667,423
32.77500,420
32.78333,418
32.79167,416
32.80000,413
32.80833,411
32.81667,409
32.82500,407
32.83333,405
32.84167,403
32.85000,401
32.85833,399
32.86667,397
32.87500,395
32.88333,393
32.89167,391
32.90000,390
32.90833,388
32.91667,386
32.92500,384
32.93333,383
32.94167,381
32.95000,380
32.95833,378
32.96667,377
32.97500,376
32.98333,374
32.99167,373
33.00000,372
33.00833,371
33.01667,370
33.02500,369
33.03333,368
33.04167,367
33.05000,367
33.05833,366
33.06667,365
33.07500,364
33.08333,363
33.09167,361
33.10000,360
33.10833,359
33.11667,358
33.12500,357
33.13333,356
33.14167,355
33.15000,354
33.15833,353
33.16667,351
33.17500,350
33.18333,349
33.19167,347
33.20000,346
33.20833,345
33.21667,343
33.22500,341
33.23333,339
33.24167,338
33.25000,336
33.25833,334
33.26667,332
33.27500,331
33.28333,329
33.29167,326
33.30000,324
33.30833,322
33.31667,319
33.32500,317
33.33333,315
33.34167,312
33.35000,309
33.35833,307
33.36667,304
33.37500,301
33.38333,297
33.39167,294
33.40000,291
33.40833,288
33.41667,285
33.42500,282
33.43333,279
33.44167,276
33.45000,273
33.45833,269
33.46667,266
33.47500,262
33.48333,259
33.49167,255
33.50000,251
33.50833,248
33.51667,244
33.52500,240
33.53333,236
33.54167,233
33.55000,229
33.55833,226
33.56667,222
33.57500,219
33.58333,215
33.59167,211
33.60000,207
33.60833,203
33.61667,198
33.62500,195
33.63333,191
33.64167,187
33.65000,183
33.65833,179
33.66667,176
33.67500,172
33.68333,168
33.69167,164
33.70000,161
33.70833,157
33.71667,153
33.72500,150
33.73333,146
33.74167,143
33.75000,139
33.75833,135
33.76667,132
33.77500,129
33.78333,125
33.79167,122
33.80000,118
33.80833,115
33.81667,112
33.82500,109
33.83333,106
33.84167,102
33.85000,99
33.85833,96
33.86667,93
33.87500,90
33.88333,87
33.89167,84
33.90000,82
33.90833,79
33.91667,77
33.92500,74
33.93333,72
33.94167,70
33.95000,67
33.95833,66
33.96667,64
33.97500,62
33.98333,60
33.99167,58
34.00000,56
34.00833,53
34.01667,52
34.02500,50
34.03333,49
34.04167,47
34.05000,45
34.05833,44
34.06667,42
34.07500,41
34.08333,40
34.09167,39
34.10000,38
34.10833,37
34.11667,35
34.12500,34
34.13333,33
34.14167,33
34.15000,32
34.15833,31
34.16667,30
34.17500,29
34.18333,29
34.19167,28
34.20000,28
34.20833,27
34.21667,27
34.22500,26
34.23333,26
34.24167,25
34.25000,24
34.25833,23
34.26667,23
34.27500,22
34.28333,22
34.29167,21
34.30000,21
34.30833,21
34.31667,20
34.32500,20
34.33333,19
34.34167,19
34.35000,18
34.35833,18
34.36667,18
34.37500,18
34.38333,18
34.39167,17
34.40000,17
34.40833,17
34.41667,16
34.42500,16
34.43333,16
34.44167,16
34.45000,15
34.45833,15
34.46667,15
34.47500,14
34.48333,14
34.49167,14
34.50000,14
34.50833,13
34.51667,13
34.52500,13
34.53333,12
34.54167,12
34.55000,11
34.55833,11
34.56667,11
34.57500,10
34.58333,10
34.59167,10
34.60000,10
34.60833,10
34.61667,9
34.62500,9
34.63333,8
34.64167,8
34.65000,8
34.65833,8
34.66667,7
34.67500,7
34.68333,7
34.69167,7
34.70000,6
34.70833,6
34.71667,6
34.72500,6
34.73333,5
34.74167,5
34.75000,4
34.75833,4
34.76667,4
34.77500,4
34.78333,4
34.79167,3
34.80000,3
34.80833,3
34.81667,2
34.82500,2
34.83333,2
34.84167,1
34.85000,1
34.85833,1
34.86667,1
34.87500,1
34.88333,1
34.89167,1
34.90000,1
34.90833,1
34.91667,1
34.92500,2
34.93333,2
34.94167,1
34.95000,1
34.95833,1
34.96667,1
34.97500,1
34.98333,1
34.99167,1
35.00000,1
35.00833,1
35.01667,2
35.02500,2
35.03333,3
35.04167,3
35.05000,3
35.05833,4
35.06667,4
35.07500,5
35.08333,5
35.09167,6
35.10000,7
35.10833,7
35.11667,8
35.12500,8
35.13333,9
35.14167,9
35.15000,10
35.15833,11
35.16667,12
35.17500,13
35.18333,14
35.19167,15
35.20000,16
35.20833,18
35.21667,19
35.22500,20
35.23333,21
35.24167,22
35.25000,23
35.25833,24
35.26667,26
35.27500,27
35.28333,28
35.29167,30
35.30000,31
35.30833,33
35.31667,34
35.32500,36
35.33333,37
35.34167,39
35.35000,41
35.35833,43
35.36667,44
35.37500,45
35.38333,47
35.39167,48
35.40000,50
35.40833,52
35.41667,53
35.42500,55
35.43333,57
35.44167,58
35.45000,60
35.45833,61
35.46667,63
35.47500,64
35.48333,66
35.49167,67
35.50000,69
35.50833,71
35.51667,72
35.52500,74
35.53333,75
35.54167,76
35.55000,77
35.55833,79
35.56667,80
35.57500,81
35.58333,83
35.59167,84
35.60000,85
35.60833,86
35.61667,88
35.62500,89
35.63333,90
35.64167,91
35.65000,92
35.65833,93
35.66667,94
35.67500,95
35.68333,96
35.69167,97
35.70000,98
35.70833,99
35.71667,99
35.72500,100
35.73333,101
35.74167,101
35.75000,102
35.75833,102
35.76667,103
35.77500,103
35.78333,104
35.79167,104
35.80000,104
35.80833,105
35.81667,106
35.82500,106
35.83333,107
35.84167,107
35.85000,107
35.85833,108
35.86667,109
35.87500,109
35.88333,109
35.89167,109
35.90000,109
35.90833,109
35.91667,109
35.92500,109
35.93333,109
35.94167,109
35.95000,109
35.95833,109
35.96667,109
35.97500,109
35.98333,109
35.99167,109
36.00000,109
36.00833,109
36.01667,108
36.02500,107
36.03333,107
36.04167,106
36.05000,104
36.05833,103
36.06667,103
36.07500,102
36.08333,102
36.09167,101
36.10000,100
36.10833,100
36.11667,99
36.12500,98
36.13333,98
36.14167,97
36.15000,96
36.15833,95
36.16667,95
36.17500,94
36.18333,93
36.19167,92
36.20000,91
36.20833,90
36.21667,89
36.22500,88
36.23333,87
36.24167,85
36.25000,84
36.25833,83
36.26667,82
36.27500,80
36.28333,79
36.29167,78
36.30000,77
36.30833,76
36.31667,75
36.32500,74
36.33333,72
36.34167,71
36.35000,70
36.35833,70
36.36667,69
36.37500,67
36.38333,66
36.39167,66
36.40000,65
36.40833,64
36.41667,63
36.42500,62
36.43333,61
36.44167,60
36.45000,59
36.45833,58
36.46667,57
36.47500,57
36.48333,56
36.49167,55
36.50000,54
36.50833,53
36.51667,52
36.52500,52
36.53333,51
36.54167,50
36.55000,50
36.55833,50
36.56667,49
36.57500,49
36.58333,48
36.59167,48
36.60000,47
36.60833,46
36.61667,46
36.62500,45
36.63333,45
36.64167,44
36.65000,44
36.65833,44
36.66667,44
36.67500,44
36.68333,44
36.69167,44
36.70000,45
36.70833,45
36.71667,45
36.72500,45
36.73333,45
36.74167,45
36.75000,45
36.75833,45
36.76667,45
36.77500,45
36.78333,45
36.79167,45
36.80000,46
36.80833,46
36.81667,46
36.82500,46
36.83333,46
36.84167,46
36.85000,46
36.85833,47
36.86667,47
36.87500,47
36.88333,48
36.89167,48
36.90000,49
36.90833,49
36.91667,50
36.92500,51
36.93333,51
36.94167,52
36.95000,52
36.95833,52
36.96667,53
36.97500,54
36.98333,54
36.99167,55
37.00000,56
37.00833,56
37.01667,57
37.02500,58
37.03333,58
37.04167,59
37.05000,59
37.05833,60
37.06667,61
37.07500,62
37.08333,62
37.09167,63
37.10000,64
37.10833,64
37.11667,65
37.12500,66
37.13333,67
37.14167,68
37.15000,68
37.15833,69
37.16667,70
37.17500,70
37.18333,71
37.19167,72
37.20000,73
37.20833,74
37.21667,75
37.22500,76
37.23333,77
37.24167,78
37.25000,78
37.25833,79
37.26667,80
37.27500,81
37.28333,82
37.29167,83
37.30000,84
37.30833,85
37.31667,86
37.32500,86
37.33333,87
37.34167,88
37.35000,90
37.35833,91
37.36667,92
37.37500,93
37.38333,94
37.39167,95
37.40000,96
37.40833,97
37.41667,98
37.42500,98
37.43333,99
37.44167,100
37.45000,102
37.45833,102
37.46667,103
37.47500,104
37.48333,105
37.49167,106
37.50000,107
37.50833,108
37.51667,109
37.52500,110
37.53333,111
37.54167,112
37.55000,113
37.55833,114
37.56667,115
37.57500,115
37.58333,116
37.59167,116
37.60000,117
37.60833,118
37.61667,118
37.62500,119
37.63333,119
37.64167,120
37.65000,121
37.65833,121
37.66667,122
37.67500,122
37.68333,122
37.69167,123
37.70000,123
37.70833,124
37.71667,124
37.72500,125
37.73333,125
37.74167,126
37.75000,126
37.75833,126
37.76667,126
37.77500,126
37.78333,126
37.79167,127
37.80000,127
37.80833,127
37.81667,127
37.82500,127
37.83333,127
37.84167,127
37.85000,127
37.85833,127
37.86667,126
37.87500,126
37.88333,125
37.89167,125
37.90000,125
37.90833,124
37.91667,124
37.92500,124
37.93333,123
37.94167,122
37.95000,122
37.95833,121
37.96667,121
37.97500,120
37.98333,119
37.99167,119
38.00000,118
38.00833,117
38.01667,117
38.02500,116
38.03333,115
38.04167,115
38.05000,114
38.05833,113
38.06667,112
38.07500,111
38.08333,110
38.09167,109
38.10000,108
38.10833,107
38.11667,106
38.12500,105
38.13333,105
38.14167,104
38.15000,102
38.15833,101
38.16667,100
38.17500,99
38.18333,98
38.19167,96
38.20000,95
38.20833,94
38.21667,93
38.22500,92
38.23333,91
38.24167,89
38.25000,88
38.25833,87
38.26667,86
38.27500,84
38.28333,83
38.29167,81
38.30000,79
38.30833,78
38.31667,77
38.32500,75
38.33333,74
38.34167,73
38.35000,71
38.35833,70
38.36667,69
38.37500,67
38.38333,66
38.39167,65
38.40000,63
38.40833,62
38.41667,60
38.42500,59
38.43333,58
38.44167,56
38.45000,54
38.45833,53
38.46667,51
38.47500,50
38.48333,49
38.49167,47
38.50000,45
38.50833,44
38.51667,42
38.52500,41
38.53333,40
38.54167,39
38.55000,38
38.55833,36
38.56667,35
38.57500,34
38.58333,33
38.59167,31
38.60000,30
38.60833,28
38.61667,27
38.62500,26
38.63333,24
38.64167,23
38.65000,22
38.65833,20
38.66667,19
38.67500,18
38.68333,17
38.69167,16
38.70000,15
38.70833,14
38.71667,13
38.72500,12
38.73333,12
38.74167,11
38.75000,10
38.75833,8
38.76667,7
38.77500,6
38.78333,5
38.79167,4
38.80000,3
38.80833,2
38.81667,2
38.82500,1
38.83333,-1
38.84167,-2
38.85000,-3
38.85833,-4
38.86667,-4
38.87500,-5
38.88333,-6
38.89167,-6
38.90000,-7
38.90833,-7
38.91667,-8
38.92500,-9
38.93333,-9
38.94167,-10
38.95000,-10
38.95833,-11
38.96667,-11
38.97500,-12
38.98333,-13
38.99167,-13
39.00000,-13
39.00833,-14
39.01667,-14
39.02500,-15
39.03333,-15
39.04167,-16
39.05000,-16
39.05833,-16
39.06667,-16
39.07500,-16
39.08333,-17
39.09167,-17
39.10000,-17
39.10833,-18
39.11667,-18
39.12500,-18
39.13333,-18
39.14167,-19
39.15000,-19
39.15833,-19
39.16667,-19
39.17500,-19
39.18333,-19
39.19167,-19
39.20000,-20
39.20833,-20
39.21667,-20
39.22500,-20
39.23333,-21
39.24167,-21
39.25000,-21
39.25833,-21
39.26667,-21
39.27500,-21
39.28333,-21
39.29167,-21
39.30000,-21
39.30833,-21
39.31667,-21
39.32500,-21
39.33333,-22
39.34167,-22
39.35000,-22
39.35833,-22
39.36667,-22
39.37500,-22
39.38333,-23
39.39167,-23
39.40000,-23
39.40833,-23
39.41667,-23
39.42500,-22
39.43333,-22
39.44167,-22
39.45000,-23
39.45833,-23
39.46667,-23
39.47500,-23
39.48333,-23
39.49167,-23
39.50000,-23
39.50833,-23
39.51667,-24
39.52500,-24
39.53333,-24
39.54167,-24
39.55000,-24
39.55833,-24
39.56667,-24
39.57500,-24
39.58333,-24
39.59167,-24
39.60000,-24
39.60833,-24
39.61667,-23
39.62500,-23
39.63333,-23
39.64167,-23
39.65000,-24
39.65833,-24
39.66667,-24
39.67500,-23
39.68333,-23
39.69167,-23
39.70000,-23
39.70833,-23
39.71667,-23
39.72500,-23
39.73333,-24
39.74167,-24
39.75000,-24
39.75833,-24
39.76667,-24
39.77500,-24
39.78333,-24
39.79167,-24
39.80000,-24
39.80833,-24
39.81667,-24
39.82500,-24
39.83333,-24
39.84167,-24
39.85000,-24
39.85833,-23
39.86667,-24
39.87500,-24
39.88333,-24
39.89167,-23
39.90000,-23
39.90833,-23
39.91667,-23
39.92500,-23
39.93333,-24
39.94167,-24
39.95000,-24
39.95833,-24
39.96667,-24
39.97500,-24
39.98333,-24
39.99167,-23
40.00000,-23
40.00833,-23
40.01667,-23
40.02500,-23
40.03333,-23
40.04167,-23
40.05000,-23
40.05833,-23
40.06667,-23
40.07500,-23
40.08333,-23
40.09167,-23
40.10000,-23
40.10833,-23
40.11667,-23
40.12500,-24
40.13333,-24
40.14167,-24
40.15000,-24
40.15833,-23
40.16667,-23
40.17500,-23
40.18333,-23
40.19167,-23
40.20000,-23
40.20833,-23
40.21667,-23
40.22500,-23
40.23333,-22
40.24167,-22
40.25000,-22
40.25833,-22
40.26667,-22
40.27500,-22
40.28333,-22
40.29167,-22
40.30000,-22
40.30833,-21
40.31667,-21
40.32500,-21
40.33333,-21
40.34167,-20
40.35000,-20
40.35833,-20
40.36667,-20
40.37500,-19
40.38333,-19
40.39167,-18
40.40000,-18
40.40833,-18
40.41667,-18
40.42500,-18
40.43333,-18
40.44167,-17
40.45000,-17
40.45833,-17
40.46667,-16
40.47500,-16
40.48333,-15
40.49167,-15
40.50000,-14
40.50833,-14
40.51667,-13
40.52500,-12
40.53333,-12
40.54167,-11
40.55000,-10
40.55833,-9
40.56667,-9
40.57500,-8
40.58333,-7
40.59167,-7
40.60000,-6
40.60833,-6
40.61667,-5
40.62500,-4
40.63333,-3
40.64167,-2
40.65000,-1
40.65833,0
40.66667,2
40.67500,3
40.68333,4
40.69167,5
40.70000,6
40.70833,7
40.71667,8
40.72500,9
40.73333,10
40.74167,11
40.75000,12
40.75833,13
40.76667,14
40.77500,16
40.78333,17
40.79167,19
40.80000,20
40.80833,21
40.81667,23
40.82500,24
40.83333,26
40.84167,28
40.85000,29
40.85833,31
40.86667,33
40.87500,34
40.88333,36
40.89167,37
40.90000,39
40.90833,40
40.91667,42
40.92500,43
40.93333,45
40.94167,46
40.95000,48
40.95833,49
40.96667,51
40.97500,53
40.98333,55
40.99167,57
41.00000,59
41.00833,61
41.01667,63
41.02500,64
41.03333,66
41.04167,67
41.05000,69
41.05833,70
41.06667,72
41.07500,74
41.08333,75
41.09167,77
41.10000,78
41.10833,80
41.11667,81
41.12500,83
41.13333,84
41.14167,85
41.15000,87
41.15833,89
41.16667,91
41.17500,92
41.18333,93
41.19167,95
41.20000,97
41.20833,98
41.21667,100
41.22500,102
41.23333,103
41.24167,105
41.25000,106
41.25833,108
41.26667,110
41.27500,112
41.28333,114
41.29167,115
41.30000,117
41.30833,118
41.31667,120
41.32500,122
41.33333,123
41.34167,124
41.35000,126
41.35833,127
41.36667,128
41.37500,130
41.38333,131
41.39167,133
41.40000,134
41.40833,136
41.41667,137
41.42500,138
41.43333,140
41.44167,141
41.45000,142
41.45833,143
41.46667,145
41.47500,146
41.48333,147
41.49167,148
41.50000,150
41.50833,151
41.51667,153
41.52500,154
41.53333,155
41.54167,156
41.55000,157
41.55833,158
41.56667,160
41.57500,161
41.58333,162
41.59167,163
41.60000,164
41.60833,166
41.61667,166
41.62500,167
41.63333,168
41.64167,169
41.65000,170
41.65833,170
41.66667,171
41.67500,172
41.68333,173
41.69167,173
41.70000,174
41.70833,175
41.71667,175
41.72500,175
41.73333,176
41.74167,176
41.75000,177
41.75833,177
41.76667,178
41.77500,178
41.78333,179
41.79167,180
41.80000,180
41.80833,180
41.81667,180
41.82500,181
41.83333,181
41.84167,182
41.85000,182
41.85833,181
41.86667,181
41.87500,182
41.88333,182
41.89167,182
41.90000,182
41.90833,183
41.91667,183
41.92500,183
41.93333,183
41.94167,183
41.95000,183
41.95833,183
41.96667,183
41.97500,183
41.98333,183
41.99167,182
42.00000,182
42.00833,181
42.01667,181
42.02500,181
42.03333,181
42.04167,181
42.05000,181
42.05833,180
42.06667,180
42.07500,180
42.08333,180
42.09167,179
42.10000,179
42.10833,179
42.11667,179
42.12500,179
42.13333,179
42.14167,178
42.15000,177
42.15833,177
42.16667,177
42.17500,177
42.18333,176
42.19167,176
42.20000,175
42.20833,174
42.21667,174
42.22500,173
42.23333,173
42.24167,172
42.25000,172
42.25833,171
42.26667,170
42.27500,169
42.28333,169
42.29167,169
42.30000,168
42.30833,168
42.31667,168
42.32500,167
42.33333,166
42.34167,165
42.35000,165
42.35833,164
42.36667,164
42.37500,163
42.38333,163
42.39167,162
42.40000,162
42.40833,161
42.41667,161
42.42500,160
42.43333,159
42.44167,159
42.45000,158
42.45833,157
42.46667,157
42.47500,156
42.48333,156
42.49167,155
42.50000,154
42.50833,153
42.51667,153
42.52500,152
42.53333,152
42.54167,151
42.55000,151
42.55833,150
42.56667,149
42.57500,148
42.58333,147
42.59167,146
42.60000,145
42.60833,144
42.61667,143
42.62500,143
42.63333,142
42.64167,141
42.65000,141
42.65833,140
42.66667,140
42.67500,139
42.68333,138
42.69167,137
42.70000,136
42.70833,135
42.71667,135
42.72500,134
42.73333,133
42.74167,132
42.75000,131
42.75833,130
42.76667,129
42.77500,128
42.78333,127
42.79167,126
42.80000,125
42.80833,124
42.81667,123
42.82500,121
42.83333,120
42.84167,120
42.85000,119
42.85833,118
42.86667,118
42.87500,117
42.88333,116
42.89167,115
42.90000,114
42.90833,113
42.91667,112
42.92500,111
42.93333,111
42.94167,110
42.95000,109
42.95833,108
42.96667,107
42.97500,106
42.98333,105
42.99167,104
43.00000,103
43.00833,103
43.01667,102
43.02500,102
43.03333,100
43.04167,99
43.05000,98
43.05833,97
43.06667,96
43.07500,95
43.08333,94
43.09167,94
43.10000,93
43.10833,92
43.11667,91
43.12500,90
43.13333,89
43.14167,88
43.15000,87
43.15833,86
43.16667,85
43.17500,84
43.18333,83
43.19167,83
43.20000,81
43.20833,81
43.21667,80
43.22500,80
43.23333,79
43.24167,79
43.25000,78
43.25833,78
43.26667,77
43.27500,76
43.28333,75
43.29167,74
43.30000,73
43.30833,72
43.31667,71
43.32500,70
43.33333,70
43.34167,69
43.35000,68
43.35833,67
43.36667,66
43.37500,66
43.38333,65
43.39167,65
43.40000,64
43.40833,63
43.41667,62
43.42500,61
43.43333,60
43.44167,60
43.45000,59
43.45833,58
43.46667,57
43.47500,56
43.48333,55
43.49167,55
43.50000,54
43.50833,53
43.51667,52
43.52500,52
43.53333,51
43.54167,51
43.55000,50
43.55833,49
43.56667,48
43.57500,47
43.58333,47
43.59167,46
43.60000,45
43.60833,44
43.61667,43
43.62500,42
43.63333,42
43.64167,42
43.65000,42
43.65833,41
43.66667,40
43.67500,40
43.68333,39
43.69167,38
43.70000,38
43.70833,37
43.71667,37
43.72500,36
43.73333,35
43.74167,34
43.75000,33
43.75833,32
43.76667,32
43.77500,31
43.78333,30
43.79167,30
43.80000,29
43.80833,29
43.81667,28
43.82500,28
43.83333,27
43.84167,27
43.85000,26
43.85833,26
43.86667,25
43.87500,24
43.88333,24
43.89167,23
43.90000,23
43.90833,22
43.91667,22
43.92500,21
43.93333,21
43.94167,20
43.95000,19
43.95833,19
43.96667,18
43.97500,17
43.98333,16
43.99167,16
44.00000,15
44.00833,15
44.01667,14
44.02500,14
44.03333,13
44.04167,12
44.05000,12
44.05833,11
44.06667,10
44.07500,10
44.08333,9
44.09167,9
44.10000,8
44.10833,8
44.11667,7
44.12500,7
44.13333,6
44.14167,5
44.15000,5
44.15833,4
44.16667,3
44.17500,2
44.18333,2
44.19167,1
44.20000,1
44.20833,0
44.21667,0
44.22500,-0
44.23333,-0
44.24167,-1
44.25000,-1
44.25833,-2
44.26667,-2
44.27500,-3
44.28333,-3
44.29167,-4
44.30000,-4
44.30833,-5
44.31667,-6
44.32500,-6
44.33333,-7
44.34167,-7
44.35000,-7
44.35833,-7
44.36667,-7
44.37500,-8
44.38333,-9
44.39167,-9
44.40000,-9
44.40833,-9
44.41667,-9
44.42500,-10
44.43333,-10
44.44167,-11
44.45000,-11
44.45833,-12
44.46667,-13
44.47500,-13
44.48333,-13
44.49167,-14
44.50000,-14
44.50833,-15
44.51667,-15
44.52500,-16
44.53333,-17
44.54167,-17
44.55000,-17
44.55833,-17
44.56667,-17
44.57500,-17
44.58333,-17
44.59167,-18
44.60000,-18
44.60833,-19
44.61667,-19
44.62500,-20
44.63333,-20
44.64167,-20
44.65000,-21
44.65833,-21
44.66667,-21
44.67500,-21
44.68333,-22
44.69167,-22
44.70000,-22
44.70833,-22
44.71667,-22
44.72500,-22
44.73333,-23
44.74167,-23
44.75000,-23
44.75833,-23
44.76667,-23
44.77500,-23
44.78333,-23
44.79167,-23
44.80000,-23
44.80833,-23
44.81667,-24
44.82500,-24
44.83333,-24
44.84167,-24
44.85000,-25
44.85833,-25
44.86667,-26
44.87500,-26
44.88333,-26
44.89167,-26
44.90000,-26
44.90833,-26
44.91667,-26
44.92500,-26
44.93333,-26
44.94167,-26
44.95000,-27
44.95833,-27
44.96667,-27
44.97500,-27
44.98333,-27
44.99167,-27
45.00000,-28
45.00833,-28
45.01667,-29
45.02500,-29
45.03333,-29
45.04167,-29
45.05000,-29
45.05833,-29
45.06667,-29
45.07500,-29
45.08333,-29
45.09167,-29
45.10000,-29
45.10833,-29
45.11667,-29
45.12500,-30
45.13333,-30
45.14167,-30
45.15000,-30
45.15833,-30
45.16667,-30
45.17500,-30
45.18333,-30
45.19167,-29
45.20000,-30
45.20833,-30
45.21667,-30
45.22500,-30
45.23333,-30
45.24167,-30
45.25000,-30
45.25833,-30
45.26667,-30
45.27500,-30
45.28333,-30
45.29167,-30
45.30000,-30
45.30833,-30
45.31667,-30
45.32500,-30
45.33333,-30
45.34167,-30
45.35000,-30
45.35833,-30
45.36667,-29
45.37500,-29
45.38333,-29
45.39167,-30
45.40000,-30
45.40833,-30
45.41667,-30
45.42500,-30
45.43333,-30
45.44167,-30
45.45000,-30
45.45833,-30
45.46667,-30
45.47500,-31
45.48333,-30
45.49167,-31
45.50000,-31
45.50833,-31
45.51667,-30
45.52500,-30
45.53333,-30
45.54167,-30
45.55000,-30
45.55833,-30
45.56667,-30
45.57500,-30
45.58333,-30
45.59167,-30
45.60000,-30
45.60833,-31
45.61667,-31
45.62500,-31
45.63333,-31
45.64167,-31
45.65000,-31
45.65833,-31
45.66667,-31
45.67500,-31
45.68333,-31
45.69167,-31
45.70000,-31
45.70833,-31
45.71667,-31
45.72500,-31
45.73333,-32
45.74167,-32
45.75000,-32
45.75833,-32
45.76667,-32
45.77500,-32
45.78333,-32
45.79167,-32
45.80000,-32
45.80833,-32
45.81667,-32
45.82500,-32
45.83333,-33
45.84167,-33
45.85000,-33
45.85833,-33
45.86667,-33
45.87500,-33
45.88333,-33
45.89167,-33
45.90000,-33
45.90833,-34
45.91667,-34
45.92500,-34
45.93333,-34
45.94167,-35
45.95000,-35
45.95833,-35
45.96667,-35
45.97500,-35
45.98333,-35
45.99167,-35
46.00000,-35
46.00833,-35
46.01667,-35
46.02500,-36
46.03333,-36
46.04167,-36
46.05000,-36
46.05833,-36
46.06667,-36
46.07500,-37
46.08333,-37
46.09167,-38
46.10000,-38
46.10833,-38
46.11667,-38
46.12500,-38
46.13333,-39
46.14167,-39
46.15000,-39
46.15833,-39
46.16667,-39
46.17500,-39
46.18333,-40
46.19167,-40
46.20000,-40
46.20833,-40
46.21667,-40
46.22500,-41
46.23333,-41
46.24167,-41
46.25000,-41
46.25833,-42
46.26667,-42
46.27500,-43
46.28333,-43
46.29167,-43
46.30000,-43
46.30833,-43
46.31667,-44
46.32500,-44
46.33333,-44
46.34167,-44
46.35000,-44
46.35833,-45
46.36667,-45
46.37500,-45
46.38333,-46
46.39167,-46
46.40000,-46
46.40833,-46
46.41667,-46
46.42500,-46
46.43333,-47
46.44167,-47
46.45000,-48
46.45833,-48
46.46667,-49
46.47500,-49
46.48333,-49
46.49167,-49
46.50000,-49
46.50833,-50
46.51667,-50
46.52500,-50
46.53333,-51
46.54167,-51
46.55000,-51
46.55833,-52
46.56667,-52
46.57500,-52
46.58333,-52
46.59167,-52
46.60000,-53
46.60833,-53
46.61667,-53
46.62500,-53
46.63333,-53
46.64167,-53
46.65000,-54
46.65833,-54
46.66667,-55
46.67500,-55
46.68333,-55
46.69167,-56
46.70000,-56
46.70833,-55
46.71667,-55
46.72500,-56
46.73333,-56
46.74167,-56
46.75000,-56
46.75833,-56
46.76667,-57
46.77500,-57
46.78333,-57
46.79167,-57
46.80000,-57
46.80833,-57
46.81667,-57
46.82500,-57
46.83333,-57
46.84167,-57
46.85000,-57
46.85833,-58
46.86667,-58
46.87500,-58
46.88333,-58
46.89167,-58
46.90000,-58
46.90833,-58
46.91667,-58
46.92500,-59
46.93333,-59
46.94167,-59
46.95000,-59
46.95833,-59
46.96667,-59
46.97500,-59
46.98333,-58
46.99167,-58
47.00000,-58
47.00833,-59
47.01667,-59
47.02500,-59
47.03333,-58
47.04167,-58
47.05000,-58
47.05833,-58
47.06667,-58
47.07500,-57
47.08333,-57
47.09167,-57
47.10000,-57
47.10833,-58
47.11667,-58
47.12500,-57
47.13333,-57
47.14167,-57
47.15000,-57
47.15833,-57
47.16667,-56
47.17500,-56
47.18333,-55
47.19167,-55
47.20000,-55
47.20833,-55
47.21667,-55
47.22500,-55
47.23333,-55
47.24167,-54
47.25000,-54
47.25833,-54
47.26667,-54
47.27500,-53
47.28333,-52
47.29167,-52
47.30000,-52
47.30833,-51
47.31667,-50
47.32500,-50
47.33333,-49
47.34167,-49
47.35000,-48
47.35833,-48
47.36667,-48
47.37500,-47
47.38333,-46
47.39167,-46
47.40000,-45
47.40833,-44
47.41667,-44
47.42500,-43
47.43333,-43
47.44167,-42
47.45000,-42
47.45833,-41
47.46667,-41
47.47500,-40
47.48333,-39
47.49167,-38
47.50000,-38
47.50833,-37
47.51667,-36
47.52500,-35
47.53333,-34
47.54167,-33
47.55000,-33
47.55833,-32
47.56667,-31
47.57500,-30
47.58333,-30
47.59167,-29
47.60000,-28
47.60833,-27
47.61667,-26
47.62500,-25
47.63333,-24
47.64167,-23
47.65000,-22
47.65833,-21
47.66667,-20
47.67500,-19
47.68333,-19
47.69167,-18
47.70000,-17
47.70833,-16
47.71667,-15
47.72500,-14
47.73333,-14
47.74167,-13
47.75000,-12
47.75833,-11
47.76667,-10
47.77500,-9
47.78333,-8
47.79167,-8
47.80000,-7
47.80833,-6
47.81667,-6
47.82500,-5
47.83333,-4
47.84167,-3
47.85000,-2
47.85833,-2
47.86667,-1
47.87500,-1
47.88333,-0
47.89167,0
47.90000,1
47.90833,1
47.91667,2
47.92500,3
47.93333,4
47.94167,4
47.95000,5
47.95833,6
47.96667,6
47.97500,7
47.98333,7
47.99167,7
48.00000,8
48.00833,8
48.01667,9
48.02500,9
48.03333,10
48.04167,11
48.05000,12
48.05833,12
48.06667,12
48.07500,13
48.08333,13
48.09167,13
48.10000,14
48.10833,14
48.11667,15
48.12500,16
48.13333,16
48.14167,16
48.15000,16
48.15833,17
48.16667,17
48.17500,17
48.18333,17
48.19167,18
48.20000,18
48.20833,18
48.21667,19
48.22500,19
48.23333,19
48.24167,19
48.25000,20
48.25833,20
48.26667,20
48.27500,21
48.28333,21
48.29167,21
48.30000,22
48.30833,22
48.31667,22
48.32500,22
48.33333,22
48.34167,23
48.35000,23
48.35833,23
48.36667,24
48.37500,24
48.38333,23
48.39167,24
48.40000,24
48.40833,24
48.41667,25
48.42500,25
48.43333,25
48.44167,25
48.45000,24
48.45833,24
48.46667,24
48.47500,24
48.48333,24
48.49167,24
48.50000,24
48.50833,24
48.51667,24
48.52500,24
48.53333,24
48.54167,24
48.55000,24
48.55833,24
48.56667,25
48.57500,25
48.58333,25
48.59167,25
48.60000,25
48.60833,25
48.61667,24
48.62500,24
48.63333,24
48.64167,24
48.65000,24
48.65833,24
48.66667,24
48.67500,24
48.68333,24
48.69167,24
48.70000,24
48.70833,24
48.71667,24
48.72500,24
48.73333,24
48.74167,24
48.75000,24
48.75833,24
48.76667,24
48.77500,25
48.78333,25
48.79167,25
48.80000,25
48.80833,25
48.81667,25
48.82500,25
48.83333,26
48.84167,26
48.85000,26
48.85833,25
48.86667,25
48.87500,25
48.88333,25
48.89167,26
48.90000,25
48.90833,25
48.91667,25
48.92500,25
48.93333,26
48.94167,26
48.95000,26
48.95833,25
48.96667,25
48.97500,26
48.98333,26
48.99167,26
49.00000,27
49.00833,27
49.01667,27
49.02500,27
49.03333,27
49.04167,27
49.05000,26
49.05833,26
49.06667,26
49.07500,26
49.08333,26
49.09167,26
49.10000,26
49.10833,26
49.11667,27
49.12500,27
49.13333,27
49.14167,27
49.15000,27
49.15833,27
49.16667,27
49.17500,27
49.18333,27
49.19167,27
49.20000,27
49.20833,26
49.21667,26
49.22500,27
49.23333,27
49.24167,26
49.25000,26
49.25833,26
49.26667,25
49.27500,25
49.28333,25
49.29167,25
49.30000,25
49.30833,25
49.31667,25
49.32500,25
49.33333,25
49.34167,25
49.35000,24
49.35833,24
49.36667,25
49.37500,25
49.38333,25
49.39167,25
49.40000,24
49.40833,24
49.41667,24
49.42500,24
49.43333,24
49.44167,23
49.45000,22
49.45833,22
49.46667,22
49.47500,22
49.48333,22
49.49167,22
49.50000,22
49.50833,22
49.51667,21
49.52500,21
49.53333,21
49.54167,21
49.55000,21
49.55833,21
49.56667,21
49.57500,21
49.58333,20
49.59167,20
49.60000,19
49.60833,18
49.61667,18
49.62500,17
49.63333,17
49.64167,17
49.65000,16
49.65833,16
49.66667,16
49.67500,16
49.68333,15
49.69167,15
49.70000,14
49.70833,14
49.71667,13
49.72500,13
49.73333,12
49.74167,12
49.75000,12
49.75833,11
49.76667,11
49.77500,10
49.78333,10
49.79167,9
49.80000,9
49.80833,9
49.81667,8
49.82500,8
49.83333,7
49.84167,6
49.85000,6
49.85833,5
49.86667,4
49.87500,3
49.88333,2
49.89167,2
49.90000,1
49.90833,1
49.91667,0
49.92500,-0
49.93333,-1
49.94167,-1
49.95000,-2
49.95833,-3
49.96667,-4
49.97500,-5
49.98333,-6
49.99167,-6
50.00000,-7

