[Header]
Application Name,LabSolutions
Version,5.97 SP1
Data File Name,C:\Users\cremerlab\Desktop\Richa\Sep_6th_2022_re-run_Sep2nd\Sep 6th_962022_002_003.lcd
Output Date,9/6/2022
Output Time,6:52:41 PM

[File Information]
Type,Data File
Generated,9/6/2022 6:02:21 PM
Generated by,System Administrator
Modified,9/6/2022 6:52:41 PM
Modified by,System Administrator

[Sample Information]
Operator Name,System Administrator
Acquired,9/6/2022 6:02:40 PM
Sample Type,0:Unknown
Level,0
Sample Name,090622_B.fragilis_1
Sample ID,002
ISTD Amount1,1
ISTD Amount2,1
ISTD Amount3,1
ISTD Amount4,1
ISTD Amount5,1
ISTD Amount6,1
ISTD Amount7,1
ISTD Amount8,1
ISTD Amount9,1
ISTD Amount10,1
ISTD Amount11,1
ISTD Amount12,1
ISTD Amount13,1
ISTD Amount14,1
ISTD Amount15,1
ISTD Amount16,1
ISTD Amount17,1
ISTD Amount18,1
ISTD Amount19,1
ISTD Amount20,1
ISTD Amount21,1
ISTD Amount22,1
ISTD Amount23,1
ISTD Amount24,1
ISTD Amount25,1
ISTD Amount26,1
ISTD Amount27,1
ISTD Amount28,1
ISTD Amount29,1
ISTD Amount30,1
ISTD Amount31,1
ISTD Amount32,1
Sample Amount,1
Dilution Factor,1
Vial#,2
Injection Volume,20

[Original Files]
Data File,C:\Users\cremerlab\Desktop\Richa\Sep_6th_2022_re-run_Sep2nd\Sep 6th_962022_002_003.lcd
Method File,C:\Users\cremerlab\Desktop\Richa\acetate_excretion.lcm
Batch File,C:\Users\cremerlab\Desktop\Richa\Sep_6th_2022_re-run_Sep2nd\Sep 6th.lcb
Report Format File,c:\LabSolutions\System\DEFAULT.lsr

[File Description]


[Configuration]
Instrument Name,HPLC-PC-Instrument1
Instrument #,1
Line #,1
# of Detectors,2
Detector ID,Detector A,Detector B
Detector Name,Detector A,Detector B
# of Channels,1,1

[Peak Table(Detector A)]
# of Peaks,0

[Peak Table(Detector B)]
# of Peaks,11
Peak#,R.Time,I.Time,F.Time,Area,Height,A/H,Conc.,Mark,ID#,Name,k',Plate #,Plate Ht.,Tailing,Resolution,Sep.Factor,Area Ratio,Height Ratio,Conc. %,Norm Conc.
1,10.472,10.267,10.508,1482,198,7.504,0.000,   ,,,0.000,9486,15.813,0.000,0.000,0.000,0,0,0.000,0.000
2,11.018,10.508,12.317,2263621,115748,19.556,0.000, V ,,,0.052,7526,19.930,0.968,1.165,0.000,0,0,0.000,0.000
3,14.326,12.642,15.175,3581716,76622,46.745,0.000,   ,,,0.368,2481,60.463,0.655,3.990,7.057,0,0,0.000,0.000
4,15.756,15.175,18.417,1446033,49100,29.451,0.000,SV ,,,0.505,6901,21.737,1.145,1.498,1.371,0,0,0.000,0.000
5,17.852,17.400,18.392,7550,255,29.582,0.000,T  ,,,0.705,7710,19.456,1.071,2.667,1.397,0,0,0.000,0.000
6,19.107,18.442,19.767,11822,286,41.273,0.000,   ,,,0.825,4367,34.347,0.979,1.274,1.170,0,0,0.000,0.000
7,20.286,19.767,20.708,20699,587,35.250,0.000,   ,,,0.937,5521,27.168,0.000,1.049,1.137,0,0,0.000,0.000
8,21.722,20.708,22.592,51310,767,66.880,0.000, V ,,,1.074,819,183.081,0.000,0.696,1.146,0,0,0.000,0.000
9,25.077,24.300,26.417,145944,3535,41.284,0.000,   ,,,1.395,8985,16.695,1.164,1.639,1.298,0,0,0.000,0.000
10,29.201,28.325,30.275,130064,2795,46.532,0.000,   ,,,1.789,9247,16.221,1.066,3.629,1.282,0,0,0.000,0.000
11,32.522,31.717,34.200,32394,439,73.743,0.000,   ,,,2.106,2062,72.751,1.492,1.628,1.177,0,0,0.000,0.000

[LC Chromatogram(Detector B-Ch1)]
Interval(msec),500
# of Points,6001
Start Time(min),0.000
End Time(min),50.000
Intensity Units,mV
Intensity Multiplier,0.001
R.Time (min),Intensity
0.00000,-22
0.00833,-22
0.01667,-0
0.02500,-2
0.03333,-3
0.04167,-3
0.05000,-4
0.05833,-5
0.06667,-5
0.07500,-6
0.08333,-7
0.09167,-7
0.10000,-7
0.10833,-7
0.11667,-8
0.12500,-9
0.13333,-10
0.14167,-11
0.15000,-12
0.15833,-13
0.16667,-13
0.17500,-14
0.18333,-14
0.19167,-15
0.20000,-15
0.20833,-15
0.21667,-16
0.22500,-16
0.23333,-16
0.24167,-16
0.25000,-17
0.25833,-17
0.26667,-18
0.27500,-19
0.28333,-19
0.29167,-19
0.30000,-19
0.30833,-20
0.31667,-20
0.32500,-21
0.33333,-21
0.34167,-21
0.35000,-22
0.35833,-23
0.36667,-23
0.37500,-23
0.38333,-24
0.39167,-25
0.40000,-25
0.40833,-25
0.41667,-25
0.42500,-26
0.43333,-26
0.44167,-26
0.45000,-26
0.45833,-26
0.46667,-27
0.47500,-27
0.48333,-27
0.49167,-27
0.50000,-27
0.50833,-27
0.51667,-28
0.52500,-28
0.53333,-28
0.54167,-28
0.55000,-28
0.55833,-29
0.56667,-29
0.57500,-29
0.58333,-29
0.59167,-30
0.60000,-30
0.60833,-30
0.61667,-31
0.62500,-31
0.63333,-31
0.64167,-31
0.65000,-31
0.65833,-31
0.66667,-32
0.67500,-32
0.68333,-32
0.69167,-32
0.70000,-32
0.70833,-32
0.71667,-32
0.72500,-33
0.73333,-33
0.74167,-33
0.75000,-33
0.75833,-33
0.76667,-33
0.77500,-33
0.78333,-33
0.79167,-33
0.80000,-33
0.80833,-33
0.81667,-33
0.82500,-33
0.83333,-33
0.84167,-33
0.85000,-34
0.85833,-33
0.86667,-33
0.87500,-33
0.88333,-33
0.89167,-33
0.90000,-33
0.90833,-33
0.91667,-33
0.92500,-32
0.93333,-32
0.94167,-33
0.95000,-33
0.95833,-33
0.96667,-33
0.97500,-33
0.98333,-33
0.99167,-32
1.00000,-32
1.00833,-32
1.01667,-32
1.02500,-31
1.03333,-31
1.04167,-31
1.05000,-31
1.05833,-30
1.06667,-30
1.07500,-30
1.08333,-30
1.09167,-30
1.10000,-30
1.10833,-30
1.11667,-30
1.12500,-30
1.13333,-30
1.14167,-29
1.15000,-30
1.15833,-30
1.16667,-29
1.17500,-29
1.18333,-29
1.19167,-29
1.20000,-29
1.20833,-29
1.21667,-29
1.22500,-29
1.23333,-29
1.24167,-29
1.25000,-29
1.25833,-29
1.26667,-29
1.27500,-29
1.28333,-29
1.29167,-29
1.30000,-29
1.30833,-29
1.31667,-28
1.32500,-28
1.33333,-28
1.34167,-27
1.35000,-27
1.35833,-27
1.36667,-27
1.37500,-27
1.38333,-27
1.39167,-27
1.40000,-27
1.40833,-27
1.41667,-27
1.42500,-27
1.43333,-27
1.44167,-26
1.45000,-26
1.45833,-26
1.46667,-25
1.47500,-25
1.48333,-26
1.49167,-26
1.50000,-26
1.50833,-26
1.51667,-26
1.52500,-25
1.53333,-25
1.54167,-25
1.55000,-25
1.55833,-25
1.56667,-25
1.57500,-25
1.58333,-25
1.59167,-25
1.60000,-25
1.60833,-24
1.61667,-24
1.62500,-24
1.63333,-24
1.64167,-24
1.65000,-24
1.65833,-24
1.66667,-24
1.67500,-24
1.68333,-24
1.69167,-23
1.70000,-23
1.70833,-23
1.71667,-23
1.72500,-23
1.73333,-23
1.74167,-23
1.75000,-23
1.75833,-23
1.76667,-24
1.77500,-24
1.78333,-24
1.79167,-24
1.80000,-24
1.80833,-24
1.81667,-24
1.82500,-23
1.83333,-23
1.84167,-23
1.85000,-23
1.85833,-23
1.86667,-23
1.87500,-23
1.88333,-23
1.89167,-23
1.90000,-23
1.90833,-23
1.91667,-23
1.92500,-23
1.93333,-23
1.94167,-23
1.95000,-23
1.95833,-23
1.96667,-23
1.97500,-23
1.98333,-23
1.99167,-23
2.00000,-23
2.00833,-22
2.01667,-22
2.02500,-22
2.03333,-22
2.04167,-22
2.05000,-22
2.05833,-22
2.06667,-23
2.07500,-23
2.08333,-23
2.09167,-23
2.10000,-22
2.10833,-23
2.11667,-23
2.12500,-23
2.13333,-23
2.14167,-23
2.15000,-23
2.15833,-23
2.16667,-23
2.17500,-23
2.18333,-23
2.19167,-24
2.20000,-24
2.20833,-24
2.21667,-24
2.22500,-24
2.23333,-24
2.24167,-24
2.25000,-23
2.25833,-23
2.26667,-23
2.27500,-23
2.28333,-23
2.29167,-24
2.30000,-24
2.30833,-24
2.31667,-24
2.32500,-24
2.33333,-24
2.34167,-24
2.35000,-24
2.35833,-25
2.36667,-25
2.37500,-25
2.38333,-25
2.39167,-25
2.40000,-25
2.40833,-25
2.41667,-26
2.42500,-26
2.43333,-26
2.44167,-25
2.45000,-25
2.45833,-25
2.46667,-25
2.47500,-25
2.48333,-26
2.49167,-26
2.50000,-26
2.50833,-27
2.51667,-27
2.52500,-27
2.53333,-27
2.54167,-27
2.55000,-27
2.55833,-27
2.56667,-27
2.57500,-27
2.58333,-28
2.59167,-28
2.60000,-28
2.60833,-28
2.61667,-28
2.62500,-28
2.63333,-28
2.64167,-28
2.65000,-28
2.65833,-29
2.66667,-29
2.67500,-29
2.68333,-30
2.69167,-30
2.70000,-30
2.70833,-30
2.71667,-30
2.72500,-30
2.73333,-31
2.74167,-31
2.75000,-32
2.75833,-32
2.76667,-32
2.77500,-32
2.78333,-32
2.79167,-32
2.80000,-32
2.80833,-32
2.81667,-32
2.82500,-32
2.83333,-32
2.84167,-32
2.85000,-32
2.85833,-32
2.86667,-32
2.87500,-33
2.88333,-33
2.89167,-33
2.90000,-33
2.90833,-33
2.91667,-33
2.92500,-33
2.93333,-34
2.94167,-34
2.95000,-34
2.95833,-34
2.96667,-34
2.97500,-34
2.98333,-34
2.99167,-33
3.00000,-34
3.00833,-34
3.01667,-34
3.02500,-34
3.03333,-35
3.04167,-35
3.05000,-35
3.05833,-35
3.06667,-35
3.07500,-35
3.08333,-35
3.09167,-35
3.10000,-35
3.10833,-35
3.11667,-35
3.12500,-35
3.13333,-35
3.14167,-35
3.15000,-35
3.15833,-35
3.16667,-35
3.17500,-35
3.18333,-35
3.19167,-35
3.20000,-35
3.20833,-35
3.21667,-35
3.22500,-35
3.23333,-35
3.24167,-35
3.25000,-35
3.25833,-35
3.26667,-35
3.27500,-34
3.28333,-34
3.29167,-34
3.30000,-34
3.30833,-34
3.31667,-35
3.32500,-35
3.33333,-35
3.34167,-35
3.35000,-34
3.35833,-34
3.36667,-34
3.37500,-34
3.38333,-34
3.39167,-34
3.40000,-34
3.40833,-33
3.41667,-33
3.42500,-33
3.43333,-33
3.44167,-33
3.45000,-33
3.45833,-33
3.46667,-33
3.47500,-33
3.48333,-32
3.49167,-32
3.50000,-32
3.50833,-32
3.51667,-32
3.52500,-32
3.53333,-32
3.54167,-31
3.55000,-31
3.55833,-31
3.56667,-31
3.57500,-31
3.58333,-30
3.59167,-30
3.60000,-30
3.60833,-30
3.61667,-30
3.62500,-30
3.63333,-30
3.64167,-30
3.65000,-30
3.65833,-29
3.66667,-29
3.67500,-29
3.68333,-29
3.69167,-29
3.70000,-29
3.70833,-29
3.71667,-28
3.72500,-28
3.73333,-28
3.74167,-28
3.75000,-28
3.75833,-27
3.76667,-27
3.77500,-27
3.78333,-27
3.79167,-26
3.80000,-26
3.80833,-26
3.81667,-26
3.82500,-25
3.83333,-25
3.84167,-24
3.85000,-24
3.85833,-24
3.86667,-24
3.87500,-24
3.88333,-23
3.89167,-23
3.90000,-23
3.90833,-23
3.91667,-22
3.92500,-22
3.93333,-21
3.94167,-21
3.95000,-20
3.95833,-20
3.96667,-20
3.97500,-20
3.98333,-19
3.99167,-19
4.00000,-19
4.00833,-18
4.01667,-18
4.02500,-18
4.03333,-17
4.04167,-17
4.05000,-17
4.05833,-16
4.06667,-16
4.07500,-16
4.08333,-15
4.09167,-14
4.10000,-14
4.10833,-13
4.11667,-13
4.12500,-12
4.13333,-11
4.14167,-10
4.15000,-10
4.15833,-10
4.16667,-9
4.17500,-9
4.18333,-8
4.19167,-8
4.20000,-8
4.20833,-7
4.21667,-7
4.22500,-6
4.23333,-5
4.24167,-4
4.25000,-4
4.25833,-3
4.26667,-3
4.27500,-2
4.28333,-1
4.29167,-0
4.30000,0
4.30833,1
4.31667,1
4.32500,2
4.33333,3
4.34167,4
4.35000,4
4.35833,5
4.36667,6
4.37500,6
4.38333,6
4.39167,7
4.40000,8
4.40833,8
4.41667,9
4.42500,10
4.43333,10
4.44167,11
4.45000,12
4.45833,12
4.46667,13
4.47500,14
4.48333,15
4.49167,16
4.50000,17
4.50833,17
4.51667,18
4.52500,19
4.53333,20
4.54167,21
4.55000,21
4.55833,22
4.56667,23
4.57500,24
4.58333,25
4.59167,25
4.60000,26
4.60833,27
4.61667,27
4.62500,28
4.63333,28
4.64167,29
4.65000,30
4.65833,30
4.66667,31
4.67500,31
4.68333,32
4.69167,32
4.70000,33
4.70833,33
4.71667,34
4.72500,34
4.73333,35
4.74167,35
4.75000,36
4.75833,36
4.76667,37
4.77500,37
4.78333,38
4.79167,38
4.80000,39
4.80833,39
4.81667,39
4.82500,39
4.83333,40
4.84167,40
4.85000,40
4.85833,41
4.86667,41
4.87500,42
4.88333,42
4.89167,42
4.90000,43
4.90833,43
4.91667,43
4.92500,43
4.93333,43
4.94167,44
4.95000,44
4.95833,45
4.96667,45
4.97500,45
4.98333,45
4.99167,45
5.00000,45
5.00833,46
5.01667,46
5.02500,46
5.03333,46
5.04167,46
5.05000,46
5.05833,46
5.06667,46
5.07500,46
5.08333,46
5.09167,46
5.10000,46
5.10833,46
5.11667,46
5.12500,46
5.13333,46
5.14167,46
5.15000,46
5.15833,45
5.16667,45
5.17500,44
5.18333,44
5.19167,44
5.20000,44
5.20833,44
5.21667,44
5.22500,44
5.23333,44
5.24167,44
5.25000,44
5.25833,44
5.26667,44
5.27500,44
5.28333,44
5.29167,43
5.30000,43
5.30833,43
5.31667,42
5.32500,42
5.33333,42
5.34167,41
5.35000,41
5.35833,41
5.36667,41
5.37500,41
5.38333,40
5.39167,40
5.40000,39
5.40833,38
5.41667,37
5.42500,37
5.43333,37
5.44167,37
5.45000,37
5.45833,36
5.46667,36
5.47500,35
5.48333,34
5.49167,34
5.50000,34
5.50833,33
5.51667,33
5.52500,32
5.53333,31
5.54167,31
5.55000,31
5.55833,30
5.56667,30
5.57500,29
5.58333,28
5.59167,28
5.60000,27
5.60833,27
5.61667,26
5.62500,26
5.63333,25
5.64167,24
5.65000,24
5.65833,23
5.66667,22
5.67500,22
5.68333,21
5.69167,21
5.70000,20
5.70833,20
5.71667,19
5.72500,18
5.73333,17
5.74167,17
5.75000,16
5.75833,15
5.76667,14
5.77500,14
5.78333,13
5.79167,13
5.80000,12
5.80833,12
5.81667,11
5.82500,10
5.83333,9
5.84167,9
5.85000,8
5.85833,8
5.86667,7
5.87500,6
5.88333,5
5.89167,4
5.90000,4
5.90833,3
5.91667,2
5.92500,2
5.93333,1
5.94167,-0
5.95000,-0
5.95833,-1
5.96667,-2
5.97500,-3
5.98333,-3
5.99167,-4
6.00000,-4
6.00833,-5
6.01667,-6
6.02500,-7
6.03333,-8
6.04167,-9
6.05000,-9
6.05833,-10
6.06667,-11
6.07500,-12
6.08333,-13
6.09167,-13
6.10000,-14
6.10833,-14
6.11667,-15
6.12500,-15
6.13333,-16
6.14167,-17
6.15000,-18
6.15833,-18
6.16667,-19
6.17500,-19
6.18333,-20
6.19167,-20
6.20000,-21
6.20833,-21
6.21667,-22
6.22500,-23
6.23333,-23
6.24167,-24
6.25000,-24
6.25833,-25
6.26667,-25
6.27500,-26
6.28333,-27
6.29167,-27
6.30000,-28
6.30833,-28
6.31667,-29
6.32500,-30
6.33333,-30
6.34167,-31
6.35000,-31
6.35833,-31
6.36667,-32
6.37500,-32
6.38333,-32
6.39167,-33
6.40000,-33
6.40833,-34
6.41667,-34
6.42500,-34
6.43333,-35
6.44167,-35
6.45000,-36
6.45833,-36
6.46667,-37
6.47500,-37
6.48333,-37
6.49167,-38
6.50000,-38
6.50833,-38
6.51667,-38
6.52500,-38
6.53333,-38
6.54167,-38
6.55000,-39
6.55833,-39
6.56667,-39
6.57500,-38
6.58333,-38
6.59167,-39
6.60000,-39
6.60833,-40
6.61667,-40
6.62500,-40
6.63333,-40
6.64167,-40
6.65000,-41
6.65833,-41
6.66667,-41
6.67500,-41
6.68333,-41
6.69167,-41
6.70000,-42
6.70833,-42
6.71667,-43
6.72500,-42
6.73333,-42
6.74167,-42
6.75000,-42
6.75833,-42
6.76667,-42
6.77500,-42
6.78333,-42
6.79167,-42
6.80000,-43
6.80833,-43
6.81667,-43
6.82500,-43
6.83333,-43
6.84167,-43
6.85000,-43
6.85833,-43
6.86667,-43
6.87500,-43
6.88333,-43
6.89167,-43
6.90000,-43
6.90833,-44
6.91667,-44
6.92500,-44
6.93333,-43
6.94167,-43
6.95000,-43
6.95833,-43
6.96667,-43
6.97500,-43
6.98333,-43
6.99167,-43
7.00000,-44
7.00833,-44
7.01667,-44
7.02500,-44
7.03333,-44
7.04167,-44
7.05000,-44
7.05833,-44
7.06667,-44
7.07500,-44
7.08333,-43
7.09167,-43
7.10000,-43
7.10833,-43
7.11667,-44
7.12500,-44
7.13333,-44
7.14167,-44
7.15000,-44
7.15833,-44
7.16667,-44
7.17500,-44
7.18333,-44
7.19167,-44
7.20000,-44
7.20833,-44
7.21667,-44
7.22500,-44
7.23333,-44
7.24167,-44
7.25000,-44
7.25833,-43
7.26667,-43
7.27500,-44
7.28333,-44
7.29167,-44
7.30000,-44
7.30833,-44
7.31667,-44
7.32500,-44
7.33333,-44
7.34167,-44
7.35000,-44
7.35833,-44
7.36667,-44
7.37500,-44
7.38333,-44
7.39167,-44
7.40000,-43
7.40833,-43
7.41667,-43
7.42500,-43
7.43333,-43
7.44167,-43
7.45000,-43
7.45833,-43
7.46667,-43
7.47500,-43
7.48333,-43
7.49167,-43
7.50000,-43
7.50833,-43
7.51667,-43
7.52500,-43
7.53333,-43
7.54167,-44
7.55000,-44
7.55833,-44
7.56667,-44
7.57500,-44
7.58333,-44
7.59167,-44
7.60000,-44
7.60833,-44
7.61667,-44
7.62500,-44
7.63333,-44
7.64167,-43
7.65000,-44
7.65833,-44
7.66667,-44
7.67500,-44
7.68333,-44
7.69167,-45
7.70000,-45
7.70833,-45
7.71667,-45
7.72500,-45
7.73333,-45
7.74167,-45
7.75000,-45
7.75833,-45
7.76667,-45
7.77500,-45
7.78333,-44
7.79167,-44
7.80000,-44
7.80833,-44
7.81667,-45
7.82500,-45
7.83333,-45
7.84167,-45
7.85000,-45
7.85833,-45
7.86667,-45
7.87500,-45
7.88333,-45
7.89167,-45
7.90000,-45
7.90833,-45
7.91667,-45
7.92500,-45
7.93333,-45
7.94167,-45
7.95000,-45
7.95833,-45
7.96667,-46
7.97500,-46
7.98333,-45
7.99167,-45
8.00000,-45
8.00833,-45
8.01667,-45
8.02500,-44
8.03333,-44
8.04167,-44
8.05000,-44
8.05833,-44
8.06667,-44
8.07500,-44
8.08333,-44
8.09167,-45
8.10000,-45
8.10833,-45
8.11667,-45
8.12500,-45
8.13333,-45
8.14167,-45
8.15000,-45
8.15833,-45
8.16667,-45
8.17500,-45
8.18333,-45
8.19167,-44
8.20000,-45
8.20833,-45
8.21667,-45
8.22500,-45
8.23333,-44
8.24167,-44
8.25000,-44
8.25833,-45
8.26667,-45
8.27500,-45
8.28333,-45
8.29167,-45
8.30000,-45
8.30833,-45
8.31667,-45
8.32500,-45
8.33333,-45
8.34167,-45
8.35000,-45
8.35833,-45
8.36667,-45
8.37500,-45
8.38333,-44
8.39167,-44
8.40000,-44
8.40833,-45
8.41667,-45
8.42500,-46
8.43333,-46
8.44167,-46
8.45000,-45
8.45833,-45
8.46667,-45
8.47500,-44
8.48333,-44
8.49167,-44
8.50000,-44
8.50833,-44
8.51667,-44
8.52500,-44
8.53333,-45
8.54167,-45
8.55000,-45
8.55833,-45
8.56667,-45
8.57500,-45
8.58333,-45
8.59167,-45
8.60000,-45
8.60833,-45
8.61667,-45
8.62500,-45
8.63333,-46
8.64167,-46
8.65000,-46
8.65833,-46
8.66667,-45
8.67500,-45
8.68333,-45
8.69167,-45
8.70000,-46
8.70833,-46
8.71667,-46
8.72500,-46
8.73333,-46
8.74167,-46
8.75000,-46
8.75833,-46
8.76667,-46
8.77500,-46
8.78333,-46
8.79167,-46
8.80000,-45
8.80833,-46
8.81667,-46
8.82500,-46
8.83333,-46
8.84167,-46
8.85000,-45
8.85833,-45
8.86667,-45
8.87500,-45
8.88333,-45
8.89167,-45
8.90000,-45
8.90833,-44
8.91667,-44
8.92500,-44
8.93333,-45
8.94167,-45
8.95000,-45
8.95833,-45
8.96667,-45
8.97500,-45
8.98333,-45
8.99167,-45
9.00000,-45
9.00833,-45
9.01667,-46
9.02500,-46
9.03333,-45
9.04167,-45
9.05000,-45
9.05833,-45
9.06667,-45
9.07500,-46
9.08333,-45
9.09167,-45
9.10000,-45
9.10833,-45
9.11667,-45
9.12500,-45
9.13333,-45
9.14167,-45
9.15000,-45
9.15833,-45
9.16667,-44
9.17500,-44
9.18333,-44
9.19167,-44
9.20000,-44
9.20833,-44
9.21667,-44
9.22500,-45
9.23333,-45
9.24167,-45
9.25000,-45
9.25833,-45
9.26667,-45
9.27500,-44
9.28333,-44
9.29167,-44
9.30000,-44
9.30833,-44
9.31667,-44
9.32500,-44
9.33333,-44
9.34167,-45
9.35000,-45
9.35833,-45
9.36667,-45
9.37500,-45
9.38333,-45
9.39167,-45
9.40000,-45
9.40833,-45
9.41667,-44
9.42500,-44
9.43333,-44
9.44167,-43
9.45000,-43
9.45833,-43
9.46667,-43
9.47500,-43
9.48333,-43
9.49167,-43
9.50000,-43
9.50833,-43
9.51667,-43
9.52500,-43
9.53333,-43
9.54167,-43
9.55000,-43
9.55833,-43
9.56667,-43
9.57500,-43
9.58333,-43
9.59167,-44
9.60000,-44
9.60833,-44
9.61667,-44
9.62500,-44
9.63333,-44
9.64167,-44
9.65000,-43
9.65833,-43
9.66667,-43
9.67500,-43
9.68333,-43
9.69167,-42
9.70000,-42
9.70833,-42
9.71667,-42
9.72500,-42
9.73333,-43
9.74167,-42
9.75000,-42
9.75833,-42
9.76667,-42
9.77500,-42
9.78333,-42
9.79167,-42
9.80000,-42
9.80833,-42
9.81667,-41
9.82500,-41
9.83333,-41
9.84167,-41
9.85000,-41
9.85833,-41
9.86667,-41
9.87500,-41
9.88333,-41
9.89167,-41
9.90000,-41
9.90833,-41
9.91667,-41
9.92500,-41
9.93333,-42
9.94167,-42
9.95000,-41
9.95833,-41
9.96667,-41
9.97500,-41
9.98333,-41
9.99167,-40
10.00000,-40
10.00833,-40
10.01667,-40
10.02500,-40
10.03333,-40
10.04167,-39
10.05000,-39
10.05833,-39
10.06667,-38
10.07500,-38
10.08333,-37
10.09167,-37
10.10000,-37
10.10833,-36
10.11667,-36
10.12500,-35
10.13333,-35
10.14167,-34
10.15000,-33
10.15833,-32
10.16667,-30
10.17500,-29
10.18333,-28
10.19167,-27
10.20000,-26
10.20833,-25
10.21667,-23
10.22500,-21
10.23333,-19
10.24167,-17
10.25000,-15
10.25833,-13
10.26667,-11
10.27500,-8
10.28333,-5
10.29167,-1
10.30000,3
10.30833,8
10.31667,14
10.32500,21
10.33333,30
10.34167,39
10.35000,50
10.35833,63
10.36667,77
10.37500,92
10.38333,109
10.39167,126
10.40000,145
10.40833,163
10.41667,181
10.42500,198
10.43333,214
10.44167,226
10.45000,236
10.45833,243
10.46667,246
10.47500,247
10.48333,244
10.49167,241
10.50000,237
10.50833,235
10.51667,237
10.52500,247
10.53333,267
10.54167,303
10.55000,359
10.55833,440
10.56667,552
10.57500,700
10.58333,890
10.59167,1127
10.60000,1420
10.60833,1772
10.61667,2190
10.62500,2681
10.63333,3250
10.64167,3902
10.65000,4644
10.65833,5479
10.66667,6412
10.67500,7448
10.68333,8590
10.69167,9842
10.70000,11207
10.70833,12688
10.71667,14287
10.72500,16005
10.73333,17845
10.74167,19807
10.75000,21892
10.75833,24100
10.76667,26431
10.77500,28884
10.78333,31459
10.79167,34152
10.80000,36964
10.80833,39889
10.81667,42926
10.82500,46072
10.83333,49320
10.84167,52667
10.85000,56107
10.85833,59631
10.86667,63232
10.87500,66899
10.88333,70620
10.89167,74382
10.90000,78169
10.90833,81960
10.91667,85735
10.92500,89466
10.93333,93123
10.94167,96671
10.95000,100071
10.95833,103278
10.96667,106245
10.97500,108918
10.98333,111244
10.99167,113165
11.00000,114626
11.00833,115573
11.01667,115957
11.02500,115738
11.03333,114886
11.04167,113384
11.05000,111231
11.05833,108444
11.06667,105058
11.07500,101124
11.08333,96708
11.09167,91892
11.10000,86763
11.10833,81415
11.11667,75944
11.12500,70441
11.13333,64991
11.14167,59669
11.15000,54538
11.15833,49651
11.16667,45046
11.17500,40750
11.18333,36777
11.19167,33133
11.20000,29816
11.20833,26816
11.21667,24118
11.22500,21703
11.23333,19553
11.24167,17644
11.25000,15954
11.25833,14462
11.26667,13146
11.27500,11988
11.28333,10968
11.29167,10070
11.30000,9279
11.30833,8581
11.31667,7965
11.32500,7419
11.33333,6934
11.34167,6501
11.35000,6115
11.35833,5769
11.36667,5457
11.37500,5175
11.38333,4920
11.39167,4687
11.40000,4473
11.40833,4277
11.41667,4095
11.42500,3927
11.43333,3770
11.44167,3624
11.45000,3486
11.45833,3357
11.46667,3236
11.47500,3121
11.48333,3012
11.49167,2909
11.50000,2811
11.50833,2717
11.51667,2628
11.52500,2542
11.53333,2461
11.54167,2383
11.55000,2308
11.55833,2236
11.56667,2167
11.57500,2100
11.58333,2037
11.59167,1976
11.60000,1917
11.60833,1860
11.61667,1805
11.62500,1753
11.63333,1703
11.64167,1655
11.65000,1609
11.65833,1564
11.66667,1521
11.67500,1480
11.68333,1440
11.69167,1402
11.70000,1366
11.70833,1331
11.71667,1298
11.72500,1266
11.73333,1235
11.74167,1205
11.75000,1176
11.75833,1149
11.76667,1123
11.77500,1099
11.78333,1075
11.79167,1052
11.80000,1030
11.80833,1010
11.81667,990
11.82500,971
11.83333,952
11.84167,934
11.85000,918
11.85833,902
11.86667,886
11.87500,871
11.88333,857
11.89167,844
11.90000,831
11.90833,818
11.91667,807
11.92500,795
11.93333,784
11.94167,773
11.95000,764
11.95833,754
11.96667,745
11.97500,736
11.98333,728
11.99167,720
12.00000,712
12.00833,705
12.01667,698
12.02500,691
12.03333,684
12.04167,678
12.05000,672
12.05833,667
12.06667,662
12.07500,657
12.08333,652
12.09167,647
12.10000,643
12.10833,638
12.11667,634
12.12500,630
12.13333,626
12.14167,623
12.15000,619
12.15833,616
12.16667,613
12.17500,610
12.18333,608
12.19167,605
12.20000,604
12.20833,602
12.21667,600
12.22500,599
12.23333,598
12.24167,597
12.25000,595
12.25833,594
12.26667,593
12.27500,592
12.28333,591
12.29167,591
12.30000,590
12.30833,590
12.31667,590
12.32500,589
12.33333,589
12.34167,589
12.35000,588
12.35833,588
12.36667,588
12.37500,588
12.38333,588
12.39167,587
12.40000,587
12.40833,587
12.41667,586
12.42500,586
12.43333,585
12.44167,585
12.45000,584
12.45833,584
12.46667,583
12.47500,582
12.48333,581
12.49167,580
12.50000,578
12.50833,577
12.51667,576
12.52500,575
12.53333,573
12.54167,571
12.55000,569
12.55833,567
12.56667,565
12.57500,563
12.58333,561
12.59167,559
12.60000,557
12.60833,556
12.61667,555
12.62500,554
12.63333,553
12.64167,553
12.65000,553
12.65833,553
12.66667,554
12.67500,556
12.68333,558
12.69167,562
12.70000,567
12.70833,573
12.71667,581
12.72500,591
12.73333,603
12.74167,618
12.75000,636
12.75833,656
12.76667,679
12.77500,706
12.78333,735
12.79167,769
12.80000,806
12.80833,848
12.81667,894
12.82500,945
12.83333,1000
12.84167,1060
12.85000,1125
12.85833,1195
12.86667,1271
12.87500,1352
12.88333,1438
12.89167,1530
12.90000,1627
12.90833,1730
12.91667,1839
12.92500,1953
12.93333,2073
12.94167,2199
12.95000,2331
12.95833,2468
12.96667,2612
12.97500,2761
12.98333,2917
12.99167,3077
13.00000,3244
13.00833,3416
13.01667,3593
13.02500,3776
13.03333,3965
13.04167,4159
13.05000,4358
13.05833,4563
13.06667,4772
13.07500,4987
13.08333,5207
13.09167,5433
13.10000,5663
13.10833,5898
13.11667,6138
13.12500,6382
13.13333,6631
13.14167,6885
13.15000,7142
13.15833,7403
13.16667,7668
13.17500,7938
13.18333,8212
13.19167,8489
13.20000,8770
13.20833,9055
13.21667,9344
13.22500,9636
13.23333,9932
13.24167,10230
13.25000,10532
13.25833,10837
13.26667,11145
13.27500,11456
13.28333,11770
13.29167,12087
13.30000,12407
13.30833,12731
13.31667,13057
13.32500,13386
13.33333,13718
13.34167,14053
13.35000,14391
13.35833,14732
13.36667,15075
13.37500,15421
13.38333,15770
13.39167,16121
13.40000,16475
13.40833,16832
13.41667,17192
13.42500,17555
13.43333,17920
13.44167,18289
13.45000,18661
13.45833,19035
13.46667,19412
13.47500,19793
13.48333,20176
13.49167,20562
13.50000,20951
13.50833,21343
13.51667,21739
13.52500,22137
13.53333,22538
13.54167,22943
13.55000,23351
13.55833,23762
13.56667,24176
13.57500,24594
13.58333,25015
13.59167,25439
13.60000,25867
13.60833,26298
13.61667,26732
13.62500,27170
13.63333,27612
13.64167,28057
13.65000,28506
13.65833,28958
13.66667,29415
13.67500,29874
13.68333,30338
13.69167,30805
13.70000,31277
13.70833,31752
13.71667,32231
13.72500,32713
13.73333,33199
13.74167,33690
13.75000,34185
13.75833,34684
13.76667,35187
13.77500,35693
13.78333,36205
13.79167,36720
13.80000,37240
13.80833,37765
13.81667,38294
13.82500,38827
13.83333,39365
13.84167,39907
13.85000,40453
13.85833,41005
13.86667,41561
13.87500,42122
13.88333,42688
13.89167,43258
13.90000,43833
13.90833,44413
13.91667,44999
13.92500,45589
13.93333,46184
13.94167,46785
13.95000,47391
13.95833,48002
13.96667,48618
13.97500,49240
13.98333,49867
13.99167,50500
14.00000,51138
14.00833,51782
14.01667,52431
14.02500,53087
14.03333,53748
14.04167,54415
14.05000,55087
14.05833,55766
14.06667,56451
14.07500,57142
14.08333,57840
14.09167,58543
14.10000,59253
14.10833,59970
14.11667,60693
14.12500,61423
14.13333,62159
14.14167,62903
14.15000,63653
14.15833,64410
14.16667,65175
14.17500,65946
14.18333,66724
14.19167,67509
14.20000,68300
14.20833,69095
14.21667,69891
14.22500,70687
14.23333,71476
14.24167,72253
14.25000,73011
14.25833,73739
14.26667,74429
14.27500,75068
14.28333,75643
14.29167,76143
14.30000,76555
14.30833,76867
14.31667,77069
14.32500,77151
14.33333,77106
14.34167,76928
14.35000,76611
14.35833,76152
14.36667,75548
14.37500,74797
14.38333,73897
14.39167,72846
14.40000,71641
14.40833,70281
14.41667,68764
14.42500,67090
14.43333,65256
14.44167,63267
14.45000,61125
14.45833,58839
14.46667,56418
14.47500,53877
14.48333,51233
14.49167,48509
14.50000,45727
14.50833,42913
14.51667,40095
14.52500,37300
14.53333,34553
14.54167,31880
14.55000,29301
14.55833,26836
14.56667,24499
14.57500,22303
14.58333,20255
14.59167,18358
14.60000,16615
14.60833,15021
14.61667,13574
14.62500,12266
14.63333,11089
14.64167,10036
14.65000,9095
14.65833,8258
14.66667,7516
14.67500,6858
14.68333,6276
14.69167,5762
14.70000,5308
14.70833,4907
14.71667,4553
14.72500,4240
14.73333,3963
14.74167,3717
14.75000,3498
14.75833,3303
14.76667,3129
14.77500,2973
14.78333,2833
14.79167,2706
14.80000,2592
14.80833,2487
14.81667,2392
14.82500,2305
14.83333,2225
14.84167,2151
14.85000,2083
14.85833,2020
14.86667,1961
14.87500,1906
14.88333,1854
14.89167,1806
14.90000,1761
14.90833,1718
14.91667,1678
14.92500,1640
14.93333,1604
14.94167,1570
14.95000,1537
14.95833,1507
14.96667,1478
14.97500,1450
14.98333,1424
14.99167,1398
15.00000,1374
15.00833,1352
15.01667,1331
15.02500,1311
15.03333,1292
15.04167,1274
15.05000,1257
15.05833,1242
15.06667,1227
15.07500,1213
15.08333,1200
15.09167,1187
15.10000,1175
15.10833,1164
15.11667,1154
15.12500,1145
15.13333,1137
15.14167,1130
15.15000,1124
15.15833,1120
15.16667,1117
15.17500,1116
15.18333,1117
15.19167,1120
15.20000,1127
15.20833,1138
15.21667,1152
15.22500,1172
15.23333,1198
15.24167,1231
15.25000,1274
15.25833,1326
15.26667,1391
15.27500,1469
15.28333,1563
15.29167,1675
15.30000,1808
15.30833,1964
15.31667,2147
15.32500,2358
15.33333,2603
15.34167,2882
15.35000,3201
15.35833,3562
15.36667,3968
15.37500,4422
15.38333,4929
15.39167,5490
15.40000,6107
15.40833,6785
15.41667,7523
15.42500,8323
15.43333,9186
15.44167,10113
15.45000,11103
15.45833,12155
15.46667,13267
15.47500,14437
15.48333,15661
15.49167,16937
15.50000,18259
15.50833,19623
15.51667,21023
15.52500,22453
15.53333,23908
15.54167,25379
15.55000,26859
15.55833,28342
15.56667,29820
15.57500,31286
15.58333,32732
15.59167,34152
15.60000,35539
15.60833,36887
15.61667,38189
15.62500,39440
15.63333,40635
15.64167,41768
15.65000,42836
15.65833,43834
15.66667,44759
15.67500,45609
15.68333,46382
15.69167,47074
15.70000,47685
15.70833,48213
15.71667,48658
15.72500,49018
15.73333,49293
15.74167,49483
15.75000,49589
15.75833,49610
15.76667,49548
15.77500,49403
15.78333,49177
15.79167,48871
15.80000,48486
15.80833,48024
15.81667,47487
15.82500,46878
15.83333,46199
15.84167,45454
15.85000,44645
15.85833,43776
15.86667,42851
15.87500,41873
15.88333,40848
15.89167,39778
15.90000,38670
15.90833,37528
15.91667,36357
15.92500,35162
15.93333,33947
15.94167,32719
15.95000,31481
15.95833,30239
15.96667,28998
15.97500,27761
15.98333,26534
15.99167,25320
16.00000,24124
16.00833,22950
16.01667,21799
16.02500,20676
16.03333,19583
16.04167,18522
16.05000,17497
16.05833,16507
16.06667,15555
16.07500,14641
16.08333,13767
16.09167,12933
16.10000,12139
16.10833,11385
16.11667,10671
16.12500,9995
16.13333,9358
16.14167,8758
16.15000,8195
16.15833,7667
16.16667,7174
16.17500,6713
16.18333,6283
16.19167,5884
16.20000,5512
16.20833,5168
16.21667,4848
16.22500,4553
16.23333,4281
16.24167,4030
16.25000,3799
16.25833,3586
16.26667,3391
16.27500,3211
16.28333,3046
16.29167,2894
16.30000,2755
16.30833,2627
16.31667,2510
16.32500,2403
16.33333,2305
16.34167,2215
16.35000,2132
16.35833,2056
16.36667,1985
16.37500,1921
16.38333,1861
16.39167,1806
16.40000,1756
16.40833,1709
16.41667,1666
16.42500,1626
16.43333,1588
16.44167,1553
16.45000,1521
16.45833,1490
16.46667,1460
16.47500,1433
16.48333,1407
16.49167,1382
16.50000,1359
16.50833,1336
16.51667,1314
16.52500,1293
16.53333,1273
16.54167,1253
16.55000,1234
16.55833,1215
16.56667,1196
16.57500,1178
16.58333,1161
16.59167,1143
16.60000,1127
16.60833,1110
16.61667,1094
16.62500,1078
16.63333,1063
16.64167,1047
16.65000,1032
16.65833,1018
16.66667,1004
16.67500,989
16.68333,976
16.69167,962
16.70000,949
16.70833,937
16.71667,925
16.72500,913
16.73333,901
16.74167,890
16.75000,879
16.75833,868
16.76667,858
16.77500,849
16.78333,839
16.79167,831
16.80000,822
16.80833,814
16.81667,806
16.82500,799
16.83333,792
16.84167,785
16.85000,779
16.85833,772
16.86667,766
16.87500,761
16.88333,755
16.89167,750
16.90000,745
16.90833,741
16.91667,736
16.92500,732
16.93333,728
16.94167,724
16.95000,720
16.95833,717
16.96667,713
16.97500,710
16.98333,706
16.99167,703
17.00000,700
17.00833,697
17.01667,694
17.02500,691
17.03333,688
17.04167,685
17.05000,683
17.05833,680
17.06667,676
17.07500,674
17.08333,671
17.09167,669
17.10000,666
17.10833,664
17.11667,661
17.12500,659
17.13333,658
17.14167,656
17.15000,653
17.15833,651
17.16667,649
17.17500,647
17.18333,645
17.19167,643
17.20000,641
17.20833,639
17.21667,637
17.22500,634
17.23333,632
17.24167,631
17.25000,629
17.25833,627
17.26667,624
17.27500,622
17.28333,620
17.29167,618
17.30000,617
17.30833,615
17.31667,613
17.32500,612
17.33333,610
17.34167,609
17.35000,608
17.35833,607
17.36667,606
17.37500,605
17.38333,605
17.39167,605
17.40000,604
17.40833,604
17.41667,605
17.42500,606
17.43333,607
17.44167,609
17.45000,610
17.45833,612
17.46667,614
17.47500,616
17.48333,618
17.49167,621
17.50000,624
17.50833,628
17.51667,631
17.52500,635
17.53333,639
17.54167,643
17.55000,648
17.55833,653
17.56667,659
17.57500,664
17.58333,670
17.59167,676
17.60000,681
17.60833,687
17.61667,693
17.62500,699
17.63333,705
17.64167,711
17.65000,716
17.65833,722
17.66667,728
17.67500,734
17.68333,739
17.69167,745
17.70000,750
17.70833,755
17.71667,760
17.72500,764
17.73333,768
17.74167,772
17.75000,775
17.75833,779
17.76667,783
17.77500,786
17.78333,789
17.79167,792
17.80000,794
17.80833,796
17.81667,797
17.82500,799
17.83333,799
17.84167,800
17.85000,800
17.85833,800
17.86667,800
17.87500,799
17.88333,797
17.89167,796
17.90000,794
17.90833,792
17.91667,789
17.92500,786
17.93333,783
17.94167,779
17.95000,775
17.95833,770
17.96667,765
17.97500,760
17.98333,754
17.99167,749
18.00000,743
18.00833,736
18.01667,730
18.02500,723
18.03333,717
18.04167,710
18.05000,702
18.05833,695
18.06667,687
18.07500,679
18.08333,672
18.09167,665
18.10000,658
18.10833,650
18.11667,642
18.12500,634
18.13333,627
18.14167,619
18.15000,612
18.15833,604
18.16667,597
18.17500,589
18.18333,582
18.19167,575
18.20000,568
18.20833,561
18.21667,555
18.22500,549
18.23333,543
18.24167,537
18.25000,531
18.25833,526
18.26667,521
18.27500,516
18.28333,512
18.29167,507
18.30000,503
18.30833,499
18.31667,495
18.32500,492
18.33333,488
18.34167,485
18.35000,483
18.35833,480
18.36667,479
18.37500,477
18.38333,476
18.39167,475
18.40000,474
18.40833,473
18.41667,473
18.42500,473
18.43333,474
18.44167,474
18.45000,475
18.45833,476
18.46667,477
18.47500,479
18.48333,481
18.49167,483
18.50000,485
18.50833,487
18.51667,490
18.52500,492
18.53333,495
18.54167,498
18.55000,501
18.55833,504
18.56667,508
18.57500,512
18.58333,516
18.59167,520
18.60000,523
18.60833,527
18.61667,531
18.62500,536
18.63333,540
18.64167,544
18.65000,549
18.65833,553
18.66667,557
18.67500,562
18.68333,566
18.69167,571
18.70000,575
18.70833,580
18.71667,585
18.72500,590
18.73333,596
18.74167,601
18.75000,606
18.75833,611
18.76667,616
18.77500,620
18.78333,625
18.79167,630
18.80000,634
18.80833,639
18.81667,644
18.82500,648
18.83333,653
18.84167,658
18.85000,662
18.85833,666
18.86667,671
18.87500,675
18.88333,680
18.89167,684
18.90000,689
18.90833,693
18.91667,698
18.92500,702
18.93333,706
18.94167,709
18.95000,713
18.95833,716
18.96667,720
18.97500,723
18.98333,727
18.99167,730
19.00000,733
19.00833,735
19.01667,737
19.02500,739
19.03333,741
19.04167,743
19.05000,745
19.05833,746
19.06667,748
19.07500,749
19.08333,750
19.09167,751
19.10000,751
19.10833,752
19.11667,751
19.12500,751
19.13333,751
19.14167,750
19.15000,749
19.15833,748
19.16667,747
19.17500,745
19.18333,743
19.19167,741
19.20000,739
19.20833,737
19.21667,735
19.22500,732
19.23333,729
19.24167,726
19.25000,723
19.25833,719
19.26667,716
19.27500,712
19.28333,708
19.29167,704
19.30000,700
19.30833,695
19.31667,691
19.32500,686
19.33333,682
19.34167,677
19.35000,672
19.35833,668
19.36667,663
19.37500,658
19.38333,653
19.39167,648
19.40000,642
19.40833,636
19.41667,630
19.42500,624
19.43333,619
19.44167,613
19.45000,608
19.45833,602
19.46667,596
19.47500,590
19.48333,584
19.49167,578
19.50000,573
19.50833,568
19.51667,562
19.52500,557
19.53333,551
19.54167,546
19.55000,540
19.55833,535
19.56667,529
19.57500,524
19.58333,519
19.59167,514
19.60000,509
19.60833,505
19.61667,501
19.62500,497
19.63333,493
19.64167,489
19.65000,485
19.65833,481
19.66667,477
19.67500,473
19.68333,470
19.69167,468
19.70000,465
19.70833,463
19.71667,462
19.72500,460
19.73333,459
19.74167,458
19.75000,457
19.75833,456
19.76667,456
19.77500,457
19.78333,458
19.79167,459
19.80000,462
19.80833,464
19.81667,467
19.82500,471
19.83333,476
19.84167,480
19.85000,486
19.85833,491
19.86667,498
19.87500,505
19.88333,513
19.89167,521
19.90000,530
19.90833,540
19.91667,550
19.92500,560
19.93333,571
19.94167,583
19.95000,595
19.95833,608
19.96667,621
19.97500,634
19.98333,648
19.99167,663
20.00000,677
20.00833,691
20.01667,706
20.02500,721
20.03333,735
20.04167,749
20.05000,764
20.05833,778
20.06667,792
20.07500,806
20.08333,820
20.09167,834
20.10000,848
20.10833,861
20.11667,874
20.12500,886
20.13333,898
20.14167,909
20.15000,920
20.15833,930
20.16667,940
20.17500,949
20.18333,957
20.19167,965
20.20000,973
20.20833,979
20.21667,985
20.22500,991
20.23333,995
20.24167,999
20.25000,1003
20.25833,1006
20.26667,1008
20.27500,1009
20.28333,1010
20.29167,1010
20.30000,1009
20.30833,1008
20.31667,1006
20.32500,1003
20.33333,1000
20.34167,997
20.35000,993
20.35833,988
20.36667,983
20.37500,977
20.38333,971
20.39167,965
20.40000,958
20.40833,950
20.41667,943
20.42500,935
20.43333,927
20.44167,918
20.45000,909
20.45833,901
20.46667,892
20.47500,884
20.48333,875
20.49167,866
20.50000,857
20.50833,849
20.51667,841
20.52500,833
20.53333,825
20.54167,817
20.55000,810
20.55833,803
20.56667,796
20.57500,790
20.58333,784
20.59167,779
20.60000,774
20.60833,770
20.61667,766
20.62500,762
20.63333,759
20.64167,756
20.65000,753
20.65833,751
20.66667,750
20.67500,749
20.68333,748
20.69167,748
20.70000,748
20.70833,747
20.71667,747
20.72500,748
20.73333,748
20.74167,749
20.75000,751
20.75833,752
20.76667,754
20.77500,756
20.78333,758
20.79167,760
20.80000,762
20.80833,764
20.81667,766
20.82500,768
20.83333,770
20.84167,772
20.85000,774
20.85833,776
20.86667,778
20.87500,780
20.88333,782
20.89167,784
20.90000,786
20.90833,788
20.91667,790
20.92500,791
20.93333,793
20.94167,794
20.95000,796
20.95833,798
20.96667,800
20.97500,801
20.98333,802
20.99167,803
21.00000,804
21.00833,805
21.01667,807
21.02500,808
21.03333,809
21.04167,811
21.05000,813
21.05833,814
21.06667,816
21.07500,818
21.08333,819
21.09167,821
21.10000,823
21.10833,825
21.11667,827
21.12500,830
21.13333,832
21.14167,835
21.15000,838
21.15833,842
21.16667,845
21.17500,848
21.18333,852
21.19167,856
21.20000,860
21.20833,864
21.21667,868
21.22500,872
21.23333,876
21.24167,880
21.25000,884
21.25833,888
21.26667,893
21.27500,897
21.28333,901
21.29167,905
21.30000,909
21.30833,912
21.31667,916
21.32500,919
21.33333,923
21.34167,927
21.35000,931
21.35833,934
21.36667,937
21.37500,940
21.38333,943
21.39167,947
21.40000,950
21.40833,953
21.41667,956
21.42500,959
21.43333,963
21.44167,966
21.45000,970
21.45833,974
21.46667,977
21.47500,981
21.48333,985
21.49167,990
21.50000,994
21.50833,999
21.51667,1004
21.52500,1009
21.53333,1014
21.54167,1019
21.55000,1024
21.55833,1029
21.56667,1034
21.57500,1040
21.58333,1045
21.59167,1050
21.60000,1055
21.60833,1060
21.61667,1065
21.62500,1069
21.63333,1074
21.64167,1078
21.65000,1082
21.65833,1085
21.66667,1088
21.67500,1090
21.68333,1093
21.69167,1095
21.70000,1096
21.70833,1097
21.71667,1097
21.72500,1098
21.73333,1097
21.74167,1096
21.75000,1095
21.75833,1093
21.76667,1091
21.77500,1088
21.78333,1085
21.79167,1082
21.80000,1078
21.80833,1074
21.81667,1070
21.82500,1065
21.83333,1060
21.84167,1055
21.85000,1050
21.85833,1044
21.86667,1038
21.87500,1032
21.88333,1025
21.89167,1019
21.90000,1012
21.90833,1004
21.91667,997
21.92500,990
21.93333,982
21.94167,975
21.95000,966
21.95833,958
21.96667,949
21.97500,940
21.98333,931
21.99167,921
22.00000,911
22.00833,901
22.01667,891
22.02500,880
22.03333,869
22.04167,857
22.05000,846
22.05833,834
22.06667,821
22.07500,808
22.08333,795
22.09167,781
22.10000,767
22.10833,753
22.11667,739
22.12500,725
22.13333,711
22.14167,696
22.15000,681
22.15833,666
22.16667,650
22.17500,635
22.18333,620
22.19167,606
22.20000,591
22.20833,577
22.21667,563
22.22500,548
22.23333,535
22.24167,521
22.25000,508
22.25833,495
22.26667,482
22.27500,470
22.28333,458
22.29167,447
22.30000,435
22.30833,425
22.31667,415
22.32500,405
22.33333,395
22.34167,386
22.35000,378
22.35833,370
22.36667,362
22.37500,355
22.38333,348
22.39167,341
22.40000,335
22.40833,329
22.41667,323
22.42500,318
22.43333,313
22.44167,308
22.45000,304
22.45833,301
22.46667,298
22.47500,294
22.48333,291
22.49167,289
22.50000,287
22.50833,285
22.51667,283
22.52500,281
22.53333,280
22.54167,278
22.55000,277
22.55833,277
22.56667,276
22.57500,275
22.58333,275
22.59167,275
22.60000,275
22.60833,275
22.61667,276
22.62500,277
22.63333,278
22.64167,279
22.65000,280
22.65833,281
22.66667,282
22.67500,284
22.68333,286
22.69167,288
22.70000,290
22.70833,292
22.71667,294
22.72500,296
22.73333,298
22.74167,300
22.75000,303
22.75833,305
22.76667,307
22.77500,310
22.78333,313
22.79167,316
22.80000,318
22.80833,321
22.81667,323
22.82500,326
22.83333,328
22.84167,331
22.85000,334
22.85833,337
22.86667,340
22.87500,343
22.88333,346
22.89167,349
22.90000,352
22.90833,355
22.91667,358
22.92500,360
22.93333,363
22.94167,365
22.95000,368
22.95833,370
22.96667,373
22.97500,375
22.98333,377
22.99167,380
23.00000,382
23.00833,384
23.01667,386
23.02500,388
23.03333,390
23.04167,392
23.05000,393
23.05833,394
23.06667,396
23.07500,397
23.08333,398
23.09167,399
23.10000,400
23.10833,401
23.11667,402
23.12500,402
23.13333,403
23.14167,403
23.15000,404
23.15833,404
23.16667,405
23.17500,405
23.18333,405
23.19167,405
23.20000,405
23.20833,405
23.21667,404
23.22500,404
23.23333,403
23.24167,403
23.25000,402
23.25833,401
23.26667,400
23.27500,399
23.28333,398
23.29167,397
23.30000,395
23.30833,394
23.31667,393
23.32500,391
23.33333,390
23.34167,389
23.35000,388
23.35833,387
23.36667,385
23.37500,384
23.38333,383
23.39167,381
23.40000,380
23.40833,379
23.41667,378
23.42500,377
23.43333,376
23.44167,375
23.45000,374
23.45833,373
23.46667,373
23.47500,372
23.48333,371
23.49167,370
23.50000,369
23.50833,368
23.51667,368
23.52500,367
23.53333,366
23.54167,366
23.55000,365
23.55833,365
23.56667,365
23.57500,364
23.58333,364
23.59167,364
23.60000,363
23.60833,363
23.61667,363
23.62500,362
23.63333,362
23.64167,361
23.65000,361
23.65833,360
23.66667,360
23.67500,359
23.68333,359
23.69167,359
23.70000,359
23.70833,359
23.71667,359
23.72500,358
23.73333,358
23.74167,357
23.75000,356
23.75833,355
23.76667,354
23.77500,354
23.78333,353
23.79167,353
23.80000,352
23.80833,351
23.81667,351
23.82500,350
23.83333,350
23.84167,349
23.85000,349
23.85833,348
23.86667,347
23.87500,347
23.88333,346
23.89167,346
23.90000,345
23.90833,345
23.91667,344
23.92500,343
23.93333,342
23.94167,342
23.95000,340
23.95833,339
23.96667,338
23.97500,337
23.98333,336
23.99167,335
24.00000,334
24.00833,333
24.01667,333
24.02500,332
24.03333,331
24.04167,330
24.05000,329
24.05833,329
24.06667,328
24.07500,328
24.08333,327
24.09167,326
24.10000,325
24.10833,324
24.11667,323
24.12500,323
24.13333,322
24.14167,321
24.15000,320
24.15833,319
24.16667,319
24.17500,319
24.18333,318
24.19167,318
24.20000,317
24.20833,317
24.21667,316
24.22500,316
24.23333,315
24.24167,315
24.25000,315
24.25833,315
24.26667,315
24.27500,315
24.28333,316
24.29167,317
24.30000,317
24.30833,318
24.31667,319
24.32500,321
24.33333,322
24.34167,324
24.35000,326
24.35833,329
24.36667,332
24.37500,336
24.38333,341
24.39167,346
24.40000,351
24.40833,357
24.41667,364
24.42500,372
24.43333,381
24.44167,391
24.45000,401
24.45833,413
24.46667,427
24.47500,441
24.48333,458
24.49167,476
24.50000,495
24.50833,517
24.51667,540
24.52500,565
24.53333,592
24.54167,621
24.55000,653
24.55833,686
24.56667,722
24.57500,760
24.58333,801
24.59167,844
24.60000,889
24.60833,937
24.61667,987
24.62500,1039
24.63333,1093
24.64167,1150
24.65000,1209
24.65833,1269
24.66667,1332
24.67500,1396
24.68333,1462
24.69167,1529
24.70000,1597
24.70833,1667
24.71667,1739
24.72500,1811
24.73333,1884
24.74167,1957
24.75000,2030
24.75833,2104
24.76667,2177
24.77500,2251
24.78333,2323
24.79167,2395
24.80000,2466
24.80833,2537
24.81667,2606
24.82500,2674
24.83333,2740
24.84167,2805
24.85000,2868
24.85833,2930
24.86667,2990
24.87500,3048
24.88333,3104
24.89167,3158
24.90000,3210
24.90833,3261
24.91667,3309
24.92500,3355
24.93333,3398
24.94167,3440
24.95000,3479
24.95833,3516
24.96667,3549
24.97500,3581
24.98333,3610
24.99167,3638
25.00000,3663
25.00833,3685
25.01667,3706
25.02500,3723
25.03333,3739
25.04167,3751
25.05000,3761
25.05833,3769
25.06667,3774
25.07500,3776
25.08333,3775
25.09167,3772
25.10000,3765
25.10833,3756
25.11667,3744
25.12500,3729
25.13333,3712
25.14167,3691
25.15000,3667
25.15833,3640
25.16667,3611
25.17500,3578
25.18333,3543
25.19167,3505
25.20000,3464
25.20833,3420
25.21667,3374
25.22500,3325
25.23333,3273
25.24167,3219
25.25000,3163
25.25833,3105
25.26667,3045
25.27500,2984
25.28333,2920
25.29167,2855
25.30000,2789
25.30833,2721
25.31667,2653
25.32500,2584
25.33333,2514
25.34167,2444
25.35000,2374
25.35833,2303
25.36667,2233
25.37500,2163
25.38333,2094
25.39167,2025
25.40000,1957
25.40833,1890
25.41667,1824
25.42500,1758
25.43333,1694
25.44167,1632
25.45000,1571
25.45833,1512
25.46667,1454
25.47500,1397
25.48333,1343
25.49167,1290
25.50000,1239
25.50833,1189
25.51667,1142
25.52500,1096
25.53333,1052
25.54167,1011
25.55000,971
25.55833,933
25.56667,897
25.57500,862
25.58333,829
25.59167,797
25.60000,767
25.60833,738
25.61667,711
25.62500,685
25.63333,661
25.64167,638
25.65000,617
25.65833,597
25.66667,578
25.67500,560
25.68333,543
25.69167,527
25.70000,512
25.70833,497
25.71667,484
25.72500,471
25.73333,460
25.74167,448
25.75000,438
25.75833,428
25.76667,418
25.77500,409
25.78333,401
25.79167,392
25.80000,385
25.80833,377
25.81667,370
25.82500,363
25.83333,356
25.84167,350
25.85000,344
25.85833,338
25.86667,332
25.87500,326
25.88333,321
25.89167,316
25.90000,311
25.90833,306
25.91667,300
25.92500,295
25.93333,290
25.94167,285
25.95000,280
25.95833,275
25.96667,271
25.97500,266
25.98333,262
25.99167,257
26.00000,252
26.00833,248
26.01667,243
26.02500,239
26.03333,235
26.04167,230
26.05000,226
26.05833,222
26.06667,218
26.07500,214
26.08333,209
26.09167,205
26.10000,202
26.10833,198
26.11667,194
26.12500,190
26.13333,186
26.14167,182
26.15000,179
26.15833,175
26.16667,171
26.17500,168
26.18333,164
26.19167,161
26.20000,158
26.20833,155
26.21667,152
26.22500,150
26.23333,147
26.24167,144
26.25000,141
26.25833,138
26.26667,136
26.27500,133
26.28333,131
26.29167,129
26.30000,127
26.30833,125
26.31667,124
26.32500,122
26.33333,121
26.34167,120
26.35000,118
26.35833,117
26.36667,116
26.37500,114
26.38333,113
26.39167,112
26.40000,110
26.40833,109
26.41667,108
26.42500,107
26.43333,107
26.44167,106
26.45000,106
26.45833,105
26.46667,105
26.47500,104
26.48333,104
26.49167,103
26.50000,103
26.50833,103
26.51667,102
26.52500,102
26.53333,102
26.54167,102
26.55000,101
26.55833,101
26.56667,101
26.57500,101
26.58333,101
26.59167,101
26.60000,101
26.60833,101
26.61667,101
26.62500,101
26.63333,102
26.64167,102
26.65000,102
26.65833,102
26.66667,101
26.67500,102
26.68333,102
26.69167,102
26.70000,102
26.70833,102
26.71667,102
26.72500,102
26.73333,102
26.74167,102
26.75000,102
26.75833,102
26.76667,102
26.77500,103
26.78333,103
26.79167,103
26.80000,103
26.80833,103
26.81667,103
26.82500,103
26.83333,103
26.84167,103
26.85000,104
26.85833,104
26.86667,104
26.87500,104
26.88333,104
26.89167,104
26.90000,104
26.90833,105
26.91667,105
26.92500,105
26.93333,105
26.94167,105
26.95000,104
26.95833,104
26.96667,104
26.97500,104
26.98333,104
26.99167,104
27.00000,104
27.00833,104
27.01667,104
27.02500,105
27.03333,105
27.04167,105
27.05000,105
27.05833,106
27.06667,106
27.07500,105
27.08333,105
27.09167,105
27.10000,106
27.10833,106
27.11667,107
27.12500,107
27.13333,107
27.14167,107
27.15000,107
27.15833,107
27.16667,107
27.17500,107
27.18333,107
27.19167,107
27.20000,107
27.20833,106
27.21667,106
27.22500,106
27.23333,107
27.24167,107
27.25000,108
27.25833,108
27.26667,108
27.27500,108
27.28333,108
27.29167,108
27.30000,108
27.30833,108
27.31667,108
27.32500,108
27.33333,107
27.34167,107
27.35000,107
27.35833,108
27.36667,108
27.37500,108
27.38333,108
27.39167,108
27.40000,107
27.40833,107
27.41667,107
27.42500,107
27.43333,108
27.44167,108
27.45000,108
27.45833,108
27.46667,108
27.47500,108
27.48333,107
27.49167,107
27.50000,107
27.50833,106
27.51667,106
27.52500,106
27.53333,106
27.54167,106
27.55000,106
27.55833,106
27.56667,105
27.57500,105
27.58333,104
27.59167,104
27.60000,104
27.60833,103
27.61667,103
27.62500,103
27.63333,102
27.64167,102
27.65000,102
27.65833,101
27.66667,100
27.67500,99
27.68333,99
27.69167,98
27.70000,97
27.70833,97
27.71667,96
27.72500,96
27.73333,95
27.74167,95
27.75000,94
27.75833,93
27.76667,92
27.77500,92
27.78333,91
27.79167,91
27.80000,90
27.80833,90
27.81667,89
27.82500,88
27.83333,87
27.84167,87
27.85000,86
27.85833,85
27.86667,85
27.87500,84
27.88333,84
27.89167,83
27.90000,82
27.90833,82
27.91667,82
27.92500,81
27.93333,81
27.94167,80
27.95000,80
27.95833,80
27.96667,79
27.97500,79
27.98333,79
27.99167,78
28.00000,78
28.00833,78
28.01667,78
28.02500,77
28.03333,77
28.04167,77
28.05000,77
28.05833,77
28.06667,77
28.07500,76
28.08333,76
28.09167,76
28.10000,76
28.10833,77
28.11667,77
28.12500,76
28.13333,76
28.14167,77
28.15000,77
28.15833,76
28.16667,76
28.17500,76
28.18333,76
28.19167,76
28.20000,76
28.20833,76
28.21667,76
28.22500,76
28.23333,76
28.24167,76
28.25000,77
28.25833,77
28.26667,77
28.27500,77
28.28333,77
28.29167,78
28.30000,79
28.30833,79
28.31667,80
28.32500,80
28.33333,81
28.34167,83
28.35000,84
28.35833,85
28.36667,87
28.37500,89
28.38333,91
28.39167,93
28.40000,95
28.40833,97
28.41667,100
28.42500,103
28.43333,107
28.44167,112
28.45000,117
28.45833,123
28.46667,129
28.47500,135
28.48333,143
28.49167,150
28.50000,159
28.50833,168
28.51667,178
28.52500,189
28.53333,201
28.54167,214
28.55000,228
28.55833,243
28.56667,259
28.57500,276
28.58333,295
28.59167,315
28.60000,336
28.60833,359
28.61667,382
28.62500,407
28.63333,434
28.64167,462
28.65000,492
28.65833,523
28.66667,555
28.67500,589
28.68333,625
28.69167,662
28.70000,700
28.70833,740
28.71667,780
28.72500,823
28.73333,866
28.74167,911
28.75000,957
28.75833,1004
28.76667,1052
28.77500,1102
28.78333,1152
28.79167,1203
28.80000,1254
28.80833,1306
28.81667,1359
28.82500,1412
28.83333,1465
28.84167,1519
28.85000,1573
28.85833,1626
28.86667,1680
28.87500,1733
28.88333,1786
28.89167,1839
28.90000,1891
28.90833,1942
28.91667,1992
28.92500,2042
28.93333,2090
28.94167,2138
28.95000,2184
28.95833,2229
28.96667,2273
28.97500,2316
28.98333,2357
28.99167,2397
29.00000,2436
29.00833,2473
29.01667,2508
29.02500,2542
29.03333,2574
29.04167,2605
29.05000,2633
29.05833,2660
29.06667,2685
29.07500,2709
29.08333,2731
29.09167,2751
29.10000,2770
29.10833,2788
29.11667,2804
29.12500,2818
29.13333,2831
29.14167,2842
29.15000,2852
29.15833,2861
29.16667,2867
29.17500,2873
29.18333,2877
29.19167,2879
29.20000,2880
29.20833,2880
29.21667,2878
29.22500,2875
29.23333,2871
29.24167,2865
29.25000,2857
29.25833,2848
29.26667,2838
29.27500,2826
29.28333,2813
29.29167,2799
29.30000,2783
29.30833,2766
29.31667,2747
29.32500,2727
29.33333,2705
29.34167,2681
29.35000,2657
29.35833,2631
29.36667,2604
29.37500,2575
29.38333,2545
29.39167,2513
29.40000,2480
29.40833,2445
29.41667,2410
29.42500,2373
29.43333,2334
29.44167,2295
29.45000,2255
29.45833,2214
29.46667,2172
29.47500,2129
29.48333,2085
29.49167,2040
29.50000,1994
29.50833,1948
29.51667,1902
29.52500,1855
29.53333,1808
29.54167,1760
29.55000,1712
29.55833,1664
29.56667,1616
29.57500,1568
29.58333,1520
29.59167,1472
29.60000,1425
29.60833,1379
29.61667,1332
29.62500,1286
29.63333,1241
29.64167,1196
29.65000,1152
29.65833,1109
29.66667,1066
29.67500,1024
29.68333,983
29.69167,943
29.70000,904
29.70833,866
29.71667,830
29.72500,794
29.73333,759
29.74167,725
29.75000,693
29.75833,661
29.76667,631
29.77500,602
29.78333,574
29.79167,548
29.80000,522
29.80833,497
29.81667,473
29.82500,450
29.83333,428
29.84167,408
29.85000,388
29.85833,369
29.86667,352
29.87500,335
29.88333,319
29.89167,304
29.90000,289
29.90833,276
29.91667,263
29.92500,251
29.93333,240
29.94167,229
29.95000,219
29.95833,210
29.96667,201
29.97500,193
29.98333,185
29.99167,178
30.00000,171
30.00833,165
30.01667,159
30.02500,154
30.03333,149
30.04167,144
30.05000,139
30.05833,135
30.06667,131
30.07500,128
30.08333,124
30.09167,121
30.10000,119
30.10833,116
30.11667,113
30.12500,111
30.13333,108
30.14167,106
30.15000,105
30.15833,103
30.16667,102
30.17500,100
30.18333,99
30.19167,98
30.20000,97
30.20833,97
30.21667,95
30.22500,94
30.23333,93
30.24167,93
30.25000,92
30.25833,91
30.26667,91
30.27500,91
30.28333,91
30.29167,91
30.30000,90
30.30833,90
30.31667,90
30.32500,90
30.33333,90
30.34167,90
30.35000,90
30.35833,90
30.36667,90
30.37500,89
30.38333,89
30.39167,90
30.40000,90
30.40833,90
30.41667,91
30.42500,92
30.43333,92
30.44167,93
30.45000,94
30.45833,94
30.46667,94
30.47500,95
30.48333,95
30.49167,96
30.50000,96
30.50833,97
30.51667,98
30.52500,99
30.53333,100
30.54167,101
30.55000,102
30.55833,103
30.56667,104
30.57500,105
30.58333,106
30.59167,108
30.60000,109
30.60833,110
30.61667,111
30.62500,113
30.63333,114
30.64167,116
30.65000,117
30.65833,119
30.66667,120
30.67500,122
30.68333,123
30.69167,125
30.70000,126
30.70833,129
30.71667,131
30.72500,133
30.73333,134
30.74167,136
30.75000,138
30.75833,140
30.76667,141
30.77500,143
30.78333,145
30.79167,146
30.80000,148
30.80833,149
30.81667,151
30.82500,153
30.83333,155
30.84167,156
30.85000,158
30.85833,160
30.86667,161
30.87500,162
30.88333,164
30.89167,165
30.90000,167
30.90833,168
30.91667,170
30.92500,171
30.93333,172
30.94167,174
30.95000,175
30.95833,176
30.96667,177
30.97500,178
30.98333,179
30.99167,180
31.00000,181
31.00833,182
31.01667,182
31.02500,183
31.03333,184
31.04167,184
31.05000,185
31.05833,185
31.06667,186
31.07500,186
31.08333,187
31.09167,188
31.10000,188
31.10833,188
31.11667,189
31.12500,189
31.13333,188
31.14167,188
31.15000,188
31.15833,188
31.16667,188
31.17500,188
31.18333,187
31.19167,186
31.20000,186
31.20833,186
31.21667,186
31.22500,185
31.23333,185
31.24167,184
31.25000,184
31.25833,183
31.26667,182
31.27500,182
31.28333,181
31.29167,180
31.30000,179
31.30833,178
31.31667,177
31.32500,175
31.33333,174
31.34167,173
31.35000,172
31.35833,171
31.36667,169
31.37500,168
31.38333,166
31.39167,165
31.40000,164
31.40833,163
31.41667,161
31.42500,160
31.43333,158
31.44167,157
31.45000,155
31.45833,154
31.46667,153
31.47500,151
31.48333,149
31.49167,148
31.50000,147
31.50833,146
31.51667,144
31.52500,143
31.53333,141
31.54167,140
31.55000,139
31.55833,138
31.56667,137
31.57500,136
31.58333,135
31.59167,134
31.60000,133
31.60833,133
31.61667,132
31.62500,132
31.63333,132
31.64167,131
31.65000,131
31.65833,131
31.66667,131
31.67500,131
31.68333,131
31.69167,132
31.70000,132
31.70833,133
31.71667,134
31.72500,135
31.73333,136
31.74167,137
31.75000,139
31.75833,141
31.76667,143
31.77500,145
31.78333,148
31.79167,150
31.80000,153
31.80833,156
31.81667,159
31.82500,162
31.83333,166
31.84167,169
31.85000,173
31.85833,177
31.86667,182
31.87500,186
31.88333,191
31.89167,196
31.90000,201
31.90833,207
31.91667,212
31.92500,217
31.93333,223
31.94167,229
31.95000,235
31.95833,241
31.96667,247
31.97500,254
31.98333,260
31.99167,267
32.00000,274
32.00833,281
32.01667,288
32.02500,294
32.03333,301
32.04167,308
32.05000,315
32.05833,322
32.06667,328
32.07500,334
32.08333,341
32.09167,347
32.10000,354
32.10833,361
32.11667,367
32.12500,373
32.13333,379
32.14167,385
32.15000,392
32.15833,398
32.16667,403
32.17500,409
32.18333,415
32.19167,421
32.20000,427
32.20833,432
32.21667,437
32.22500,442
32.23333,447
32.24167,452
32.25000,457
32.25833,462
32.26667,466
32.27500,470
32.28333,474
32.29167,478
32.30000,482
32.30833,486
32.31667,490
32.32500,493
32.33333,497
32.34167,500
32.35000,503
32.35833,506
32.36667,508
32.37500,511
32.38333,514
32.39167,516
32.40000,518
32.40833,521
32.41667,523
32.42500,525
32.43333,527
32.44167,528
32.45000,529
32.45833,530
32.46667,531
32.47500,532
32.48333,533
32.49167,533
32.50000,534
32.50833,534
32.51667,534
32.52500,534
32.53333,534
32.54167,533
32.55000,532
32.55833,531
32.56667,530
32.57500,529
32.58333,527
32.59167,526
32.60000,523
32.60833,521
32.61667,519
32.62500,517
32.63333,514
32.64167,511
32.65000,509
32.65833,506
32.66667,503
32.67500,500
32.68333,496
32.69167,493
32.70000,489
32.70833,485
32.71667,482
32.72500,478
32.73333,474
32.74167,471
32.75000,467
32.75833,463
32.76667,459
32.77500,455
32.78333,452
32.79167,448
32.80000,445
32.80833,441
32.81667,437
32.82500,433
32.83333,428
32.84167,425
32.85000,421
32.85833,417
32.86667,413
32.87500,410
32.88333,406
32.89167,403
32.90000,400
32.90833,396
32.91667,393
32.92500,390
32.93333,388
32.94167,385
32.95000,383
32.95833,380
32.96667,377
32.97500,375
32.98333,373
32.99167,371
33.00000,368
33.00833,366
33.01667,363
33.02500,361
33.03333,359
33.04167,357
33.05000,355
33.05833,353
33.06667,352
33.07500,350
33.08333,348
33.09167,346
33.10000,344
33.10833,342
33.11667,340
33.12500,339
33.13333,337
33.14167,336
33.15000,335
33.15833,333
33.16667,331
33.17500,329
33.18333,328
33.19167,326
33.20000,325
33.20833,323
33.21667,321
33.22500,319
33.23333,317
33.24167,315
33.25000,312
33.25833,310
33.26667,308
33.27500,306
33.28333,304
33.29167,302
33.30000,299
33.30833,297
33.31667,295
33.32500,292
33.33333,290
33.34167,288
33.35000,285
33.35833,283
33.36667,280
33.37500,278
33.38333,275
33.39167,272
33.40000,268
33.40833,265
33.41667,262
33.42500,258
33.43333,255
33.44167,252
33.45000,248
33.45833,245
33.46667,242
33.47500,238
33.48333,235
33.49167,231
33.50000,227
33.50833,224
33.51667,220
33.52500,217
33.53333,213
33.54167,210
33.55000,206
33.55833,203
33.56667,199
33.57500,195
33.58333,191
33.59167,188
33.60000,184
33.60833,180
33.61667,176
33.62500,172
33.63333,169
33.64167,165
33.65000,162
33.65833,158
33.66667,154
33.67500,150
33.68333,146
33.69167,143
33.70000,139
33.70833,135
33.71667,131
33.72500,128
33.73333,124
33.74167,121
33.75000,117
33.75833,114
33.76667,110
33.77500,107
33.78333,104
33.79167,101
33.80000,98
33.80833,95
33.81667,92
33.82500,88
33.83333,85
33.84167,82
33.85000,79
33.85833,76
33.86667,73
33.87500,70
33.88333,67
33.89167,65
33.90000,62
33.90833,59
33.91667,57
33.92500,54
33.93333,52
33.94167,51
33.95000,48
33.95833,46
33.96667,45
33.97500,43
33.98333,41
33.99167,40
34.00000,38
34.00833,36
34.01667,35
34.02500,33
34.03333,32
34.04167,30
34.05000,29
34.05833,27
34.06667,26
34.07500,25
34.08333,24
34.09167,23
34.10000,22
34.10833,21
34.11667,20
34.12500,19
34.13333,18
34.14167,17
34.15000,16
34.15833,15
34.16667,14
34.17500,14
34.18333,14
34.19167,13
34.20000,13
34.20833,13
34.21667,12
34.22500,12
34.23333,11
34.24167,11
34.25000,10
34.25833,10
34.26667,9
34.27500,9
34.28333,8
34.29167,8
34.30000,8
34.30833,7
34.31667,7
34.32500,7
34.33333,7
34.34167,7
34.35000,7
34.35833,6
34.36667,6
34.37500,6
34.38333,5
34.39167,5
34.40000,4
34.40833,4
34.41667,4
34.42500,3
34.43333,3
34.44167,3
34.45000,3
34.45833,3
34.46667,3
34.47500,2
34.48333,2
34.49167,2
34.50000,2
34.50833,2
34.51667,1
34.52500,1
34.53333,0
34.54167,0
34.55000,-0
34.55833,-1
34.56667,-1
34.57500,-2
34.58333,-2
34.59167,-3
34.60000,-3
34.60833,-3
34.61667,-3
34.62500,-3
34.63333,-3
34.64167,-3
34.65000,-3
34.65833,-3
34.66667,-3
34.67500,-3
34.68333,-3
34.69167,-4
34.70000,-4
34.70833,-5
34.71667,-5
34.72500,-5
34.73333,-5
34.74167,-6
34.75000,-6
34.75833,-7
34.76667,-7
34.77500,-7
34.78333,-8
34.79167,-8
34.80000,-8
34.80833,-8
34.81667,-9
34.82500,-9
34.83333,-9
34.84167,-9
34.85000,-10
34.85833,-10
34.86667,-10
34.87500,-10
34.88333,-10
34.89167,-10
34.90000,-10
34.90833,-10
34.91667,-10
34.92500,-10
34.93333,-10
34.94167,-10
34.95000,-10
34.95833,-10
34.96667,-10
34.97500,-10
34.98333,-9
34.99167,-9
35.00000,-8
35.00833,-8
35.01667,-8
35.02500,-7
35.03333,-7
35.04167,-7
35.05000,-7
35.05833,-6
35.06667,-6
35.07500,-6
35.08333,-6
35.09167,-5
35.10000,-4
35.10833,-3
35.11667,-3
35.12500,-2
35.13333,-1
35.14167,-0
35.15000,1
35.15833,1
35.16667,2
35.17500,2
35.18333,3
35.19167,4
35.20000,5
35.20833,6
35.21667,7
35.22500,9
35.23333,10
35.24167,11
35.25000,12
35.25833,13
35.26667,14
35.27500,15
35.28333,17
35.29167,18
35.30000,19
35.30833,20
35.31667,21
35.32500,22
35.33333,24
35.34167,25
35.35000,26
35.35833,28
35.36667,30
35.37500,32
35.38333,33
35.39167,35
35.40000,36
35.40833,38
35.41667,39
35.42500,41
35.43333,42
35.44167,43
35.45000,45
35.45833,46
35.46667,48
35.47500,49
35.48333,50
35.49167,52
35.50000,53
35.50833,54
35.51667,55
35.52500,57
35.53333,58
35.54167,60
35.55000,61
35.55833,62
35.56667,63
35.57500,64
35.58333,66
35.59167,67
35.60000,68
35.60833,68
35.61667,70
35.62500,71
35.63333,72
35.64167,73
35.65000,74
35.65833,75
35.66667,75
35.67500,76
35.68333,77
35.69167,78
35.70000,78
35.70833,79
35.71667,80
35.72500,80
35.73333,81
35.74167,81
35.75000,82
35.75833,83
35.76667,83
35.77500,84
35.78333,85
35.79167,85
35.80000,86
35.80833,86
35.81667,87
35.82500,87
35.83333,88
35.84167,88
35.85000,88
35.85833,88
35.86667,88
35.87500,89
35.88333,89
35.89167,89
35.90000,89
35.90833,89
35.91667,89
35.92500,88
35.93333,88
35.94167,88
35.95000,88
35.95833,88
35.96667,89
35.97500,88
35.98333,88
35.99167,88
36.00000,87
36.00833,87
36.01667,87
36.02500,86
36.03333,86
36.04167,85
36.05000,85
36.05833,84
36.06667,84
36.07500,83
36.08333,82
36.09167,82
36.10000,81
36.10833,80
36.11667,79
36.12500,78
36.13333,78
36.14167,77
36.15000,77
36.15833,76
36.16667,75
36.17500,74
36.18333,73
36.19167,73
36.20000,72
36.20833,71
36.21667,70
36.22500,70
36.23333,69
36.24167,68
36.25000,66
36.25833,65
36.26667,64
36.27500,63
36.28333,63
36.29167,61
36.30000,60
36.30833,59
36.31667,58
36.32500,57
36.33333,57
36.34167,56
36.35000,55
36.35833,54
36.36667,53
36.37500,52
36.38333,51
36.39167,50
36.40000,49
36.40833,48
36.41667,47
36.42500,47
36.43333,46
36.44167,45
36.45000,44
36.45833,43
36.46667,42
36.47500,42
36.48333,41
36.49167,40
36.50000,39
36.50833,39
36.51667,38
36.52500,37
36.53333,37
36.54167,36
36.55000,36
36.55833,35
36.56667,35
36.57500,35
36.58333,35
36.59167,34
36.60000,34
36.60833,34
36.61667,33
36.62500,33
36.63333,33
36.64167,33
36.65000,33
36.65833,33
36.66667,33
36.67500,33
36.68333,32
36.69167,33
36.70000,33
36.70833,33
36.71667,33
36.72500,33
36.73333,33
36.74167,33
36.75000,33
36.75833,33
36.76667,34
36.77500,34
36.78333,34
36.79167,35
36.80000,35
36.80833,36
36.81667,36
36.82500,36
36.83333,37
36.84167,37
36.85000,37
36.85833,37
36.86667,37
36.87500,38
36.88333,39
36.89167,40
36.90000,41
36.90833,41
36.91667,42
36.92500,42
36.93333,42
36.94167,43
36.95000,43
36.95833,43
36.96667,44
36.97500,44
36.98333,45
36.99167,46
37.00000,47
37.00833,48
37.01667,48
37.02500,49
37.03333,50
37.04167,51
37.05000,52
37.05833,52
37.06667,53
37.07500,54
37.08333,55
37.09167,56
37.10000,57
37.10833,58
37.11667,58
37.12500,59
37.13333,60
37.14167,61
37.15000,62
37.15833,63
37.16667,64
37.17500,64
37.18333,65
37.19167,66
37.20000,67
37.20833,68
37.21667,69
37.22500,70
37.23333,71
37.24167,72
37.25000,73
37.25833,74
37.26667,75
37.27500,76
37.28333,77
37.29167,78
37.30000,79
37.30833,80
37.31667,81
37.32500,82
37.33333,83
37.34167,84
37.35000,85
37.35833,86
37.36667,87
37.37500,88
37.38333,89
37.39167,90
37.40000,91
37.40833,92
37.41667,92
37.42500,93
37.43333,94
37.44167,95
37.45000,97
37.45833,98
37.46667,99
37.47500,100
37.48333,101
37.49167,102
37.50000,103
37.50833,104
37.51667,105
37.52500,106
37.53333,106
37.54167,107
37.55000,108
37.55833,109
37.56667,110
37.57500,110
37.58333,111
37.59167,112
37.60000,113
37.60833,113
37.61667,114
37.62500,115
37.63333,116
37.64167,117
37.65000,117
37.65833,118
37.66667,119
37.67500,119
37.68333,120
37.69167,120
37.70000,120
37.70833,121
37.71667,122
37.72500,123
37.73333,123
37.74167,123
37.75000,123
37.75833,123
37.76667,123
37.77500,123
37.78333,123
37.79167,123
37.80000,124
37.80833,124
37.81667,124
37.82500,125
37.83333,125
37.84167,124
37.85000,124
37.85833,124
37.86667,124
37.87500,124
37.88333,124
37.89167,123
37.90000,123
37.90833,123
37.91667,123
37.92500,122
37.93333,122
37.94167,121
37.95000,120
37.95833,120
37.96667,119
37.97500,119
37.98333,118
37.99167,118
38.00000,117
38.00833,117
38.01667,116
38.02500,116
38.03333,115
38.04167,114
38.05000,113
38.05833,112
38.06667,111
38.07500,109
38.08333,108
38.09167,107
38.10000,106
38.10833,106
38.11667,105
38.12500,104
38.13333,103
38.14167,102
38.15000,101
38.15833,100
38.16667,99
38.17500,98
38.18333,96
38.19167,95
38.20000,94
38.20833,93
38.21667,91
38.22500,90
38.23333,88
38.24167,87
38.25000,86
38.25833,85
38.26667,84
38.27500,83
38.28333,81
38.29167,80
38.30000,78
38.30833,77
38.31667,75
38.32500,74
38.33333,73
38.34167,71
38.35000,70
38.35833,69
38.36667,67
38.37500,66
38.38333,64
38.39167,63
38.40000,61
38.40833,60
38.41667,58
38.42500,57
38.43333,55
38.44167,53
38.45000,52
38.45833,50
38.46667,49
38.47500,47
38.48333,46
38.49167,44
38.50000,43
38.50833,42
38.51667,40
38.52500,39
38.53333,38
38.54167,37
38.55000,35
38.55833,34
38.56667,32
38.57500,31
38.58333,29
38.59167,27
38.60000,26
38.60833,25
38.61667,23
38.62500,22
38.63333,21
38.64167,19
38.65000,18
38.65833,17
38.66667,16
38.67500,14
38.68333,13
38.69167,12
38.70000,11
38.70833,10
38.71667,9
38.72500,8
38.73333,7
38.74167,5
38.75000,4
38.75833,3
38.76667,1
38.77500,0
38.78333,-1
38.79167,-1
38.80000,-2
38.80833,-2
38.81667,-3
38.82500,-4
38.83333,-5
38.84167,-5
38.85000,-6
38.85833,-7
38.86667,-8
38.87500,-9
38.88333,-10
38.89167,-11
38.90000,-12
38.90833,-13
38.91667,-14
38.92500,-14
38.93333,-14
38.94167,-15
38.95000,-16
38.95833,-16
38.96667,-17
38.97500,-18
38.98333,-19
38.99167,-19
39.00000,-20
39.00833,-20
39.01667,-21
39.02500,-21
39.03333,-21
39.04167,-22
39.05000,-22
39.05833,-23
39.06667,-23
39.07500,-24
39.08333,-24
39.09167,-24
39.10000,-24
39.10833,-25
39.11667,-25
39.12500,-25
39.13333,-26
39.14167,-26
39.15000,-27
39.15833,-27
39.16667,-28
39.17500,-28
39.18333,-28
39.19167,-28
39.20000,-28
39.20833,-28
39.21667,-28
39.22500,-29
39.23333,-29
39.24167,-29
39.25000,-30
39.25833,-30
39.26667,-30
39.27500,-31
39.28333,-31
39.29167,-31
39.30000,-31
39.30833,-31
39.31667,-31
39.32500,-31
39.33333,-32
39.34167,-32
39.35000,-32
39.35833,-32
39.36667,-32
39.37500,-32
39.38333,-33
39.39167,-32
39.40000,-32
39.40833,-32
39.41667,-32
39.42500,-32
39.43333,-32
39.44167,-32
39.45000,-32
39.45833,-32
39.46667,-32
39.47500,-32
39.48333,-32
39.49167,-33
39.50000,-33
39.50833,-34
39.51667,-34
39.52500,-34
39.53333,-34
39.54167,-35
39.55000,-35
39.55833,-35
39.56667,-35
39.57500,-35
39.58333,-35
39.59167,-35
39.60000,-35
39.60833,-35
39.61667,-35
39.62500,-35
39.63333,-34
39.64167,-34
39.65000,-34
39.65833,-35
39.66667,-35
39.67500,-35
39.68333,-35
39.69167,-35
39.70000,-35
39.70833,-35
39.71667,-36
39.72500,-36
39.73333,-36
39.74167,-36
39.75000,-36
39.75833,-36
39.76667,-36
39.77500,-36
39.78333,-36
39.79167,-36
39.80000,-36
39.80833,-36
39.81667,-36
39.82500,-35
39.83333,-35
39.84167,-35
39.85000,-35
39.85833,-35
39.86667,-36
39.87500,-36
39.88333,-36
39.89167,-36
39.90000,-36
39.90833,-36
39.91667,-36
39.92500,-36
39.93333,-36
39.94167,-37
39.95000,-37
39.95833,-36
39.96667,-36
39.97500,-36
39.98333,-36
39.99167,-36
40.00000,-36
40.00833,-36
40.01667,-36
40.02500,-36
40.03333,-36
40.04167,-36
40.05000,-36
40.05833,-36
40.06667,-36
40.07500,-36
40.08333,-35
40.09167,-35
40.10000,-35
40.10833,-35
40.11667,-35
40.12500,-35
40.13333,-35
40.14167,-35
40.15000,-35
40.15833,-36
40.16667,-36
40.17500,-36
40.18333,-36
40.19167,-35
40.20000,-35
40.20833,-35
40.21667,-35
40.22500,-35
40.23333,-35
40.24167,-35
40.25000,-35
40.25833,-35
40.26667,-34
40.27500,-34
40.28333,-34
40.29167,-34
40.30000,-34
40.30833,-34
40.31667,-34
40.32500,-34
40.33333,-33
40.34167,-33
40.35000,-33
40.35833,-33
40.36667,-33
40.37500,-32
40.38333,-32
40.39167,-32
40.40000,-32
40.40833,-32
40.41667,-31
40.42500,-31
40.43333,-31
40.44167,-31
40.45000,-30
40.45833,-30
40.46667,-29
40.47500,-29
40.48333,-28
40.49167,-28
40.50000,-28
40.50833,-28
40.51667,-28
40.52500,-27
40.53333,-27
40.54167,-26
40.55000,-26
40.55833,-26
40.56667,-25
40.57500,-25
40.58333,-24
40.59167,-23
40.60000,-23
40.60833,-22
40.61667,-22
40.62500,-22
40.63333,-21
40.64167,-20
40.65000,-19
40.65833,-18
40.66667,-17
40.67500,-16
40.68333,-16
40.69167,-15
40.70000,-14
40.70833,-13
40.71667,-12
40.72500,-12
40.73333,-11
40.74167,-10
40.75000,-9
40.75833,-8
40.76667,-8
40.77500,-7
40.78333,-6
40.79167,-5
40.80000,-4
40.80833,-4
40.81667,-2
40.82500,-1
40.83333,0
40.84167,2
40.85000,3
40.85833,4
40.86667,5
40.87500,6
40.88333,7
40.89167,8
40.90000,9
40.90833,10
40.91667,12
40.92500,13
40.93333,14
40.94167,16
40.95000,17
40.95833,18
40.96667,19
40.97500,20
40.98333,21
40.99167,23
41.00000,24
41.00833,25
41.01667,26
41.02500,28
41.03333,29
41.04167,30
41.05000,31
41.05833,32
41.06667,33
41.07500,35
41.08333,36
41.09167,38
41.10000,39
41.10833,40
41.11667,42
41.12500,43
41.13333,45
41.14167,46
41.15000,47
41.15833,49
41.16667,50
41.17500,51
41.18333,53
41.19167,54
41.20000,56
41.20833,57
41.21667,59
41.22500,60
41.23333,61
41.24167,63
41.25000,64
41.25833,65
41.26667,66
41.27500,68
41.28333,69
41.29167,71
41.30000,73
41.30833,74
41.31667,76
41.32500,77
41.33333,78
41.34167,80
41.35000,82
41.35833,83
41.36667,84
41.37500,85
41.38333,87
41.39167,88
41.40000,89
41.40833,91
41.41667,92
41.42500,93
41.43333,94
41.44167,95
41.45000,96
41.45833,98
41.46667,99
41.47500,100
41.48333,102
41.49167,103
41.50000,105
41.50833,106
41.51667,107
41.52500,108
41.53333,109
41.54167,111
41.55000,112
41.55833,114
41.56667,115
41.57500,116
41.58333,118
41.59167,119
41.60000,120
41.60833,121
41.61667,122
41.62500,123
41.63333,125
41.64167,126
41.65000,127
41.65833,128
41.66667,129
41.67500,130
41.68333,131
41.69167,132
41.70000,133
41.70833,134
41.71667,134
41.72500,135
41.73333,136
41.74167,137
41.75000,138
41.75833,139
41.76667,139
41.77500,140
41.78333,141
41.79167,142
41.80000,142
41.80833,143
41.81667,144
41.82500,145
41.83333,145
41.84167,146
41.85000,147
41.85833,148
41.86667,148
41.87500,148
41.88333,148
41.89167,149
41.90000,149
41.90833,149
41.91667,149
41.92500,150
41.93333,150
41.94167,150
41.95000,150
41.95833,151
41.96667,151
41.97500,151
41.98333,151
41.99167,151
42.00000,151
42.00833,151
42.01667,152
42.02500,152
42.03333,153
42.04167,153
42.05000,153
42.05833,153
42.06667,153
42.07500,153
42.08333,153
42.09167,153
42.10000,153
42.10833,153
42.11667,153
42.12500,153
42.13333,153
42.14167,153
42.15000,153
42.15833,153
42.16667,153
42.17500,154
42.18333,154
42.19167,153
42.20000,153
42.20833,153
42.21667,153
42.22500,153
42.23333,152
42.24167,152
42.25000,151
42.25833,151
42.26667,150
42.27500,150
42.28333,149
42.29167,149
42.30000,149
42.30833,149
42.31667,148
42.32500,148
42.33333,148
42.34167,147
42.35000,147
42.35833,146
42.36667,145
42.37500,144
42.38333,144
42.39167,143
42.40000,143
42.40833,142
42.41667,142
42.42500,142
42.43333,141
42.44167,141
42.45000,140
42.45833,140
42.46667,139
42.47500,139
42.48333,139
42.49167,138
42.50000,138
42.50833,137
42.51667,136
42.52500,136
42.53333,135
42.54167,134
42.55000,134
42.55833,133
42.56667,132
42.57500,131
42.58333,130
42.59167,129
42.60000,128
42.60833,128
42.61667,127
42.62500,127
42.63333,126
42.64167,125
42.65000,124
42.65833,123
42.66667,122
42.67500,121
42.68333,120
42.69167,119
42.70000,119
42.70833,118
42.71667,117
42.72500,116
42.73333,116
42.74167,115
42.75000,114
42.75833,114
42.76667,113
42.77500,112
42.78333,111
42.79167,110
42.80000,109
42.80833,108
42.81667,107
42.82500,106
42.83333,105
42.84167,104
42.85000,104
42.85833,103
42.86667,102
42.87500,101
42.88333,100
42.89167,100
42.90000,99
42.90833,98
42.91667,97
42.92500,97
42.93333,96
42.94167,95
42.95000,94
42.95833,93
42.96667,92
42.97500,91
42.98333,90
42.99167,90
43.00000,89
43.00833,88
43.01667,87
43.02500,87
43.03333,86
43.04167,85
43.05000,84
43.05833,83
43.06667,82
43.07500,81
43.08333,80
43.09167,79
43.10000,78
43.10833,77
43.11667,76
43.12500,75
43.13333,74
43.14167,74
43.15000,73
43.15833,72
43.16667,72
43.17500,71
43.18333,70
43.19167,69
43.20000,68
43.20833,67
43.21667,66
43.22500,66
43.23333,65
43.24167,65
43.25000,64
43.25833,63
43.26667,62
43.27500,61
43.28333,60
43.29167,59
43.30000,59
43.30833,58
43.31667,58
43.32500,57
43.33333,57
43.34167,56
43.35000,55
43.35833,54
43.36667,53
43.37500,52
43.38333,51
43.39167,51
43.40000,50
43.40833,50
43.41667,49
43.42500,49
43.43333,48
43.44167,48
43.45000,47
43.45833,46
43.46667,45
43.47500,45
43.48333,44
43.49167,43
43.50000,43
43.50833,42
43.51667,41
43.52500,40
43.53333,39
43.54167,39
43.55000,38
43.55833,38
43.56667,37
43.57500,37
43.58333,36
43.59167,35
43.60000,35
43.60833,34
43.61667,33
43.62500,33
43.63333,32
43.64167,31
43.65000,30
43.65833,30
43.66667,29
43.67500,29
43.68333,28
43.69167,27
43.70000,27
43.70833,26
43.71667,26
43.72500,25
43.73333,24
43.74167,23
43.75000,23
43.75833,22
43.76667,21
43.77500,21
43.78333,20
43.79167,19
43.80000,19
43.80833,19
43.81667,19
43.82500,18
43.83333,17
43.84167,17
43.85000,16
43.85833,16
43.86667,15
43.87500,15
43.88333,14
43.89167,13
43.90000,13
43.90833,12
43.91667,11
43.92500,11
43.93333,10
43.94167,9
43.95000,9
43.95833,8
43.96667,8
43.97500,7
43.98333,6
43.99167,6
44.00000,5
44.00833,5
44.01667,4
44.02500,4
44.03333,3
44.04167,3
44.05000,2
44.05833,2
44.06667,1
44.07500,1
44.08333,0
44.09167,-0
44.10000,-0
44.10833,-1
44.11667,-1
44.12500,-1
44.13333,-2
44.14167,-2
44.15000,-2
44.15833,-3
44.16667,-4
44.17500,-5
44.18333,-5
44.19167,-6
44.20000,-7
44.20833,-7
44.21667,-7
44.22500,-8
44.23333,-8
44.24167,-9
44.25000,-9
44.25833,-9
44.26667,-9
44.27500,-10
44.28333,-11
44.29167,-12
44.30000,-12
44.30833,-13
44.31667,-14
44.32500,-14
44.33333,-14
44.34167,-15
44.35000,-15
44.35833,-15
44.36667,-15
44.37500,-16
44.38333,-16
44.39167,-16
44.40000,-17
44.40833,-18
44.41667,-18
44.42500,-19
44.43333,-19
44.44167,-20
44.45000,-20
44.45833,-21
44.46667,-21
44.47500,-21
44.48333,-21
44.49167,-22
44.50000,-22
44.50833,-22
44.51667,-22
44.52500,-23
44.53333,-23
44.54167,-23
44.55000,-23
44.55833,-23
44.56667,-24
44.57500,-24
44.58333,-25
44.59167,-25
44.60000,-25
44.60833,-26
44.61667,-26
44.62500,-26
44.63333,-27
44.64167,-27
44.65000,-27
44.65833,-28
44.66667,-28
44.67500,-29
44.68333,-29
44.69167,-29
44.70000,-29
44.70833,-29
44.71667,-30
44.72500,-30
44.73333,-30
44.74167,-30
44.75000,-30
44.75833,-31
44.76667,-31
44.77500,-31
44.78333,-31
44.79167,-32
44.80000,-32
44.80833,-32
44.81667,-32
44.82500,-32
44.83333,-32
44.84167,-33
44.85000,-33
44.85833,-33
44.86667,-33
44.87500,-33
44.88333,-34
44.89167,-34
44.90000,-34
44.90833,-35
44.91667,-35
44.92500,-35
44.93333,-35
44.94167,-35
44.95000,-35
44.95833,-35
44.96667,-35
44.97500,-34
44.98333,-34
44.99167,-34
45.00000,-34
45.00833,-34
45.01667,-34
45.02500,-35
45.03333,-35
45.04167,-35
45.05000,-36
45.05833,-36
45.06667,-36
45.07500,-36
45.08333,-36
45.09167,-36
45.10000,-36
45.10833,-36
45.11667,-36
45.12500,-36
45.13333,-36
45.14167,-36
45.15000,-36
45.15833,-36
45.16667,-36
45.17500,-36
45.18333,-37
45.19167,-37
45.20000,-37
45.20833,-38
45.21667,-38
45.22500,-38
45.23333,-38
45.24167,-38
45.25000,-37
45.25833,-37
45.26667,-37
45.27500,-37
45.28333,-37
45.29167,-37
45.30000,-37
45.30833,-37
45.31667,-37
45.32500,-37
45.33333,-37
45.34167,-37
45.35000,-37
45.35833,-37
45.36667,-37
45.37500,-37
45.38333,-37
45.39167,-37
45.40000,-37
45.40833,-37
45.41667,-37
45.42500,-37
45.43333,-37
45.44167,-38
45.45000,-38
45.45833,-38
45.46667,-37
45.47500,-37
45.48333,-37
45.49167,-36
45.50000,-36
45.50833,-36
45.51667,-36
45.52500,-37
45.53333,-37
45.54167,-37
45.55000,-37
45.55833,-38
45.56667,-37
45.57500,-37
45.58333,-37
45.59167,-37
45.60000,-36
45.60833,-37
45.61667,-37
45.62500,-37
45.63333,-37
45.64167,-37
45.65000,-37
45.65833,-37
45.66667,-37
45.67500,-38
45.68333,-38
45.69167,-38
45.70000,-38
45.70833,-38
45.71667,-38
45.72500,-38
45.73333,-38
45.74167,-38
45.75000,-38
45.75833,-38
45.76667,-38
45.77500,-38
45.78333,-38
45.79167,-39
45.80000,-39
45.80833,-39
45.81667,-39
45.82500,-39
45.83333,-38
45.84167,-39
45.85000,-39
45.85833,-39
45.86667,-39
45.87500,-39
45.88333,-39
45.89167,-39
45.90000,-40
45.90833,-40
45.91667,-40
45.92500,-40
45.93333,-40
45.94167,-40
45.95000,-40
45.95833,-40
45.96667,-40
45.97500,-41
45.98333,-41
45.99167,-41
46.00000,-42
46.00833,-42
46.01667,-42
46.02500,-42
46.03333,-42
46.04167,-43
46.05000,-43
46.05833,-43
46.06667,-43
46.07500,-43
46.08333,-43
46.09167,-43
46.10000,-43
46.10833,-44
46.11667,-44
46.12500,-44
46.13333,-45
46.14167,-45
46.15000,-44
46.15833,-44
46.16667,-44
46.17500,-44
46.18333,-44
46.19167,-45
46.20000,-45
46.20833,-46
46.21667,-46
46.22500,-46
46.23333,-47
46.24167,-47
46.25000,-47
46.25833,-48
46.26667,-47
46.27500,-47
46.28333,-47
46.29167,-47
46.30000,-47
46.30833,-48
46.31667,-48
46.32500,-49
46.33333,-49
46.34167,-49
46.35000,-49
46.35833,-50
46.36667,-50
46.37500,-50
46.38333,-51
46.39167,-51
46.40000,-51
46.40833,-51
46.41667,-51
46.42500,-52
46.43333,-52
46.44167,-52
46.45000,-52
46.45833,-52
46.46667,-52
46.47500,-53
46.48333,-53
46.49167,-53
46.50000,-54
46.50833,-54
46.51667,-54
46.52500,-54
46.53333,-54
46.54167,-54
46.55000,-55
46.55833,-55
46.56667,-56
46.57500,-56
46.58333,-57
46.59167,-57
46.60000,-57
46.60833,-57
46.61667,-57
46.62500,-57
46.63333,-58
46.64167,-58
46.65000,-58
46.65833,-58
46.66667,-58
46.67500,-58
46.68333,-58
46.69167,-59
46.70000,-59
46.70833,-59
46.71667,-58
46.72500,-59
46.73333,-59
46.74167,-59
46.75000,-59
46.75833,-59
46.76667,-59
46.77500,-59
46.78333,-59
46.79167,-60
46.80000,-60
46.80833,-60
46.81667,-60
46.82500,-61
46.83333,-61
46.84167,-61
46.85000,-62
46.85833,-62
46.86667,-62
46.87500,-62
46.88333,-62
46.89167,-62
46.90000,-62
46.90833,-62
46.91667,-63
46.92500,-63
46.93333,-63
46.94167,-63
46.95000,-63
46.95833,-63
46.96667,-63
46.97500,-63
46.98333,-63
46.99167,-63
47.00000,-63
47.00833,-62
47.01667,-62
47.02500,-62
47.03333,-62
47.04167,-62
47.05000,-61
47.05833,-61
47.06667,-61
47.07500,-61
47.08333,-61
47.09167,-61
47.10000,-61
47.10833,-62
47.11667,-62
47.12500,-62
47.13333,-61
47.14167,-61
47.15000,-61
47.15833,-61
47.16667,-61
47.17500,-61
47.18333,-60
47.19167,-60
47.20000,-60
47.20833,-59
47.21667,-59
47.22500,-59
47.23333,-58
47.24167,-57
47.25000,-57
47.25833,-56
47.26667,-56
47.27500,-56
47.28333,-55
47.29167,-55
47.30000,-55
47.30833,-54
47.31667,-54
47.32500,-54
47.33333,-53
47.34167,-53
47.35000,-52
47.35833,-51
47.36667,-50
47.37500,-50
47.38333,-50
47.39167,-49
47.40000,-48
47.40833,-48
47.41667,-48
47.42500,-47
47.43333,-46
47.44167,-46
47.45000,-45
47.45833,-45
47.46667,-44
47.47500,-43
47.48333,-42
47.49167,-41
47.50000,-40
47.50833,-40
47.51667,-39
47.52500,-38
47.53333,-37
47.54167,-37
47.55000,-36
47.55833,-35
47.56667,-34
47.57500,-33
47.58333,-32
47.59167,-31
47.60000,-30
47.60833,-30
47.61667,-29
47.62500,-28
47.63333,-27
47.64167,-26
47.65000,-26
47.65833,-25
47.66667,-24
47.67500,-24
47.68333,-23
47.69167,-22
47.70000,-22
47.70833,-21
47.71667,-20
47.72500,-19
47.73333,-18
47.74167,-17
47.75000,-17
47.75833,-16
47.76667,-15
47.77500,-14
47.78333,-13
47.79167,-12
47.80000,-12
47.80833,-11
47.81667,-10
47.82500,-10
47.83333,-9
47.84167,-8
47.85000,-7
47.85833,-6
47.86667,-6
47.87500,-5
47.88333,-4
47.89167,-3
47.90000,-3
47.90833,-2
47.91667,-1
47.92500,-1
47.93333,0
47.94167,1
47.95000,2
47.95833,2
47.96667,3
47.97500,3
47.98333,4
47.99167,4
48.00000,4
48.00833,5
48.01667,5
48.02500,6
48.03333,6
48.04167,7
48.05000,8
48.05833,8
48.06667,9
48.07500,9
48.08333,10
48.09167,11
48.10000,11
48.10833,11
48.11667,12
48.12500,12
48.13333,13
48.14167,13
48.15000,13
48.15833,13
48.16667,13
48.17500,14
48.18333,14
48.19167,15
48.20000,15
48.20833,15
48.21667,16
48.22500,16
48.23333,16
48.24167,16
48.25000,16
48.25833,17
48.26667,17
48.27500,18
48.28333,19
48.29167,19
48.30000,19
48.30833,19
48.31667,19
48.32500,19
48.33333,20
48.34167,20
48.35000,20
48.35833,20
48.36667,21
48.37500,21
48.38333,22
48.39167,21
48.40000,22
48.40833,21
48.41667,22
48.42500,22
48.43333,22
48.44167,22
48.45000,22
48.45833,22
48.46667,22
48.47500,22
48.48333,22
48.49167,23
48.50000,23
48.50833,23
48.51667,23
48.52500,23
48.53333,23
48.54167,23
48.55000,23
48.55833,23
48.56667,23
48.57500,23
48.58333,23
48.59167,23
48.60000,23
48.60833,23
48.61667,23
48.62500,24
48.63333,24
48.64167,24
48.65000,23
48.65833,23
48.66667,22
48.67500,23
48.68333,23
48.69167,23
48.70000,24
48.70833,24
48.71667,24
48.72500,24
48.73333,24
48.74167,23
48.75000,24
48.75833,24
48.76667,24
48.77500,24
48.78333,24
48.79167,24
48.80000,24
48.80833,24
48.81667,24
48.82500,25
48.83333,24
48.84167,24
48.85000,24
48.85833,24
48.86667,24
48.87500,25
48.88333,25
48.89167,25
48.90000,25
48.90833,25
48.91667,25
48.92500,25
48.93333,25
48.94167,25
48.95000,25
48.95833,26
48.96667,26
48.97500,26
48.98333,26
48.99167,26
49.00000,26
49.00833,26
49.01667,26
49.02500,26
49.03333,26
49.04167,26
49.05000,26
49.05833,26
49.06667,26
49.07500,26
49.08333,26
49.09167,26
49.10000,26
49.10833,26
49.11667,26
49.12500,26
49.13333,26
49.14167,27
49.15000,27
49.15833,27
49.16667,27
49.17500,27
49.18333,27
49.19167,27
49.20000,27
49.20833,27
49.21667,26
49.22500,26
49.23333,26
49.24167,26
49.25000,27
49.25833,27
49.26667,26
49.27500,26
49.28333,26
49.29167,25
49.30000,25
49.30833,25
49.31667,24
49.32500,24
49.33333,25
49.34167,25
49.35000,25
49.35833,25
49.36667,25
49.37500,25
49.38333,25
49.39167,24
49.40000,24
49.40833,24
49.41667,23
49.42500,23
49.43333,23
49.44167,23
49.45000,23
49.45833,23
49.46667,23
49.47500,22
49.48333,22
49.49167,22
49.50000,22
49.50833,21
49.51667,21
49.52500,21
49.53333,21
49.54167,21
49.55000,21
49.55833,21
49.56667,20
49.57500,20
49.58333,20
49.59167,20
49.60000,19
49.60833,19
49.61667,19
49.62500,19
49.63333,18
49.64167,18
49.65000,17
49.65833,17
49.66667,17
49.67500,16
49.68333,16
49.69167,15
49.70000,15
49.70833,15
49.71667,14
49.72500,14
49.73333,14
49.74167,14
49.75000,13
49.75833,13
49.76667,12
49.77500,12
49.78333,11
49.79167,11
49.80000,10
49.80833,10
49.81667,10
49.82500,10
49.83333,9
49.84167,9
49.85000,8
49.85833,7
49.86667,6
49.87500,6
49.88333,5
49.89167,5
49.90000,4
49.90833,3
49.91667,2
49.92500,1
49.93333,0
49.94167,-0
49.95000,-1
49.95833,-1
49.96667,-2
49.97500,-2
49.98333,-3
49.99167,-4
50.00000,-4

