[Header]
Application Name,LabSolutions
Version,5.97 SP1
Data File Name,C:\Users\cremerlab\Desktop\Richa\Sep_6th_2022_re-run_Sep2nd\Sep 6th_962022_001_002.lcd
Output Date,9/6/2022
Output Time,6:02:20 PM

[File Information]
Type,Data File
Generated,9/6/2022 5:12:01 PM
Generated by,System Administrator
Modified,9/6/2022 6:02:20 PM
Modified by,System Administrator

[Sample Information]
Operator Name,System Administrator
Acquired,9/6/2022 5:12:19 PM
Sample Type,0:Unknown
Level,0
Sample Name,090622_B.fragilis_1
Sample ID,001
ISTD Amount1,1
ISTD Amount2,1
ISTD Amount3,1
ISTD Amount4,1
ISTD Amount5,1
ISTD Amount6,1
ISTD Amount7,1
ISTD Amount8,1
ISTD Amount9,1
ISTD Amount10,1
ISTD Amount11,1
ISTD Amount12,1
ISTD Amount13,1
ISTD Amount14,1
ISTD Amount15,1
ISTD Amount16,1
ISTD Amount17,1
ISTD Amount18,1
ISTD Amount19,1
ISTD Amount20,1
ISTD Amount21,1
ISTD Amount22,1
ISTD Amount23,1
ISTD Amount24,1
ISTD Amount25,1
ISTD Amount26,1
ISTD Amount27,1
ISTD Amount28,1
ISTD Amount29,1
ISTD Amount30,1
ISTD Amount31,1
ISTD Amount32,1
Sample Amount,1
Dilution Factor,1
Vial#,1
Injection Volume,20

[Original Files]
Data File,C:\Users\cremerlab\Desktop\Richa\Sep_6th_2022_re-run_Sep2nd\Sep 6th_962022_001_002.lcd
Method File,C:\Users\cremerlab\Desktop\Richa\acetate_excretion.lcm
Batch File,C:\Users\cremerlab\Desktop\Richa\Sep_6th_2022_re-run_Sep2nd\Sep 6th.lcb
Report Format File,c:\LabSolutions\System\DEFAULT.lsr

[File Description]


[Configuration]
Instrument Name,HPLC-PC-Instrument1
Instrument #,1
Line #,1
# of Detectors,2
Detector ID,Detector A,Detector B
Detector Name,Detector A,Detector B
# of Channels,1,1

[Peak Table(Detector A)]
# of Peaks,0

[Peak Table(Detector B)]
# of Peaks,11
Peak#,R.Time,I.Time,F.Time,Area,Height,A/H,Conc.,Mark,ID#,Name,k',Plate #,Plate Ht.,Tailing,Resolution,Sep.Factor,Area Ratio,Height Ratio,Conc. %,Norm Conc.
1,10.467,10.267,10.517,1528,198,7.731,0.000,   ,,,0.000,7629,19.661,0.000,0.000,0.000,0,0,0.000,0.000
2,11.021,10.517,12.308,2272210,116098,19.571,0.000, V ,,,0.053,7530,19.921,0.968,1.123,0.000,0,0,0.000,0.000
3,14.330,12.658,15.183,3588940,76719,46.780,0.000,   ,,,0.369,2481,60.460,0.655,3.990,6.968,0,0,0.000,0.000
4,15.759,15.183,17.375,1481842,50530,29.326,0.000, V ,,,0.506,6908,21.715,1.146,1.497,1.370,0,0,0.000,0.000
5,17.857,17.375,18.433,11507,324,35.466,0.000, V ,,,0.706,5226,28.704,0.000,2.402,1.396,0,0,0.000,0.000
6,19.108,18.458,19.758,11668,287,40.618,0.000,   ,,,0.826,4551,32.962,0.990,1.179,1.169,0,0,0.000,0.000
7,20.288,19.767,20.867,21388,593,36.086,0.000,   ,,,0.938,7343,20.426,0.000,1.134,1.137,0,0,0.000,0.000
8,21.758,20.867,22.592,40118,717,55.936,0.000, V ,,,1.079,3239,46.304,0.000,1.187,1.150,0,0,0.000,0.000
9,25.082,24.300,26.433,141317,3420,41.320,0.000,   ,,,1.396,8978,16.708,1.170,2.569,1.294,0,0,0.000,0.000
10,29.208,28.333,30.300,128863,2767,46.567,0.000,   ,,,1.791,9254,16.210,1.062,3.629,1.282,0,0,0.000,0.000
11,32.510,31.725,34.217,31116,422,73.662,0.000,   ,,,2.106,2201,68.140,1.518,1.657,1.176,0,0,0.000,0.000

[LC Chromatogram(Detector B-Ch1)]
Interval(msec),500
# of Points,6001
Start Time(min),0.000
End Time(min),50.000
Intensity Units,mV
Intensity Multiplier,0.001
R.Time (min),Intensity
0.00000,-26
0.00833,-26
0.01667,-0
0.02500,-1
0.03333,-2
0.04167,-2
0.05000,-3
0.05833,-3
0.06667,-4
0.07500,-5
0.08333,-6
0.09167,-7
0.10000,-7
0.10833,-8
0.11667,-8
0.12500,-8
0.13333,-8
0.14167,-9
0.15000,-10
0.15833,-10
0.16667,-11
0.17500,-12
0.18333,-12
0.19167,-13
0.20000,-14
0.20833,-14
0.21667,-15
0.22500,-15
0.23333,-16
0.24167,-16
0.25000,-17
0.25833,-17
0.26667,-18
0.27500,-18
0.28333,-19
0.29167,-19
0.30000,-20
0.30833,-20
0.31667,-20
0.32500,-20
0.33333,-21
0.34167,-21
0.35000,-21
0.35833,-22
0.36667,-23
0.37500,-24
0.38333,-24
0.39167,-24
0.40000,-25
0.40833,-25
0.41667,-25
0.42500,-25
0.43333,-25
0.44167,-26
0.45000,-26
0.45833,-27
0.46667,-27
0.47500,-27
0.48333,-27
0.49167,-27
0.50000,-27
0.50833,-27
0.51667,-27
0.52500,-28
0.53333,-29
0.54167,-29
0.55000,-30
0.55833,-30
0.56667,-30
0.57500,-30
0.58333,-31
0.59167,-31
0.60000,-31
0.60833,-31
0.61667,-31
0.62500,-31
0.63333,-31
0.64167,-31
0.65000,-32
0.65833,-32
0.66667,-32
0.67500,-32
0.68333,-33
0.69167,-33
0.70000,-33
0.70833,-34
0.71667,-34
0.72500,-33
0.73333,-33
0.74167,-33
0.75000,-33
0.75833,-33
0.76667,-34
0.77500,-34
0.78333,-34
0.79167,-34
0.80000,-35
0.80833,-35
0.81667,-35
0.82500,-35
0.83333,-35
0.84167,-35
0.85000,-35
0.85833,-34
0.86667,-34
0.87500,-35
0.88333,-35
0.89167,-35
0.90000,-35
0.90833,-35
0.91667,-35
0.92500,-35
0.93333,-35
0.94167,-35
0.95000,-35
0.95833,-35
0.96667,-35
0.97500,-35
0.98333,-35
0.99167,-36
1.00000,-36
1.00833,-35
1.01667,-35
1.02500,-35
1.03333,-35
1.04167,-35
1.05000,-34
1.05833,-34
1.06667,-34
1.07500,-34
1.08333,-33
1.09167,-33
1.10000,-33
1.10833,-33
1.11667,-32
1.12500,-32
1.13333,-32
1.14167,-32
1.15000,-33
1.15833,-33
1.16667,-33
1.17500,-33
1.18333,-33
1.19167,-33
1.20000,-33
1.20833,-33
1.21667,-33
1.22500,-33
1.23333,-32
1.24167,-32
1.25000,-32
1.25833,-32
1.26667,-32
1.27500,-31
1.28333,-31
1.29167,-31
1.30000,-31
1.30833,-31
1.31667,-31
1.32500,-31
1.33333,-31
1.34167,-31
1.35000,-31
1.35833,-31
1.36667,-31
1.37500,-31
1.38333,-31
1.39167,-31
1.40000,-30
1.40833,-30
1.41667,-30
1.42500,-30
1.43333,-30
1.44167,-29
1.45000,-29
1.45833,-29
1.46667,-29
1.47500,-29
1.48333,-29
1.49167,-29
1.50000,-29
1.50833,-30
1.51667,-30
1.52500,-30
1.53333,-30
1.54167,-29
1.55000,-29
1.55833,-28
1.56667,-28
1.57500,-28
1.58333,-28
1.59167,-29
1.60000,-29
1.60833,-29
1.61667,-29
1.62500,-29
1.63333,-29
1.64167,-29
1.65000,-28
1.65833,-28
1.66667,-29
1.67500,-29
1.68333,-28
1.69167,-28
1.70000,-28
1.70833,-28
1.71667,-28
1.72500,-28
1.73333,-28
1.74167,-28
1.75000,-28
1.75833,-27
1.76667,-27
1.77500,-27
1.78333,-27
1.79167,-27
1.80000,-27
1.80833,-26
1.81667,-26
1.82500,-26
1.83333,-26
1.84167,-27
1.85000,-27
1.85833,-27
1.86667,-27
1.87500,-27
1.88333,-27
1.89167,-27
1.90000,-27
1.90833,-27
1.91667,-27
1.92500,-27
1.93333,-27
1.94167,-27
1.95000,-28
1.95833,-28
1.96667,-27
1.97500,-27
1.98333,-27
1.99167,-27
2.00000,-27
2.00833,-27
2.01667,-27
2.02500,-27
2.03333,-27
2.04167,-27
2.05000,-27
2.05833,-27
2.06667,-27
2.07500,-27
2.08333,-28
2.09167,-28
2.10000,-28
2.10833,-28
2.11667,-28
2.12500,-28
2.13333,-28
2.14167,-28
2.15000,-28
2.15833,-28
2.16667,-27
2.17500,-27
2.18333,-27
2.19167,-27
2.20000,-27
2.20833,-28
2.21667,-28
2.22500,-28
2.23333,-28
2.24167,-28
2.25000,-28
2.25833,-28
2.26667,-28
2.27500,-29
2.28333,-29
2.29167,-28
2.30000,-28
2.30833,-29
2.31667,-29
2.32500,-30
2.33333,-30
2.34167,-30
2.35000,-30
2.35833,-30
2.36667,-31
2.37500,-31
2.38333,-31
2.39167,-31
2.40000,-31
2.40833,-32
2.41667,-32
2.42500,-32
2.43333,-32
2.44167,-32
2.45000,-32
2.45833,-32
2.46667,-32
2.47500,-32
2.48333,-32
2.49167,-32
2.50000,-32
2.50833,-32
2.51667,-32
2.52500,-32
2.53333,-32
2.54167,-33
2.55000,-33
2.55833,-33
2.56667,-33
2.57500,-34
2.58333,-34
2.59167,-34
2.60000,-34
2.60833,-34
2.61667,-34
2.62500,-34
2.63333,-34
2.64167,-34
2.65000,-34
2.65833,-35
2.66667,-35
2.67500,-35
2.68333,-35
2.69167,-36
2.70000,-36
2.70833,-36
2.71667,-36
2.72500,-36
2.73333,-36
2.74167,-36
2.75000,-37
2.75833,-37
2.76667,-37
2.77500,-37
2.78333,-37
2.79167,-37
2.80000,-37
2.80833,-37
2.81667,-38
2.82500,-38
2.83333,-38
2.84167,-37
2.85000,-38
2.85833,-38
2.86667,-39
2.87500,-39
2.88333,-39
2.89167,-40
2.90000,-40
2.90833,-40
2.91667,-40
2.92500,-40
2.93333,-40
2.94167,-40
2.95000,-41
2.95833,-41
2.96667,-41
2.97500,-41
2.98333,-41
2.99167,-41
3.00000,-41
3.00833,-41
3.01667,-41
3.02500,-41
3.03333,-41
3.04167,-41
3.05000,-41
3.05833,-41
3.06667,-42
3.07500,-42
3.08333,-42
3.09167,-42
3.10000,-42
3.10833,-41
3.11667,-41
3.12500,-41
3.13333,-41
3.14167,-41
3.15000,-42
3.15833,-42
3.16667,-42
3.17500,-43
3.18333,-43
3.19167,-43
3.20000,-43
3.20833,-43
3.21667,-42
3.22500,-42
3.23333,-42
3.24167,-42
3.25000,-42
3.25833,-42
3.26667,-42
3.27500,-42
3.28333,-42
3.29167,-42
3.30000,-42
3.30833,-41
3.31667,-41
3.32500,-41
3.33333,-41
3.34167,-41
3.35000,-42
3.35833,-42
3.36667,-42
3.37500,-42
3.38333,-42
3.39167,-42
3.40000,-42
3.40833,-42
3.41667,-42
3.42500,-41
3.43333,-41
3.44167,-41
3.45000,-41
3.45833,-41
3.46667,-41
3.47500,-41
3.48333,-41
3.49167,-41
3.50000,-40
3.50833,-41
3.51667,-41
3.52500,-41
3.53333,-41
3.54167,-41
3.55000,-41
3.55833,-41
3.56667,-41
3.57500,-40
3.58333,-40
3.59167,-40
3.60000,-40
3.60833,-40
3.61667,-40
3.62500,-40
3.63333,-40
3.64167,-40
3.65000,-39
3.65833,-39
3.66667,-39
3.67500,-38
3.68333,-38
3.69167,-38
3.70000,-38
3.70833,-37
3.71667,-37
3.72500,-37
3.73333,-37
3.74167,-37
3.75000,-37
3.75833,-36
3.76667,-36
3.77500,-36
3.78333,-36
3.79167,-36
3.80000,-35
3.80833,-35
3.81667,-35
3.82500,-34
3.83333,-34
3.84167,-34
3.85000,-34
3.85833,-34
3.86667,-34
3.87500,-33
3.88333,-33
3.89167,-32
3.90000,-32
3.90833,-31
3.91667,-31
3.92500,-31
3.93333,-31
3.94167,-31
3.95000,-31
3.95833,-31
3.96667,-30
3.97500,-30
3.98333,-30
3.99167,-30
4.00000,-29
4.00833,-29
4.01667,-29
4.02500,-28
4.03333,-28
4.04167,-27
4.05000,-27
4.05833,-26
4.06667,-25
4.07500,-25
4.08333,-24
4.09167,-24
4.10000,-23
4.10833,-23
4.11667,-23
4.12500,-22
4.13333,-22
4.14167,-22
4.15000,-21
4.15833,-21
4.16667,-20
4.17500,-19
4.18333,-19
4.19167,-18
4.20000,-18
4.20833,-17
4.21667,-17
4.22500,-16
4.23333,-16
4.24167,-16
4.25000,-15
4.25833,-14
4.26667,-14
4.27500,-13
4.28333,-12
4.29167,-11
4.30000,-11
4.30833,-10
4.31667,-10
4.32500,-9
4.33333,-9
4.34167,-8
4.35000,-7
4.35833,-6
4.36667,-6
4.37500,-5
4.38333,-5
4.39167,-4
4.40000,-3
4.40833,-2
4.41667,-1
4.42500,-0
4.43333,1
4.44167,1
4.45000,2
4.45833,2
4.46667,3
4.47500,4
4.48333,5
4.49167,6
4.50000,6
4.50833,7
4.51667,7
4.52500,8
4.53333,8
4.54167,9
4.55000,9
4.55833,10
4.56667,11
4.57500,11
4.58333,12
4.59167,13
4.60000,14
4.60833,14
4.61667,15
4.62500,15
4.63333,16
4.64167,16
4.65000,17
4.65833,17
4.66667,18
4.67500,19
4.68333,19
4.69167,20
4.70000,20
4.70833,21
4.71667,22
4.72500,22
4.73333,22
4.74167,22
4.75000,23
4.75833,24
4.76667,25
4.77500,26
4.78333,26
4.79167,27
4.80000,27
4.80833,27
4.81667,28
4.82500,28
4.83333,28
4.84167,29
4.85000,29
4.85833,30
4.86667,30
4.87500,31
4.88333,31
4.89167,32
4.90000,32
4.90833,32
4.91667,32
4.92500,32
4.93333,32
4.94167,32
4.95000,33
4.95833,33
4.96667,33
4.97500,33
4.98333,33
4.99167,34
5.00000,34
5.00833,34
5.01667,33
5.02500,33
5.03333,33
5.04167,33
5.05000,33
5.05833,33
5.06667,33
5.07500,33
5.08333,33
5.09167,33
5.10000,33
5.10833,33
5.11667,33
5.12500,33
5.13333,33
5.14167,33
5.15000,34
5.15833,34
5.16667,34
5.17500,34
5.18333,33
5.19167,33
5.20000,33
5.20833,33
5.21667,33
5.22500,33
5.23333,33
5.24167,33
5.25000,33
5.25833,32
5.26667,32
5.27500,32
5.28333,32
5.29167,32
5.30000,32
5.30833,31
5.31667,31
5.32500,31
5.33333,31
5.34167,30
5.35000,30
5.35833,29
5.36667,29
5.37500,28
5.38333,28
5.39167,27
5.40000,27
5.40833,27
5.41667,26
5.42500,26
5.43333,26
5.44167,25
5.45000,25
5.45833,25
5.46667,24
5.47500,24
5.48333,23
5.49167,23
5.50000,22
5.50833,22
5.51667,22
5.52500,22
5.53333,21
5.54167,21
5.55000,20
5.55833,20
5.56667,19
5.57500,19
5.58333,18
5.59167,17
5.60000,17
5.60833,16
5.61667,16
5.62500,15
5.63333,14
5.64167,14
5.65000,13
5.65833,13
5.66667,12
5.67500,11
5.68333,11
5.69167,10
5.70000,9
5.70833,9
5.71667,8
5.72500,7
5.73333,6
5.74167,5
5.75000,5
5.75833,4
5.76667,4
5.77500,3
5.78333,2
5.79167,1
5.80000,0
5.80833,-0
5.81667,-1
5.82500,-1
5.83333,-2
5.84167,-3
5.85000,-4
5.85833,-5
5.86667,-5
5.87500,-6
5.88333,-6
5.89167,-7
5.90000,-7
5.90833,-8
5.91667,-8
5.92500,-9
5.93333,-9
5.94167,-10
5.95000,-11
5.95833,-12
5.96667,-12
5.97500,-13
5.98333,-14
5.99167,-15
6.00000,-17
6.00833,-17
6.01667,-18
6.02500,-19
6.03333,-19
6.04167,-20
6.05000,-21
6.05833,-21
6.06667,-22
6.07500,-24
6.08333,-24
6.09167,-25
6.10000,-26
6.10833,-27
6.11667,-28
6.12500,-28
6.13333,-28
6.14167,-29
6.15000,-29
6.15833,-30
6.16667,-30
6.17500,-30
6.18333,-31
6.19167,-32
6.20000,-32
6.20833,-33
6.21667,-34
6.22500,-34
6.23333,-35
6.24167,-35
6.25000,-36
6.25833,-36
6.26667,-36
6.27500,-37
6.28333,-37
6.29167,-38
6.30000,-38
6.30833,-39
6.31667,-39
6.32500,-40
6.33333,-41
6.34167,-42
6.35000,-43
6.35833,-43
6.36667,-43
6.37500,-43
6.38333,-43
6.39167,-44
6.40000,-44
6.40833,-45
6.41667,-45
6.42500,-46
6.43333,-46
6.44167,-46
6.45000,-47
6.45833,-47
6.46667,-48
6.47500,-49
6.48333,-49
6.49167,-49
6.50000,-49
6.50833,-49
6.51667,-50
6.52500,-50
6.53333,-50
6.54167,-50
6.55000,-50
6.55833,-51
6.56667,-51
6.57500,-51
6.58333,-52
6.59167,-52
6.60000,-53
6.60833,-53
6.61667,-53
6.62500,-53
6.63333,-53
6.64167,-54
6.65000,-54
6.65833,-54
6.66667,-54
6.67500,-54
6.68333,-54
6.69167,-55
6.70000,-55
6.70833,-55
6.71667,-54
6.72500,-54
6.73333,-55
6.74167,-55
6.75000,-55
6.75833,-55
6.76667,-56
6.77500,-56
6.78333,-57
6.79167,-57
6.80000,-57
6.80833,-57
6.81667,-56
6.82500,-56
6.83333,-56
6.84167,-56
6.85000,-56
6.85833,-56
6.86667,-56
6.87500,-56
6.88333,-56
6.89167,-56
6.90000,-56
6.90833,-56
6.91667,-56
6.92500,-56
6.93333,-56
6.94167,-56
6.95000,-56
6.95833,-56
6.96667,-56
6.97500,-56
6.98333,-56
6.99167,-55
7.00000,-56
7.00833,-56
7.01667,-56
7.02500,-56
7.03333,-56
7.04167,-57
7.05000,-57
7.05833,-57
7.06667,-57
7.07500,-57
7.08333,-58
7.09167,-58
7.10000,-58
7.10833,-58
7.11667,-58
7.12500,-58
7.13333,-58
7.14167,-58
7.15000,-58
7.15833,-58
7.16667,-58
7.17500,-58
7.18333,-58
7.19167,-58
7.20000,-58
7.20833,-57
7.21667,-58
7.22500,-58
7.23333,-58
7.24167,-58
7.25000,-58
7.25833,-58
7.26667,-58
7.27500,-58
7.28333,-58
7.29167,-57
7.30000,-57
7.30833,-57
7.31667,-57
7.32500,-57
7.33333,-57
7.34167,-57
7.35000,-57
7.35833,-57
7.36667,-57
7.37500,-57
7.38333,-57
7.39167,-57
7.40000,-57
7.40833,-57
7.41667,-57
7.42500,-57
7.43333,-57
7.44167,-57
7.45000,-57
7.45833,-56
7.46667,-56
7.47500,-56
7.48333,-57
7.49167,-57
7.50000,-57
7.50833,-57
7.51667,-58
7.52500,-58
7.53333,-58
7.54167,-58
7.55000,-58
7.55833,-58
7.56667,-58
7.57500,-58
7.58333,-58
7.59167,-57
7.60000,-57
7.60833,-57
7.61667,-58
7.62500,-58
7.63333,-58
7.64167,-58
7.65000,-58
7.65833,-58
7.66667,-58
7.67500,-58
7.68333,-58
7.69167,-58
7.70000,-59
7.70833,-59
7.71667,-59
7.72500,-58
7.73333,-58
7.74167,-58
7.75000,-58
7.75833,-58
7.76667,-58
7.77500,-58
7.78333,-58
7.79167,-58
7.80000,-58
7.80833,-58
7.81667,-58
7.82500,-58
7.83333,-58
7.84167,-58
7.85000,-58
7.85833,-58
7.86667,-58
7.87500,-58
7.88333,-58
7.89167,-58
7.90000,-58
7.90833,-58
7.91667,-58
7.92500,-58
7.93333,-58
7.94167,-58
7.95000,-58
7.95833,-58
7.96667,-58
7.97500,-59
7.98333,-59
7.99167,-60
8.00000,-59
8.00833,-59
8.01667,-59
8.02500,-59
8.03333,-59
8.04167,-59
8.05000,-59
8.05833,-59
8.06667,-59
8.07500,-59
8.08333,-59
8.09167,-59
8.10000,-59
8.10833,-59
8.11667,-59
8.12500,-59
8.13333,-59
8.14167,-59
8.15000,-60
8.15833,-60
8.16667,-60
8.17500,-59
8.18333,-59
8.19167,-59
8.20000,-59
8.20833,-59
8.21667,-59
8.22500,-59
8.23333,-59
8.24167,-59
8.25000,-59
8.25833,-59
8.26667,-59
8.27500,-59
8.28333,-59
8.29167,-59
8.30000,-60
8.30833,-60
8.31667,-60
8.32500,-60
8.33333,-60
8.34167,-60
8.35000,-60
8.35833,-60
8.36667,-60
8.37500,-60
8.38333,-60
8.39167,-60
8.40000,-60
8.40833,-59
8.41667,-59
8.42500,-60
8.43333,-60
8.44167,-60
8.45000,-60
8.45833,-60
8.46667,-60
8.47500,-60
8.48333,-60
8.49167,-61
8.50000,-61
8.50833,-61
8.51667,-61
8.52500,-61
8.53333,-61
8.54167,-61
8.55000,-61
8.55833,-61
8.56667,-61
8.57500,-62
8.58333,-62
8.59167,-61
8.60000,-61
8.60833,-60
8.61667,-60
8.62500,-60
8.63333,-61
8.64167,-61
8.65000,-61
8.65833,-62
8.66667,-62
8.67500,-62
8.68333,-62
8.69167,-62
8.70000,-61
8.70833,-62
8.71667,-62
8.72500,-62
8.73333,-61
8.74167,-61
8.75000,-61
8.75833,-61
8.76667,-61
8.77500,-61
8.78333,-61
8.79167,-61
8.80000,-61
8.80833,-61
8.81667,-61
8.82500,-61
8.83333,-61
8.84167,-61
8.85000,-61
8.85833,-61
8.86667,-61
8.87500,-61
8.88333,-61
8.89167,-61
8.90000,-61
8.90833,-61
8.91667,-62
8.92500,-61
8.93333,-61
8.94167,-61
8.95000,-61
8.95833,-61
8.96667,-62
8.97500,-61
8.98333,-61
8.99167,-61
9.00000,-61
9.00833,-61
9.01667,-61
9.02500,-61
9.03333,-61
9.04167,-61
9.05000,-61
9.05833,-61
9.06667,-61
9.07500,-61
9.08333,-62
9.09167,-62
9.10000,-62
9.10833,-61
9.11667,-61
9.12500,-61
9.13333,-62
9.14167,-62
9.15000,-62
9.15833,-62
9.16667,-63
9.17500,-62
9.18333,-62
9.19167,-62
9.20000,-62
9.20833,-62
9.21667,-62
9.22500,-62
9.23333,-62
9.24167,-62
9.25000,-62
9.25833,-62
9.26667,-63
9.27500,-63
9.28333,-63
9.29167,-62
9.30000,-62
9.30833,-62
9.31667,-62
9.32500,-62
9.33333,-62
9.34167,-61
9.35000,-61
9.35833,-61
9.36667,-61
9.37500,-61
9.38333,-61
9.39167,-61
9.40000,-61
9.40833,-62
9.41667,-62
9.42500,-62
9.43333,-62
9.44167,-62
9.45000,-62
9.45833,-62
9.46667,-62
9.47500,-62
9.48333,-62
9.49167,-62
9.50000,-62
9.50833,-62
9.51667,-62
9.52500,-61
9.53333,-61
9.54167,-62
9.55000,-62
9.55833,-62
9.56667,-62
9.57500,-62
9.58333,-62
9.59167,-61
9.60000,-61
9.60833,-61
9.61667,-61
9.62500,-61
9.63333,-61
9.64167,-61
9.65000,-61
9.65833,-61
9.66667,-61
9.67500,-61
9.68333,-62
9.69167,-62
9.70000,-62
9.70833,-61
9.71667,-61
9.72500,-61
9.73333,-62
9.74167,-62
9.75000,-62
9.75833,-62
9.76667,-62
9.77500,-62
9.78333,-62
9.79167,-62
9.80000,-62
9.80833,-62
9.81667,-62
9.82500,-62
9.83333,-62
9.84167,-62
9.85000,-61
9.85833,-61
9.86667,-61
9.87500,-62
9.88333,-61
9.89167,-61
9.90000,-60
9.90833,-60
9.91667,-60
9.92500,-60
9.93333,-60
9.94167,-60
9.95000,-60
9.95833,-60
9.96667,-59
9.97500,-59
9.98333,-59
9.99167,-60
10.00000,-60
10.00833,-60
10.01667,-60
10.02500,-61
10.03333,-61
10.04167,-60
10.05000,-60
10.05833,-59
10.06667,-59
10.07500,-58
10.08333,-58
10.09167,-58
10.10000,-57
10.10833,-56
10.11667,-56
10.12500,-55
10.13333,-55
10.14167,-54
10.15000,-54
10.15833,-53
10.16667,-52
10.17500,-51
10.18333,-50
10.19167,-49
10.20000,-48
10.20833,-47
10.21667,-45
10.22500,-44
10.23333,-42
10.24167,-41
10.25000,-39
10.25833,-37
10.26667,-34
10.27500,-32
10.28333,-29
10.29167,-25
10.30000,-21
10.30833,-16
10.31667,-10
10.32500,-4
10.33333,4
10.34167,13
10.35000,24
10.35833,36
10.36667,49
10.37500,64
10.38333,80
10.39167,97
10.40000,115
10.40833,134
10.41667,152
10.42500,169
10.43333,185
10.44167,199
10.45000,210
10.45833,219
10.46667,223
10.47500,225
10.48333,224
10.49167,221
10.50000,217
10.50833,215
10.51667,215
10.52500,222
10.53333,239
10.54167,269
10.55000,317
10.55833,390
10.56667,490
10.57500,625
10.58333,799
10.59167,1020
10.60000,1293
10.60833,1624
10.61667,2019
10.62500,2484
10.63333,3025
10.64167,3649
10.65000,4359
10.65833,5161
10.66667,6060
10.67500,7060
10.68333,8166
10.69167,9380
10.70000,10707
10.70833,12150
10.71667,13709
10.72500,15387
10.73333,17186
10.74167,19108
10.75000,21152
10.75833,23320
10.76667,25612
10.77500,28026
10.78333,30562
10.79167,33218
10.80000,35992
10.80833,38883
10.81667,41886
10.82500,44999
10.83333,48218
10.84167,51538
10.85000,54952
10.85833,58454
10.86667,62036
10.87500,65688
10.88333,69401
10.89167,73159
10.90000,76949
10.90833,80752
10.91667,84546
10.92500,88308
10.93333,92009
10.94167,95614
10.95000,99087
10.95833,102386
10.96667,105462
10.97500,108267
10.98333,110744
10.99167,112838
11.00000,114493
11.00833,115653
11.01667,116266
11.02500,116290
11.03333,115688
11.04167,114439
11.05000,112535
11.05833,109986
11.06667,106819
11.07500,103078
11.08333,98826
11.09167,94138
11.10000,89100
11.10833,83805
11.11667,78349
11.12500,72827
11.13333,67325
11.14167,61924
11.15000,56692
11.15833,51687
11.16667,46951
11.17500,42517
11.18333,38403
11.19167,34620
11.20000,31166
11.20833,28035
11.21667,25213
11.22500,22683
11.23333,20426
11.24167,18421
11.25000,16643
11.25833,15073
11.26667,13687
11.27500,12467
11.28333,11392
11.29167,10446
11.30000,9612
11.30833,8876
11.31667,8227
11.32500,7653
11.33333,7143
11.34167,6689
11.35000,6284
11.35833,5921
11.36667,5594
11.37500,5300
11.38333,5033
11.39167,4790
11.40000,4567
11.40833,4363
11.41667,4174
11.42500,4000
11.43333,3837
11.44167,3686
11.45000,3545
11.45833,3412
11.46667,3287
11.47500,3169
11.48333,3057
11.49167,2950
11.50000,2850
11.50833,2754
11.51667,2663
11.52500,2575
11.53333,2491
11.54167,2411
11.55000,2334
11.55833,2261
11.56667,2190
11.57500,2122
11.58333,2057
11.59167,1994
11.60000,1934
11.60833,1877
11.61667,1821
11.62500,1768
11.63333,1717
11.64167,1667
11.65000,1620
11.65833,1574
11.66667,1530
11.67500,1488
11.68333,1448
11.69167,1409
11.70000,1372
11.70833,1337
11.71667,1303
11.72500,1270
11.73333,1238
11.74167,1207
11.75000,1178
11.75833,1150
11.76667,1124
11.77500,1098
11.78333,1074
11.79167,1050
11.80000,1028
11.80833,1006
11.81667,986
11.82500,967
11.83333,948
11.84167,931
11.85000,913
11.85833,897
11.86667,881
11.87500,865
11.88333,851
11.89167,837
11.90000,823
11.90833,811
11.91667,799
11.92500,787
11.93333,776
11.94167,765
11.95000,755
11.95833,746
11.96667,737
11.97500,728
11.98333,719
11.99167,711
12.00000,703
12.00833,696
12.01667,689
12.02500,682
12.03333,675
12.04167,668
12.05000,662
12.05833,657
12.06667,651
12.07500,646
12.08333,641
12.09167,636
12.10000,631
12.10833,627
12.11667,622
12.12500,618
12.13333,614
12.14167,611
12.15000,607
12.15833,604
12.16667,601
12.17500,598
12.18333,595
12.19167,592
12.20000,590
12.20833,588
12.21667,586
12.22500,584
12.23333,583
12.24167,582
12.25000,581
12.25833,580
12.26667,580
12.27500,579
12.28333,578
12.29167,578
12.30000,578
12.30833,577
12.31667,577
12.32500,577
12.33333,577
12.34167,576
12.35000,576
12.35833,576
12.36667,576
12.37500,576
12.38333,576
12.39167,576
12.40000,575
12.40833,575
12.41667,575
12.42500,574
12.43333,574
12.44167,573
12.45000,573
12.45833,571
12.46667,570
12.47500,570
12.48333,568
12.49167,567
12.50000,565
12.50833,564
12.51667,562
12.52500,561
12.53333,560
12.54167,558
12.55000,557
12.55833,555
12.56667,553
12.57500,551
12.58333,549
12.59167,547
12.60000,545
12.60833,543
12.61667,542
12.62500,540
12.63333,539
12.64167,538
12.65000,537
12.65833,537
12.66667,537
12.67500,539
12.68333,542
12.69167,546
12.70000,550
12.70833,556
12.71667,563
12.72500,573
12.73333,584
12.74167,598
12.75000,614
12.75833,632
12.76667,654
12.77500,679
12.78333,708
12.79167,739
12.80000,775
12.80833,815
12.81667,859
12.82500,908
12.83333,961
12.84167,1020
12.85000,1083
12.85833,1151
12.86667,1225
12.87500,1303
12.88333,1388
12.89167,1477
12.90000,1572
12.90833,1673
12.91667,1780
12.92500,1892
12.93333,2010
12.94167,2134
12.95000,2263
12.95833,2399
12.96667,2540
12.97500,2687
12.98333,2840
12.99167,2999
13.00000,3163
13.00833,3332
13.01667,3508
13.02500,3689
13.03333,3876
13.04167,4067
13.05000,4265
13.05833,4468
13.06667,4677
13.07500,4890
13.08333,5108
13.09167,5331
13.10000,5560
13.10833,5793
13.11667,6031
13.12500,6274
13.13333,6521
13.14167,6772
13.15000,7027
13.15833,7287
13.16667,7551
13.17500,7819
13.18333,8091
13.19167,8367
13.20000,8647
13.20833,8930
13.21667,9217
13.22500,9508
13.23333,9801
13.24167,10099
13.25000,10400
13.25833,10704
13.26667,11011
13.27500,11321
13.28333,11635
13.29167,11951
13.30000,12271
13.30833,12593
13.31667,12918
13.32500,13246
13.33333,13577
13.34167,13910
13.35000,14247
13.35833,14587
13.36667,14929
13.37500,15275
13.38333,15623
13.39167,15973
13.40000,16327
13.40833,16683
13.41667,17042
13.42500,17404
13.43333,17768
13.44167,18136
13.45000,18506
13.45833,18880
13.46667,19256
13.47500,19635
13.48333,20017
13.49167,20402
13.50000,20790
13.50833,21181
13.51667,21575
13.52500,21973
13.53333,22374
13.54167,22778
13.55000,23184
13.55833,23594
13.56667,24007
13.57500,24424
13.58333,24844
13.59167,25267
13.60000,25693
13.60833,26123
13.61667,26556
13.62500,26993
13.63333,27433
13.64167,27877
13.65000,28325
13.65833,28776
13.66667,29231
13.67500,29690
13.68333,30152
13.69167,30617
13.70000,31087
13.70833,31561
13.71667,32038
13.72500,32520
13.73333,33005
13.74167,33495
13.75000,33988
13.75833,34485
13.76667,34986
13.77500,35492
13.78333,36002
13.79167,36516
13.80000,37034
13.80833,37557
13.81667,38084
13.82500,38616
13.83333,39152
13.84167,39693
13.85000,40238
13.85833,40788
13.86667,41342
13.87500,41901
13.88333,42465
13.89167,43033
13.90000,43606
13.90833,44185
13.91667,44768
13.92500,45356
13.93333,45949
13.94167,46548
13.95000,47152
13.95833,47761
13.96667,48375
13.97500,48994
13.98333,49619
13.99167,50249
14.00000,50885
14.00833,51527
14.01667,52175
14.02500,52828
14.03333,53487
14.04167,54152
14.05000,54822
14.05833,55499
14.06667,56181
14.07500,56870
14.08333,57565
14.09167,58267
14.10000,58974
14.10833,59689
14.11667,60410
14.12500,61137
14.13333,61871
14.14167,62611
14.15000,63359
14.15833,64114
14.16667,64876
14.17500,65645
14.18333,66422
14.19167,67205
14.20000,67993
14.20833,68787
14.21667,69584
14.22500,70382
14.23333,71176
14.24167,71961
14.25000,72730
14.25833,73475
14.26667,74186
14.27500,74852
14.28333,75460
14.29167,75999
14.30000,76456
14.30833,76818
14.31667,77076
14.32500,77218
14.33333,77237
14.34167,77124
14.35000,76875
14.35833,76486
14.36667,75953
14.37500,75275
14.38333,74450
14.39167,73474
14.40000,72347
14.40833,71067
14.41667,69630
14.42500,68037
14.43333,66286
14.44167,64376
14.45000,62312
14.45833,60099
14.46667,57745
14.47500,55263
14.48333,52669
14.49167,49980
14.50000,47222
14.50833,44417
14.51667,41593
14.52500,38778
14.53333,35998
14.54167,33278
14.55000,30643
14.55833,28111
14.56667,25702
14.57500,23428
14.58333,21300
14.59167,19322
14.60000,17497
14.60833,15824
14.61667,14300
14.62500,12920
14.63333,11676
14.64167,10560
14.65000,9562
14.65833,8673
14.66667,7884
14.67500,7184
14.68333,6565
14.69167,6018
14.70000,5534
14.70833,5108
14.71667,4731
14.72500,4397
14.73333,4103
14.74167,3842
14.75000,3610
14.75833,3404
14.76667,3220
14.77500,3055
14.78333,2907
14.79167,2774
14.80000,2654
14.80833,2545
14.81667,2446
14.82500,2355
14.83333,2272
14.84167,2195
14.85000,2124
14.85833,2058
14.86667,1997
14.87500,1940
14.88333,1886
14.89167,1837
14.90000,1790
14.90833,1746
14.91667,1704
14.92500,1665
14.93333,1627
14.94167,1592
14.95000,1558
14.95833,1526
14.96667,1496
14.97500,1468
14.98333,1440
14.99167,1415
15.00000,1390
15.00833,1367
15.01667,1345
15.02500,1324
15.03333,1304
15.04167,1285
15.05000,1267
15.05833,1250
15.06667,1234
15.07500,1219
15.08333,1204
15.09167,1191
15.10000,1178
15.10833,1166
15.11667,1154
15.12500,1144
15.13333,1135
15.14167,1127
15.15000,1120
15.15833,1115
15.16667,1111
15.17500,1108
15.18333,1108
15.19167,1110
15.20000,1115
15.20833,1123
15.21667,1136
15.22500,1153
15.23333,1177
15.24167,1207
15.25000,1247
15.25833,1296
15.26667,1357
15.27500,1431
15.28333,1521
15.29167,1629
15.30000,1757
15.30833,1908
15.31667,2085
15.32500,2290
15.33333,2528
15.34167,2801
15.35000,3113
15.35833,3466
15.36667,3866
15.37500,4314
15.38333,4814
15.39167,5370
15.40000,5982
15.40833,6655
15.41667,7390
15.42500,8188
15.43333,9052
15.44167,9981
15.45000,10974
15.45833,12032
15.46667,13153
15.47500,14335
15.48333,15574
15.49167,16868
15.50000,18211
15.50833,19600
15.51667,21028
15.52500,22490
15.53333,23980
15.54167,25489
15.55000,27012
15.55833,28540
15.56667,30066
15.57500,31583
15.58333,33082
15.59167,34558
15.60000,36001
15.60833,37407
15.61667,38768
15.62500,40078
15.63333,41332
15.64167,42524
15.65000,43650
15.65833,44706
15.66667,45688
15.67500,46594
15.68333,47420
15.69167,48164
15.70000,48824
15.70833,49400
15.71667,49889
15.72500,50292
15.73333,50607
15.74167,50835
15.75000,50977
15.75833,51031
15.76667,50999
15.77500,50881
15.78333,50679
15.79167,50394
15.80000,50027
15.80833,49580
15.81667,49056
15.82500,48456
15.83333,47784
15.84167,47042
15.85000,46233
15.85833,45362
15.86667,44432
15.87500,43445
15.88333,42408
15.89167,41325
15.90000,40199
15.90833,39037
15.91667,37842
15.92500,36621
15.93333,35378
15.94167,34117
15.95000,32846
15.95833,31569
15.96667,30290
15.97500,29015
15.98333,27747
15.99167,26492
16.00000,25254
16.00833,24036
16.01667,22842
16.02500,21676
16.03333,20540
16.04167,19436
16.05000,18366
16.05833,17334
16.06667,16340
16.07500,15385
16.08333,14471
16.09167,13597
16.10000,12764
16.10833,11973
16.11667,11223
16.12500,10513
16.13333,9842
16.14167,9211
16.15000,8618
16.15833,8062
16.16667,7542
16.17500,7055
16.18333,6601
16.19167,6179
16.20000,5786
16.20833,5422
16.21667,5084
16.22500,4772
16.23333,4484
16.24167,4218
16.25000,3973
16.25833,3747
16.26667,3539
16.27500,3348
16.28333,3172
16.29167,3011
16.30000,2863
16.30833,2728
16.31667,2603
16.32500,2489
16.33333,2384
16.34167,2288
16.35000,2200
16.35833,2119
16.36667,2044
16.37500,1975
16.38333,1912
16.39167,1853
16.40000,1799
16.40833,1749
16.41667,1703
16.42500,1660
16.43333,1619
16.44167,1582
16.45000,1546
16.45833,1513
16.46667,1482
16.47500,1453
16.48333,1425
16.49167,1397
16.50000,1372
16.50833,1347
16.51667,1323
16.52500,1300
16.53333,1278
16.54167,1257
16.55000,1236
16.55833,1215
16.56667,1195
16.57500,1176
16.58333,1157
16.59167,1139
16.60000,1121
16.60833,1103
16.61667,1086
16.62500,1068
16.63333,1051
16.64167,1035
16.65000,1018
16.65833,1003
16.66667,987
16.67500,972
16.68333,957
16.69167,943
16.70000,928
16.70833,915
16.71667,902
16.72500,889
16.73333,876
16.74167,864
16.75000,853
16.75833,842
16.76667,831
16.77500,821
16.78333,812
16.79167,802
16.80000,794
16.80833,785
16.81667,777
16.82500,769
16.83333,762
16.84167,755
16.85000,748
16.85833,742
16.86667,736
16.87500,730
16.88333,725
16.89167,720
16.90000,715
16.90833,711
16.91667,706
16.92500,702
16.93333,698
16.94167,694
16.95000,691
16.95833,687
16.96667,684
16.97500,680
16.98333,677
16.99167,674
17.00000,671
17.00833,669
17.01667,666
17.02500,664
17.03333,661
17.04167,659
17.05000,657
17.05833,655
17.06667,653
17.07500,651
17.08333,649
17.09167,647
17.10000,645
17.10833,644
17.11667,642
17.12500,641
17.13333,639
17.14167,637
17.15000,636
17.15833,634
17.16667,633
17.17500,631
17.18333,630
17.19167,628
17.20000,627
17.20833,626
17.21667,624
17.22500,622
17.23333,621
17.24167,619
17.25000,618
17.25833,616
17.26667,615
17.27500,614
17.28333,612
17.29167,611
17.30000,610
17.30833,608
17.31667,607
17.32500,605
17.33333,604
17.34167,603
17.35000,602
17.35833,602
17.36667,601
17.37500,601
17.38333,601
17.39167,601
17.40000,601
17.40833,601
17.41667,602
17.42500,603
17.43333,604
17.44167,606
17.45000,607
17.45833,609
17.46667,612
17.47500,614
17.48333,617
17.49167,619
17.50000,622
17.50833,626
17.51667,630
17.52500,634
17.53333,639
17.54167,644
17.55000,648
17.55833,653
17.56667,658
17.57500,663
17.58333,669
17.59167,674
17.60000,680
17.60833,686
17.61667,691
17.62500,697
17.63333,703
17.64167,709
17.65000,715
17.65833,720
17.66667,726
17.67500,731
17.68333,736
17.69167,742
17.70000,747
17.70833,752
17.71667,757
17.72500,762
17.73333,766
17.74167,770
17.75000,774
17.75833,778
17.76667,781
17.77500,785
17.78333,788
17.79167,790
17.80000,793
17.80833,795
17.81667,797
17.82500,799
17.83333,800
17.84167,801
17.85000,801
17.85833,802
17.86667,801
17.87500,801
17.88333,799
17.89167,798
17.90000,796
17.90833,793
17.91667,791
17.92500,788
17.93333,785
17.94167,782
17.95000,778
17.95833,773
17.96667,768
17.97500,763
17.98333,758
17.99167,752
18.00000,746
18.00833,740
18.01667,733
18.02500,727
18.03333,720
18.04167,713
18.05000,706
18.05833,699
18.06667,691
18.07500,684
18.08333,677
18.09167,669
18.10000,661
18.10833,654
18.11667,646
18.12500,638
18.13333,631
18.14167,623
18.15000,616
18.15833,608
18.16667,601
18.17500,594
18.18333,586
18.19167,580
18.20000,573
18.20833,566
18.21667,559
18.22500,553
18.23333,546
18.24167,540
18.25000,534
18.25833,528
18.26667,523
18.27500,518
18.28333,513
18.29167,508
18.30000,504
18.30833,500
18.31667,496
18.32500,493
18.33333,489
18.34167,486
18.35000,483
18.35833,481
18.36667,479
18.37500,477
18.38333,475
18.39167,474
18.40000,473
18.40833,472
18.41667,471
18.42500,471
18.43333,471
18.44167,471
18.45000,471
18.45833,472
18.46667,473
18.47500,474
18.48333,476
18.49167,477
18.50000,479
18.50833,481
18.51667,483
18.52500,485
18.53333,488
18.54167,490
18.55000,493
18.55833,496
18.56667,499
18.57500,503
18.58333,506
18.59167,510
18.60000,514
18.60833,517
18.61667,521
18.62500,525
18.63333,529
18.64167,533
18.65000,538
18.65833,542
18.66667,547
18.67500,552
18.68333,557
18.69167,562
18.70000,567
18.70833,571
18.71667,576
18.72500,580
18.73333,585
18.74167,590
18.75000,595
18.75833,600
18.76667,605
18.77500,610
18.78333,615
18.79167,620
18.80000,625
18.80833,630
18.81667,634
18.82500,639
18.83333,644
18.84167,649
18.85000,653
18.85833,658
18.86667,663
18.87500,667
18.88333,672
18.89167,676
18.90000,680
18.90833,684
18.91667,688
18.92500,692
18.93333,696
18.94167,700
18.95000,704
18.95833,707
18.96667,711
18.97500,715
18.98333,718
18.99167,721
19.00000,724
19.00833,726
19.01667,729
19.02500,731
19.03333,733
19.04167,735
19.05000,738
19.05833,740
19.06667,741
19.07500,743
19.08333,744
19.09167,745
19.10000,746
19.10833,746
19.11667,746
19.12500,745
19.13333,745
19.14167,745
19.15000,744
19.15833,743
19.16667,741
19.17500,740
19.18333,738
19.19167,736
19.20000,733
19.20833,731
19.21667,728
19.22500,725
19.23333,722
19.24167,719
19.25000,716
19.25833,713
19.26667,710
19.27500,706
19.28333,702
19.29167,698
19.30000,693
19.30833,689
19.31667,685
19.32500,680
19.33333,676
19.34167,671
19.35000,666
19.35833,661
19.36667,656
19.37500,650
19.38333,644
19.39167,639
19.40000,633
19.40833,627
19.41667,621
19.42500,616
19.43333,611
19.44167,605
19.45000,599
19.45833,593
19.46667,587
19.47500,582
19.48333,576
19.49167,569
19.50000,564
19.50833,558
19.51667,552
19.52500,547
19.53333,541
19.54167,536
19.55000,531
19.55833,525
19.56667,520
19.57500,515
19.58333,510
19.59167,504
19.60000,499
19.60833,494
19.61667,489
19.62500,485
19.63333,480
19.64167,477
19.65000,473
19.65833,469
19.66667,466
19.67500,462
19.68333,459
19.69167,456
19.70000,454
19.70833,451
19.71667,449
19.72500,448
19.73333,446
19.74167,446
19.75000,445
19.75833,445
19.76667,445
19.77500,446
19.78333,446
19.79167,448
19.80000,449
19.80833,452
19.81667,455
19.82500,459
19.83333,463
19.84167,468
19.85000,473
19.85833,479
19.86667,485
19.87500,492
19.88333,500
19.89167,508
19.90000,517
19.90833,527
19.91667,537
19.92500,548
19.93333,559
19.94167,571
19.95000,583
19.95833,595
19.96667,608
19.97500,622
19.98333,636
19.99167,650
20.00000,665
20.00833,679
20.01667,693
20.02500,708
20.03333,723
20.04167,737
20.05000,752
20.05833,766
20.06667,782
20.07500,796
20.08333,811
20.09167,824
20.10000,838
20.10833,851
20.11667,863
20.12500,876
20.13333,888
20.14167,900
20.15000,911
20.15833,922
20.16667,932
20.17500,942
20.18333,951
20.19167,959
20.20000,966
20.20833,973
20.21667,980
20.22500,985
20.23333,990
20.24167,995
20.25000,998
20.25833,1001
20.26667,1003
20.27500,1005
20.28333,1006
20.29167,1006
20.30000,1005
20.30833,1004
20.31667,1003
20.32500,1000
20.33333,997
20.34167,993
20.35000,989
20.35833,984
20.36667,979
20.37500,973
20.38333,966
20.39167,959
20.40000,952
20.40833,944
20.41667,935
20.42500,926
20.43333,917
20.44167,907
20.45000,897
20.45833,887
20.46667,877
20.47500,866
20.48333,855
20.49167,843
20.50000,832
20.50833,820
20.51667,808
20.52500,796
20.53333,784
20.54167,773
20.55000,761
20.55833,750
20.56667,739
20.57500,728
20.58333,717
20.59167,707
20.60000,696
20.60833,686
20.61667,676
20.62500,667
20.63333,658
20.64167,649
20.65000,641
20.65833,633
20.66667,625
20.67500,618
20.68333,611
20.69167,604
20.70000,598
20.70833,592
20.71667,586
20.72500,581
20.73333,576
20.74167,571
20.75000,567
20.75833,564
20.76667,560
20.77500,557
20.78333,555
20.79167,552
20.80000,550
20.80833,548
20.81667,546
20.82500,545
20.83333,544
20.84167,543
20.85000,543
20.85833,543
20.86667,543
20.87500,543
20.88333,543
20.89167,543
20.90000,544
20.90833,545
20.91667,546
20.92500,547
20.93333,548
20.94167,550
20.95000,552
20.95833,554
20.96667,556
20.97500,558
20.98333,560
20.99167,563
21.00000,565
21.00833,568
21.01667,571
21.02500,574
21.03333,578
21.04167,581
21.05000,584
21.05833,588
21.06667,592
21.07500,597
21.08333,602
21.09167,607
21.10000,612
21.10833,618
21.11667,623
21.12500,630
21.13333,636
21.14167,642
21.15000,649
21.15833,655
21.16667,662
21.17500,669
21.18333,676
21.19167,683
21.20000,690
21.20833,697
21.21667,704
21.22500,711
21.23333,718
21.24167,726
21.25000,733
21.25833,741
21.26667,748
21.27500,755
21.28333,762
21.29167,769
21.30000,775
21.30833,782
21.31667,787
21.32500,793
21.33333,799
21.34167,804
21.35000,810
21.35833,815
21.36667,820
21.37500,826
21.38333,830
21.39167,835
21.40000,839
21.40833,844
21.41667,848
21.42500,853
21.43333,857
21.44167,861
21.45000,865
21.45833,870
21.46667,874
21.47500,878
21.48333,883
21.49167,888
21.50000,894
21.50833,899
21.51667,905
21.52500,911
21.53333,917
21.54167,923
21.55000,929
21.55833,935
21.56667,941
21.57500,948
21.58333,954
21.59167,960
21.60000,967
21.60833,974
21.61667,980
21.62500,986
21.63333,991
21.64167,997
21.65000,1002
21.65833,1007
21.66667,1013
21.67500,1017
21.68333,1021
21.69167,1025
21.70000,1029
21.70833,1032
21.71667,1034
21.72500,1036
21.73333,1038
21.74167,1039
21.75000,1040
21.75833,1040
21.76667,1040
21.77500,1039
21.78333,1038
21.79167,1037
21.80000,1035
21.80833,1034
21.81667,1031
21.82500,1029
21.83333,1026
21.84167,1022
21.85000,1019
21.85833,1015
21.86667,1010
21.87500,1006
21.88333,1001
21.89167,996
21.90000,991
21.90833,986
21.91667,980
21.92500,974
21.93333,968
21.94167,961
21.95000,954
21.95833,947
21.96667,939
21.97500,931
21.98333,922
21.99167,914
22.00000,905
22.00833,896
22.01667,887
22.02500,877
22.03333,867
22.04167,856
22.05000,844
22.05833,832
22.06667,821
22.07500,808
22.08333,795
22.09167,782
22.10000,769
22.10833,755
22.11667,741
22.12500,727
22.13333,713
22.14167,699
22.15000,684
22.15833,670
22.16667,655
22.17500,640
22.18333,625
22.19167,610
22.20000,596
22.20833,581
22.21667,567
22.22500,553
22.23333,539
22.24167,525
22.25000,512
22.25833,499
22.26667,486
22.27500,474
22.28333,462
22.29167,450
22.30000,438
22.30833,427
22.31667,417
22.32500,407
22.33333,397
22.34167,388
22.35000,379
22.35833,370
22.36667,363
22.37500,355
22.38333,348
22.39167,342
22.40000,335
22.40833,329
22.41667,324
22.42500,319
22.43333,314
22.44167,310
22.45000,306
22.45833,302
22.46667,298
22.47500,295
22.48333,292
22.49167,289
22.50000,286
22.50833,284
22.51667,281
22.52500,279
22.53333,277
22.54167,276
22.55000,275
22.55833,273
22.56667,272
22.57500,272
22.58333,272
22.59167,272
22.60000,271
22.60833,271
22.61667,271
22.62500,271
22.63333,271
22.64167,271
22.65000,271
22.65833,272
22.66667,272
22.67500,273
22.68333,273
22.69167,274
22.70000,274
22.70833,275
22.71667,276
22.72500,277
22.73333,278
22.74167,279
22.75000,279
22.75833,280
22.76667,281
22.77500,283
22.78333,284
22.79167,286
22.80000,287
22.80833,289
22.81667,290
22.82500,291
22.83333,293
22.84167,294
22.85000,295
22.85833,297
22.86667,298
22.87500,300
22.88333,301
22.89167,303
22.90000,304
22.90833,305
22.91667,307
22.92500,308
22.93333,309
22.94167,311
22.95000,312
22.95833,314
22.96667,315
22.97500,316
22.98333,317
22.99167,318
23.00000,319
23.00833,320
23.01667,321
23.02500,323
23.03333,324
23.04167,325
23.05000,326
23.05833,328
23.06667,329
23.07500,330
23.08333,331
23.09167,332
23.10000,333
23.10833,334
23.11667,335
23.12500,336
23.13333,337
23.14167,338
23.15000,339
23.15833,340
23.16667,340
23.17500,341
23.18333,341
23.19167,342
23.20000,342
23.20833,342
23.21667,342
23.22500,343
23.23333,344
23.24167,344
23.25000,344
23.25833,345
23.26667,345
23.27500,346
23.28333,346
23.29167,346
23.30000,346
23.30833,346
23.31667,346
23.32500,347
23.33333,347
23.34167,347
23.35000,348
23.35833,348
23.36667,348
23.37500,349
23.38333,349
23.39167,350
23.40000,350
23.40833,350
23.41667,351
23.42500,351
23.43333,351
23.44167,351
23.45000,351
23.45833,351
23.46667,352
23.47500,353
23.48333,353
23.49167,354
23.50000,354
23.50833,354
23.51667,354
23.52500,355
23.53333,355
23.54167,355
23.55000,356
23.55833,356
23.56667,356
23.57500,356
23.58333,356
23.59167,356
23.60000,356
23.60833,357
23.61667,357
23.62500,357
23.63333,357
23.64167,358
23.65000,358
23.65833,358
23.66667,358
23.67500,358
23.68333,358
23.69167,357
23.70000,357
23.70833,357
23.71667,357
23.72500,357
23.73333,357
23.74167,357
23.75000,356
23.75833,356
23.76667,355
23.77500,355
23.78333,354
23.79167,353
23.80000,353
23.80833,352
23.81667,352
23.82500,351
23.83333,351
23.84167,350
23.85000,350
23.85833,349
23.86667,348
23.87500,347
23.88333,347
23.89167,346
23.90000,345
23.90833,345
23.91667,344
23.92500,343
23.93333,342
23.94167,342
23.95000,341
23.95833,340
23.96667,339
23.97500,338
23.98333,337
23.99167,337
24.00000,335
24.00833,334
24.01667,334
24.02500,333
24.03333,332
24.04167,331
24.05000,331
24.05833,330
24.06667,329
24.07500,328
24.08333,327
24.09167,327
24.10000,326
24.10833,326
24.11667,326
24.12500,325
24.13333,324
24.14167,323
24.15000,322
24.15833,321
24.16667,321
24.17500,320
24.18333,320
24.19167,319
24.20000,319
24.20833,319
24.21667,318
24.22500,318
24.23333,318
24.24167,318
24.25000,318
24.25833,318
24.26667,318
24.27500,318
24.28333,318
24.29167,319
24.30000,319
24.30833,320
24.31667,320
24.32500,321
24.33333,323
24.34167,324
24.35000,327
24.35833,329
24.36667,332
24.37500,335
24.38333,338
24.39167,342
24.40000,347
24.40833,352
24.41667,358
24.42500,364
24.43333,372
24.44167,381
24.45000,391
24.45833,402
24.46667,414
24.47500,428
24.48333,443
24.49167,459
24.50000,477
24.50833,496
24.51667,518
24.52500,541
24.53333,567
24.54167,594
24.55000,623
24.55833,654
24.56667,688
24.57500,723
24.58333,762
24.59167,802
24.60000,844
24.60833,888
24.61667,935
24.62500,984
24.63333,1035
24.64167,1088
24.65000,1144
24.65833,1201
24.66667,1260
24.67500,1322
24.68333,1385
24.69167,1450
24.70000,1516
24.70833,1583
24.71667,1651
24.72500,1720
24.73333,1790
24.74167,1861
24.75000,1931
24.75833,2002
24.76667,2073
24.77500,2144
24.78333,2215
24.79167,2285
24.80000,2354
24.80833,2422
24.81667,2490
24.82500,2557
24.83333,2621
24.84167,2685
24.85000,2747
24.85833,2808
24.86667,2868
24.87500,2925
24.88333,2980
24.89167,3033
24.90000,3085
24.90833,3135
24.91667,3182
24.92500,3228
24.93333,3271
24.94167,3312
24.95000,3351
24.95833,3387
24.96667,3422
24.97500,3454
24.98333,3484
24.99167,3512
25.00000,3537
25.00833,3561
25.01667,3582
25.02500,3600
25.03333,3617
25.04167,3631
25.05000,3642
25.05833,3651
25.06667,3657
25.07500,3660
25.08333,3661
25.09167,3660
25.10000,3655
25.10833,3649
25.11667,3639
25.12500,3626
25.13333,3611
25.14167,3592
25.15000,3571
25.15833,3547
25.16667,3520
25.17500,3490
25.18333,3457
25.19167,3422
25.20000,3384
25.20833,3343
25.21667,3299
25.22500,3253
25.23333,3205
25.24167,3153
25.25000,3100
25.25833,3045
25.26667,2989
25.27500,2930
25.28333,2870
25.29167,2808
25.30000,2745
25.30833,2680
25.31667,2615
25.32500,2549
25.33333,2482
25.34167,2414
25.35000,2346
25.35833,2278
25.36667,2210
25.37500,2143
25.38333,2075
25.39167,2008
25.40000,1942
25.40833,1877
25.41667,1813
25.42500,1749
25.43333,1686
25.44167,1625
25.45000,1565
25.45833,1506
25.46667,1449
25.47500,1394
25.48333,1340
25.49167,1288
25.50000,1238
25.50833,1189
25.51667,1142
25.52500,1097
25.53333,1054
25.54167,1012
25.55000,973
25.55833,935
25.56667,898
25.57500,864
25.58333,831
25.59167,799
25.60000,770
25.60833,742
25.61667,715
25.62500,689
25.63333,665
25.64167,642
25.65000,620
25.65833,599
25.66667,580
25.67500,562
25.68333,545
25.69167,529
25.70000,514
25.70833,499
25.71667,486
25.72500,474
25.73333,462
25.74167,451
25.75000,440
25.75833,429
25.76667,420
25.77500,410
25.78333,402
25.79167,394
25.80000,386
25.80833,378
25.81667,371
25.82500,364
25.83333,358
25.84167,351
25.85000,345
25.85833,339
25.86667,334
25.87500,328
25.88333,323
25.89167,317
25.90000,312
25.90833,307
25.91667,302
25.92500,298
25.93333,293
25.94167,288
25.95000,283
25.95833,278
25.96667,273
25.97500,268
25.98333,263
25.99167,259
26.00000,254
26.00833,250
26.01667,245
26.02500,241
26.03333,237
26.04167,233
26.05000,229
26.05833,225
26.06667,220
26.07500,216
26.08333,212
26.09167,208
26.10000,204
26.10833,200
26.11667,196
26.12500,192
26.13333,188
26.14167,184
26.15000,180
26.15833,176
26.16667,172
26.17500,169
26.18333,165
26.19167,162
26.20000,159
26.20833,156
26.21667,153
26.22500,150
26.23333,148
26.24167,145
26.25000,142
26.25833,140
26.26667,137
26.27500,135
26.28333,132
26.29167,130
26.30000,128
26.30833,126
26.31667,124
26.32500,122
26.33333,121
26.34167,120
26.35000,118
26.35833,117
26.36667,115
26.37500,114
26.38333,113
26.39167,112
26.40000,111
26.40833,109
26.41667,108
26.42500,108
26.43333,107
26.44167,106
26.45000,106
26.45833,105
26.46667,105
26.47500,104
26.48333,104
26.49167,103
26.50000,103
26.50833,102
26.51667,102
26.52500,101
26.53333,101
26.54167,101
26.55000,100
26.55833,100
26.56667,100
26.57500,100
26.58333,100
26.59167,100
26.60000,100
26.60833,100
26.61667,100
26.62500,101
26.63333,100
26.64167,100
26.65000,100
26.65833,100
26.66667,100
26.67500,100
26.68333,100
26.69167,100
26.70000,100
26.70833,101
26.71667,100
26.72500,100
26.73333,100
26.74167,101
26.75000,101
26.75833,101
26.76667,101
26.77500,101
26.78333,101
26.79167,100
26.80000,100
26.80833,100
26.81667,100
26.82500,100
26.83333,100
26.84167,100
26.85000,100
26.85833,100
26.86667,100
26.87500,101
26.88333,101
26.89167,101
26.90000,102
26.90833,102
26.91667,101
26.92500,101
26.93333,102
26.94167,102
26.95000,102
26.95833,102
26.96667,102
26.97500,102
26.98333,102
26.99167,102
27.00000,103
27.00833,103
27.01667,103
27.02500,103
27.03333,103
27.04167,103
27.05000,103
27.05833,104
27.06667,104
27.07500,104
27.08333,103
27.09167,103
27.10000,104
27.10833,104
27.11667,103
27.12500,103
27.13333,103
27.14167,104
27.15000,104
27.15833,104
27.16667,104
27.17500,104
27.18333,105
27.19167,105
27.20000,104
27.20833,104
27.21667,104
27.22500,104
27.23333,104
27.24167,104
27.25000,104
27.25833,105
27.26667,105
27.27500,105
27.28333,106
27.29167,106
27.30000,106
27.30833,106
27.31667,106
27.32500,106
27.33333,106
27.34167,106
27.35000,106
27.35833,106
27.36667,106
27.37500,106
27.38333,106
27.39167,107
27.40000,107
27.40833,107
27.41667,107
27.42500,106
27.43333,106
27.44167,106
27.45000,106
27.45833,105
27.46667,105
27.47500,105
27.48333,105
27.49167,104
27.50000,104
27.50833,104
27.51667,104
27.52500,104
27.53333,103
27.54167,103
27.55000,103
27.55833,103
27.56667,102
27.57500,102
27.58333,102
27.59167,102
27.60000,101
27.60833,101
27.61667,100
27.62500,100
27.63333,99
27.64167,99
27.65000,98
27.65833,97
27.66667,97
27.67500,96
27.68333,96
27.69167,95
27.70000,94
27.70833,94
27.71667,94
27.72500,93
27.73333,92
27.74167,91
27.75000,90
27.75833,90
27.76667,90
27.77500,89
27.78333,89
27.79167,88
27.80000,87
27.80833,87
27.81667,86
27.82500,86
27.83333,85
27.84167,84
27.85000,84
27.85833,83
27.86667,82
27.87500,82
27.88333,82
27.89167,81
27.90000,81
27.90833,80
27.91667,80
27.92500,80
27.93333,79
27.94167,79
27.95000,78
27.95833,78
27.96667,77
27.97500,76
27.98333,76
27.99167,76
28.00000,75
28.00833,75
28.01667,75
28.02500,75
28.03333,75
28.04167,75
28.05000,75
28.05833,75
28.06667,74
28.07500,74
28.08333,74
28.09167,74
28.10000,74
28.10833,74
28.11667,74
28.12500,74
28.13333,74
28.14167,73
28.15000,73
28.15833,73
28.16667,73
28.17500,73
28.18333,73
28.19167,73
28.20000,73
28.20833,73
28.21667,73
28.22500,73
28.23333,73
28.24167,73
28.25000,74
28.25833,74
28.26667,74
28.27500,75
28.28333,75
28.29167,76
28.30000,76
28.30833,76
28.31667,77
28.32500,77
28.33333,78
28.34167,79
28.35000,80
28.35833,81
28.36667,83
28.37500,84
28.38333,86
28.39167,88
28.40000,90
28.40833,93
28.41667,96
28.42500,100
28.43333,103
28.44167,107
28.45000,112
28.45833,116
28.46667,122
28.47500,128
28.48333,135
28.49167,143
28.50000,151
28.50833,159
28.51667,169
28.52500,179
28.53333,191
28.54167,204
28.55000,217
28.55833,231
28.56667,246
28.57500,263
28.58333,280
28.59167,299
28.60000,319
28.60833,341
28.61667,364
28.62500,388
28.63333,414
28.64167,442
28.65000,470
28.65833,500
28.66667,531
28.67500,564
28.68333,598
28.69167,634
28.70000,671
28.70833,709
28.71667,749
28.72500,790
28.73333,833
28.74167,877
28.75000,922
28.75833,968
28.76667,1015
28.77500,1063
28.78333,1112
28.79167,1162
28.80000,1213
28.80833,1264
28.81667,1316
28.82500,1369
28.83333,1422
28.84167,1475
28.85000,1527
28.85833,1581
28.86667,1634
28.87500,1686
28.88333,1738
28.89167,1790
28.90000,1842
28.90833,1893
28.91667,1943
28.92500,1993
28.93333,2042
28.94167,2090
28.95000,2136
28.95833,2181
28.96667,2226
28.97500,2268
28.98333,2310
28.99167,2350
29.00000,2388
29.00833,2426
29.01667,2461
29.02500,2495
29.03333,2527
29.04167,2558
29.05000,2587
29.05833,2614
29.06667,2640
29.07500,2664
29.08333,2687
29.09167,2708
29.10000,2728
29.10833,2746
29.11667,2763
29.12500,2778
29.13333,2791
29.14167,2803
29.15000,2814
29.15833,2822
29.16667,2830
29.17500,2835
29.18333,2840
29.19167,2843
29.20000,2845
29.20833,2846
29.21667,2845
29.22500,2842
29.23333,2838
29.24167,2833
29.25000,2826
29.25833,2818
29.26667,2809
29.27500,2798
29.28333,2786
29.29167,2772
29.30000,2757
29.30833,2741
29.31667,2723
29.32500,2703
29.33333,2682
29.34167,2660
29.35000,2636
29.35833,2611
29.36667,2585
29.37500,2557
29.38333,2528
29.39167,2497
29.40000,2464
29.40833,2431
29.41667,2396
29.42500,2360
29.43333,2323
29.44167,2285
29.45000,2245
29.45833,2205
29.46667,2163
29.47500,2121
29.48333,2078
29.49167,2034
29.50000,1990
29.50833,1945
29.51667,1900
29.52500,1853
29.53333,1807
29.54167,1760
29.55000,1712
29.55833,1665
29.56667,1617
29.57500,1569
29.58333,1521
29.59167,1474
29.60000,1427
29.60833,1380
29.61667,1334
29.62500,1288
29.63333,1243
29.64167,1199
29.65000,1155
29.65833,1112
29.66667,1069
29.67500,1027
29.68333,987
29.69167,947
29.70000,907
29.70833,869
29.71667,832
29.72500,796
29.73333,762
29.74167,728
29.75000,695
29.75833,664
29.76667,633
29.77500,603
29.78333,575
29.79167,548
29.80000,522
29.80833,496
29.81667,472
29.82500,449
29.83333,428
29.84167,407
29.85000,387
29.85833,368
29.86667,349
29.87500,332
29.88333,316
29.89167,301
29.90000,286
29.90833,272
29.91667,259
29.92500,247
29.93333,235
29.94167,224
29.95000,214
29.95833,204
29.96667,195
29.97500,186
29.98333,178
29.99167,171
30.00000,164
30.00833,158
30.01667,152
30.02500,147
30.03333,142
30.04167,137
30.05000,133
30.05833,128
30.06667,124
30.07500,120
30.08333,116
30.09167,113
30.10000,110
30.10833,108
30.11667,105
30.12500,103
30.13333,101
30.14167,98
30.15000,97
30.15833,95
30.16667,93
30.17500,92
30.18333,90
30.19167,89
30.20000,88
30.20833,87
30.21667,86
30.22500,85
30.23333,84
30.24167,84
30.25000,83
30.25833,82
30.26667,81
30.27500,80
30.28333,80
30.29167,79
30.30000,79
30.30833,79
30.31667,79
30.32500,79
30.33333,78
30.34167,78
30.35000,78
30.35833,78
30.36667,78
30.37500,78
30.38333,79
30.39167,79
30.40000,79
30.40833,79
30.41667,80
30.42500,80
30.43333,81
30.44167,81
30.45000,81
30.45833,82
30.46667,82
30.47500,82
30.48333,82
30.49167,83
30.50000,84
30.50833,84
30.51667,85
30.52500,86
30.53333,87
30.54167,89
30.55000,90
30.55833,91
30.56667,92
30.57500,93
30.58333,94
30.59167,95
30.60000,96
30.60833,98
30.61667,99
30.62500,100
30.63333,101
30.64167,103
30.65000,104
30.65833,105
30.66667,107
30.67500,109
30.68333,111
30.69167,112
30.70000,114
30.70833,115
30.71667,117
30.72500,119
30.73333,120
30.74167,121
30.75000,123
30.75833,125
30.76667,126
30.77500,128
30.78333,130
30.79167,132
30.80000,133
30.80833,135
30.81667,136
30.82500,138
30.83333,139
30.84167,140
30.85000,142
30.85833,143
30.86667,145
30.87500,147
30.88333,149
30.89167,150
30.90000,152
30.90833,153
30.91667,155
30.92500,156
30.93333,157
30.94167,158
30.95000,159
30.95833,160
30.96667,161
30.97500,162
30.98333,163
30.99167,164
31.00000,165
31.00833,166
31.01667,166
31.02500,167
31.03333,168
31.04167,168
31.05000,169
31.05833,170
31.06667,170
31.07500,170
31.08333,170
31.09167,171
31.10000,171
31.10833,171
31.11667,171
31.12500,171
31.13333,172
31.14167,172
31.15000,172
31.15833,172
31.16667,171
31.17500,171
31.18333,170
31.19167,170
31.20000,170
31.20833,169
31.21667,169
31.22500,168
31.23333,167
31.24167,167
31.25000,166
31.25833,165
31.26667,164
31.27500,163
31.28333,163
31.29167,162
31.30000,161
31.30833,160
31.31667,158
31.32500,157
31.33333,156
31.34167,155
31.35000,153
31.35833,152
31.36667,150
31.37500,149
31.38333,147
31.39167,146
31.40000,144
31.40833,143
31.41667,142
31.42500,141
31.43333,139
31.44167,138
31.45000,136
31.45833,135
31.46667,133
31.47500,132
31.48333,130
31.49167,129
31.50000,127
31.50833,126
31.51667,124
31.52500,123
31.53333,122
31.54167,121
31.55000,120
31.55833,119
31.56667,117
31.57500,116
31.58333,115
31.59167,113
31.60000,112
31.60833,112
31.61667,111
31.62500,111
31.63333,110
31.64167,109
31.65000,109
31.65833,109
31.66667,108
31.67500,109
31.68333,109
31.69167,109
31.70000,109
31.70833,110
31.71667,110
31.72500,111
31.73333,111
31.74167,112
31.75000,114
31.75833,115
31.76667,117
31.77500,119
31.78333,122
31.79167,124
31.80000,126
31.80833,129
31.81667,132
31.82500,135
31.83333,138
31.84167,141
31.85000,145
31.85833,149
31.86667,153
31.87500,157
31.88333,161
31.89167,165
31.90000,169
31.90833,174
31.91667,179
31.92500,185
31.93333,190
31.94167,195
31.95000,201
31.95833,207
31.96667,213
31.97500,219
31.98333,225
31.99167,231
32.00000,237
32.00833,244
32.01667,250
32.02500,257
32.03333,263
32.04167,270
32.05000,277
32.05833,283
32.06667,290
32.07500,296
32.08333,302
32.09167,309
32.10000,315
32.10833,322
32.11667,328
32.12500,334
32.13333,340
32.14167,346
32.15000,352
32.15833,358
32.16667,365
32.17500,370
32.18333,376
32.19167,381
32.20000,387
32.20833,392
32.21667,397
32.22500,401
32.23333,406
32.24167,411
32.25000,415
32.25833,419
32.26667,424
32.27500,428
32.28333,433
32.29167,437
32.30000,441
32.30833,445
32.31667,448
32.32500,452
32.33333,456
32.34167,459
32.35000,463
32.35833,465
32.36667,468
32.37500,471
32.38333,473
32.39167,476
32.40000,478
32.40833,480
32.41667,482
32.42500,484
32.43333,486
32.44167,487
32.45000,488
32.45833,490
32.46667,491
32.47500,492
32.48333,493
32.49167,494
32.50000,495
32.50833,495
32.51667,495
32.52500,495
32.53333,494
32.54167,493
32.55000,492
32.55833,491
32.56667,490
32.57500,489
32.58333,488
32.59167,487
32.60000,485
32.60833,483
32.61667,482
32.62500,479
32.63333,477
32.64167,474
32.65000,472
32.65833,469
32.66667,467
32.67500,464
32.68333,461
32.69167,458
32.70000,455
32.70833,451
32.71667,448
32.72500,444
32.73333,441
32.74167,437
32.75000,434
32.75833,431
32.76667,427
32.77500,424
32.78333,420
32.79167,417
32.80000,413
32.80833,410
32.81667,406
32.82500,402
32.83333,398
32.84167,394
32.85000,390
32.85833,387
32.86667,383
32.87500,379
32.88333,376
32.89167,373
32.90000,370
32.90833,366
32.91667,364
32.92500,361
32.93333,358
32.94167,356
32.95000,353
32.95833,350
32.96667,348
32.97500,346
32.98333,344
32.99167,342
33.00000,339
33.00833,337
33.01667,335
33.02500,333
33.03333,331
33.04167,329
33.05000,328
33.05833,326
33.06667,324
33.07500,322
33.08333,321
33.09167,319
33.10000,317
33.10833,315
33.11667,314
33.12500,313
33.13333,311
33.14167,309
33.15000,308
33.15833,306
33.16667,304
33.17500,302
33.18333,300
33.19167,299
33.20000,296
33.20833,294
33.21667,293
33.22500,291
33.23333,289
33.24167,287
33.25000,285
33.25833,283
33.26667,282
33.27500,280
33.28333,277
33.29167,275
33.30000,272
33.30833,270
33.31667,267
33.32500,264
33.33333,261
33.34167,259
33.35000,256
33.35833,254
33.36667,252
33.37500,249
33.38333,246
33.39167,243
33.40000,240
33.40833,237
33.41667,234
33.42500,231
33.43333,228
33.44167,225
33.45000,221
33.45833,218
33.46667,215
33.47500,211
33.48333,208
33.49167,204
33.50000,201
33.50833,197
33.51667,194
33.52500,191
33.53333,187
33.54167,183
33.55000,179
33.55833,176
33.56667,172
33.57500,168
33.58333,163
33.59167,159
33.60000,156
33.60833,152
33.61667,148
33.62500,144
33.63333,141
33.64167,137
33.65000,133
33.65833,130
33.66667,126
33.67500,122
33.68333,119
33.69167,115
33.70000,112
33.70833,109
33.71667,106
33.72500,102
33.73333,99
33.74167,95
33.75000,91
33.75833,88
33.76667,84
33.77500,81
33.78333,78
33.79167,74
33.80000,71
33.80833,68
33.81667,65
33.82500,62
33.83333,59
33.84167,56
33.85000,53
33.85833,50
33.86667,47
33.87500,44
33.88333,42
33.89167,39
33.90000,37
33.90833,34
33.91667,32
33.92500,30
33.93333,28
33.94167,25
33.95000,23
33.95833,21
33.96667,20
33.97500,18
33.98333,17
33.99167,15
34.00000,14
34.00833,12
34.01667,10
34.02500,9
34.03333,7
34.04167,6
34.05000,4
34.05833,4
34.06667,3
34.07500,2
34.08333,1
34.09167,0
34.10000,-0
34.10833,-1
34.11667,-2
34.12500,-3
34.13333,-3
34.14167,-4
34.15000,-5
34.15833,-6
34.16667,-7
34.17500,-8
34.18333,-8
34.19167,-9
34.20000,-9
34.20833,-10
34.21667,-10
34.22500,-10
34.23333,-10
34.24167,-10
34.25000,-10
34.25833,-10
34.26667,-11
34.27500,-11
34.28333,-12
34.29167,-12
34.30000,-12
34.30833,-12
34.31667,-12
34.32500,-12
34.33333,-13
34.34167,-13
34.35000,-13
34.35833,-13
34.36667,-13
34.37500,-13
34.38333,-14
34.39167,-14
34.40000,-15
34.40833,-15
34.41667,-15
34.42500,-15
34.43333,-15
34.44167,-15
34.45000,-16
34.45833,-16
34.46667,-16
34.47500,-16
34.48333,-16
34.49167,-16
34.50000,-17
34.50833,-17
34.51667,-17
34.52500,-17
34.53333,-17
34.54167,-17
34.55000,-17
34.55833,-17
34.56667,-18
34.57500,-18
34.58333,-18
34.59167,-18
34.60000,-18
34.60833,-19
34.61667,-19
34.62500,-20
34.63333,-20
34.64167,-20
34.65000,-21
34.65833,-21
34.66667,-21
34.67500,-21
34.68333,-21
34.69167,-21
34.70000,-22
34.70833,-22
34.71667,-22
34.72500,-22
34.73333,-22
34.74167,-23
34.75000,-23
34.75833,-23
34.76667,-24
34.77500,-24
34.78333,-24
34.79167,-24
34.80000,-24
34.80833,-24
34.81667,-24
34.82500,-24
34.83333,-24
34.84167,-24
34.85000,-24
34.85833,-25
34.86667,-25
34.87500,-25
34.88333,-25
34.89167,-25
34.90000,-25
34.90833,-24
34.91667,-24
34.92500,-25
34.93333,-25
34.94167,-25
34.95000,-24
34.95833,-25
34.96667,-25
34.97500,-25
34.98333,-25
34.99167,-24
35.00000,-24
35.00833,-24
35.01667,-23
35.02500,-23
35.03333,-23
35.04167,-22
35.05000,-22
35.05833,-22
35.06667,-21
35.07500,-21
35.08333,-20
35.09167,-19
35.10000,-19
35.10833,-18
35.11667,-18
35.12500,-17
35.13333,-17
35.14167,-17
35.15000,-16
35.15833,-15
35.16667,-14
35.17500,-13
35.18333,-12
35.19167,-11
35.20000,-10
35.20833,-9
35.21667,-8
35.22500,-7
35.23333,-6
35.24167,-5
35.25000,-4
35.25833,-3
35.26667,-2
35.27500,-1
35.28333,-0
35.29167,1
35.30000,2
35.30833,4
35.31667,5
35.32500,7
35.33333,8
35.34167,10
35.35000,11
35.35833,13
35.36667,14
35.37500,15
35.38333,16
35.39167,18
35.40000,19
35.40833,21
35.41667,22
35.42500,23
35.43333,25
35.44167,26
35.45000,27
35.45833,28
35.46667,30
35.47500,31
35.48333,33
35.49167,34
35.50000,36
35.50833,37
35.51667,38
35.52500,39
35.53333,40
35.54167,42
35.55000,43
35.55833,44
35.56667,45
35.57500,46
35.58333,47
35.59167,48
35.60000,49
35.60833,50
35.61667,52
35.62500,52
35.63333,53
35.64167,54
35.65000,55
35.65833,56
35.66667,56
35.67500,57
35.68333,58
35.69167,58
35.70000,59
35.70833,60
35.71667,60
35.72500,61
35.73333,61
35.74167,62
35.75000,63
35.75833,64
35.76667,64
35.77500,65
35.78333,65
35.79167,65
35.80000,65
35.80833,65
35.81667,65
35.82500,65
35.83333,66
35.84167,66
35.85000,66
35.85833,67
35.86667,67
35.87500,67
35.88333,67
35.89167,67
35.90000,68
35.90833,68
35.91667,68
35.92500,68
35.93333,68
35.94167,68
35.95000,68
35.95833,68
35.96667,68
35.97500,67
35.98333,67
35.99167,66
36.00000,66
36.00833,65
36.01667,65
36.02500,65
36.03333,65
36.04167,65
36.05000,65
36.05833,65
36.06667,64
36.07500,64
36.08333,63
36.09167,63
36.10000,63
36.10833,62
36.11667,61
36.12500,60
36.13333,60
36.14167,59
36.15000,58
36.15833,57
36.16667,56
36.17500,55
36.18333,55
36.19167,54
36.20000,53
36.20833,53
36.21667,52
36.22500,51
36.23333,50
36.24167,49
36.25000,48
36.25833,47
36.26667,46
36.27500,45
36.28333,44
36.29167,43
36.30000,42
36.30833,42
36.31667,41
36.32500,40
36.33333,39
36.34167,39
36.35000,38
36.35833,37
36.36667,36
36.37500,35
36.38333,35
36.39167,34
36.40000,33
36.40833,32
36.41667,32
36.42500,31
36.43333,30
36.44167,30
36.45000,29
36.45833,28
36.46667,28
36.47500,28
36.48333,27
36.49167,26
36.50000,26
36.50833,26
36.51667,25
36.52500,25
36.53333,25
36.54167,25
36.55000,24
36.55833,24
36.56667,23
36.57500,23
36.58333,23
36.59167,23
36.60000,22
36.60833,22
36.61667,21
36.62500,21
36.63333,21
36.64167,21
36.65000,21
36.65833,22
36.66667,22
36.67500,22
36.68333,22
36.69167,23
36.70000,23
36.70833,23
36.71667,23
36.72500,23
36.73333,23
36.74167,24
36.75000,24
36.75833,24
36.76667,25
36.77500,25
36.78333,26
36.79167,26
36.80000,27
36.80833,27
36.81667,27
36.82500,28
36.83333,28
36.84167,28
36.85000,29
36.85833,29
36.86667,30
36.87500,30
36.88333,31
36.89167,31
36.90000,32
36.90833,33
36.91667,33
36.92500,34
36.93333,35
36.94167,36
36.95000,36
36.95833,37
36.96667,38
36.97500,38
36.98333,39
36.99167,39
37.00000,40
37.00833,41
37.01667,41
37.02500,42
37.03333,42
37.04167,43
37.05000,44
37.05833,45
37.06667,46
37.07500,47
37.08333,48
37.09167,48
37.10000,49
37.10833,50
37.11667,51
37.12500,52
37.13333,53
37.14167,54
37.15000,55
37.15833,56
37.16667,57
37.17500,57
37.18333,58
37.19167,60
37.20000,61
37.20833,62
37.21667,63
37.22500,64
37.23333,66
37.24167,67
37.25000,68
37.25833,69
37.26667,70
37.27500,71
37.28333,72
37.29167,73
37.30000,74
37.30833,75
37.31667,76
37.32500,77
37.33333,78
37.34167,79
37.35000,80
37.35833,81
37.36667,82
37.37500,83
37.38333,84
37.39167,86
37.40000,87
37.40833,88
37.41667,89
37.42500,90
37.43333,91
37.44167,92
37.45000,93
37.45833,94
37.46667,95
37.47500,96
37.48333,97
37.49167,98
37.50000,99
37.50833,100
37.51667,101
37.52500,102
37.53333,102
37.54167,103
37.55000,104
37.55833,105
37.56667,106
37.57500,107
37.58333,107
37.59167,108
37.60000,109
37.60833,110
37.61667,111
37.62500,112
37.63333,112
37.64167,113
37.65000,114
37.65833,115
37.66667,115
37.67500,116
37.68333,116
37.69167,117
37.70000,118
37.70833,118
37.71667,118
37.72500,119
37.73333,119
37.74167,119
37.75000,119
37.75833,120
37.76667,120
37.77500,120
37.78333,120
37.79167,120
37.80000,120
37.80833,120
37.81667,121
37.82500,121
37.83333,122
37.84167,122
37.85000,122
37.85833,122
37.86667,122
37.87500,121
37.88333,121
37.89167,121
37.90000,121
37.90833,120
37.91667,120
37.92500,119
37.93333,119
37.94167,118
37.95000,117
37.95833,117
37.96667,116
37.97500,115
37.98333,114
37.99167,114
38.00000,113
38.00833,113
38.01667,112
38.02500,111
38.03333,111
38.04167,110
38.05000,109
38.05833,108
38.06667,107
38.07500,107
38.08333,106
38.09167,105
38.10000,104
38.10833,103
38.11667,102
38.12500,101
38.13333,100
38.14167,99
38.15000,97
38.15833,96
38.16667,94
38.17500,93
38.18333,91
38.19167,90
38.20000,89
38.20833,88
38.21667,87
38.22500,86
38.23333,84
38.24167,83
38.25000,82
38.25833,80
38.26667,79
38.27500,77
38.28333,76
38.29167,74
38.30000,73
38.30833,71
38.31667,70
38.32500,69
38.33333,67
38.34167,66
38.35000,64
38.35833,63
38.36667,61
38.37500,60
38.38333,59
38.39167,57
38.40000,55
38.40833,54
38.41667,52
38.42500,50
38.43333,49
38.44167,47
38.45000,45
38.45833,44
38.46667,42
38.47500,41
38.48333,39
38.49167,37
38.50000,36
38.50833,34
38.51667,33
38.52500,31
38.53333,30
38.54167,28
38.55000,27
38.55833,25
38.56667,24
38.57500,23
38.58333,21
38.59167,20
38.60000,19
38.60833,17
38.61667,15
38.62500,13
38.63333,12
38.64167,10
38.65000,9
38.65833,7
38.66667,6
38.67500,5
38.68333,4
38.69167,3
38.70000,1
38.70833,0
38.71667,-1
38.72500,-2
38.73333,-4
38.74167,-5
38.75000,-6
38.75833,-7
38.76667,-8
38.77500,-10
38.78333,-11
38.79167,-13
38.80000,-14
38.80833,-15
38.81667,-16
38.82500,-17
38.83333,-18
38.84167,-19
38.85000,-19
38.85833,-20
38.86667,-21
38.87500,-22
38.88333,-24
38.89167,-25
38.90000,-26
38.90833,-27
38.91667,-27
38.92500,-28
38.93333,-29
38.94167,-30
38.95000,-30
38.95833,-31
38.96667,-31
38.97500,-32
38.98333,-32
38.99167,-33
39.00000,-33
39.00833,-34
39.01667,-35
39.02500,-35
39.03333,-36
39.04167,-37
39.05000,-37
39.05833,-38
39.06667,-39
39.07500,-40
39.08333,-40
39.09167,-40
39.10000,-41
39.10833,-41
39.11667,-42
39.12500,-42
39.13333,-42
39.14167,-43
39.15000,-43
39.15833,-43
39.16667,-44
39.17500,-44
39.18333,-45
39.19167,-46
39.20000,-47
39.20833,-47
39.21667,-47
39.22500,-47
39.23333,-48
39.24167,-48
39.25000,-48
39.25833,-48
39.26667,-48
39.27500,-48
39.28333,-48
39.29167,-49
39.30000,-49
39.30833,-49
39.31667,-49
39.32500,-50
39.33333,-50
39.34167,-51
39.35000,-51
39.35833,-52
39.36667,-52
39.37500,-52
39.38333,-53
39.39167,-53
39.40000,-53
39.40833,-53
39.41667,-54
39.42500,-54
39.43333,-54
39.44167,-54
39.45000,-54
39.45833,-54
39.46667,-54
39.47500,-54
39.48333,-55
39.49167,-55
39.50000,-55
39.50833,-55
39.51667,-55
39.52500,-55
39.53333,-55
39.54167,-55
39.55000,-55
39.55833,-56
39.56667,-56
39.57500,-57
39.58333,-57
39.59167,-57
39.60000,-57
39.60833,-57
39.61667,-57
39.62500,-57
39.63333,-58
39.64167,-58
39.65000,-59
39.65833,-59
39.66667,-59
39.67500,-59
39.68333,-59
39.69167,-59
39.70000,-59
39.70833,-59
39.71667,-59
39.72500,-59
39.73333,-59
39.74167,-59
39.75000,-59
39.75833,-59
39.76667,-59
39.77500,-59
39.78333,-59
39.79167,-60
39.80000,-60
39.80833,-60
39.81667,-59
39.82500,-59
39.83333,-59
39.84167,-59
39.85000,-59
39.85833,-60
39.86667,-60
39.87500,-60
39.88333,-60
39.89167,-61
39.90000,-61
39.90833,-60
39.91667,-61
39.92500,-61
39.93333,-61
39.94167,-61
39.95000,-62
39.95833,-61
39.96667,-61
39.97500,-61
39.98333,-61
39.99167,-61
40.00000,-61
40.00833,-62
40.01667,-62
40.02500,-62
40.03333,-62
40.04167,-62
40.05000,-62
40.05833,-62
40.06667,-61
40.07500,-62
40.08333,-62
40.09167,-62
40.10000,-62
40.10833,-62
40.11667,-62
40.12500,-62
40.13333,-62
40.14167,-63
40.15000,-63
40.15833,-63
40.16667,-63
40.17500,-63
40.18333,-63
40.19167,-64
40.20000,-64
40.20833,-64
40.21667,-64
40.22500,-64
40.23333,-64
40.24167,-63
40.25000,-63
40.25833,-63
40.26667,-62
40.27500,-62
40.28333,-62
40.29167,-61
40.30000,-61
40.30833,-61
40.31667,-62
40.32500,-62
40.33333,-62
40.34167,-62
40.35000,-62
40.35833,-62
40.36667,-62
40.37500,-61
40.38333,-61
40.39167,-61
40.40000,-60
40.40833,-60
40.41667,-59
40.42500,-59
40.43333,-59
40.44167,-59
40.45000,-59
40.45833,-59
40.46667,-59
40.47500,-58
40.48333,-58
40.49167,-58
40.50000,-57
40.50833,-57
40.51667,-57
40.52500,-56
40.53333,-56
40.54167,-56
40.55000,-55
40.55833,-54
40.56667,-54
40.57500,-53
40.58333,-53
40.59167,-53
40.60000,-52
40.60833,-52
40.61667,-51
40.62500,-50
40.63333,-50
40.64167,-49
40.65000,-49
40.65833,-48
40.66667,-48
40.67500,-47
40.68333,-46
40.69167,-46
40.70000,-45
40.70833,-45
40.71667,-44
40.72500,-43
40.73333,-42
40.74167,-42
40.75000,-41
40.75833,-40
40.76667,-39
40.77500,-38
40.78333,-37
40.79167,-37
40.80000,-36
40.80833,-35
40.81667,-34
40.82500,-33
40.83333,-32
40.84167,-31
40.85000,-30
40.85833,-30
40.86667,-29
40.87500,-28
40.88333,-27
40.89167,-26
40.90000,-25
40.90833,-23
40.91667,-22
40.92500,-21
40.93333,-20
40.94167,-19
40.95000,-17
40.95833,-16
40.96667,-15
40.97500,-14
40.98333,-12
40.99167,-11
41.00000,-10
41.00833,-9
41.01667,-7
41.02500,-6
41.03333,-4
41.04167,-3
41.05000,-2
41.05833,-1
41.06667,1
41.07500,2
41.08333,3
41.09167,5
41.10000,6
41.10833,7
41.11667,8
41.12500,9
41.13333,11
41.14167,12
41.15000,13
41.15833,14
41.16667,16
41.17500,17
41.18333,18
41.19167,19
41.20000,21
41.20833,22
41.21667,23
41.22500,24
41.23333,25
41.24167,27
41.25000,28
41.25833,29
41.26667,31
41.27500,33
41.28333,34
41.29167,36
41.30000,37
41.30833,39
41.31667,40
41.32500,41
41.33333,43
41.34167,44
41.35000,46
41.35833,47
41.36667,49
41.37500,51
41.38333,52
41.39167,53
41.40000,54
41.40833,56
41.41667,57
41.42500,58
41.43333,60
41.44167,61
41.45000,62
41.45833,63
41.46667,64
41.47500,66
41.48333,67
41.49167,69
41.50000,70
41.50833,72
41.51667,74
41.52500,75
41.53333,77
41.54167,78
41.55000,79
41.55833,80
41.56667,81
41.57500,83
41.58333,84
41.59167,85
41.60000,86
41.60833,87
41.61667,89
41.62500,90
41.63333,91
41.64167,92
41.65000,93
41.65833,94
41.66667,95
41.67500,96
41.68333,97
41.69167,98
41.70000,99
41.70833,101
41.71667,102
41.72500,104
41.73333,105
41.74167,106
41.75000,107
41.75833,108
41.76667,109
41.77500,110
41.78333,110
41.79167,111
41.80000,112
41.80833,113
41.81667,113
41.82500,114
41.83333,114
41.84167,115
41.85000,115
41.85833,116
41.86667,117
41.87500,118
41.88333,118
41.89167,119
41.90000,120
41.90833,120
41.91667,121
41.92500,121
41.93333,121
41.94167,121
41.95000,121
41.95833,122
41.96667,122
41.97500,123
41.98333,123
41.99167,124
42.00000,124
42.00833,124
42.01667,124
42.02500,125
42.03333,125
42.04167,126
42.05000,126
42.05833,127
42.06667,127
42.07500,127
42.08333,127
42.09167,127
42.10000,127
42.10833,127
42.11667,127
42.12500,128
42.13333,128
42.14167,128
42.15000,128
42.15833,128
42.16667,128
42.17500,128
42.18333,128
42.19167,127
42.20000,127
42.20833,127
42.21667,127
42.22500,127
42.23333,127
42.24167,127
42.25000,127
42.25833,127
42.26667,127
42.27500,126
42.28333,126
42.29167,126
42.30000,125
42.30833,125
42.31667,124
42.32500,124
42.33333,125
42.34167,124
42.35000,124
42.35833,123
42.36667,123
42.37500,123
42.38333,123
42.39167,122
42.40000,122
42.40833,121
42.41667,121
42.42500,120
42.43333,119
42.44167,119
42.45000,118
42.45833,118
42.46667,117
42.47500,117
42.48333,116
42.49167,115
42.50000,114
42.50833,114
42.51667,113
42.52500,113
42.53333,112
42.54167,112
42.55000,111
42.55833,111
42.56667,109
42.57500,109
42.58333,108
42.59167,108
42.60000,107
42.60833,106
42.61667,106
42.62500,105
42.63333,104
42.64167,103
42.65000,102
42.65833,102
42.66667,101
42.67500,100
42.68333,99
42.69167,98
42.70000,97
42.70833,96
42.71667,95
42.72500,95
42.73333,94
42.74167,93
42.75000,92
42.75833,91
42.76667,90
42.77500,89
42.78333,89
42.79167,88
42.80000,87
42.80833,86
42.81667,86
42.82500,85
42.83333,84
42.84167,83
42.85000,82
42.85833,81
42.86667,80
42.87500,79
42.88333,78
42.89167,77
42.90000,76
42.90833,75
42.91667,75
42.92500,74
42.93333,73
42.94167,72
42.95000,71
42.95833,71
42.96667,70
42.97500,69
42.98333,68
42.99167,68
43.00000,67
43.00833,66
43.01667,65
43.02500,64
43.03333,63
43.04167,63
43.05000,62
43.05833,61
43.06667,61
43.07500,60
43.08333,59
43.09167,58
43.10000,57
43.10833,56
43.11667,55
43.12500,54
43.13333,53
43.14167,52
43.15000,51
43.15833,51
43.16667,50
43.17500,49
43.18333,48
43.19167,47
43.20000,47
43.20833,46
43.21667,45
43.22500,45
43.23333,45
43.24167,44
43.25000,43
43.25833,42
43.26667,41
43.27500,40
43.28333,39
43.29167,38
43.30000,38
43.30833,37
43.31667,36
43.32500,36
43.33333,34
43.34167,34
43.35000,33
43.35833,33
43.36667,32
43.37500,31
43.38333,31
43.39167,30
43.40000,29
43.40833,29
43.41667,28
43.42500,27
43.43333,27
43.44167,26
43.45000,25
43.45833,25
43.46667,24
43.47500,23
43.48333,23
43.49167,22
43.50000,21
43.50833,21
43.51667,20
43.52500,19
43.53333,19
43.54167,18
43.55000,17
43.55833,16
43.56667,16
43.57500,15
43.58333,14
43.59167,13
43.60000,13
43.60833,12
43.61667,12
43.62500,11
43.63333,10
43.64167,10
43.65000,9
43.65833,9
43.66667,8
43.67500,8
43.68333,7
43.69167,6
43.70000,6
43.70833,5
43.71667,5
43.72500,4
43.73333,4
43.74167,3
43.75000,3
43.75833,2
43.76667,2
43.77500,1
43.78333,0
43.79167,-1
43.80000,-2
43.80833,-2
43.81667,-3
43.82500,-3
43.83333,-4
43.84167,-4
43.85000,-5
43.85833,-5
43.86667,-6
43.87500,-6
43.88333,-7
43.89167,-7
43.90000,-8
43.90833,-8
43.91667,-9
43.92500,-9
43.93333,-9
43.94167,-10
43.95000,-11
43.95833,-12
43.96667,-12
43.97500,-13
43.98333,-14
43.99167,-14
44.00000,-15
44.00833,-15
44.01667,-16
44.02500,-17
44.03333,-17
44.04167,-17
44.05000,-18
44.05833,-18
44.06667,-19
44.07500,-20
44.08333,-20
44.09167,-21
44.10000,-21
44.10833,-22
44.11667,-22
44.12500,-23
44.13333,-23
44.14167,-23
44.15000,-23
44.15833,-24
44.16667,-24
44.17500,-25
44.18333,-25
44.19167,-26
44.20000,-26
44.20833,-27
44.21667,-27
44.22500,-28
44.23333,-28
44.24167,-29
44.25000,-29
44.25833,-29
44.26667,-29
44.27500,-30
44.28333,-30
44.29167,-31
44.30000,-31
44.30833,-32
44.31667,-32
44.32500,-33
44.33333,-33
44.34167,-34
44.35000,-34
44.35833,-35
44.36667,-35
44.37500,-35
44.38333,-36
44.39167,-36
44.40000,-36
44.40833,-37
44.41667,-37
44.42500,-38
44.43333,-38
44.44167,-38
44.45000,-38
44.45833,-39
44.46667,-39
44.47500,-40
44.48333,-40
44.49167,-41
44.50000,-41
44.50833,-42
44.51667,-42
44.52500,-43
44.53333,-43
44.54167,-43
44.55000,-43
44.55833,-44
44.56667,-44
44.57500,-44
44.58333,-45
44.59167,-45
44.60000,-45
44.60833,-46
44.61667,-46
44.62500,-46
44.63333,-47
44.64167,-47
44.65000,-47
44.65833,-47
44.66667,-48
44.67500,-48
44.68333,-48
44.69167,-49
44.70000,-48
44.70833,-49
44.71667,-49
44.72500,-49
44.73333,-49
44.74167,-49
44.75000,-50
44.75833,-50
44.76667,-50
44.77500,-50
44.78333,-51
44.79167,-51
44.80000,-51
44.80833,-51
44.81667,-51
44.82500,-52
44.83333,-52
44.84167,-52
44.85000,-52
44.85833,-52
44.86667,-52
44.87500,-53
44.88333,-53
44.89167,-53
44.90000,-53
44.90833,-53
44.91667,-53
44.92500,-53
44.93333,-53
44.94167,-53
44.95000,-54
44.95833,-54
44.96667,-54
44.97500,-54
44.98333,-55
44.99167,-56
45.00000,-56
45.00833,-56
45.01667,-56
45.02500,-56
45.03333,-57
45.04167,-57
45.05000,-57
45.05833,-57
45.06667,-57
45.07500,-57
45.08333,-57
45.09167,-57
45.10000,-57
45.10833,-57
45.11667,-57
45.12500,-57
45.13333,-57
45.14167,-57
45.15000,-57
45.15833,-57
45.16667,-57
45.17500,-57
45.18333,-57
45.19167,-57
45.20000,-57
45.20833,-57
45.21667,-57
45.22500,-57
45.23333,-57
45.24167,-57
45.25000,-57
45.25833,-57
45.26667,-58
45.27500,-58
45.28333,-57
45.29167,-57
45.30000,-57
45.30833,-57
45.31667,-57
45.32500,-58
45.33333,-58
45.34167,-58
45.35000,-58
45.35833,-58
45.36667,-58
45.37500,-58
45.38333,-58
45.39167,-58
45.40000,-58
45.40833,-58
45.41667,-58
45.42500,-58
45.43333,-58
45.44167,-58
45.45000,-58
45.45833,-58
45.46667,-58
45.47500,-58
45.48333,-58
45.49167,-58
45.50000,-58
45.50833,-58
45.51667,-58
45.52500,-58
45.53333,-58
45.54167,-59
45.55000,-59
45.55833,-59
45.56667,-59
45.57500,-59
45.58333,-59
45.59167,-59
45.60000,-59
45.60833,-58
45.61667,-59
45.62500,-59
45.63333,-58
45.64167,-58
45.65000,-58
45.65833,-58
45.66667,-59
45.67500,-59
45.68333,-59
45.69167,-59
45.70000,-60
45.70833,-60
45.71667,-60
45.72500,-60
45.73333,-60
45.74167,-60
45.75000,-60
45.75833,-61
45.76667,-60
45.77500,-61
45.78333,-61
45.79167,-61
45.80000,-61
45.80833,-61
45.81667,-61
45.82500,-61
45.83333,-61
45.84167,-61
45.85000,-61
45.85833,-60
45.86667,-60
45.87500,-60
45.88333,-60
45.89167,-60
45.90000,-60
45.90833,-60
45.91667,-60
45.92500,-61
45.93333,-61
45.94167,-61
45.95000,-61
45.95833,-61
45.96667,-62
45.97500,-62
45.98333,-63
45.99167,-63
46.00000,-63
46.00833,-63
46.01667,-64
46.02500,-64
46.03333,-64
46.04167,-64
46.05000,-64
46.05833,-64
46.06667,-64
46.07500,-64
46.08333,-64
46.09167,-64
46.10000,-64
46.10833,-64
46.11667,-64
46.12500,-65
46.13333,-65
46.14167,-65
46.15000,-66
46.15833,-66
46.16667,-67
46.17500,-67
46.18333,-67
46.19167,-67
46.20000,-67
46.20833,-67
46.21667,-67
46.22500,-68
46.23333,-68
46.24167,-68
46.25000,-69
46.25833,-69
46.26667,-69
46.27500,-69
46.28333,-69
46.29167,-69
46.30000,-69
46.30833,-69
46.31667,-69
46.32500,-70
46.33333,-70
46.34167,-70
46.35000,-71
46.35833,-71
46.36667,-71
46.37500,-72
46.38333,-72
46.39167,-72
46.40000,-72
46.40833,-72
46.41667,-72
46.42500,-72
46.43333,-72
46.44167,-72
46.45000,-72
46.45833,-72
46.46667,-73
46.47500,-73
46.48333,-74
46.49167,-74
46.50000,-75
46.50833,-75
46.51667,-75
46.52500,-76
46.53333,-76
46.54167,-76
46.55000,-76
46.55833,-76
46.56667,-77
46.57500,-77
46.58333,-77
46.59167,-78
46.60000,-78
46.60833,-78
46.61667,-78
46.62500,-78
46.63333,-78
46.64167,-78
46.65000,-78
46.65833,-79
46.66667,-79
46.67500,-79
46.68333,-80
46.69167,-80
46.70000,-80
46.70833,-80
46.71667,-80
46.72500,-80
46.73333,-80
46.74167,-81
46.75000,-81
46.75833,-81
46.76667,-81
46.77500,-81
46.78333,-82
46.79167,-82
46.80000,-82
46.80833,-82
46.81667,-82
46.82500,-82
46.83333,-83
46.84167,-83
46.85000,-83
46.85833,-83
46.86667,-83
46.87500,-83
46.88333,-83
46.89167,-83
46.90000,-83
46.90833,-83
46.91667,-83
46.92500,-83
46.93333,-83
46.94167,-83
46.95000,-83
46.95833,-83
46.96667,-83
46.97500,-82
46.98333,-82
46.99167,-82
47.00000,-82
47.00833,-82
47.01667,-82
47.02500,-83
47.03333,-83
47.04167,-83
47.05000,-83
47.05833,-83
47.06667,-83
47.07500,-82
47.08333,-82
47.09167,-81
47.10000,-81
47.10833,-81
47.11667,-82
47.12500,-82
47.13333,-82
47.14167,-82
47.15000,-82
47.15833,-82
47.16667,-81
47.17500,-81
47.18333,-81
47.19167,-80
47.20000,-80
47.20833,-80
47.21667,-79
47.22500,-79
47.23333,-79
47.24167,-79
47.25000,-78
47.25833,-78
47.26667,-78
47.27500,-77
47.28333,-77
47.29167,-76
47.30000,-76
47.30833,-75
47.31667,-75
47.32500,-74
47.33333,-74
47.34167,-73
47.35000,-73
47.35833,-72
47.36667,-72
47.37500,-71
47.38333,-71
47.39167,-70
47.40000,-70
47.40833,-69
47.41667,-69
47.42500,-68
47.43333,-68
47.44167,-67
47.45000,-66
47.45833,-65
47.46667,-64
47.47500,-64
47.48333,-63
47.49167,-62
47.50000,-61
47.50833,-61
47.51667,-60
47.52500,-59
47.53333,-59
47.54167,-58
47.55000,-56
47.55833,-55
47.56667,-54
47.57500,-54
47.58333,-53
47.59167,-52
47.60000,-52
47.60833,-51
47.61667,-50
47.62500,-49
47.63333,-48
47.64167,-47
47.65000,-46
47.65833,-45
47.66667,-44
47.67500,-43
47.68333,-42
47.69167,-42
47.70000,-41
47.70833,-40
47.71667,-39
47.72500,-39
47.73333,-38
47.74167,-38
47.75000,-37
47.75833,-36
47.76667,-35
47.77500,-34
47.78333,-33
47.79167,-33
47.80000,-32
47.80833,-31
47.81667,-30
47.82500,-30
47.83333,-29
47.84167,-28
47.85000,-27
47.85833,-26
47.86667,-25
47.87500,-24
47.88333,-23
47.89167,-22
47.90000,-22
47.90833,-21
47.91667,-20
47.92500,-20
47.93333,-20
47.94167,-19
47.95000,-19
47.95833,-18
47.96667,-18
47.97500,-17
47.98333,-16
47.99167,-15
48.00000,-14
48.00833,-14
48.01667,-13
48.02500,-12
48.03333,-12
48.04167,-12
48.05000,-11
48.05833,-11
48.06667,-10
48.07500,-9
48.08333,-9
48.09167,-9
48.10000,-9
48.10833,-9
48.11667,-8
48.12500,-8
48.13333,-7
48.14167,-6
48.15000,-5
48.15833,-5
48.16667,-5
48.17500,-5
48.18333,-4
48.19167,-4
48.20000,-4
48.20833,-3
48.21667,-3
48.22500,-2
48.23333,-2
48.24167,-1
48.25000,-1
48.25833,-1
48.26667,-1
48.27500,-1
48.28333,-1
48.29167,-1
48.30000,-0
48.30833,-0
48.31667,0
48.32500,1
48.33333,1
48.34167,1
48.35000,1
48.35833,1
48.36667,1
48.37500,1
48.38333,1
48.39167,2
48.40000,2
48.40833,2
48.41667,3
48.42500,3
48.43333,3
48.44167,3
48.45000,3
48.45833,3
48.46667,3
48.47500,3
48.48333,3
48.49167,3
48.50000,4
48.50833,4
48.51667,4
48.52500,5
48.53333,5
48.54167,5
48.55000,5
48.55833,5
48.56667,5
48.57500,5
48.58333,5
48.59167,5
48.60000,5
48.60833,5
48.61667,5
48.62500,5
48.63333,5
48.64167,6
48.65000,6
48.65833,6
48.66667,6
48.67500,6
48.68333,5
48.69167,5
48.70000,5
48.70833,5
48.71667,5
48.72500,5
48.73333,5
48.74167,6
48.75000,6
48.75833,5
48.76667,6
48.77500,6
48.78333,6
48.79167,6
48.80000,6
48.80833,6
48.81667,6
48.82500,6
48.83333,6
48.84167,6
48.85000,6
48.85833,7
48.86667,7
48.87500,7
48.88333,7
48.89167,7
48.90000,7
48.90833,7
48.91667,7
48.92500,7
48.93333,7
48.94167,8
48.95000,8
48.95833,8
48.96667,8
48.97500,8
48.98333,8
48.99167,8
49.00000,8
49.00833,8
49.01667,8
49.02500,9
49.03333,8
49.04167,8
49.05000,8
49.05833,8
49.06667,8
49.07500,8
49.08333,8
49.09167,8
49.10000,8
49.10833,8
49.11667,8
49.12500,8
49.13333,9
49.14167,9
49.15000,9
49.15833,9
49.16667,9
49.17500,9
49.18333,9
49.19167,9
49.20000,9
49.20833,9
49.21667,8
49.22500,8
49.23333,8
49.24167,8
49.25000,8
49.25833,8
49.26667,8
49.27500,8
49.28333,8
49.29167,8
49.30000,8
49.30833,8
49.31667,7
49.32500,7
49.33333,8
49.34167,8
49.35000,8
49.35833,8
49.36667,8
49.37500,8
49.38333,8
49.39167,8
49.40000,8
49.40833,8
49.41667,8
49.42500,7
49.43333,7
49.44167,7
49.45000,7
49.45833,7
49.46667,6
49.47500,6
49.48333,6
49.49167,6
49.50000,5
49.50833,5
49.51667,5
49.52500,4
49.53333,4
49.54167,4
49.55000,4
49.55833,4
49.56667,4
49.57500,4
49.58333,4
49.59167,3
49.60000,3
49.60833,3
49.61667,2
49.62500,2
49.63333,1
49.64167,0
49.65000,0
49.65833,0
49.66667,0
49.67500,-0
49.68333,-0
49.69167,-1
49.70000,-1
49.70833,-2
49.71667,-3
49.72500,-3
49.73333,-4
49.74167,-4
49.75000,-5
49.75833,-5
49.76667,-5
49.77500,-5
49.78333,-5
49.79167,-6
49.80000,-7
49.80833,-7
49.81667,-8
49.82500,-8
49.83333,-9
49.84167,-9
49.85000,-10
49.85833,-10
49.86667,-11
49.87500,-12
49.88333,-12
49.89167,-13
49.90000,-13
49.90833,-13
49.91667,-14
49.92500,-15
49.93333,-16
49.94167,-16
49.95000,-17
49.95833,-18
49.96667,-19
49.97500,-20
49.98333,-20
49.99167,-21
50.00000,-21

