[Header]
Application Name,LabSolutions
Version,5.97 SP1
Data File Name,C:\Users\cremerlab\Desktop\Richa\Oct_18th_2022_yield_expt\Oct 18th 2022 yield expt_10182022_001_008.lcd
Output Date,10/18/2022
Output Time,11:33:42 PM

[File Information]
Type,Data File
Generated,10/18/2022 10:43:22 PM
Generated by,System Administrator
Modified,10/18/2022 11:33:42 PM
Modified by,System Administrator

[Sample Information]
Operator Name,System Administrator
Acquired,10/18/2022 10:43:40 PM
Sample Type,0:Unknown
Level,0
Sample Name,101822_BF_3
Sample ID,001
ISTD Amount1,1
ISTD Amount2,1
ISTD Amount3,1
ISTD Amount4,1
ISTD Amount5,1
ISTD Amount6,1
ISTD Amount7,1
ISTD Amount8,1
ISTD Amount9,1
ISTD Amount10,1
ISTD Amount11,1
ISTD Amount12,1
ISTD Amount13,1
ISTD Amount14,1
ISTD Amount15,1
ISTD Amount16,1
ISTD Amount17,1
ISTD Amount18,1
ISTD Amount19,1
ISTD Amount20,1
ISTD Amount21,1
ISTD Amount22,1
ISTD Amount23,1
ISTD Amount24,1
ISTD Amount25,1
ISTD Amount26,1
ISTD Amount27,1
ISTD Amount28,1
ISTD Amount29,1
ISTD Amount30,1
ISTD Amount31,1
ISTD Amount32,1
Sample Amount,1
Dilution Factor,1
Vial#,7
Injection Volume,20

[Original Files]
Data File,C:\Users\cremerlab\Desktop\Richa\Oct_18th_2022_yield_expt\Oct 18th 2022 yield expt_10182022_001_008.lcd
Method File,C:\Users\cremerlab\Desktop\Richa\acetate_excretion.lcm
Batch File,C:\Users\cremerlab\Desktop\Richa\Oct_18th_2022_yield_expt\Oct 18th 2022 yield expt.lcb
Report Format File,c:\LabSolutions\System\DEFAULT.lsr

[File Description]


[Configuration]
Instrument Name,HPLC-PC-Instrument1
Instrument #,1
Line #,1
# of Detectors,2
Detector ID,Detector A,Detector B
Detector Name,Detector A,Detector B
# of Channels,1,1

[Peak Table(Detector A)]
# of Peaks,0

[Peak Table(Detector B)]
# of Peaks,8
Peak#,R.Time,I.Time,F.Time,Area,Height,A/H,Conc.,Mark,ID#,Name,k',Plate #,Plate Ht.,Tailing,Resolution,Sep.Factor,Area Ratio,Height Ratio,Conc. %,Norm Conc.
1,11.029,10.558,12.633,2215932,114640,19.329,0.000,   ,,,0.000,7758,19.335,0.921,0.000,0.000,0,0,0.000,0.000
2,14.353,12.633,15.192,3718754,78143,47.589,0.000, V ,,,0.301,2445,61.358,0.652,4.000,0.000,0,0,0.000,0.000
3,15.772,15.192,18.425,1511167,50289,30.050,0.000, V ,,,0.430,6757,22.200,1.147,1.471,1.427,0,0,0.000,0.000
4,21.636,20.583,22.467,13164,253,52.082,0.000,   ,,,0.962,3938,38.088,0.854,5.463,2.236,0,0,0.000,0.000
5,23.108,22.567,23.775,7038,202,34.806,0.000,   ,,,1.095,9431,15.906,1.044,1.263,1.139,0,0,0.000,0.000
6,25.086,24.292,26.108,147816,3703,39.917,0.000,   ,,,1.274,9148,16.397,1.046,1.977,1.164,0,0,0.000,0.000
7,29.275,28.100,30.650,25063,340,73.823,0.000,   ,,,1.654,3665,40.929,1.064,2.808,1.298,0,0,0.000,0.000
8,32.370,30.775,33.308,29058,436,66.627,0.000,   ,,,1.935,7154,20.966,0.776,1.786,1.170,0,0,0.000,0.000

[LC Chromatogram(Detector B-Ch1)]
Interval(msec),500
# of Points,6001
Start Time(min),0.000
End Time(min),50.000
Intensity Units,mV
Intensity Multiplier,0.001
R.Time (min),Intensity
0.00000,1
0.00833,1
0.01667,0
0.02500,0
0.03333,0
0.04167,0
0.05000,0
0.05833,1
0.06667,1
0.07500,1
0.08333,1
0.09167,1
0.10000,2
0.10833,2
0.11667,1
0.12500,1
0.13333,1
0.14167,1
0.15000,1
0.15833,2
0.16667,2
0.17500,2
0.18333,2
0.19167,1
0.20000,1
0.20833,1
0.21667,2
0.22500,2
0.23333,2
0.24167,1
0.25000,1
0.25833,1
0.26667,1
0.27500,1
0.28333,1
0.29167,1
0.30000,1
0.30833,1
0.31667,1
0.32500,1
0.33333,0
0.34167,0
0.35000,0
0.35833,0
0.36667,1
0.37500,1
0.38333,1
0.39167,1
0.40000,1
0.40833,1
0.41667,1
0.42500,1
0.43333,1
0.44167,0
0.45000,0
0.45833,0
0.46667,0
0.47500,-0
0.48333,-0
0.49167,0
0.50000,0
0.50833,1
0.51667,1
0.52500,1
0.53333,1
0.54167,1
0.55000,1
0.55833,1
0.56667,1
0.57500,1
0.58333,1
0.59167,1
0.60000,1
0.60833,2
0.61667,2
0.62500,2
0.63333,1
0.64167,1
0.65000,1
0.65833,1
0.66667,1
0.67500,1
0.68333,1
0.69167,1
0.70000,1
0.70833,0
0.71667,0
0.72500,0
0.73333,0
0.74167,-0
0.75000,-0
0.75833,-0
0.76667,-0
0.77500,-0
0.78333,-1
0.79167,-1
0.80000,-0
0.80833,-0
0.81667,0
0.82500,-0
0.83333,-0
0.84167,-1
0.85000,-1
0.85833,-1
0.86667,-1
0.87500,-1
0.88333,-1
0.89167,-1
0.90000,-1
0.90833,-1
0.91667,-1
0.92500,-1
0.93333,-1
0.94167,-1
0.95000,-1
0.95833,-1
0.96667,-1
0.97500,-2
0.98333,-2
0.99167,-2
1.00000,-2
1.00833,-2
1.01667,-2
1.02500,-1
1.03333,-1
1.04167,-1
1.05000,-1
1.05833,-1
1.06667,-1
1.07500,-1
1.08333,-1
1.09167,-1
1.10000,-1
1.10833,-1
1.11667,-1
1.12500,-1
1.13333,-1
1.14167,-1
1.15000,-1
1.15833,-2
1.16667,-2
1.17500,-2
1.18333,-1
1.19167,-2
1.20000,-2
1.20833,-2
1.21667,-3
1.22500,-3
1.23333,-3
1.24167,-3
1.25000,-3
1.25833,-3
1.26667,-3
1.27500,-3
1.28333,-3
1.29167,-3
1.30000,-3
1.30833,-3
1.31667,-3
1.32500,-3
1.33333,-3
1.34167,-3
1.35000,-3
1.35833,-3
1.36667,-4
1.37500,-4
1.38333,-4
1.39167,-4
1.40000,-4
1.40833,-4
1.41667,-5
1.42500,-5
1.43333,-5
1.44167,-5
1.45000,-5
1.45833,-5
1.46667,-5
1.47500,-5
1.48333,-5
1.49167,-5
1.50000,-5
1.50833,-6
1.51667,-6
1.52500,-6
1.53333,-6
1.54167,-6
1.55000,-5
1.55833,-5
1.56667,-5
1.57500,-6
1.58333,-6
1.59167,-5
1.60000,-5
1.60833,-5
1.61667,-5
1.62500,-6
1.63333,-6
1.64167,-6
1.65000,-6
1.65833,-6
1.66667,-6
1.67500,-6
1.68333,-6
1.69167,-6
1.70000,-6
1.70833,-7
1.71667,-7
1.72500,-7
1.73333,-6
1.74167,-6
1.75000,-6
1.75833,-6
1.76667,-7
1.77500,-7
1.78333,-7
1.79167,-7
1.80000,-7
1.80833,-7
1.81667,-7
1.82500,-6
1.83333,-6
1.84167,-6
1.85000,-7
1.85833,-7
1.86667,-6
1.87500,-6
1.88333,-6
1.89167,-6
1.90000,-6
1.90833,-5
1.91667,-5
1.92500,-5
1.93333,-5
1.94167,-5
1.95000,-5
1.95833,-5
1.96667,-5
1.97500,-5
1.98333,-6
1.99167,-6
2.00000,-6
2.00833,-6
2.01667,-6
2.02500,-6
2.03333,-6
2.04167,-5
2.05000,-5
2.05833,-5
2.06667,-5
2.07500,-6
2.08333,-6
2.09167,-6
2.10000,-6
2.10833,-6
2.11667,-6
2.12500,-6
2.13333,-6
2.14167,-6
2.15000,-6
2.15833,-7
2.16667,-7
2.17500,-6
2.18333,-6
2.19167,-6
2.20000,-6
2.20833,-6
2.21667,-7
2.22500,-7
2.23333,-6
2.24167,-6
2.25000,-6
2.25833,-5
2.26667,-5
2.27500,-6
2.28333,-6
2.29167,-6
2.30000,-6
2.30833,-7
2.31667,-7
2.32500,-7
2.33333,-7
2.34167,-7
2.35000,-7
2.35833,-7
2.36667,-7
2.37500,-7
2.38333,-7
2.39167,-7
2.40000,-7
2.40833,-6
2.41667,-6
2.42500,-6
2.43333,-5
2.44167,-5
2.45000,-5
2.45833,-5
2.46667,-5
2.47500,-5
2.48333,-5
2.49167,-5
2.50000,-6
2.50833,-6
2.51667,-6
2.52500,-6
2.53333,-6
2.54167,-6
2.55000,-7
2.55833,-7
2.56667,-7
2.57500,-7
2.58333,-7
2.59167,-7
2.60000,-7
2.60833,-7
2.61667,-6
2.62500,-6
2.63333,-6
2.64167,-6
2.65000,-6
2.65833,-6
2.66667,-6
2.67500,-7
2.68333,-7
2.69167,-6
2.70000,-6
2.70833,-6
2.71667,-6
2.72500,-6
2.73333,-6
2.74167,-6
2.75000,-6
2.75833,-6
2.76667,-6
2.77500,-6
2.78333,-6
2.79167,-6
2.80000,-6
2.80833,-6
2.81667,-6
2.82500,-6
2.83333,-6
2.84167,-6
2.85000,-6
2.85833,-7
2.86667,-7
2.87500,-7
2.88333,-7
2.89167,-7
2.90000,-7
2.90833,-7
2.91667,-7
2.92500,-7
2.93333,-7
2.94167,-7
2.95000,-6
2.95833,-7
2.96667,-7
2.97500,-7
2.98333,-7
2.99167,-7
3.00000,-7
3.00833,-8
3.01667,-8
3.02500,-8
3.03333,-8
3.04167,-8
3.05000,-8
3.05833,-8
3.06667,-8
3.07500,-8
3.08333,-7
3.09167,-7
3.10000,-7
3.10833,-7
3.11667,-7
3.12500,-7
3.13333,-7
3.14167,-7
3.15000,-7
3.15833,-6
3.16667,-6
3.17500,-6
3.18333,-6
3.19167,-6
3.20000,-6
3.20833,-6
3.21667,-6
3.22500,-6
3.23333,-6
3.24167,-6
3.25000,-6
3.25833,-7
3.26667,-7
3.27500,-7
3.28333,-7
3.29167,-7
3.30000,-7
3.30833,-7
3.31667,-7
3.32500,-7
3.33333,-6
3.34167,-6
3.35000,-7
3.35833,-7
3.36667,-6
3.37500,-6
3.38333,-6
3.39167,-6
3.40000,-6
3.40833,-6
3.41667,-6
3.42500,-6
3.43333,-5
3.44167,-5
3.45000,-5
3.45833,-5
3.46667,-5
3.47500,-6
3.48333,-6
3.49167,-6
3.50000,-6
3.50833,-6
3.51667,-6
3.52500,-6
3.53333,-7
3.54167,-7
3.55000,-7
3.55833,-7
3.56667,-8
3.57500,-7
3.58333,-7
3.59167,-8
3.60000,-8
3.60833,-7
3.61667,-7
3.62500,-7
3.63333,-7
3.64167,-7
3.65000,-7
3.65833,-7
3.66667,-7
3.67500,-6
3.68333,-6
3.69167,-6
3.70000,-6
3.70833,-6
3.71667,-6
3.72500,-6
3.73333,-6
3.74167,-6
3.75000,-6
3.75833,-5
3.76667,-5
3.77500,-6
3.78333,-6
3.79167,-6
3.80000,-6
3.80833,-6
3.81667,-6
3.82500,-6
3.83333,-6
3.84167,-6
3.85000,-6
3.85833,-5
3.86667,-5
3.87500,-5
3.88333,-5
3.89167,-5
3.90000,-5
3.90833,-6
3.91667,-7
3.92500,-7
3.93333,-7
3.94167,-7
3.95000,-7
3.95833,-7
3.96667,-7
3.97500,-7
3.98333,-7
3.99167,-7
4.00000,-7
4.00833,-7
4.01667,-7
4.02500,-7
4.03333,-7
4.04167,-7
4.05000,-7
4.05833,-7
4.06667,-7
4.07500,-6
4.08333,-6
4.09167,-6
4.10000,-6
4.10833,-6
4.11667,-6
4.12500,-6
4.13333,-6
4.14167,-6
4.15000,-6
4.15833,-7
4.16667,-7
4.17500,-7
4.18333,-7
4.19167,-7
4.20000,-7
4.20833,-7
4.21667,-7
4.22500,-7
4.23333,-7
4.24167,-7
4.25000,-7
4.25833,-6
4.26667,-6
4.27500,-6
4.28333,-6
4.29167,-6
4.30000,-6
4.30833,-6
4.31667,-6
4.32500,-6
4.33333,-6
4.34167,-7
4.35000,-7
4.35833,-7
4.36667,-7
4.37500,-8
4.38333,-8
4.39167,-8
4.40000,-8
4.40833,-8
4.41667,-7
4.42500,-7
4.43333,-7
4.44167,-7
4.45000,-7
4.45833,-7
4.46667,-7
4.47500,-7
4.48333,-7
4.49167,-8
4.50000,-7
4.50833,-7
4.51667,-7
4.52500,-7
4.53333,-7
4.54167,-7
4.55000,-7
4.55833,-7
4.56667,-7
4.57500,-7
4.58333,-7
4.59167,-7
4.60000,-7
4.60833,-7
4.61667,-7
4.62500,-6
4.63333,-6
4.64167,-6
4.65000,-7
4.65833,-7
4.66667,-8
4.67500,-8
4.68333,-8
4.69167,-8
4.70000,-7
4.70833,-7
4.71667,-7
4.72500,-7
4.73333,-7
4.74167,-7
4.75000,-8
4.75833,-8
4.76667,-8
4.77500,-8
4.78333,-8
4.79167,-8
4.80000,-8
4.80833,-8
4.81667,-8
4.82500,-8
4.83333,-8
4.84167,-8
4.85000,-8
4.85833,-7
4.86667,-7
4.87500,-7
4.88333,-7
4.89167,-7
4.90000,-7
4.90833,-7
4.91667,-7
4.92500,-7
4.93333,-7
4.94167,-7
4.95000,-7
4.95833,-7
4.96667,-7
4.97500,-7
4.98333,-7
4.99167,-8
5.00000,-8
5.00833,-8
5.01667,-8
5.02500,-8
5.03333,-8
5.04167,-8
5.05000,-8
5.05833,-8
5.06667,-7
5.07500,-7
5.08333,-7
5.09167,-7
5.10000,-7
5.10833,-8
5.11667,-8
5.12500,-8
5.13333,-7
5.14167,-7
5.15000,-8
5.15833,-8
5.16667,-8
5.17500,-8
5.18333,-8
5.19167,-8
5.20000,-8
5.20833,-8
5.21667,-8
5.22500,-8
5.23333,-8
5.24167,-8
5.25000,-8
5.25833,-8
5.26667,-9
5.27500,-9
5.28333,-8
5.29167,-8
5.30000,-8
5.30833,-8
5.31667,-8
5.32500,-8
5.33333,-7
5.34167,-7
5.35000,-8
5.35833,-8
5.36667,-8
5.37500,-8
5.38333,-8
5.39167,-8
5.40000,-8
5.40833,-7
5.41667,-7
5.42500,-8
5.43333,-8
5.44167,-8
5.45000,-8
5.45833,-8
5.46667,-8
5.47500,-8
5.48333,-8
5.49167,-8
5.50000,-8
5.50833,-8
5.51667,-8
5.52500,-8
5.53333,-8
5.54167,-8
5.55000,-8
5.55833,-8
5.56667,-8
5.57500,-8
5.58333,-8
5.59167,-8
5.60000,-8
5.60833,-8
5.61667,-9
5.62500,-8
5.63333,-8
5.64167,-8
5.65000,-8
5.65833,-8
5.66667,-8
5.67500,-8
5.68333,-8
5.69167,-8
5.70000,-8
5.70833,-8
5.71667,-8
5.72500,-8
5.73333,-7
5.74167,-8
5.75000,-8
5.75833,-8
5.76667,-8
5.77500,-8
5.78333,-8
5.79167,-8
5.80000,-7
5.80833,-7
5.81667,-8
5.82500,-8
5.83333,-8
5.84167,-7
5.85000,-7
5.85833,-8
5.86667,-8
5.87500,-8
5.88333,-7
5.89167,-7
5.90000,-7
5.90833,-7
5.91667,-7
5.92500,-7
5.93333,-7
5.94167,-7
5.95000,-7
5.95833,-7
5.96667,-7
5.97500,-7
5.98333,-7
5.99167,-7
6.00000,-7
6.00833,-7
6.01667,-7
6.02500,-7
6.03333,-7
6.04167,-7
6.05000,-8
6.05833,-8
6.06667,-8
6.07500,-8
6.08333,-8
6.09167,-8
6.10000,-8
6.10833,-8
6.11667,-8
6.12500,-8
6.13333,-8
6.14167,-9
6.15000,-9
6.15833,-9
6.16667,-9
6.17500,-9
6.18333,-9
6.19167,-9
6.20000,-9
6.20833,-9
6.21667,-9
6.22500,-8
6.23333,-8
6.24167,-8
6.25000,-9
6.25833,-9
6.26667,-9
6.27500,-9
6.28333,-9
6.29167,-9
6.30000,-8
6.30833,-8
6.31667,-8
6.32500,-8
6.33333,-8
6.34167,-8
6.35000,-8
6.35833,-8
6.36667,-8
6.37500,-8
6.38333,-9
6.39167,-9
6.40000,-9
6.40833,-9
6.41667,-9
6.42500,-9
6.43333,-9
6.44167,-8
6.45000,-8
6.45833,-8
6.46667,-8
6.47500,-8
6.48333,-8
6.49167,-8
6.50000,-8
6.50833,-8
6.51667,-8
6.52500,-8
6.53333,-8
6.54167,-8
6.55000,-9
6.55833,-9
6.56667,-9
6.57500,-9
6.58333,-8
6.59167,-8
6.60000,-8
6.60833,-8
6.61667,-9
6.62500,-9
6.63333,-9
6.64167,-8
6.65000,-8
6.65833,-8
6.66667,-8
6.67500,-8
6.68333,-8
6.69167,-8
6.70000,-8
6.70833,-8
6.71667,-8
6.72500,-8
6.73333,-9
6.74167,-9
6.75000,-9
6.75833,-9
6.76667,-9
6.77500,-9
6.78333,-9
6.79167,-9
6.80000,-8
6.80833,-8
6.81667,-8
6.82500,-8
6.83333,-8
6.84167,-8
6.85000,-8
6.85833,-8
6.86667,-8
6.87500,-8
6.88333,-8
6.89167,-8
6.90000,-8
6.90833,-8
6.91667,-8
6.92500,-8
6.93333,-8
6.94167,-8
6.95000,-8
6.95833,-8
6.96667,-8
6.97500,-8
6.98333,-8
6.99167,-7
7.00000,-7
7.00833,-8
7.01667,-8
7.02500,-8
7.03333,-8
7.04167,-9
7.05000,-8
7.05833,-8
7.06667,-8
7.07500,-8
7.08333,-8
7.09167,-7
7.10000,-7
7.10833,-7
7.11667,-7
7.12500,-8
7.13333,-8
7.14167,-8
7.15000,-7
7.15833,-7
7.16667,-7
7.17500,-7
7.18333,-7
7.19167,-7
7.20000,-7
7.20833,-7
7.21667,-7
7.22500,-7
7.23333,-7
7.24167,-7
7.25000,-7
7.25833,-8
7.26667,-8
7.27500,-8
7.28333,-8
7.29167,-8
7.30000,-9
7.30833,-9
7.31667,-9
7.32500,-9
7.33333,-8
7.34167,-8
7.35000,-8
7.35833,-8
7.36667,-8
7.37500,-8
7.38333,-8
7.39167,-8
7.40000,-8
7.40833,-8
7.41667,-8
7.42500,-8
7.43333,-8
7.44167,-8
7.45000,-9
7.45833,-9
7.46667,-9
7.47500,-9
7.48333,-9
7.49167,-9
7.50000,-9
7.50833,-9
7.51667,-9
7.52500,-9
7.53333,-9
7.54167,-9
7.55000,-9
7.55833,-8
7.56667,-8
7.57500,-8
7.58333,-8
7.59167,-9
7.60000,-9
7.60833,-9
7.61667,-10
7.62500,-10
7.63333,-10
7.64167,-9
7.65000,-9
7.65833,-10
7.66667,-10
7.67500,-10
7.68333,-10
7.69167,-10
7.70000,-10
7.70833,-10
7.71667,-10
7.72500,-9
7.73333,-9
7.74167,-9
7.75000,-9
7.75833,-9
7.76667,-9
7.77500,-9
7.78333,-8
7.79167,-8
7.80000,-9
7.80833,-8
7.81667,-8
7.82500,-9
7.83333,-9
7.84167,-9
7.85000,-9
7.85833,-9
7.86667,-9
7.87500,-9
7.88333,-9
7.89167,-9
7.90000,-9
7.90833,-8
7.91667,-8
7.92500,-8
7.93333,-9
7.94167,-9
7.95000,-9
7.95833,-10
7.96667,-10
7.97500,-10
7.98333,-9
7.99167,-9
8.00000,-9
8.00833,-9
8.01667,-9
8.02500,-9
8.03333,-9
8.04167,-9
8.05000,-9
8.05833,-9
8.06667,-10
8.07500,-10
8.08333,-10
8.09167,-10
8.10000,-10
8.10833,-10
8.11667,-9
8.12500,-10
8.13333,-10
8.14167,-10
8.15000,-10
8.15833,-10
8.16667,-10
8.17500,-10
8.18333,-10
8.19167,-9
8.20000,-9
8.20833,-9
8.21667,-9
8.22500,-10
8.23333,-10
8.24167,-10
8.25000,-10
8.25833,-10
8.26667,-10
8.27500,-10
8.28333,-10
8.29167,-10
8.30000,-10
8.30833,-9
8.31667,-9
8.32500,-10
8.33333,-10
8.34167,-10
8.35000,-10
8.35833,-10
8.36667,-10
8.37500,-10
8.38333,-10
8.39167,-10
8.40000,-10
8.40833,-10
8.41667,-10
8.42500,-10
8.43333,-11
8.44167,-11
8.45000,-11
8.45833,-11
8.46667,-11
8.47500,-11
8.48333,-11
8.49167,-11
8.50000,-11
8.50833,-11
8.51667,-11
8.52500,-11
8.53333,-10
8.54167,-10
8.55000,-10
8.55833,-10
8.56667,-9
8.57500,-9
8.58333,-10
8.59167,-10
8.60000,-10
8.60833,-11
8.61667,-11
8.62500,-11
8.63333,-10
8.64167,-10
8.65000,-10
8.65833,-10
8.66667,-10
8.67500,-10
8.68333,-10
8.69167,-10
8.70000,-11
8.70833,-11
8.71667,-11
8.72500,-10
8.73333,-10
8.74167,-10
8.75000,-10
8.75833,-10
8.76667,-10
8.77500,-10
8.78333,-10
8.79167,-10
8.80000,-10
8.80833,-11
8.81667,-10
8.82500,-10
8.83333,-10
8.84167,-10
8.85000,-10
8.85833,-10
8.86667,-10
8.87500,-10
8.88333,-10
8.89167,-10
8.90000,-10
8.90833,-10
8.91667,-10
8.92500,-10
8.93333,-10
8.94167,-10
8.95000,-10
8.95833,-10
8.96667,-10
8.97500,-11
8.98333,-11
8.99167,-11
9.00000,-11
9.00833,-11
9.01667,-11
9.02500,-11
9.03333,-11
9.04167,-10
9.05000,-10
9.05833,-10
9.06667,-10
9.07500,-10
9.08333,-10
9.09167,-10
9.10000,-10
9.10833,-10
9.11667,-10
9.12500,-10
9.13333,-10
9.14167,-10
9.15000,-10
9.15833,-10
9.16667,-10
9.17500,-10
9.18333,-9
9.19167,-10
9.20000,-10
9.20833,-10
9.21667,-11
9.22500,-11
9.23333,-11
9.24167,-11
9.25000,-11
9.25833,-11
9.26667,-11
9.27500,-11
9.28333,-11
9.29167,-11
9.30000,-11
9.30833,-11
9.31667,-11
9.32500,-11
9.33333,-11
9.34167,-11
9.35000,-11
9.35833,-11
9.36667,-11
9.37500,-11
9.38333,-11
9.39167,-11
9.40000,-11
9.40833,-10
9.41667,-10
9.42500,-11
9.43333,-11
9.44167,-11
9.45000,-11
9.45833,-11
9.46667,-11
9.47500,-10
9.48333,-10
9.49167,-10
9.50000,-10
9.50833,-10
9.51667,-10
9.52500,-10
9.53333,-10
9.54167,-10
9.55000,-10
9.55833,-10
9.56667,-11
9.57500,-11
9.58333,-11
9.59167,-10
9.60000,-10
9.60833,-11
9.61667,-11
9.62500,-11
9.63333,-11
9.64167,-10
9.65000,-10
9.65833,-10
9.66667,-11
9.67500,-11
9.68333,-11
9.69167,-11
9.70000,-11
9.70833,-11
9.71667,-11
9.72500,-11
9.73333,-11
9.74167,-11
9.75000,-11
9.75833,-11
9.76667,-11
9.77500,-11
9.78333,-11
9.79167,-11
9.80000,-11
9.80833,-10
9.81667,-10
9.82500,-10
9.83333,-9
9.84167,-9
9.85000,-9
9.85833,-9
9.86667,-9
9.87500,-9
9.88333,-9
9.89167,-9
9.90000,-9
9.90833,-10
9.91667,-10
9.92500,-10
9.93333,-11
9.94167,-10
9.95000,-10
9.95833,-10
9.96667,-10
9.97500,-10
9.98333,-10
9.99167,-10
10.00000,-10
10.00833,-10
10.01667,-10
10.02500,-10
10.03333,-10
10.04167,-10
10.05000,-10
10.05833,-10
10.06667,-10
10.07500,-10
10.08333,-10
10.09167,-10
10.10000,-10
10.10833,-10
10.11667,-10
10.12500,-10
10.13333,-10
10.14167,-10
10.15000,-10
10.15833,-10
10.16667,-10
10.17500,-10
10.18333,-10
10.19167,-10
10.20000,-10
10.20833,-10
10.21667,-9
10.22500,-9
10.23333,-9
10.24167,-9
10.25000,-9
10.25833,-10
10.26667,-10
10.27500,-10
10.28333,-10
10.29167,-9
10.30000,-9
10.30833,-9
10.31667,-9
10.32500,-9
10.33333,-9
10.34167,-9
10.35000,-10
10.35833,-11
10.36667,-12
10.37500,-14
10.38333,-18
10.39167,-23
10.40000,-29
10.40833,-38
10.41667,-50
10.42500,-65
10.43333,-85
10.44167,-109
10.45000,-139
10.45833,-175
10.46667,-216
10.47500,-264
10.48333,-317
10.49167,-375
10.50000,-436
10.50833,-500
10.51667,-562
10.52500,-622
10.53333,-675
10.54167,-717
10.55000,-744
10.55833,-751
10.56667,-732
10.57500,-683
10.58333,-597
10.59167,-468
10.60000,-291
10.60833,-58
10.61667,236
10.62500,597
10.63333,1032
10.64167,1545
10.65000,2143
10.65833,2830
10.66667,3611
10.67500,4490
10.68333,5473
10.69167,6561
10.70000,7761
10.70833,9073
10.71667,10500
10.72500,12045
10.73333,13710
10.74167,15496
10.75000,17404
10.75833,19435
10.76667,21588
10.77500,23864
10.78333,26261
10.79167,28780
10.80000,31418
10.80833,34173
10.81667,37043
10.82500,40026
10.83333,43117
10.84167,46313
10.85000,49608
10.85833,52998
10.86667,56474
10.87500,60031
10.88333,63657
10.89167,67342
10.90000,71073
10.90833,74835
10.91667,78611
10.92500,82378
10.93333,86113
10.94167,89788
10.95000,93369
10.95833,96820
10.96667,100100
10.97500,103160
10.98333,105952
10.99167,108419
11.00000,110507
11.00833,112157
11.01667,113313
11.02500,113923
11.03333,113940
11.04167,113329
11.05000,112064
11.05833,110135
11.06667,107552
11.07500,104338
11.08333,100539
11.09167,96215
11.10000,91443
11.10833,86311
11.11667,80913
11.12500,75348
11.13333,69713
11.14167,64098
11.15000,58587
11.15833,53251
11.16667,48148
11.17500,43327
11.18333,38818
11.19167,34644
11.20000,30815
11.20833,27329
11.21667,24181
11.22500,21356
11.23333,18837
11.24167,16603
11.25000,14630
11.25833,12895
11.26667,11376
11.27500,10050
11.28333,8894
11.29167,7888
11.30000,7015
11.30833,6256
11.31667,5598
11.32500,5026
11.33333,4530
11.34167,4098
11.35000,3722
11.35833,3393
11.36667,3105
11.37500,2852
11.38333,2630
11.39167,2432
11.40000,2257
11.40833,2102
11.41667,1963
11.42500,1838
11.43333,1725
11.44167,1623
11.45000,1531
11.45833,1447
11.46667,1369
11.47500,1298
11.48333,1233
11.49167,1173
11.50000,1117
11.50833,1065
11.51667,1016
11.52500,970
11.53333,928
11.54167,888
11.55000,850
11.55833,815
11.56667,782
11.57500,750
11.58333,720
11.59167,692
11.60000,666
11.60833,641
11.61667,617
11.62500,594
11.63333,572
11.64167,552
11.65000,532
11.65833,513
11.66667,496
11.67500,479
11.68333,463
11.69167,448
11.70000,434
11.70833,420
11.71667,407
11.72500,395
11.73333,383
11.74167,372
11.75000,362
11.75833,352
11.76667,342
11.77500,333
11.78333,324
11.79167,316
11.80000,308
11.80833,301
11.81667,294
11.82500,288
11.83333,282
11.84167,276
11.85000,271
11.85833,266
11.86667,261
11.87500,257
11.88333,253
11.89167,249
11.90000,246
11.90833,242
11.91667,239
11.92500,236
11.93333,233
11.94167,231
11.95000,228
11.95833,226
11.96667,224
11.97500,222
11.98333,220
11.99167,218
12.00000,216
12.00833,215
12.01667,213
12.02500,212
12.03333,211
12.04167,210
12.05000,209
12.05833,208
12.06667,207
12.07500,206
12.08333,205
12.09167,204
12.10000,203
12.10833,202
12.11667,201
12.12500,200
12.13333,199
12.14167,198
12.15000,197
12.15833,195
12.16667,194
12.17500,193
12.18333,192
12.19167,191
12.20000,190
12.20833,189
12.21667,188
12.22500,187
12.23333,185
12.24167,184
12.25000,183
12.25833,182
12.26667,180
12.27500,179
12.28333,177
12.29167,176
12.30000,174
12.30833,173
12.31667,172
12.32500,171
12.33333,169
12.34167,168
12.35000,166
12.35833,165
12.36667,163
12.37500,162
12.38333,160
12.39167,159
12.40000,158
12.40833,156
12.41667,155
12.42500,154
12.43333,153
12.44167,151
12.45000,151
12.45833,149
12.46667,148
12.47500,147
12.48333,146
12.49167,145
12.50000,144
12.50833,142
12.51667,141
12.52500,140
12.53333,138
12.54167,137
12.55000,136
12.55833,135
12.56667,134
12.57500,133
12.58333,132
12.59167,130
12.60000,129
12.60833,128
12.61667,128
12.62500,127
12.63333,127
12.64167,127
12.65000,128
12.65833,129
12.66667,130
12.67500,133
12.68333,135
12.69167,139
12.70000,143
12.70833,148
12.71667,155
12.72500,164
12.73333,174
12.74167,187
12.75000,202
12.75833,220
12.76667,240
12.77500,262
12.78333,288
12.79167,317
12.80000,350
12.80833,386
12.81667,427
12.82500,471
12.83333,520
12.84167,574
12.85000,632
12.85833,694
12.86667,761
12.87500,833
12.88333,910
12.89167,993
12.90000,1080
12.90833,1173
12.91667,1272
12.92500,1376
12.93333,1486
12.94167,1602
12.95000,1723
12.95833,1849
12.96667,1981
12.97500,2119
12.98333,2262
12.99167,2410
13.00000,2565
13.00833,2725
13.01667,2890
13.02500,3061
13.03333,3237
13.04167,3419
13.05000,3605
13.05833,3797
13.06667,3994
13.07500,4196
13.08333,4404
13.09167,4616
13.10000,4834
13.10833,5056
13.11667,5283
13.12500,5514
13.13333,5749
13.14167,5989
13.15000,6234
13.15833,6483
13.16667,6736
13.17500,6993
13.18333,7254
13.19167,7519
13.20000,7788
13.20833,8060
13.21667,8337
13.22500,8617
13.23333,8901
13.24167,9189
13.25000,9480
13.25833,9774
13.26667,10071
13.27500,10372
13.28333,10676
13.29167,10983
13.30000,11293
13.30833,11607
13.31667,11924
13.32500,12244
13.33333,12567
13.34167,12893
13.35000,13223
13.35833,13555
13.36667,13890
13.37500,14229
13.38333,14570
13.39167,14914
13.40000,15261
13.40833,15611
13.41667,15964
13.42500,16321
13.43333,16680
13.44167,17042
13.45000,17408
13.45833,17776
13.46667,18147
13.47500,18521
13.48333,18898
13.49167,19278
13.50000,19661
13.50833,20047
13.51667,20437
13.52500,20829
13.53333,21225
13.54167,21625
13.55000,22027
13.55833,22433
13.56667,22841
13.57500,23253
13.58333,23668
13.59167,24087
13.60000,24509
13.60833,24934
13.61667,25363
13.62500,25796
13.63333,26231
13.64167,26671
13.65000,27114
13.65833,27560
13.66667,28010
13.67500,28464
13.68333,28922
13.69167,29383
13.70000,29848
13.70833,30317
13.71667,30790
13.72500,31266
13.73333,31746
13.74167,32230
13.75000,32719
13.75833,33211
13.76667,33707
13.77500,34208
13.78333,34712
13.79167,35221
13.80000,35733
13.80833,36251
13.81667,36772
13.82500,37298
13.83333,37828
13.84167,38363
13.85000,38902
13.85833,39445
13.86667,39992
13.87500,40545
13.88333,41102
13.89167,41664
13.90000,42231
13.90833,42803
13.91667,43380
13.92500,43962
13.93333,44549
13.94167,45140
13.95000,45737
13.95833,46339
13.96667,46945
13.97500,47557
13.98333,48175
13.99167,48797
14.00000,49425
14.00833,50059
14.01667,50698
14.02500,51343
14.03333,51993
14.04167,52649
14.05000,53311
14.05833,53979
14.06667,54653
14.07500,55333
14.08333,56019
14.09167,56711
14.10000,57409
14.10833,58114
14.11667,58826
14.12500,59543
14.13333,60267
14.14167,60998
14.15000,61735
14.15833,62479
14.16667,63230
14.17500,63987
14.18333,64752
14.19167,65524
14.20000,66304
14.20833,67090
14.21667,67883
14.22500,68681
14.23333,69484
14.24167,70289
14.25000,71093
14.25833,71892
14.26667,72681
14.27500,73451
14.28333,74195
14.29167,74902
14.30000,75560
14.30833,76157
14.31667,76681
14.32500,77120
14.33333,77460
14.34167,77692
14.35000,77805
14.35833,77792
14.36667,77646
14.37500,77362
14.38333,76937
14.39167,76366
14.40000,75649
14.40833,74783
14.41667,73767
14.42500,72598
14.43333,71274
14.44167,69794
14.45000,68156
14.45833,66359
14.46667,64405
14.47500,62296
14.48333,60039
14.49167,57642
14.50000,55119
14.50833,52486
14.51667,49762
14.52500,46970
14.53333,44134
14.54167,41282
14.55000,38440
14.55833,35634
14.56667,32890
14.57500,30231
14.58333,27678
14.59167,25247
14.60000,22951
14.60833,20802
14.61667,18803
14.62500,16959
14.63333,15268
14.64167,13727
14.65000,12331
14.65833,11072
14.66667,9942
14.67500,8932
14.68333,8032
14.69167,7234
14.70000,6526
14.70833,5900
14.71667,5347
14.72500,4859
14.73333,4430
14.74167,4051
14.75000,3717
14.75833,3423
14.76667,3163
14.77500,2933
14.78333,2729
14.79167,2547
14.80000,2386
14.80833,2242
14.81667,2113
14.82500,1997
14.83333,1894
14.84167,1800
14.85000,1714
14.85833,1636
14.86667,1564
14.87500,1499
14.88333,1438
14.89167,1383
14.90000,1331
14.90833,1284
14.91667,1239
14.92500,1198
14.93333,1160
14.94167,1124
14.95000,1089
14.95833,1057
14.96667,1027
14.97500,999
14.98333,972
14.99167,946
15.00000,922
15.00833,900
15.01667,878
15.02500,858
15.03333,839
15.04167,821
15.05000,804
15.05833,787
15.06667,772
15.07500,757
15.08333,743
15.09167,731
15.10000,719
15.10833,707
15.11667,696
15.12500,686
15.13333,676
15.14167,668
15.15000,660
15.15833,654
15.16667,648
15.17500,645
15.18333,642
15.19167,642
15.20000,644
15.20833,648
15.21667,657
15.22500,669
15.23333,685
15.24167,707
15.25000,736
15.25833,773
15.26667,818
15.27500,875
15.28333,944
15.29167,1028
15.30000,1129
15.30833,1249
15.31667,1392
15.32500,1558
15.33333,1752
15.34167,1976
15.35000,2234
15.35833,2529
15.36667,2865
15.37500,3244
15.38333,3670
15.39167,4147
15.40000,4677
15.40833,5264
15.41667,5908
15.42500,6614
15.43333,7382
15.44167,8214
15.45000,9110
15.45833,10070
15.46667,11094
15.47500,12180
15.48333,13328
15.49167,14533
15.50000,15794
15.50833,17105
15.51667,18462
15.52500,19860
15.53333,21293
15.54167,22756
15.55000,24241
15.55833,25741
15.56667,27249
15.57500,28758
15.58333,30260
15.59167,31749
15.60000,33215
15.60833,34653
15.61667,36056
15.62500,37416
15.63333,38730
15.64167,39989
15.65000,41190
15.65833,42328
15.66667,43399
15.67500,44399
15.68333,45325
15.69167,46173
15.70000,46943
15.70833,47631
15.71667,48237
15.72500,48758
15.73333,49196
15.74167,49548
15.75000,49815
15.75833,49996
15.76667,50093
15.77500,50105
15.78333,50033
15.79167,49878
15.80000,49642
15.80833,49326
15.81667,48931
15.82500,48459
15.83333,47913
15.84167,47295
15.85000,46607
15.85833,45853
15.86667,45035
15.87500,44158
15.88333,43225
15.89167,42239
15.90000,41206
15.90833,40129
15.91667,39014
15.92500,37865
15.93333,36687
15.94167,35485
15.95000,34263
15.95833,33027
15.96667,31782
15.97500,30531
15.98333,29281
15.99167,28035
16.00000,26799
16.00833,25575
16.01667,24369
16.02500,23183
16.03333,22020
16.04167,20885
16.05000,19778
16.05833,18704
16.06667,17663
16.07500,16657
16.08333,15687
16.09167,14756
16.10000,13864
16.10833,13010
16.11667,12197
16.12500,11423
16.13333,10689
16.14167,9993
16.15000,9335
16.15833,8714
16.16667,8130
16.17500,7581
16.18333,7066
16.19167,6585
16.20000,6135
16.20833,5715
16.21667,5325
16.22500,4961
16.23333,4623
16.24167,4311
16.25000,4021
16.25833,3753
16.26667,3505
16.27500,3277
16.28333,3065
16.29167,2871
16.30000,2692
16.30833,2527
16.31667,2376
16.32500,2237
16.33333,2108
16.34167,1991
16.35000,1882
16.35833,1783
16.36667,1691
16.37500,1607
16.38333,1529
16.39167,1458
16.40000,1392
16.40833,1332
16.41667,1276
16.42500,1224
16.43333,1176
16.44167,1132
16.45000,1091
16.45833,1052
16.46667,1017
16.47500,984
16.48333,953
16.49167,924
16.50000,897
16.50833,871
16.51667,847
16.52500,824
16.53333,802
16.54167,781
16.55000,761
16.55833,742
16.56667,724
16.57500,707
16.58333,690
16.59167,675
16.60000,660
16.60833,645
16.61667,631
16.62500,617
16.63333,604
16.64167,591
16.65000,579
16.65833,567
16.66667,556
16.67500,544
16.68333,534
16.69167,523
16.70000,513
16.70833,504
16.71667,494
16.72500,485
16.73333,477
16.74167,468
16.75000,460
16.75833,452
16.76667,445
16.77500,438
16.78333,431
16.79167,424
16.80000,418
16.80833,412
16.81667,407
16.82500,401
16.83333,396
16.84167,391
16.85000,387
16.85833,383
16.86667,379
16.87500,375
16.88333,371
16.89167,367
16.90000,363
16.90833,360
16.91667,356
16.92500,353
16.93333,350
16.94167,347
16.95000,345
16.95833,342
16.96667,339
16.97500,336
16.98333,334
16.99167,331
17.00000,329
17.00833,326
17.01667,324
17.02500,322
17.03333,320
17.04167,318
17.05000,316
17.05833,314
17.06667,311
17.07500,309
17.08333,307
17.09167,306
17.10000,304
17.10833,302
17.11667,300
17.12500,298
17.13333,296
17.14167,295
17.15000,293
17.15833,291
17.16667,289
17.17500,286
17.18333,284
17.19167,282
17.20000,280
17.20833,279
17.21667,277
17.22500,274
17.23333,272
17.24167,270
17.25000,268
17.25833,266
17.26667,263
17.27500,262
17.28333,260
17.29167,258
17.30000,256
17.30833,254
17.31667,252
17.32500,250
17.33333,248
17.34167,246
17.35000,244
17.35833,241
17.36667,239
17.37500,238
17.38333,235
17.39167,233
17.40000,231
17.40833,229
17.41667,227
17.42500,225
17.43333,224
17.44167,222
17.45000,220
17.45833,218
17.46667,217
17.47500,215
17.48333,213
17.49167,211
17.50000,209
17.50833,207
17.51667,206
17.52500,204
17.53333,202
17.54167,201
17.55000,199
17.55833,198
17.56667,196
17.57500,194
17.58333,193
17.59167,191
17.60000,190
17.60833,188
17.61667,187
17.62500,185
17.63333,184
17.64167,182
17.65000,180
17.65833,179
17.66667,178
17.67500,176
17.68333,175
17.69167,173
17.70000,172
17.70833,171
17.71667,170
17.72500,169
17.73333,167
17.74167,166
17.75000,165
17.75833,164
17.76667,163
17.77500,162
17.78333,161
17.79167,160
17.80000,158
17.80833,157
17.81667,156
17.82500,155
17.83333,154
17.84167,153
17.85000,152
17.85833,151
17.86667,150
17.87500,150
17.88333,149
17.89167,148
17.90000,147
17.90833,146
17.91667,145
17.92500,144
17.93333,143
17.94167,143
17.95000,141
17.95833,141
17.96667,140
17.97500,139
17.98333,138
17.99167,137
18.00000,137
18.00833,136
18.01667,135
18.02500,135
18.03333,134
18.04167,134
18.05000,133
18.05833,132
18.06667,132
18.07500,131
18.08333,130
18.09167,129
18.10000,128
18.10833,127
18.11667,127
18.12500,126
18.13333,126
18.14167,125
18.15000,124
18.15833,124
18.16667,123
18.17500,123
18.18333,122
18.19167,121
18.20000,121
18.20833,120
18.21667,120
18.22500,119
18.23333,118
18.24167,118
18.25000,117
18.25833,117
18.26667,116
18.27500,115
18.28333,115
18.29167,114
18.30000,113
18.30833,113
18.31667,112
18.32500,111
18.33333,110
18.34167,110
18.35000,109
18.35833,108
18.36667,108
18.37500,107
18.38333,107
18.39167,106
18.40000,105
18.40833,105
18.41667,105
18.42500,104
18.43333,104
18.44167,104
18.45000,103
18.45833,102
18.46667,102
18.47500,101
18.48333,101
18.49167,100
18.50000,100
18.50833,99
18.51667,99
18.52500,98
18.53333,98
18.54167,97
18.55000,96
18.55833,96
18.56667,95
18.57500,95
18.58333,94
18.59167,94
18.60000,94
18.60833,94
18.61667,93
18.62500,93
18.63333,93
18.64167,93
18.65000,92
18.65833,92
18.66667,91
18.67500,90
18.68333,90
18.69167,89
18.70000,89
18.70833,89
18.71667,88
18.72500,88
18.73333,88
18.74167,87
18.75000,87
18.75833,87
18.76667,87
18.77500,87
18.78333,86
18.79167,86
18.80000,86
18.80833,85
18.81667,84
18.82500,84
18.83333,84
18.84167,83
18.85000,83
18.85833,82
18.86667,82
18.87500,81
18.88333,81
18.89167,81
18.90000,80
18.90833,80
18.91667,80
18.92500,80
18.93333,80
18.94167,79
18.95000,79
18.95833,78
18.96667,78
18.97500,78
18.98333,78
18.99167,78
19.00000,78
19.00833,78
19.01667,78
19.02500,78
19.03333,78
19.04167,78
19.05000,78
19.05833,77
19.06667,77
19.07500,77
19.08333,77
19.09167,77
19.10000,77
19.10833,77
19.11667,77
19.12500,76
19.13333,76
19.14167,76
19.15000,76
19.15833,76
19.16667,76
19.17500,76
19.18333,76
19.19167,75
19.20000,75
19.20833,75
19.21667,75
19.22500,75
19.23333,75
19.24167,75
19.25000,74
19.25833,74
19.26667,74
19.27500,73
19.28333,73
19.29167,73
19.30000,72
19.30833,73
19.31667,73
19.32500,73
19.33333,73
19.34167,73
19.35000,72
19.35833,72
19.36667,71
19.37500,71
19.38333,71
19.39167,70
19.40000,70
19.40833,70
19.41667,69
19.42500,69
19.43333,69
19.44167,68
19.45000,68
19.45833,67
19.46667,67
19.47500,66
19.48333,66
19.49167,65
19.50000,65
19.50833,64
19.51667,63
19.52500,63
19.53333,62
19.54167,61
19.55000,61
19.55833,60
19.56667,60
19.57500,60
19.58333,59
19.59167,59
19.60000,59
19.60833,59
19.61667,58
19.62500,58
19.63333,57
19.64167,56
19.65000,56
19.65833,56
19.66667,55
19.67500,55
19.68333,54
19.69167,53
19.70000,53
19.70833,52
19.71667,52
19.72500,51
19.73333,50
19.74167,50
19.75000,50
19.75833,49
19.76667,49
19.77500,49
19.78333,49
19.79167,48
19.80000,48
19.80833,48
19.81667,47
19.82500,47
19.83333,46
19.84167,46
19.85000,46
19.85833,45
19.86667,45
19.87500,45
19.88333,44
19.89167,44
19.90000,44
19.90833,44
19.91667,44
19.92500,44
19.93333,44
19.94167,43
19.95000,43
19.95833,43
19.96667,42
19.97500,42
19.98333,42
19.99167,42
20.00000,42
20.00833,42
20.01667,42
20.02500,42
20.03333,41
20.04167,40
20.05000,40
20.05833,40
20.06667,39
20.07500,39
20.08333,39
20.09167,39
20.10000,39
20.10833,39
20.11667,39
20.12500,39
20.13333,39
20.14167,39
20.15000,38
20.15833,38
20.16667,38
20.17500,38
20.18333,38
20.19167,38
20.20000,38
20.20833,38
20.21667,38
20.22500,38
20.23333,38
20.24167,38
20.25000,38
20.25833,38
20.26667,38
20.27500,38
20.28333,38
20.29167,38
20.30000,38
20.30833,38
20.31667,38
20.32500,38
20.33333,38
20.34167,38
20.35000,38
20.35833,38
20.36667,38
20.37500,39
20.38333,39
20.39167,40
20.40000,40
20.40833,40
20.41667,40
20.42500,41
20.43333,41
20.44167,41
20.45000,41
20.45833,42
20.46667,42
20.47500,43
20.48333,43
20.49167,44
20.50000,44
20.50833,45
20.51667,46
20.52500,47
20.53333,48
20.54167,49
20.55000,50
20.55833,51
20.56667,53
20.57500,54
20.58333,56
20.59167,57
20.60000,58
20.60833,60
20.61667,61
20.62500,63
20.63333,65
20.64167,67
20.65000,69
20.65833,71
20.66667,72
20.67500,74
20.68333,76
20.69167,78
20.70000,80
20.70833,82
20.71667,84
20.72500,85
20.73333,87
20.74167,89
20.75000,91
20.75833,93
20.76667,95
20.77500,96
20.78333,98
20.79167,99
20.80000,100
20.80833,102
20.81667,103
20.82500,104
20.83333,105
20.84167,106
20.85000,107
20.85833,108
20.86667,109
20.87500,109
20.88333,110
20.89167,111
20.90000,111
20.90833,112
20.91667,113
20.92500,114
20.93333,114
20.94167,115
20.95000,115
20.95833,116
20.96667,117
20.97500,118
20.98333,118
20.99167,119
21.00000,120
21.00833,120
21.01667,121
21.02500,122
21.03333,123
21.04167,124
21.05000,125
21.05833,126
21.06667,127
21.07500,129
21.08333,130
21.09167,132
21.10000,134
21.10833,136
21.11667,138
21.12500,141
21.13333,143
21.14167,146
21.15000,148
21.15833,151
21.16667,154
21.17500,157
21.18333,161
21.19167,164
21.20000,168
21.20833,171
21.21667,175
21.22500,179
21.23333,182
21.24167,186
21.25000,189
21.25833,193
21.26667,197
21.27500,201
21.28333,204
21.29167,208
21.30000,212
21.30833,216
21.31667,219
21.32500,223
21.33333,227
21.34167,231
21.35000,234
21.35833,238
21.36667,241
21.37500,244
21.38333,247
21.39167,250
21.40000,252
21.40833,255
21.41667,257
21.42500,260
21.43333,263
21.44167,265
21.45000,268
21.45833,270
21.46667,273
21.47500,275
21.48333,277
21.49167,279
21.50000,282
21.50833,284
21.51667,286
21.52500,288
21.53333,290
21.54167,291
21.55000,293
21.55833,294
21.56667,296
21.57500,297
21.58333,298
21.59167,300
21.60000,301
21.60833,302
21.61667,303
21.62500,303
21.63333,304
21.64167,304
21.65000,303
21.65833,303
21.66667,303
21.67500,303
21.68333,302
21.69167,301
21.70000,299
21.70833,298
21.71667,296
21.72500,294
21.73333,292
21.74167,290
21.75000,287
21.75833,285
21.76667,282
21.77500,279
21.78333,276
21.79167,273
21.80000,270
21.80833,267
21.81667,264
21.82500,260
21.83333,257
21.84167,253
21.85000,250
21.85833,246
21.86667,242
21.87500,239
21.88333,235
21.89167,232
21.90000,229
21.90833,225
21.91667,222
21.92500,219
21.93333,215
21.94167,212
21.95000,208
21.95833,205
21.96667,201
21.97500,198
21.98333,194
21.99167,191
22.00000,187
22.00833,184
22.01667,180
22.02500,177
22.03333,173
22.04167,170
22.05000,166
22.05833,163
22.06667,159
22.07500,155
22.08333,151
22.09167,147
22.10000,144
22.10833,140
22.11667,137
22.12500,134
22.13333,130
22.14167,127
22.15000,123
22.15833,120
22.16667,117
22.17500,113
22.18333,110
22.19167,107
22.20000,103
22.20833,100
22.21667,97
22.22500,94
22.23333,90
22.24167,87
22.25000,84
22.25833,82
22.26667,79
22.27500,76
22.28333,74
22.29167,71
22.30000,69
22.30833,67
22.31667,65
22.32500,63
22.33333,61
22.34167,59
22.35000,58
22.35833,57
22.36667,56
22.37500,55
22.38333,54
22.39167,53
22.40000,52
22.40833,51
22.41667,51
22.42500,50
22.43333,49
22.44167,49
22.45000,48
22.45833,48
22.46667,47
22.47500,47
22.48333,47
22.49167,48
22.50000,48
22.50833,49
22.51667,49
22.52500,50
22.53333,51
22.54167,51
22.55000,52
22.55833,53
22.56667,54
22.57500,55
22.58333,56
22.59167,57
22.60000,59
22.60833,61
22.61667,63
22.62500,65
22.63333,67
22.64167,69
22.65000,71
22.65833,74
22.66667,76
22.67500,79
22.68333,81
22.69167,85
22.70000,88
22.70833,91
22.71667,94
22.72500,97
22.73333,101
22.74167,105
22.75000,109
22.75833,113
22.76667,118
22.77500,122
22.78333,126
22.79167,130
22.80000,134
22.80833,138
22.81667,143
22.82500,148
22.83333,152
22.84167,156
22.85000,161
22.85833,165
22.86667,169
22.87500,172
22.88333,176
22.89167,180
22.90000,184
22.90833,189
22.91667,192
22.92500,196
22.93333,200
22.94167,204
22.95000,207
22.95833,211
22.96667,214
22.97500,217
22.98333,220
22.99167,222
23.00000,225
23.00833,227
23.01667,229
23.02500,230
23.03333,232
23.04167,234
23.05000,235
23.05833,236
23.06667,238
23.07500,238
23.08333,239
23.09167,240
23.10000,240
23.10833,240
23.11667,240
23.12500,240
23.13333,239
23.14167,239
23.15000,238
23.15833,237
23.16667,235
23.17500,234
23.18333,232
23.19167,229
23.20000,227
23.20833,224
23.21667,222
23.22500,219
23.23333,216
23.24167,213
23.25000,210
23.25833,206
23.26667,203
23.27500,199
23.28333,195
23.29167,191
23.30000,187
23.30833,182
23.31667,177
23.32500,173
23.33333,167
23.34167,162
23.35000,158
23.35833,153
23.36667,148
23.37500,143
23.38333,138
23.39167,133
23.40000,129
23.40833,124
23.41667,119
23.42500,114
23.43333,110
23.44167,106
23.45000,102
23.45833,97
23.46667,93
23.47500,89
23.48333,84
23.49167,80
23.50000,77
23.50833,73
23.51667,69
23.52500,66
23.53333,63
23.54167,60
23.55000,57
23.55833,54
23.56667,52
23.57500,50
23.58333,47
23.59167,45
23.60000,43
23.60833,40
23.61667,38
23.62500,36
23.63333,34
23.64167,33
23.65000,31
23.65833,30
23.66667,29
23.67500,28
23.68333,27
23.69167,26
23.70000,25
23.70833,23
23.71667,22
23.72500,22
23.73333,21
23.74167,20
23.75000,20
23.75833,19
23.76667,19
23.77500,18
23.78333,18
23.79167,18
23.80000,18
23.80833,17
23.81667,17
23.82500,16
23.83333,16
23.84167,16
23.85000,15
23.85833,15
23.86667,14
23.87500,14
23.88333,14
23.89167,14
23.90000,13
23.90833,13
23.91667,13
23.92500,13
23.93333,13
23.94167,13
23.95000,13
23.95833,13
23.96667,13
23.97500,13
23.98333,13
23.99167,13
24.00000,13
24.00833,13
24.01667,13
24.02500,13
24.03333,13
24.04167,13
24.05000,13
24.05833,12
24.06667,12
24.07500,12
24.08333,12
24.09167,12
24.10000,12
24.10833,12
24.11667,12
24.12500,12
24.13333,12
24.14167,12
24.15000,12
24.15833,13
24.16667,13
24.17500,13
24.18333,14
24.19167,14
24.20000,14
24.20833,14
24.21667,14
24.22500,14
24.23333,14
24.24167,14
24.25000,14
24.25833,14
24.26667,15
24.27500,16
24.28333,17
24.29167,18
24.30000,18
24.30833,19
24.31667,20
24.32500,22
24.33333,24
24.34167,27
24.35000,29
24.35833,32
24.36667,35
24.37500,39
24.38333,43
24.39167,48
24.40000,53
24.40833,59
24.41667,66
24.42500,74
24.43333,84
24.44167,94
24.45000,105
24.45833,118
24.46667,132
24.47500,147
24.48333,163
24.49167,182
24.50000,202
24.50833,224
24.51667,247
24.52500,273
24.53333,301
24.54167,330
24.55000,362
24.55833,397
24.56667,434
24.57500,473
24.58333,515
24.59167,559
24.60000,606
24.60833,655
24.61667,706
24.62500,760
24.63333,817
24.64167,876
24.65000,937
24.65833,1000
24.66667,1066
24.67500,1134
24.68333,1203
24.69167,1274
24.70000,1346
24.70833,1420
24.71667,1495
24.72500,1571
24.73333,1648
24.74167,1725
24.75000,1803
24.75833,1881
24.76667,1959
24.77500,2037
24.78333,2114
24.79167,2191
24.80000,2267
24.80833,2343
24.81667,2418
24.82500,2491
24.83333,2563
24.84167,2633
24.85000,2702
24.85833,2769
24.86667,2834
24.87500,2897
24.88333,2958
24.89167,3018
24.90000,3075
24.90833,3130
24.91667,3183
24.92500,3234
24.93333,3282
24.94167,3328
24.95000,3372
24.95833,3413
24.96667,3452
24.97500,3489
24.98333,3523
24.99167,3554
25.00000,3583
25.00833,3609
25.01667,3634
25.02500,3655
25.03333,3674
25.04167,3690
25.05000,3704
25.05833,3715
25.06667,3722
25.07500,3728
25.08333,3730
25.09167,3729
25.10000,3726
25.10833,3719
25.11667,3710
25.12500,3697
25.13333,3682
25.14167,3663
25.15000,3642
25.15833,3617
25.16667,3589
25.17500,3557
25.18333,3523
25.19167,3486
25.20000,3446
25.20833,3403
25.21667,3357
25.22500,3308
25.23333,3256
25.24167,3202
25.25000,3145
25.25833,3086
25.26667,3024
25.27500,2961
25.28333,2896
25.29167,2829
25.30000,2760
25.30833,2690
25.31667,2619
25.32500,2547
25.33333,2474
25.34167,2400
25.35000,2326
25.35833,2251
25.36667,2177
25.37500,2103
25.38333,2028
25.39167,1955
25.40000,1881
25.40833,1808
25.41667,1737
25.42500,1666
25.43333,1596
25.44167,1528
25.45000,1462
25.45833,1396
25.46667,1333
25.47500,1271
25.48333,1210
25.49167,1151
25.50000,1094
25.50833,1038
25.51667,985
25.52500,933
25.53333,884
25.54167,836
25.55000,791
25.55833,747
25.56667,706
25.57500,666
25.58333,628
25.59167,592
25.60000,557
25.60833,525
25.61667,494
25.62500,464
25.63333,437
25.64167,410
25.65000,385
25.65833,362
25.66667,339
25.67500,318
25.68333,298
25.69167,280
25.70000,263
25.70833,247
25.71667,232
25.72500,218
25.73333,206
25.74167,194
25.75000,182
25.75833,171
25.76667,162
25.77500,153
25.78333,145
25.79167,137
25.80000,130
25.80833,123
25.81667,117
25.82500,111
25.83333,105
25.84167,100
25.85000,96
25.85833,92
25.86667,88
25.87500,84
25.88333,80
25.89167,77
25.90000,73
25.90833,71
25.91667,68
25.92500,65
25.93333,63
25.94167,61
25.95000,59
25.95833,57
25.96667,55
25.97500,54
25.98333,52
25.99167,51
26.00000,50
26.00833,48
26.01667,47
26.02500,46
26.03333,45
26.04167,44
26.05000,43
26.05833,43
26.06667,41
26.07500,40
26.08333,40
26.09167,39
26.10000,39
26.10833,39
26.11667,38
26.12500,38
26.13333,38
26.14167,37
26.15000,37
26.15833,36
26.16667,36
26.17500,36
26.18333,35
26.19167,35
26.20000,34
26.20833,34
26.21667,33
26.22500,33
26.23333,33
26.24167,33
26.25000,32
26.25833,32
26.26667,32
26.27500,31
26.28333,31
26.29167,31
26.30000,30
26.30833,30
26.31667,31
26.32500,31
26.33333,30
26.34167,30
26.35000,30
26.35833,30
26.36667,30
26.37500,29
26.38333,29
26.39167,29
26.40000,29
26.40833,28
26.41667,28
26.42500,28
26.43333,29
26.44167,28
26.45000,28
26.45833,28
26.46667,28
26.47500,28
26.48333,28
26.49167,28
26.50000,28
26.50833,28
26.51667,28
26.52500,28
26.53333,28
26.54167,28
26.55000,27
26.55833,27
26.56667,27
26.57500,26
26.58333,26
26.59167,26
26.60000,26
26.60833,26
26.61667,25
26.62500,25
26.63333,26
26.64167,26
26.65000,26
26.65833,25
26.66667,25
26.67500,25
26.68333,25
26.69167,25
26.70000,25
26.70833,25
26.71667,25
26.72500,25
26.73333,24
26.74167,24
26.75000,24
26.75833,25
26.76667,25
26.77500,25
26.78333,25
26.79167,25
26.80000,25
26.80833,24
26.81667,24
26.82500,24
26.83333,24
26.84167,24
26.85000,24
26.85833,24
26.86667,24
26.87500,24
26.88333,24
26.89167,23
26.90000,23
26.90833,23
26.91667,23
26.92500,23
26.93333,23
26.94167,23
26.95000,23
26.95833,23
26.96667,23
26.97500,23
26.98333,22
26.99167,22
27.00000,22
27.00833,21
27.01667,22
27.02500,22
27.03333,22
27.04167,21
27.05000,21
27.05833,21
27.06667,21
27.07500,20
27.08333,20
27.09167,20
27.10000,20
27.10833,20
27.11667,19
27.12500,19
27.13333,18
27.14167,18
27.15000,17
27.15833,17
27.16667,16
27.17500,16
27.18333,16
27.19167,15
27.20000,15
27.20833,14
27.21667,14
27.22500,14
27.23333,13
27.24167,13
27.25000,12
27.25833,11
27.26667,11
27.27500,10
27.28333,9
27.29167,8
27.30000,7
27.30833,5
27.31667,4
27.32500,3
27.33333,2
27.34167,0
27.35000,-1
27.35833,-3
27.36667,-4
27.37500,-6
27.38333,-7
27.39167,-8
27.40000,-10
27.40833,-11
27.41667,-13
27.42500,-14
27.43333,-16
27.44167,-18
27.45000,-19
27.45833,-21
27.46667,-22
27.47500,-24
27.48333,-26
27.49167,-28
27.50000,-30
27.50833,-32
27.51667,-35
27.52500,-37
27.53333,-39
27.54167,-40
27.55000,-42
27.55833,-43
27.56667,-45
27.57500,-48
27.58333,-50
27.59167,-52
27.60000,-54
27.60833,-56
27.61667,-58
27.62500,-60
27.63333,-62
27.64167,-64
27.65000,-65
27.65833,-67
27.66667,-69
27.67500,-71
27.68333,-73
27.69167,-74
27.70000,-76
27.70833,-77
27.71667,-79
27.72500,-80
27.73333,-82
27.74167,-83
27.75000,-85
27.75833,-86
27.76667,-88
27.77500,-89
27.78333,-90
27.79167,-91
27.80000,-93
27.80833,-94
27.81667,-95
27.82500,-96
27.83333,-96
27.84167,-97
27.85000,-98
27.85833,-98
27.86667,-98
27.87500,-98
27.88333,-99
27.89167,-99
27.90000,-99
27.90833,-99
27.91667,-99
27.92500,-99
27.93333,-99
27.94167,-98
27.95000,-98
27.95833,-97
27.96667,-97
27.97500,-96
27.98333,-95
27.99167,-95
28.00000,-94
28.00833,-93
28.01667,-93
28.02500,-92
28.03333,-91
28.04167,-89
28.05000,-88
28.05833,-86
28.06667,-85
28.07500,-83
28.08333,-82
28.09167,-81
28.10000,-79
28.10833,-78
28.11667,-77
28.12500,-75
28.13333,-74
28.14167,-72
28.15000,-70
28.15833,-69
28.16667,-66
28.17500,-65
28.18333,-63
28.19167,-61
28.20000,-59
28.20833,-58
28.21667,-56
28.22500,-54
28.23333,-52
28.24167,-50
28.25000,-48
28.25833,-47
28.26667,-45
28.27500,-43
28.28333,-41
28.29167,-39
28.30000,-38
28.30833,-36
28.31667,-35
28.32500,-33
28.33333,-32
28.34167,-30
28.35000,-29
28.35833,-28
28.36667,-27
28.37500,-25
28.38333,-24
28.39167,-22
28.40000,-21
28.40833,-19
28.41667,-18
28.42500,-16
28.43333,-15
28.44167,-14
28.45000,-13
28.45833,-12
28.46667,-11
28.47500,-9
28.48333,-8
28.49167,-7
28.50000,-6
28.50833,-4
28.51667,-3
28.52500,-3
28.53333,-2
28.54167,-0
28.55000,1
28.55833,2
28.56667,3
28.57500,4
28.58333,5
28.59167,7
28.60000,8
28.60833,9
28.61667,11
28.62500,13
28.63333,14
28.64167,16
28.65000,17
28.65833,18
28.66667,20
28.67500,22
28.68333,24
28.69167,26
28.70000,28
28.70833,30
28.71667,33
28.72500,35
28.73333,38
28.74167,40
28.75000,43
28.75833,46
28.76667,49
28.77500,52
28.78333,56
28.79167,59
28.80000,62
28.80833,66
28.81667,69
28.82500,73
28.83333,76
28.84167,79
28.85000,83
28.85833,86
28.86667,90
28.87500,94
28.88333,98
28.89167,101
28.90000,105
28.90833,109
28.91667,113
28.92500,117
28.93333,121
28.94167,125
28.95000,130
28.95833,134
28.96667,138
28.97500,141
28.98333,145
28.99167,149
29.00000,152
29.00833,155
29.01667,159
29.02500,162
29.03333,165
29.04167,168
29.05000,172
29.05833,175
29.06667,177
29.07500,180
29.08333,183
29.09167,185
29.10000,187
29.10833,189
29.11667,192
29.12500,194
29.13333,196
29.14167,197
29.15000,199
29.15833,201
29.16667,202
29.17500,203
29.18333,204
29.19167,205
29.20000,206
29.20833,207
29.21667,207
29.22500,207
29.23333,208
29.24167,208
29.25000,209
29.25833,209
29.26667,209
29.27500,209
29.28333,209
29.29167,209
29.30000,209
29.30833,209
29.31667,208
29.32500,208
29.33333,207
29.34167,206
29.35000,205
29.35833,204
29.36667,202
29.37500,201
29.38333,200
29.39167,198
29.40000,196
29.40833,195
29.41667,192
29.42500,190
29.43333,188
29.44167,185
29.45000,182
29.45833,179
29.46667,177
29.47500,174
29.48333,172
29.49167,169
29.50000,166
29.50833,163
29.51667,160
29.52500,157
29.53333,154
29.54167,150
29.55000,147
29.55833,143
29.56667,140
29.57500,137
29.58333,133
29.59167,130
29.60000,126
29.60833,123
29.61667,118
29.62500,114
29.63333,110
29.64167,106
29.65000,102
29.65833,99
29.66667,95
29.67500,91
29.68333,87
29.69167,84
29.70000,81
29.70833,77
29.71667,74
29.72500,70
29.73333,66
29.74167,63
29.75000,60
29.75833,57
29.76667,54
29.77500,52
29.78333,49
29.79167,46
29.80000,43
29.80833,40
29.81667,36
29.82500,34
29.83333,31
29.84167,29
29.85000,26
29.85833,24
29.86667,22
29.87500,20
29.88333,18
29.89167,16
29.90000,14
29.90833,12
29.91667,10
29.92500,8
29.93333,6
29.94167,4
29.95000,2
29.95833,0
29.96667,-1
29.97500,-3
29.98333,-5
29.99167,-6
30.00000,-8
30.00833,-10
30.01667,-11
30.02500,-13
30.03333,-14
30.04167,-16
30.05000,-18
30.05833,-20
30.06667,-22
30.07500,-24
30.08333,-26
30.09167,-28
30.10000,-30
30.10833,-33
30.11667,-35
30.12500,-37
30.13333,-39
30.14167,-41
30.15000,-43
30.15833,-45
30.16667,-48
30.17500,-50
30.18333,-53
30.19167,-55
30.20000,-58
30.20833,-61
30.21667,-64
30.22500,-67
30.23333,-70
30.24167,-72
30.25000,-75
30.25833,-78
30.26667,-81
30.27500,-84
30.28333,-87
30.29167,-90
30.30000,-93
30.30833,-97
30.31667,-100
30.32500,-103
30.33333,-106
30.34167,-109
30.35000,-112
30.35833,-116
30.36667,-118
30.37500,-121
30.38333,-124
30.39167,-127
30.40000,-130
30.40833,-133
30.41667,-136
30.42500,-139
30.43333,-141
30.44167,-144
30.45000,-147
30.45833,-149
30.46667,-152
30.47500,-154
30.48333,-157
30.49167,-160
30.50000,-162
30.50833,-164
30.51667,-167
30.52500,-169
30.53333,-170
30.54167,-173
30.55000,-175
30.55833,-177
30.56667,-178
30.57500,-180
30.58333,-182
30.59167,-183
30.60000,-184
30.60833,-186
30.61667,-187
30.62500,-188
30.63333,-189
30.64167,-189
30.65000,-190
30.65833,-190
30.66667,-190
30.67500,-190
30.68333,-191
30.69167,-191
30.70000,-191
30.70833,-191
30.71667,-190
30.72500,-190
30.73333,-189
30.74167,-188
30.75000,-187
30.75833,-186
30.76667,-185
30.77500,-183
30.78333,-182
30.79167,-180
30.80000,-179
30.80833,-177
30.81667,-175
30.82500,-173
30.83333,-171
30.84167,-169
30.85000,-167
30.85833,-164
30.86667,-162
30.87500,-159
30.88333,-157
30.89167,-154
30.90000,-151
30.90833,-148
30.91667,-145
30.92500,-142
30.93333,-139
30.94167,-136
30.95000,-133
30.95833,-130
30.96667,-127
30.97500,-125
30.98333,-122
30.99167,-118
31.00000,-115
31.00833,-112
31.01667,-109
31.02500,-106
31.03333,-103
31.04167,-100
31.05000,-97
31.05833,-94
31.06667,-91
31.07500,-88
31.08333,-85
31.09167,-82
31.10000,-79
31.10833,-76
31.11667,-72
31.12500,-69
31.13333,-66
31.14167,-64
31.15000,-61
31.15833,-59
31.16667,-56
31.17500,-54
31.18333,-51
31.19167,-49
31.20000,-47
31.20833,-45
31.21667,-43
31.22500,-40
31.23333,-38
31.24167,-36
31.25000,-34
31.25833,-33
31.26667,-31
31.27500,-29
31.28333,-27
31.29167,-25
31.30000,-24
31.30833,-22
31.31667,-21
31.32500,-19
31.33333,-18
31.34167,-17
31.35000,-16
31.35833,-14
31.36667,-13
31.37500,-12
31.38333,-11
31.39167,-10
31.40000,-9
31.40833,-8
31.41667,-7
31.42500,-6
31.43333,-5
31.44167,-4
31.45000,-3
31.45833,-2
31.46667,-1
31.47500,-0
31.48333,1
31.49167,2
31.50000,3
31.50833,4
31.51667,5
31.52500,6
31.53333,7
31.54167,8
31.55000,9
31.55833,11
31.56667,12
31.57500,13
31.58333,14
31.59167,16
31.60000,17
31.60833,18
31.61667,20
31.62500,22
31.63333,24
31.64167,26
31.65000,28
31.65833,31
31.66667,33
31.67500,36
31.68333,39
31.69167,41
31.70000,44
31.70833,47
31.71667,50
31.72500,53
31.73333,56
31.74167,60
31.75000,64
31.75833,68
31.76667,72
31.77500,76
31.78333,81
31.79167,85
31.80000,89
31.80833,93
31.81667,98
31.82500,102
31.83333,107
31.84167,112
31.85000,118
31.85833,123
31.86667,129
31.87500,134
31.88333,140
31.89167,145
31.90000,151
31.90833,156
31.91667,162
31.92500,168
31.93333,174
31.94167,180
31.95000,186
31.95833,192
31.96667,198
31.97500,204
31.98333,210
31.99167,216
32.00000,222
32.00833,228
32.01667,234
32.02500,239
32.03333,245
32.04167,251
32.05000,256
32.05833,261
32.06667,267
32.07500,272
32.08333,278
32.09167,283
32.10000,288
32.10833,293
32.11667,298
32.12500,303
32.13333,307
32.14167,312
32.15000,316
32.15833,320
32.16667,323
32.17500,327
32.18333,331
32.19167,334
32.20000,338
32.20833,341
32.21667,345
32.22500,348
32.23333,351
32.24167,353
32.25000,356
32.25833,359
32.26667,361
32.27500,363
32.28333,365
32.29167,366
32.30000,368
32.30833,369
32.31667,370
32.32500,372
32.33333,372
32.34167,373
32.35000,374
32.35833,374
32.36667,374
32.37500,374
32.38333,374
32.39167,374
32.40000,373
32.40833,372
32.41667,372
32.42500,371
32.43333,370
32.44167,369
32.45000,367
32.45833,366
32.46667,364
32.47500,361
32.48333,359
32.49167,356
32.50000,353
32.50833,350
32.51667,347
32.52500,344
32.53333,340
32.54167,336
32.55000,332
32.55833,328
32.56667,323
32.57500,319
32.58333,315
32.59167,310
32.60000,305
32.60833,300
32.61667,295
32.62500,289
32.63333,284
32.64167,279
32.65000,273
32.65833,268
32.66667,262
32.67500,256
32.68333,250
32.69167,244
32.70000,238
32.70833,233
32.71667,226
32.72500,221
32.73333,215
32.74167,209
32.75000,203
32.75833,197
32.76667,191
32.77500,186
32.78333,180
32.79167,174
32.80000,168
32.80833,163
32.81667,157
32.82500,151
32.83333,146
32.84167,141
32.85000,136
32.85833,131
32.86667,126
32.87500,121
32.88333,116
32.89167,112
32.90000,107
32.90833,103
32.91667,99
32.92500,95
32.93333,91
32.94167,87
32.95000,83
32.95833,80
32.96667,76
32.97500,73
32.98333,69
32.99167,66
33.00000,64
33.00833,61
33.01667,58
33.02500,55
33.03333,53
33.04167,50
33.05000,48
33.05833,46
33.06667,44
33.07500,41
33.08333,40
33.09167,38
33.10000,36
33.10833,34
33.11667,32
33.12500,31
33.13333,30
33.14167,28
33.15000,27
33.15833,26
33.16667,24
33.17500,23
33.18333,21
33.19167,20
33.20000,19
33.20833,18
33.21667,17
33.22500,16
33.23333,15
33.24167,14
33.25000,13
33.25833,12
33.26667,12
33.27500,11
33.28333,11
33.29167,10
33.30000,10
33.30833,9
33.31667,9
33.32500,9
33.33333,9
33.34167,8
33.35000,8
33.35833,7
33.36667,6
33.37500,6
33.38333,5
33.39167,4
33.40000,4
33.40833,4
33.41667,3
33.42500,3
33.43333,2
33.44167,2
33.45000,2
33.45833,2
33.46667,2
33.47500,2
33.48333,2
33.49167,1
33.50000,1
33.50833,1
33.51667,1
33.52500,1
33.53333,0
33.54167,-0
33.55000,-0
33.55833,-0
33.56667,-1
33.57500,-1
33.58333,-2
33.59167,-2
33.60000,-2
33.60833,-2
33.61667,-2
33.62500,-2
33.63333,-2
33.64167,-2
33.65000,-2
33.65833,-2
33.66667,-3
33.67500,-3
33.68333,-3
33.69167,-3
33.70000,-3
33.70833,-3
33.71667,-3
33.72500,-3
33.73333,-3
33.74167,-3
33.75000,-4
33.75833,-3
33.76667,-3
33.77500,-3
33.78333,-3
33.79167,-3
33.80000,-4
33.80833,-4
33.81667,-4
33.82500,-4
33.83333,-4
33.84167,-4
33.85000,-3
33.85833,-3
33.86667,-2
33.87500,-2
33.88333,-2
33.89167,-2
33.90000,-2
33.90833,-3
33.91667,-3
33.92500,-3
33.93333,-3
33.94167,-3
33.95000,-3
33.95833,-2
33.96667,-2
33.97500,-2
33.98333,-2
33.99167,-2
34.00000,-1
34.00833,-1
34.01667,-1
34.02500,-1
34.03333,-1
34.04167,-1
34.05000,-0
34.05833,0
34.06667,0
34.07500,1
34.08333,1
34.09167,1
34.10000,1
34.10833,1
34.11667,1
34.12500,1
34.13333,1
34.14167,1
34.15000,1
34.15833,1
34.16667,1
34.17500,1
34.18333,1
34.19167,1
34.20000,2
34.20833,2
34.21667,3
34.22500,3
34.23333,3
34.24167,3
34.25000,3
34.25833,3
34.26667,3
34.27500,3
34.28333,2
34.29167,2
34.30000,2
34.30833,3
34.31667,3
34.32500,4
34.33333,3
34.34167,3
34.35000,3
34.35833,3
34.36667,3
34.37500,4
34.38333,4
34.39167,4
34.40000,4
34.40833,4
34.41667,4
34.42500,4
34.43333,3
34.44167,3
34.45000,3
34.45833,3
34.46667,4
34.47500,4
34.48333,4
34.49167,4
34.50000,4
34.50833,4
34.51667,4
34.52500,4
34.53333,4
34.54167,4
34.55000,3
34.55833,4
34.56667,4
34.57500,4
34.58333,4
34.59167,4
34.60000,4
34.60833,4
34.61667,4
34.62500,4
34.63333,4
34.64167,4
34.65000,4
34.65833,4
34.66667,4
34.67500,4
34.68333,4
34.69167,4
34.70000,3
34.70833,4
34.71667,4
34.72500,4
34.73333,4
34.74167,4
34.75000,4
34.75833,3
34.76667,4
34.77500,4
34.78333,4
34.79167,4
34.80000,4
34.80833,4
34.81667,3
34.82500,3
34.83333,3
34.84167,3
34.85000,3
34.85833,3
34.86667,3
34.87500,3
34.88333,4
34.89167,3
34.90000,3
34.90833,3
34.91667,3
34.92500,3
34.93333,3
34.94167,4
34.95000,4
34.95833,3
34.96667,3
34.97500,3
34.98333,3
34.99167,3
35.00000,3
35.00833,3
35.01667,3
35.02500,3
35.03333,3
35.04167,3
35.05000,2
35.05833,2
35.06667,2
35.07500,3
35.08333,3
35.09167,3
35.10000,3
35.10833,3
35.11667,2
35.12500,2
35.13333,2
35.14167,2
35.15000,2
35.15833,2
35.16667,2
35.17500,2
35.18333,2
35.19167,2
35.20000,2
35.20833,3
35.21667,3
35.22500,3
35.23333,3
35.24167,2
35.25000,2
35.25833,2
35.26667,2
35.27500,2
35.28333,3
35.29167,3
35.30000,3
35.30833,3
35.31667,3
35.32500,2
35.33333,2
35.34167,2
35.35000,2
35.35833,2
35.36667,2
35.37500,3
35.38333,3
35.39167,3
35.40000,3
35.40833,3
35.41667,3
35.42500,3
35.43333,3
35.44167,3
35.45000,3
35.45833,3
35.46667,3
35.47500,2
35.48333,2
35.49167,2
35.50000,2
35.50833,3
35.51667,3
35.52500,2
35.53333,2
35.54167,2
35.55000,2
35.55833,2
35.56667,2
35.57500,2
35.58333,2
35.59167,1
35.60000,2
35.60833,2
35.61667,2
35.62500,1
35.63333,1
35.64167,1
35.65000,1
35.65833,1
35.66667,1
35.67500,2
35.68333,1
35.69167,1
35.70000,1
35.70833,1
35.71667,1
35.72500,0
35.73333,0
35.74167,0
35.75000,0
35.75833,1
35.76667,1
35.77500,1
35.78333,1
35.79167,1
35.80000,2
35.80833,2
35.81667,2
35.82500,2
35.83333,1
35.84167,1
35.85000,1
35.85833,1
35.86667,1
35.87500,1
35.88333,1
35.89167,1
35.90000,1
35.90833,1
35.91667,2
35.92500,2
35.93333,2
35.94167,2
35.95000,2
35.95833,1
35.96667,1
35.97500,1
35.98333,1
35.99167,1
36.00000,1
36.00833,1
36.01667,1
36.02500,0
36.03333,0
36.04167,0
36.05000,0
36.05833,0
36.06667,1
36.07500,1
36.08333,1
36.09167,1
36.10000,1
36.10833,1
36.11667,0
36.12500,0
36.13333,0
36.14167,0
36.15000,0
36.15833,0
36.16667,0
36.17500,0
36.18333,0
36.19167,0
36.20000,0
36.20833,0
36.21667,0
36.22500,1
36.23333,1
36.24167,1
36.25000,1
36.25833,1
36.26667,1
36.27500,1
36.28333,1
36.29167,1
36.30000,1
36.30833,1
36.31667,0
36.32500,0
36.33333,0
36.34167,0
36.35000,0
36.35833,0
36.36667,1
36.37500,0
36.38333,0
36.39167,-0
36.40000,0
36.40833,0
36.41667,1
36.42500,1
36.43333,1
36.44167,2
36.45000,2
36.45833,2
36.46667,2
36.47500,2
36.48333,2
36.49167,1
36.50000,1
36.50833,1
36.51667,1
36.52500,1
36.53333,1
36.54167,1
36.55000,1
36.55833,1
36.56667,0
36.57500,0
36.58333,0
36.59167,0
36.60000,0
36.60833,0
36.61667,0
36.62500,0
36.63333,0
36.64167,1
36.65000,1
36.65833,1
36.66667,1
36.67500,1
36.68333,1
36.69167,1
36.70000,1
36.70833,1
36.71667,1
36.72500,1
36.73333,1
36.74167,1
36.75000,0
36.75833,0
36.76667,1
36.77500,1
36.78333,1
36.79167,1
36.80000,1
36.80833,2
36.81667,2
36.82500,2
36.83333,2
36.84167,2
36.85000,1
36.85833,1
36.86667,1
36.87500,1
36.88333,1
36.89167,1
36.90000,1
36.90833,1
36.91667,1
36.92500,1
36.93333,1
36.94167,1
36.95000,2
36.95833,2
36.96667,1
36.97500,1
36.98333,2
36.99167,2
37.00000,2
37.00833,2
37.01667,2
37.02500,2
37.03333,2
37.04167,2
37.05000,2
37.05833,3
37.06667,3
37.07500,3
37.08333,3
37.09167,3
37.10000,3
37.10833,3
37.11667,2
37.12500,2
37.13333,2
37.14167,2
37.15000,2
37.15833,2
37.16667,2
37.17500,2
37.18333,2
37.19167,2
37.20000,2
37.20833,3
37.21667,3
37.22500,2
37.23333,3
37.24167,3
37.25000,3
37.25833,3
37.26667,3
37.27500,2
37.28333,2
37.29167,2
37.30000,2
37.30833,2
37.31667,2
37.32500,2
37.33333,2
37.34167,2
37.35000,2
37.35833,2
37.36667,3
37.37500,3
37.38333,3
37.39167,3
37.40000,2
37.40833,2
37.41667,3
37.42500,3
37.43333,3
37.44167,3
37.45000,3
37.45833,3
37.46667,3
37.47500,3
37.48333,3
37.49167,3
37.50000,3
37.50833,3
37.51667,3
37.52500,3
37.53333,4
37.54167,4
37.55000,4
37.55833,4
37.56667,4
37.57500,4
37.58333,4
37.59167,4
37.60000,4
37.60833,4
37.61667,4
37.62500,4
37.63333,4
37.64167,4
37.65000,3
37.65833,3
37.66667,3
37.67500,3
37.68333,3
37.69167,3
37.70000,3
37.70833,3
37.71667,3
37.72500,3
37.73333,3
37.74167,3
37.75000,3
37.75833,3
37.76667,3
37.77500,3
37.78333,3
37.79167,4
37.80000,4
37.80833,4
37.81667,4
37.82500,4
37.83333,4
37.84167,3
37.85000,3
37.85833,3
37.86667,3
37.87500,3
37.88333,3
37.89167,3
37.90000,2
37.90833,2
37.91667,2
37.92500,2
37.93333,2
37.94167,2
37.95000,2
37.95833,2
37.96667,2
37.97500,3
37.98333,3
37.99167,3
38.00000,3
38.00833,3
38.01667,3
38.02500,3
38.03333,3
38.04167,3
38.05000,3
38.05833,3
38.06667,2
38.07500,2
38.08333,2
38.09167,2
38.10000,2
38.10833,2
38.11667,2
38.12500,3
38.13333,3
38.14167,3
38.15000,3
38.15833,3
38.16667,3
38.17500,3
38.18333,3
38.19167,3
38.20000,3
38.20833,3
38.21667,3
38.22500,2
38.23333,2
38.24167,2
38.25000,2
38.25833,2
38.26667,2
38.27500,2
38.28333,2
38.29167,2
38.30000,1
38.30833,1
38.31667,1
38.32500,1
38.33333,1
38.34167,1
38.35000,1
38.35833,1
38.36667,1
38.37500,1
38.38333,1
38.39167,1
38.40000,1
38.40833,1
38.41667,1
38.42500,0
38.43333,0
38.44167,0
38.45000,0
38.45833,0
38.46667,0
38.47500,0
38.48333,0
38.49167,1
38.50000,1
38.50833,1
38.51667,1
38.52500,1
38.53333,1
38.54167,1
38.55000,1
38.55833,1
38.56667,1
38.57500,1
38.58333,1
38.59167,1
38.60000,1
38.60833,0
38.61667,0
38.62500,0
38.63333,0
38.64167,0
38.65000,-0
38.65833,-1
38.66667,-1
38.67500,-1
38.68333,-2
38.69167,-2
38.70000,-2
38.70833,-2
38.71667,-2
38.72500,-1
38.73333,-1
38.74167,-1
38.75000,-1
38.75833,-1
38.76667,-1
38.77500,-0
38.78333,-0
38.79167,-0
38.80000,-0
38.80833,-0
38.81667,-0
38.82500,-1
38.83333,-1
38.84167,-1
38.85000,-2
38.85833,-2
38.86667,-2
38.87500,-2
38.88333,-2
38.89167,-2
38.90000,-2
38.90833,-2
38.91667,-2
38.92500,-2
38.93333,-2
38.94167,-2
38.95000,-2
38.95833,-2
38.96667,-2
38.97500,-2
38.98333,-2
38.99167,-2
39.00000,-3
39.00833,-3
39.01667,-3
39.02500,-3
39.03333,-3
39.04167,-3
39.05000,-3
39.05833,-3
39.06667,-3
39.07500,-3
39.08333,-3
39.09167,-3
39.10000,-3
39.10833,-3
39.11667,-3
39.12500,-3
39.13333,-3
39.14167,-3
39.15000,-4
39.15833,-4
39.16667,-4
39.17500,-4
39.18333,-4
39.19167,-3
39.20000,-3
39.20833,-3
39.21667,-3
39.22500,-3
39.23333,-3
39.24167,-3
39.25000,-3
39.25833,-3
39.26667,-3
39.27500,-3
39.28333,-3
39.29167,-4
39.30000,-4
39.30833,-5
39.31667,-5
39.32500,-4
39.33333,-4
39.34167,-4
39.35000,-4
39.35833,-4
39.36667,-4
39.37500,-4
39.38333,-4
39.39167,-4
39.40000,-4
39.40833,-4
39.41667,-5
39.42500,-5
39.43333,-5
39.44167,-5
39.45000,-5
39.45833,-6
39.46667,-6
39.47500,-5
39.48333,-5
39.49167,-5
39.50000,-5
39.50833,-5
39.51667,-4
39.52500,-4
39.53333,-4
39.54167,-4
39.55000,-4
39.55833,-4
39.56667,-5
39.57500,-5
39.58333,-5
39.59167,-5
39.60000,-5
39.60833,-5
39.61667,-5
39.62500,-5
39.63333,-5
39.64167,-5
39.65000,-5
39.65833,-5
39.66667,-5
39.67500,-5
39.68333,-5
39.69167,-5
39.70000,-5
39.70833,-5
39.71667,-5
39.72500,-5
39.73333,-5
39.74167,-5
39.75000,-5
39.75833,-5
39.76667,-5
39.77500,-5
39.78333,-4
39.79167,-4
39.80000,-4
39.80833,-5
39.81667,-5
39.82500,-5
39.83333,-4
39.84167,-4
39.85000,-4
39.85833,-5
39.86667,-5
39.87500,-5
39.88333,-5
39.89167,-6
39.90000,-6
39.90833,-6
39.91667,-6
39.92500,-6
39.93333,-6
39.94167,-6
39.95000,-6
39.95833,-6
39.96667,-6
39.97500,-5
39.98333,-5
39.99167,-5
40.00000,-5
40.00833,-5
40.01667,-5
40.02500,-5
40.03333,-6
40.04167,-6
40.05000,-6
40.05833,-6
40.06667,-6
40.07500,-6
40.08333,-5
40.09167,-6
40.10000,-6
40.10833,-7
40.11667,-7
40.12500,-6
40.13333,-6
40.14167,-6
40.15000,-6
40.15833,-6
40.16667,-6
40.17500,-6
40.18333,-6
40.19167,-6
40.20000,-6
40.20833,-6
40.21667,-6
40.22500,-6
40.23333,-6
40.24167,-6
40.25000,-6
40.25833,-6
40.26667,-7
40.27500,-7
40.28333,-7
40.29167,-7
40.30000,-7
40.30833,-7
40.31667,-8
40.32500,-8
40.33333,-8
40.34167,-8
40.35000,-7
40.35833,-7
40.36667,-7
40.37500,-7
40.38333,-7
40.39167,-7
40.40000,-8
40.40833,-8
40.41667,-8
40.42500,-8
40.43333,-8
40.44167,-8
40.45000,-8
40.45833,-8
40.46667,-8
40.47500,-8
40.48333,-8
40.49167,-8
40.50000,-8
40.50833,-8
40.51667,-9
40.52500,-9
40.53333,-9
40.54167,-8
40.55000,-8
40.55833,-9
40.56667,-9
40.57500,-9
40.58333,-9
40.59167,-9
40.60000,-9
40.60833,-8
40.61667,-9
40.62500,-9
40.63333,-9
40.64167,-9
40.65000,-9
40.65833,-10
40.66667,-10
40.67500,-10
40.68333,-10
40.69167,-10
40.70000,-10
40.70833,-10
40.71667,-9
40.72500,-9
40.73333,-9
40.74167,-10
40.75000,-10
40.75833,-10
40.76667,-10
40.77500,-10
40.78333,-10
40.79167,-10
40.80000,-10
40.80833,-10
40.81667,-9
40.82500,-9
40.83333,-10
40.84167,-10
40.85000,-10
40.85833,-9
40.86667,-9
40.87500,-10
40.88333,-10
40.89167,-11
40.90000,-11
40.90833,-11
40.91667,-11
40.92500,-11
40.93333,-11
40.94167,-10
40.95000,-10
40.95833,-10
40.96667,-11
40.97500,-11
40.98333,-11
40.99167,-11
41.00000,-10
41.00833,-10
41.01667,-10
41.02500,-10
41.03333,-10
41.04167,-10
41.05000,-10
41.05833,-10
41.06667,-10
41.07500,-10
41.08333,-10
41.09167,-10
41.10000,-10
41.10833,-10
41.11667,-11
41.12500,-11
41.13333,-11
41.14167,-10
41.15000,-10
41.15833,-10
41.16667,-10
41.17500,-10
41.18333,-10
41.19167,-10
41.20000,-10
41.20833,-9
41.21667,-9
41.22500,-10
41.23333,-10
41.24167,-10
41.25000,-10
41.25833,-10
41.26667,-10
41.27500,-10
41.28333,-10
41.29167,-10
41.30000,-10
41.30833,-10
41.31667,-10
41.32500,-10
41.33333,-10
41.34167,-10
41.35000,-10
41.35833,-11
41.36667,-11
41.37500,-10
41.38333,-10
41.39167,-10
41.40000,-10
41.40833,-10
41.41667,-10
41.42500,-10
41.43333,-10
41.44167,-10
41.45000,-10
41.45833,-10
41.46667,-10
41.47500,-10
41.48333,-10
41.49167,-10
41.50000,-11
41.50833,-11
41.51667,-11
41.52500,-11
41.53333,-11
41.54167,-11
41.55000,-11
41.55833,-11
41.56667,-11
41.57500,-10
41.58333,-10
41.59167,-10
41.60000,-10
41.60833,-10
41.61667,-10
41.62500,-10
41.63333,-10
41.64167,-10
41.65000,-10
41.65833,-10
41.66667,-10
41.67500,-10
41.68333,-10
41.69167,-10
41.70000,-10
41.70833,-10
41.71667,-9
41.72500,-10
41.73333,-10
41.74167,-10
41.75000,-10
41.75833,-9
41.76667,-9
41.77500,-9
41.78333,-9
41.79167,-9
41.80000,-9
41.80833,-10
41.81667,-10
41.82500,-10
41.83333,-9
41.84167,-9
41.85000,-9
41.85833,-10
41.86667,-10
41.87500,-10
41.88333,-10
41.89167,-10
41.90000,-10
41.90833,-10
41.91667,-9
41.92500,-9
41.93333,-10
41.94167,-10
41.95000,-10
41.95833,-9
41.96667,-9
41.97500,-9
41.98333,-9
41.99167,-9
42.00000,-9
42.00833,-9
42.01667,-9
42.02500,-9
42.03333,-9
42.04167,-9
42.05000,-9
42.05833,-9
42.06667,-9
42.07500,-9
42.08333,-9
42.09167,-10
42.10000,-10
42.10833,-10
42.11667,-10
42.12500,-10
42.13333,-9
42.14167,-9
42.15000,-9
42.15833,-9
42.16667,-9
42.17500,-8
42.18333,-8
42.19167,-9
42.20000,-9
42.20833,-9
42.21667,-9
42.22500,-9
42.23333,-9
42.24167,-9
42.25000,-9
42.25833,-8
42.26667,-8
42.27500,-8
42.28333,-9
42.29167,-9
42.30000,-10
42.30833,-10
42.31667,-10
42.32500,-10
42.33333,-10
42.34167,-9
42.35000,-9
42.35833,-9
42.36667,-9
42.37500,-8
42.38333,-8
42.39167,-8
42.40000,-8
42.40833,-8
42.41667,-8
42.42500,-8
42.43333,-8
42.44167,-8
42.45000,-8
42.45833,-8
42.46667,-8
42.47500,-8
42.48333,-8
42.49167,-8
42.50000,-8
42.50833,-8
42.51667,-8
42.52500,-8
42.53333,-9
42.54167,-9
42.55000,-9
42.55833,-9
42.56667,-9
42.57500,-9
42.58333,-9
42.59167,-9
42.60000,-9
42.60833,-9
42.61667,-9
42.62500,-9
42.63333,-9
42.64167,-9
42.65000,-9
42.65833,-9
42.66667,-9
42.67500,-9
42.68333,-9
42.69167,-8
42.70000,-8
42.70833,-8
42.71667,-8
42.72500,-8
42.73333,-9
42.74167,-9
42.75000,-9
42.75833,-9
42.76667,-9
42.77500,-9
42.78333,-9
42.79167,-9
42.80000,-9
42.80833,-9
42.81667,-9
42.82500,-9
42.83333,-9
42.84167,-9
42.85000,-9
42.85833,-9
42.86667,-8
42.87500,-8
42.88333,-8
42.89167,-8
42.90000,-8
42.90833,-8
42.91667,-8
42.92500,-8
42.93333,-8
42.94167,-8
42.95000,-8
42.95833,-9
42.96667,-9
42.97500,-9
42.98333,-9
42.99167,-10
43.00000,-10
43.00833,-9
43.01667,-9
43.02500,-9
43.03333,-9
43.04167,-9
43.05000,-9
43.05833,-8
43.06667,-8
43.07500,-8
43.08333,-8
43.09167,-8
43.10000,-8
43.10833,-8
43.11667,-9
43.12500,-9
43.13333,-9
43.14167,-9
43.15000,-9
43.15833,-9
43.16667,-8
43.17500,-9
43.18333,-9
43.19167,-9
43.20000,-9
43.20833,-9
43.21667,-9
43.22500,-9
43.23333,-9
43.24167,-9
43.25000,-9
43.25833,-8
43.26667,-9
43.27500,-9
43.28333,-9
43.29167,-9
43.30000,-9
43.30833,-9
43.31667,-9
43.32500,-9
43.33333,-9
43.34167,-9
43.35000,-9
43.35833,-9
43.36667,-9
43.37500,-9
43.38333,-9
43.39167,-9
43.40000,-8
43.40833,-8
43.41667,-8
43.42500,-8
43.43333,-8
43.44167,-8
43.45000,-7
43.45833,-7
43.46667,-7
43.47500,-8
43.48333,-8
43.49167,-8
43.50000,-9
43.50833,-9
43.51667,-8
43.52500,-8
43.53333,-8
43.54167,-8
43.55000,-8
43.55833,-8
43.56667,-9
43.57500,-9
43.58333,-9
43.59167,-8
43.60000,-8
43.60833,-8
43.61667,-7
43.62500,-7
43.63333,-8
43.64167,-7
43.65000,-7
43.65833,-7
43.66667,-7
43.67500,-7
43.68333,-8
43.69167,-8
43.70000,-7
43.70833,-7
43.71667,-7
43.72500,-7
43.73333,-8
43.74167,-8
43.75000,-8
43.75833,-8
43.76667,-8
43.77500,-8
43.78333,-8
43.79167,-8
43.80000,-8
43.80833,-8
43.81667,-8
43.82500,-8
43.83333,-7
43.84167,-7
43.85000,-7
43.85833,-7
43.86667,-7
43.87500,-8
43.88333,-8
43.89167,-7
43.90000,-7
43.90833,-8
43.91667,-8
43.92500,-8
43.93333,-8
43.94167,-8
43.95000,-8
43.95833,-7
43.96667,-7
43.97500,-7
43.98333,-7
43.99167,-7
44.00000,-7
44.00833,-7
44.01667,-8
44.02500,-8
44.03333,-8
44.04167,-8
44.05000,-9
44.05833,-9
44.06667,-10
44.07500,-10
44.08333,-10
44.09167,-10
44.10000,-9
44.10833,-9
44.11667,-9
44.12500,-9
44.13333,-9
44.14167,-9
44.15000,-9
44.15833,-9
44.16667,-9
44.17500,-9
44.18333,-9
44.19167,-9
44.20000,-9
44.20833,-9
44.21667,-9
44.22500,-8
44.23333,-8
44.24167,-8
44.25000,-9
44.25833,-9
44.26667,-10
44.27500,-10
44.28333,-10
44.29167,-10
44.30000,-10
44.30833,-10
44.31667,-10
44.32500,-10
44.33333,-10
44.34167,-9
44.35000,-9
44.35833,-9
44.36667,-9
44.37500,-9
44.38333,-9
44.39167,-9
44.40000,-9
44.40833,-9
44.41667,-9
44.42500,-9
44.43333,-9
44.44167,-9
44.45000,-9
44.45833,-9
44.46667,-9
44.47500,-9
44.48333,-10
44.49167,-9
44.50000,-9
44.50833,-9
44.51667,-9
44.52500,-9
44.53333,-9
44.54167,-9
44.55000,-10
44.55833,-10
44.56667,-10
44.57500,-10
44.58333,-10
44.59167,-10
44.60000,-10
44.60833,-10
44.61667,-10
44.62500,-10
44.63333,-10
44.64167,-10
44.65000,-10
44.65833,-10
44.66667,-10
44.67500,-10
44.68333,-10
44.69167,-10
44.70000,-10
44.70833,-10
44.71667,-10
44.72500,-10
44.73333,-10
44.74167,-10
44.75000,-10
44.75833,-11
44.76667,-11
44.77500,-11
44.78333,-11
44.79167,-10
44.80000,-10
44.80833,-11
44.81667,-11
44.82500,-11
44.83333,-11
44.84167,-11
44.85000,-11
44.85833,-11
44.86667,-11
44.87500,-11
44.88333,-11
44.89167,-11
44.90000,-11
44.90833,-11
44.91667,-11
44.92500,-11
44.93333,-11
44.94167,-11
44.95000,-11
44.95833,-11
44.96667,-11
44.97500,-11
44.98333,-12
44.99167,-12
45.00000,-11
45.00833,-11
45.01667,-11
45.02500,-11
45.03333,-11
45.04167,-11
45.05000,-11
45.05833,-12
45.06667,-12
45.07500,-12
45.08333,-12
45.09167,-11
45.10000,-11
45.10833,-12
45.11667,-12
45.12500,-12
45.13333,-11
45.14167,-11
45.15000,-11
45.15833,-12
45.16667,-12
45.17500,-12
45.18333,-13
45.19167,-13
45.20000,-12
45.20833,-12
45.21667,-12
45.22500,-12
45.23333,-11
45.24167,-11
45.25000,-11
45.25833,-11
45.26667,-11
45.27500,-12
45.28333,-12
45.29167,-12
45.30000,-12
45.30833,-12
45.31667,-12
45.32500,-12
45.33333,-12
45.34167,-12
45.35000,-12
45.35833,-12
45.36667,-12
45.37500,-12
45.38333,-12
45.39167,-12
45.40000,-11
45.40833,-11
45.41667,-11
45.42500,-11
45.43333,-11
45.44167,-11
45.45000,-11
45.45833,-11
45.46667,-11
45.47500,-11
45.48333,-11
45.49167,-11
45.50000,-11
45.50833,-11
45.51667,-11
45.52500,-12
45.53333,-12
45.54167,-12
45.55000,-12
45.55833,-12
45.56667,-11
45.57500,-11
45.58333,-11
45.59167,-11
45.60000,-11
45.60833,-11
45.61667,-11
45.62500,-11
45.63333,-11
45.64167,-11
45.65000,-10
45.65833,-10
45.66667,-11
45.67500,-11
45.68333,-11
45.69167,-12
45.70000,-12
45.70833,-11
45.71667,-12
45.72500,-12
45.73333,-12
45.74167,-12
45.75000,-12
45.75833,-12
45.76667,-12
45.77500,-12
45.78333,-12
45.79167,-12
45.80000,-12
45.80833,-12
45.81667,-11
45.82500,-11
45.83333,-11
45.84167,-11
45.85000,-11
45.85833,-11
45.86667,-11
45.87500,-11
45.88333,-11
45.89167,-11
45.90000,-11
45.90833,-11
45.91667,-12
45.92500,-11
45.93333,-11
45.94167,-11
45.95000,-11
45.95833,-10
45.96667,-10
45.97500,-10
45.98333,-10
45.99167,-10
46.00000,-11
46.00833,-11
46.01667,-11
46.02500,-11
46.03333,-11
46.04167,-11
46.05000,-11
46.05833,-11
46.06667,-11
46.07500,-11
46.08333,-11
46.09167,-11
46.10000,-11
46.10833,-11
46.11667,-11
46.12500,-11
46.13333,-11
46.14167,-11
46.15000,-11
46.15833,-12
46.16667,-12
46.17500,-12
46.18333,-11
46.19167,-11
46.20000,-12
46.20833,-12
46.21667,-11
46.22500,-11
46.23333,-11
46.24167,-11
46.25000,-11
46.25833,-11
46.26667,-11
46.27500,-11
46.28333,-11
46.29167,-12
46.30000,-12
46.30833,-12
46.31667,-12
46.32500,-12
46.33333,-11
46.34167,-11
46.35000,-11
46.35833,-11
46.36667,-11
46.37500,-11
46.38333,-11
46.39167,-11
46.40000,-11
46.40833,-11
46.41667,-11
46.42500,-11
46.43333,-11
46.44167,-12
46.45000,-12
46.45833,-11
46.46667,-11
46.47500,-11
46.48333,-11
46.49167,-11
46.50000,-11
46.50833,-11
46.51667,-11
46.52500,-11
46.53333,-11
46.54167,-11
46.55000,-11
46.55833,-11
46.56667,-11
46.57500,-11
46.58333,-11
46.59167,-11
46.60000,-11
46.60833,-11
46.61667,-11
46.62500,-12
46.63333,-12
46.64167,-11
46.65000,-11
46.65833,-11
46.66667,-11
46.67500,-11
46.68333,-11
46.69167,-11
46.70000,-11
46.70833,-11
46.71667,-11
46.72500,-11
46.73333,-11
46.74167,-11
46.75000,-11
46.75833,-11
46.76667,-11
46.77500,-11
46.78333,-11
46.79167,-11
46.80000,-12
46.80833,-12
46.81667,-12
46.82500,-12
46.83333,-12
46.84167,-12
46.85000,-12
46.85833,-12
46.86667,-12
46.87500,-12
46.88333,-12
46.89167,-11
46.90000,-11
46.90833,-11
46.91667,-11
46.92500,-11
46.93333,-11
46.94167,-11
46.95000,-11
46.95833,-10
46.96667,-10
46.97500,-10
46.98333,-10
46.99167,-10
47.00000,-10
47.00833,-11
47.01667,-11
47.02500,-11
47.03333,-11
47.04167,-11
47.05000,-11
47.05833,-11
47.06667,-11
47.07500,-11
47.08333,-12
47.09167,-12
47.10000,-11
47.10833,-11
47.11667,-11
47.12500,-11
47.13333,-11
47.14167,-11
47.15000,-11
47.15833,-11
47.16667,-11
47.17500,-11
47.18333,-11
47.19167,-11
47.20000,-11
47.20833,-11
47.21667,-11
47.22500,-11
47.23333,-11
47.24167,-11
47.25000,-11
47.25833,-11
47.26667,-11
47.27500,-11
47.28333,-11
47.29167,-11
47.30000,-11
47.30833,-11
47.31667,-11
47.32500,-11
47.33333,-11
47.34167,-11
47.35000,-11
47.35833,-11
47.36667,-11
47.37500,-11
47.38333,-11
47.39167,-11
47.40000,-11
47.40833,-11
47.41667,-11
47.42500,-11
47.43333,-11
47.44167,-10
47.45000,-10
47.45833,-10
47.46667,-10
47.47500,-10
47.48333,-11
47.49167,-11
47.50000,-11
47.50833,-12
47.51667,-12
47.52500,-12
47.53333,-11
47.54167,-11
47.55000,-11
47.55833,-11
47.56667,-11
47.57500,-11
47.58333,-10
47.59167,-11
47.60000,-11
47.60833,-11
47.61667,-10
47.62500,-10
47.63333,-10
47.64167,-10
47.65000,-10
47.65833,-10
47.66667,-10
47.67500,-10
47.68333,-11
47.69167,-11
47.70000,-11
47.70833,-11
47.71667,-11
47.72500,-11
47.73333,-11
47.74167,-11
47.75000,-10
47.75833,-10
47.76667,-10
47.77500,-10
47.78333,-10
47.79167,-10
47.80000,-10
47.80833,-10
47.81667,-10
47.82500,-10
47.83333,-10
47.84167,-10
47.85000,-10
47.85833,-10
47.86667,-10
47.87500,-10
47.88333,-10
47.89167,-9
47.90000,-9
47.90833,-9
47.91667,-10
47.92500,-10
47.93333,-10
47.94167,-10
47.95000,-10
47.95833,-10
47.96667,-10
47.97500,-10
47.98333,-10
47.99167,-10
48.00000,-11
48.00833,-11
48.01667,-11
48.02500,-11
48.03333,-11
48.04167,-11
48.05000,-11
48.05833,-10
48.06667,-10
48.07500,-10
48.08333,-10
48.09167,-10
48.10000,-10
48.10833,-10
48.11667,-10
48.12500,-11
48.13333,-11
48.14167,-11
48.15000,-11
48.15833,-11
48.16667,-11
48.17500,-11
48.18333,-11
48.19167,-11
48.20000,-11
48.20833,-11
48.21667,-11
48.22500,-10
48.23333,-10
48.24167,-11
48.25000,-11
48.25833,-11
48.26667,-11
48.27500,-11
48.28333,-10
48.29167,-10
48.30000,-10
48.30833,-10
48.31667,-10
48.32500,-10
48.33333,-10
48.34167,-10
48.35000,-10
48.35833,-10
48.36667,-11
48.37500,-11
48.38333,-11
48.39167,-11
48.40000,-11
48.40833,-11
48.41667,-11
48.42500,-12
48.43333,-12
48.44167,-11
48.45000,-11
48.45833,-11
48.46667,-11
48.47500,-11
48.48333,-12
48.49167,-12
48.50000,-12
48.50833,-12
48.51667,-12
48.52500,-12
48.53333,-12
48.54167,-12
48.55000,-12
48.55833,-12
48.56667,-12
48.57500,-11
48.58333,-11
48.59167,-11
48.60000,-11
48.60833,-11
48.61667,-11
48.62500,-11
48.63333,-11
48.64167,-11
48.65000,-11
48.65833,-10
48.66667,-10
48.67500,-10
48.68333,-10
48.69167,-11
48.70000,-10
48.70833,-10
48.71667,-10
48.72500,-11
48.73333,-10
48.74167,-11
48.75000,-10
48.75833,-10
48.76667,-10
48.77500,-10
48.78333,-10
48.79167,-10
48.80000,-10
48.80833,-11
48.81667,-11
48.82500,-11
48.83333,-12
48.84167,-12
48.85000,-11
48.85833,-12
48.86667,-11
48.87500,-11
48.88333,-11
48.89167,-11
48.90000,-11
48.90833,-11
48.91667,-11
48.92500,-11
48.93333,-11
48.94167,-11
48.95000,-11
48.95833,-11
48.96667,-11
48.97500,-11
48.98333,-11
48.99167,-11
49.00000,-11
49.00833,-11
49.01667,-11
49.02500,-11
49.03333,-11
49.04167,-11
49.05000,-11
49.05833,-11
49.06667,-11
49.07500,-11
49.08333,-11
49.09167,-11
49.10000,-11
49.10833,-11
49.11667,-11
49.12500,-11
49.13333,-11
49.14167,-11
49.15000,-11
49.15833,-11
49.16667,-11
49.17500,-11
49.18333,-10
49.19167,-10
49.20000,-11
49.20833,-11
49.21667,-11
49.22500,-11
49.23333,-11
49.24167,-11
49.25000,-11
49.25833,-11
49.26667,-11
49.27500,-11
49.28333,-10
49.29167,-10
49.30000,-11
49.30833,-11
49.31667,-11
49.32500,-11
49.33333,-11
49.34167,-11
49.35000,-10
49.35833,-10
49.36667,-10
49.37500,-10
49.38333,-10
49.39167,-10
49.40000,-9
49.40833,-10
49.41667,-10
49.42500,-11
49.43333,-10
49.44167,-10
49.45000,-10
49.45833,-9
49.46667,-9
49.47500,-8
49.48333,-8
49.49167,-8
49.50000,-8
49.50833,-8
49.51667,-9
49.52500,-9
49.53333,-10
49.54167,-10
49.55000,-10
49.55833,-10
49.56667,-10
49.57500,-10
49.58333,-10
49.59167,-9
49.60000,-9
49.60833,-9
49.61667,-9
49.62500,-9
49.63333,-10
49.64167,-10
49.65000,-9
49.65833,-9
49.66667,-9
49.67500,-9
49.68333,-8
49.69167,-8
49.70000,-8
49.70833,-8
49.71667,-8
49.72500,-8
49.73333,-9
49.74167,-9
49.75000,-8
49.75833,-8
49.76667,-8
49.77500,-9
49.78333,-9
49.79167,-8
49.80000,-8
49.80833,-8
49.81667,-8
49.82500,-8
49.83333,-8
49.84167,-8
49.85000,-8
49.85833,-8
49.86667,-7
49.87500,-7
49.88333,-7
49.89167,-7
49.90000,-7
49.90833,-7
49.91667,-6
49.92500,-6
49.93333,-6
49.94167,-5
49.95000,-5
49.95833,-6
49.96667,-6
49.97500,-6
49.98333,-5
49.99167,-5
50.00000,-5

