[Header]
Application Name,LabSolutions
Version,5.97 SP1
Data File Name,C:\Users\cremerlab\Desktop\Richa\Oct_18th_2022_yield_expt\Oct 18th 2022 yield expt_10182022_001_017.lcd
Output Date,10/19/2022
Output Time,7:06:43 AM

[File Information]
Type,Data File
Generated,10/19/2022 6:16:24 AM
Generated by,System Administrator
Modified,10/19/2022 7:06:43 AM
Modified by,System Administrator

[Sample Information]
Operator Name,System Administrator
Acquired,10/19/2022 6:16:42 AM
Sample Type,0:Unknown
Level,0
Sample Name,101822_BT_4
Sample ID,001
ISTD Amount1,1
ISTD Amount2,1
ISTD Amount3,1
ISTD Amount4,1
ISTD Amount5,1
ISTD Amount6,1
ISTD Amount7,1
ISTD Amount8,1
ISTD Amount9,1
ISTD Amount10,1
ISTD Amount11,1
ISTD Amount12,1
ISTD Amount13,1
ISTD Amount14,1
ISTD Amount15,1
ISTD Amount16,1
ISTD Amount17,1
ISTD Amount18,1
ISTD Amount19,1
ISTD Amount20,1
ISTD Amount21,1
ISTD Amount22,1
ISTD Amount23,1
ISTD Amount24,1
ISTD Amount25,1
ISTD Amount26,1
ISTD Amount27,1
ISTD Amount28,1
ISTD Amount29,1
ISTD Amount30,1
ISTD Amount31,1
ISTD Amount32,1
Sample Amount,1
Dilution Factor,1
Vial#,16
Injection Volume,20

[Original Files]
Data File,C:\Users\cremerlab\Desktop\Richa\Oct_18th_2022_yield_expt\Oct 18th 2022 yield expt_10182022_001_017.lcd
Method File,C:\Users\cremerlab\Desktop\Richa\acetate_excretion.lcm
Batch File,C:\Users\cremerlab\Desktop\Richa\Oct_18th_2022_yield_expt\Oct 18th 2022 yield expt.lcb
Report Format File,c:\LabSolutions\System\DEFAULT.lsr

[File Description]


[Configuration]
Instrument Name,HPLC-PC-Instrument1
Instrument #,1
Line #,1
# of Detectors,2
Detector ID,Detector A,Detector B
Detector Name,Detector A,Detector B
# of Channels,1,1

[Peak Table(Detector A)]
# of Peaks,0

[Peak Table(Detector B)]
# of Peaks,8
Peak#,R.Time,I.Time,F.Time,Area,Height,A/H,Conc.,Mark,ID#,Name,k',Plate #,Plate Ht.,Tailing,Resolution,Sep.Factor,Area Ratio,Height Ratio,Conc. %,Norm Conc.
1,11.033,10.558,12.642,2218766,114737,19.338,0.000,   ,,,0.000,7734,19.394,0.922,0.000,0.000,0,0,0.000,0.000
2,14.358,12.642,15.192,3718810,78113,47.608,0.000, V ,,,0.301,2439,61.504,0.653,3.995,0.000,0,0,0.000,0.000
3,15.779,15.192,18.292,1452841,48325,30.064,0.000, V ,,,0.430,6739,22.260,1.146,1.470,1.427,0,0,0.000,0.000
4,20.989,20.375,21.392,20863,592,35.234,0.000,   ,,,0.902,6927,21.654,0.000,5.863,2.098,0,0,0.000,0.000
5,21.924,21.392,22.583,62417,1676,37.242,0.000, V ,,,0.987,8138,18.433,0.000,0.943,1.094,0,0,0.000,0.000
6,23.134,22.583,23.942,22318,599,37.253,0.000, V ,,,1.097,8722,17.197,0.000,1.233,1.111,0,0,0.000,0.000
7,25.092,24.283,26.150,168079,4203,39.990,0.000,   ,,,1.274,9138,16.414,1.049,1.919,1.162,0,0,0.000,0.000
8,32.364,30.825,33.392,33757,566,59.590,0.000,   ,,,1.933,8171,18.357,0.799,5.859,1.517,0,0,0.000,0.000

[LC Chromatogram(Detector B-Ch1)]
Interval(msec),500
# of Points,6001
Start Time(min),0.000
End Time(min),50.000
Intensity Units,mV
Intensity Multiplier,0.001
R.Time (min),Intensity
0.00000,1
0.00833,1
0.01667,0
0.02500,0
0.03333,0
0.04167,0
0.05000,0
0.05833,0
0.06667,1
0.07500,1
0.08333,1
0.09167,1
0.10000,1
0.10833,1
0.11667,1
0.12500,1
0.13333,1
0.14167,1
0.15000,1
0.15833,1
0.16667,0
0.17500,0
0.18333,0
0.19167,1
0.20000,1
0.20833,1
0.21667,1
0.22500,1
0.23333,1
0.24167,1
0.25000,1
0.25833,1
0.26667,1
0.27500,1
0.28333,1
0.29167,1
0.30000,1
0.30833,2
0.31667,2
0.32500,1
0.33333,2
0.34167,1
0.35000,1
0.35833,1
0.36667,1
0.37500,1
0.38333,1
0.39167,2
0.40000,2
0.40833,2
0.41667,2
0.42500,2
0.43333,2
0.44167,1
0.45000,2
0.45833,2
0.46667,2
0.47500,2
0.48333,2
0.49167,2
0.50000,2
0.50833,2
0.51667,2
0.52500,2
0.53333,2
0.54167,1
0.55000,1
0.55833,1
0.56667,1
0.57500,1
0.58333,0
0.59167,0
0.60000,0
0.60833,0
0.61667,1
0.62500,1
0.63333,1
0.64167,1
0.65000,1
0.65833,1
0.66667,1
0.67500,1
0.68333,0
0.69167,0
0.70000,-0
0.70833,0
0.71667,0
0.72500,0
0.73333,0
0.74167,0
0.75000,0
0.75833,0
0.76667,0
0.77500,0
0.78333,0
0.79167,0
0.80000,0
0.80833,0
0.81667,0
0.82500,-0
0.83333,-0
0.84167,-0
0.85000,-0
0.85833,-0
0.86667,-0
0.87500,-0
0.88333,-0
0.89167,-1
0.90000,-1
0.90833,-1
0.91667,-1
0.92500,-1
0.93333,-1
0.94167,-1
0.95000,-1
0.95833,-1
0.96667,-2
0.97500,-2
0.98333,-2
0.99167,-2
1.00000,-1
1.00833,-1
1.01667,-1
1.02500,-1
1.03333,-1
1.04167,-1
1.05000,-1
1.05833,-1
1.06667,-1
1.07500,-1
1.08333,-2
1.09167,-2
1.10000,-2
1.10833,-2
1.11667,-2
1.12500,-2
1.13333,-2
1.14167,-2
1.15000,-2
1.15833,-2
1.16667,-3
1.17500,-3
1.18333,-3
1.19167,-3
1.20000,-3
1.20833,-3
1.21667,-3
1.22500,-3
1.23333,-3
1.24167,-2
1.25000,-2
1.25833,-2
1.26667,-3
1.27500,-3
1.28333,-3
1.29167,-3
1.30000,-3
1.30833,-3
1.31667,-3
1.32500,-3
1.33333,-4
1.34167,-4
1.35000,-4
1.35833,-4
1.36667,-4
1.37500,-4
1.38333,-4
1.39167,-4
1.40000,-5
1.40833,-5
1.41667,-5
1.42500,-5
1.43333,-4
1.44167,-4
1.45000,-4
1.45833,-4
1.46667,-4
1.47500,-4
1.48333,-4
1.49167,-5
1.50000,-5
1.50833,-5
1.51667,-5
1.52500,-5
1.53333,-5
1.54167,-5
1.55000,-5
1.55833,-5
1.56667,-5
1.57500,-5
1.58333,-5
1.59167,-5
1.60000,-5
1.60833,-5
1.61667,-5
1.62500,-5
1.63333,-5
1.64167,-5
1.65000,-5
1.65833,-4
1.66667,-5
1.67500,-5
1.68333,-5
1.69167,-5
1.70000,-5
1.70833,-5
1.71667,-5
1.72500,-5
1.73333,-6
1.74167,-6
1.75000,-6
1.75833,-6
1.76667,-5
1.77500,-5
1.78333,-5
1.79167,-6
1.80000,-6
1.80833,-6
1.81667,-6
1.82500,-6
1.83333,-6
1.84167,-6
1.85000,-6
1.85833,-6
1.86667,-6
1.87500,-6
1.88333,-6
1.89167,-6
1.90000,-6
1.90833,-6
1.91667,-6
1.92500,-6
1.93333,-6
1.94167,-6
1.95000,-6
1.95833,-6
1.96667,-6
1.97500,-5
1.98333,-5
1.99167,-5
2.00000,-6
2.00833,-5
2.01667,-5
2.02500,-6
2.03333,-6
2.04167,-6
2.05000,-6
2.05833,-6
2.06667,-6
2.07500,-6
2.08333,-6
2.09167,-6
2.10000,-6
2.10833,-6
2.11667,-6
2.12500,-6
2.13333,-5
2.14167,-5
2.15000,-6
2.15833,-6
2.16667,-5
2.17500,-5
2.18333,-5
2.19167,-5
2.20000,-6
2.20833,-6
2.21667,-6
2.22500,-5
2.23333,-5
2.24167,-5
2.25000,-5
2.25833,-6
2.26667,-6
2.27500,-6
2.28333,-6
2.29167,-6
2.30000,-6
2.30833,-6
2.31667,-5
2.32500,-5
2.33333,-5
2.34167,-5
2.35000,-5
2.35833,-5
2.36667,-6
2.37500,-5
2.38333,-5
2.39167,-5
2.40000,-5
2.40833,-5
2.41667,-5
2.42500,-5
2.43333,-5
2.44167,-5
2.45000,-5
2.45833,-5
2.46667,-5
2.47500,-5
2.48333,-4
2.49167,-5
2.50000,-5
2.50833,-5
2.51667,-5
2.52500,-5
2.53333,-5
2.54167,-5
2.55000,-5
2.55833,-5
2.56667,-6
2.57500,-5
2.58333,-5
2.59167,-5
2.60000,-6
2.60833,-6
2.61667,-6
2.62500,-6
2.63333,-6
2.64167,-6
2.65000,-6
2.65833,-6
2.66667,-5
2.67500,-5
2.68333,-5
2.69167,-5
2.70000,-5
2.70833,-6
2.71667,-6
2.72500,-6
2.73333,-6
2.74167,-6
2.75000,-6
2.75833,-6
2.76667,-6
2.77500,-6
2.78333,-6
2.79167,-6
2.80000,-6
2.80833,-6
2.81667,-6
2.82500,-5
2.83333,-5
2.84167,-5
2.85000,-6
2.85833,-6
2.86667,-7
2.87500,-7
2.88333,-7
2.89167,-6
2.90000,-6
2.90833,-5
2.91667,-5
2.92500,-5
2.93333,-5
2.94167,-5
2.95000,-5
2.95833,-6
2.96667,-6
2.97500,-6
2.98333,-6
2.99167,-6
3.00000,-6
3.00833,-6
3.01667,-6
3.02500,-6
3.03333,-6
3.04167,-6
3.05000,-6
3.05833,-6
3.06667,-6
3.07500,-5
3.08333,-5
3.09167,-5
3.10000,-5
3.10833,-5
3.11667,-5
3.12500,-5
3.13333,-5
3.14167,-5
3.15000,-5
3.15833,-5
3.16667,-5
3.17500,-5
3.18333,-5
3.19167,-5
3.20000,-5
3.20833,-5
3.21667,-6
3.22500,-6
3.23333,-6
3.24167,-6
3.25000,-6
3.25833,-6
3.26667,-6
3.27500,-6
3.28333,-6
3.29167,-6
3.30000,-6
3.30833,-5
3.31667,-5
3.32500,-5
3.33333,-5
3.34167,-5
3.35000,-5
3.35833,-5
3.36667,-5
3.37500,-5
3.38333,-6
3.39167,-6
3.40000,-6
3.40833,-6
3.41667,-6
3.42500,-6
3.43333,-6
3.44167,-6
3.45000,-6
3.45833,-6
3.46667,-5
3.47500,-5
3.48333,-5
3.49167,-5
3.50000,-5
3.50833,-5
3.51667,-5
3.52500,-5
3.53333,-6
3.54167,-6
3.55000,-6
3.55833,-7
3.56667,-7
3.57500,-7
3.58333,-7
3.59167,-6
3.60000,-6
3.60833,-6
3.61667,-6
3.62500,-6
3.63333,-6
3.64167,-5
3.65000,-5
3.65833,-6
3.66667,-6
3.67500,-7
3.68333,-7
3.69167,-7
3.70000,-7
3.70833,-6
3.71667,-6
3.72500,-6
3.73333,-6
3.74167,-6
3.75000,-6
3.75833,-6
3.76667,-6
3.77500,-6
3.78333,-6
3.79167,-6
3.80000,-6
3.80833,-5
3.81667,-5
3.82500,-6
3.83333,-6
3.84167,-6
3.85000,-6
3.85833,-6
3.86667,-7
3.87500,-6
3.88333,-6
3.89167,-7
3.90000,-6
3.90833,-6
3.91667,-6
3.92500,-6
3.93333,-6
3.94167,-6
3.95000,-6
3.95833,-6
3.96667,-6
3.97500,-6
3.98333,-6
3.99167,-7
4.00000,-7
4.00833,-7
4.01667,-6
4.02500,-6
4.03333,-6
4.04167,-7
4.05000,-7
4.05833,-6
4.06667,-6
4.07500,-6
4.08333,-6
4.09167,-7
4.10000,-7
4.10833,-7
4.11667,-7
4.12500,-7
4.13333,-7
4.14167,-6
4.15000,-6
4.15833,-6
4.16667,-5
4.17500,-6
4.18333,-6
4.19167,-6
4.20000,-6
4.20833,-6
4.21667,-6
4.22500,-6
4.23333,-6
4.24167,-6
4.25000,-6
4.25833,-6
4.26667,-6
4.27500,-6
4.28333,-7
4.29167,-7
4.30000,-7
4.30833,-7
4.31667,-7
4.32500,-6
4.33333,-6
4.34167,-6
4.35000,-6
4.35833,-6
4.36667,-6
4.37500,-6
4.38333,-6
4.39167,-6
4.40000,-6
4.40833,-6
4.41667,-6
4.42500,-6
4.43333,-7
4.44167,-7
4.45000,-7
4.45833,-7
4.46667,-7
4.47500,-7
4.48333,-6
4.49167,-6
4.50000,-6
4.50833,-6
4.51667,-6
4.52500,-6
4.53333,-5
4.54167,-5
4.55000,-5
4.55833,-5
4.56667,-5
4.57500,-5
4.58333,-5
4.59167,-5
4.60000,-6
4.60833,-6
4.61667,-6
4.62500,-6
4.63333,-6
4.64167,-6
4.65000,-6
4.65833,-6
4.66667,-5
4.67500,-5
4.68333,-6
4.69167,-6
4.70000,-7
4.70833,-7
4.71667,-7
4.72500,-6
4.73333,-6
4.74167,-7
4.75000,-7
4.75833,-7
4.76667,-7
4.77500,-7
4.78333,-6
4.79167,-6
4.80000,-6
4.80833,-5
4.81667,-5
4.82500,-5
4.83333,-6
4.84167,-6
4.85000,-6
4.85833,-6
4.86667,-6
4.87500,-6
4.88333,-6
4.89167,-6
4.90000,-7
4.90833,-7
4.91667,-7
4.92500,-7
4.93333,-6
4.94167,-6
4.95000,-6
4.95833,-6
4.96667,-6
4.97500,-6
4.98333,-6
4.99167,-6
5.00000,-6
5.00833,-6
5.01667,-6
5.02500,-6
5.03333,-5
5.04167,-5
5.05000,-6
5.05833,-5
5.06667,-6
5.07500,-6
5.08333,-5
5.09167,-5
5.10000,-5
5.10833,-5
5.11667,-5
5.12500,-5
5.13333,-5
5.14167,-5
5.15000,-6
5.15833,-6
5.16667,-6
5.17500,-7
5.18333,-7
5.19167,-7
5.20000,-7
5.20833,-7
5.21667,-6
5.22500,-6
5.23333,-6
5.24167,-6
5.25000,-6
5.25833,-6
5.26667,-6
5.27500,-6
5.28333,-6
5.29167,-6
5.30000,-6
5.30833,-6
5.31667,-6
5.32500,-6
5.33333,-6
5.34167,-6
5.35000,-6
5.35833,-7
5.36667,-7
5.37500,-7
5.38333,-7
5.39167,-7
5.40000,-7
5.40833,-7
5.41667,-7
5.42500,-7
5.43333,-7
5.44167,-7
5.45000,-7
5.45833,-7
5.46667,-7
5.47500,-7
5.48333,-7
5.49167,-7
5.50000,-7
5.50833,-7
5.51667,-7
5.52500,-7
5.53333,-7
5.54167,-7
5.55000,-7
5.55833,-7
5.56667,-7
5.57500,-7
5.58333,-7
5.59167,-7
5.60000,-7
5.60833,-7
5.61667,-7
5.62500,-7
5.63333,-6
5.64167,-6
5.65000,-6
5.65833,-6
5.66667,-6
5.67500,-6
5.68333,-6
5.69167,-6
5.70000,-6
5.70833,-6
5.71667,-6
5.72500,-6
5.73333,-5
5.74167,-6
5.75000,-6
5.75833,-5
5.76667,-5
5.77500,-5
5.78333,-6
5.79167,-6
5.80000,-6
5.80833,-6
5.81667,-6
5.82500,-6
5.83333,-6
5.84167,-6
5.85000,-6
5.85833,-7
5.86667,-6
5.87500,-6
5.88333,-6
5.89167,-6
5.90000,-6
5.90833,-6
5.91667,-6
5.92500,-6
5.93333,-6
5.94167,-6
5.95000,-6
5.95833,-6
5.96667,-6
5.97500,-6
5.98333,-6
5.99167,-6
6.00000,-6
6.00833,-6
6.01667,-6
6.02500,-6
6.03333,-6
6.04167,-6
6.05000,-5
6.05833,-6
6.06667,-6
6.07500,-6
6.08333,-6
6.09167,-7
6.10000,-7
6.10833,-7
6.11667,-7
6.12500,-7
6.13333,-6
6.14167,-6
6.15000,-6
6.15833,-6
6.16667,-6
6.17500,-6
6.18333,-6
6.19167,-5
6.20000,-5
6.20833,-5
6.21667,-5
6.22500,-5
6.23333,-5
6.24167,-5
6.25000,-6
6.25833,-6
6.26667,-6
6.27500,-6
6.28333,-7
6.29167,-7
6.30000,-7
6.30833,-7
6.31667,-7
6.32500,-7
6.33333,-7
6.34167,-6
6.35000,-6
6.35833,-6
6.36667,-6
6.37500,-7
6.38333,-7
6.39167,-7
6.40000,-7
6.40833,-6
6.41667,-6
6.42500,-6
6.43333,-6
6.44167,-6
6.45000,-6
6.45833,-6
6.46667,-6
6.47500,-6
6.48333,-6
6.49167,-6
6.50000,-6
6.50833,-6
6.51667,-6
6.52500,-7
6.53333,-7
6.54167,-7
6.55000,-7
6.55833,-7
6.56667,-6
6.57500,-6
6.58333,-6
6.59167,-6
6.60000,-6
6.60833,-6
6.61667,-7
6.62500,-7
6.63333,-7
6.64167,-7
6.65000,-7
6.65833,-6
6.66667,-6
6.67500,-6
6.68333,-6
6.69167,-5
6.70000,-6
6.70833,-6
6.71667,-6
6.72500,-6
6.73333,-7
6.74167,-6
6.75000,-6
6.75833,-6
6.76667,-6
6.77500,-6
6.78333,-6
6.79167,-6
6.80000,-6
6.80833,-7
6.81667,-6
6.82500,-6
6.83333,-6
6.84167,-6
6.85000,-6
6.85833,-6
6.86667,-6
6.87500,-6
6.88333,-6
6.89167,-6
6.90000,-6
6.90833,-6
6.91667,-6
6.92500,-7
6.93333,-7
6.94167,-7
6.95000,-7
6.95833,-7
6.96667,-7
6.97500,-6
6.98333,-6
6.99167,-6
7.00000,-6
7.00833,-6
7.01667,-6
7.02500,-6
7.03333,-6
7.04167,-6
7.05000,-6
7.05833,-6
7.06667,-6
7.07500,-6
7.08333,-6
7.09167,-6
7.10000,-6
7.10833,-6
7.11667,-6
7.12500,-6
7.13333,-6
7.14167,-6
7.15000,-6
7.15833,-6
7.16667,-6
7.17500,-6
7.18333,-6
7.19167,-6
7.20000,-6
7.20833,-6
7.21667,-6
7.22500,-6
7.23333,-6
7.24167,-6
7.25000,-6
7.25833,-7
7.26667,-7
7.27500,-7
7.28333,-6
7.29167,-6
7.30000,-6
7.30833,-5
7.31667,-6
7.32500,-6
7.33333,-6
7.34167,-6
7.35000,-7
7.35833,-7
7.36667,-8
7.37500,-8
7.38333,-8
7.39167,-8
7.40000,-7
7.40833,-7
7.41667,-7
7.42500,-7
7.43333,-7
7.44167,-7
7.45000,-7
7.45833,-7
7.46667,-7
7.47500,-7
7.48333,-7
7.49167,-7
7.50000,-7
7.50833,-7
7.51667,-7
7.52500,-7
7.53333,-7
7.54167,-7
7.55000,-6
7.55833,-6
7.56667,-7
7.57500,-7
7.58333,-7
7.59167,-6
7.60000,-6
7.60833,-7
7.61667,-7
7.62500,-7
7.63333,-7
7.64167,-7
7.65000,-7
7.65833,-7
7.66667,-7
7.67500,-7
7.68333,-7
7.69167,-7
7.70000,-7
7.70833,-7
7.71667,-7
7.72500,-7
7.73333,-7
7.74167,-7
7.75000,-7
7.75833,-7
7.76667,-7
7.77500,-7
7.78333,-7
7.79167,-7
7.80000,-7
7.80833,-7
7.81667,-7
7.82500,-7
7.83333,-7
7.84167,-7
7.85000,-7
7.85833,-7
7.86667,-7
7.87500,-7
7.88333,-7
7.89167,-7
7.90000,-7
7.90833,-7
7.91667,-7
7.92500,-7
7.93333,-7
7.94167,-7
7.95000,-7
7.95833,-7
7.96667,-7
7.97500,-7
7.98333,-6
7.99167,-6
8.00000,-6
8.00833,-7
8.01667,-7
8.02500,-7
8.03333,-7
8.04167,-7
8.05000,-7
8.05833,-7
8.06667,-7
8.07500,-7
8.08333,-7
8.09167,-7
8.10000,-7
8.10833,-6
8.11667,-6
8.12500,-6
8.13333,-6
8.14167,-6
8.15000,-6
8.15833,-6
8.16667,-6
8.17500,-6
8.18333,-7
8.19167,-7
8.20000,-7
8.20833,-7
8.21667,-8
8.22500,-7
8.23333,-7
8.24167,-7
8.25000,-7
8.25833,-7
8.26667,-7
8.27500,-7
8.28333,-7
8.29167,-8
8.30000,-8
8.30833,-8
8.31667,-7
8.32500,-7
8.33333,-7
8.34167,-7
8.35000,-7
8.35833,-7
8.36667,-7
8.37500,-8
8.38333,-8
8.39167,-8
8.40000,-7
8.40833,-7
8.41667,-7
8.42500,-7
8.43333,-7
8.44167,-7
8.45000,-7
8.45833,-7
8.46667,-8
8.47500,-8
8.48333,-8
8.49167,-7
8.50000,-7
8.50833,-7
8.51667,-6
8.52500,-7
8.53333,-7
8.54167,-7
8.55000,-7
8.55833,-8
8.56667,-8
8.57500,-8
8.58333,-8
8.59167,-8
8.60000,-8
8.60833,-7
8.61667,-7
8.62500,-7
8.63333,-7
8.64167,-7
8.65000,-7
8.65833,-7
8.66667,-7
8.67500,-8
8.68333,-7
8.69167,-7
8.70000,-8
8.70833,-8
8.71667,-8
8.72500,-8
8.73333,-8
8.74167,-9
8.75000,-8
8.75833,-8
8.76667,-7
8.77500,-7
8.78333,-7
8.79167,-8
8.80000,-8
8.80833,-8
8.81667,-8
8.82500,-8
8.83333,-8
8.84167,-8
8.85000,-8
8.85833,-8
8.86667,-8
8.87500,-8
8.88333,-8
8.89167,-8
8.90000,-7
8.90833,-7
8.91667,-7
8.92500,-7
8.93333,-7
8.94167,-7
8.95000,-7
8.95833,-7
8.96667,-7
8.97500,-6
8.98333,-6
8.99167,-6
9.00000,-6
9.00833,-7
9.01667,-7
9.02500,-7
9.03333,-7
9.04167,-7
9.05000,-7
9.05833,-7
9.06667,-7
9.07500,-7
9.08333,-8
9.09167,-8
9.10000,-9
9.10833,-8
9.11667,-8
9.12500,-8
9.13333,-8
9.14167,-8
9.15000,-8
9.15833,-8
9.16667,-8
9.17500,-8
9.18333,-8
9.19167,-8
9.20000,-7
9.20833,-7
9.21667,-7
9.22500,-7
9.23333,-6
9.24167,-6
9.25000,-6
9.25833,-7
9.26667,-7
9.27500,-7
9.28333,-7
9.29167,-7
9.30000,-7
9.30833,-7
9.31667,-7
9.32500,-8
9.33333,-8
9.34167,-8
9.35000,-8
9.35833,-7
9.36667,-7
9.37500,-7
9.38333,-7
9.39167,-7
9.40000,-7
9.40833,-7
9.41667,-7
9.42500,-7
9.43333,-7
9.44167,-7
9.45000,-7
9.45833,-7
9.46667,-7
9.47500,-7
9.48333,-7
9.49167,-7
9.50000,-7
9.50833,-7
9.51667,-7
9.52500,-7
9.53333,-7
9.54167,-7
9.55000,-7
9.55833,-7
9.56667,-7
9.57500,-7
9.58333,-7
9.59167,-7
9.60000,-7
9.60833,-7
9.61667,-7
9.62500,-7
9.63333,-7
9.64167,-7
9.65000,-6
9.65833,-6
9.66667,-6
9.67500,-6
9.68333,-6
9.69167,-6
9.70000,-6
9.70833,-6
9.71667,-6
9.72500,-7
9.73333,-7
9.74167,-7
9.75000,-7
9.75833,-7
9.76667,-6
9.77500,-6
9.78333,-6
9.79167,-6
9.80000,-6
9.80833,-6
9.81667,-6
9.82500,-6
9.83333,-6
9.84167,-6
9.85000,-6
9.85833,-6
9.86667,-6
9.87500,-6
9.88333,-6
9.89167,-6
9.90000,-7
9.90833,-7
9.91667,-7
9.92500,-7
9.93333,-7
9.94167,-7
9.95000,-7
9.95833,-7
9.96667,-7
9.97500,-7
9.98333,-7
9.99167,-7
10.00000,-7
10.00833,-7
10.01667,-7
10.02500,-7
10.03333,-7
10.04167,-6
10.05000,-6
10.05833,-6
10.06667,-6
10.07500,-6
10.08333,-6
10.09167,-6
10.10000,-6
10.10833,-6
10.11667,-6
10.12500,-6
10.13333,-6
10.14167,-6
10.15000,-6
10.15833,-6
10.16667,-6
10.17500,-6
10.18333,-6
10.19167,-6
10.20000,-6
10.20833,-6
10.21667,-6
10.22500,-5
10.23333,-5
10.24167,-5
10.25000,-5
10.25833,-5
10.26667,-5
10.27500,-5
10.28333,-4
10.29167,-4
10.30000,-4
10.30833,-4
10.31667,-4
10.32500,-4
10.33333,-4
10.34167,-4
10.35000,-5
10.35833,-6
10.36667,-7
10.37500,-9
10.38333,-12
10.39167,-17
10.40000,-22
10.40833,-30
10.41667,-41
10.42500,-54
10.43333,-72
10.44167,-94
10.45000,-122
10.45833,-155
10.46667,-194
10.47500,-239
10.48333,-290
10.49167,-346
10.50000,-406
10.50833,-469
10.51667,-532
10.52500,-594
10.53333,-650
10.54167,-697
10.55000,-731
10.55833,-746
10.56667,-739
10.57500,-703
10.58333,-632
10.59167,-522
10.60000,-365
10.60833,-155
10.61667,113
10.62500,446
10.63333,849
10.64167,1329
10.65000,1890
10.65833,2539
10.66667,3280
10.67500,4118
10.68333,5057
10.69167,6101
10.70000,7254
10.70833,8518
10.71667,9897
10.72500,11393
10.73333,13006
10.74167,14741
10.75000,16596
10.75833,18574
10.76667,20675
10.77500,22898
10.78333,25243
10.79167,27709
10.80000,30295
10.80833,32999
10.81667,35819
10.82500,38752
10.83333,41796
10.84167,44945
10.85000,48196
10.85833,51543
10.86667,54980
10.87500,58499
10.88333,62092
10.89167,65749
10.90000,69458
10.90833,73204
10.91667,76972
10.92500,80742
10.93333,84490
10.94167,88192
10.95000,91815
10.95833,95326
10.96667,98684
10.97500,101845
10.98333,104761
10.99167,107379
11.00000,109644
11.00833,111497
11.01667,112884
11.02500,113750
11.03333,114044
11.04167,113726
11.05000,112765
11.05833,111145
11.06667,108865
11.07500,105943
11.08333,102413
11.09167,98328
11.10000,93759
11.10833,88787
11.11667,83506
11.12500,78012
11.13333,72403
11.14167,66772
11.15000,61207
11.15833,55784
11.16667,50569
11.17500,45614
11.18333,40958
11.19167,36627
11.20000,32636
11.20833,28990
11.21667,25685
11.22500,22710
11.23333,20049
11.24167,17682
11.25000,15589
11.25833,13744
11.26667,12126
11.27500,10710
11.28333,9474
11.29167,8398
11.30000,7463
11.30833,6650
11.31667,5945
11.32500,5332
11.33333,4800
11.34167,4338
11.35000,3935
11.35833,3584
11.36667,3276
11.37500,3006
11.38333,2768
11.39167,2558
11.40000,2372
11.40833,2207
11.41667,2059
11.42500,1926
11.43333,1806
11.44167,1698
11.45000,1599
11.45833,1510
11.46667,1428
11.47500,1353
11.48333,1284
11.49167,1220
11.50000,1160
11.50833,1105
11.51667,1054
11.52500,1007
11.53333,962
11.54167,920
11.55000,880
11.55833,843
11.56667,808
11.57500,775
11.58333,744
11.59167,714
11.60000,686
11.60833,660
11.61667,634
11.62500,611
11.63333,588
11.64167,567
11.65000,547
11.65833,527
11.66667,508
11.67500,491
11.68333,474
11.69167,458
11.70000,443
11.70833,429
11.71667,414
11.72500,401
11.73333,389
11.74167,378
11.75000,367
11.75833,356
11.76667,347
11.77500,337
11.78333,329
11.79167,320
11.80000,313
11.80833,305
11.81667,298
11.82500,291
11.83333,285
11.84167,279
11.85000,273
11.85833,268
11.86667,263
11.87500,258
11.88333,254
11.89167,250
11.90000,246
11.90833,243
11.91667,239
11.92500,236
11.93333,234
11.94167,231
11.95000,228
11.95833,226
11.96667,223
11.97500,221
11.98333,219
11.99167,217
12.00000,215
12.00833,214
12.01667,212
12.02500,211
12.03333,209
12.04167,208
12.05000,207
12.05833,206
12.06667,205
12.07500,204
12.08333,202
12.09167,201
12.10000,200
12.10833,198
12.11667,197
12.12500,195
12.13333,194
12.14167,194
12.15000,193
12.15833,192
12.16667,190
12.17500,189
12.18333,188
12.19167,186
12.20000,186
12.20833,185
12.21667,184
12.22500,183
12.23333,182
12.24167,181
12.25000,179
12.25833,178
12.26667,176
12.27500,175
12.28333,174
12.29167,173
12.30000,173
12.30833,172
12.31667,171
12.32500,169
12.33333,168
12.34167,167
12.35000,166
12.35833,165
12.36667,163
12.37500,162
12.38333,161
12.39167,160
12.40000,159
12.40833,159
12.41667,157
12.42500,156
12.43333,155
12.44167,155
12.45000,154
12.45833,153
12.46667,153
12.47500,152
12.48333,151
12.49167,150
12.50000,149
12.50833,148
12.51667,147
12.52500,147
12.53333,146
12.54167,145
12.55000,144
12.55833,142
12.56667,142
12.57500,141
12.58333,140
12.59167,139
12.60000,138
12.60833,138
12.61667,137
12.62500,136
12.63333,136
12.64167,136
12.65000,136
12.65833,137
12.66667,138
12.67500,140
12.68333,143
12.69167,146
12.70000,151
12.70833,156
12.71667,163
12.72500,172
12.73333,181
12.74167,192
12.75000,206
12.75833,222
12.76667,241
12.77500,262
12.78333,286
12.79167,314
12.80000,345
12.80833,380
12.81667,418
12.82500,460
12.83333,507
12.84167,558
12.85000,614
12.85833,674
12.86667,740
12.87500,810
12.88333,884
12.89167,964
12.90000,1049
12.90833,1139
12.91667,1234
12.92500,1335
12.93333,1442
12.94167,1554
12.95000,1671
12.95833,1795
12.96667,1923
12.97500,2058
12.98333,2198
12.99167,2343
13.00000,2494
13.00833,2650
13.01667,2812
13.02500,2980
13.03333,3152
13.04167,3330
13.05000,3514
13.05833,3702
13.06667,3896
13.07500,4095
13.08333,4298
13.09167,4507
13.10000,4720
13.10833,4939
13.11667,5162
13.12500,5390
13.13333,5623
13.14167,5860
13.15000,6101
13.15833,6347
13.16667,6597
13.17500,6850
13.18333,7108
13.19167,7370
13.20000,7635
13.20833,7905
13.21667,8178
13.22500,8455
13.23333,8735
13.24167,9019
13.25000,9306
13.25833,9597
13.26667,9892
13.27500,10190
13.28333,10491
13.29167,10795
13.30000,11103
13.30833,11414
13.31667,11728
13.32500,12045
13.33333,12366
13.34167,12689
13.35000,13016
13.35833,13346
13.36667,13679
13.37500,14014
13.38333,14353
13.39167,14696
13.40000,15041
13.40833,15390
13.41667,15741
13.42500,16095
13.43333,16452
13.44167,16812
13.45000,17176
13.45833,17543
13.46667,17913
13.47500,18286
13.48333,18661
13.49167,19041
13.50000,19423
13.50833,19808
13.51667,20196
13.52500,20588
13.53333,20982
13.54167,21380
13.55000,21781
13.55833,22185
13.56667,22593
13.57500,23003
13.58333,23418
13.59167,23835
13.60000,24256
13.60833,24680
13.61667,25108
13.62500,25540
13.63333,25974
13.64167,26412
13.65000,26853
13.65833,27298
13.66667,27747
13.67500,28199
13.68333,28655
13.69167,29115
13.70000,29578
13.70833,30045
13.71667,30516
13.72500,30990
13.73333,31468
13.74167,31951
13.75000,32437
13.75833,32927
13.76667,33421
13.77500,33920
13.78333,34422
13.79167,34929
13.80000,35439
13.80833,35954
13.81667,36473
13.82500,36996
13.83333,37523
13.84167,38055
13.85000,38592
13.85833,39133
13.86667,39678
13.87500,40229
13.88333,40783
13.89167,41343
13.90000,41907
13.90833,42476
13.91667,43050
13.92500,43628
13.93333,44212
13.94167,44800
13.95000,45393
13.95833,45992
13.96667,46595
13.97500,47204
13.98333,47818
13.99167,48438
14.00000,49062
14.00833,49692
14.01667,50328
14.02500,50970
14.03333,51617
14.04167,52269
14.05000,52928
14.05833,53592
14.06667,54262
14.07500,54938
14.08333,55621
14.09167,56309
14.10000,57004
14.10833,57704
14.11667,58411
14.12500,59125
14.13333,59845
14.14167,60572
14.15000,61305
14.15833,62045
14.16667,62792
14.17500,63545
14.18333,64305
14.19167,65073
14.20000,65848
14.20833,66629
14.21667,67418
14.22500,68212
14.23333,69013
14.24167,69816
14.25000,70621
14.25833,71423
14.26667,72217
14.27500,72998
14.28333,73757
14.29167,74485
14.30000,75170
14.30833,75803
14.31667,76369
14.32500,76856
14.33333,77253
14.34167,77548
14.35000,77732
14.35833,77794
14.36667,77728
14.37500,77527
14.38333,77188
14.39167,76707
14.40000,76081
14.40833,75308
14.41667,74387
14.42500,73316
14.43333,72094
14.44167,70717
14.45000,69184
14.45833,67494
14.46667,65647
14.47500,63644
14.48333,61488
14.49167,59187
14.50000,56751
14.50833,54194
14.51667,51532
14.52500,48788
14.53333,45983
14.54167,43143
14.55000,40296
14.55833,37468
14.56667,34686
14.57500,31973
14.58333,29352
14.59167,26843
14.60000,24460
14.60833,22217
14.61667,20121
14.62500,18177
14.63333,16387
14.64167,14749
14.65000,13259
14.65833,11911
14.66667,10698
14.67500,9611
14.68333,8640
14.69167,7776
14.70000,7009
14.70833,6330
14.71667,5729
14.72500,5200
14.73333,4733
14.74167,4321
14.75000,3958
14.75833,3637
14.76667,3354
14.77500,3104
14.78333,2883
14.79167,2686
14.80000,2512
14.80833,2356
14.81667,2217
14.82500,2092
14.83333,1979
14.84167,1878
14.85000,1786
14.85833,1703
14.86667,1627
14.87500,1558
14.88333,1493
14.89167,1434
14.90000,1380
14.90833,1330
14.91667,1283
14.92500,1240
14.93333,1199
14.94167,1161
14.95000,1125
14.95833,1092
14.96667,1060
14.97500,1030
14.98333,1002
14.99167,975
15.00000,950
15.00833,927
15.01667,904
15.02500,883
15.03333,862
15.04167,843
15.05000,825
15.05833,808
15.06667,791
15.07500,776
15.08333,761
15.09167,748
15.10000,735
15.10833,724
15.11667,712
15.12500,701
15.13333,691
15.14167,682
15.15000,674
15.15833,667
15.16667,660
15.17500,655
15.18333,652
15.19167,650
15.20000,650
15.20833,652
15.21667,657
15.22500,665
15.23333,677
15.24167,694
15.25000,717
15.25833,747
15.26667,784
15.27500,831
15.28333,889
15.29167,959
15.30000,1045
15.30833,1146
15.31667,1267
15.32500,1410
15.33333,1577
15.34167,1771
15.35000,1996
15.35833,2254
15.36667,2549
15.37500,2883
15.38333,3260
15.39167,3684
15.40000,4157
15.40833,4682
15.41667,5262
15.42500,5899
15.43333,6595
15.44167,7350
15.45000,8167
15.45833,9045
15.46667,9986
15.47500,10987
15.48333,12049
15.49167,13167
15.50000,14341
15.50833,15565
15.51667,16837
15.52500,18152
15.53333,19505
15.54167,20889
15.55000,22299
15.55833,23729
15.56667,25171
15.57500,26618
15.58333,28064
15.59167,29501
15.60000,30923
15.60833,32321
15.61667,33691
15.62500,35024
15.63333,36317
15.64167,37562
15.65000,38755
15.65833,39891
15.66667,40966
15.67500,41975
15.68333,42916
15.69167,43785
15.70000,44579
15.70833,45297
15.71667,45938
15.72500,46500
15.73333,46981
15.74167,47381
15.75000,47700
15.75833,47937
15.76667,48092
15.77500,48166
15.78333,48160
15.79167,48074
15.80000,47908
15.80833,47664
15.81667,47344
15.82500,46949
15.83333,46481
15.84167,45942
15.85000,45335
15.85833,44661
15.86667,43924
15.87500,43128
15.88333,42274
15.89167,41368
15.90000,40413
15.90833,39413
15.91667,38373
15.92500,37296
15.93333,36187
15.94167,35052
15.95000,33894
15.95833,32718
15.96667,31530
15.97500,30334
15.98333,29135
15.99167,27936
16.00000,26742
16.00833,25557
16.01667,24386
16.02500,23231
16.03333,22096
16.04167,20985
16.05000,19900
16.05833,18843
16.06667,17818
16.07500,16825
16.08333,15866
16.09167,14943
16.10000,14056
16.10833,13206
16.11667,12394
16.12500,11620
16.13333,10884
16.14167,10185
16.15000,9523
16.15833,8897
16.16667,8308
16.17500,7753
16.18333,7231
16.19167,6743
16.20000,6285
16.20833,5858
16.21667,5459
16.22500,5088
16.23333,4744
16.24167,4423
16.25000,4126
16.25833,3851
16.26667,3596
16.27500,3361
16.28333,3143
16.29167,2943
16.30000,2758
16.30833,2588
16.31667,2431
16.32500,2287
16.33333,2155
16.34167,2033
16.35000,1921
16.35833,1818
16.36667,1724
16.37500,1636
16.38333,1556
16.39167,1482
16.40000,1414
16.40833,1352
16.41667,1294
16.42500,1241
16.43333,1192
16.44167,1146
16.45000,1104
16.45833,1065
16.46667,1028
16.47500,994
16.48333,962
16.49167,933
16.50000,905
16.50833,879
16.51667,855
16.52500,832
16.53333,810
16.54167,790
16.55000,770
16.55833,751
16.56667,733
16.57500,716
16.58333,699
16.59167,683
16.60000,667
16.60833,653
16.61667,638
16.62500,624
16.63333,611
16.64167,599
16.65000,586
16.65833,575
16.66667,563
16.67500,552
16.68333,542
16.69167,532
16.70000,521
16.70833,511
16.71667,502
16.72500,492
16.73333,483
16.74167,475
16.75000,466
16.75833,457
16.76667,449
16.77500,442
16.78333,434
16.79167,427
16.80000,421
16.80833,415
16.81667,409
16.82500,403
16.83333,397
16.84167,392
16.85000,387
16.85833,382
16.86667,377
16.87500,373
16.88333,368
16.89167,364
16.90000,360
16.90833,356
16.91667,352
16.92500,348
16.93333,344
16.94167,340
16.95000,337
16.95833,334
16.96667,331
16.97500,328
16.98333,325
16.99167,322
17.00000,320
17.00833,317
17.01667,314
17.02500,311
17.03333,309
17.04167,307
17.05000,304
17.05833,302
17.06667,300
17.07500,298
17.08333,295
17.09167,293
17.10000,291
17.10833,289
17.11667,287
17.12500,285
17.13333,283
17.14167,281
17.15000,279
17.15833,277
17.16667,275
17.17500,274
17.18333,272
17.19167,270
17.20000,268
17.20833,267
17.21667,265
17.22500,264
17.23333,262
17.24167,260
17.25000,259
17.25833,257
17.26667,255
17.27500,253
17.28333,252
17.29167,250
17.30000,248
17.30833,246
17.31667,245
17.32500,243
17.33333,242
17.34167,241
17.35000,239
17.35833,237
17.36667,235
17.37500,233
17.38333,232
17.39167,230
17.40000,229
17.40833,227
17.41667,226
17.42500,225
17.43333,223
17.44167,221
17.45000,219
17.45833,218
17.46667,216
17.47500,214
17.48333,213
17.49167,211
17.50000,210
17.50833,208
17.51667,207
17.52500,205
17.53333,204
17.54167,203
17.55000,201
17.55833,200
17.56667,198
17.57500,197
17.58333,196
17.59167,194
17.60000,193
17.60833,192
17.61667,191
17.62500,189
17.63333,188
17.64167,186
17.65000,185
17.65833,183
17.66667,182
17.67500,181
17.68333,180
17.69167,179
17.70000,178
17.70833,176
17.71667,175
17.72500,174
17.73333,173
17.74167,172
17.75000,171
17.75833,170
17.76667,169
17.77500,168
17.78333,167
17.79167,165
17.80000,164
17.80833,163
17.81667,162
17.82500,161
17.83333,160
17.84167,159
17.85000,158
17.85833,157
17.86667,156
17.87500,155
17.88333,154
17.89167,153
17.90000,152
17.90833,152
17.91667,151
17.92500,150
17.93333,149
17.94167,149
17.95000,148
17.95833,147
17.96667,146
17.97500,145
17.98333,145
17.99167,144
18.00000,144
18.00833,143
18.01667,142
18.02500,142
18.03333,141
18.04167,140
18.05000,140
18.05833,139
18.06667,138
18.07500,137
18.08333,137
18.09167,136
18.10000,136
18.10833,135
18.11667,134
18.12500,134
18.13333,133
18.14167,133
18.15000,132
18.15833,132
18.16667,131
18.17500,131
18.18333,130
18.19167,129
18.20000,129
18.20833,128
18.21667,128
18.22500,127
18.23333,127
18.24167,126
18.25000,126
18.25833,125
18.26667,125
18.27500,124
18.28333,124
18.29167,124
18.30000,123
18.30833,123
18.31667,122
18.32500,122
18.33333,121
18.34167,121
18.35000,121
18.35833,121
18.36667,121
18.37500,120
18.38333,120
18.39167,120
18.40000,120
18.40833,119
18.41667,119
18.42500,119
18.43333,119
18.44167,119
18.45000,118
18.45833,118
18.46667,117
18.47500,117
18.48333,117
18.49167,117
18.50000,116
18.50833,116
18.51667,116
18.52500,116
18.53333,116
18.54167,116
18.55000,116
18.55833,116
18.56667,116
18.57500,116
18.58333,115
18.59167,115
18.60000,114
18.60833,114
18.61667,114
18.62500,114
18.63333,113
18.64167,113
18.65000,112
18.65833,112
18.66667,112
18.67500,112
18.68333,111
18.69167,111
18.70000,111
18.70833,111
18.71667,111
18.72500,111
18.73333,111
18.74167,110
18.75000,110
18.75833,110
18.76667,109
18.77500,109
18.78333,108
18.79167,108
18.80000,108
18.80833,107
18.81667,106
18.82500,106
18.83333,105
18.84167,105
18.85000,105
18.85833,104
18.86667,104
18.87500,104
18.88333,103
18.89167,102
18.90000,101
18.90833,100
18.91667,100
18.92500,100
18.93333,99
18.94167,98
18.95000,98
18.95833,97
18.96667,97
18.97500,96
18.98333,95
18.99167,95
19.00000,95
19.00833,94
19.01667,94
19.02500,94
19.03333,93
19.04167,92
19.05000,92
19.05833,92
19.06667,91
19.07500,91
19.08333,91
19.09167,91
19.10000,90
19.10833,90
19.11667,90
19.12500,90
19.13333,89
19.14167,89
19.15000,89
19.15833,89
19.16667,88
19.17500,88
19.18333,88
19.19167,88
19.20000,87
19.20833,87
19.21667,87
19.22500,87
19.23333,87
19.24167,87
19.25000,86
19.25833,86
19.26667,86
19.27500,86
19.28333,85
19.29167,85
19.30000,85
19.30833,85
19.31667,85
19.32500,85
19.33333,84
19.34167,84
19.35000,83
19.35833,83
19.36667,82
19.37500,81
19.38333,81
19.39167,80
19.40000,80
19.40833,80
19.41667,79
19.42500,78
19.43333,78
19.44167,78
19.45000,77
19.45833,77
19.46667,76
19.47500,76
19.48333,76
19.49167,75
19.50000,75
19.50833,75
19.51667,74
19.52500,73
19.53333,72
19.54167,71
19.55000,70
19.55833,70
19.56667,69
19.57500,69
19.58333,68
19.59167,68
19.60000,67
19.60833,67
19.61667,66
19.62500,65
19.63333,65
19.64167,64
19.65000,64
19.65833,63
19.66667,62
19.67500,62
19.68333,62
19.69167,61
19.70000,60
19.70833,60
19.71667,60
19.72500,59
19.73333,58
19.74167,58
19.75000,57
19.75833,57
19.76667,56
19.77500,56
19.78333,56
19.79167,55
19.80000,55
19.80833,54
19.81667,54
19.82500,53
19.83333,53
19.84167,52
19.85000,52
19.85833,52
19.86667,51
19.87500,51
19.88333,51
19.89167,51
19.90000,51
19.90833,51
19.91667,51
19.92500,51
19.93333,51
19.94167,51
19.95000,51
19.95833,51
19.96667,50
19.97500,49
19.98333,49
19.99167,49
20.00000,48
20.00833,48
20.01667,49
20.02500,49
20.03333,48
20.04167,48
20.05000,48
20.05833,48
20.06667,48
20.07500,47
20.08333,47
20.09167,47
20.10000,47
20.10833,47
20.11667,46
20.12500,46
20.13333,46
20.14167,46
20.15000,46
20.15833,46
20.16667,46
20.17500,46
20.18333,46
20.19167,46
20.20000,45
20.20833,45
20.21667,45
20.22500,45
20.23333,45
20.24167,45
20.25000,45
20.25833,45
20.26667,45
20.27500,45
20.28333,45
20.29167,45
20.30000,45
20.30833,46
20.31667,46
20.32500,46
20.33333,46
20.34167,46
20.35000,46
20.35833,46
20.36667,47
20.37500,47
20.38333,48
20.39167,50
20.40000,51
20.40833,53
20.41667,54
20.42500,56
20.43333,57
20.44167,59
20.45000,62
20.45833,64
20.46667,67
20.47500,71
20.48333,74
20.49167,79
20.50000,84
20.50833,88
20.51667,94
20.52500,100
20.53333,106
20.54167,113
20.55000,121
20.55833,129
20.56667,138
20.57500,147
20.58333,157
20.59167,167
20.60000,178
20.60833,189
20.61667,201
20.62500,213
20.63333,225
20.64167,238
20.65000,252
20.65833,266
20.66667,280
20.67500,294
20.68333,308
20.69167,323
20.70000,338
20.70833,353
20.71667,367
20.72500,381
20.73333,396
20.74167,410
20.75000,424
20.75833,438
20.76667,451
20.77500,464
20.78333,477
20.79167,490
20.80000,502
20.80833,513
20.81667,524
20.82500,534
20.83333,545
20.84167,554
20.85000,563
20.85833,572
20.86667,580
20.87500,588
20.88333,595
20.89167,602
20.90000,608
20.90833,613
20.91667,618
20.92500,623
20.93333,626
20.94167,629
20.95000,632
20.95833,633
20.96667,635
20.97500,636
20.98333,636
20.99167,637
21.00000,636
21.00833,635
21.01667,633
21.02500,630
21.03333,627
21.04167,624
21.05000,620
21.05833,616
21.06667,611
21.07500,605
21.08333,600
21.09167,593
21.10000,586
21.10833,579
21.11667,571
21.12500,563
21.13333,555
21.14167,546
21.15000,537
21.15833,527
21.16667,517
21.17500,507
21.18333,497
21.19167,486
21.20000,476
21.20833,465
21.21667,454
21.22500,444
21.23333,433
21.24167,423
21.25000,412
21.25833,402
21.26667,392
21.27500,382
21.28333,372
21.29167,363
21.30000,355
21.30833,346
21.31667,338
21.32500,331
21.33333,324
21.34167,319
21.35000,313
21.35833,309
21.36667,306
21.37500,303
21.38333,303
21.39167,302
21.40000,303
21.40833,306
21.41667,309
21.42500,314
21.43333,320
21.44167,327
21.45000,336
21.45833,347
21.46667,359
21.47500,373
21.48333,388
21.49167,405
21.50000,424
21.50833,444
21.51667,466
21.52500,490
21.53333,515
21.54167,542
21.55000,571
21.55833,600
21.56667,631
21.57500,663
21.58333,696
21.59167,730
21.60000,766
21.60833,802
21.61667,838
21.62500,875
21.63333,912
21.64167,949
21.65000,987
21.65833,1025
21.66667,1062
21.67500,1099
21.68333,1136
21.69167,1173
21.70000,1208
21.70833,1243
21.71667,1277
21.72500,1310
21.73333,1342
21.74167,1373
21.75000,1403
21.75833,1431
21.76667,1459
21.77500,1485
21.78333,1510
21.79167,1533
21.80000,1555
21.80833,1576
21.81667,1596
21.82500,1614
21.83333,1630
21.84167,1645
21.85000,1659
21.85833,1671
21.86667,1682
21.87500,1691
21.88333,1699
21.89167,1705
21.90000,1710
21.90833,1713
21.91667,1716
21.92500,1716
21.93333,1715
21.94167,1713
21.95000,1709
21.95833,1703
21.96667,1696
21.97500,1688
21.98333,1677
21.99167,1666
22.00000,1652
22.00833,1637
22.01667,1620
22.02500,1602
22.03333,1582
22.04167,1561
22.05000,1538
22.05833,1514
22.06667,1489
22.07500,1462
22.08333,1433
22.09167,1404
22.10000,1373
22.10833,1341
22.11667,1309
22.12500,1275
22.13333,1241
22.14167,1206
22.15000,1171
22.15833,1136
22.16667,1100
22.17500,1064
22.18333,1028
22.19167,991
22.20000,955
22.20833,919
22.21667,883
22.22500,847
22.23333,813
22.24167,779
22.25000,745
22.25833,712
22.26667,680
22.27500,649
22.28333,618
22.29167,588
22.30000,559
22.30833,532
22.31667,505
22.32500,479
22.33333,455
22.34167,431
22.35000,408
22.35833,386
22.36667,366
22.37500,346
22.38333,328
22.39167,311
22.40000,294
22.40833,278
22.41667,264
22.42500,250
22.43333,237
22.44167,226
22.45000,215
22.45833,204
22.46667,195
22.47500,186
22.48333,178
22.49167,171
22.50000,165
22.50833,159
22.51667,153
22.52500,149
22.53333,145
22.54167,141
22.55000,138
22.55833,136
22.56667,134
22.57500,133
22.58333,133
22.59167,133
22.60000,134
22.60833,135
22.61667,137
22.62500,139
22.63333,142
22.64167,145
22.65000,149
22.65833,153
22.66667,158
22.67500,163
22.68333,169
22.69167,176
22.70000,183
22.70833,190
22.71667,198
22.72500,206
22.73333,215
22.74167,224
22.75000,233
22.75833,243
22.76667,253
22.77500,264
22.78333,275
22.79167,286
22.80000,298
22.80833,310
22.81667,322
22.82500,334
22.83333,346
22.84167,359
22.85000,371
22.85833,383
22.86667,395
22.87500,408
22.88333,420
22.89167,432
22.90000,445
22.90833,456
22.91667,467
22.92500,478
22.93333,489
22.94167,500
22.95000,511
22.95833,521
22.96667,531
22.97500,540
22.98333,549
22.99167,558
23.00000,566
23.00833,574
23.01667,581
23.02500,588
23.03333,595
23.04167,601
23.05000,607
23.05833,612
23.06667,616
23.07500,621
23.08333,624
23.09167,627
23.10000,629
23.10833,631
23.11667,632
23.12500,633
23.13333,633
23.14167,633
23.15000,632
23.15833,630
23.16667,628
23.17500,625
23.18333,622
23.19167,618
23.20000,614
23.20833,609
23.21667,603
23.22500,597
23.23333,590
23.24167,583
23.25000,575
23.25833,566
23.26667,557
23.27500,547
23.28333,537
23.29167,526
23.30000,515
23.30833,503
23.31667,492
23.32500,480
23.33333,468
23.34167,455
23.35000,443
23.35833,430
23.36667,417
23.37500,404
23.38333,391
23.39167,378
23.40000,365
23.40833,352
23.41667,339
23.42500,326
23.43333,314
23.44167,301
23.45000,289
23.45833,277
23.46667,265
23.47500,253
23.48333,241
23.49167,230
23.50000,220
23.50833,209
23.51667,199
23.52500,190
23.53333,180
23.54167,171
23.55000,162
23.55833,154
23.56667,147
23.57500,139
23.58333,132
23.59167,125
23.60000,119
23.60833,113
23.61667,107
23.62500,102
23.63333,97
23.64167,92
23.65000,88
23.65833,83
23.66667,79
23.67500,75
23.68333,71
23.69167,68
23.70000,65
23.70833,62
23.71667,60
23.72500,58
23.73333,55
23.74167,53
23.75000,51
23.75833,49
23.76667,48
23.77500,46
23.78333,45
23.79167,44
23.80000,43
23.80833,41
23.81667,40
23.82500,39
23.83333,38
23.84167,37
23.85000,37
23.85833,36
23.86667,35
23.87500,34
23.88333,34
23.89167,33
23.90000,33
23.90833,32
23.91667,31
23.92500,31
23.93333,31
23.94167,30
23.95000,30
23.95833,30
23.96667,30
23.97500,30
23.98333,29
23.99167,29
24.00000,29
24.00833,30
24.01667,29
24.02500,29
24.03333,29
24.04167,29
24.05000,28
24.05833,28
24.06667,28
24.07500,28
24.08333,28
24.09167,27
24.10000,27
24.10833,26
24.11667,26
24.12500,26
24.13333,26
24.14167,26
24.15000,26
24.15833,26
24.16667,26
24.17500,25
24.18333,25
24.19167,26
24.20000,26
24.20833,26
24.21667,26
24.22500,26
24.23333,26
24.24167,26
24.25000,27
24.25833,28
24.26667,28
24.27500,28
24.28333,29
24.29167,30
24.30000,31
24.30833,32
24.31667,33
24.32500,35
24.33333,36
24.34167,39
24.35000,41
24.35833,44
24.36667,47
24.37500,51
24.38333,56
24.39167,61
24.40000,66
24.40833,72
24.41667,80
24.42500,88
24.43333,97
24.44167,107
24.45000,118
24.45833,131
24.46667,146
24.47500,161
24.48333,179
24.49167,199
24.50000,220
24.50833,243
24.51667,268
24.52500,296
24.53333,325
24.54167,357
24.55000,392
24.55833,429
24.56667,469
24.57500,511
24.58333,556
24.59167,605
24.60000,656
24.60833,709
24.61667,765
24.62500,825
24.63333,887
24.64167,951
24.65000,1019
24.65833,1089
24.66667,1161
24.67500,1236
24.68333,1313
24.69167,1392
24.70000,1472
24.70833,1555
24.71667,1638
24.72500,1723
24.73333,1809
24.74167,1896
24.75000,1984
24.75833,2073
24.76667,2162
24.77500,2250
24.78333,2339
24.79167,2427
24.80000,2514
24.80833,2601
24.81667,2686
24.82500,2770
24.83333,2853
24.84167,2934
24.85000,3013
24.85833,3090
24.86667,3166
24.87500,3239
24.88333,3310
24.89167,3379
24.90000,3446
24.90833,3510
24.91667,3572
24.92500,3631
24.93333,3688
24.94167,3742
24.95000,3793
24.95833,3843
24.96667,3889
24.97500,3933
24.98333,3973
24.99167,4011
25.00000,4046
25.00833,4079
25.01667,4108
25.02500,4135
25.03333,4159
25.04167,4179
25.05000,4197
25.05833,4212
25.06667,4224
25.07500,4232
25.08333,4237
25.09167,4239
25.10000,4238
25.10833,4233
25.11667,4225
25.12500,4213
25.13333,4198
25.14167,4180
25.15000,4158
25.15833,4133
25.16667,4104
25.17500,4071
25.18333,4036
25.19167,3997
25.20000,3954
25.20833,3908
25.21667,3858
25.22500,3805
25.23333,3749
25.24167,3690
25.25000,3628
25.25833,3564
25.26667,3496
25.27500,3426
25.28333,3354
25.29167,3280
25.30000,3204
25.30833,3126
25.31667,3047
25.32500,2966
25.33333,2884
25.34167,2801
25.35000,2718
25.35833,2633
25.36667,2549
25.37500,2465
25.38333,2381
25.39167,2297
25.40000,2213
25.40833,2130
25.41667,2048
25.42500,1967
25.43333,1887
25.44167,1809
25.45000,1732
25.45833,1656
25.46667,1582
25.47500,1510
25.48333,1440
25.49167,1371
25.50000,1305
25.50833,1240
25.51667,1178
25.52500,1118
25.53333,1060
25.54167,1004
25.55000,950
25.55833,899
25.56667,850
25.57500,802
25.58333,757
25.59167,714
25.60000,673
25.60833,634
25.61667,597
25.62500,562
25.63333,528
25.64167,497
25.65000,467
25.65833,439
25.66667,412
25.67500,388
25.68333,364
25.69167,343
25.70000,323
25.70833,304
25.71667,286
25.72500,269
25.73333,254
25.74167,239
25.75000,225
25.75833,212
25.76667,199
25.77500,188
25.78333,178
25.79167,168
25.80000,159
25.80833,150
25.81667,142
25.82500,135
25.83333,128
25.84167,122
25.85000,116
25.85833,111
25.86667,107
25.87500,102
25.88333,98
25.89167,94
25.90000,91
25.90833,87
25.91667,84
25.92500,81
25.93333,78
25.94167,75
25.95000,73
25.95833,70
25.96667,68
25.97500,66
25.98333,64
25.99167,62
26.00000,61
26.00833,59
26.01667,58
26.02500,57
26.03333,56
26.04167,55
26.05000,54
26.05833,53
26.06667,52
26.07500,51
26.08333,50
26.09167,49
26.10000,49
26.10833,48
26.11667,47
26.12500,47
26.13333,46
26.14167,46
26.15000,45
26.15833,45
26.16667,44
26.17500,44
26.18333,43
26.19167,43
26.20000,42
26.20833,42
26.21667,42
26.22500,41
26.23333,41
26.24167,41
26.25000,41
26.25833,40
26.26667,40
26.27500,39
26.28333,39
26.29167,38
26.30000,38
26.30833,38
26.31667,38
26.32500,38
26.33333,37
26.34167,37
26.35000,37
26.35833,37
26.36667,37
26.37500,37
26.38333,37
26.39167,36
26.40000,36
26.40833,36
26.41667,36
26.42500,36
26.43333,36
26.44167,35
26.45000,35
26.45833,35
26.46667,34
26.47500,34
26.48333,34
26.49167,33
26.50000,33
26.50833,33
26.51667,33
26.52500,33
26.53333,33
26.54167,33
26.55000,33
26.55833,33
26.56667,33
26.57500,33
26.58333,33
26.59167,33
26.60000,33
26.60833,33
26.61667,32
26.62500,32
26.63333,32
26.64167,33
26.65000,33
26.65833,33
26.66667,33
26.67500,33
26.68333,33
26.69167,33
26.70000,33
26.70833,32
26.71667,32
26.72500,32
26.73333,32
26.74167,32
26.75000,32
26.75833,31
26.76667,31
26.77500,31
26.78333,31
26.79167,31
26.80000,31
26.80833,31
26.81667,30
26.82500,30
26.83333,29
26.84167,29
26.85000,29
26.85833,29
26.86667,29
26.87500,29
26.88333,29
26.89167,29
26.90000,29
26.90833,29
26.91667,29
26.92500,28
26.93333,28
26.94167,28
26.95000,27
26.95833,27
26.96667,27
26.97500,27
26.98333,27
26.99167,27
27.00000,27
27.00833,27
27.01667,27
27.02500,26
27.03333,26
27.04167,26
27.05000,27
27.05833,26
27.06667,26
27.07500,26
27.08333,26
27.09167,25
27.10000,25
27.10833,24
27.11667,24
27.12500,23
27.13333,23
27.14167,22
27.15000,22
27.15833,21
27.16667,21
27.17500,20
27.18333,20
27.19167,19
27.20000,18
27.20833,18
27.21667,18
27.22500,17
27.23333,16
27.24167,16
27.25000,15
27.25833,14
27.26667,13
27.27500,13
27.28333,12
27.29167,10
27.30000,9
27.30833,8
27.31667,7
27.32500,6
27.33333,4
27.34167,3
27.35000,2
27.35833,1
27.36667,-1
27.37500,-2
27.38333,-4
27.39167,-5
27.40000,-7
27.40833,-8
27.41667,-10
27.42500,-11
27.43333,-13
27.44167,-15
27.45000,-16
27.45833,-18
27.46667,-20
27.47500,-22
27.48333,-24
27.49167,-26
27.50000,-28
27.50833,-30
27.51667,-32
27.52500,-34
27.53333,-36
27.54167,-38
27.55000,-40
27.55833,-42
27.56667,-45
27.57500,-47
27.58333,-49
27.59167,-50
27.60000,-52
27.60833,-54
27.61667,-56
27.62500,-58
27.63333,-60
27.64167,-61
27.65000,-63
27.65833,-65
27.66667,-66
27.67500,-68
27.68333,-70
27.69167,-72
27.70000,-74
27.70833,-76
27.71667,-77
27.72500,-79
27.73333,-80
27.74167,-82
27.75000,-83
27.75833,-84
27.76667,-85
27.77500,-87
27.78333,-88
27.79167,-89
27.80000,-90
27.80833,-91
27.81667,-92
27.82500,-93
27.83333,-94
27.84167,-95
27.85000,-95
27.85833,-95
27.86667,-96
27.87500,-96
27.88333,-96
27.89167,-96
27.90000,-97
27.90833,-96
27.91667,-96
27.92500,-96
27.93333,-96
27.94167,-95
27.95000,-95
27.95833,-95
27.96667,-94
27.97500,-93
27.98333,-93
27.99167,-92
28.00000,-92
28.00833,-90
28.01667,-89
28.02500,-88
28.03333,-87
28.04167,-86
28.05000,-84
28.05833,-83
28.06667,-81
28.07500,-80
28.08333,-79
28.09167,-77
28.10000,-75
28.10833,-74
28.11667,-72
28.12500,-71
28.13333,-69
28.14167,-68
28.15000,-66
28.15833,-65
28.16667,-63
28.17500,-61
28.18333,-59
28.19167,-57
28.20000,-55
28.20833,-54
28.21667,-52
28.22500,-50
28.23333,-48
28.24167,-46
28.25000,-44
28.25833,-42
28.26667,-40
28.27500,-39
28.28333,-37
28.29167,-36
28.30000,-34
28.30833,-33
28.31667,-32
28.32500,-30
28.33333,-29
28.34167,-27
28.35000,-26
28.35833,-25
28.36667,-23
28.37500,-22
28.38333,-21
28.39167,-19
28.40000,-17
28.40833,-16
28.41667,-14
28.42500,-13
28.43333,-12
28.44167,-11
28.45000,-11
28.45833,-10
28.46667,-8
28.47500,-7
28.48333,-6
28.49167,-5
28.50000,-4
28.50833,-3
28.51667,-3
28.52500,-2
28.53333,-1
28.54167,-0
28.55000,1
28.55833,2
28.56667,3
28.57500,3
28.58333,4
28.59167,5
28.60000,6
28.60833,7
28.61667,8
28.62500,9
28.63333,10
28.64167,11
28.65000,12
28.65833,13
28.66667,14
28.67500,14
28.68333,15
28.69167,17
28.70000,18
28.70833,19
28.71667,20
28.72500,22
28.73333,23
28.74167,25
28.75000,26
28.75833,27
28.76667,28
28.77500,29
28.78333,31
28.79167,32
28.80000,34
28.80833,35
28.81667,37
28.82500,39
28.83333,40
28.84167,42
28.85000,44
28.85833,46
28.86667,48
28.87500,50
28.88333,51
28.89167,53
28.90000,55
28.90833,57
28.91667,59
28.92500,61
28.93333,63
28.94167,64
28.95000,66
28.95833,68
28.96667,69
28.97500,71
28.98333,73
28.99167,74
29.00000,75
29.00833,76
29.01667,78
29.02500,79
29.03333,80
29.04167,82
29.05000,84
29.05833,85
29.06667,86
29.07500,87
29.08333,88
29.09167,89
29.10000,89
29.10833,90
29.11667,90
29.12500,91
29.13333,92
29.14167,92
29.15000,92
29.15833,93
29.16667,93
29.17500,94
29.18333,95
29.19167,95
29.20000,95
29.20833,96
29.21667,96
29.22500,96
29.23333,96
29.24167,96
29.25000,96
29.25833,95
29.26667,95
29.27500,94
29.28333,94
29.29167,93
29.30000,93
29.30833,92
29.31667,91
29.32500,91
29.33333,90
29.34167,89
29.35000,88
29.35833,88
29.36667,87
29.37500,86
29.38333,86
29.39167,85
29.40000,84
29.40833,83
29.41667,82
29.42500,81
29.43333,79
29.44167,77
29.45000,76
29.45833,74
29.46667,73
29.47500,71
29.48333,70
29.49167,68
29.50000,67
29.50833,66
29.51667,64
29.52500,63
29.53333,61
29.54167,59
29.55000,57
29.55833,55
29.56667,53
29.57500,51
29.58333,50
29.59167,48
29.60000,46
29.60833,44
29.61667,43
29.62500,41
29.63333,39
29.64167,37
29.65000,35
29.65833,34
29.66667,32
29.67500,30
29.68333,28
29.69167,27
29.70000,25
29.70833,24
29.71667,22
29.72500,20
29.73333,19
29.74167,17
29.75000,15
29.75833,14
29.76667,13
29.77500,12
29.78333,12
29.79167,11
29.80000,10
29.80833,9
29.81667,7
29.82500,6
29.83333,5
29.84167,4
29.85000,3
29.85833,2
29.86667,1
29.87500,-1
29.88333,-2
29.89167,-3
29.90000,-4
29.90833,-4
29.91667,-5
29.92500,-6
29.93333,-7
29.94167,-7
29.95000,-8
29.95833,-9
29.96667,-10
29.97500,-10
29.98333,-11
29.99167,-12
30.00000,-13
30.00833,-14
30.01667,-15
30.02500,-15
30.03333,-16
30.04167,-17
30.05000,-18
30.05833,-19
30.06667,-20
30.07500,-22
30.08333,-23
30.09167,-25
30.10000,-26
30.10833,-27
30.11667,-28
30.12500,-30
30.13333,-31
30.14167,-32
30.15000,-34
30.15833,-36
30.16667,-37
30.17500,-39
30.18333,-41
30.19167,-43
30.20000,-45
30.20833,-46
30.21667,-48
30.22500,-49
30.23333,-51
30.24167,-53
30.25000,-55
30.25833,-58
30.26667,-60
30.27500,-62
30.28333,-64
30.29167,-67
30.30000,-69
30.30833,-71
30.31667,-74
30.32500,-76
30.33333,-78
30.34167,-80
30.35000,-82
30.35833,-85
30.36667,-87
30.37500,-89
30.38333,-91
30.39167,-93
30.40000,-95
30.40833,-98
30.41667,-100
30.42500,-102
30.43333,-104
30.44167,-106
30.45000,-108
30.45833,-110
30.46667,-112
30.47500,-114
30.48333,-116
30.49167,-118
30.50000,-119
30.50833,-121
30.51667,-123
30.52500,-124
30.53333,-125
30.54167,-126
30.55000,-128
30.55833,-129
30.56667,-131
30.57500,-132
30.58333,-133
30.59167,-134
30.60000,-135
30.60833,-136
30.61667,-137
30.62500,-138
30.63333,-139
30.64167,-139
30.65000,-140
30.65833,-140
30.66667,-141
30.67500,-141
30.68333,-141
30.69167,-140
30.70000,-140
30.70833,-140
30.71667,-139
30.72500,-139
30.73333,-138
30.74167,-137
30.75000,-137
30.75833,-136
30.76667,-135
30.77500,-134
30.78333,-133
30.79167,-132
30.80000,-131
30.80833,-130
30.81667,-128
30.82500,-127
30.83333,-126
30.84167,-124
30.85000,-123
30.85833,-121
30.86667,-119
30.87500,-117
30.88333,-115
30.89167,-113
30.90000,-110
30.90833,-108
30.91667,-106
30.92500,-104
30.93333,-101
30.94167,-99
30.95000,-97
30.95833,-94
30.96667,-92
30.97500,-89
30.98333,-87
30.99167,-85
31.00000,-83
31.00833,-81
31.01667,-79
31.02500,-76
31.03333,-74
31.04167,-71
31.05000,-69
31.05833,-66
31.06667,-64
31.07500,-62
31.08333,-60
31.09167,-57
31.10000,-55
31.10833,-53
31.11667,-50
31.12500,-48
31.13333,-45
31.14167,-43
31.15000,-41
31.15833,-39
31.16667,-37
31.17500,-35
31.18333,-34
31.19167,-32
31.20000,-30
31.20833,-28
31.21667,-26
31.22500,-25
31.23333,-23
31.24167,-21
31.25000,-20
31.25833,-19
31.26667,-18
31.27500,-17
31.28333,-16
31.29167,-14
31.30000,-13
31.30833,-12
31.31667,-11
31.32500,-10
31.33333,-8
31.34167,-7
31.35000,-6
31.35833,-5
31.36667,-4
31.37500,-3
31.38333,-2
31.39167,-2
31.40000,-1
31.40833,-0
31.41667,0
31.42500,1
31.43333,2
31.44167,3
31.45000,4
31.45833,6
31.46667,7
31.47500,8
31.48333,9
31.49167,10
31.50000,11
31.50833,11
31.51667,12
31.52500,13
31.53333,14
31.54167,16
31.55000,18
31.55833,19
31.56667,21
31.57500,22
31.58333,24
31.59167,26
31.60000,28
31.60833,31
31.61667,33
31.62500,36
31.63333,38
31.64167,40
31.65000,43
31.65833,46
31.66667,49
31.67500,53
31.68333,57
31.69167,61
31.70000,65
31.70833,69
31.71667,73
31.72500,77
31.73333,82
31.74167,87
31.75000,92
31.75833,98
31.76667,103
31.77500,109
31.78333,115
31.79167,120
31.80000,126
31.80833,132
31.81667,139
31.82500,146
31.83333,153
31.84167,161
31.85000,168
31.85833,176
31.86667,184
31.87500,191
31.88333,199
31.89167,206
31.90000,215
31.90833,223
31.91667,231
31.92500,239
31.93333,248
31.94167,256
31.95000,265
31.95833,273
31.96667,282
31.97500,290
31.98333,298
31.99167,306
32.00000,315
32.00833,323
32.01667,331
32.02500,339
32.03333,347
32.04167,355
32.05000,362
32.05833,370
32.06667,378
32.07500,385
32.08333,392
32.09167,399
32.10000,406
32.10833,412
32.11667,419
32.12500,426
32.13333,432
32.14167,439
32.15000,444
32.15833,450
32.16667,455
32.17500,460
32.18333,465
32.19167,470
32.20000,475
32.20833,479
32.21667,483
32.22500,488
32.23333,492
32.24167,495
32.25000,499
32.25833,502
32.26667,505
32.27500,508
32.28333,510
32.29167,513
32.30000,515
32.30833,517
32.31667,518
32.32500,520
32.33333,521
32.34167,522
32.35000,523
32.35833,523
32.36667,523
32.37500,523
32.38333,522
32.39167,522
32.40000,521
32.40833,520
32.41667,518
32.42500,517
32.43333,515
32.44167,512
32.45000,510
32.45833,507
32.46667,504
32.47500,500
32.48333,497
32.49167,493
32.50000,489
32.50833,484
32.51667,480
32.52500,475
32.53333,470
32.54167,465
32.55000,459
32.55833,453
32.56667,447
32.57500,440
32.58333,434
32.59167,427
32.60000,420
32.60833,413
32.61667,406
32.62500,398
32.63333,391
32.64167,383
32.65000,375
32.65833,367
32.66667,359
32.67500,351
32.68333,343
32.69167,335
32.70000,327
32.70833,318
32.71667,310
32.72500,302
32.73333,293
32.74167,285
32.75000,277
32.75833,269
32.76667,261
32.77500,253
32.78333,245
32.79167,237
32.80000,229
32.80833,222
32.81667,214
32.82500,207
32.83333,199
32.84167,192
32.85000,186
32.85833,179
32.86667,172
32.87500,165
32.88333,158
32.89167,152
32.90000,146
32.90833,141
32.91667,135
32.92500,129
32.93333,123
32.94167,118
32.95000,113
32.95833,109
32.96667,104
32.97500,99
32.98333,95
32.99167,91
33.00000,87
33.00833,83
33.01667,79
33.02500,75
33.03333,72
33.04167,69
33.05000,65
33.05833,62
33.06667,59
33.07500,57
33.08333,54
33.09167,51
33.10000,49
33.10833,47
33.11667,45
33.12500,43
33.13333,41
33.14167,39
33.15000,37
33.15833,36
33.16667,35
33.17500,34
33.18333,32
33.19167,31
33.20000,29
33.20833,28
33.21667,27
33.22500,25
33.23333,24
33.24167,23
33.25000,22
33.25833,21
33.26667,20
33.27500,19
33.28333,19
33.29167,18
33.30000,18
33.30833,17
33.31667,16
33.32500,16
33.33333,16
33.34167,15
33.35000,15
33.35833,14
33.36667,14
33.37500,13
33.38333,13
33.39167,12
33.40000,12
33.40833,12
33.41667,12
33.42500,11
33.43333,11
33.44167,10
33.45000,10
33.45833,10
33.46667,10
33.47500,10
33.48333,10
33.49167,9
33.50000,9
33.50833,9
33.51667,8
33.52500,8
33.53333,8
33.54167,8
33.55000,8
33.55833,7
33.56667,7
33.57500,7
33.58333,7
33.59167,7
33.60000,7
33.60833,7
33.61667,7
33.62500,6
33.63333,6
33.64167,6
33.65000,5
33.65833,5
33.66667,5
33.67500,5
33.68333,5
33.69167,6
33.70000,5
33.70833,5
33.71667,5
33.72500,5
33.73333,5
33.74167,5
33.75000,5
33.75833,5
33.76667,5
33.77500,5
33.78333,5
33.79167,5
33.80000,5
33.80833,5
33.81667,5
33.82500,5
33.83333,5
33.84167,5
33.85000,5
33.85833,5
33.86667,5
33.87500,5
33.88333,5
33.89167,5
33.90000,5
33.90833,5
33.91667,5
33.92500,5
33.93333,5
33.94167,6
33.95000,6
33.95833,6
33.96667,6
33.97500,6
33.98333,6
33.99167,6
34.00000,6
34.00833,6
34.01667,6
34.02500,6
34.03333,7
34.04167,7
34.05000,7
34.05833,7
34.06667,7
34.07500,7
34.08333,7
34.09167,8
34.10000,8
34.10833,7
34.11667,7
34.12500,7
34.13333,7
34.14167,7
34.15000,7
34.15833,8
34.16667,8
34.17500,8
34.18333,8
34.19167,8
34.20000,8
34.20833,8
34.21667,8
34.22500,8
34.23333,8
34.24167,8
34.25000,8
34.25833,8
34.26667,8
34.27500,9
34.28333,9
34.29167,9
34.30000,10
34.30833,10
34.31667,10
34.32500,10
34.33333,10
34.34167,10
34.35000,10
34.35833,10
34.36667,10
34.37500,9
34.38333,9
34.39167,9
34.40000,9
34.40833,9
34.41667,9
34.42500,10
34.43333,10
34.44167,10
34.45000,9
34.45833,9
34.46667,9
34.47500,9
34.48333,10
34.49167,10
34.50000,10
34.50833,10
34.51667,9
34.52500,9
34.53333,9
34.54167,9
34.55000,9
34.55833,9
34.56667,9
34.57500,9
34.58333,9
34.59167,9
34.60000,9
34.60833,9
34.61667,9
34.62500,9
34.63333,9
34.64167,9
34.65000,9
34.65833,9
34.66667,9
34.67500,8
34.68333,8
34.69167,8
34.70000,8
34.70833,9
34.71667,9
34.72500,9
34.73333,9
34.74167,9
34.75000,8
34.75833,8
34.76667,8
34.77500,7
34.78333,7
34.79167,8
34.80000,8
34.80833,8
34.81667,8
34.82500,8
34.83333,8
34.84167,8
34.85000,8
34.85833,8
34.86667,8
34.87500,8
34.88333,8
34.89167,8
34.90000,8
34.90833,8
34.91667,8
34.92500,8
34.93333,8
34.94167,7
34.95000,7
34.95833,7
34.96667,7
34.97500,8
34.98333,8
34.99167,8
35.00000,8
35.00833,8
35.01667,9
35.02500,8
35.03333,8
35.04167,8
35.05000,8
35.05833,8
35.06667,8
35.07500,8
35.08333,8
35.09167,8
35.10000,8
35.10833,8
35.11667,8
35.12500,8
35.13333,7
35.14167,7
35.15000,7
35.15833,7
35.16667,7
35.17500,8
35.18333,8
35.19167,7
35.20000,7
35.20833,7
35.21667,8
35.22500,8
35.23333,7
35.24167,7
35.25000,7
35.25833,7
35.26667,7
35.27500,7
35.28333,8
35.29167,8
35.30000,8
35.30833,8
35.31667,8
35.32500,8
35.33333,8
35.34167,8
35.35000,8
35.35833,8
35.36667,8
35.37500,8
35.38333,7
35.39167,7
35.40000,7
35.40833,7
35.41667,7
35.42500,7
35.43333,8
35.44167,7
35.45000,7
35.45833,7
35.46667,7
35.47500,7
35.48333,7
35.49167,7
35.50000,8
35.50833,8
35.51667,8
35.52500,7
35.53333,7
35.54167,7
35.55000,7
35.55833,7
35.56667,7
35.57500,7
35.58333,7
35.59167,7
35.60000,7
35.60833,7
35.61667,7
35.62500,7
35.63333,7
35.64167,7
35.65000,7
35.65833,7
35.66667,7
35.67500,7
35.68333,7
35.69167,7
35.70000,7
35.70833,8
35.71667,8
35.72500,8
35.73333,8
35.74167,7
35.75000,7
35.75833,6
35.76667,6
35.77500,6
35.78333,6
35.79167,6
35.80000,7
35.80833,7
35.81667,7
35.82500,7
35.83333,7
35.84167,7
35.85000,6
35.85833,6
35.86667,6
35.87500,6
35.88333,6
35.89167,7
35.90000,7
35.90833,7
35.91667,8
35.92500,8
35.93333,7
35.94167,7
35.95000,7
35.95833,7
35.96667,7
35.97500,7
35.98333,7
35.99167,7
36.00000,7
36.00833,7
36.01667,7
36.02500,6
36.03333,6
36.04167,6
36.05000,6
36.05833,6
36.06667,6
36.07500,6
36.08333,6
36.09167,6
36.10000,6
36.10833,6
36.11667,6
36.12500,6
36.13333,6
36.14167,6
36.15000,6
36.15833,6
36.16667,6
36.17500,6
36.18333,6
36.19167,7
36.20000,6
36.20833,6
36.21667,6
36.22500,6
36.23333,6
36.24167,6
36.25000,6
36.25833,6
36.26667,6
36.27500,6
36.28333,6
36.29167,6
36.30000,6
36.30833,6
36.31667,7
36.32500,7
36.33333,6
36.34167,6
36.35000,6
36.35833,5
36.36667,5
36.37500,5
36.38333,5
36.39167,6
36.40000,6
36.40833,6
36.41667,6
36.42500,6
36.43333,6
36.44167,6
36.45000,6
36.45833,6
36.46667,6
36.47500,6
36.48333,6
36.49167,6
36.50000,6
36.50833,6
36.51667,5
36.52500,5
36.53333,5
36.54167,5
36.55000,5
36.55833,6
36.56667,6
36.57500,6
36.58333,7
36.59167,6
36.60000,6
36.60833,6
36.61667,6
36.62500,6
36.63333,6
36.64167,5
36.65000,6
36.65833,6
36.66667,6
36.67500,6
36.68333,6
36.69167,6
36.70000,6
36.70833,6
36.71667,6
36.72500,6
36.73333,5
36.74167,5
36.75000,5
36.75833,6
36.76667,6
36.77500,6
36.78333,6
36.79167,6
36.80000,6
36.80833,6
36.81667,6
36.82500,6
36.83333,6
36.84167,6
36.85000,6
36.85833,6
36.86667,6
36.87500,6
36.88333,7
36.89167,7
36.90000,7
36.90833,8
36.91667,8
36.92500,8
36.93333,8
36.94167,8
36.95000,8
36.95833,8
36.96667,8
36.97500,7
36.98333,8
36.99167,8
37.00000,7
37.00833,7
37.01667,7
37.02500,7
37.03333,7
37.04167,7
37.05000,7
37.05833,7
37.06667,7
37.07500,7
37.08333,7
37.09167,7
37.10000,7
37.10833,6
37.11667,6
37.12500,6
37.13333,6
37.14167,6
37.15000,6
37.15833,6
37.16667,6
37.17500,6
37.18333,6
37.19167,7
37.20000,7
37.20833,7
37.21667,7
37.22500,7
37.23333,8
37.24167,8
37.25000,8
37.25833,8
37.26667,8
37.27500,8
37.28333,8
37.29167,8
37.30000,7
37.30833,7
37.31667,7
37.32500,7
37.33333,7
37.34167,8
37.35000,8
37.35833,8
37.36667,8
37.37500,8
37.38333,8
37.39167,8
37.40000,8
37.40833,8
37.41667,8
37.42500,8
37.43333,8
37.44167,8
37.45000,8
37.45833,8
37.46667,8
37.47500,8
37.48333,8
37.49167,8
37.50000,8
37.50833,8
37.51667,8
37.52500,8
37.53333,8
37.54167,8
37.55000,8
37.55833,8
37.56667,8
37.57500,8
37.58333,8
37.59167,8
37.60000,8
37.60833,8
37.61667,8
37.62500,8
37.63333,8
37.64167,8
37.65000,8
37.65833,8
37.66667,8
37.67500,8
37.68333,8
37.69167,8
37.70000,8
37.70833,8
37.71667,8
37.72500,8
37.73333,8
37.74167,8
37.75000,8
37.75833,8
37.76667,8
37.77500,8
37.78333,8
37.79167,8
37.80000,8
37.80833,8
37.81667,8
37.82500,8
37.83333,7
37.84167,7
37.85000,8
37.85833,8
37.86667,8
37.87500,8
37.88333,8
37.89167,8
37.90000,8
37.90833,8
37.91667,8
37.92500,8
37.93333,8
37.94167,8
37.95000,8
37.95833,8
37.96667,8
37.97500,8
37.98333,8
37.99167,8
38.00000,8
38.00833,8
38.01667,8
38.02500,8
38.03333,8
38.04167,8
38.05000,8
38.05833,8
38.06667,8
38.07500,8
38.08333,8
38.09167,7
38.10000,7
38.10833,7
38.11667,7
38.12500,7
38.13333,7
38.14167,8
38.15000,8
38.15833,8
38.16667,8
38.17500,8
38.18333,8
38.19167,7
38.20000,7
38.20833,7
38.21667,7
38.22500,7
38.23333,7
38.24167,7
38.25000,7
38.25833,7
38.26667,7
38.27500,7
38.28333,7
38.29167,7
38.30000,7
38.30833,7
38.31667,7
38.32500,7
38.33333,7
38.34167,7
38.35000,6
38.35833,6
38.36667,6
38.37500,6
38.38333,5
38.39167,5
38.40000,5
38.40833,5
38.41667,4
38.42500,4
38.43333,4
38.44167,5
38.45000,5
38.45833,5
38.46667,5
38.47500,5
38.48333,5
38.49167,5
38.50000,5
38.50833,5
38.51667,5
38.52500,4
38.53333,4
38.54167,4
38.55000,4
38.55833,4
38.56667,3
38.57500,4
38.58333,4
38.59167,3
38.60000,3
38.60833,4
38.61667,3
38.62500,4
38.63333,3
38.64167,3
38.65000,3
38.65833,3
38.66667,3
38.67500,3
38.68333,3
38.69167,3
38.70000,4
38.70833,4
38.71667,4
38.72500,3
38.73333,3
38.74167,3
38.75000,3
38.75833,2
38.76667,2
38.77500,2
38.78333,2
38.79167,2
38.80000,2
38.80833,2
38.81667,2
38.82500,2
38.83333,2
38.84167,2
38.85000,1
38.85833,1
38.86667,1
38.87500,1
38.88333,1
38.89167,1
38.90000,2
38.90833,2
38.91667,2
38.92500,2
38.93333,2
38.94167,2
38.95000,2
38.95833,1
38.96667,1
38.97500,0
38.98333,0
38.99167,1
39.00000,1
39.00833,0
39.01667,-0
39.02500,-0
39.03333,-0
39.04167,-0
39.05000,-0
39.05833,-0
39.06667,-0
39.07500,-0
39.08333,-0
39.09167,-0
39.10000,-1
39.10833,-1
39.11667,-1
39.12500,-1
39.13333,-1
39.14167,-0
39.15000,-0
39.15833,-0
39.16667,0
39.17500,0
39.18333,0
39.19167,-0
39.20000,-0
39.20833,-0
39.21667,-1
39.22500,-1
39.23333,-1
39.24167,-1
39.25000,-1
39.25833,-1
39.26667,-0
39.27500,-1
39.28333,-1
39.29167,-1
39.30000,-1
39.30833,-1
39.31667,-0
39.32500,-0
39.33333,-0
39.34167,0
39.35000,0
39.35833,0
39.36667,1
39.37500,1
39.38333,1
39.39167,1
39.40000,1
39.40833,1
39.41667,1
39.42500,1
39.43333,0
39.44167,0
39.45000,0
39.45833,0
39.46667,1
39.47500,0
39.48333,0
39.49167,0
39.50000,0
39.50833,0
39.51667,1
39.52500,1
39.53333,1
39.54167,1
39.55000,1
39.55833,1
39.56667,1
39.57500,1
39.58333,0
39.59167,-0
39.60000,-0
39.60833,-0
39.61667,0
39.62500,0
39.63333,0
39.64167,0
39.65000,0
39.65833,-0
39.66667,-1
39.67500,-1
39.68333,-1
39.69167,-0
39.70000,-0
39.70833,-0
39.71667,0
39.72500,0
39.73333,0
39.74167,0
39.75000,0
39.75833,1
39.76667,1
39.77500,1
39.78333,1
39.79167,1
39.80000,0
39.80833,0
39.81667,0
39.82500,0
39.83333,0
39.84167,0
39.85000,0
39.85833,1
39.86667,1
39.87500,1
39.88333,1
39.89167,1
39.90000,1
39.90833,1
39.91667,1
39.92500,1
39.93333,1
39.94167,0
39.95000,-1
39.95833,-1
39.96667,-1
39.97500,-1
39.98333,-1
39.99167,-1
40.00000,-0
40.00833,-0
40.01667,-0
40.02500,-0
40.03333,-0
40.04167,-0
40.05000,-0
40.05833,-1
40.06667,-1
40.07500,-1
40.08333,-1
40.09167,-0
40.10000,-0
40.10833,-0
40.11667,-0
40.12500,-0
40.13333,-0
40.14167,-0
40.15000,-0
40.15833,-1
40.16667,-1
40.17500,-2
40.18333,-2
40.19167,-2
40.20000,-2
40.20833,-2
40.21667,-1
40.22500,-1
40.23333,-0
40.24167,-0
40.25000,0
40.25833,0
40.26667,-0
40.27500,-0
40.28333,-0
40.29167,-0
40.30000,-0
40.30833,-1
40.31667,-1
40.32500,-1
40.33333,-2
40.34167,-2
40.35000,-2
40.35833,-2
40.36667,-2
40.37500,-3
40.38333,-2
40.39167,-2
40.40000,-2
40.40833,-2
40.41667,-2
40.42500,-2
40.43333,-2
40.44167,-2
40.45000,-2
40.45833,-2
40.46667,-2
40.47500,-3
40.48333,-3
40.49167,-3
40.50000,-3
40.50833,-3
40.51667,-3
40.52500,-3
40.53333,-2
40.54167,-2
40.55000,-2
40.55833,-2
40.56667,-2
40.57500,-2
40.58333,-2
40.59167,-3
40.60000,-3
40.60833,-3
40.61667,-3
40.62500,-3
40.63333,-3
40.64167,-4
40.65000,-4
40.65833,-4
40.66667,-5
40.67500,-5
40.68333,-4
40.69167,-4
40.70000,-5
40.70833,-5
40.71667,-5
40.72500,-5
40.73333,-5
40.74167,-5
40.75000,-5
40.75833,-6
40.76667,-6
40.77500,-6
40.78333,-5
40.79167,-5
40.80000,-5
40.80833,-5
40.81667,-5
40.82500,-5
40.83333,-5
40.84167,-5
40.85000,-5
40.85833,-5
40.86667,-5
40.87500,-5
40.88333,-5
40.89167,-5
40.90000,-5
40.90833,-5
40.91667,-5
40.92500,-5
40.93333,-5
40.94167,-4
40.95000,-4
40.95833,-4
40.96667,-4
40.97500,-4
40.98333,-5
40.99167,-5
41.00000,-5
41.00833,-4
41.01667,-4
41.02500,-5
41.03333,-5
41.04167,-5
41.05000,-5
41.05833,-5
41.06667,-5
41.07500,-5
41.08333,-5
41.09167,-5
41.10000,-6
41.10833,-6
41.11667,-6
41.12500,-6
41.13333,-6
41.14167,-6
41.15000,-6
41.15833,-6
41.16667,-6
41.17500,-6
41.18333,-6
41.19167,-6
41.20000,-6
41.20833,-6
41.21667,-6
41.22500,-7
41.23333,-6
41.24167,-6
41.25000,-6
41.25833,-6
41.26667,-6
41.27500,-6
41.28333,-6
41.29167,-6
41.30000,-6
41.30833,-5
41.31667,-5
41.32500,-5
41.33333,-5
41.34167,-5
41.35000,-6
41.35833,-6
41.36667,-6
41.37500,-7
41.38333,-7
41.39167,-7
41.40000,-6
41.40833,-6
41.41667,-6
41.42500,-6
41.43333,-6
41.44167,-5
41.45000,-6
41.45833,-6
41.46667,-6
41.47500,-5
41.48333,-6
41.49167,-6
41.50000,-6
41.50833,-6
41.51667,-6
41.52500,-6
41.53333,-6
41.54167,-6
41.55000,-6
41.55833,-6
41.56667,-5
41.57500,-5
41.58333,-5
41.59167,-5
41.60000,-5
41.60833,-5
41.61667,-5
41.62500,-5
41.63333,-5
41.64167,-5
41.65000,-5
41.65833,-5
41.66667,-5
41.67500,-5
41.68333,-5
41.69167,-5
41.70000,-6
41.70833,-6
41.71667,-6
41.72500,-6
41.73333,-7
41.74167,-7
41.75000,-7
41.75833,-6
41.76667,-6
41.77500,-6
41.78333,-6
41.79167,-6
41.80000,-5
41.80833,-6
41.81667,-6
41.82500,-6
41.83333,-6
41.84167,-5
41.85000,-5
41.85833,-5
41.86667,-5
41.87500,-5
41.88333,-5
41.89167,-5
41.90000,-5
41.90833,-6
41.91667,-6
41.92500,-6
41.93333,-6
41.94167,-6
41.95000,-5
41.95833,-5
41.96667,-6
41.97500,-6
41.98333,-5
41.99167,-5
42.00000,-6
42.00833,-6
42.01667,-6
42.02500,-5
42.03333,-5
42.04167,-5
42.05000,-5
42.05833,-5
42.06667,-6
42.07500,-6
42.08333,-6
42.09167,-6
42.10000,-6
42.10833,-6
42.11667,-5
42.12500,-6
42.13333,-5
42.14167,-5
42.15000,-5
42.15833,-5
42.16667,-5
42.17500,-5
42.18333,-5
42.19167,-5
42.20000,-5
42.20833,-5
42.21667,-6
42.22500,-6
42.23333,-6
42.24167,-6
42.25000,-6
42.25833,-6
42.26667,-6
42.27500,-6
42.28333,-6
42.29167,-6
42.30000,-6
42.30833,-6
42.31667,-6
42.32500,-6
42.33333,-6
42.34167,-5
42.35000,-6
42.35833,-6
42.36667,-6
42.37500,-5
42.38333,-5
42.39167,-5
42.40000,-5
42.40833,-5
42.41667,-6
42.42500,-6
42.43333,-5
42.44167,-5
42.45000,-5
42.45833,-5
42.46667,-5
42.47500,-4
42.48333,-5
42.49167,-5
42.50000,-5
42.50833,-5
42.51667,-5
42.52500,-5
42.53333,-5
42.54167,-5
42.55000,-5
42.55833,-5
42.56667,-5
42.57500,-5
42.58333,-5
42.59167,-5
42.60000,-5
42.60833,-5
42.61667,-5
42.62500,-5
42.63333,-5
42.64167,-6
42.65000,-6
42.65833,-6
42.66667,-6
42.67500,-6
42.68333,-6
42.69167,-6
42.70000,-6
42.70833,-7
42.71667,-6
42.72500,-6
42.73333,-6
42.74167,-6
42.75000,-6
42.75833,-5
42.76667,-5
42.77500,-5
42.78333,-5
42.79167,-6
42.80000,-6
42.80833,-6
42.81667,-6
42.82500,-6
42.83333,-5
42.84167,-5
42.85000,-5
42.85833,-5
42.86667,-6
42.87500,-6
42.88333,-6
42.89167,-6
42.90000,-6
42.90833,-6
42.91667,-6
42.92500,-5
42.93333,-5
42.94167,-5
42.95000,-5
42.95833,-5
42.96667,-5
42.97500,-5
42.98333,-5
42.99167,-6
43.00000,-6
43.00833,-6
43.01667,-6
43.02500,-6
43.03333,-6
43.04167,-6
43.05000,-5
43.05833,-5
43.06667,-5
43.07500,-5
43.08333,-5
43.09167,-5
43.10000,-5
43.10833,-5
43.11667,-5
43.12500,-5
43.13333,-4
43.14167,-4
43.15000,-4
43.15833,-4
43.16667,-5
43.17500,-4
43.18333,-4
43.19167,-4
43.20000,-4
43.20833,-4
43.21667,-4
43.22500,-4
43.23333,-4
43.24167,-5
43.25000,-5
43.25833,-5
43.26667,-5
43.27500,-5
43.28333,-5
43.29167,-5
43.30000,-6
43.30833,-6
43.31667,-6
43.32500,-6
43.33333,-5
43.34167,-5
43.35000,-5
43.35833,-5
43.36667,-5
43.37500,-5
43.38333,-5
43.39167,-5
43.40000,-4
43.40833,-5
43.41667,-5
43.42500,-5
43.43333,-5
43.44167,-5
43.45000,-5
43.45833,-5
43.46667,-5
43.47500,-6
43.48333,-5
43.49167,-5
43.50000,-5
43.50833,-6
43.51667,-6
43.52500,-6
43.53333,-6
43.54167,-6
43.55000,-6
43.55833,-6
43.56667,-6
43.57500,-5
43.58333,-5
43.59167,-5
43.60000,-5
43.60833,-5
43.61667,-5
43.62500,-5
43.63333,-5
43.64167,-4
43.65000,-4
43.65833,-4
43.66667,-4
43.67500,-4
43.68333,-5
43.69167,-5
43.70000,-5
43.70833,-4
43.71667,-4
43.72500,-4
43.73333,-4
43.74167,-4
43.75000,-4
43.75833,-4
43.76667,-4
43.77500,-4
43.78333,-4
43.79167,-4
43.80000,-4
43.80833,-5
43.81667,-5
43.82500,-5
43.83333,-5
43.84167,-4
43.85000,-4
43.85833,-5
43.86667,-4
43.87500,-4
43.88333,-4
43.89167,-4
43.90000,-4
43.90833,-4
43.91667,-4
43.92500,-4
43.93333,-4
43.94167,-4
43.95000,-4
43.95833,-4
43.96667,-4
43.97500,-4
43.98333,-4
43.99167,-4
44.00000,-4
44.00833,-4
44.01667,-5
44.02500,-5
44.03333,-5
44.04167,-5
44.05000,-5
44.05833,-5
44.06667,-5
44.07500,-4
44.08333,-4
44.09167,-4
44.10000,-4
44.10833,-4
44.11667,-4
44.12500,-4
44.13333,-5
44.14167,-5
44.15000,-5
44.15833,-5
44.16667,-5
44.17500,-5
44.18333,-5
44.19167,-5
44.20000,-5
44.20833,-5
44.21667,-5
44.22500,-5
44.23333,-6
44.24167,-6
44.25000,-6
44.25833,-6
44.26667,-5
44.27500,-5
44.28333,-4
44.29167,-5
44.30000,-5
44.30833,-5
44.31667,-5
44.32500,-5
44.33333,-5
44.34167,-5
44.35000,-5
44.35833,-5
44.36667,-6
44.37500,-6
44.38333,-6
44.39167,-6
44.40000,-6
44.40833,-6
44.41667,-6
44.42500,-6
44.43333,-6
44.44167,-6
44.45000,-6
44.45833,-6
44.46667,-5
44.47500,-5
44.48333,-5
44.49167,-6
44.50000,-6
44.50833,-6
44.51667,-6
44.52500,-6
44.53333,-5
44.54167,-6
44.55000,-6
44.55833,-6
44.56667,-6
44.57500,-6
44.58333,-6
44.59167,-6
44.60000,-6
44.60833,-6
44.61667,-5
44.62500,-5
44.63333,-5
44.64167,-5
44.65000,-5
44.65833,-5
44.66667,-5
44.67500,-5
44.68333,-5
44.69167,-5
44.70000,-5
44.70833,-5
44.71667,-6
44.72500,-6
44.73333,-6
44.74167,-6
44.75000,-6
44.75833,-6
44.76667,-6
44.77500,-6
44.78333,-6
44.79167,-6
44.80000,-7
44.80833,-7
44.81667,-7
44.82500,-6
44.83333,-6
44.84167,-6
44.85000,-6
44.85833,-6
44.86667,-6
44.87500,-6
44.88333,-6
44.89167,-6
44.90000,-6
44.90833,-6
44.91667,-6
44.92500,-7
44.93333,-7
44.94167,-6
44.95000,-6
44.95833,-6
44.96667,-6
44.97500,-6
44.98333,-6
44.99167,-6
45.00000,-6
45.00833,-6
45.01667,-6
45.02500,-6
45.03333,-7
45.04167,-7
45.05000,-7
45.05833,-7
45.06667,-7
45.07500,-7
45.08333,-7
45.09167,-7
45.10000,-7
45.10833,-7
45.11667,-7
45.12500,-7
45.13333,-7
45.14167,-7
45.15000,-7
45.15833,-6
45.16667,-6
45.17500,-6
45.18333,-6
45.19167,-6
45.20000,-6
45.20833,-6
45.21667,-6
45.22500,-6
45.23333,-6
45.24167,-6
45.25000,-6
45.25833,-6
45.26667,-7
45.27500,-7
45.28333,-7
45.29167,-7
45.30000,-7
45.30833,-6
45.31667,-6
45.32500,-6
45.33333,-6
45.34167,-6
45.35000,-6
45.35833,-7
45.36667,-7
45.37500,-7
45.38333,-7
45.39167,-7
45.40000,-8
45.40833,-8
45.41667,-8
45.42500,-8
45.43333,-8
45.44167,-8
45.45000,-8
45.45833,-8
45.46667,-7
45.47500,-7
45.48333,-7
45.49167,-7
45.50000,-7
45.50833,-7
45.51667,-7
45.52500,-7
45.53333,-7
45.54167,-7
45.55000,-7
45.55833,-7
45.56667,-7
45.57500,-7
45.58333,-7
45.59167,-7
45.60000,-7
45.60833,-7
45.61667,-7
45.62500,-7
45.63333,-7
45.64167,-7
45.65000,-7
45.65833,-7
45.66667,-7
45.67500,-6
45.68333,-6
45.69167,-6
45.70000,-7
45.70833,-7
45.71667,-7
45.72500,-7
45.73333,-7
45.74167,-7
45.75000,-7
45.75833,-7
45.76667,-7
45.77500,-7
45.78333,-7
45.79167,-7
45.80000,-7
45.80833,-7
45.81667,-8
45.82500,-8
45.83333,-8
45.84167,-8
45.85000,-7
45.85833,-7
45.86667,-7
45.87500,-7
45.88333,-7
45.89167,-7
45.90000,-7
45.90833,-7
45.91667,-7
45.92500,-7
45.93333,-7
45.94167,-7
45.95000,-7
45.95833,-8
45.96667,-8
45.97500,-8
45.98333,-8
45.99167,-8
46.00000,-7
46.00833,-7
46.01667,-7
46.02500,-7
46.03333,-7
46.04167,-7
46.05000,-7
46.05833,-6
46.06667,-7
46.07500,-7
46.08333,-6
46.09167,-6
46.10000,-6
46.10833,-6
46.11667,-6
46.12500,-6
46.13333,-6
46.14167,-6
46.15000,-7
46.15833,-7
46.16667,-7
46.17500,-7
46.18333,-7
46.19167,-7
46.20000,-7
46.20833,-7
46.21667,-7
46.22500,-7
46.23333,-7
46.24167,-7
46.25000,-7
46.25833,-7
46.26667,-7
46.27500,-7
46.28333,-7
46.29167,-7
46.30000,-6
46.30833,-6
46.31667,-6
46.32500,-6
46.33333,-6
46.34167,-6
46.35000,-6
46.35833,-6
46.36667,-6
46.37500,-6
46.38333,-7
46.39167,-7
46.40000,-7
46.40833,-7
46.41667,-6
46.42500,-7
46.43333,-7
46.44167,-7
46.45000,-7
46.45833,-7
46.46667,-7
46.47500,-7
46.48333,-7
46.49167,-7
46.50000,-7
46.50833,-7
46.51667,-7
46.52500,-7
46.53333,-7
46.54167,-8
46.55000,-7
46.55833,-8
46.56667,-8
46.57500,-7
46.58333,-7
46.59167,-7
46.60000,-7
46.60833,-7
46.61667,-7
46.62500,-7
46.63333,-7
46.64167,-6
46.65000,-6
46.65833,-6
46.66667,-6
46.67500,-7
46.68333,-7
46.69167,-7
46.70000,-7
46.70833,-7
46.71667,-7
46.72500,-7
46.73333,-7
46.74167,-7
46.75000,-7
46.75833,-7
46.76667,-7
46.77500,-7
46.78333,-7
46.79167,-7
46.80000,-7
46.80833,-7
46.81667,-7
46.82500,-7
46.83333,-7
46.84167,-7
46.85000,-7
46.85833,-7
46.86667,-7
46.87500,-7
46.88333,-7
46.89167,-7
46.90000,-7
46.90833,-7
46.91667,-7
46.92500,-6
46.93333,-6
46.94167,-6
46.95000,-6
46.95833,-7
46.96667,-7
46.97500,-7
46.98333,-6
46.99167,-6
47.00000,-6
47.00833,-7
47.01667,-7
47.02500,-7
47.03333,-7
47.04167,-7
47.05000,-7
47.05833,-7
47.06667,-7
47.07500,-7
47.08333,-7
47.09167,-7
47.10000,-7
47.10833,-6
47.11667,-7
47.12500,-7
47.13333,-7
47.14167,-7
47.15000,-7
47.15833,-7
47.16667,-7
47.17500,-7
47.18333,-7
47.19167,-7
47.20000,-7
47.20833,-7
47.21667,-7
47.22500,-7
47.23333,-7
47.24167,-7
47.25000,-7
47.25833,-8
47.26667,-8
47.27500,-8
47.28333,-8
47.29167,-8
47.30000,-7
47.30833,-7
47.31667,-7
47.32500,-7
47.33333,-7
47.34167,-7
47.35000,-7
47.35833,-7
47.36667,-7
47.37500,-7
47.38333,-7
47.39167,-7
47.40000,-7
47.40833,-7
47.41667,-6
47.42500,-6
47.43333,-6
47.44167,-6
47.45000,-7
47.45833,-7
47.46667,-7
47.47500,-7
47.48333,-7
47.49167,-7
47.50000,-7
47.50833,-7
47.51667,-7
47.52500,-7
47.53333,-6
47.54167,-6
47.55000,-6
47.55833,-6
47.56667,-6
47.57500,-6
47.58333,-6
47.59167,-7
47.60000,-7
47.60833,-6
47.61667,-6
47.62500,-6
47.63333,-6
47.64167,-7
47.65000,-7
47.65833,-7
47.66667,-7
47.67500,-7
47.68333,-7
47.69167,-7
47.70000,-7
47.70833,-7
47.71667,-7
47.72500,-7
47.73333,-7
47.74167,-7
47.75000,-7
47.75833,-7
47.76667,-7
47.77500,-7
47.78333,-7
47.79167,-6
47.80000,-6
47.80833,-6
47.81667,-6
47.82500,-7
47.83333,-7
47.84167,-7
47.85000,-7
47.85833,-7
47.86667,-6
47.87500,-6
47.88333,-6
47.89167,-6
47.90000,-6
47.90833,-7
47.91667,-7
47.92500,-7
47.93333,-7
47.94167,-7
47.95000,-7
47.95833,-7
47.96667,-7
47.97500,-8
47.98333,-8
47.99167,-7
48.00000,-7
48.00833,-6
48.01667,-6
48.02500,-6
48.03333,-6
48.04167,-6
48.05000,-7
48.05833,-7
48.06667,-7
48.07500,-7
48.08333,-7
48.09167,-7
48.10000,-7
48.10833,-6
48.11667,-6
48.12500,-6
48.13333,-7
48.14167,-7
48.15000,-7
48.15833,-7
48.16667,-7
48.17500,-6
48.18333,-6
48.19167,-6
48.20000,-6
48.20833,-6
48.21667,-6
48.22500,-6
48.23333,-5
48.24167,-5
48.25000,-6
48.25833,-6
48.26667,-6
48.27500,-6
48.28333,-6
48.29167,-6
48.30000,-6
48.30833,-6
48.31667,-6
48.32500,-6
48.33333,-6
48.34167,-6
48.35000,-6
48.35833,-6
48.36667,-6
48.37500,-6
48.38333,-7
48.39167,-7
48.40000,-7
48.40833,-7
48.41667,-7
48.42500,-7
48.43333,-7
48.44167,-7
48.45000,-7
48.45833,-7
48.46667,-7
48.47500,-7
48.48333,-7
48.49167,-7
48.50000,-7
48.50833,-6
48.51667,-6
48.52500,-6
48.53333,-6
48.54167,-6
48.55000,-6
48.55833,-6
48.56667,-6
48.57500,-6
48.58333,-6
48.59167,-6
48.60000,-7
48.60833,-7
48.61667,-7
48.62500,-7
48.63333,-7
48.64167,-7
48.65000,-7
48.65833,-6
48.66667,-6
48.67500,-6
48.68333,-6
48.69167,-7
48.70000,-7
48.70833,-7
48.71667,-7
48.72500,-7
48.73333,-7
48.74167,-7
48.75000,-8
48.75833,-8
48.76667,-8
48.77500,-8
48.78333,-8
48.79167,-7
48.80000,-7
48.80833,-7
48.81667,-7
48.82500,-7
48.83333,-7
48.84167,-7
48.85000,-8
48.85833,-8
48.86667,-8
48.87500,-8
48.88333,-8
48.89167,-8
48.90000,-7
48.90833,-7
48.91667,-7
48.92500,-7
48.93333,-7
48.94167,-6
48.95000,-6
48.95833,-7
48.96667,-7
48.97500,-7
48.98333,-7
48.99167,-6
49.00000,-6
49.00833,-6
49.01667,-7
49.02500,-7
49.03333,-7
49.04167,-7
49.05000,-7
49.05833,-7
49.06667,-7
49.07500,-7
49.08333,-7
49.09167,-7
49.10000,-6
49.10833,-6
49.11667,-6
49.12500,-6
49.13333,-6
49.14167,-6
49.15000,-6
49.15833,-6
49.16667,-6
49.17500,-6
49.18333,-6
49.19167,-6
49.20000,-7
49.20833,-7
49.21667,-7
49.22500,-7
49.23333,-7
49.24167,-7
49.25000,-6
49.25833,-6
49.26667,-6
49.27500,-6
49.28333,-6
49.29167,-7
49.30000,-7
49.30833,-7
49.31667,-7
49.32500,-7
49.33333,-7
49.34167,-7
49.35000,-7
49.35833,-7
49.36667,-7
49.37500,-7
49.38333,-7
49.39167,-7
49.40000,-7
49.40833,-7
49.41667,-7
49.42500,-7
49.43333,-7
49.44167,-7
49.45000,-7
49.45833,-7
49.46667,-7
49.47500,-7
49.48333,-7
49.49167,-7
49.50000,-7
49.50833,-7
49.51667,-7
49.52500,-7
49.53333,-7
49.54167,-7
49.55000,-6
49.55833,-6
49.56667,-6
49.57500,-6
49.58333,-6
49.59167,-6
49.60000,-6
49.60833,-6
49.61667,-6
49.62500,-6
49.63333,-6
49.64167,-6
49.65000,-6
49.65833,-6
49.66667,-6
49.67500,-6
49.68333,-6
49.69167,-5
49.70000,-5
49.70833,-4
49.71667,-4
49.72500,-4
49.73333,-5
49.74167,-5
49.75000,-5
49.75833,-5
49.76667,-5
49.77500,-5
49.78333,-5
49.79167,-5
49.80000,-5
49.80833,-5
49.81667,-5
49.82500,-5
49.83333,-5
49.84167,-5
49.85000,-5
49.85833,-5
49.86667,-5
49.87500,-5
49.88333,-4
49.89167,-5
49.90000,-5
49.90833,-5
49.91667,-5
49.92500,-5
49.93333,-5
49.94167,-5
49.95000,-4
49.95833,-4
49.96667,-4
49.97500,-3
49.98333,-3
49.99167,-2
50.00000,-2

