[Header]
Application Name,LabSolutions
Version,5.97 SP1
Data File Name,C:\Users\cremerlab\Desktop\Richa\Oct_18th_2022_yield_expt\Oct 18th 2022 yield expt_10182022_001_002.lcd
Output Date,10/18/2022
Output Time,6:31:43 PM

[File Information]
Type,Data File
Generated,10/18/2022 5:41:22 PM
Generated by,System Administrator
Modified,10/18/2022 6:31:43 PM
Modified by,System Administrator

[Sample Information]
Operator Name,System Administrator
Acquired,10/18/2022 5:41:41 PM
Sample Type,0:Unknown
Level,0
Sample Name,101822_NCM_1
Sample ID,001
ISTD Amount1,1
ISTD Amount2,1
ISTD Amount3,1
ISTD Amount4,1
ISTD Amount5,1
ISTD Amount6,1
ISTD Amount7,1
ISTD Amount8,1
ISTD Amount9,1
ISTD Amount10,1
ISTD Amount11,1
ISTD Amount12,1
ISTD Amount13,1
ISTD Amount14,1
ISTD Amount15,1
ISTD Amount16,1
ISTD Amount17,1
ISTD Amount18,1
ISTD Amount19,1
ISTD Amount20,1
ISTD Amount21,1
ISTD Amount22,1
ISTD Amount23,1
ISTD Amount24,1
ISTD Amount25,1
ISTD Amount26,1
ISTD Amount27,1
ISTD Amount28,1
ISTD Amount29,1
ISTD Amount30,1
ISTD Amount31,1
ISTD Amount32,1
Sample Amount,1
Dilution Factor,1
Vial#,1
Injection Volume,20

[Original Files]
Data File,C:\Users\cremerlab\Desktop\Richa\Oct_18th_2022_yield_expt\Oct 18th 2022 yield expt_10182022_001_002.lcd
Method File,C:\Users\cremerlab\Desktop\Richa\acetate_excretion.lcm
Batch File,C:\Users\cremerlab\Desktop\Richa\Oct_18th_2022_yield_expt\Oct 18th 2022 yield expt.lcb
Report Format File,c:\LabSolutions\System\DEFAULT.lsr

[File Description]


[Configuration]
Instrument Name,HPLC-PC-Instrument1
Instrument #,1
Line #,1
# of Detectors,2
Detector ID,Detector A,Detector B
Detector Name,Detector A,Detector B
# of Channels,1,1

[Peak Table(Detector A)]
# of Peaks,0

[Peak Table(Detector B)]
# of Peaks,7
Peak#,R.Time,I.Time,F.Time,Area,Height,A/H,Conc.,Mark,ID#,Name,k',Plate #,Plate Ht.,Tailing,Resolution,Sep.Factor,Area Ratio,Height Ratio,Conc. %,Norm Conc.
1,11.033,10.558,12.650,2208566,114404,19.305,0.000,   ,,,0.000,7772,19.300,0.922,0.000,0.000,0,0,0.000,0.000
2,14.354,12.650,15.183,3698157,77915,47.464,0.000, V ,,,0.301,2453,61.160,0.652,4.002,0.000,0,0,0.000,0.000
3,15.773,15.183,18.425,1555690,52009,29.912,0.000, V ,,,0.430,6800,22.060,1.146,1.475,1.427,0,0,0.000,0.000
4,20.966,20.467,22.142,8999,172,52.303,0.000,   ,,,0.900,1612,93.057,1.630,3.639,2.095,0,0,0.000,0.000
5,23.118,22.483,23.858,15291,424,36.034,0.000,   ,,,1.095,9353,16.038,1.013,1.413,1.217,0,0,0.000,0.000
6,25.083,24.275,26.167,148532,3724,39.880,0.000,   ,,,1.273,9184,16.333,1.048,1.962,1.163,0,0,0.000,0.000
7,32.384,30.725,33.400,42785,619,69.116,0.000,   ,,,1.935,6787,22.102,0.788,5.575,1.520,0,0,0.000,0.000

[LC Chromatogram(Detector B-Ch1)]
Interval(msec),500
# of Points,6001
Start Time(min),0.000
End Time(min),50.000
Intensity Units,mV
Intensity Multiplier,0.001
R.Time (min),Intensity
0.00000,1
0.00833,1
0.01667,0
0.02500,0
0.03333,0
0.04167,0
0.05000,0
0.05833,0
0.06667,1
0.07500,1
0.08333,1
0.09167,1
0.10000,1
0.10833,2
0.11667,2
0.12500,2
0.13333,2
0.14167,2
0.15000,2
0.15833,2
0.16667,2
0.17500,2
0.18333,1
0.19167,1
0.20000,1
0.20833,1
0.21667,1
0.22500,1
0.23333,1
0.24167,1
0.25000,1
0.25833,1
0.26667,2
0.27500,2
0.28333,2
0.29167,2
0.30000,2
0.30833,2
0.31667,2
0.32500,2
0.33333,2
0.34167,2
0.35000,2
0.35833,2
0.36667,2
0.37500,2
0.38333,1
0.39167,2
0.40000,2
0.40833,2
0.41667,2
0.42500,1
0.43333,1
0.44167,2
0.45000,2
0.45833,2
0.46667,2
0.47500,2
0.48333,2
0.49167,2
0.50000,1
0.50833,1
0.51667,1
0.52500,1
0.53333,2
0.54167,2
0.55000,2
0.55833,2
0.56667,2
0.57500,2
0.58333,2
0.59167,2
0.60000,2
0.60833,2
0.61667,2
0.62500,1
0.63333,1
0.64167,2
0.65000,2
0.65833,2
0.66667,2
0.67500,2
0.68333,2
0.69167,2
0.70000,2
0.70833,2
0.71667,2
0.72500,2
0.73333,2
0.74167,2
0.75000,2
0.75833,2
0.76667,2
0.77500,2
0.78333,2
0.79167,2
0.80000,2
0.80833,2
0.81667,3
0.82500,3
0.83333,3
0.84167,3
0.85000,3
0.85833,2
0.86667,2
0.87500,1
0.88333,1
0.89167,2
0.90000,1
0.90833,1
0.91667,1
0.92500,1
0.93333,1
0.94167,1
0.95000,1
0.95833,2
0.96667,1
0.97500,1
0.98333,1
0.99167,1
1.00000,1
1.00833,1
1.01667,1
1.02500,1
1.03333,2
1.04167,2
1.05000,1
1.05833,1
1.06667,1
1.07500,1
1.08333,2
1.09167,2
1.10000,2
1.10833,2
1.11667,2
1.12500,2
1.13333,2
1.14167,2
1.15000,2
1.15833,2
1.16667,3
1.17500,3
1.18333,2
1.19167,2
1.20000,2
1.20833,2
1.21667,2
1.22500,2
1.23333,2
1.24167,2
1.25000,3
1.25833,3
1.26667,3
1.27500,3
1.28333,3
1.29167,2
1.30000,2
1.30833,2
1.31667,2
1.32500,2
1.33333,2
1.34167,2
1.35000,2
1.35833,2
1.36667,2
1.37500,2
1.38333,2
1.39167,3
1.40000,3
1.40833,3
1.41667,3
1.42500,2
1.43333,2
1.44167,2
1.45000,2
1.45833,2
1.46667,2
1.47500,2
1.48333,2
1.49167,2
1.50000,2
1.50833,2
1.51667,2
1.52500,2
1.53333,2
1.54167,1
1.55000,1
1.55833,2
1.56667,2
1.57500,2
1.58333,3
1.59167,3
1.60000,3
1.60833,3
1.61667,2
1.62500,2
1.63333,2
1.64167,2
1.65000,2
1.65833,2
1.66667,2
1.67500,2
1.68333,3
1.69167,2
1.70000,2
1.70833,2
1.71667,3
1.72500,3
1.73333,3
1.74167,3
1.75000,3
1.75833,3
1.76667,4
1.77500,4
1.78333,3
1.79167,3
1.80000,3
1.80833,3
1.81667,3
1.82500,3
1.83333,3
1.84167,3
1.85000,3
1.85833,4
1.86667,4
1.87500,4
1.88333,4
1.89167,4
1.90000,4
1.90833,4
1.91667,4
1.92500,4
1.93333,4
1.94167,4
1.95000,3
1.95833,3
1.96667,3
1.97500,4
1.98333,4
1.99167,4
2.00000,4
2.00833,4
2.01667,4
2.02500,4
2.03333,5
2.04167,5
2.05000,5
2.05833,5
2.06667,5
2.07500,4
2.08333,4
2.09167,4
2.10000,4
2.10833,4
2.11667,4
2.12500,4
2.13333,4
2.14167,4
2.15000,3
2.15833,3
2.16667,3
2.17500,4
2.18333,4
2.19167,4
2.20000,4
2.20833,4
2.21667,4
2.22500,4
2.23333,4
2.24167,4
2.25000,4
2.25833,5
2.26667,5
2.27500,5
2.28333,5
2.29167,5
2.30000,5
2.30833,5
2.31667,5
2.32500,5
2.33333,5
2.34167,4
2.35000,4
2.35833,4
2.36667,4
2.37500,4
2.38333,5
2.39167,5
2.40000,5
2.40833,5
2.41667,5
2.42500,5
2.43333,5
2.44167,5
2.45000,5
2.45833,5
2.46667,5
2.47500,6
2.48333,6
2.49167,6
2.50000,6
2.50833,6
2.51667,6
2.52500,6
2.53333,6
2.54167,5
2.55000,5
2.55833,5
2.56667,5
2.57500,6
2.58333,6
2.59167,6
2.60000,6
2.60833,6
2.61667,6
2.62500,6
2.63333,6
2.64167,6
2.65000,6
2.65833,6
2.66667,6
2.67500,5
2.68333,5
2.69167,5
2.70000,5
2.70833,5
2.71667,5
2.72500,5
2.73333,6
2.74167,6
2.75000,6
2.75833,6
2.76667,6
2.77500,6
2.78333,6
2.79167,6
2.80000,6
2.80833,6
2.81667,6
2.82500,6
2.83333,6
2.84167,6
2.85000,6
2.85833,6
2.86667,6
2.87500,6
2.88333,6
2.89167,7
2.90000,7
2.90833,7
2.91667,7
2.92500,7
2.93333,7
2.94167,8
2.95000,8
2.95833,8
2.96667,8
2.97500,8
2.98333,8
2.99167,8
3.00000,7
3.00833,8
3.01667,8
3.02500,8
3.03333,9
3.04167,8
3.05000,8
3.05833,8
3.06667,8
3.07500,8
3.08333,8
3.09167,8
3.10000,8
3.10833,8
3.11667,8
3.12500,8
3.13333,8
3.14167,9
3.15000,9
3.15833,9
3.16667,9
3.17500,8
3.18333,8
3.19167,8
3.20000,8
3.20833,8
3.21667,8
3.22500,8
3.23333,9
3.24167,9
3.25000,9
3.25833,9
3.26667,9
3.27500,9
3.28333,9
3.29167,9
3.30000,9
3.30833,9
3.31667,9
3.32500,9
3.33333,10
3.34167,10
3.35000,10
3.35833,10
3.36667,10
3.37500,10
3.38333,10
3.39167,9
3.40000,9
3.40833,9
3.41667,9
3.42500,9
3.43333,9
3.44167,9
3.45000,10
3.45833,10
3.46667,9
3.47500,9
3.48333,9
3.49167,9
3.50000,9
3.50833,9
3.51667,9
3.52500,10
3.53333,10
3.54167,10
3.55000,10
3.55833,10
3.56667,10
3.57500,10
3.58333,10
3.59167,10
3.60000,10
3.60833,10
3.61667,10
3.62500,10
3.63333,9
3.64167,9
3.65000,9
3.65833,9
3.66667,9
3.67500,9
3.68333,9
3.69167,9
3.70000,9
3.70833,9
3.71667,8
3.72500,8
3.73333,9
3.74167,9
3.75000,10
3.75833,10
3.76667,10
3.77500,10
3.78333,10
3.79167,10
3.80000,10
3.80833,9
3.81667,10
3.82500,10
3.83333,10
3.84167,10
3.85000,10
3.85833,10
3.86667,10
3.87500,10
3.88333,10
3.89167,10
3.90000,10
3.90833,10
3.91667,10
3.92500,10
3.93333,10
3.94167,9
3.95000,9
3.95833,9
3.96667,9
3.97500,9
3.98333,9
3.99167,9
4.00000,9
4.00833,9
4.01667,9
4.02500,9
4.03333,9
4.04167,10
4.05000,10
4.05833,11
4.06667,11
4.07500,11
4.08333,10
4.09167,10
4.10000,10
4.10833,10
4.11667,10
4.12500,10
4.13333,10
4.14167,10
4.15000,10
4.15833,11
4.16667,11
4.17500,10
4.18333,10
4.19167,10
4.20000,9
4.20833,9
4.21667,9
4.22500,9
4.23333,10
4.24167,10
4.25000,10
4.25833,10
4.26667,10
4.27500,10
4.28333,10
4.29167,10
4.30000,10
4.30833,10
4.31667,10
4.32500,10
4.33333,10
4.34167,10
4.35000,10
4.35833,10
4.36667,10
4.37500,10
4.38333,10
4.39167,10
4.40000,10
4.40833,11
4.41667,11
4.42500,11
4.43333,11
4.44167,10
4.45000,10
4.45833,11
4.46667,11
4.47500,10
4.48333,10
4.49167,11
4.50000,10
4.50833,10
4.51667,10
4.52500,10
4.53333,10
4.54167,10
4.55000,10
4.55833,10
4.56667,10
4.57500,10
4.58333,10
4.59167,10
4.60000,10
4.60833,10
4.61667,10
4.62500,10
4.63333,10
4.64167,10
4.65000,10
4.65833,10
4.66667,10
4.67500,10
4.68333,10
4.69167,10
4.70000,11
4.70833,11
4.71667,10
4.72500,10
4.73333,10
4.74167,10
4.75000,10
4.75833,10
4.76667,10
4.77500,10
4.78333,10
4.79167,9
4.80000,9
4.80833,9
4.81667,10
4.82500,10
4.83333,10
4.84167,10
4.85000,10
4.85833,10
4.86667,10
4.87500,10
4.88333,10
4.89167,10
4.90000,10
4.90833,10
4.91667,10
4.92500,10
4.93333,10
4.94167,10
4.95000,10
4.95833,9
4.96667,10
4.97500,10
4.98333,10
4.99167,11
5.00000,11
5.00833,11
5.01667,11
5.02500,11
5.03333,11
5.04167,11
5.05000,11
5.05833,11
5.06667,11
5.07500,11
5.08333,11
5.09167,11
5.10000,11
5.10833,11
5.11667,12
5.12500,12
5.13333,12
5.14167,12
5.15000,12
5.15833,12
5.16667,12
5.17500,11
5.18333,11
5.19167,11
5.20000,11
5.20833,11
5.21667,12
5.22500,12
5.23333,11
5.24167,11
5.25000,11
5.25833,11
5.26667,11
5.27500,11
5.28333,11
5.29167,11
5.30000,11
5.30833,11
5.31667,11
5.32500,11
5.33333,11
5.34167,11
5.35000,11
5.35833,11
5.36667,11
5.37500,11
5.38333,11
5.39167,11
5.40000,11
5.40833,11
5.41667,11
5.42500,11
5.43333,11
5.44167,11
5.45000,11
5.45833,11
5.46667,10
5.47500,10
5.48333,10
5.49167,10
5.50000,10
5.50833,10
5.51667,10
5.52500,10
5.53333,10
5.54167,11
5.55000,11
5.55833,11
5.56667,11
5.57500,11
5.58333,11
5.59167,11
5.60000,10
5.60833,10
5.61667,10
5.62500,10
5.63333,10
5.64167,10
5.65000,10
5.65833,10
5.66667,10
5.67500,10
5.68333,10
5.69167,10
5.70000,11
5.70833,11
5.71667,11
5.72500,11
5.73333,11
5.74167,11
5.75000,11
5.75833,11
5.76667,11
5.77500,11
5.78333,11
5.79167,11
5.80000,11
5.80833,11
5.81667,11
5.82500,10
5.83333,10
5.84167,10
5.85000,10
5.85833,10
5.86667,10
5.87500,10
5.88333,10
5.89167,10
5.90000,10
5.90833,10
5.91667,10
5.92500,10
5.93333,10
5.94167,10
5.95000,10
5.95833,10
5.96667,10
5.97500,10
5.98333,10
5.99167,10
6.00000,10
6.00833,9
6.01667,9
6.02500,10
6.03333,10
6.04167,10
6.05000,10
6.05833,10
6.06667,9
6.07500,9
6.08333,9
6.09167,10
6.10000,10
6.10833,10
6.11667,10
6.12500,10
6.13333,10
6.14167,10
6.15000,9
6.15833,9
6.16667,10
6.17500,10
6.18333,10
6.19167,10
6.20000,9
6.20833,9
6.21667,9
6.22500,8
6.23333,9
6.24167,9
6.25000,9
6.25833,9
6.26667,9
6.27500,9
6.28333,9
6.29167,9
6.30000,9
6.30833,9
6.31667,9
6.32500,9
6.33333,9
6.34167,9
6.35000,9
6.35833,9
6.36667,9
6.37500,9
6.38333,9
6.39167,9
6.40000,8
6.40833,8
6.41667,8
6.42500,9
6.43333,9
6.44167,9
6.45000,9
6.45833,9
6.46667,9
6.47500,9
6.48333,9
6.49167,9
6.50000,9
6.50833,9
6.51667,9
6.52500,9
6.53333,9
6.54167,9
6.55000,9
6.55833,9
6.56667,9
6.57500,9
6.58333,9
6.59167,9
6.60000,9
6.60833,9
6.61667,9
6.62500,9
6.63333,9
6.64167,9
6.65000,10
6.65833,10
6.66667,10
6.67500,10
6.68333,9
6.69167,9
6.70000,10
6.70833,10
6.71667,10
6.72500,10
6.73333,10
6.74167,10
6.75000,9
6.75833,9
6.76667,9
6.77500,10
6.78333,10
6.79167,10
6.80000,10
6.80833,9
6.81667,9
6.82500,9
6.83333,9
6.84167,9
6.85000,8
6.85833,8
6.86667,9
6.87500,9
6.88333,9
6.89167,9
6.90000,9
6.90833,9
6.91667,9
6.92500,9
6.93333,9
6.94167,9
6.95000,9
6.95833,9
6.96667,9
6.97500,9
6.98333,9
6.99167,10
7.00000,10
7.00833,10
7.01667,10
7.02500,10
7.03333,9
7.04167,9
7.05000,9
7.05833,9
7.06667,9
7.07500,9
7.08333,9
7.09167,9
7.10000,9
7.10833,9
7.11667,10
7.12500,10
7.13333,10
7.14167,10
7.15000,10
7.15833,10
7.16667,10
7.17500,10
7.18333,9
7.19167,9
7.20000,9
7.20833,9
7.21667,9
7.22500,9
7.23333,9
7.24167,9
7.25000,8
7.25833,9
7.26667,9
7.27500,9
7.28333,9
7.29167,9
7.30000,9
7.30833,9
7.31667,9
7.32500,9
7.33333,9
7.34167,9
7.35000,9
7.35833,9
7.36667,9
7.37500,9
7.38333,9
7.39167,9
7.40000,9
7.40833,9
7.41667,9
7.42500,9
7.43333,9
7.44167,9
7.45000,8
7.45833,9
7.46667,9
7.47500,9
7.48333,9
7.49167,9
7.50000,9
7.50833,9
7.51667,9
7.52500,9
7.53333,9
7.54167,8
7.55000,8
7.55833,8
7.56667,8
7.57500,8
7.58333,8
7.59167,8
7.60000,8
7.60833,7
7.61667,7
7.62500,8
7.63333,8
7.64167,8
7.65000,8
7.65833,8
7.66667,8
7.67500,8
7.68333,8
7.69167,8
7.70000,8
7.70833,8
7.71667,8
7.72500,7
7.73333,7
7.74167,7
7.75000,7
7.75833,7
7.76667,8
7.77500,8
7.78333,8
7.79167,8
7.80000,9
7.80833,9
7.81667,9
7.82500,9
7.83333,8
7.84167,9
7.85000,8
7.85833,8
7.86667,8
7.87500,8
7.88333,8
7.89167,7
7.90000,7
7.90833,7
7.91667,7
7.92500,7
7.93333,7
7.94167,7
7.95000,7
7.95833,7
7.96667,8
7.97500,8
7.98333,8
7.99167,8
8.00000,8
8.00833,8
8.01667,8
8.02500,8
8.03333,8
8.04167,8
8.05000,8
8.05833,8
8.06667,8
8.07500,8
8.08333,8
8.09167,8
8.10000,7
8.10833,7
8.11667,7
8.12500,7
8.13333,7
8.14167,7
8.15000,7
8.15833,7
8.16667,7
8.17500,7
8.18333,7
8.19167,7
8.20000,7
8.20833,7
8.21667,7
8.22500,7
8.23333,7
8.24167,7
8.25000,7
8.25833,7
8.26667,7
8.27500,7
8.28333,7
8.29167,7
8.30000,7
8.30833,7
8.31667,7
8.32500,7
8.33333,7
8.34167,6
8.35000,6
8.35833,6
8.36667,6
8.37500,6
8.38333,7
8.39167,6
8.40000,6
8.40833,6
8.41667,6
8.42500,6
8.43333,7
8.44167,7
8.45000,7
8.45833,7
8.46667,7
8.47500,7
8.48333,7
8.49167,7
8.50000,7
8.50833,7
8.51667,7
8.52500,6
8.53333,6
8.54167,6
8.55000,6
8.55833,6
8.56667,6
8.57500,6
8.58333,6
8.59167,7
8.60000,7
8.60833,7
8.61667,7
8.62500,7
8.63333,7
8.64167,7
8.65000,7
8.65833,6
8.66667,6
8.67500,6
8.68333,5
8.69167,5
8.70000,5
8.70833,5
8.71667,5
8.72500,5
8.73333,5
8.74167,6
8.75000,6
8.75833,6
8.76667,6
8.77500,6
8.78333,6
8.79167,6
8.80000,5
8.80833,5
8.81667,5
8.82500,5
8.83333,6
8.84167,6
8.85000,6
8.85833,6
8.86667,6
8.87500,6
8.88333,5
8.89167,5
8.90000,5
8.90833,5
8.91667,5
8.92500,5
8.93333,6
8.94167,6
8.95000,6
8.95833,6
8.96667,6
8.97500,6
8.98333,5
8.99167,6
9.00000,6
9.00833,6
9.01667,6
9.02500,5
9.03333,5
9.04167,5
9.05000,6
9.05833,5
9.06667,5
9.07500,5
9.08333,4
9.09167,4
9.10000,4
9.10833,5
9.11667,5
9.12500,5
9.13333,5
9.14167,5
9.15000,5
9.15833,5
9.16667,5
9.17500,5
9.18333,5
9.19167,5
9.20000,5
9.20833,5
9.21667,5
9.22500,5
9.23333,4
9.24167,4
9.25000,4
9.25833,4
9.26667,4
9.27500,5
9.28333,4
9.29167,4
9.30000,4
9.30833,4
9.31667,4
9.32500,4
9.33333,4
9.34167,4
9.35000,4
9.35833,4
9.36667,4
9.37500,4
9.38333,4
9.39167,4
9.40000,4
9.40833,4
9.41667,4
9.42500,3
9.43333,3
9.44167,3
9.45000,3
9.45833,3
9.46667,4
9.47500,3
9.48333,3
9.49167,3
9.50000,3
9.50833,3
9.51667,3
9.52500,2
9.53333,3
9.54167,3
9.55000,3
9.55833,3
9.56667,3
9.57500,4
9.58333,4
9.59167,4
9.60000,3
9.60833,3
9.61667,3
9.62500,3
9.63333,3
9.64167,3
9.65000,3
9.65833,3
9.66667,3
9.67500,3
9.68333,2
9.69167,2
9.70000,2
9.70833,2
9.71667,2
9.72500,2
9.73333,2
9.74167,3
9.75000,3
9.75833,3
9.76667,3
9.77500,2
9.78333,2
9.79167,2
9.80000,1
9.80833,1
9.81667,1
9.82500,1
9.83333,1
9.84167,1
9.85000,2
9.85833,2
9.86667,2
9.87500,2
9.88333,2
9.89167,2
9.90000,2
9.90833,2
9.91667,2
9.92500,2
9.93333,2
9.94167,2
9.95000,2
9.95833,2
9.96667,2
9.97500,2
9.98333,2
9.99167,2
10.00000,2
10.00833,1
10.01667,1
10.02500,1
10.03333,1
10.04167,1
10.05000,1
10.05833,1
10.06667,1
10.07500,1
10.08333,1
10.09167,1
10.10000,1
10.10833,1
10.11667,1
10.12500,1
10.13333,1
10.14167,2
10.15000,2
10.15833,2
10.16667,1
10.17500,2
10.18333,2
10.19167,2
10.20000,2
10.20833,2
10.21667,2
10.22500,2
10.23333,2
10.24167,2
10.25000,2
10.25833,2
10.26667,2
10.27500,2
10.28333,3
10.29167,3
10.30000,3
10.30833,3
10.31667,3
10.32500,3
10.33333,3
10.34167,3
10.35000,2
10.35833,1
10.36667,0
10.37500,-2
10.38333,-5
10.39167,-9
10.40000,-15
10.40833,-22
10.41667,-33
10.42500,-46
10.43333,-64
10.44167,-86
10.45000,-113
10.45833,-146
10.46667,-185
10.47500,-230
10.48333,-281
10.49167,-337
10.50000,-397
10.50833,-460
10.51667,-523
10.52500,-584
10.53333,-640
10.54167,-688
10.55000,-722
10.55833,-738
10.56667,-732
10.57500,-697
10.58333,-627
10.59167,-519
10.60000,-364
10.60833,-158
10.61667,107
10.62500,436
10.63333,836
10.64167,1312
10.65000,1869
10.65833,2513
10.66667,3250
10.67500,4082
10.68333,5016
10.69167,6054
10.70000,7200
10.70833,8458
10.71667,9830
10.72500,11318
10.73333,12925
10.74167,14652
10.75000,16501
10.75833,18472
10.76667,20565
10.77500,22782
10.78333,25119
10.79167,27578
10.80000,30157
10.80833,32855
10.81667,35669
10.82500,38596
10.83333,41635
10.84167,44780
10.85000,48028
10.85833,51372
10.86667,54807
10.87500,58325
10.88333,61917
10.89167,65574
10.90000,69283
10.90833,73030
10.91667,76799
10.92500,80569
10.93333,84319
10.94167,88021
10.95000,91645
10.95833,95154
10.96667,98509
10.97500,101664
10.98333,104571
10.99167,107176
11.00000,109424
11.00833,111257
11.01667,112619
11.02500,113455
11.03333,113715
11.04167,113360
11.05000,112359
11.05833,110697
11.06667,108374
11.07500,105411
11.08333,101842
11.09167,97725
11.10000,93129
11.10833,88138
11.11667,82844
11.12500,77345
11.13333,71738
11.14167,66116
11.15000,60566
11.15833,55165
11.16667,49976
11.17500,45050
11.18333,40426
11.19167,36129
11.20000,32173
11.20833,28562
11.21667,25291
11.22500,22350
11.23333,19721
11.24167,17385
11.25000,15320
11.25833,13502
11.26667,11908
11.27500,10514
11.28333,9299
11.29167,8242
11.30000,7323
11.30833,6526
11.31667,5834
11.32500,5234
11.33333,4713
11.34167,4260
11.35000,3865
11.35833,3521
11.36667,3221
11.37500,2957
11.38333,2725
11.39167,2521
11.40000,2339
11.40833,2178
11.41667,2033
11.42500,1904
11.43333,1787
11.44167,1682
11.45000,1586
11.45833,1499
11.46667,1419
11.47500,1346
11.48333,1278
11.49167,1216
11.50000,1159
11.50833,1106
11.51667,1056
11.52500,1010
11.53333,966
11.54167,925
11.55000,887
11.55833,851
11.56667,817
11.57500,785
11.58333,755
11.59167,727
11.60000,700
11.60833,674
11.61667,650
11.62500,627
11.63333,605
11.64167,584
11.65000,564
11.65833,546
11.66667,529
11.67500,512
11.68333,497
11.69167,482
11.70000,468
11.70833,454
11.71667,442
11.72500,430
11.73333,418
11.74167,407
11.75000,396
11.75833,386
11.76667,377
11.77500,368
11.78333,360
11.79167,352
11.80000,344
11.80833,337
11.81667,330
11.82500,323
11.83333,317
11.84167,311
11.85000,305
11.85833,300
11.86667,295
11.87500,290
11.88333,285
11.89167,281
11.90000,277
11.90833,273
11.91667,269
11.92500,266
11.93333,262
11.94167,258
11.95000,255
11.95833,252
11.96667,249
11.97500,246
11.98333,243
11.99167,241
12.00000,238
12.00833,236
12.01667,233
12.02500,231
12.03333,229
12.04167,227
12.05000,225
12.05833,223
12.06667,221
12.07500,219
12.08333,217
12.09167,215
12.10000,214
12.10833,212
12.11667,210
12.12500,208
12.13333,206
12.14167,205
12.15000,204
12.15833,202
12.16667,200
12.17500,198
12.18333,196
12.19167,195
12.20000,193
12.20833,191
12.21667,189
12.22500,187
12.23333,185
12.24167,184
12.25000,182
12.25833,180
12.26667,179
12.27500,177
12.28333,176
12.29167,174
12.30000,172
12.30833,171
12.31667,169
12.32500,167
12.33333,165
12.34167,164
12.35000,163
12.35833,161
12.36667,160
12.37500,158
12.38333,156
12.39167,154
12.40000,153
12.40833,152
12.41667,150
12.42500,149
12.43333,147
12.44167,145
12.45000,144
12.45833,142
12.46667,140
12.47500,138
12.48333,137
12.49167,136
12.50000,134
12.50833,133
12.51667,132
12.52500,131
12.53333,129
12.54167,128
12.55000,127
12.55833,126
12.56667,125
12.57500,124
12.58333,122
12.59167,121
12.60000,120
12.60833,119
12.61667,119
12.62500,118
12.63333,117
12.64167,117
12.65000,117
12.65833,117
12.66667,118
12.67500,120
12.68333,122
12.69167,126
12.70000,130
12.70833,136
12.71667,142
12.72500,150
12.73333,160
12.74167,171
12.75000,184
12.75833,201
12.76667,220
12.77500,241
12.78333,267
12.79167,294
12.80000,326
12.80833,360
12.81667,399
12.82500,442
12.83333,489
12.84167,541
12.85000,597
12.85833,657
12.86667,722
12.87500,792
12.88333,868
12.89167,948
12.90000,1034
12.90833,1125
12.91667,1222
12.92500,1324
12.93333,1432
12.94167,1545
12.95000,1663
12.95833,1787
12.96667,1917
12.97500,2052
12.98333,2193
12.99167,2340
13.00000,2492
13.00833,2650
13.01667,2813
13.02500,2981
13.03333,3155
13.04167,3335
13.05000,3520
13.05833,3710
13.06667,3904
13.07500,4104
13.08333,4310
13.09167,4520
13.10000,4735
13.10833,4955
13.11667,5180
13.12500,5409
13.13333,5643
13.14167,5881
13.15000,6124
13.15833,6371
13.16667,6622
13.17500,6878
13.18333,7137
13.19167,7400
13.20000,7667
13.20833,7938
13.21667,8213
13.22500,8491
13.23333,8773
13.24167,9058
13.25000,9347
13.25833,9639
13.26667,9935
13.27500,10234
13.28333,10537
13.29167,10842
13.30000,11151
13.30833,11463
13.31667,11779
13.32500,12097
13.33333,12419
13.34167,12744
13.35000,13071
13.35833,13402
13.36667,13736
13.37500,14074
13.38333,14414
13.39167,14757
13.40000,15103
13.40833,15451
13.41667,15803
13.42500,16158
13.43333,16516
13.44167,16877
13.45000,17242
13.45833,17609
13.46667,17979
13.47500,18352
13.48333,18729
13.49167,19109
13.50000,19491
13.50833,19877
13.51667,20266
13.52500,20658
13.53333,21053
13.54167,21451
13.55000,21852
13.55833,22257
13.56667,22665
13.57500,23077
13.58333,23491
13.59167,23909
13.60000,24330
13.60833,24755
13.61667,25183
13.62500,25615
13.63333,26050
13.64167,26488
13.65000,26930
13.65833,27376
13.66667,27825
13.67500,28278
13.68333,28735
13.69167,29195
13.70000,29659
13.70833,30126
13.71667,30597
13.72500,31072
13.73333,31551
13.74167,32034
13.75000,32522
13.75833,33013
13.76667,33508
13.77500,34008
13.78333,34511
13.79167,35018
13.80000,35530
13.80833,36046
13.81667,36566
13.82500,37090
13.83333,37618
13.84167,38151
13.85000,38689
13.85833,39232
13.86667,39779
13.87500,40330
13.88333,40885
13.89167,41446
13.90000,42011
13.90833,42582
13.91667,43157
13.92500,43736
13.93333,44321
13.94167,44910
13.95000,45505
13.95833,46105
13.96667,46710
13.97500,47320
13.98333,47936
13.99167,48557
14.00000,49184
14.00833,49816
14.01667,50454
14.02500,51097
14.03333,51746
14.04167,52400
14.05000,53060
14.05833,53726
14.06667,54398
14.07500,55076
14.08333,55760
14.09167,56451
14.10000,57147
14.10833,57850
14.11667,58559
14.12500,59275
14.13333,59997
14.14167,60726
14.15000,61461
14.15833,62203
14.16667,62952
14.17500,63708
14.18333,64471
14.19167,65241
14.20000,66018
14.20833,66802
14.21667,67593
14.22500,68389
14.23333,69190
14.24167,69993
14.25000,70797
14.25833,71596
14.26667,72385
14.27500,73157
14.28333,73902
14.29167,74612
14.30000,75275
14.30833,75878
14.31667,76409
14.32500,76856
14.33333,77206
14.34167,77449
14.35000,77575
14.35833,77575
14.36667,77442
14.37500,77172
14.38333,76760
14.39167,76204
14.40000,75501
14.40833,74648
14.41667,73646
14.42500,72490
14.43333,71180
14.44167,69713
14.45000,68088
14.45833,66304
14.46667,64362
14.47500,62265
14.48333,60018
14.49167,57632
14.50000,55117
14.50833,52490
14.51667,49770
14.52500,46981
14.53333,44147
14.54167,41293
14.55000,38448
14.55833,35639
14.56667,32890
14.57500,30225
14.58333,27665
14.59167,25226
14.60000,22923
14.60833,20766
14.61667,18760
14.62500,16908
14.63333,15211
14.64167,13664
14.65000,12262
14.65833,10998
14.66667,9864
14.67500,8850
14.68333,7948
14.69167,7146
14.70000,6437
14.70833,5810
14.71667,5256
14.72500,4768
14.73333,4338
14.74167,3960
14.75000,3626
14.75833,3332
14.76667,3073
14.77500,2844
14.78333,2640
14.79167,2460
14.80000,2299
14.80833,2156
14.81667,2028
14.82500,1913
14.83333,1810
14.84167,1717
14.85000,1632
14.85833,1556
14.86667,1486
14.87500,1422
14.88333,1364
14.89167,1311
14.90000,1261
14.90833,1216
14.91667,1173
14.92500,1133
14.93333,1095
14.94167,1060
14.95000,1027
14.95833,996
14.96667,968
14.97500,941
14.98333,915
14.99167,891
15.00000,868
15.00833,846
15.01667,826
15.02500,807
15.03333,788
15.04167,771
15.05000,755
15.05833,740
15.06667,725
15.07500,711
15.08333,698
15.09167,686
15.10000,675
15.10833,664
15.11667,654
15.12500,645
15.13333,637
15.14167,630
15.15000,623
15.15833,617
15.16667,613
15.17500,610
15.18333,608
15.19167,608
15.20000,610
15.20833,615
15.21667,624
15.22500,636
15.23333,653
15.24167,676
15.25000,705
15.25833,741
15.26667,787
15.27500,844
15.28333,913
15.29167,998
15.30000,1099
15.30833,1219
15.31667,1361
15.32500,1528
15.33333,1723
15.34167,1948
15.35000,2207
15.35833,2505
15.36667,2843
15.37500,3226
15.38333,3657
15.39167,4139
15.40000,4675
15.40833,5268
15.41667,5922
15.42500,6639
15.43333,7419
15.44167,8265
15.45000,9177
15.45833,10156
15.46667,11201
15.47500,12312
15.48333,13486
15.49167,14721
15.50000,16014
15.50833,17360
15.51667,18755
15.52500,20194
15.53333,21672
15.54167,23181
15.55000,24715
15.55833,26266
15.56667,27828
15.57500,29392
15.58333,30950
15.59167,32496
15.60000,34021
15.60833,35519
15.61667,36982
15.62500,38403
15.63333,39776
15.64167,41095
15.65000,42354
15.65833,43548
15.66667,44673
15.67500,45725
15.68333,46700
15.69167,47596
15.70000,48409
15.70833,49139
15.71667,49782
15.72500,50338
15.73333,50806
15.74167,51186
15.75000,51477
15.75833,51679
15.76667,51792
15.77500,51817
15.78333,51755
15.79167,51607
15.80000,51373
15.80833,51055
15.81667,50656
15.82500,50176
15.83333,49619
15.84167,48986
15.85000,48280
15.85833,47505
15.86667,46664
15.87500,45760
15.88333,44798
15.89167,43781
15.90000,42714
15.90833,41602
15.91667,40449
15.92500,39260
15.93333,38041
15.94167,36795
15.95000,35529
15.95833,34248
15.96667,32956
15.97500,31659
15.98333,30361
15.99167,29068
16.00000,27784
16.00833,26512
16.01667,25258
16.02500,24025
16.03333,22816
16.04167,21635
16.05000,20485
16.05833,19368
16.06667,18285
16.07500,17240
16.08333,16233
16.09167,15265
16.10000,14338
16.10833,13451
16.11667,12606
16.12500,11801
16.13333,11038
16.14167,10315
16.15000,9632
16.15833,8988
16.16667,8381
16.17500,7812
16.18333,7278
16.19167,6778
16.20000,6311
16.20833,5876
16.21667,5471
16.22500,5095
16.23333,4745
16.24167,4421
16.25000,4121
16.25833,3844
16.26667,3587
16.27500,3351
16.28333,3133
16.29167,2932
16.30000,2746
16.30833,2576
16.31667,2419
16.32500,2275
16.33333,2143
16.34167,2021
16.35000,1910
16.35833,1807
16.36667,1713
16.37500,1626
16.38333,1546
16.39167,1473
16.40000,1405
16.40833,1343
16.41667,1286
16.42500,1233
16.43333,1183
16.44167,1138
16.45000,1095
16.45833,1056
16.46667,1019
16.47500,985
16.48333,953
16.49167,922
16.50000,894
16.50833,867
16.51667,842
16.52500,818
16.53333,796
16.54167,775
16.55000,754
16.55833,735
16.56667,716
16.57500,698
16.58333,681
16.59167,665
16.60000,650
16.60833,634
16.61667,620
16.62500,606
16.63333,592
16.64167,579
16.65000,567
16.65833,555
16.66667,543
16.67500,531
16.68333,520
16.69167,509
16.70000,498
16.70833,488
16.71667,478
16.72500,468
16.73333,459
16.74167,450
16.75000,442
16.75833,434
16.76667,427
16.77500,419
16.78333,412
16.79167,405
16.80000,398
16.80833,392
16.81667,385
16.82500,379
16.83333,374
16.84167,368
16.85000,363
16.85833,358
16.86667,353
16.87500,348
16.88333,344
16.89167,340
16.90000,336
16.90833,333
16.91667,329
16.92500,325
16.93333,322
16.94167,319
16.95000,315
16.95833,312
16.96667,309
16.97500,306
16.98333,304
16.99167,301
17.00000,299
17.00833,296
17.01667,294
17.02500,291
17.03333,289
17.04167,287
17.05000,284
17.05833,282
17.06667,280
17.07500,278
17.08333,276
17.09167,274
17.10000,272
17.10833,269
17.11667,267
17.12500,265
17.13333,263
17.14167,261
17.15000,259
17.15833,257
17.16667,255
17.17500,254
17.18333,252
17.19167,251
17.20000,249
17.20833,247
17.21667,245
17.22500,243
17.23333,241
17.24167,239
17.25000,238
17.25833,236
17.26667,234
17.27500,233
17.28333,231
17.29167,229
17.30000,228
17.30833,226
17.31667,224
17.32500,223
17.33333,221
17.34167,219
17.35000,218
17.35833,216
17.36667,214
17.37500,212
17.38333,210
17.39167,209
17.40000,207
17.40833,205
17.41667,204
17.42500,203
17.43333,201
17.44167,199
17.45000,197
17.45833,196
17.46667,194
17.47500,192
17.48333,190
17.49167,189
17.50000,188
17.50833,187
17.51667,186
17.52500,184
17.53333,183
17.54167,182
17.55000,180
17.55833,178
17.56667,177
17.57500,175
17.58333,173
17.59167,171
17.60000,170
17.60833,168
17.61667,167
17.62500,166
17.63333,164
17.64167,163
17.65000,162
17.65833,161
17.66667,160
17.67500,158
17.68333,157
17.69167,156
17.70000,155
17.70833,154
17.71667,153
17.72500,151
17.73333,150
17.74167,149
17.75000,148
17.75833,147
17.76667,146
17.77500,145
17.78333,143
17.79167,142
17.80000,142
17.80833,141
17.81667,140
17.82500,138
17.83333,137
17.84167,136
17.85000,135
17.85833,134
17.86667,133
17.87500,133
17.88333,131
17.89167,130
17.90000,129
17.90833,128
17.91667,127
17.92500,127
17.93333,126
17.94167,125
17.95000,124
17.95833,123
17.96667,122
17.97500,121
17.98333,120
17.99167,119
18.00000,119
18.00833,118
18.01667,118
18.02500,117
18.03333,116
18.04167,115
18.05000,114
18.05833,114
18.06667,113
18.07500,112
18.08333,111
18.09167,111
18.10000,110
18.10833,110
18.11667,109
18.12500,108
18.13333,108
18.14167,107
18.15000,107
18.15833,106
18.16667,106
18.17500,105
18.18333,104
18.19167,103
18.20000,102
18.20833,102
18.21667,101
18.22500,100
18.23333,100
18.24167,100
18.25000,99
18.25833,99
18.26667,98
18.27500,97
18.28333,97
18.29167,96
18.30000,95
18.30833,95
18.31667,94
18.32500,94
18.33333,93
18.34167,92
18.35000,91
18.35833,90
18.36667,90
18.37500,90
18.38333,89
18.39167,88
18.40000,88
18.40833,87
18.41667,87
18.42500,87
18.43333,86
18.44167,86
18.45000,85
18.45833,85
18.46667,84
18.47500,84
18.48333,83
18.49167,83
18.50000,82
18.50833,82
18.51667,82
18.52500,81
18.53333,81
18.54167,80
18.55000,80
18.55833,79
18.56667,78
18.57500,78
18.58333,77
18.59167,77
18.60000,77
18.60833,77
18.61667,76
18.62500,76
18.63333,75
18.64167,75
18.65000,74
18.65833,74
18.66667,74
18.67500,73
18.68333,72
18.69167,72
18.70000,71
18.70833,71
18.71667,70
18.72500,70
18.73333,70
18.74167,69
18.75000,69
18.75833,68
18.76667,68
18.77500,67
18.78333,67
18.79167,67
18.80000,66
18.80833,66
18.81667,66
18.82500,66
18.83333,65
18.84167,64
18.85000,64
18.85833,63
18.86667,63
18.87500,63
18.88333,62
18.89167,62
18.90000,62
18.90833,62
18.91667,61
18.92500,61
18.93333,61
18.94167,61
18.95000,61
18.95833,60
18.96667,60
18.97500,60
18.98333,60
18.99167,59
19.00000,59
19.00833,59
19.01667,59
19.02500,58
19.03333,58
19.04167,58
19.05000,57
19.05833,57
19.06667,57
19.07500,57
19.08333,57
19.09167,56
19.10000,57
19.10833,57
19.11667,56
19.12500,56
19.13333,56
19.14167,56
19.15000,56
19.15833,56
19.16667,56
19.17500,56
19.18333,56
19.19167,56
19.20000,56
19.20833,55
19.21667,55
19.22500,55
19.23333,55
19.24167,54
19.25000,54
19.25833,54
19.26667,53
19.27500,53
19.28333,53
19.29167,52
19.30000,52
19.30833,52
19.31667,51
19.32500,51
19.33333,51
19.34167,51
19.35000,51
19.35833,50
19.36667,50
19.37500,50
19.38333,50
19.39167,49
19.40000,49
19.40833,49
19.41667,48
19.42500,48
19.43333,47
19.44167,47
19.45000,46
19.45833,46
19.46667,45
19.47500,45
19.48333,44
19.49167,43
19.50000,43
19.50833,43
19.51667,42
19.52500,41
19.53333,41
19.54167,40
19.55000,39
19.55833,38
19.56667,37
19.57500,37
19.58333,37
19.59167,36
19.60000,36
19.60833,35
19.61667,34
19.62500,34
19.63333,33
19.64167,33
19.65000,32
19.65833,31
19.66667,31
19.67500,30
19.68333,30
19.69167,30
19.70000,30
19.70833,30
19.71667,29
19.72500,29
19.73333,28
19.74167,28
19.75000,28
19.75833,28
19.76667,27
19.77500,27
19.78333,27
19.79167,27
19.80000,26
19.80833,25
19.81667,25
19.82500,25
19.83333,25
19.84167,25
19.85000,25
19.85833,24
19.86667,24
19.87500,24
19.88333,23
19.89167,23
19.90000,22
19.90833,22
19.91667,22
19.92500,21
19.93333,21
19.94167,21
19.95000,21
19.95833,20
19.96667,20
19.97500,20
19.98333,19
19.99167,19
20.00000,20
20.00833,19
20.01667,19
20.02500,19
20.03333,19
20.04167,20
20.05000,20
20.05833,20
20.06667,20
20.07500,19
20.08333,19
20.09167,19
20.10000,19
20.10833,18
20.11667,18
20.12500,18
20.13333,18
20.14167,18
20.15000,18
20.15833,18
20.16667,18
20.17500,18
20.18333,17
20.19167,17
20.20000,17
20.20833,17
20.21667,16
20.22500,16
20.23333,16
20.24167,16
20.25000,16
20.25833,16
20.26667,16
20.27500,15
20.28333,15
20.29167,16
20.30000,16
20.30833,16
20.31667,16
20.32500,16
20.33333,16
20.34167,16
20.35000,16
20.35833,16
20.36667,16
20.37500,16
20.38333,16
20.39167,16
20.40000,16
20.40833,17
20.41667,17
20.42500,17
20.43333,18
20.44167,18
20.45000,19
20.45833,20
20.46667,21
20.47500,22
20.48333,23
20.49167,25
20.50000,26
20.50833,28
20.51667,30
20.52500,33
20.53333,35
20.54167,37
20.55000,39
20.55833,41
20.56667,43
20.57500,46
20.58333,49
20.59167,53
20.60000,56
20.60833,59
20.61667,63
20.62500,67
20.63333,70
20.64167,75
20.65000,79
20.65833,83
20.66667,88
20.67500,92
20.68333,97
20.69167,101
20.70000,105
20.70833,109
20.71667,113
20.72500,117
20.73333,121
20.74167,125
20.75000,130
20.75833,134
20.76667,138
20.77500,141
20.78333,145
20.79167,149
20.80000,152
20.80833,155
20.81667,158
20.82500,161
20.83333,163
20.84167,165
20.85000,168
20.85833,170
20.86667,172
20.87500,174
20.88333,175
20.89167,177
20.90000,178
20.90833,179
20.91667,180
20.92500,181
20.93333,183
20.94167,183
20.95000,184
20.95833,184
20.96667,184
20.97500,184
20.98333,184
20.99167,184
21.00000,183
21.00833,183
21.01667,183
21.02500,182
21.03333,182
21.04167,181
21.05000,180
21.05833,179
21.06667,178
21.07500,177
21.08333,175
21.09167,173
21.10000,172
21.10833,170
21.11667,168
21.12500,167
21.13333,165
21.14167,163
21.15000,162
21.15833,160
21.16667,158
21.17500,157
21.18333,155
21.19167,153
21.20000,151
21.20833,150
21.21667,148
21.22500,147
21.23333,145
21.24167,144
21.25000,142
21.25833,140
21.26667,139
21.27500,137
21.28333,136
21.29167,135
21.30000,133
21.30833,132
21.31667,130
21.32500,129
21.33333,127
21.34167,126
21.35000,125
21.35833,123
21.36667,122
21.37500,121
21.38333,120
21.39167,118
21.40000,118
21.40833,117
21.41667,116
21.42500,115
21.43333,114
21.44167,113
21.45000,113
21.45833,112
21.46667,111
21.47500,110
21.48333,109
21.49167,108
21.50000,107
21.50833,106
21.51667,105
21.52500,105
21.53333,104
21.54167,103
21.55000,102
21.55833,102
21.56667,100
21.57500,99
21.58333,97
21.59167,96
21.60000,94
21.60833,93
21.61667,91
21.62500,90
21.63333,88
21.64167,86
21.65000,85
21.65833,83
21.66667,81
21.67500,79
21.68333,76
21.69167,74
21.70000,72
21.70833,69
21.71667,67
21.72500,65
21.73333,62
21.74167,60
21.75000,58
21.75833,56
21.76667,53
21.77500,51
21.78333,49
21.79167,46
21.80000,44
21.80833,42
21.81667,40
21.82500,38
21.83333,36
21.84167,33
21.85000,31
21.85833,29
21.86667,27
21.87500,25
21.88333,23
21.89167,21
21.90000,19
21.90833,17
21.91667,16
21.92500,14
21.93333,13
21.94167,12
21.95000,10
21.95833,9
21.96667,7
21.97500,6
21.98333,5
21.99167,4
22.00000,2
22.00833,1
22.01667,0
22.02500,-0
22.03333,-1
22.04167,-2
22.05000,-2
22.05833,-3
22.06667,-3
22.07500,-4
22.08333,-5
22.09167,-5
22.10000,-6
22.10833,-7
22.11667,-7
22.12500,-8
22.13333,-8
22.14167,-8
22.15000,-8
22.15833,-9
22.16667,-9
22.17500,-9
22.18333,-9
22.19167,-9
22.20000,-9
22.20833,-9
22.21667,-9
22.22500,-9
22.23333,-9
22.24167,-9
22.25000,-9
22.25833,-9
22.26667,-8
22.27500,-8
22.28333,-8
22.29167,-8
22.30000,-7
22.30833,-7
22.31667,-7
22.32500,-7
22.33333,-6
22.34167,-6
22.35000,-5
22.35833,-5
22.36667,-4
22.37500,-4
22.38333,-4
22.39167,-3
22.40000,-2
22.40833,-2
22.41667,-1
22.42500,0
22.43333,1
22.44167,2
22.45000,2
22.45833,3
22.46667,4
22.47500,4
22.48333,5
22.49167,7
22.50000,8
22.50833,10
22.51667,11
22.52500,13
22.53333,15
22.54167,17
22.55000,19
22.55833,21
22.56667,23
22.57500,26
22.58333,29
22.59167,32
22.60000,35
22.60833,38
22.61667,42
22.62500,46
22.63333,50
22.64167,54
22.65000,59
22.65833,64
22.66667,70
22.67500,75
22.68333,81
22.69167,86
22.70000,93
22.70833,99
22.71667,106
22.72500,113
22.73333,121
22.74167,128
22.75000,136
22.75833,144
22.76667,152
22.77500,161
22.78333,170
22.79167,179
22.80000,188
22.80833,197
22.81667,206
22.82500,215
22.83333,224
22.84167,234
22.85000,243
22.85833,252
22.86667,261
22.87500,270
22.88333,279
22.89167,288
22.90000,296
22.90833,304
22.91667,312
22.92500,320
22.93333,328
22.94167,335
22.95000,343
22.95833,350
22.96667,357
22.97500,363
22.98333,369
22.99167,375
23.00000,380
23.00833,385
23.01667,389
23.02500,393
23.03333,397
23.04167,401
23.05000,404
23.05833,407
23.06667,410
23.07500,413
23.08333,415
23.09167,416
23.10000,417
23.10833,418
23.11667,418
23.12500,418
23.13333,417
23.14167,416
23.15000,415
23.15833,413
23.16667,411
23.17500,408
23.18333,405
23.19167,401
23.20000,397
23.20833,392
23.21667,387
23.22500,382
23.23333,376
23.24167,370
23.25000,364
23.25833,357
23.26667,349
23.27500,341
23.28333,333
23.29167,325
23.30000,317
23.30833,308
23.31667,299
23.32500,289
23.33333,280
23.34167,272
23.35000,262
23.35833,253
23.36667,243
23.37500,233
23.38333,223
23.39167,213
23.40000,204
23.40833,195
23.41667,185
23.42500,176
23.43333,167
23.44167,158
23.45000,150
23.45833,141
23.46667,133
23.47500,125
23.48333,117
23.49167,109
23.50000,102
23.50833,95
23.51667,88
23.52500,82
23.53333,76
23.54167,70
23.55000,64
23.55833,59
23.56667,54
23.57500,49
23.58333,43
23.59167,39
23.60000,34
23.60833,31
23.61667,27
23.62500,24
23.63333,20
23.64167,17
23.65000,14
23.65833,11
23.66667,8
23.67500,6
23.68333,3
23.69167,1
23.70000,-1
23.70833,-3
23.71667,-5
23.72500,-6
23.73333,-8
23.74167,-9
23.75000,-10
23.75833,-11
23.76667,-13
23.77500,-14
23.78333,-15
23.79167,-16
23.80000,-17
23.80833,-17
23.81667,-18
23.82500,-18
23.83333,-19
23.84167,-19
23.85000,-19
23.85833,-20
23.86667,-20
23.87500,-21
23.88333,-21
23.89167,-22
23.90000,-22
23.90833,-23
23.91667,-23
23.92500,-23
23.93333,-23
23.94167,-24
23.95000,-24
23.95833,-24
23.96667,-24
23.97500,-25
23.98333,-25
23.99167,-25
24.00000,-25
24.00833,-25
24.01667,-25
24.02500,-25
24.03333,-25
24.04167,-25
24.05000,-25
24.05833,-26
24.06667,-26
24.07500,-26
24.08333,-26
24.09167,-26
24.10000,-26
24.10833,-27
24.11667,-27
24.12500,-27
24.13333,-27
24.14167,-26
24.15000,-26
24.15833,-26
24.16667,-26
24.17500,-26
24.18333,-26
24.19167,-27
24.20000,-27
24.20833,-27
24.21667,-27
24.22500,-27
24.23333,-27
24.24167,-27
24.25000,-27
24.25833,-27
24.26667,-26
24.27500,-25
24.28333,-25
24.29167,-24
24.30000,-22
24.30833,-21
24.31667,-19
24.32500,-17
24.33333,-15
24.34167,-13
24.35000,-11
24.35833,-8
24.36667,-5
24.37500,-1
24.38333,3
24.39167,8
24.40000,14
24.40833,21
24.41667,28
24.42500,37
24.43333,46
24.44167,56
24.45000,67
24.45833,80
24.46667,94
24.47500,110
24.48333,127
24.49167,145
24.50000,165
24.50833,188
24.51667,212
24.52500,238
24.53333,266
24.54167,296
24.55000,329
24.55833,364
24.56667,402
24.57500,442
24.58333,485
24.59167,530
24.60000,578
24.60833,628
24.61667,680
24.62500,735
24.63333,793
24.64167,852
24.65000,914
24.65833,978
24.66667,1044
24.67500,1112
24.68333,1182
24.69167,1254
24.70000,1327
24.70833,1401
24.71667,1477
24.72500,1554
24.73333,1631
24.74167,1709
24.75000,1787
24.75833,1865
24.76667,1944
24.77500,2022
24.78333,2100
24.79167,2177
24.80000,2253
24.80833,2329
24.81667,2404
24.82500,2478
24.83333,2549
24.84167,2620
24.85000,2689
24.85833,2756
24.86667,2821
24.87500,2884
24.88333,2945
24.89167,3004
24.90000,3061
24.90833,3116
24.91667,3169
24.92500,3219
24.93333,3267
24.94167,3313
24.95000,3356
24.95833,3397
24.96667,3436
24.97500,3472
24.98333,3506
24.99167,3536
25.00000,3565
25.00833,3591
25.01667,3614
25.02500,3635
25.03333,3653
25.04167,3668
25.05000,3681
25.05833,3691
25.06667,3698
25.07500,3702
25.08333,3704
25.09167,3702
25.10000,3697
25.10833,3690
25.11667,3679
25.12500,3665
25.13333,3649
25.14167,3628
25.15000,3605
25.15833,3579
25.16667,3549
25.17500,3517
25.18333,3481
25.19167,3442
25.20000,3400
25.20833,3356
25.21667,3309
25.22500,3259
25.23333,3206
25.24167,3150
25.25000,3092
25.25833,3032
25.26667,2969
25.27500,2905
25.28333,2838
25.29167,2770
25.30000,2701
25.30833,2630
25.31667,2558
25.32500,2485
25.33333,2411
25.34167,2336
25.35000,2261
25.35833,2186
25.36667,2110
25.37500,2036
25.38333,1961
25.39167,1887
25.40000,1814
25.40833,1741
25.41667,1669
25.42500,1598
25.43333,1528
25.44167,1460
25.45000,1393
25.45833,1328
25.46667,1264
25.47500,1202
25.48333,1142
25.49167,1083
25.50000,1027
25.50833,971
25.51667,919
25.52500,868
25.53333,819
25.54167,772
25.55000,726
25.55833,683
25.56667,642
25.57500,602
25.58333,564
25.59167,529
25.60000,495
25.60833,463
25.61667,433
25.62500,404
25.63333,377
25.64167,351
25.65000,326
25.65833,303
25.66667,282
25.67500,262
25.68333,243
25.69167,226
25.70000,209
25.70833,193
25.71667,179
25.72500,165
25.73333,152
25.74167,140
25.75000,129
25.75833,118
25.76667,109
25.77500,100
25.78333,92
25.79167,85
25.80000,77
25.80833,71
25.81667,65
25.82500,59
25.83333,54
25.84167,49
25.85000,44
25.85833,39
25.86667,35
25.87500,32
25.88333,29
25.89167,26
25.90000,23
25.90833,20
25.91667,18
25.92500,15
25.93333,13
25.94167,11
25.95000,10
25.95833,8
25.96667,6
25.97500,5
25.98333,3
25.99167,1
26.00000,-0
26.00833,-2
26.01667,-3
26.02500,-4
26.03333,-5
26.04167,-5
26.05000,-6
26.05833,-7
26.06667,-8
26.07500,-9
26.08333,-9
26.09167,-10
26.10000,-10
26.10833,-11
26.11667,-11
26.12500,-12
26.13333,-13
26.14167,-13
26.15000,-14
26.15833,-14
26.16667,-14
26.17500,-14
26.18333,-15
26.19167,-15
26.20000,-16
26.20833,-16
26.21667,-16
26.22500,-17
26.23333,-17
26.24167,-17
26.25000,-17
26.25833,-18
26.26667,-18
26.27500,-19
26.28333,-19
26.29167,-20
26.30000,-20
26.30833,-20
26.31667,-20
26.32500,-20
26.33333,-20
26.34167,-20
26.35000,-21
26.35833,-21
26.36667,-21
26.37500,-21
26.38333,-21
26.39167,-21
26.40000,-21
26.40833,-21
26.41667,-21
26.42500,-22
26.43333,-22
26.44167,-22
26.45000,-23
26.45833,-23
26.46667,-24
26.47500,-24
26.48333,-24
26.49167,-24
26.50000,-24
26.50833,-25
26.51667,-25
26.52500,-25
26.53333,-25
26.54167,-25
26.55000,-25
26.55833,-25
26.56667,-25
26.57500,-26
26.58333,-26
26.59167,-25
26.60000,-25
26.60833,-26
26.61667,-26
26.62500,-26
26.63333,-26
26.64167,-26
26.65000,-26
26.65833,-27
26.66667,-27
26.67500,-27
26.68333,-27
26.69167,-27
26.70000,-27
26.70833,-27
26.71667,-28
26.72500,-28
26.73333,-28
26.74167,-28
26.75000,-28
26.75833,-28
26.76667,-28
26.77500,-29
26.78333,-29
26.79167,-29
26.80000,-29
26.80833,-29
26.81667,-29
26.82500,-29
26.83333,-29
26.84167,-29
26.85000,-29
26.85833,-29
26.86667,-29
26.87500,-29
26.88333,-29
26.89167,-29
26.90000,-29
26.90833,-29
26.91667,-30
26.92500,-30
26.93333,-30
26.94167,-30
26.95000,-30
26.95833,-30
26.96667,-30
26.97500,-29
26.98333,-30
26.99167,-30
27.00000,-30
27.00833,-31
27.01667,-31
27.02500,-31
27.03333,-31
27.04167,-32
27.05000,-32
27.05833,-32
27.06667,-33
27.07500,-33
27.08333,-33
27.09167,-33
27.10000,-33
27.10833,-34
27.11667,-34
27.12500,-35
27.13333,-35
27.14167,-36
27.15000,-36
27.15833,-37
27.16667,-37
27.17500,-37
27.18333,-38
27.19167,-39
27.20000,-39
27.20833,-40
27.21667,-40
27.22500,-41
27.23333,-41
27.24167,-42
27.25000,-43
27.25833,-43
27.26667,-44
27.27500,-45
27.28333,-46
27.29167,-47
27.30000,-48
27.30833,-50
27.31667,-51
27.32500,-52
27.33333,-54
27.34167,-55
27.35000,-56
27.35833,-58
27.36667,-59
27.37500,-60
27.38333,-62
27.39167,-64
27.40000,-65
27.40833,-67
27.41667,-69
27.42500,-70
27.43333,-72
27.44167,-73
27.45000,-75
27.45833,-77
27.46667,-79
27.47500,-81
27.48333,-83
27.49167,-85
27.50000,-87
27.50833,-88
27.51667,-90
27.52500,-92
27.53333,-94
27.54167,-96
27.55000,-98
27.55833,-100
27.56667,-102
27.57500,-104
27.58333,-107
27.59167,-109
27.60000,-111
27.60833,-113
27.61667,-115
27.62500,-117
27.63333,-119
27.64167,-121
27.65000,-123
27.65833,-124
27.66667,-126
27.67500,-128
27.68333,-130
27.69167,-132
27.70000,-134
27.70833,-135
27.71667,-137
27.72500,-138
27.73333,-139
27.74167,-141
27.75000,-142
27.75833,-143
27.76667,-144
27.77500,-146
27.78333,-147
27.79167,-148
27.80000,-150
27.80833,-151
27.81667,-152
27.82500,-153
27.83333,-153
27.84167,-154
27.85000,-155
27.85833,-155
27.86667,-156
27.87500,-156
27.88333,-156
27.89167,-157
27.90000,-157
27.90833,-157
27.91667,-157
27.92500,-157
27.93333,-157
27.94167,-157
27.95000,-156
27.95833,-156
27.96667,-155
27.97500,-154
27.98333,-154
27.99167,-153
28.00000,-152
28.00833,-152
28.01667,-151
28.02500,-150
28.03333,-149
28.04167,-148
28.05000,-146
28.05833,-145
28.06667,-143
28.07500,-142
28.08333,-140
28.09167,-139
28.10000,-137
28.10833,-136
28.11667,-134
28.12500,-132
28.13333,-131
28.14167,-130
28.15000,-128
28.15833,-126
28.16667,-124
28.17500,-122
28.18333,-120
28.19167,-118
28.20000,-116
28.20833,-114
28.21667,-113
28.22500,-111
28.23333,-109
28.24167,-107
28.25000,-105
28.25833,-103
28.26667,-102
28.27500,-100
28.28333,-99
28.29167,-97
28.30000,-96
28.30833,-94
28.31667,-92
28.32500,-91
28.33333,-90
28.34167,-88
28.35000,-87
28.35833,-85
28.36667,-84
28.37500,-82
28.38333,-81
28.39167,-80
28.40000,-79
28.40833,-77
28.41667,-76
28.42500,-74
28.43333,-73
28.44167,-73
28.45000,-72
28.45833,-71
28.46667,-69
28.47500,-69
28.48333,-68
28.49167,-67
28.50000,-66
28.50833,-65
28.51667,-64
28.52500,-63
28.53333,-62
28.54167,-62
28.55000,-61
28.55833,-60
28.56667,-60
28.57500,-60
28.58333,-59
28.59167,-59
28.60000,-58
28.60833,-57
28.61667,-57
28.62500,-56
28.63333,-56
28.64167,-55
28.65000,-55
28.65833,-54
28.66667,-54
28.67500,-54
28.68333,-53
28.69167,-53
28.70000,-52
28.70833,-52
28.71667,-52
28.72500,-52
28.73333,-52
28.74167,-52
28.75000,-51
28.75833,-51
28.76667,-51
28.77500,-51
28.78333,-50
28.79167,-50
28.80000,-49
28.80833,-49
28.81667,-49
28.82500,-49
28.83333,-49
28.84167,-49
28.85000,-49
28.85833,-49
28.86667,-49
28.87500,-49
28.88333,-49
28.89167,-49
28.90000,-49
28.90833,-49
28.91667,-49
28.92500,-49
28.93333,-49
28.94167,-49
28.95000,-49
28.95833,-49
28.96667,-50
28.97500,-50
28.98333,-50
28.99167,-50
29.00000,-50
29.00833,-51
29.01667,-51
29.02500,-51
29.03333,-51
29.04167,-51
29.05000,-51
29.05833,-52
29.06667,-52
29.07500,-53
29.08333,-53
29.09167,-53
29.10000,-53
29.10833,-54
29.11667,-54
29.12500,-54
29.13333,-55
29.14167,-55
29.15000,-55
29.15833,-56
29.16667,-56
29.17500,-57
29.18333,-57
29.19167,-58
29.20000,-58
29.20833,-58
29.21667,-58
29.22500,-59
29.23333,-59
29.24167,-60
29.25000,-60
29.25833,-61
29.26667,-61
29.27500,-62
29.28333,-62
29.29167,-63
29.30000,-64
29.30833,-65
29.31667,-65
29.32500,-66
29.33333,-66
29.34167,-66
29.35000,-67
29.35833,-67
29.36667,-68
29.37500,-68
29.38333,-69
29.39167,-70
29.40000,-70
29.40833,-70
29.41667,-71
29.42500,-71
29.43333,-72
29.44167,-72
29.45000,-72
29.45833,-73
29.46667,-73
29.47500,-73
29.48333,-73
29.49167,-74
29.50000,-74
29.50833,-75
29.51667,-75
29.52500,-75
29.53333,-76
29.54167,-76
29.55000,-76
29.55833,-76
29.56667,-76
29.57500,-77
29.58333,-77
29.59167,-78
29.60000,-78
29.60833,-78
29.61667,-78
29.62500,-78
29.63333,-78
29.64167,-78
29.65000,-78
29.65833,-77
29.66667,-77
29.67500,-78
29.68333,-78
29.69167,-79
29.70000,-78
29.70833,-78
29.71667,-78
29.72500,-78
29.73333,-78
29.74167,-77
29.75000,-77
29.75833,-77
29.76667,-77
29.77500,-76
29.78333,-76
29.79167,-76
29.80000,-76
29.80833,-76
29.81667,-76
29.82500,-77
29.83333,-77
29.84167,-77
29.85000,-77
29.85833,-78
29.86667,-78
29.87500,-79
29.88333,-79
29.89167,-80
29.90000,-80
29.90833,-81
29.91667,-81
29.92500,-82
29.93333,-83
29.94167,-84
29.95000,-85
29.95833,-86
29.96667,-87
29.97500,-88
29.98333,-89
29.99167,-90
30.00000,-91
30.00833,-93
30.01667,-95
30.02500,-97
30.03333,-98
30.04167,-100
30.05000,-102
30.05833,-104
30.06667,-107
30.07500,-109
30.08333,-111
30.09167,-114
30.10000,-116
30.10833,-118
30.11667,-121
30.12500,-124
30.13333,-127
30.14167,-130
30.15000,-133
30.15833,-137
30.16667,-141
30.17500,-144
30.18333,-148
30.19167,-151
30.20000,-155
30.20833,-158
30.21667,-162
30.22500,-167
30.23333,-171
30.24167,-175
30.25000,-179
30.25833,-183
30.26667,-188
30.27500,-192
30.28333,-196
30.29167,-201
30.30000,-205
30.30833,-210
30.31667,-214
30.32500,-219
30.33333,-223
30.34167,-228
30.35000,-232
30.35833,-237
30.36667,-242
30.37500,-246
30.38333,-251
30.39167,-256
30.40000,-260
30.40833,-264
30.41667,-269
30.42500,-273
30.43333,-277
30.44167,-281
30.45000,-285
30.45833,-290
30.46667,-294
30.47500,-297
30.48333,-301
30.49167,-304
30.50000,-308
30.50833,-311
30.51667,-314
30.52500,-317
30.53333,-320
30.54167,-323
30.55000,-326
30.55833,-329
30.56667,-332
30.57500,-334
30.58333,-336
30.59167,-339
30.60000,-341
30.60833,-342
30.61667,-344
30.62500,-345
30.63333,-346
30.64167,-347
30.65000,-347
30.65833,-347
30.66667,-348
30.67500,-348
30.68333,-349
30.69167,-349
30.70000,-349
30.70833,-349
30.71667,-348
30.72500,-348
30.73333,-347
30.74167,-346
30.75000,-345
30.75833,-343
30.76667,-341
30.77500,-340
30.78333,-337
30.79167,-335
30.80000,-332
30.80833,-330
30.81667,-327
30.82500,-324
30.83333,-321
30.84167,-318
30.85000,-314
30.85833,-311
30.86667,-307
30.87500,-303
30.88333,-299
30.89167,-295
30.90000,-291
30.90833,-287
30.91667,-283
30.92500,-278
30.93333,-274
30.94167,-269
30.95000,-265
30.95833,-260
30.96667,-255
30.97500,-250
30.98333,-245
30.99167,-240
31.00000,-236
31.00833,-231
31.01667,-227
31.02500,-222
31.03333,-217
31.04167,-212
31.05000,-207
31.05833,-203
31.06667,-199
31.07500,-194
31.08333,-190
31.09167,-186
31.10000,-182
31.10833,-178
31.11667,-173
31.12500,-169
31.13333,-164
31.14167,-161
31.15000,-157
31.15833,-153
31.16667,-150
31.17500,-146
31.18333,-142
31.19167,-139
31.20000,-135
31.20833,-131
31.21667,-127
31.22500,-124
31.23333,-121
31.24167,-118
31.25000,-115
31.25833,-113
31.26667,-110
31.27500,-108
31.28333,-105
31.29167,-103
31.30000,-101
31.30833,-98
31.31667,-97
31.32500,-95
31.33333,-92
31.34167,-90
31.35000,-88
31.35833,-86
31.36667,-84
31.37500,-82
31.38333,-81
31.39167,-80
31.40000,-78
31.40833,-77
31.41667,-75
31.42500,-74
31.43333,-72
31.44167,-70
31.45000,-69
31.45833,-67
31.46667,-65
31.47500,-64
31.48333,-62
31.49167,-61
31.50000,-59
31.50833,-59
31.51667,-58
31.52500,-56
31.53333,-54
31.54167,-52
31.55000,-51
31.55833,-49
31.56667,-47
31.57500,-45
31.58333,-44
31.59167,-42
31.60000,-40
31.60833,-38
31.61667,-36
31.62500,-34
31.63333,-31
31.64167,-29
31.65000,-26
31.65833,-23
31.66667,-20
31.67500,-17
31.68333,-13
31.69167,-10
31.70000,-6
31.70833,-2
31.71667,2
31.72500,7
31.73333,11
31.74167,16
31.75000,21
31.75833,26
31.76667,31
31.77500,36
31.78333,41
31.79167,47
31.80000,53
31.80833,59
31.81667,66
31.82500,73
31.83333,79
31.84167,86
31.85000,94
31.85833,100
31.86667,108
31.87500,115
31.88333,123
31.89167,130
31.90000,138
31.90833,146
31.91667,154
31.92500,162
31.93333,170
31.94167,179
31.95000,187
31.95833,195
31.96667,204
31.97500,212
31.98333,220
31.99167,228
32.00000,236
32.00833,244
32.01667,252
32.02500,260
32.03333,268
32.04167,276
32.05000,284
32.05833,291
32.06667,299
32.07500,306
32.08333,313
32.09167,320
32.10000,327
32.10833,334
32.11667,341
32.12500,348
32.13333,355
32.14167,362
32.15000,368
32.15833,373
32.16667,379
32.17500,384
32.18333,389
32.19167,394
32.20000,399
32.20833,404
32.21667,408
32.22500,412
32.23333,416
32.24167,420
32.25000,424
32.25833,427
32.26667,431
32.27500,434
32.28333,437
32.29167,440
32.30000,442
32.30833,444
32.31667,446
32.32500,447
32.33333,449
32.34167,450
32.35000,451
32.35833,451
32.36667,452
32.37500,453
32.38333,453
32.39167,453
32.40000,452
32.40833,451
32.41667,450
32.42500,449
32.43333,447
32.44167,446
32.45000,444
32.45833,442
32.46667,440
32.47500,437
32.48333,434
32.49167,430
32.50000,426
32.50833,422
32.51667,417
32.52500,413
32.53333,407
32.54167,402
32.55000,397
32.55833,392
32.56667,386
32.57500,380
32.58333,373
32.59167,367
32.60000,361
32.60833,354
32.61667,347
32.62500,340
32.63333,333
32.64167,325
32.65000,318
32.65833,310
32.66667,302
32.67500,295
32.68333,286
32.69167,278
32.70000,271
32.70833,262
32.71667,254
32.72500,246
32.73333,238
32.74167,230
32.75000,221
32.75833,213
32.76667,205
32.77500,198
32.78333,190
32.79167,182
32.80000,174
32.80833,166
32.81667,159
32.82500,151
32.83333,144
32.84167,137
32.85000,130
32.85833,123
32.86667,116
32.87500,110
32.88333,103
32.89167,97
32.90000,91
32.90833,86
32.91667,80
32.92500,74
32.93333,69
32.94167,63
32.95000,58
32.95833,53
32.96667,47
32.97500,42
32.98333,38
32.99167,34
33.00000,29
33.00833,25
33.01667,21
33.02500,17
33.03333,14
33.04167,10
33.05000,8
33.05833,5
33.06667,1
33.07500,-1
33.08333,-4
33.09167,-7
33.10000,-10
33.10833,-12
33.11667,-15
33.12500,-17
33.13333,-20
33.14167,-22
33.15000,-24
33.15833,-26
33.16667,-28
33.17500,-30
33.18333,-31
33.19167,-33
33.20000,-34
33.20833,-35
33.21667,-36
33.22500,-38
33.23333,-39
33.24167,-40
33.25000,-41
33.25833,-42
33.26667,-43
33.27500,-44
33.28333,-45
33.29167,-46
33.30000,-46
33.30833,-47
33.31667,-48
33.32500,-49
33.33333,-50
33.34167,-50
33.35000,-52
33.35833,-53
33.36667,-54
33.37500,-54
33.38333,-55
33.39167,-55
33.40000,-55
33.40833,-55
33.41667,-55
33.42500,-56
33.43333,-56
33.44167,-57
33.45000,-58
33.45833,-59
33.46667,-59
33.47500,-59
33.48333,-60
33.49167,-60
33.50000,-61
33.50833,-61
33.51667,-61
33.52500,-62
33.53333,-62
33.54167,-63
33.55000,-63
33.55833,-63
33.56667,-63
33.57500,-63
33.58333,-64
33.59167,-64
33.60000,-65
33.60833,-65
33.61667,-65
33.62500,-65
33.63333,-66
33.64167,-66
33.65000,-66
33.65833,-66
33.66667,-66
33.67500,-66
33.68333,-66
33.69167,-66
33.70000,-66
33.70833,-66
33.71667,-66
33.72500,-66
33.73333,-66
33.74167,-66
33.75000,-66
33.75833,-66
33.76667,-66
33.77500,-67
33.78333,-67
33.79167,-67
33.80000,-67
33.80833,-67
33.81667,-67
33.82500,-67
33.83333,-67
33.84167,-67
33.85000,-67
33.85833,-66
33.86667,-66
33.87500,-66
33.88333,-65
33.89167,-65
33.90000,-65
33.90833,-65
33.91667,-65
33.92500,-64
33.93333,-64
33.94167,-64
33.95000,-64
33.95833,-64
33.96667,-64
33.97500,-64
33.98333,-64
33.99167,-64
34.00000,-64
34.00833,-63
34.01667,-63
34.02500,-62
34.03333,-62
34.04167,-62
34.05000,-62
34.05833,-61
34.06667,-61
34.07500,-61
34.08333,-60
34.09167,-60
34.10000,-59
34.10833,-59
34.11667,-59
34.12500,-58
34.13333,-58
34.14167,-58
34.15000,-57
34.15833,-57
34.16667,-57
34.17500,-57
34.18333,-57
34.19167,-57
34.20000,-57
34.20833,-56
34.21667,-56
34.22500,-56
34.23333,-55
34.24167,-55
34.25000,-55
34.25833,-55
34.26667,-54
34.27500,-54
34.28333,-54
34.29167,-54
34.30000,-54
34.30833,-54
34.31667,-54
34.32500,-53
34.33333,-53
34.34167,-53
34.35000,-52
34.35833,-52
34.36667,-52
34.37500,-52
34.38333,-52
34.39167,-51
34.40000,-51
34.40833,-51
34.41667,-50
34.42500,-50
34.43333,-50
34.44167,-50
34.45000,-51
34.45833,-51
34.46667,-51
34.47500,-51
34.48333,-51
34.49167,-50
34.50000,-51
34.50833,-50
34.51667,-50
34.52500,-50
34.53333,-50
34.54167,-51
34.55000,-51
34.55833,-50
34.56667,-50
34.57500,-51
34.58333,-50
34.59167,-50
34.60000,-50
34.60833,-50
34.61667,-49
34.62500,-49
34.63333,-49
34.64167,-50
34.65000,-50
34.65833,-50
34.66667,-50
34.67500,-50
34.68333,-50
34.69167,-49
34.70000,-49
34.70833,-49
34.71667,-49
34.72500,-49
34.73333,-49
34.74167,-49
34.75000,-50
34.75833,-50
34.76667,-50
34.77500,-50
34.78333,-50
34.79167,-51
34.80000,-51
34.80833,-51
34.81667,-51
34.82500,-51
34.83333,-51
34.84167,-51
34.85000,-51
34.85833,-50
34.86667,-50
34.87500,-50
34.88333,-50
34.89167,-50
34.90000,-51
34.90833,-51
34.91667,-51
34.92500,-51
34.93333,-51
34.94167,-51
34.95000,-51
34.95833,-51
34.96667,-50
34.97500,-50
34.98333,-50
34.99167,-50
35.00000,-50
35.00833,-50
35.01667,-50
35.02500,-51
35.03333,-51
35.04167,-51
35.05000,-51
35.05833,-51
35.06667,-51
35.07500,-51
35.08333,-51
35.09167,-51
35.10000,-51
35.10833,-51
35.11667,-51
35.12500,-51
35.13333,-52
35.14167,-52
35.15000,-51
35.15833,-51
35.16667,-51
35.17500,-51
35.18333,-51
35.19167,-51
35.20000,-52
35.20833,-52
35.21667,-52
35.22500,-52
35.23333,-52
35.24167,-52
35.25000,-52
35.25833,-52
35.26667,-52
35.27500,-52
35.28333,-52
35.29167,-52
35.30000,-52
35.30833,-51
35.31667,-52
35.32500,-52
35.33333,-52
35.34167,-52
35.35000,-52
35.35833,-52
35.36667,-52
35.37500,-52
35.38333,-52
35.39167,-52
35.40000,-52
35.40833,-53
35.41667,-53
35.42500,-53
35.43333,-53
35.44167,-52
35.45000,-52
35.45833,-52
35.46667,-51
35.47500,-51
35.48333,-51
35.49167,-52
35.50000,-52
35.50833,-53
35.51667,-53
35.52500,-53
35.53333,-53
35.54167,-53
35.55000,-53
35.55833,-53
35.56667,-53
35.57500,-53
35.58333,-53
35.59167,-53
35.60000,-53
35.60833,-53
35.61667,-53
35.62500,-53
35.63333,-53
35.64167,-53
35.65000,-53
35.65833,-53
35.66667,-53
35.67500,-53
35.68333,-53
35.69167,-53
35.70000,-53
35.70833,-53
35.71667,-53
35.72500,-53
35.73333,-53
35.74167,-52
35.75000,-52
35.75833,-52
35.76667,-52
35.77500,-52
35.78333,-51
35.79167,-51
35.80000,-52
35.80833,-52
35.81667,-52
35.82500,-52
35.83333,-52
35.84167,-52
35.85000,-53
35.85833,-53
35.86667,-53
35.87500,-53
35.88333,-53
35.89167,-53
35.90000,-53
35.90833,-53
35.91667,-53
35.92500,-53
35.93333,-53
35.94167,-53
35.95000,-53
35.95833,-53
35.96667,-53
35.97500,-52
35.98333,-52
35.99167,-51
36.00000,-51
36.00833,-51
36.01667,-52
36.02500,-52
36.03333,-52
36.04167,-53
36.05000,-53
36.05833,-53
36.06667,-53
36.07500,-53
36.08333,-53
36.09167,-53
36.10000,-53
36.10833,-53
36.11667,-54
36.12500,-54
36.13333,-54
36.14167,-54
36.15000,-53
36.15833,-54
36.16667,-54
36.17500,-54
36.18333,-54
36.19167,-54
36.20000,-54
36.20833,-53
36.21667,-53
36.22500,-52
36.23333,-52
36.24167,-52
36.25000,-52
36.25833,-52
36.26667,-53
36.27500,-53
36.28333,-53
36.29167,-53
36.30000,-53
36.30833,-53
36.31667,-53
36.32500,-53
36.33333,-53
36.34167,-53
36.35000,-53
36.35833,-53
36.36667,-53
36.37500,-54
36.38333,-54
36.39167,-54
36.40000,-54
36.40833,-54
36.41667,-53
36.42500,-53
36.43333,-53
36.44167,-53
36.45000,-53
36.45833,-54
36.46667,-54
36.47500,-54
36.48333,-53
36.49167,-53
36.50000,-54
36.50833,-54
36.51667,-53
36.52500,-53
36.53333,-53
36.54167,-53
36.55000,-53
36.55833,-52
36.56667,-53
36.57500,-53
36.58333,-53
36.59167,-53
36.60000,-53
36.60833,-53
36.61667,-52
36.62500,-52
36.63333,-52
36.64167,-52
36.65000,-52
36.65833,-52
36.66667,-52
36.67500,-52
36.68333,-52
36.69167,-52
36.70000,-52
36.70833,-52
36.71667,-52
36.72500,-52
36.73333,-53
36.74167,-53
36.75000,-53
36.75833,-52
36.76667,-52
36.77500,-51
36.78333,-51
36.79167,-52
36.80000,-52
36.80833,-52
36.81667,-52
36.82500,-52
36.83333,-52
36.84167,-52
36.85000,-52
36.85833,-52
36.86667,-53
36.87500,-53
36.88333,-52
36.89167,-52
36.90000,-52
36.90833,-52
36.91667,-52
36.92500,-51
36.93333,-51
36.94167,-51
36.95000,-52
36.95833,-52
36.96667,-52
36.97500,-51
36.98333,-51
36.99167,-51
37.00000,-51
37.00833,-51
37.01667,-51
37.02500,-52
37.03333,-52
37.04167,-51
37.05000,-51
37.05833,-51
37.06667,-51
37.07500,-51
37.08333,-51
37.09167,-51
37.10000,-51
37.10833,-50
37.11667,-50
37.12500,-50
37.13333,-50
37.14167,-50
37.15000,-50
37.15833,-51
37.16667,-51
37.17500,-51
37.18333,-51
37.19167,-51
37.20000,-51
37.20833,-51
37.21667,-51
37.22500,-51
37.23333,-51
37.24167,-51
37.25000,-51
37.25833,-51
37.26667,-50
37.27500,-50
37.28333,-50
37.29167,-50
37.30000,-50
37.30833,-50
37.31667,-50
37.32500,-50
37.33333,-50
37.34167,-50
37.35000,-50
37.35833,-50
37.36667,-50
37.37500,-50
37.38333,-50
37.39167,-50
37.40000,-50
37.40833,-50
37.41667,-49
37.42500,-49
37.43333,-49
37.44167,-50
37.45000,-50
37.45833,-51
37.46667,-51
37.47500,-51
37.48333,-50
37.49167,-50
37.50000,-49
37.50833,-49
37.51667,-49
37.52500,-49
37.53333,-49
37.54167,-49
37.55000,-49
37.55833,-49
37.56667,-49
37.57500,-49
37.58333,-49
37.59167,-49
37.60000,-49
37.60833,-49
37.61667,-49
37.62500,-49
37.63333,-49
37.64167,-50
37.65000,-50
37.65833,-50
37.66667,-50
37.67500,-50
37.68333,-50
37.69167,-50
37.70000,-50
37.70833,-50
37.71667,-50
37.72500,-50
37.73333,-49
37.74167,-49
37.75000,-49
37.75833,-49
37.76667,-50
37.77500,-50
37.78333,-50
37.79167,-50
37.80000,-50
37.80833,-50
37.81667,-50
37.82500,-49
37.83333,-49
37.84167,-49
37.85000,-49
37.85833,-49
37.86667,-49
37.87500,-49
37.88333,-49
37.89167,-49
37.90000,-49
37.90833,-49
37.91667,-49
37.92500,-50
37.93333,-49
37.94167,-49
37.95000,-50
37.95833,-50
37.96667,-49
37.97500,-49
37.98333,-49
37.99167,-49
38.00000,-50
38.00833,-50
38.01667,-50
38.02500,-50
38.03333,-50
38.04167,-50
38.05000,-50
38.05833,-51
38.06667,-51
38.07500,-51
38.08333,-51
38.09167,-51
38.10000,-51
38.10833,-51
38.11667,-50
38.12500,-50
38.13333,-50
38.14167,-50
38.15000,-50
38.15833,-51
38.16667,-51
38.17500,-51
38.18333,-52
38.19167,-52
38.20000,-52
38.20833,-52
38.21667,-52
38.22500,-52
38.23333,-52
38.24167,-51
38.25000,-51
38.25833,-51
38.26667,-51
38.27500,-51
38.28333,-52
38.29167,-52
38.30000,-52
38.30833,-52
38.31667,-52
38.32500,-52
38.33333,-53
38.34167,-53
38.35000,-52
38.35833,-52
38.36667,-52
38.37500,-52
38.38333,-52
38.39167,-52
38.40000,-53
38.40833,-53
38.41667,-53
38.42500,-53
38.43333,-54
38.44167,-54
38.45000,-54
38.45833,-55
38.46667,-55
38.47500,-55
38.48333,-55
38.49167,-54
38.50000,-54
38.50833,-54
38.51667,-54
38.52500,-54
38.53333,-54
38.54167,-54
38.55000,-55
38.55833,-55
38.56667,-55
38.57500,-55
38.58333,-55
38.59167,-55
38.60000,-55
38.60833,-55
38.61667,-55
38.62500,-55
38.63333,-56
38.64167,-56
38.65000,-56
38.65833,-56
38.66667,-56
38.67500,-56
38.68333,-56
38.69167,-56
38.70000,-57
38.70833,-57
38.71667,-57
38.72500,-57
38.73333,-57
38.74167,-57
38.75000,-57
38.75833,-57
38.76667,-57
38.77500,-57
38.78333,-57
38.79167,-57
38.80000,-57
38.80833,-58
38.81667,-58
38.82500,-58
38.83333,-58
38.84167,-58
38.85000,-57
38.85833,-57
38.86667,-57
38.87500,-57
38.88333,-57
38.89167,-58
38.90000,-58
38.90833,-58
38.91667,-58
38.92500,-59
38.93333,-59
38.94167,-59
38.95000,-59
38.95833,-59
38.96667,-60
38.97500,-60
38.98333,-59
38.99167,-60
39.00000,-59
39.00833,-59
39.01667,-60
39.02500,-60
39.03333,-60
39.04167,-60
39.05000,-60
39.05833,-60
39.06667,-60
39.07500,-60
39.08333,-60
39.09167,-60
39.10000,-60
39.10833,-60
39.11667,-60
39.12500,-61
39.13333,-61
39.14167,-61
39.15000,-61
39.15833,-61
39.16667,-61
39.17500,-61
39.18333,-61
39.19167,-61
39.20000,-61
39.20833,-61
39.21667,-61
39.22500,-61
39.23333,-61
39.24167,-61
39.25000,-62
39.25833,-62
39.26667,-62
39.27500,-62
39.28333,-62
39.29167,-61
39.30000,-61
39.30833,-61
39.31667,-61
39.32500,-61
39.33333,-61
39.34167,-61
39.35000,-60
39.35833,-60
39.36667,-60
39.37500,-60
39.38333,-61
39.39167,-61
39.40000,-61
39.40833,-61
39.41667,-61
39.42500,-61
39.43333,-61
39.44167,-61
39.45000,-61
39.45833,-61
39.46667,-61
39.47500,-60
39.48333,-60
39.49167,-60
39.50000,-59
39.50833,-59
39.51667,-60
39.52500,-60
39.53333,-60
39.54167,-60
39.55000,-60
39.55833,-60
39.56667,-60
39.57500,-61
39.58333,-61
39.59167,-61
39.60000,-61
39.60833,-61
39.61667,-61
39.62500,-61
39.63333,-61
39.64167,-61
39.65000,-61
39.65833,-61
39.66667,-61
39.67500,-61
39.68333,-61
39.69167,-61
39.70000,-61
39.70833,-61
39.71667,-61
39.72500,-61
39.73333,-61
39.74167,-61
39.75000,-61
39.75833,-61
39.76667,-61
39.77500,-60
39.78333,-61
39.79167,-61
39.80000,-61
39.80833,-61
39.81667,-61
39.82500,-61
39.83333,-61
39.84167,-61
39.85000,-61
39.85833,-61
39.86667,-61
39.87500,-60
39.88333,-60
39.89167,-60
39.90000,-60
39.90833,-59
39.91667,-59
39.92500,-60
39.93333,-60
39.94167,-59
39.95000,-59
39.95833,-60
39.96667,-60
39.97500,-60
39.98333,-60
39.99167,-60
40.00000,-60
40.00833,-60
40.01667,-60
40.02500,-60
40.03333,-60
40.04167,-60
40.05000,-59
40.05833,-60
40.06667,-60
40.07500,-60
40.08333,-60
40.09167,-60
40.10000,-61
40.10833,-61
40.11667,-61
40.12500,-61
40.13333,-61
40.14167,-61
40.15000,-61
40.15833,-61
40.16667,-61
40.17500,-61
40.18333,-61
40.19167,-61
40.20000,-61
40.20833,-61
40.21667,-61
40.22500,-61
40.23333,-61
40.24167,-61
40.25000,-61
40.25833,-61
40.26667,-61
40.27500,-61
40.28333,-61
40.29167,-62
40.30000,-62
40.30833,-62
40.31667,-62
40.32500,-61
40.33333,-61
40.34167,-62
40.35000,-61
40.35833,-62
40.36667,-62
40.37500,-62
40.38333,-62
40.39167,-62
40.40000,-62
40.40833,-62
40.41667,-62
40.42500,-61
40.43333,-61
40.44167,-61
40.45000,-60
40.45833,-61
40.46667,-61
40.47500,-61
40.48333,-61
40.49167,-61
40.50000,-62
40.50833,-62
40.51667,-62
40.52500,-62
40.53333,-61
40.54167,-62
40.55000,-62
40.55833,-62
40.56667,-62
40.57500,-62
40.58333,-62
40.59167,-62
40.60000,-62
40.60833,-62
40.61667,-61
40.62500,-61
40.63333,-61
40.64167,-61
40.65000,-62
40.65833,-62
40.66667,-62
40.67500,-62
40.68333,-63
40.69167,-63
40.70000,-63
40.70833,-63
40.71667,-63
40.72500,-63
40.73333,-63
40.74167,-63
40.75000,-63
40.75833,-63
40.76667,-62
40.77500,-62
40.78333,-62
40.79167,-62
40.80000,-62
40.80833,-61
40.81667,-61
40.82500,-61
40.83333,-61
40.84167,-61
40.85000,-61
40.85833,-61
40.86667,-62
40.87500,-62
40.88333,-62
40.89167,-62
40.90000,-62
40.90833,-62
40.91667,-62
40.92500,-62
40.93333,-62
40.94167,-62
40.95000,-62
40.95833,-62
40.96667,-62
40.97500,-61
40.98333,-61
40.99167,-61
41.00000,-61
41.00833,-61
41.01667,-61
41.02500,-61
41.03333,-61
41.04167,-61
41.05000,-61
41.05833,-62
41.06667,-62
41.07500,-61
41.08333,-61
41.09167,-61
41.10000,-61
41.10833,-61
41.11667,-61
41.12500,-61
41.13333,-61
41.14167,-61
41.15000,-61
41.15833,-61
41.16667,-61
41.17500,-62
41.18333,-62
41.19167,-62
41.20000,-62
41.20833,-62
41.21667,-61
41.22500,-61
41.23333,-61
41.24167,-61
41.25000,-61
41.25833,-61
41.26667,-61
41.27500,-60
41.28333,-60
41.29167,-60
41.30000,-61
41.30833,-61
41.31667,-60
41.32500,-60
41.33333,-60
41.34167,-59
41.35000,-59
41.35833,-60
41.36667,-60
41.37500,-60
41.38333,-60
41.39167,-60
41.40000,-60
41.40833,-60
41.41667,-61
41.42500,-61
41.43333,-61
41.44167,-61
41.45000,-61
41.45833,-61
41.46667,-61
41.47500,-60
41.48333,-60
41.49167,-60
41.50000,-60
41.50833,-60
41.51667,-59
41.52500,-59
41.53333,-59
41.54167,-59
41.55000,-59
41.55833,-59
41.56667,-59
41.57500,-59
41.58333,-59
41.59167,-59
41.60000,-59
41.60833,-59
41.61667,-60
41.62500,-60
41.63333,-60
41.64167,-60
41.65000,-60
41.65833,-59
41.66667,-59
41.67500,-59
41.68333,-59
41.69167,-59
41.70000,-59
41.70833,-59
41.71667,-58
41.72500,-58
41.73333,-59
41.74167,-59
41.75000,-59
41.75833,-58
41.76667,-58
41.77500,-58
41.78333,-58
41.79167,-58
41.80000,-59
41.80833,-59
41.81667,-58
41.82500,-59
41.83333,-58
41.84167,-59
41.85000,-59
41.85833,-59
41.86667,-59
41.87500,-59
41.88333,-58
41.89167,-58
41.90000,-58
41.90833,-58
41.91667,-58
41.92500,-58
41.93333,-58
41.94167,-58
41.95000,-58
41.95833,-57
41.96667,-57
41.97500,-57
41.98333,-57
41.99167,-57
42.00000,-57
42.00833,-57
42.01667,-57
42.02500,-57
42.03333,-57
42.04167,-57
42.05000,-57
42.05833,-57
42.06667,-57
42.07500,-58
42.08333,-57
42.09167,-57
42.10000,-57
42.10833,-57
42.11667,-57
42.12500,-58
42.13333,-58
42.14167,-58
42.15000,-57
42.15833,-57
42.16667,-57
42.17500,-57
42.18333,-57
42.19167,-57
42.20000,-56
42.20833,-56
42.21667,-56
42.22500,-56
42.23333,-56
42.24167,-56
42.25000,-56
42.25833,-57
42.26667,-57
42.27500,-57
42.28333,-57
42.29167,-57
42.30000,-57
42.30833,-57
42.31667,-56
42.32500,-56
42.33333,-56
42.34167,-56
42.35000,-56
42.35833,-56
42.36667,-56
42.37500,-56
42.38333,-56
42.39167,-56
42.40000,-56
42.40833,-56
42.41667,-56
42.42500,-56
42.43333,-56
42.44167,-56
42.45000,-56
42.45833,-56
42.46667,-56
42.47500,-56
42.48333,-55
42.49167,-55
42.50000,-55
42.50833,-55
42.51667,-55
42.52500,-55
42.53333,-56
42.54167,-56
42.55000,-56
42.55833,-56
42.56667,-56
42.57500,-56
42.58333,-56
42.59167,-56
42.60000,-56
42.60833,-55
42.61667,-55
42.62500,-55
42.63333,-55
42.64167,-55
42.65000,-55
42.65833,-55
42.66667,-55
42.67500,-54
42.68333,-54
42.69167,-54
42.70000,-54
42.70833,-54
42.71667,-55
42.72500,-55
42.73333,-55
42.74167,-54
42.75000,-55
42.75833,-55
42.76667,-55
42.77500,-55
42.78333,-55
42.79167,-55
42.80000,-55
42.80833,-54
42.81667,-54
42.82500,-55
42.83333,-55
42.84167,-54
42.85000,-54
42.85833,-54
42.86667,-53
42.87500,-53
42.88333,-53
42.89167,-54
42.90000,-54
42.90833,-54
42.91667,-54
42.92500,-54
42.93333,-54
42.94167,-54
42.95000,-54
42.95833,-54
42.96667,-54
42.97500,-54
42.98333,-54
42.99167,-54
43.00000,-54
43.00833,-54
43.01667,-54
43.02500,-53
43.03333,-53
43.04167,-53
43.05000,-54
43.05833,-54
43.06667,-54
43.07500,-54
43.08333,-54
43.09167,-54
43.10000,-54
43.10833,-54
43.11667,-54
43.12500,-54
43.13333,-54
43.14167,-54
43.15000,-54
43.15833,-54
43.16667,-54
43.17500,-54
43.18333,-53
43.19167,-53
43.20000,-53
43.20833,-53
43.21667,-53
43.22500,-53
43.23333,-53
43.24167,-53
43.25000,-53
43.25833,-53
43.26667,-53
43.27500,-53
43.28333,-53
43.29167,-53
43.30000,-53
43.30833,-53
43.31667,-53
43.32500,-53
43.33333,-53
43.34167,-53
43.35000,-53
43.35833,-52
43.36667,-52
43.37500,-52
43.38333,-51
43.39167,-51
43.40000,-51
43.40833,-52
43.41667,-52
43.42500,-52
43.43333,-52
43.44167,-52
43.45000,-52
43.45833,-52
43.46667,-52
43.47500,-52
43.48333,-52
43.49167,-52
43.50000,-52
43.50833,-52
43.51667,-52
43.52500,-52
43.53333,-52
43.54167,-51
43.55000,-51
43.55833,-51
43.56667,-52
43.57500,-52
43.58333,-52
43.59167,-52
43.60000,-52
43.60833,-52
43.61667,-52
43.62500,-52
43.63333,-52
43.64167,-52
43.65000,-52
43.65833,-52
43.66667,-51
43.67500,-51
43.68333,-51
43.69167,-51
43.70000,-51
43.70833,-51
43.71667,-51
43.72500,-50
43.73333,-50
43.74167,-50
43.75000,-50
43.75833,-50
43.76667,-50
43.77500,-50
43.78333,-51
43.79167,-51
43.80000,-50
43.80833,-50
43.81667,-50
43.82500,-50
43.83333,-50
43.84167,-50
43.85000,-50
43.85833,-50
43.86667,-50
43.87500,-50
43.88333,-50
43.89167,-50
43.90000,-50
43.90833,-51
43.91667,-51
43.92500,-51
43.93333,-51
43.94167,-50
43.95000,-51
43.95833,-51
43.96667,-51
43.97500,-50
43.98333,-50
43.99167,-50
44.00000,-49
44.00833,-49
44.01667,-49
44.02500,-49
44.03333,-49
44.04167,-49
44.05000,-49
44.05833,-49
44.06667,-49
44.07500,-49
44.08333,-49
44.09167,-49
44.10000,-49
44.10833,-49
44.11667,-49
44.12500,-49
44.13333,-49
44.14167,-49
44.15000,-49
44.15833,-49
44.16667,-49
44.17500,-49
44.18333,-49
44.19167,-49
44.20000,-50
44.20833,-50
44.21667,-50
44.22500,-49
44.23333,-49
44.24167,-49
44.25000,-50
44.25833,-50
44.26667,-50
44.27500,-49
44.28333,-49
44.29167,-49
44.30000,-49
44.30833,-49
44.31667,-50
44.32500,-50
44.33333,-50
44.34167,-49
44.35000,-49
44.35833,-49
44.36667,-49
44.37500,-49
44.38333,-49
44.39167,-49
44.40000,-49
44.40833,-49
44.41667,-48
44.42500,-48
44.43333,-48
44.44167,-48
44.45000,-48
44.45833,-48
44.46667,-49
44.47500,-49
44.48333,-50
44.49167,-50
44.50000,-50
44.50833,-50
44.51667,-50
44.52500,-50
44.53333,-49
44.54167,-49
44.55000,-50
44.55833,-49
44.56667,-49
44.57500,-49
44.58333,-49
44.59167,-48
44.60000,-48
44.60833,-48
44.61667,-48
44.62500,-49
44.63333,-49
44.64167,-49
44.65000,-49
44.65833,-49
44.66667,-49
44.67500,-50
44.68333,-49
44.69167,-49
44.70000,-49
44.70833,-49
44.71667,-49
44.72500,-50
44.73333,-50
44.74167,-49
44.75000,-50
44.75833,-50
44.76667,-50
44.77500,-50
44.78333,-50
44.79167,-50
44.80000,-49
44.80833,-49
44.81667,-49
44.82500,-49
44.83333,-49
44.84167,-50
44.85000,-49
44.85833,-49
44.86667,-49
44.87500,-49
44.88333,-49
44.89167,-50
44.90000,-50
44.90833,-49
44.91667,-49
44.92500,-49
44.93333,-49
44.94167,-49
44.95000,-49
44.95833,-50
44.96667,-50
44.97500,-50
44.98333,-50
44.99167,-50
45.00000,-50
45.00833,-50
45.01667,-50
45.02500,-50
45.03333,-50
45.04167,-50
45.05000,-50
45.05833,-50
45.06667,-49
45.07500,-49
45.08333,-49
45.09167,-49
45.10000,-49
45.10833,-48
45.11667,-48
45.12500,-48
45.13333,-48
45.14167,-48
45.15000,-48
45.15833,-49
45.16667,-49
45.17500,-48
45.18333,-48
45.19167,-48
45.20000,-49
45.20833,-49
45.21667,-49
45.22500,-49
45.23333,-49
45.24167,-49
45.25000,-49
45.25833,-49
45.26667,-48
45.27500,-48
45.28333,-48
45.29167,-47
45.30000,-47
45.30833,-47
45.31667,-47
45.32500,-48
45.33333,-48
45.34167,-48
45.35000,-48
45.35833,-48
45.36667,-48
45.37500,-48
45.38333,-48
45.39167,-48
45.40000,-48
45.40833,-48
45.41667,-48
45.42500,-49
45.43333,-49
45.44167,-49
45.45000,-48
45.45833,-48
45.46667,-48
45.47500,-48
45.48333,-48
45.49167,-48
45.50000,-48
45.50833,-48
45.51667,-48
45.52500,-48
45.53333,-48
45.54167,-48
45.55000,-47
45.55833,-47
45.56667,-47
45.57500,-48
45.58333,-47
45.59167,-47
45.60000,-47
45.60833,-47
45.61667,-48
45.62500,-48
45.63333,-49
45.64167,-49
45.65000,-49
45.65833,-49
45.66667,-49
45.67500,-49
45.68333,-49
45.69167,-48
45.70000,-48
45.70833,-48
45.71667,-48
45.72500,-48
45.73333,-48
45.74167,-48
45.75000,-48
45.75833,-48
45.76667,-48
45.77500,-48
45.78333,-48
45.79167,-48
45.80000,-48
45.80833,-48
45.81667,-48
45.82500,-48
45.83333,-48
45.84167,-47
45.85000,-47
45.85833,-48
45.86667,-48
45.87500,-48
45.88333,-48
45.89167,-48
45.90000,-48
45.90833,-47
45.91667,-48
45.92500,-48
45.93333,-48
45.94167,-48
45.95000,-48
45.95833,-48
45.96667,-48
45.97500,-47
45.98333,-47
45.99167,-47
46.00000,-47
46.00833,-47
46.01667,-47
46.02500,-47
46.03333,-47
46.04167,-47
46.05000,-47
46.05833,-47
46.06667,-47
46.07500,-47
46.08333,-47
46.09167,-47
46.10000,-47
46.10833,-48
46.11667,-48
46.12500,-48
46.13333,-48
46.14167,-48
46.15000,-47
46.15833,-47
46.16667,-47
46.17500,-47
46.18333,-47
46.19167,-47
46.20000,-47
46.20833,-47
46.21667,-47
46.22500,-47
46.23333,-47
46.24167,-47
46.25000,-47
46.25833,-47
46.26667,-47
46.27500,-47
46.28333,-47
46.29167,-47
46.30000,-47
46.30833,-47
46.31667,-47
46.32500,-47
46.33333,-47
46.34167,-47
46.35000,-47
46.35833,-47
46.36667,-47
46.37500,-48
46.38333,-48
46.39167,-48
46.40000,-48
46.40833,-48
46.41667,-47
46.42500,-47
46.43333,-47
46.44167,-47
46.45000,-47
46.45833,-47
46.46667,-47
46.47500,-47
46.48333,-47
46.49167,-47
46.50000,-47
46.50833,-47
46.51667,-48
46.52500,-48
46.53333,-48
46.54167,-49
46.55000,-48
46.55833,-48
46.56667,-48
46.57500,-48
46.58333,-47
46.59167,-47
46.60000,-48
46.60833,-48
46.61667,-48
46.62500,-48
46.63333,-48
46.64167,-48
46.65000,-48
46.65833,-48
46.66667,-48
46.67500,-48
46.68333,-47
46.69167,-47
46.70000,-47
46.70833,-47
46.71667,-47
46.72500,-47
46.73333,-48
46.74167,-48
46.75000,-47
46.75833,-47
46.76667,-47
46.77500,-47
46.78333,-47
46.79167,-47
46.80000,-47
46.80833,-47
46.81667,-47
46.82500,-47
46.83333,-47
46.84167,-47
46.85000,-47
46.85833,-47
46.86667,-48
46.87500,-48
46.88333,-48
46.89167,-48
46.90000,-48
46.90833,-48
46.91667,-48
46.92500,-49
46.93333,-49
46.94167,-49
46.95000,-49
46.95833,-48
46.96667,-49
46.97500,-49
46.98333,-49
46.99167,-49
47.00000,-49
47.00833,-48
47.01667,-49
47.02500,-49
47.03333,-49
47.04167,-49
47.05000,-49
47.05833,-49
47.06667,-49
47.07500,-49
47.08333,-49
47.09167,-48
47.10000,-48
47.10833,-48
47.11667,-48
47.12500,-48
47.13333,-48
47.14167,-48
47.15000,-48
47.15833,-48
47.16667,-49
47.17500,-49
47.18333,-50
47.19167,-49
47.20000,-50
47.20833,-49
47.21667,-49
47.22500,-49
47.23333,-49
47.24167,-49
47.25000,-49
47.25833,-49
47.26667,-49
47.27500,-49
47.28333,-49
47.29167,-49
47.30000,-49
47.30833,-49
47.31667,-49
47.32500,-49
47.33333,-49
47.34167,-49
47.35000,-49
47.35833,-49
47.36667,-49
47.37500,-48
47.38333,-48
47.39167,-48
47.40000,-48
47.40833,-48
47.41667,-48
47.42500,-48
47.43333,-48
47.44167,-48
47.45000,-48
47.45833,-47
47.46667,-47
47.47500,-48
47.48333,-48
47.49167,-48
47.50000,-48
47.50833,-49
47.51667,-49
47.52500,-49
47.53333,-49
47.54167,-48
47.55000,-48
47.55833,-48
47.56667,-48
47.57500,-48
47.58333,-48
47.59167,-48
47.60000,-48
47.60833,-48
47.61667,-48
47.62500,-48
47.63333,-48
47.64167,-48
47.65000,-49
47.65833,-49
47.66667,-49
47.67500,-49
47.68333,-49
47.69167,-49
47.70000,-49
47.70833,-48
47.71667,-48
47.72500,-48
47.73333,-48
47.74167,-49
47.75000,-49
47.75833,-49
47.76667,-49
47.77500,-49
47.78333,-49
47.79167,-49
47.80000,-50
47.80833,-50
47.81667,-50
47.82500,-50
47.83333,-50
47.84167,-49
47.85000,-49
47.85833,-49
47.86667,-50
47.87500,-50
47.88333,-50
47.89167,-50
47.90000,-50
47.90833,-50
47.91667,-50
47.92500,-50
47.93333,-50
47.94167,-50
47.95000,-50
47.95833,-50
47.96667,-50
47.97500,-50
47.98333,-50
47.99167,-50
48.00000,-50
48.00833,-50
48.01667,-50
48.02500,-50
48.03333,-50
48.04167,-50
48.05000,-50
48.05833,-50
48.06667,-50
48.07500,-50
48.08333,-50
48.09167,-50
48.10000,-50
48.10833,-50
48.11667,-50
48.12500,-50
48.13333,-50
48.14167,-50
48.15000,-50
48.15833,-50
48.16667,-50
48.17500,-50
48.18333,-50
48.19167,-50
48.20000,-50
48.20833,-50
48.21667,-50
48.22500,-50
48.23333,-50
48.24167,-50
48.25000,-50
48.25833,-50
48.26667,-51
48.27500,-51
48.28333,-51
48.29167,-51
48.30000,-51
48.30833,-51
48.31667,-51
48.32500,-51
48.33333,-51
48.34167,-51
48.35000,-51
48.35833,-51
48.36667,-52
48.37500,-52
48.38333,-52
48.39167,-52
48.40000,-52
48.40833,-52
48.41667,-52
48.42500,-52
48.43333,-52
48.44167,-52
48.45000,-52
48.45833,-51
48.46667,-52
48.47500,-52
48.48333,-52
48.49167,-52
48.50000,-52
48.50833,-52
48.51667,-52
48.52500,-52
48.53333,-53
48.54167,-52
48.55000,-52
48.55833,-52
48.56667,-52
48.57500,-52
48.58333,-52
48.59167,-52
48.60000,-52
48.60833,-52
48.61667,-52
48.62500,-52
48.63333,-52
48.64167,-52
48.65000,-52
48.65833,-52
48.66667,-53
48.67500,-52
48.68333,-52
48.69167,-52
48.70000,-52
48.70833,-53
48.71667,-53
48.72500,-53
48.73333,-53
48.74167,-53
48.75000,-53
48.75833,-53
48.76667,-53
48.77500,-53
48.78333,-53
48.79167,-52
48.80000,-52
48.80833,-52
48.81667,-52
48.82500,-53
48.83333,-53
48.84167,-53
48.85000,-53
48.85833,-53
48.86667,-53
48.87500,-53
48.88333,-53
48.89167,-54
48.90000,-54
48.90833,-54
48.91667,-53
48.92500,-53
48.93333,-53
48.94167,-53
48.95000,-53
48.95833,-53
48.96667,-53
48.97500,-53
48.98333,-53
48.99167,-53
49.00000,-53
49.00833,-53
49.01667,-53
49.02500,-53
49.03333,-53
49.04167,-52
49.05000,-52
49.05833,-52
49.06667,-52
49.07500,-53
49.08333,-53
49.09167,-53
49.10000,-53
49.10833,-54
49.11667,-54
49.12500,-54
49.13333,-54
49.14167,-53
49.15000,-53
49.15833,-53
49.16667,-53
49.17500,-54
49.18333,-54
49.19167,-54
49.20000,-54
49.20833,-54
49.21667,-54
49.22500,-54
49.23333,-54
49.24167,-54
49.25000,-54
49.25833,-54
49.26667,-54
49.27500,-54
49.28333,-54
49.29167,-54
49.30000,-54
49.30833,-55
49.31667,-54
49.32500,-54
49.33333,-55
49.34167,-55
49.35000,-55
49.35833,-55
49.36667,-55
49.37500,-55
49.38333,-55
49.39167,-55
49.40000,-55
49.40833,-55
49.41667,-55
49.42500,-55
49.43333,-55
49.44167,-56
49.45000,-56
49.45833,-56
49.46667,-56
49.47500,-55
49.48333,-55
49.49167,-55
49.50000,-55
49.50833,-55
49.51667,-54
49.52500,-54
49.53333,-54
49.54167,-54
49.55000,-54
49.55833,-54
49.56667,-54
49.57500,-54
49.58333,-54
49.59167,-54
49.60000,-55
49.60833,-55
49.61667,-55
49.62500,-54
49.63333,-54
49.64167,-54
49.65000,-54
49.65833,-54
49.66667,-54
49.67500,-55
49.68333,-55
49.69167,-55
49.70000,-55
49.70833,-55
49.71667,-55
49.72500,-55
49.73333,-55
49.74167,-55
49.75000,-55
49.75833,-55
49.76667,-55
49.77500,-55
49.78333,-55
49.79167,-55
49.80000,-55
49.80833,-56
49.81667,-56
49.82500,-56
49.83333,-56
49.84167,-56
49.85000,-56
49.85833,-56
49.86667,-56
49.87500,-55
49.88333,-55
49.89167,-55
49.90000,-55
49.90833,-55
49.91667,-55
49.92500,-54
49.93333,-54
49.94167,-54
49.95000,-53
49.95833,-53
49.96667,-53
49.97500,-53
49.98333,-52
49.99167,-52
50.00000,-53

