[Header]
Application Name,LabSolutions
Version,5.97 SP1
Data File Name,C:\Users\cremerlab\Desktop\Richa\Oct_18th_2022_yield_expt\Oct 18th 2022 yield expt_10182022_001_030.lcd
Output Date,10/19/2022
Output Time,6:01:05 PM

[File Information]
Type,Data File
Generated,10/19/2022 5:10:46 PM
Generated by,System Administrator
Modified,10/19/2022 6:01:05 PM
Modified by,System Administrator

[Sample Information]
Operator Name,System Administrator
Acquired,10/19/2022 5:11:04 PM
Sample Type,0:Unknown
Level,0
Sample Name,101822_BT_Trp_1
Sample ID,001
ISTD Amount1,1
ISTD Amount2,1
ISTD Amount3,1
ISTD Amount4,1
ISTD Amount5,1
ISTD Amount6,1
ISTD Amount7,1
ISTD Amount8,1
ISTD Amount9,1
ISTD Amount10,1
ISTD Amount11,1
ISTD Amount12,1
ISTD Amount13,1
ISTD Amount14,1
ISTD Amount15,1
ISTD Amount16,1
ISTD Amount17,1
ISTD Amount18,1
ISTD Amount19,1
ISTD Amount20,1
ISTD Amount21,1
ISTD Amount22,1
ISTD Amount23,1
ISTD Amount24,1
ISTD Amount25,1
ISTD Amount26,1
ISTD Amount27,1
ISTD Amount28,1
ISTD Amount29,1
ISTD Amount30,1
ISTD Amount31,1
ISTD Amount32,1
Sample Amount,1
Dilution Factor,1
Vial#,29
Injection Volume,20

[Original Files]
Data File,C:\Users\cremerlab\Desktop\Richa\Oct_18th_2022_yield_expt\Oct 18th 2022 yield expt_10182022_001_030.lcd
Method File,C:\Users\cremerlab\Desktop\Richa\acetate_excretion.lcm
Batch File,C:\Users\cremerlab\Desktop\Richa\Oct_18th_2022_yield_expt\Oct 18th 2022 yield expt.lcb
Report Format File,c:\LabSolutions\System\DEFAULT.lsr

[File Description]


[Configuration]
Instrument Name,HPLC-PC-Instrument1
Instrument #,1
Line #,1
# of Detectors,2
Detector ID,Detector A,Detector B
Detector Name,Detector A,Detector B
# of Channels,1,1

[Peak Table(Detector A)]
# of Peaks,0

[Peak Table(Detector B)]
# of Peaks,12
Peak#,R.Time,I.Time,F.Time,Area,Height,A/H,Conc.,Mark,ID#,Name,k',Plate #,Plate Ht.,Tailing,Resolution,Sep.Factor,Area Ratio,Height Ratio,Conc. %,Norm Conc.
1,10.483,10.275,10.517,1477,206,7.153,0.000,   ,,,0.000,5193,28.883,0.000,0.000,0.000,0,0,0.000,0.000
2,11.037,10.517,12.392,2392077,120860,19.792,0.000, V ,,,0.053,7429,20.191,0.972,1.013,0.000,0,0,0.000,0.000
3,14.374,12.675,15.208,3750254,79344,47.266,0.000,   ,,,0.371,2458,61.024,0.654,3.991,7.021,0,0,0.000,0.000
4,15.784,15.208,17.175,1575562,53710,29.335,0.000, V ,,,0.506,6830,21.961,1.147,1.466,1.362,0,0,0.000,0.000
5,17.885,17.425,18.458,8577,285,30.083,0.000,   ,,,0.706,7586,19.773,1.054,2.651,1.396,0,0,0.000,0.000
6,19.071,18.475,19.750,11688,297,39.367,0.000,   ,,,0.819,4936,30.387,1.048,1.244,1.160,0,0,0.000,0.000
7,20.307,19.792,20.817,14622,492,29.739,0.000,   ,,,0.937,10450,14.354,1.006,1.314,1.144,0,0,0.000,0.000
8,21.913,21.350,22.600,50176,1473,34.053,0.000,   ,,,1.090,9381,15.990,1.063,1.890,1.163,0,0,0.000,0.000
9,23.174,22.658,24.283,8512,192,44.295,0.000,   ,,,1.211,7269,20.637,1.563,1.267,1.110,0,0,0.000,0.000
10,25.095,24.317,26.375,159469,3854,41.379,0.000,   ,,,1.394,8873,16.905,1.151,1.784,1.151,0,0,0.000,0.000
11,29.200,28.333,30.292,134075,2869,46.735,0.000,   ,,,1.785,9137,16.418,1.073,3.589,1.281,0,0,0.000,0.000
12,32.412,31.667,32.958,8457,203,41.653,0.000,   ,,,2.092,13389,11.203,0.880,2.742,1.172,0,0,0.000,0.000

[LC Chromatogram(Detector B-Ch1)]
Interval(msec),500
# of Points,6001
Start Time(min),0.000
End Time(min),50.000
Intensity Units,mV
Intensity Multiplier,0.001
R.Time (min),Intensity
0.00000,-18
0.00833,-18
0.01667,-5
0.02500,-0
0.03333,-1
0.04167,-1
0.05000,-1
0.05833,-1
0.06667,-2
0.07500,-2
0.08333,-2
0.09167,-2
0.10000,-2
0.10833,-2
0.11667,-3
0.12500,-3
0.13333,-3
0.14167,-3
0.15000,-3
0.15833,-3
0.16667,-3
0.17500,-4
0.18333,-3
0.19167,-4
0.20000,-4
0.20833,-4
0.21667,-4
0.22500,-5
0.23333,-5
0.24167,-5
0.25000,-5
0.25833,-5
0.26667,-6
0.27500,-6
0.28333,-7
0.29167,-7
0.30000,-7
0.30833,-8
0.31667,-8
0.32500,-8
0.33333,-8
0.34167,-8
0.35000,-8
0.35833,-8
0.36667,-8
0.37500,-9
0.38333,-9
0.39167,-8
0.40000,-8
0.40833,-8
0.41667,-8
0.42500,-8
0.43333,-8
0.44167,-8
0.45000,-8
0.45833,-7
0.46667,-7
0.47500,-8
0.48333,-8
0.49167,-8
0.50000,-8
0.50833,-8
0.51667,-8
0.52500,-8
0.53333,-8
0.54167,-7
0.55000,-7
0.55833,-7
0.56667,-8
0.57500,-8
0.58333,-8
0.59167,-8
0.60000,-8
0.60833,-8
0.61667,-8
0.62500,-8
0.63333,-7
0.64167,-7
0.65000,-7
0.65833,-7
0.66667,-6
0.67500,-6
0.68333,-6
0.69167,-6
0.70000,-6
0.70833,-7
0.71667,-7
0.72500,-7
0.73333,-7
0.74167,-7
0.75000,-7
0.75833,-6
0.76667,-6
0.77500,-5
0.78333,-5
0.79167,-5
0.80000,-5
0.80833,-4
0.81667,-4
0.82500,-4
0.83333,-4
0.84167,-4
0.85000,-3
0.85833,-3
0.86667,-3
0.87500,-3
0.88333,-3
0.89167,-3
0.90000,-3
0.90833,-3
0.91667,-3
0.92500,-3
0.93333,-3
0.94167,-3
0.95000,-3
0.95833,-2
0.96667,-2
0.97500,-2
0.98333,-1
0.99167,-1
1.00000,-0
1.00833,0
1.01667,1
1.02500,1
1.03333,1
1.04167,2
1.05000,2
1.05833,2
1.06667,2
1.07500,2
1.08333,2
1.09167,2
1.10000,2
1.10833,3
1.11667,3
1.12500,3
1.13333,3
1.14167,3
1.15000,3
1.15833,3
1.16667,4
1.17500,4
1.18333,4
1.19167,4
1.20000,4
1.20833,4
1.21667,4
1.22500,4
1.23333,4
1.24167,3
1.25000,4
1.25833,4
1.26667,4
1.27500,4
1.28333,4
1.29167,4
1.30000,4
1.30833,4
1.31667,4
1.32500,5
1.33333,5
1.34167,5
1.35000,6
1.35833,6
1.36667,6
1.37500,6
1.38333,6
1.39167,6
1.40000,5
1.40833,5
1.41667,5
1.42500,5
1.43333,5
1.44167,5
1.45000,5
1.45833,5
1.46667,6
1.47500,6
1.48333,6
1.49167,6
1.50000,6
1.50833,7
1.51667,7
1.52500,6
1.53333,6
1.54167,6
1.55000,6
1.55833,6
1.56667,6
1.57500,6
1.58333,6
1.59167,6
1.60000,7
1.60833,7
1.61667,7
1.62500,7
1.63333,7
1.64167,7
1.65000,7
1.65833,7
1.66667,7
1.67500,7
1.68333,7
1.69167,6
1.70000,6
1.70833,7
1.71667,7
1.72500,7
1.73333,7
1.74167,7
1.75000,7
1.75833,6
1.76667,6
1.77500,6
1.78333,6
1.79167,7
1.80000,7
1.80833,7
1.81667,6
1.82500,6
1.83333,6
1.84167,6
1.85000,6
1.85833,5
1.86667,5
1.87500,5
1.88333,5
1.89167,5
1.90000,4
1.90833,4
1.91667,3
1.92500,3
1.93333,3
1.94167,3
1.95000,3
1.95833,4
1.96667,4
1.97500,4
1.98333,4
1.99167,4
2.00000,3
2.00833,3
2.01667,2
2.02500,2
2.03333,2
2.04167,2
2.05000,2
2.05833,2
2.06667,1
2.07500,1
2.08333,1
2.09167,1
2.10000,1
2.10833,1
2.11667,1
2.12500,1
2.13333,1
2.14167,0
2.15000,0
2.15833,-0
2.16667,-0
2.17500,-1
2.18333,-1
2.19167,-1
2.20000,-2
2.20833,-2
2.21667,-2
2.22500,-2
2.23333,-1
2.24167,-1
2.25000,-2
2.25833,-2
2.26667,-3
2.27500,-3
2.28333,-4
2.29167,-4
2.30000,-4
2.30833,-4
2.31667,-4
2.32500,-4
2.33333,-4
2.34167,-5
2.35000,-5
2.35833,-5
2.36667,-6
2.37500,-6
2.38333,-6
2.39167,-6
2.40000,-6
2.40833,-6
2.41667,-6
2.42500,-6
2.43333,-6
2.44167,-6
2.45000,-6
2.45833,-6
2.46667,-7
2.47500,-7
2.48333,-8
2.49167,-8
2.50000,-8
2.50833,-8
2.51667,-8
2.52500,-8
2.53333,-8
2.54167,-8
2.55000,-9
2.55833,-9
2.56667,-9
2.57500,-10
2.58333,-10
2.59167,-10
2.60000,-10
2.60833,-10
2.61667,-10
2.62500,-10
2.63333,-10
2.64167,-11
2.65000,-11
2.65833,-11
2.66667,-11
2.67500,-11
2.68333,-11
2.69167,-11
2.70000,-11
2.70833,-11
2.71667,-11
2.72500,-11
2.73333,-11
2.74167,-11
2.75000,-11
2.75833,-11
2.76667,-11
2.77500,-11
2.78333,-11
2.79167,-11
2.80000,-11
2.80833,-11
2.81667,-11
2.82500,-11
2.83333,-11
2.84167,-11
2.85000,-11
2.85833,-11
2.86667,-11
2.87500,-11
2.88333,-11
2.89167,-11
2.90000,-12
2.90833,-12
2.91667,-12
2.92500,-12
2.93333,-12
2.94167,-12
2.95000,-11
2.95833,-11
2.96667,-12
2.97500,-12
2.98333,-11
2.99167,-11
3.00000,-12
3.00833,-12
3.01667,-12
3.02500,-12
3.03333,-12
3.04167,-11
3.05000,-11
3.05833,-11
3.06667,-11
3.07500,-11
3.08333,-12
3.09167,-11
3.10000,-11
3.10833,-11
3.11667,-11
3.12500,-11
3.13333,-11
3.14167,-11
3.15000,-11
3.15833,-10
3.16667,-10
3.17500,-9
3.18333,-9
3.19167,-9
3.20000,-9
3.20833,-9
3.21667,-9
3.22500,-10
3.23333,-10
3.24167,-10
3.25000,-9
3.25833,-9
3.26667,-9
3.27500,-9
3.28333,-10
3.29167,-10
3.30000,-10
3.30833,-9
3.31667,-9
3.32500,-9
3.33333,-9
3.34167,-9
3.35000,-9
3.35833,-9
3.36667,-8
3.37500,-7
3.38333,-7
3.39167,-6
3.40000,-6
3.40833,-5
3.41667,-5
3.42500,-5
3.43333,-5
3.44167,-5
3.45000,-5
3.45833,-5
3.46667,-5
3.47500,-5
3.48333,-4
3.49167,-4
3.50000,-4
3.50833,-4
3.51667,-3
3.52500,-3
3.53333,-3
3.54167,-2
3.55000,-2
3.55833,-2
3.56667,-1
3.57500,-1
3.58333,-1
3.59167,-1
3.60000,-1
3.60833,-0
3.61667,0
3.62500,1
3.63333,1
3.64167,1
3.65000,1
3.65833,2
3.66667,2
3.67500,2
3.68333,3
3.69167,3
3.70000,3
3.70833,4
3.71667,4
3.72500,4
3.73333,5
3.74167,5
3.75000,6
3.75833,6
3.76667,7
3.77500,7
3.78333,8
3.79167,8
3.80000,8
3.80833,8
3.81667,9
3.82500,10
3.83333,10
3.84167,11
3.85000,11
3.85833,12
3.86667,12
3.87500,13
3.88333,14
3.89167,14
3.90000,15
3.90833,16
3.91667,16
3.92500,17
3.93333,17
3.94167,18
3.95000,18
3.95833,19
3.96667,19
3.97500,19
3.98333,20
3.99167,21
4.00000,21
4.00833,22
4.01667,22
4.02500,23
4.03333,24
4.04167,25
4.05000,25
4.05833,26
4.06667,26
4.07500,27
4.08333,28
4.09167,28
4.10000,29
4.10833,29
4.11667,29
4.12500,30
4.13333,30
4.14167,31
4.15000,32
4.15833,33
4.16667,33
4.17500,34
4.18333,34
4.19167,35
4.20000,36
4.20833,37
4.21667,38
4.22500,39
4.23333,40
4.24167,41
4.25000,41
4.25833,41
4.26667,42
4.27500,42
4.28333,43
4.29167,43
4.30000,44
4.30833,45
4.31667,46
4.32500,47
4.33333,48
4.34167,48
4.35000,49
4.35833,49
4.36667,49
4.37500,50
4.38333,50
4.39167,50
4.40000,51
4.40833,52
4.41667,52
4.42500,52
4.43333,53
4.44167,54
4.45000,54
4.45833,55
4.46667,56
4.47500,56
4.48333,57
4.49167,57
4.50000,58
4.50833,58
4.51667,58
4.52500,58
4.53333,58
4.54167,58
4.55000,58
4.55833,59
4.56667,59
4.57500,59
4.58333,59
4.59167,60
4.60000,60
4.60833,61
4.61667,61
4.62500,62
4.63333,62
4.64167,63
4.65000,63
4.65833,63
4.66667,63
4.67500,63
4.68333,63
4.69167,63
4.70000,63
4.70833,64
4.71667,63
4.72500,63
4.73333,63
4.74167,63
4.75000,63
4.75833,63
4.76667,63
4.77500,63
4.78333,63
4.79167,63
4.80000,63
4.80833,63
4.81667,62
4.82500,62
4.83333,62
4.84167,62
4.85000,62
4.85833,61
4.86667,61
4.87500,60
4.88333,60
4.89167,60
4.90000,60
4.90833,60
4.91667,60
4.92500,60
4.93333,60
4.94167,59
4.95000,59
4.95833,58
4.96667,58
4.97500,58
4.98333,57
4.99167,57
5.00000,57
5.00833,57
5.01667,57
5.02500,56
5.03333,56
5.04167,55
5.05000,55
5.05833,54
5.06667,54
5.07500,53
5.08333,53
5.09167,53
5.10000,53
5.10833,52
5.11667,52
5.12500,51
5.13333,51
5.14167,50
5.15000,50
5.15833,50
5.16667,49
5.17500,48
5.18333,48
5.19167,47
5.20000,47
5.20833,47
5.21667,46
5.22500,45
5.23333,44
5.24167,44
5.25000,43
5.25833,43
5.26667,42
5.27500,41
5.28333,41
5.29167,40
5.30000,39
5.30833,39
5.31667,38
5.32500,37
5.33333,37
5.34167,36
5.35000,36
5.35833,35
5.36667,35
5.37500,34
5.38333,34
5.39167,33
5.40000,32
5.40833,31
5.41667,30
5.42500,29
5.43333,28
5.44167,28
5.45000,27
5.45833,27
5.46667,26
5.47500,25
5.48333,24
5.49167,23
5.50000,22
5.50833,21
5.51667,20
5.52500,19
5.53333,19
5.54167,18
5.55000,17
5.55833,16
5.56667,15
5.57500,14
5.58333,14
5.59167,13
5.60000,12
5.60833,11
5.61667,10
5.62500,9
5.63333,8
5.64167,7
5.65000,6
5.65833,6
5.66667,5
5.67500,4
5.68333,4
5.69167,3
5.70000,2
5.70833,2
5.71667,1
5.72500,0
5.73333,-1
5.74167,-2
5.75000,-3
5.75833,-4
5.76667,-5
5.77500,-6
5.78333,-6
5.79167,-7
5.80000,-8
5.80833,-8
5.81667,-9
5.82500,-9
5.83333,-10
5.84167,-11
5.85000,-11
5.85833,-12
5.86667,-13
5.87500,-14
5.88333,-14
5.89167,-14
5.90000,-15
5.90833,-15
5.91667,-16
5.92500,-17
5.93333,-18
5.94167,-18
5.95000,-19
5.95833,-20
5.96667,-21
5.97500,-21
5.98333,-22
5.99167,-22
6.00000,-23
6.00833,-23
6.01667,-24
6.02500,-24
6.03333,-24
6.04167,-25
6.05000,-25
6.05833,-26
6.06667,-26
6.07500,-26
6.08333,-27
6.09167,-27
6.10000,-28
6.10833,-28
6.11667,-28
6.12500,-29
6.13333,-29
6.14167,-30
6.15000,-31
6.15833,-32
6.16667,-32
6.17500,-32
6.18333,-32
6.19167,-33
6.20000,-33
6.20833,-34
6.21667,-35
6.22500,-35
6.23333,-35
6.24167,-35
6.25000,-35
6.25833,-35
6.26667,-36
6.27500,-36
6.28333,-37
6.29167,-37
6.30000,-37
6.30833,-37
6.31667,-38
6.32500,-38
6.33333,-38
6.34167,-39
6.35000,-39
6.35833,-39
6.36667,-39
6.37500,-39
6.38333,-39
6.39167,-39
6.40000,-40
6.40833,-40
6.41667,-40
6.42500,-40
6.43333,-41
6.44167,-41
6.45000,-42
6.45833,-42
6.46667,-42
6.47500,-42
6.48333,-42
6.49167,-42
6.50000,-42
6.50833,-42
6.51667,-42
6.52500,-42
6.53333,-42
6.54167,-42
6.55000,-42
6.55833,-42
6.56667,-43
6.57500,-43
6.58333,-43
6.59167,-44
6.60000,-44
6.60833,-44
6.61667,-44
6.62500,-44
6.63333,-44
6.64167,-44
6.65000,-44
6.65833,-44
6.66667,-44
6.67500,-44
6.68333,-44
6.69167,-44
6.70000,-44
6.70833,-44
6.71667,-44
6.72500,-44
6.73333,-44
6.74167,-45
6.75000,-45
6.75833,-45
6.76667,-44
6.77500,-44
6.78333,-44
6.79167,-44
6.80000,-44
6.80833,-44
6.81667,-44
6.82500,-44
6.83333,-44
6.84167,-44
6.85000,-45
6.85833,-45
6.86667,-45
6.87500,-45
6.88333,-45
6.89167,-45
6.90000,-45
6.90833,-45
6.91667,-45
6.92500,-45
6.93333,-45
6.94167,-45
6.95000,-45
6.95833,-45
6.96667,-45
6.97500,-45
6.98333,-45
6.99167,-45
7.00000,-45
7.00833,-45
7.01667,-45
7.02500,-45
7.03333,-45
7.04167,-45
7.05000,-45
7.05833,-45
7.06667,-45
7.07500,-45
7.08333,-45
7.09167,-45
7.10000,-45
7.10833,-45
7.11667,-45
7.12500,-45
7.13333,-46
7.14167,-46
7.15000,-46
7.15833,-45
7.16667,-45
7.17500,-45
7.18333,-45
7.19167,-45
7.20000,-45
7.20833,-45
7.21667,-45
7.22500,-45
7.23333,-45
7.24167,-45
7.25000,-45
7.25833,-45
7.26667,-45
7.27500,-45
7.28333,-45
7.29167,-45
7.30000,-45
7.30833,-45
7.31667,-45
7.32500,-45
7.33333,-45
7.34167,-45
7.35000,-45
7.35833,-45
7.36667,-46
7.37500,-46
7.38333,-46
7.39167,-45
7.40000,-45
7.40833,-45
7.41667,-45
7.42500,-45
7.43333,-45
7.44167,-45
7.45000,-45
7.45833,-45
7.46667,-45
7.47500,-45
7.48333,-46
7.49167,-46
7.50000,-46
7.50833,-46
7.51667,-46
7.52500,-47
7.53333,-47
7.54167,-47
7.55000,-47
7.55833,-47
7.56667,-47
7.57500,-47
7.58333,-47
7.59167,-46
7.60000,-46
7.60833,-46
7.61667,-46
7.62500,-46
7.63333,-46
7.64167,-47
7.65000,-46
7.65833,-46
7.66667,-46
7.67500,-46
7.68333,-45
7.69167,-45
7.70000,-45
7.70833,-45
7.71667,-45
7.72500,-45
7.73333,-45
7.74167,-45
7.75000,-45
7.75833,-45
7.76667,-46
7.77500,-46
7.78333,-46
7.79167,-47
7.80000,-47
7.80833,-47
7.81667,-46
7.82500,-46
7.83333,-46
7.84167,-46
7.85000,-46
7.85833,-46
7.86667,-46
7.87500,-46
7.88333,-46
7.89167,-46
7.90000,-46
7.90833,-46
7.91667,-46
7.92500,-46
7.93333,-46
7.94167,-46
7.95000,-46
7.95833,-46
7.96667,-46
7.97500,-46
7.98333,-46
7.99167,-47
8.00000,-47
8.00833,-47
8.01667,-47
8.02500,-47
8.03333,-47
8.04167,-47
8.05000,-47
8.05833,-47
8.06667,-47
8.07500,-47
8.08333,-47
8.09167,-47
8.10000,-47
8.10833,-47
8.11667,-47
8.12500,-47
8.13333,-47
8.14167,-47
8.15000,-47
8.15833,-46
8.16667,-47
8.17500,-47
8.18333,-47
8.19167,-47
8.20000,-48
8.20833,-48
8.21667,-48
8.22500,-48
8.23333,-48
8.24167,-48
8.25000,-47
8.25833,-47
8.26667,-48
8.27500,-48
8.28333,-48
8.29167,-48
8.30000,-48
8.30833,-48
8.31667,-48
8.32500,-48
8.33333,-48
8.34167,-48
8.35000,-48
8.35833,-48
8.36667,-47
8.37500,-47
8.38333,-47
8.39167,-47
8.40000,-48
8.40833,-48
8.41667,-47
8.42500,-47
8.43333,-47
8.44167,-47
8.45000,-47
8.45833,-47
8.46667,-47
8.47500,-47
8.48333,-47
8.49167,-47
8.50000,-47
8.50833,-47
8.51667,-47
8.52500,-47
8.53333,-47
8.54167,-47
8.55000,-47
8.55833,-47
8.56667,-48
8.57500,-48
8.58333,-48
8.59167,-48
8.60000,-48
8.60833,-48
8.61667,-48
8.62500,-48
8.63333,-47
8.64167,-47
8.65000,-47
8.65833,-47
8.66667,-47
8.67500,-47
8.68333,-47
8.69167,-47
8.70000,-46
8.70833,-46
8.71667,-46
8.72500,-46
8.73333,-46
8.74167,-46
8.75000,-46
8.75833,-47
8.76667,-47
8.77500,-47
8.78333,-46
8.79167,-46
8.80000,-47
8.80833,-46
8.81667,-46
8.82500,-46
8.83333,-47
8.84167,-47
8.85000,-47
8.85833,-47
8.86667,-47
8.87500,-47
8.88333,-47
8.89167,-46
8.90000,-46
8.90833,-46
8.91667,-46
8.92500,-46
8.93333,-46
8.94167,-46
8.95000,-47
8.95833,-47
8.96667,-46
8.97500,-46
8.98333,-46
8.99167,-46
9.00000,-46
9.00833,-46
9.01667,-46
9.02500,-46
9.03333,-46
9.04167,-46
9.05000,-46
9.05833,-46
9.06667,-46
9.07500,-46
9.08333,-46
9.09167,-46
9.10000,-46
9.10833,-46
9.11667,-46
9.12500,-46
9.13333,-46
9.14167,-46
9.15000,-46
9.15833,-47
9.16667,-46
9.17500,-46
9.18333,-46
9.19167,-46
9.20000,-46
9.20833,-47
9.21667,-47
9.22500,-47
9.23333,-47
9.24167,-47
9.25000,-46
9.25833,-46
9.26667,-46
9.27500,-46
9.28333,-46
9.29167,-46
9.30000,-46
9.30833,-46
9.31667,-46
9.32500,-46
9.33333,-46
9.34167,-46
9.35000,-45
9.35833,-45
9.36667,-45
9.37500,-46
9.38333,-45
9.39167,-45
9.40000,-45
9.40833,-45
9.41667,-45
9.42500,-45
9.43333,-45
9.44167,-45
9.45000,-45
9.45833,-45
9.46667,-45
9.47500,-45
9.48333,-45
9.49167,-45
9.50000,-45
9.50833,-45
9.51667,-45
9.52500,-45
9.53333,-45
9.54167,-45
9.55000,-45
9.55833,-45
9.56667,-45
9.57500,-45
9.58333,-45
9.59167,-45
9.60000,-45
9.60833,-45
9.61667,-45
9.62500,-45
9.63333,-45
9.64167,-45
9.65000,-45
9.65833,-45
9.66667,-45
9.67500,-44
9.68333,-44
9.69167,-44
9.70000,-44
9.70833,-44
9.71667,-44
9.72500,-44
9.73333,-44
9.74167,-44
9.75000,-44
9.75833,-45
9.76667,-44
9.77500,-44
9.78333,-44
9.79167,-44
9.80000,-45
9.80833,-45
9.81667,-46
9.82500,-46
9.83333,-45
9.84167,-45
9.85000,-45
9.85833,-45
9.86667,-45
9.87500,-44
9.88333,-44
9.89167,-44
9.90000,-44
9.90833,-44
9.91667,-44
9.92500,-44
9.93333,-44
9.94167,-44
9.95000,-45
9.95833,-45
9.96667,-45
9.97500,-45
9.98333,-44
9.99167,-44
10.00000,-44
10.00833,-44
10.01667,-44
10.02500,-44
10.03333,-44
10.04167,-44
10.05000,-44
10.05833,-43
10.06667,-42
10.07500,-42
10.08333,-41
10.09167,-41
10.10000,-41
10.10833,-40
10.11667,-40
10.12500,-39
10.13333,-39
10.14167,-38
10.15000,-37
10.15833,-37
10.16667,-36
10.17500,-35
10.18333,-34
10.19167,-33
10.20000,-31
10.20833,-30
10.21667,-28
10.22500,-27
10.23333,-26
10.24167,-24
10.25000,-23
10.25833,-21
10.26667,-19
10.27500,-17
10.28333,-14
10.29167,-11
10.30000,-8
10.30833,-3
10.31667,1
10.32500,7
10.33333,14
10.34167,22
10.35000,31
10.35833,41
10.36667,53
10.37500,66
10.38333,80
10.39167,96
10.40000,114
10.40833,132
10.41667,151
10.42500,170
10.43333,188
10.44167,205
10.45000,220
10.45833,233
10.46667,243
10.47500,250
10.48333,254
10.49167,255
10.50000,254
10.50833,252
10.51667,251
10.52500,253
10.53333,262
10.54167,279
10.55000,310
10.55833,359
10.56667,431
10.57500,530
10.58333,663
10.59167,835
10.60000,1053
10.60833,1321
10.61667,1647
10.62500,2037
10.63333,2497
10.64167,3032
10.65000,3648
10.65833,4351
10.66667,5145
10.67500,6036
10.68333,7027
10.69167,8123
10.70000,9328
10.70833,10644
10.71667,12075
10.72500,13623
10.73333,15291
10.74167,17079
10.75000,18989
10.75833,21023
10.76667,23180
10.77500,25461
10.78333,27865
10.79167,30391
10.80000,33039
10.80833,35806
10.81667,38691
10.82500,41690
10.83333,44801
10.84167,48020
10.85000,51343
10.85833,54765
10.86667,58280
10.87500,61882
10.88333,65562
10.89167,69311
10.90000,73119
10.90833,76972
10.91667,80854
10.92500,84749
10.93333,88635
10.94167,92486
10.95000,96275
10.95833,99967
10.96667,103524
10.97500,106902
10.98333,110054
10.99167,112927
11.00000,115463
11.00833,117605
11.01667,119293
11.02500,120469
11.03333,121078
11.04167,121075
11.05000,120423
11.05833,119097
11.06667,117091
11.07500,114413
11.08333,111094
11.09167,107180
11.10000,102737
11.10833,97843
11.11667,92589
11.12500,87073
11.13333,81394
11.14167,75650
11.15000,69933
11.15833,64325
11.16667,58898
11.17500,53708
11.18333,48802
11.19167,44211
11.20000,39955
11.20833,36044
11.21667,32476
11.22500,29243
11.23333,26333
11.24167,23726
11.25000,21402
11.25833,19338
11.26667,17511
11.27500,15898
11.28333,14476
11.29167,13224
11.30000,12123
11.30833,11154
11.31667,10301
11.32500,9549
11.33333,8885
11.34167,8298
11.35000,7776
11.35833,7312
11.36667,6896
11.37500,6524
11.38333,6188
11.39167,5884
11.40000,5607
11.40833,5355
11.41667,5122
11.42500,4907
11.43333,4707
11.44167,4521
11.45000,4346
11.45833,4182
11.46667,4027
11.47500,3880
11.48333,3741
11.49167,3608
11.50000,3481
11.50833,3360
11.51667,3244
11.52500,3133
11.53333,3026
11.54167,2925
11.55000,2827
11.55833,2734
11.56667,2644
11.57500,2558
11.58333,2475
11.59167,2395
11.60000,2319
11.60833,2247
11.61667,2177
11.62500,2110
11.63333,2046
11.64167,1984
11.65000,1925
11.65833,1868
11.66667,1814
11.67500,1762
11.68333,1713
11.69167,1665
11.70000,1619
11.70833,1575
11.71667,1534
11.72500,1493
11.73333,1455
11.74167,1418
11.75000,1383
11.75833,1349
11.76667,1317
11.77500,1286
11.78333,1256
11.79167,1227
11.80000,1200
11.80833,1174
11.81667,1149
11.82500,1126
11.83333,1104
11.84167,1082
11.85000,1062
11.85833,1042
11.86667,1023
11.87500,1005
11.88333,987
11.89167,971
11.90000,955
11.90833,940
11.91667,926
11.92500,912
11.93333,898
11.94167,885
11.95000,873
11.95833,862
11.96667,851
11.97500,841
11.98333,831
11.99167,821
12.00000,812
12.00833,803
12.01667,794
12.02500,785
12.03333,777
12.04167,769
12.05000,762
12.05833,755
12.06667,748
12.07500,741
12.08333,735
12.09167,729
12.10000,723
12.10833,718
12.11667,712
12.12500,706
12.13333,701
12.14167,696
12.15000,691
12.15833,687
12.16667,683
12.17500,679
12.18333,675
12.19167,671
12.20000,668
12.20833,665
12.21667,662
12.22500,659
12.23333,657
12.24167,655
12.25000,653
12.25833,651
12.26667,649
12.27500,648
12.28333,647
12.29167,646
12.30000,644
12.30833,643
12.31667,643
12.32500,642
12.33333,641
12.34167,640
12.35000,640
12.35833,639
12.36667,639
12.37500,638
12.38333,638
12.39167,637
12.40000,637
12.40833,636
12.41667,636
12.42500,636
12.43333,635
12.44167,635
12.45000,634
12.45833,634
12.46667,633
12.47500,632
12.48333,632
12.49167,631
12.50000,630
12.50833,629
12.51667,628
12.52500,627
12.53333,625
12.54167,623
12.55000,621
12.55833,619
12.56667,617
12.57500,615
12.58333,613
12.59167,611
12.60000,609
12.60833,607
12.61667,605
12.62500,604
12.63333,602
12.64167,601
12.65000,600
12.65833,599
12.66667,598
12.67500,598
12.68333,599
12.69167,600
12.70000,602
12.70833,605
12.71667,609
12.72500,615
12.73333,623
12.74167,632
12.75000,643
12.75833,656
12.76667,672
12.77500,691
12.78333,712
12.79167,736
12.80000,763
12.80833,795
12.81667,829
12.82500,869
12.83333,912
12.84167,960
12.85000,1013
12.85833,1070
12.86667,1133
12.87500,1200
12.88333,1272
12.89167,1351
12.90000,1434
12.90833,1523
12.91667,1618
12.92500,1717
12.93333,1823
12.94167,1934
12.95000,2052
12.95833,2174
12.96667,2303
12.97500,2438
12.98333,2579
12.99167,2726
13.00000,2878
13.00833,3036
13.01667,3200
13.02500,3369
13.03333,3544
13.04167,3725
13.05000,3912
13.05833,4104
13.06667,4301
13.07500,4503
13.08333,4711
13.09167,4924
13.10000,5143
13.10833,5366
13.11667,5594
13.12500,5827
13.13333,6065
13.14167,6307
13.15000,6553
13.15833,6804
13.16667,7059
13.17500,7319
13.18333,7582
13.19167,7850
13.20000,8122
13.20833,8398
13.21667,8677
13.22500,8960
13.23333,9247
13.24167,9537
13.25000,9831
13.25833,10128
13.26667,10429
13.27500,10732
13.28333,11039
13.29167,11349
13.30000,11661
13.30833,11977
13.31667,12295
13.32500,12616
13.33333,12941
13.34167,13269
13.35000,13599
13.35833,13933
13.36667,14269
13.37500,14608
13.38333,14950
13.39167,15294
13.40000,15641
13.40833,15991
13.41667,16344
13.42500,16699
13.43333,17058
13.44167,17419
13.45000,17783
13.45833,18150
13.46667,18520
13.47500,18893
13.48333,19269
13.49167,19647
13.50000,20029
13.50833,20414
13.51667,20801
13.52500,21191
13.53333,21584
13.54167,21981
13.55000,22381
13.55833,22783
13.56667,23189
13.57500,23598
13.58333,24010
13.59167,24426
13.60000,24845
13.60833,25267
13.61667,25693
13.62500,26122
13.63333,26555
13.64167,26991
13.65000,27430
13.65833,27873
13.66667,28319
13.67500,28769
13.68333,29223
13.69167,29680
13.70000,30141
13.70833,30606
13.71667,31074
13.72500,31547
13.73333,32023
13.74167,32503
13.75000,32988
13.75833,33476
13.76667,33968
13.77500,34464
13.78333,34964
13.79167,35468
13.80000,35977
13.80833,36490
13.81667,37007
13.82500,37528
13.83333,38054
13.84167,38584
13.85000,39119
13.85833,39658
13.86667,40202
13.87500,40750
13.88333,41303
13.89167,41860
13.90000,42423
13.90833,42990
13.91667,43562
13.92500,44139
13.93333,44721
13.94167,45307
13.95000,45899
13.95833,46496
13.96667,47098
13.97500,47705
13.98333,48317
13.99167,48935
14.00000,49558
14.00833,50187
14.01667,50821
14.02500,51461
14.03333,52107
14.04167,52758
14.05000,53414
14.05833,54077
14.06667,54745
14.07500,55420
14.08333,56100
14.09167,56787
14.10000,57480
14.10833,58179
14.11667,58884
14.12500,59595
14.13333,60313
14.14167,61038
14.15000,61769
14.15833,62507
14.16667,63252
14.17500,64004
14.18333,64763
14.19167,65529
14.20000,66302
14.20833,67082
14.21667,67870
14.22500,68665
14.23333,69468
14.24167,70276
14.25000,71091
14.25833,71909
14.26667,72728
14.27500,73545
14.28333,74353
14.29167,75148
14.30000,75919
14.30833,76658
14.31667,77353
14.32500,77992
14.33333,78563
14.34167,79052
14.35000,79447
14.35833,79737
14.36667,79911
14.37500,79960
14.38333,79876
14.39167,79655
14.40000,79291
14.40833,78781
14.41667,78122
14.42500,77314
14.43333,76353
14.44167,75239
14.45000,73968
14.45833,72539
14.46667,70951
14.47500,69202
14.48333,67292
14.49167,65224
14.50000,63001
14.50833,60633
14.51667,58130
14.52500,55507
14.53333,52781
14.54167,49976
14.55000,47115
14.55833,44224
14.56667,41330
14.57500,38461
14.58333,35643
14.59167,32901
14.60000,30257
14.60833,27729
14.61667,25334
14.62500,23082
14.63333,20982
14.64167,19036
14.65000,17246
14.65833,15611
14.66667,14124
14.67500,12780
14.68333,11570
14.69167,10486
14.70000,9517
14.70833,8655
14.71667,7890
14.72500,7211
14.73333,6610
14.74167,6079
14.75000,5608
14.75833,5193
14.76667,4825
14.77500,4500
14.78333,4211
14.79167,3955
14.80000,3727
14.80833,3524
14.81667,3341
14.82500,3178
14.83333,3030
14.84167,2897
14.85000,2776
14.85833,2666
14.86667,2566
14.87500,2474
14.88333,2389
14.89167,2311
14.90000,2239
14.90833,2172
14.91667,2109
14.92500,2050
14.93333,1995
14.94167,1943
14.95000,1895
14.95833,1849
14.96667,1806
14.97500,1765
14.98333,1726
14.99167,1689
15.00000,1654
15.00833,1620
15.01667,1588
15.02500,1558
15.03333,1529
15.04167,1502
15.05000,1476
15.05833,1451
15.06667,1428
15.07500,1405
15.08333,1384
15.09167,1364
15.10000,1345
15.10833,1326
15.11667,1309
15.12500,1293
15.13333,1278
15.14167,1264
15.15000,1250
15.15833,1238
15.16667,1227
15.17500,1217
15.18333,1209
15.19167,1203
15.20000,1199
15.20833,1197
15.21667,1198
15.22500,1203
15.23333,1211
15.24167,1225
15.25000,1244
15.25833,1270
15.26667,1304
15.27500,1347
15.28333,1402
15.29167,1470
15.30000,1553
15.30833,1653
15.31667,1773
15.32500,1915
15.33333,2083
15.34167,2279
15.35000,2508
15.35833,2772
15.36667,3074
15.37500,3418
15.38333,3808
15.39167,4248
15.40000,4741
15.40833,5290
15.41667,5898
15.42500,6569
15.43333,7303
15.44167,8105
15.45000,8975
15.45833,9914
15.46667,10922
15.47500,11999
15.48333,13145
15.49167,14356
15.50000,15631
15.50833,16966
15.51667,18358
15.52500,19801
15.53333,21290
15.54167,22818
15.55000,24381
15.55833,25970
15.56667,27578
15.57500,29198
15.58333,30820
15.59167,32438
15.60000,34044
15.60833,35628
15.61667,37185
15.62500,38707
15.63333,40186
15.64167,41616
15.65000,42990
15.65833,44303
15.66667,45550
15.67500,46725
15.68333,47826
15.69167,48848
15.70000,49788
15.70833,50644
15.71667,51414
15.72500,52096
15.73333,52689
15.74167,53191
15.75000,53603
15.75833,53924
15.76667,54153
15.77500,54292
15.78333,54340
15.79167,54298
15.80000,54168
15.80833,53951
15.81667,53647
15.82500,53258
15.83333,52787
15.84167,52235
15.85000,51605
15.85833,50899
15.86667,50120
15.87500,49272
15.88333,48359
15.89167,47383
15.90000,46349
15.90833,45262
15.91667,44126
15.92500,42946
15.93333,41727
15.94167,40475
15.95000,39194
15.95833,37889
15.96667,36566
15.97500,35231
15.98333,33888
15.99167,32542
16.00000,31199
16.00833,29863
16.01667,28539
16.02500,27231
16.03333,25942
16.04167,24678
16.05000,23441
16.05833,22234
16.06667,21061
16.07500,19923
16.08333,18822
16.09167,17761
16.10000,16740
16.10833,15761
16.11667,14824
16.12500,13930
16.13333,13079
16.14167,12271
16.15000,11505
16.15833,10781
16.16667,10098
16.17500,9454
16.18333,8849
16.19167,8283
16.20000,7752
16.20833,7257
16.21667,6795
16.22500,6364
16.23333,5964
16.24167,5594
16.25000,5250
16.25833,4932
16.26667,4638
16.27500,4367
16.28333,4117
16.29167,3887
16.30000,3674
16.30833,3479
16.31667,3300
16.32500,3135
16.33333,2984
16.34167,2846
16.35000,2718
16.35833,2601
16.36667,2494
16.37500,2395
16.38333,2304
16.39167,2220
16.40000,2143
16.40833,2072
16.41667,2006
16.42500,1944
16.43333,1888
16.44167,1835
16.45000,1786
16.45833,1741
16.46667,1699
16.47500,1659
16.48333,1621
16.49167,1585
16.50000,1552
16.50833,1520
16.51667,1490
16.52500,1461
16.53333,1433
16.54167,1405
16.55000,1379
16.55833,1353
16.56667,1328
16.57500,1304
16.58333,1280
16.59167,1257
16.60000,1234
16.60833,1212
16.61667,1191
16.62500,1170
16.63333,1149
16.64167,1128
16.65000,1109
16.65833,1089
16.66667,1070
16.67500,1052
16.68333,1033
16.69167,1016
16.70000,998
16.70833,981
16.71667,965
16.72500,949
16.73333,934
16.74167,918
16.75000,904
16.75833,889
16.76667,875
16.77500,862
16.78333,849
16.79167,837
16.80000,825
16.80833,814
16.81667,804
16.82500,794
16.83333,784
16.84167,775
16.85000,766
16.85833,758
16.86667,750
16.87500,743
16.88333,736
16.89167,729
16.90000,723
16.90833,717
16.91667,711
16.92500,706
16.93333,701
16.94167,697
16.95000,693
16.95833,689
16.96667,685
16.97500,682
16.98333,679
16.99167,676
17.00000,673
17.00833,671
17.01667,669
17.02500,667
17.03333,664
17.04167,662
17.05000,660
17.05833,658
17.06667,656
17.07500,655
17.08333,653
17.09167,652
17.10000,651
17.10833,650
17.11667,649
17.12500,648
17.13333,647
17.14167,646
17.15000,646
17.15833,645
17.16667,645
17.17500,645
17.18333,644
17.19167,644
17.20000,644
17.20833,643
17.21667,643
17.22500,643
17.23333,643
17.24167,643
17.25000,642
17.25833,642
17.26667,642
17.27500,641
17.28333,641
17.29167,641
17.30000,641
17.30833,641
17.31667,641
17.32500,640
17.33333,640
17.34167,639
17.35000,639
17.35833,639
17.36667,640
17.37500,640
17.38333,640
17.39167,640
17.40000,641
17.40833,641
17.41667,642
17.42500,643
17.43333,644
17.44167,646
17.45000,647
17.45833,649
17.46667,651
17.47500,653
17.48333,656
17.49167,658
17.50000,662
17.50833,665
17.51667,668
17.52500,672
17.53333,676
17.54167,680
17.55000,685
17.55833,690
17.56667,695
17.57500,701
17.58333,706
17.59167,711
17.60000,717
17.60833,722
17.61667,728
17.62500,734
17.63333,740
17.64167,747
17.65000,753
17.65833,760
17.66667,766
17.67500,772
17.68333,779
17.69167,785
17.70000,791
17.70833,797
17.71667,803
17.72500,809
17.73333,814
17.74167,819
17.75000,824
17.75833,829
17.76667,834
17.77500,838
17.78333,843
17.79167,847
17.80000,851
17.80833,854
17.81667,857
17.82500,860
17.83333,862
17.84167,865
17.85000,867
17.85833,868
17.86667,869
17.87500,870
17.88333,870
17.89167,870
17.90000,869
17.90833,868
17.91667,867
17.92500,866
17.93333,863
17.94167,861
17.95000,858
17.95833,855
17.96667,851
17.97500,847
17.98333,843
17.99167,838
18.00000,832
18.00833,827
18.01667,821
18.02500,814
18.03333,808
18.04167,801
18.05000,794
18.05833,787
18.06667,780
18.07500,772
18.08333,765
18.09167,757
18.10000,749
18.10833,741
18.11667,732
18.12500,724
18.13333,716
18.14167,707
18.15000,699
18.15833,690
18.16667,682
18.17500,673
18.18333,665
18.19167,657
18.20000,649
18.20833,641
18.21667,633
18.22500,625
18.23333,618
18.24167,610
18.25000,603
18.25833,597
18.26667,590
18.27500,584
18.28333,579
18.29167,573
18.30000,568
18.30833,562
18.31667,557
18.32500,552
18.33333,547
18.34167,543
18.35000,539
18.35833,535
18.36667,531
18.37500,528
18.38333,525
18.39167,523
18.40000,521
18.40833,519
18.41667,517
18.42500,516
18.43333,514
18.44167,514
18.45000,513
18.45833,513
18.46667,513
18.47500,514
18.48333,514
18.49167,516
18.50000,517
18.50833,519
18.51667,520
18.52500,522
18.53333,525
18.54167,527
18.55000,530
18.55833,533
18.56667,536
18.57500,540
18.58333,543
18.59167,547
18.60000,551
18.60833,555
18.61667,558
18.62500,563
18.63333,567
18.64167,572
18.65000,576
18.65833,581
18.66667,586
18.67500,591
18.68333,596
18.69167,601
18.70000,607
18.70833,612
18.71667,618
18.72500,623
18.73333,628
18.74167,634
18.75000,639
18.75833,645
18.76667,650
18.77500,656
18.78333,661
18.79167,666
18.80000,672
18.80833,678
18.81667,683
18.82500,688
18.83333,693
18.84167,698
18.85000,703
18.85833,708
18.86667,713
18.87500,718
18.88333,722
18.89167,727
18.90000,731
18.90833,735
18.91667,738
18.92500,742
18.93333,746
18.94167,749
18.95000,753
18.95833,756
18.96667,758
18.97500,761
18.98333,763
18.99167,765
19.00000,767
19.00833,769
19.01667,771
19.02500,772
19.03333,773
19.04167,774
19.05000,775
19.05833,775
19.06667,775
19.07500,775
19.08333,775
19.09167,775
19.10000,774
19.10833,773
19.11667,771
19.12500,769
19.13333,767
19.14167,765
19.15000,763
19.15833,761
19.16667,758
19.17500,755
19.18333,752
19.19167,749
19.20000,746
19.20833,742
19.21667,738
19.22500,733
19.23333,729
19.24167,724
19.25000,719
19.25833,714
19.26667,709
19.27500,704
19.28333,699
19.29167,694
19.30000,689
19.30833,684
19.31667,678
19.32500,673
19.33333,667
19.34167,661
19.35000,655
19.35833,650
19.36667,644
19.37500,638
19.38333,632
19.39167,625
19.40000,619
19.40833,613
19.41667,607
19.42500,601
19.43333,595
19.44167,589
19.45000,582
19.45833,576
19.46667,570
19.47500,565
19.48333,559
19.49167,553
19.50000,547
19.50833,542
19.51667,536
19.52500,530
19.53333,525
19.54167,519
19.55000,514
19.55833,509
19.56667,504
19.57500,499
19.58333,495
19.59167,490
19.60000,486
19.60833,482
19.61667,478
19.62500,474
19.63333,470
19.64167,466
19.65000,462
19.65833,459
19.66667,456
19.67500,453
19.68333,450
19.69167,448
19.70000,445
19.70833,444
19.71667,442
19.72500,440
19.73333,439
19.74167,439
19.75000,439
19.75833,439
19.76667,439
19.77500,440
19.78333,442
19.79167,444
19.80000,447
19.80833,449
19.81667,453
19.82500,457
19.83333,461
19.84167,466
19.85000,471
19.85833,478
19.86667,484
19.87500,491
19.88333,499
19.89167,508
19.90000,517
19.90833,527
19.91667,537
19.92500,548
19.93333,560
19.94167,572
19.95000,585
19.95833,598
19.96667,611
19.97500,625
19.98333,640
19.99167,655
20.00000,670
20.00833,685
20.01667,701
20.02500,717
20.03333,732
20.04167,748
20.05000,765
20.05833,780
20.06667,796
20.07500,812
20.08333,827
20.09167,843
20.10000,858
20.10833,873
20.11667,888
20.12500,902
20.13333,916
20.14167,929
20.15000,942
20.15833,954
20.16667,966
20.17500,977
20.18333,988
20.19167,998
20.20000,1008
20.20833,1017
20.21667,1025
20.22500,1032
20.23333,1039
20.24167,1045
20.25000,1050
20.25833,1055
20.26667,1060
20.27500,1063
20.28333,1066
20.29167,1068
20.30000,1069
20.30833,1069
20.31667,1068
20.32500,1068
20.33333,1066
20.34167,1063
20.35000,1060
20.35833,1056
20.36667,1052
20.37500,1047
20.38333,1041
20.39167,1035
20.40000,1028
20.40833,1022
20.41667,1014
20.42500,1006
20.43333,997
20.44167,988
20.45000,979
20.45833,970
20.46667,960
20.47500,951
20.48333,941
20.49167,931
20.50000,920
20.50833,909
20.51667,898
20.52500,887
20.53333,877
20.54167,867
20.55000,857
20.55833,847
20.56667,837
20.57500,827
20.58333,818
20.59167,810
20.60000,801
20.60833,793
20.61667,785
20.62500,777
20.63333,770
20.64167,763
20.65000,757
20.65833,751
20.66667,746
20.67500,741
20.68333,737
20.69167,733
20.70000,729
20.70833,726
20.71667,723
20.72500,720
20.73333,718
20.74167,716
20.75000,714
20.75833,713
20.76667,712
20.77500,711
20.78333,711
20.79167,710
20.80000,709
20.80833,709
20.81667,709
20.82500,709
20.83333,709
20.84167,708
20.85000,708
20.85833,707
20.86667,707
20.87500,707
20.88333,707
20.89167,707
20.90000,706
20.90833,706
20.91667,705
20.92500,705
20.93333,704
20.94167,704
20.95000,703
20.95833,703
20.96667,702
20.97500,701
20.98333,700
20.99167,699
21.00000,697
21.00833,696
21.01667,694
21.02500,692
21.03333,690
21.04167,688
21.05000,686
21.05833,683
21.06667,680
21.07500,678
21.08333,675
21.09167,671
21.10000,668
21.10833,664
21.11667,661
21.12500,657
21.13333,653
21.14167,648
21.15000,644
21.15833,640
21.16667,636
21.17500,632
21.18333,627
21.19167,623
21.20000,619
21.20833,615
21.21667,611
21.22500,607
21.23333,603
21.24167,598
21.25000,595
21.25833,591
21.26667,587
21.27500,584
21.28333,580
21.29167,577
21.30000,574
21.30833,572
21.31667,570
21.32500,569
21.33333,567
21.34167,567
21.35000,566
21.35833,567
21.36667,568
21.37500,570
21.38333,573
21.39167,577
21.40000,583
21.40833,589
21.41667,596
21.42500,604
21.43333,614
21.44167,624
21.45000,636
21.45833,649
21.46667,663
21.47500,679
21.48333,697
21.49167,715
21.50000,735
21.50833,757
21.51667,780
21.52500,805
21.53333,831
21.54167,858
21.55000,887
21.55833,916
21.56667,947
21.57500,978
21.58333,1011
21.59167,1044
21.60000,1079
21.60833,1114
21.61667,1149
21.62500,1185
21.63333,1221
21.64167,1257
21.65000,1293
21.65833,1329
21.66667,1364
21.67500,1400
21.68333,1434
21.69167,1468
21.70000,1501
21.70833,1534
21.71667,1566
21.72500,1596
21.73333,1625
21.74167,1654
21.75000,1681
21.75833,1707
21.76667,1731
21.77500,1754
21.78333,1776
21.79167,1796
21.80000,1815
21.80833,1833
21.81667,1850
21.82500,1865
21.83333,1879
21.84167,1891
21.85000,1902
21.85833,1911
21.86667,1920
21.87500,1927
21.88333,1932
21.89167,1936
21.90000,1939
21.90833,1941
21.91667,1941
21.92500,1939
21.93333,1937
21.94167,1932
21.95000,1926
21.95833,1918
21.96667,1909
21.97500,1898
21.98333,1886
21.99167,1872
22.00000,1857
22.00833,1840
22.01667,1822
22.02500,1803
22.03333,1782
22.04167,1759
22.05000,1735
22.05833,1710
22.06667,1684
22.07500,1656
22.08333,1627
22.09167,1597
22.10000,1567
22.10833,1535
22.11667,1502
22.12500,1469
22.13333,1434
22.14167,1400
22.15000,1365
22.15833,1329
22.16667,1294
22.17500,1258
22.18333,1223
22.19167,1187
22.20000,1152
22.20833,1117
22.21667,1082
22.22500,1047
22.23333,1014
22.24167,980
22.25000,948
22.25833,916
22.26667,885
22.27500,854
22.28333,825
22.29167,796
22.30000,768
22.30833,741
22.31667,716
22.32500,691
22.33333,668
22.34167,645
22.35000,624
22.35833,604
22.36667,584
22.37500,566
22.38333,548
22.39167,531
22.40000,515
22.40833,500
22.41667,486
22.42500,473
22.43333,461
22.44167,450
22.45000,439
22.45833,429
22.46667,420
22.47500,411
22.48333,404
22.49167,396
22.50000,390
22.50833,384
22.51667,378
22.52500,372
22.53333,368
22.54167,364
22.55000,360
22.55833,357
22.56667,355
22.57500,352
22.58333,350
22.59167,348
22.60000,346
22.60833,345
22.61667,344
22.62500,344
22.63333,343
22.64167,343
22.65000,343
22.65833,344
22.66667,345
22.67500,346
22.68333,347
22.69167,349
22.70000,351
22.70833,353
22.71667,355
22.72500,358
22.73333,360
22.74167,363
22.75000,366
22.75833,369
22.76667,372
22.77500,376
22.78333,380
22.79167,384
22.80000,387
22.80833,392
22.81667,396
22.82500,400
22.83333,405
22.84167,409
22.85000,413
22.85833,418
22.86667,423
22.87500,427
22.88333,432
22.89167,436
22.90000,441
22.90833,445
22.91667,449
22.92500,454
22.93333,458
22.94167,462
22.95000,467
22.95833,471
22.96667,475
22.97500,479
22.98333,483
22.99167,487
23.00000,490
23.00833,494
23.01667,497
23.02500,500
23.03333,504
23.04167,507
23.05000,510
23.05833,513
23.06667,515
23.07500,518
23.08333,520
23.09167,523
23.10000,525
23.10833,526
23.11667,528
23.12500,530
23.13333,531
23.14167,532
23.15000,533
23.15833,533
23.16667,533
23.17500,533
23.18333,533
23.19167,533
23.20000,533
23.20833,533
23.21667,532
23.22500,532
23.23333,531
23.24167,530
23.25000,528
23.25833,526
23.26667,525
23.27500,523
23.28333,521
23.29167,519
23.30000,517
23.30833,515
23.31667,512
23.32500,510
23.33333,507
23.34167,505
23.35000,502
23.35833,498
23.36667,495
23.37500,492
23.38333,489
23.39167,487
23.40000,484
23.40833,480
23.41667,478
23.42500,475
23.43333,472
23.44167,469
23.45000,465
23.45833,463
23.46667,460
23.47500,457
23.48333,455
23.49167,452
23.50000,449
23.50833,447
23.51667,444
23.52500,442
23.53333,440
23.54167,438
23.55000,435
23.55833,434
23.56667,432
23.57500,430
23.58333,428
23.59167,426
23.60000,424
23.60833,423
23.61667,422
23.62500,420
23.63333,419
23.64167,418
23.65000,417
23.65833,415
23.66667,414
23.67500,413
23.68333,412
23.69167,411
23.70000,410
23.70833,408
23.71667,407
23.72500,406
23.73333,405
23.74167,404
23.75000,403
23.75833,402
23.76667,401
23.77500,400
23.78333,399
23.79167,397
23.80000,396
23.80833,395
23.81667,394
23.82500,393
23.83333,392
23.84167,391
23.85000,390
23.85833,390
23.86667,389
23.87500,388
23.88333,386
23.89167,385
23.90000,384
23.90833,382
23.91667,381
23.92500,380
23.93333,379
23.94167,377
23.95000,376
23.95833,375
23.96667,374
23.97500,373
23.98333,371
23.99167,370
24.00000,369
24.00833,368
24.01667,368
24.02500,367
24.03333,366
24.04167,364
24.05000,363
24.05833,361
24.06667,360
24.07500,359
24.08333,358
24.09167,356
24.10000,354
24.10833,353
24.11667,352
24.12500,351
24.13333,350
24.14167,348
24.15000,347
24.15833,347
24.16667,346
24.17500,345
24.18333,344
24.19167,343
24.20000,342
24.20833,341
24.21667,340
24.22500,340
24.23333,339
24.24167,338
24.25000,338
24.25833,337
24.26667,337
24.27500,336
24.28333,336
24.29167,336
24.30000,336
24.30833,337
24.31667,337
24.32500,338
24.33333,339
24.34167,340
24.35000,341
24.35833,343
24.36667,345
24.37500,348
24.38333,351
24.39167,354
24.40000,358
24.40833,363
24.41667,369
24.42500,375
24.43333,382
24.44167,390
24.45000,399
24.45833,410
24.46667,422
24.47500,435
24.48333,450
24.49167,466
24.50000,484
24.50833,504
24.51667,525
24.52500,549
24.53333,574
24.54167,602
24.55000,632
24.55833,664
24.56667,698
24.57500,735
24.58333,775
24.59167,817
24.60000,862
24.60833,909
24.61667,959
24.62500,1012
24.63333,1066
24.64167,1124
24.65000,1183
24.65833,1245
24.66667,1310
24.67500,1377
24.68333,1446
24.69167,1516
24.70000,1589
24.70833,1663
24.71667,1739
24.72500,1816
24.73333,1894
24.74167,1973
24.75000,2053
24.75833,2133
24.76667,2213
24.77500,2294
24.78333,2374
24.79167,2454
24.80000,2534
24.80833,2612
24.81667,2690
24.82500,2767
24.83333,2843
24.84167,2917
24.85000,2990
24.85833,3061
24.86667,3130
24.87500,3197
24.88333,3262
24.89167,3326
24.90000,3387
24.90833,3445
24.91667,3502
24.92500,3557
24.93333,3609
24.94167,3659
24.95000,3706
24.95833,3751
24.96667,3793
24.97500,3833
24.98333,3870
24.99167,3905
25.00000,3937
25.00833,3967
25.01667,3995
25.02500,4020
25.03333,4042
25.04167,4061
25.05000,4078
25.05833,4092
25.06667,4103
25.07500,4112
25.08333,4117
25.09167,4120
25.10000,4120
25.10833,4116
25.11667,4110
25.12500,4101
25.13333,4089
25.14167,4073
25.15000,4055
25.15833,4033
25.16667,4008
25.17500,3980
25.18333,3949
25.19167,3915
25.20000,3878
25.20833,3838
25.21667,3794
25.22500,3748
25.23333,3699
25.24167,3648
25.25000,3593
25.25833,3536
25.26667,3477
25.27500,3415
25.28333,3351
25.29167,3286
25.30000,3218
25.30833,3149
25.31667,3079
25.32500,3007
25.33333,2935
25.34167,2861
25.35000,2786
25.35833,2711
25.36667,2636
25.37500,2560
25.38333,2485
25.39167,2409
25.40000,2335
25.40833,2261
25.41667,2187
25.42500,2114
25.43333,2042
25.44167,1971
25.45000,1902
25.45833,1834
25.46667,1768
25.47500,1703
25.48333,1640
25.49167,1578
25.50000,1518
25.50833,1460
25.51667,1404
25.52500,1349
25.53333,1296
25.54167,1246
25.55000,1197
25.55833,1150
25.56667,1106
25.57500,1063
25.58333,1021
25.59167,982
25.60000,944
25.60833,908
25.61667,874
25.62500,841
25.63333,810
25.64167,781
25.65000,753
25.65833,727
25.66667,702
25.67500,679
25.68333,657
25.69167,636
25.70000,616
25.70833,597
25.71667,579
25.72500,562
25.73333,546
25.74167,531
25.75000,517
25.75833,503
25.76667,491
25.77500,478
25.78333,467
25.79167,456
25.80000,446
25.80833,436
25.81667,427
25.82500,418
25.83333,409
25.84167,401
25.85000,393
25.85833,386
25.86667,379
25.87500,372
25.88333,365
25.89167,358
25.90000,352
25.90833,346
25.91667,339
25.92500,333
25.93333,327
25.94167,321
25.95000,316
25.95833,310
25.96667,305
25.97500,300
25.98333,295
25.99167,290
26.00000,285
26.00833,280
26.01667,275
26.02500,270
26.03333,265
26.04167,261
26.05000,257
26.05833,252
26.06667,248
26.07500,243
26.08333,239
26.09167,234
26.10000,230
26.10833,226
26.11667,222
26.12500,218
26.13333,215
26.14167,211
26.15000,207
26.15833,204
26.16667,200
26.17500,197
26.18333,194
26.19167,191
26.20000,188
26.20833,185
26.21667,182
26.22500,180
26.23333,177
26.24167,174
26.25000,172
26.25833,170
26.26667,167
26.27500,165
26.28333,164
26.29167,162
26.30000,160
26.30833,158
26.31667,157
26.32500,156
26.33333,154
26.34167,153
26.35000,152
26.35833,151
26.36667,150
26.37500,149
26.38333,148
26.39167,148
26.40000,147
26.40833,146
26.41667,145
26.42500,144
26.43333,143
26.44167,143
26.45000,142
26.45833,142
26.46667,142
26.47500,141
26.48333,141
26.49167,141
26.50000,140
26.50833,140
26.51667,141
26.52500,140
26.53333,140
26.54167,140
26.55000,140
26.55833,140
26.56667,140
26.57500,141
26.58333,141
26.59167,141
26.60000,142
26.60833,142
26.61667,142
26.62500,143
26.63333,143
26.64167,144
26.65000,144
26.65833,144
26.66667,143
26.67500,143
26.68333,143
26.69167,143
26.70000,143
26.70833,144
26.71667,144
26.72500,144
26.73333,144
26.74167,145
26.75000,145
26.75833,146
26.76667,146
26.77500,147
26.78333,147
26.79167,148
26.80000,148
26.80833,148
26.81667,148
26.82500,149
26.83333,149
26.84167,149
26.85000,149
26.85833,149
26.86667,150
26.87500,149
26.88333,149
26.89167,150
26.90000,150
26.90833,151
26.91667,151
26.92500,151
26.93333,151
26.94167,151
26.95000,151
26.95833,151
26.96667,151
26.97500,152
26.98333,152
26.99167,152
27.00000,153
27.00833,153
27.01667,153
27.02500,153
27.03333,154
27.04167,154
27.05000,154
27.05833,154
27.06667,154
27.07500,154
27.08333,154
27.09167,154
27.10000,155
27.10833,154
27.11667,154
27.12500,154
27.13333,155
27.14167,155
27.15000,155
27.15833,155
27.16667,155
27.17500,156
27.18333,156
27.19167,155
27.20000,156
27.20833,156
27.21667,156
27.22500,156
27.23333,156
27.24167,156
27.25000,156
27.25833,156
27.26667,156
27.27500,155
27.28333,155
27.29167,155
27.30000,155
27.30833,155
27.31667,155
27.32500,155
27.33333,154
27.34167,154
27.35000,154
27.35833,154
27.36667,154
27.37500,153
27.38333,153
27.39167,153
27.40000,153
27.40833,152
27.41667,151
27.42500,151
27.43333,150
27.44167,149
27.45000,149
27.45833,149
27.46667,148
27.47500,148
27.48333,147
27.49167,147
27.50000,147
27.50833,146
27.51667,146
27.52500,145
27.53333,145
27.54167,144
27.55000,143
27.55833,142
27.56667,141
27.57500,140
27.58333,140
27.59167,139
27.60000,138
27.60833,137
27.61667,137
27.62500,136
27.63333,135
27.64167,135
27.65000,133
27.65833,132
27.66667,131
27.67500,130
27.68333,129
27.69167,128
27.70000,127
27.70833,126
27.71667,126
27.72500,125
27.73333,125
27.74167,124
27.75000,123
27.75833,123
27.76667,122
27.77500,121
27.78333,120
27.79167,119
27.80000,119
27.80833,118
27.81667,117
27.82500,116
27.83333,115
27.84167,115
27.85000,114
27.85833,113
27.86667,113
27.87500,113
27.88333,113
27.89167,112
27.90000,112
27.90833,112
27.91667,111
27.92500,111
27.93333,111
27.94167,110
27.95000,110
27.95833,110
27.96667,110
27.97500,110
27.98333,110
27.99167,110
28.00000,109
28.00833,109
28.01667,109
28.02500,109
28.03333,109
28.04167,109
28.05000,109
28.05833,109
28.06667,109
28.07500,110
28.08333,110
28.09167,110
28.10000,111
28.10833,111
28.11667,111
28.12500,111
28.13333,111
28.14167,111
28.15000,111
28.15833,112
28.16667,112
28.17500,113
28.18333,113
28.19167,113
28.20000,113
28.20833,113
28.21667,113
28.22500,114
28.23333,114
28.24167,115
28.25000,115
28.25833,116
28.26667,116
28.27500,117
28.28333,117
28.29167,118
28.30000,119
28.30833,119
28.31667,121
28.32500,122
28.33333,123
28.34167,124
28.35000,125
28.35833,127
28.36667,128
28.37500,130
28.38333,133
28.39167,135
28.40000,138
28.40833,141
28.41667,145
28.42500,149
28.43333,153
28.44167,158
28.45000,162
28.45833,168
28.46667,174
28.47500,180
28.48333,187
28.49167,195
28.50000,204
28.50833,214
28.51667,224
28.52500,236
28.53333,248
28.54167,262
28.55000,276
28.55833,292
28.56667,309
28.57500,327
28.58333,346
28.59167,366
28.60000,388
28.60833,411
28.61667,435
28.62500,460
28.63333,488
28.64167,516
28.65000,546
28.65833,578
28.66667,611
28.67500,645
28.68333,681
28.69167,719
28.70000,758
28.70833,799
28.71667,841
28.72500,884
28.73333,929
28.74167,974
28.75000,1021
28.75833,1069
28.76667,1119
28.77500,1170
28.78333,1221
28.79167,1273
28.80000,1326
28.80833,1380
28.81667,1434
28.82500,1488
28.83333,1543
28.84167,1598
28.85000,1653
28.85833,1708
28.86667,1763
28.87500,1817
28.88333,1871
28.89167,1925
28.90000,1978
28.90833,2031
28.91667,2083
28.92500,2134
28.93333,2185
28.94167,2233
28.95000,2281
28.95833,2328
28.96667,2373
28.97500,2417
28.98333,2459
28.99167,2500
29.00000,2540
29.00833,2577
29.01667,2613
29.02500,2648
29.03333,2681
29.04167,2712
29.05000,2741
29.05833,2769
29.06667,2795
29.07500,2820
29.08333,2843
29.09167,2864
29.10000,2883
29.10833,2901
29.11667,2917
29.12500,2931
29.13333,2944
29.14167,2955
29.15000,2965
29.15833,2974
29.16667,2981
29.17500,2986
29.18333,2989
29.19167,2992
29.20000,2992
29.20833,2991
29.21667,2989
29.22500,2986
29.23333,2981
29.24167,2975
29.25000,2967
29.25833,2958
29.26667,2947
29.27500,2935
29.28333,2921
29.29167,2906
29.30000,2889
29.30833,2871
29.31667,2852
29.32500,2832
29.33333,2810
29.34167,2786
29.35000,2761
29.35833,2734
29.36667,2706
29.37500,2677
29.38333,2646
29.39167,2614
29.40000,2581
29.40833,2546
29.41667,2510
29.42500,2473
29.43333,2434
29.44167,2394
29.45000,2353
29.45833,2311
29.46667,2268
29.47500,2225
29.48333,2181
29.49167,2136
29.50000,2089
29.50833,2042
29.51667,1995
29.52500,1948
29.53333,1900
29.54167,1852
29.55000,1803
29.55833,1755
29.56667,1706
29.57500,1658
29.58333,1609
29.59167,1561
29.60000,1513
29.60833,1465
29.61667,1418
29.62500,1371
29.63333,1325
29.64167,1279
29.65000,1234
29.65833,1190
29.66667,1146
29.67500,1104
29.68333,1062
29.69167,1022
29.70000,982
29.70833,943
29.71667,904
29.72500,868
29.73333,832
29.74167,797
29.75000,764
29.75833,731
29.76667,700
29.77500,669
29.78333,640
29.79167,612
29.80000,585
29.80833,559
29.81667,535
29.82500,511
29.83333,488
29.84167,466
29.85000,446
29.85833,426
29.86667,408
29.87500,390
29.88333,373
29.89167,356
29.90000,341
29.90833,327
29.91667,314
29.92500,301
29.93333,290
29.94167,279
29.95000,268
29.95833,258
29.96667,248
29.97500,239
29.98333,231
29.99167,223
30.00000,215
30.00833,208
30.01667,201
30.02500,195
30.03333,190
30.04167,184
30.05000,179
30.05833,175
30.06667,171
30.07500,167
30.08333,163
30.09167,159
30.10000,156
30.10833,153
30.11667,150
30.12500,148
30.13333,145
30.14167,143
30.15000,141
30.15833,140
30.16667,138
30.17500,137
30.18333,136
30.19167,135
30.20000,133
30.20833,132
30.21667,131
30.22500,130
30.23333,128
30.24167,128
30.25000,127
30.25833,126
30.26667,125
30.27500,125
30.28333,124
30.29167,124
30.30000,124
30.30833,123
30.31667,123
30.32500,123
30.33333,123
30.34167,123
30.35000,123
30.35833,123
30.36667,123
30.37500,123
30.38333,123
30.39167,124
30.40000,124
30.40833,124
30.41667,125
30.42500,126
30.43333,126
30.44167,127
30.45000,127
30.45833,128
30.46667,129
30.47500,129
30.48333,130
30.49167,131
30.50000,132
30.50833,134
30.51667,135
30.52500,136
30.53333,137
30.54167,139
30.55000,140
30.55833,142
30.56667,143
30.57500,144
30.58333,145
30.59167,146
30.60000,148
30.60833,149
30.61667,150
30.62500,152
30.63333,154
30.64167,156
30.65000,157
30.65833,159
30.66667,160
30.67500,162
30.68333,164
30.69167,165
30.70000,167
30.70833,170
30.71667,171
30.72500,173
30.73333,175
30.74167,176
30.75000,178
30.75833,180
30.76667,182
30.77500,184
30.78333,186
30.79167,187
30.80000,188
30.80833,190
30.81667,192
30.82500,193
30.83333,195
30.84167,196
30.85000,198
30.85833,199
30.86667,201
30.87500,202
30.88333,203
30.89167,205
30.90000,206
30.90833,208
30.91667,209
30.92500,210
30.93333,211
30.94167,212
30.95000,213
30.95833,214
30.96667,215
30.97500,216
30.98333,217
30.99167,218
31.00000,219
31.00833,219
31.01667,219
31.02500,220
31.03333,220
31.04167,221
31.05000,221
31.05833,221
31.06667,222
31.07500,222
31.08333,223
31.09167,223
31.10000,223
31.10833,224
31.11667,224
31.12500,224
31.13333,224
31.14167,223
31.15000,223
31.15833,223
31.16667,223
31.17500,222
31.18333,222
31.19167,222
31.20000,221
31.20833,221
31.21667,220
31.22500,220
31.23333,219
31.24167,218
31.25000,217
31.25833,216
31.26667,215
31.27500,214
31.28333,213
31.29167,212
31.30000,211
31.30833,210
31.31667,209
31.32500,207
31.33333,206
31.34167,205
31.35000,204
31.35833,203
31.36667,202
31.37500,201
31.38333,200
31.39167,198
31.40000,197
31.40833,195
31.41667,194
31.42500,192
31.43333,191
31.44167,189
31.45000,188
31.45833,187
31.46667,185
31.47500,184
31.48333,182
31.49167,181
31.50000,180
31.50833,179
31.51667,178
31.52500,177
31.53333,176
31.54167,175
31.55000,175
31.55833,174
31.56667,173
31.57500,172
31.58333,172
31.59167,172
31.60000,172
31.60833,172
31.61667,172
31.62500,172
31.63333,172
31.64167,172
31.65000,173
31.65833,173
31.66667,174
31.67500,175
31.68333,176
31.69167,177
31.70000,179
31.70833,180
31.71667,182
31.72500,184
31.73333,186
31.74167,188
31.75000,191
31.75833,194
31.76667,197
31.77500,200
31.78333,204
31.79167,207
31.80000,211
31.80833,215
31.81667,219
31.82500,223
31.83333,226
31.84167,230
31.85000,234
31.85833,239
31.86667,243
31.87500,248
31.88333,253
31.89167,258
31.90000,263
31.90833,268
31.91667,273
31.92500,278
31.93333,283
31.94167,289
31.95000,294
31.95833,300
31.96667,306
31.97500,311
31.98333,316
31.99167,321
32.00000,326
32.00833,332
32.01667,337
32.02500,342
32.03333,347
32.04167,352
32.05000,356
32.05833,361
32.06667,366
32.07500,371
32.08333,376
32.09167,380
32.10000,385
32.10833,389
32.11667,394
32.12500,398
32.13333,402
32.14167,406
32.15000,410
32.15833,413
32.16667,417
32.17500,420
32.18333,424
32.19167,427
32.20000,430
32.20833,433
32.21667,436
32.22500,439
32.23333,441
32.24167,444
32.25000,446
32.25833,449
32.26667,452
32.27500,454
32.28333,457
32.29167,458
32.30000,460
32.30833,461
32.31667,462
32.32500,463
32.33333,465
32.34167,466
32.35000,467
32.35833,468
32.36667,469
32.37500,470
32.38333,470
32.39167,471
32.40000,471
32.40833,471
32.41667,471
32.42500,470
32.43333,470
32.44167,469
32.45000,468
32.45833,467
32.46667,466
32.47500,464
32.48333,462
32.49167,461
32.50000,459
32.50833,457
32.51667,456
32.52500,453
32.53333,451
32.54167,449
32.55000,446
32.55833,444
32.56667,441
32.57500,438
32.58333,435
32.59167,432
32.60000,429
32.60833,426
32.61667,423
32.62500,420
32.63333,417
32.64167,413
32.65000,410
32.65833,407
32.66667,404
32.67500,401
32.68333,397
32.69167,394
32.70000,391
32.70833,388
32.71667,385
32.72500,382
32.73333,379
32.74167,376
32.75000,374
32.75833,371
32.76667,368
32.77500,366
32.78333,363
32.79167,361
32.80000,358
32.80833,356
32.81667,354
32.82500,352
32.83333,351
32.84167,349
32.85000,348
32.85833,346
32.86667,344
32.87500,343
32.88333,342
32.89167,340
32.90000,340
32.90833,339
32.91667,339
32.92500,338
32.93333,338
32.94167,337
32.95000,337
32.95833,337
32.96667,336
32.97500,336
32.98333,336
32.99167,336
33.00000,336
33.00833,336
33.01667,336
33.02500,337
33.03333,337
33.04167,338
33.05000,338
33.05833,339
33.06667,339
33.07500,339
33.08333,340
33.09167,340
33.10000,341
33.10833,342
33.11667,342
33.12500,342
33.13333,343
33.14167,343
33.15000,344
33.15833,344
33.16667,344
33.17500,345
33.18333,345
33.19167,346
33.20000,346
33.20833,346
33.21667,346
33.22500,346
33.23333,346
33.24167,346
33.25000,346
33.25833,345
33.26667,345
33.27500,344
33.28333,344
33.29167,343
33.30000,343
33.30833,342
33.31667,341
33.32500,340
33.33333,339
33.34167,339
33.35000,337
33.35833,336
33.36667,335
33.37500,333
33.38333,332
33.39167,331
33.40000,329
33.40833,327
33.41667,325
33.42500,323
33.43333,321
33.44167,319
33.45000,317
33.45833,315
33.46667,313
33.47500,311
33.48333,309
33.49167,307
33.50000,304
33.50833,302
33.51667,299
33.52500,297
33.53333,294
33.54167,291
33.55000,288
33.55833,286
33.56667,283
33.57500,280
33.58333,277
33.59167,274
33.60000,271
33.60833,268
33.61667,265
33.62500,262
33.63333,259
33.64167,256
33.65000,253
33.65833,249
33.66667,246
33.67500,243
33.68333,240
33.69167,237
33.70000,233
33.70833,230
33.71667,227
33.72500,223
33.73333,220
33.74167,216
33.75000,213
33.75833,209
33.76667,206
33.77500,202
33.78333,199
33.79167,195
33.80000,192
33.80833,189
33.81667,186
33.82500,183
33.83333,179
33.84167,176
33.85000,172
33.85833,168
33.86667,165
33.87500,162
33.88333,158
33.89167,155
33.90000,152
33.90833,149
33.91667,145
33.92500,143
33.93333,140
33.94167,137
33.95000,135
33.95833,132
33.96667,129
33.97500,125
33.98333,122
33.99167,119
34.00000,117
34.00833,115
34.01667,112
34.02500,109
34.03333,107
34.04167,104
34.05000,102
34.05833,100
34.06667,97
34.07500,95
34.08333,93
34.09167,91
34.10000,89
34.10833,87
34.11667,85
34.12500,83
34.13333,81
34.14167,79
34.15000,78
34.15833,76
34.16667,74
34.17500,73
34.18333,72
34.19167,70
34.20000,69
34.20833,67
34.21667,66
34.22500,64
34.23333,63
34.24167,62
34.25000,60
34.25833,59
34.26667,58
34.27500,57
34.28333,55
34.29167,54
34.30000,53
34.30833,52
34.31667,51
34.32500,50
34.33333,50
34.34167,49
34.35000,48
34.35833,48
34.36667,47
34.37500,46
34.38333,45
34.39167,44
34.40000,43
34.40833,43
34.41667,43
34.42500,42
34.43333,42
34.44167,42
34.45000,41
34.45833,41
34.46667,40
34.47500,40
34.48333,39
34.49167,38
34.50000,37
34.50833,37
34.51667,36
34.52500,36
34.53333,36
34.54167,36
34.55000,35
34.55833,35
34.56667,35
34.57500,34
34.58333,34
34.59167,34
34.60000,33
34.60833,33
34.61667,33
34.62500,33
34.63333,33
34.64167,32
34.65000,32
34.65833,32
34.66667,32
34.67500,31
34.68333,31
34.69167,30
34.70000,30
34.70833,30
34.71667,30
34.72500,29
34.73333,29
34.74167,29
34.75000,28
34.75833,28
34.76667,28
34.77500,28
34.78333,28
34.79167,27
34.80000,27
34.80833,27
34.81667,27
34.82500,26
34.83333,26
34.84167,26
34.85000,25
34.85833,25
34.86667,25
34.87500,25
34.88333,25
34.89167,25
34.90000,25
34.90833,25
34.91667,25
34.92500,25
34.93333,25
34.94167,25
34.95000,24
34.95833,24
34.96667,24
34.97500,25
34.98333,25
34.99167,25
35.00000,25
35.00833,25
35.01667,25
35.02500,25
35.03333,25
35.04167,25
35.05000,25
35.05833,25
35.06667,24
35.07500,25
35.08333,25
35.09167,24
35.10000,24
35.10833,24
35.11667,24
35.12500,24
35.13333,24
35.14167,24
35.15000,24
35.15833,24
35.16667,25
35.17500,25
35.18333,25
35.19167,25
35.20000,25
35.20833,25
35.21667,26
35.22500,26
35.23333,26
35.24167,26
35.25000,26
35.25833,26
35.26667,26
35.27500,26
35.28333,26
35.29167,26
35.30000,26
35.30833,26
35.31667,26
35.32500,26
35.33333,27
35.34167,27
35.35000,27
35.35833,27
35.36667,27
35.37500,27
35.38333,28
35.39167,28
35.40000,28
35.40833,28
35.41667,29
35.42500,29
35.43333,29
35.44167,29
35.45000,29
35.45833,29
35.46667,29
35.47500,29
35.48333,29
35.49167,29
35.50000,29
35.50833,29
35.51667,29
35.52500,29
35.53333,30
35.54167,30
35.55000,31
35.55833,31
35.56667,31
35.57500,31
35.58333,31
35.59167,31
35.60000,32
35.60833,32
35.61667,32
35.62500,31
35.63333,31
35.64167,31
35.65000,32
35.65833,32
35.66667,32
35.67500,32
35.68333,32
35.69167,33
35.70000,33
35.70833,33
35.71667,33
35.72500,33
35.73333,33
35.74167,33
35.75000,33
35.75833,33
35.76667,33
35.77500,34
35.78333,34
35.79167,35
35.80000,35
35.80833,35
35.81667,36
35.82500,36
35.83333,36
35.84167,36
35.85000,36
35.85833,36
35.86667,36
35.87500,36
35.88333,36
35.89167,36
35.90000,37
35.90833,37
35.91667,38
35.92500,38
35.93333,38
35.94167,39
35.95000,39
35.95833,39
35.96667,40
35.97500,40
35.98333,40
35.99167,40
36.00000,40
36.00833,40
36.01667,41
36.02500,41
36.03333,41
36.04167,42
36.05000,42
36.05833,42
36.06667,42
36.07500,43
36.08333,42
36.09167,42
36.10000,42
36.10833,43
36.11667,43
36.12500,43
36.13333,44
36.14167,44
36.15000,44
36.15833,44
36.16667,45
36.17500,45
36.18333,46
36.19167,46
36.20000,47
36.20833,47
36.21667,48
36.22500,48
36.23333,49
36.24167,49
36.25000,49
36.25833,50
36.26667,50
36.27500,50
36.28333,50
36.29167,50
36.30000,51
36.30833,51
36.31667,51
36.32500,51
36.33333,51
36.34167,52
36.35000,52
36.35833,52
36.36667,52
36.37500,53
36.38333,53
36.39167,53
36.40000,54
36.40833,54
36.41667,54
36.42500,54
36.43333,55
36.44167,55
36.45000,56
36.45833,56
36.46667,57
36.47500,57
36.48333,57
36.49167,57
36.50000,58
36.50833,58
36.51667,59
36.52500,59
36.53333,59
36.54167,60
36.55000,61
36.55833,61
36.56667,62
36.57500,62
36.58333,62
36.59167,63
36.60000,63
36.60833,63
36.61667,64
36.62500,64
36.63333,65
36.64167,65
36.65000,65
36.65833,66
36.66667,66
36.67500,67
36.68333,67
36.69167,68
36.70000,68
36.70833,69
36.71667,69
36.72500,70
36.73333,70
36.74167,71
36.75000,71
36.75833,72
36.76667,73
36.77500,73
36.78333,74
36.79167,74
36.80000,75
36.80833,75
36.81667,76
36.82500,77
36.83333,78
36.84167,78
36.85000,78
36.85833,79
36.86667,79
36.87500,80
36.88333,80
36.89167,81
36.90000,81
36.90833,82
36.91667,82
36.92500,83
36.93333,84
36.94167,84
36.95000,85
36.95833,85
36.96667,86
36.97500,87
36.98333,87
36.99167,88
37.00000,88
37.00833,89
37.01667,90
37.02500,91
37.03333,92
37.04167,92
37.05000,93
37.05833,94
37.06667,94
37.07500,95
37.08333,96
37.09167,96
37.10000,97
37.10833,98
37.11667,99
37.12500,100
37.13333,101
37.14167,102
37.15000,102
37.15833,103
37.16667,103
37.17500,104
37.18333,104
37.19167,105
37.20000,106
37.20833,107
37.21667,107
37.22500,108
37.23333,108
37.24167,109
37.25000,110
37.25833,111
37.26667,112
37.27500,113
37.28333,114
37.29167,115
37.30000,116
37.30833,116
37.31667,117
37.32500,118
37.33333,119
37.34167,120
37.35000,121
37.35833,122
37.36667,123
37.37500,124
37.38333,125
37.39167,126
37.40000,127
37.40833,127
37.41667,128
37.42500,128
37.43333,129
37.44167,129
37.45000,130
37.45833,131
37.46667,131
37.47500,132
37.48333,132
37.49167,133
37.50000,134
37.50833,134
37.51667,135
37.52500,136
37.53333,137
37.54167,138
37.55000,138
37.55833,139
37.56667,139
37.57500,140
37.58333,141
37.59167,141
37.60000,141
37.60833,142
37.61667,142
37.62500,142
37.63333,142
37.64167,142
37.65000,142
37.65833,142
37.66667,142
37.67500,143
37.68333,143
37.69167,143
37.70000,143
37.70833,143
37.71667,143
37.72500,143
37.73333,143
37.74167,143
37.75000,143
37.75833,143
37.76667,143
37.77500,142
37.78333,142
37.79167,142
37.80000,141
37.80833,141
37.81667,140
37.82500,140
37.83333,139
37.84167,139
37.85000,139
37.85833,138
37.86667,138
37.87500,137
37.88333,137
37.89167,136
37.90000,135
37.90833,135
37.91667,134
37.92500,133
37.93333,132
37.94167,132
37.95000,131
37.95833,130
37.96667,130
37.97500,129
37.98333,128
37.99167,127
38.00000,126
38.00833,125
38.01667,124
38.02500,124
38.03333,123
38.04167,121
38.05000,120
38.05833,119
38.06667,119
38.07500,118
38.08333,117
38.09167,116
38.10000,115
38.10833,114
38.11667,113
38.12500,112
38.13333,110
38.14167,109
38.15000,108
38.15833,106
38.16667,105
38.17500,104
38.18333,104
38.19167,102
38.20000,101
38.20833,101
38.21667,100
38.22500,98
38.23333,97
38.24167,96
38.25000,95
38.25833,93
38.26667,92
38.27500,91
38.28333,89
38.29167,88
38.30000,87
38.30833,85
38.31667,84
38.32500,82
38.33333,81
38.34167,80
38.35000,79
38.35833,78
38.36667,77
38.37500,75
38.38333,74
38.39167,73
38.40000,71
38.40833,70
38.41667,69
38.42500,67
38.43333,66
38.44167,65
38.45000,63
38.45833,62
38.46667,61
38.47500,60
38.48333,59
38.49167,58
38.50000,56
38.50833,55
38.51667,54
38.52500,53
38.53333,52
38.54167,52
38.55000,51
38.55833,50
38.56667,49
38.57500,48
38.58333,46
38.59167,45
38.60000,45
38.60833,44
38.61667,43
38.62500,42
38.63333,42
38.64167,41
38.65000,41
38.65833,40
38.66667,39
38.67500,39
38.68333,38
38.69167,37
38.70000,37
38.70833,36
38.71667,35
38.72500,34
38.73333,34
38.74167,34
38.75000,33
38.75833,33
38.76667,32
38.77500,31
38.78333,31
38.79167,30
38.80000,30
38.80833,29
38.81667,29
38.82500,28
38.83333,28
38.84167,27
38.85000,27
38.85833,27
38.86667,27
38.87500,27
38.88333,27
38.89167,26
38.90000,26
38.90833,25
38.91667,25
38.92500,25
38.93333,25
38.94167,25
38.95000,25
38.95833,24
38.96667,24
38.97500,24
38.98333,24
38.99167,24
39.00000,24
39.00833,24
39.01667,24
39.02500,24
39.03333,24
39.04167,24
39.05000,24
39.05833,24
39.06667,24
39.07500,24
39.08333,24
39.09167,23
39.10000,23
39.10833,23
39.11667,24
39.12500,23
39.13333,23
39.14167,23
39.15000,23
39.15833,23
39.16667,24
39.17500,24
39.18333,24
39.19167,24
39.20000,24
39.20833,25
39.21667,25
39.22500,25
39.23333,25
39.24167,25
39.25000,25
39.25833,25
39.26667,25
39.27500,25
39.28333,25
39.29167,25
39.30000,25
39.30833,25
39.31667,25
39.32500,25
39.33333,25
39.34167,25
39.35000,25
39.35833,26
39.36667,26
39.37500,26
39.38333,27
39.39167,27
39.40000,27
39.40833,27
39.41667,26
39.42500,26
39.43333,26
39.44167,27
39.45000,27
39.45833,27
39.46667,27
39.47500,27
39.48333,28
39.49167,28
39.50000,28
39.50833,28
39.51667,28
39.52500,28
39.53333,28
39.54167,28
39.55000,28
39.55833,28
39.56667,28
39.57500,29
39.58333,28
39.59167,28
39.60000,28
39.60833,29
39.61667,29
39.62500,29
39.63333,29
39.64167,29
39.65000,29
39.65833,29
39.66667,29
39.67500,29
39.68333,29
39.69167,29
39.70000,29
39.70833,29
39.71667,28
39.72500,29
39.73333,29
39.74167,29
39.75000,29
39.75833,29
39.76667,30
39.77500,30
39.78333,30
39.79167,30
39.80000,29
39.80833,29
39.81667,30
39.82500,30
39.83333,30
39.84167,30
39.85000,30
39.85833,30
39.86667,31
39.87500,31
39.88333,31
39.89167,31
39.90000,31
39.90833,30
39.91667,30
39.92500,31
39.93333,31
39.94167,31
39.95000,31
39.95833,31
39.96667,30
39.97500,30
39.98333,30
39.99167,30
40.00000,30
40.00833,31
40.01667,31
40.02500,32
40.03333,32
40.04167,32
40.05000,32
40.05833,32
40.06667,32
40.07500,32
40.08333,32
40.09167,32
40.10000,32
40.10833,32
40.11667,33
40.12500,33
40.13333,34
40.14167,34
40.15000,33
40.15833,33
40.16667,33
40.17500,33
40.18333,33
40.19167,33
40.20000,33
40.20833,33
40.21667,33
40.22500,33
40.23333,32
40.24167,33
40.25000,33
40.25833,33
40.26667,34
40.27500,34
40.28333,34
40.29167,34
40.30000,34
40.30833,34
40.31667,34
40.32500,34
40.33333,34
40.34167,35
40.35000,35
40.35833,35
40.36667,35
40.37500,35
40.38333,35
40.39167,34
40.40000,34
40.40833,35
40.41667,35
40.42500,36
40.43333,36
40.44167,36
40.45000,36
40.45833,37
40.46667,37
40.47500,37
40.48333,38
40.49167,38
40.50000,38
40.50833,39
40.51667,39
40.52500,40
40.53333,40
40.54167,40
40.55000,40
40.55833,40
40.56667,40
40.57500,41
40.58333,42
40.59167,42
40.60000,42
40.60833,43
40.61667,43
40.62500,43
40.63333,44
40.64167,44
40.65000,44
40.65833,45
40.66667,45
40.67500,46
40.68333,46
40.69167,46
40.70000,47
40.70833,47
40.71667,47
40.72500,48
40.73333,48
40.74167,49
40.75000,50
40.75833,50
40.76667,50
40.77500,51
40.78333,51
40.79167,52
40.80000,52
40.80833,52
40.81667,53
40.82500,54
40.83333,55
40.84167,55
40.85000,56
40.85833,56
40.86667,57
40.87500,58
40.88333,58
40.89167,59
40.90000,60
40.90833,61
40.91667,61
40.92500,61
40.93333,61
40.94167,62
40.95000,63
40.95833,64
40.96667,65
40.97500,65
40.98333,66
40.99167,67
41.00000,67
41.00833,68
41.01667,70
41.02500,71
41.03333,72
41.04167,73
41.05000,73
41.05833,74
41.06667,75
41.07500,77
41.08333,78
41.09167,79
41.10000,80
41.10833,81
41.11667,82
41.12500,83
41.13333,84
41.14167,84
41.15000,85
41.15833,86
41.16667,87
41.17500,88
41.18333,89
41.19167,90
41.20000,91
41.20833,93
41.21667,94
41.22500,95
41.23333,96
41.24167,97
41.25000,98
41.25833,99
41.26667,101
41.27500,102
41.28333,103
41.29167,104
41.30000,105
41.30833,107
41.31667,108
41.32500,109
41.33333,110
41.34167,112
41.35000,113
41.35833,114
41.36667,115
41.37500,117
41.38333,118
41.39167,120
41.40000,122
41.40833,123
41.41667,124
41.42500,126
41.43333,127
41.44167,129
41.45000,130
41.45833,132
41.46667,133
41.47500,134
41.48333,135
41.49167,137
41.50000,138
41.50833,140
41.51667,141
41.52500,143
41.53333,144
41.54167,146
41.55000,147
41.55833,148
41.56667,150
41.57500,151
41.58333,152
41.59167,154
41.60000,155
41.60833,156
41.61667,158
41.62500,159
41.63333,160
41.64167,161
41.65000,162
41.65833,163
41.66667,165
41.67500,166
41.68333,168
41.69167,170
41.70000,171
41.70833,173
41.71667,174
41.72500,175
41.73333,176
41.74167,177
41.75000,178
41.75833,179
41.76667,180
41.77500,181
41.78333,182
41.79167,183
41.80000,185
41.80833,186
41.81667,187
41.82500,188
41.83333,190
41.84167,191
41.85000,192
41.85833,193
41.86667,194
41.87500,196
41.88333,197
41.89167,198
41.90000,199
41.90833,200
41.91667,201
41.92500,201
41.93333,202
41.94167,202
41.95000,203
41.95833,204
41.96667,205
41.97500,206
41.98333,207
41.99167,208
42.00000,209
42.00833,209
42.01667,210
42.02500,211
42.03333,212
42.04167,212
42.05000,213
42.05833,213
42.06667,214
42.07500,214
42.08333,215
42.09167,215
42.10000,215
42.10833,216
42.11667,216
42.12500,217
42.13333,217
42.14167,218
42.15000,218
42.15833,219
42.16667,219
42.17500,219
42.18333,219
42.19167,219
42.20000,219
42.20833,219
42.21667,219
42.22500,219
42.23333,220
42.24167,220
42.25000,220
42.25833,220
42.26667,220
42.27500,220
42.28333,220
42.29167,220
42.30000,220
42.30833,220
42.31667,220
42.32500,220
42.33333,220
42.34167,220
42.35000,220
42.35833,220
42.36667,219
42.37500,219
42.38333,219
42.39167,219
42.40000,218
42.40833,218
42.41667,217
42.42500,217
42.43333,216
42.44167,216
42.45000,215
42.45833,215
42.46667,215
42.47500,214
42.48333,214
42.49167,214
42.50000,213
42.50833,213
42.51667,212
42.52500,212
42.53333,211
42.54167,210
42.55000,210
42.55833,209
42.56667,208
42.57500,207
42.58333,207
42.59167,206
42.60000,205
42.60833,205
42.61667,204
42.62500,203
42.63333,202
42.64167,201
42.65000,201
42.65833,200
42.66667,200
42.67500,199
42.68333,198
42.69167,198
42.70000,197
42.70833,197
42.71667,196
42.72500,195
42.73333,194
42.74167,193
42.75000,192
42.75833,191
42.76667,190
42.77500,189
42.78333,188
42.79167,187
42.80000,186
42.80833,185
42.81667,184
42.82500,183
42.83333,182
42.84167,180
42.85000,179
42.85833,179
42.86667,178
42.87500,177
42.88333,176
42.89167,175
42.90000,174
42.90833,173
42.91667,172
42.92500,171
42.93333,170
42.94167,170
42.95000,169
42.95833,168
42.96667,166
42.97500,165
42.98333,164
42.99167,163
43.00000,163
43.00833,162
43.01667,161
43.02500,160
43.03333,158
43.04167,157
43.05000,156
43.05833,155
43.06667,154
43.07500,153
43.08333,152
43.09167,151
43.10000,150
43.10833,149
43.11667,148
43.12500,147
43.13333,146
43.14167,146
43.15000,145
43.15833,144
43.16667,143
43.17500,141
43.18333,140
43.19167,139
43.20000,138
43.20833,137
43.21667,136
43.22500,135
43.23333,134
43.24167,133
43.25000,132
43.25833,131
43.26667,129
43.27500,128
43.28333,128
43.29167,127
43.30000,126
43.30833,125
43.31667,124
43.32500,123
43.33333,122
43.34167,121
43.35000,120
43.35833,119
43.36667,118
43.37500,117
43.38333,116
43.39167,115
43.40000,114
43.40833,113
43.41667,112
43.42500,111
43.43333,110
43.44167,109
43.45000,109
43.45833,108
43.46667,107
43.47500,106
43.48333,105
43.49167,104
43.50000,104
43.50833,103
43.51667,102
43.52500,101
43.53333,99
43.54167,98
43.55000,98
43.55833,97
43.56667,96
43.57500,95
43.58333,95
43.59167,94
43.60000,93
43.60833,92
43.61667,91
43.62500,91
43.63333,90
43.64167,89
43.65000,88
43.65833,87
43.66667,86
43.67500,85
43.68333,84
43.69167,84
43.70000,83
43.70833,81
43.71667,80
43.72500,80
43.73333,79
43.74167,79
43.75000,78
43.75833,77
43.76667,76
43.77500,76
43.78333,75
43.79167,74
43.80000,74
43.80833,73
43.81667,73
43.82500,72
43.83333,71
43.84167,70
43.85000,69
43.85833,68
43.86667,67
43.87500,67
43.88333,66
43.89167,66
43.90000,65
43.90833,65
43.91667,64
43.92500,63
43.93333,62
43.94167,61
43.95000,60
43.95833,60
43.96667,59
43.97500,58
43.98333,58
43.99167,57
44.00000,56
44.00833,55
44.01667,54
44.02500,54
44.03333,53
44.04167,53
44.05000,53
44.05833,52
44.06667,51
44.07500,51
44.08333,51
44.09167,51
44.10000,50
44.10833,49
44.11667,49
44.12500,48
44.13333,48
44.14167,48
44.15000,47
44.15833,47
44.16667,46
44.17500,45
44.18333,44
44.19167,44
44.20000,43
44.20833,43
44.21667,42
44.22500,42
44.23333,42
44.24167,41
44.25000,41
44.25833,40
44.26667,40
44.27500,39
44.28333,39
44.29167,38
44.30000,37
44.30833,37
44.31667,36
44.32500,36
44.33333,35
44.34167,35
44.35000,35
44.35833,34
44.36667,34
44.37500,34
44.38333,34
44.39167,33
44.40000,33
44.40833,32
44.41667,31
44.42500,31
44.43333,31
44.44167,30
44.45000,30
44.45833,30
44.46667,30
44.47500,30
44.48333,29
44.49167,29
44.50000,29
44.50833,28
44.51667,28
44.52500,28
44.53333,27
44.54167,27
44.55000,26
44.55833,26
44.56667,26
44.57500,25
44.58333,25
44.59167,25
44.60000,24
44.60833,24
44.61667,24
44.62500,24
44.63333,23
44.64167,23
44.65000,23
44.65833,23
44.66667,23
44.67500,23
44.68333,23
44.69167,23
44.70000,22
44.70833,22
44.71667,22
44.72500,22
44.73333,21
44.74167,21
44.75000,22
44.75833,22
44.76667,21
44.77500,21
44.78333,20
44.79167,20
44.80000,20
44.80833,20
44.81667,20
44.82500,20
44.83333,20
44.84167,20
44.85000,20
44.85833,20
44.86667,20
44.87500,20
44.88333,20
44.89167,20
44.90000,20
44.90833,20
44.91667,20
44.92500,19
44.93333,19
44.94167,19
44.95000,19
44.95833,19
44.96667,19
44.97500,19
44.98333,20
44.99167,20
45.00000,20
45.00833,20
45.01667,20
45.02500,20
45.03333,20
45.04167,20
45.05000,20
45.05833,20
45.06667,20
45.07500,20
45.08333,20
45.09167,21
45.10000,21
45.10833,21
45.11667,21
45.12500,21
45.13333,21
45.14167,21
45.15000,21
45.15833,21
45.16667,20
45.17500,20
45.18333,20
45.19167,20
45.20000,20
45.20833,20
45.21667,20
45.22500,20
45.23333,20
45.24167,20
45.25000,20
45.25833,21
45.26667,21
45.27500,21
45.28333,21
45.29167,21
45.30000,21
45.30833,22
45.31667,22
45.32500,22
45.33333,22
45.34167,22
45.35000,22
45.35833,22
45.36667,22
45.37500,23
45.38333,23
45.39167,24
45.40000,24
45.40833,24
45.41667,24
45.42500,24
45.43333,24
45.44167,24
45.45000,24
45.45833,24
45.46667,24
45.47500,24
45.48333,25
45.49167,25
45.50000,25
45.50833,24
45.51667,24
45.52500,24
45.53333,24
45.54167,25
45.55000,25
45.55833,25
45.56667,24
45.57500,24
45.58333,24
45.59167,24
45.60000,24
45.60833,25
45.61667,25
45.62500,25
45.63333,25
45.64167,25
45.65000,26
45.65833,26
45.66667,26
45.67500,26
45.68333,26
45.69167,26
45.70000,26
45.70833,27
45.71667,27
45.72500,27
45.73333,27
45.74167,26
45.75000,26
45.75833,26
45.76667,26
45.77500,26
45.78333,25
45.79167,25
45.80000,25
45.80833,25
45.81667,25
45.82500,25
45.83333,25
45.84167,25
45.85000,25
45.85833,25
45.86667,25
45.87500,25
45.88333,24
45.89167,24
45.90000,24
45.90833,24
45.91667,24
45.92500,24
45.93333,24
45.94167,24
45.95000,24
45.95833,24
45.96667,24
45.97500,24
45.98333,24
45.99167,24
46.00000,23
46.00833,23
46.01667,22
46.02500,22
46.03333,22
46.04167,22
46.05000,22
46.05833,22
46.06667,22
46.07500,22
46.08333,22
46.09167,22
46.10000,21
46.10833,21
46.11667,21
46.12500,21
46.13333,20
46.14167,20
46.15000,19
46.15833,19
46.16667,19
46.17500,19
46.18333,19
46.19167,18
46.20000,18
46.20833,18
46.21667,17
46.22500,17
46.23333,17
46.24167,17
46.25000,17
46.25833,16
46.26667,16
46.27500,16
46.28333,15
46.29167,15
46.30000,15
46.30833,15
46.31667,15
46.32500,15
46.33333,15
46.34167,14
46.35000,14
46.35833,14
46.36667,14
46.37500,13
46.38333,13
46.39167,13
46.40000,13
46.40833,12
46.41667,12
46.42500,11
46.43333,11
46.44167,11
46.45000,11
46.45833,10
46.46667,10
46.47500,10
46.48333,10
46.49167,10
46.50000,10
46.50833,9
46.51667,9
46.52500,9
46.53333,9
46.54167,8
46.55000,8
46.55833,8
46.56667,8
46.57500,7
46.58333,7
46.59167,7
46.60000,6
46.60833,6
46.61667,5
46.62500,5
46.63333,5
46.64167,4
46.65000,4
46.65833,4
46.66667,3
46.67500,3
46.68333,3
46.69167,3
46.70000,2
46.70833,2
46.71667,2
46.72500,2
46.73333,2
46.74167,2
46.75000,1
46.75833,1
46.76667,1
46.77500,1
46.78333,1
46.79167,1
46.80000,1
46.80833,1
46.81667,2
46.82500,2
46.83333,2
46.84167,1
46.85000,1
46.85833,1
46.86667,0
46.87500,0
46.88333,0
46.89167,0
46.90000,0
46.90833,0
46.91667,0
46.92500,0
46.93333,0
46.94167,1
46.95000,1
46.95833,1
46.96667,1
46.97500,2
46.98333,2
46.99167,2
47.00000,2
47.00833,2
47.01667,3
47.02500,3
47.03333,4
47.04167,4
47.05000,5
47.05833,5
47.06667,5
47.07500,5
47.08333,5
47.09167,5
47.10000,5
47.10833,6
47.11667,6
47.12500,6
47.13333,7
47.14167,8
47.15000,8
47.15833,9
47.16667,9
47.17500,9
47.18333,10
47.19167,10
47.20000,11
47.20833,11
47.21667,12
47.22500,13
47.23333,13
47.24167,14
47.25000,15
47.25833,15
47.26667,16
47.27500,17
47.28333,18
47.29167,19
47.30000,20
47.30833,20
47.31667,21
47.32500,22
47.33333,22
47.34167,23
47.35000,24
47.35833,24
47.36667,25
47.37500,26
47.38333,27
47.39167,28
47.40000,29
47.40833,30
47.41667,30
47.42500,31
47.43333,32
47.44167,33
47.45000,33
47.45833,34
47.46667,35
47.47500,36
47.48333,37
47.49167,38
47.50000,39
47.50833,39
47.51667,40
47.52500,41
47.53333,42
47.54167,43
47.55000,44
47.55833,44
47.56667,44
47.57500,45
47.58333,46
47.59167,47
47.60000,48
47.60833,49
47.61667,50
47.62500,50
47.63333,51
47.64167,52
47.65000,53
47.65833,53
47.66667,54
47.67500,55
47.68333,56
47.69167,57
47.70000,57
47.70833,58
47.71667,59
47.72500,59
47.73333,60
47.74167,61
47.75000,62
47.75833,62
47.76667,62
47.77500,63
47.78333,63
47.79167,64
47.80000,64
47.80833,65
47.81667,65
47.82500,66
47.83333,67
47.84167,67
47.85000,68
47.85833,68
47.86667,69
47.87500,69
47.88333,70
47.89167,70
47.90000,70
47.90833,71
47.91667,71
47.92500,71
47.93333,72
47.94167,73
47.95000,73
47.95833,74
47.96667,74
47.97500,75
47.98333,75
47.99167,75
48.00000,76
48.00833,76
48.01667,76
48.02500,77
48.03333,77
48.04167,77
48.05000,78
48.05833,78
48.06667,78
48.07500,79
48.08333,79
48.09167,79
48.10000,79
48.10833,78
48.11667,79
48.12500,79
48.13333,79
48.14167,80
48.15000,80
48.15833,80
48.16667,80
48.17500,81
48.18333,81
48.19167,81
48.20000,81
48.20833,81
48.21667,82
48.22500,82
48.23333,82
48.24167,82
48.25000,82
48.25833,82
48.26667,82
48.27500,82
48.28333,83
48.29167,83
48.30000,83
48.30833,83
48.31667,83
48.32500,83
48.33333,83
48.34167,83
48.35000,83
48.35833,83
48.36667,83
48.37500,83
48.38333,83
48.39167,83
48.40000,83
48.40833,84
48.41667,84
48.42500,84
48.43333,84
48.44167,84
48.45000,85
48.45833,85
48.46667,85
48.47500,85
48.48333,85
48.49167,86
48.50000,86
48.50833,86
48.51667,86
48.52500,86
48.53333,86
48.54167,86
48.55000,87
48.55833,87
48.56667,87
48.57500,87
48.58333,88
48.59167,88
48.60000,88
48.60833,88
48.61667,87
48.62500,87
48.63333,87
48.64167,87
48.65000,88
48.65833,88
48.66667,88
48.67500,88
48.68333,88
48.69167,88
48.70000,88
48.70833,88
48.71667,88
48.72500,89
48.73333,89
48.74167,89
48.75000,89
48.75833,89
48.76667,89
48.77500,90
48.78333,90
48.79167,90
48.80000,90
48.80833,90
48.81667,91
48.82500,91
48.83333,91
48.84167,91
48.85000,91
48.85833,91
48.86667,91
48.87500,92
48.88333,92
48.89167,92
48.90000,92
48.90833,92
48.91667,92
48.92500,92
48.93333,93
48.94167,93
48.95000,93
48.95833,93
48.96667,93
48.97500,93
48.98333,93
48.99167,93
49.00000,93
49.00833,93
49.01667,93
49.02500,93
49.03333,93
49.04167,93
49.05000,93
49.05833,93
49.06667,93
49.07500,93
49.08333,93
49.09167,93
49.10000,93
49.10833,93
49.11667,93
49.12500,93
49.13333,93
49.14167,92
49.15000,92
49.15833,92
49.16667,92
49.17500,92
49.18333,92
49.19167,92
49.20000,92
49.20833,92
49.21667,92
49.22500,92
49.23333,92
49.24167,92
49.25000,92
49.25833,92
49.26667,91
49.27500,91
49.28333,91
49.29167,91
49.30000,91
49.30833,91
49.31667,90
49.32500,90
49.33333,90
49.34167,89
49.35000,89
49.35833,89
49.36667,89
49.37500,89
49.38333,88
49.39167,88
49.40000,88
49.40833,87
49.41667,87
49.42500,87
49.43333,87
49.44167,86
49.45000,86
49.45833,86
49.46667,85
49.47500,85
49.48333,84
49.49167,84
49.50000,83
49.50833,83
49.51667,83
49.52500,83
49.53333,83
49.54167,82
49.55000,82
49.55833,81
49.56667,81
49.57500,80
49.58333,79
49.59167,79
49.60000,78
49.60833,78
49.61667,77
49.62500,77
49.63333,77
49.64167,76
49.65000,76
49.65833,75
49.66667,74
49.67500,73
49.68333,73
49.69167,72
49.70000,71
49.70833,70
49.71667,70
49.72500,69
49.73333,68
49.74167,68
49.75000,67
49.75833,66
49.76667,65
49.77500,64
49.78333,63
49.79167,63
49.80000,62
49.80833,62
49.81667,61
49.82500,60
49.83333,59
49.84167,59
49.85000,58
49.85833,56
49.86667,55
49.87500,55
49.88333,54
49.89167,54
49.90000,53
49.90833,52
49.91667,51
49.92500,50
49.93333,49
49.94167,48
49.95000,47
49.95833,46
49.96667,46
49.97500,45
49.98333,44
49.99167,44
50.00000,43

