[Header]
Application Name,LabSolutions
Version,5.97 SP1
Data File Name,C:\Users\cremerlab\Desktop\Richa\Oct_18th_2022_yield_expt\Oct 18th 2022 yield expt_10182022_001_004.lcd
Output Date,10/18/2022
Output Time,8:12:22 PM

[File Information]
Type,Data File
Generated,10/18/2022 7:22:03 PM
Generated by,System Administrator
Modified,10/18/2022 8:12:22 PM
Modified by,System Administrator

[Sample Information]
Operator Name,System Administrator
Acquired,10/18/2022 7:22:21 PM
Sample Type,0:Unknown
Level,0
Sample Name,101822_NCM_3
Sample ID,001
ISTD Amount1,1
ISTD Amount2,1
ISTD Amount3,1
ISTD Amount4,1
ISTD Amount5,1
ISTD Amount6,1
ISTD Amount7,1
ISTD Amount8,1
ISTD Amount9,1
ISTD Amount10,1
ISTD Amount11,1
ISTD Amount12,1
ISTD Amount13,1
ISTD Amount14,1
ISTD Amount15,1
ISTD Amount16,1
ISTD Amount17,1
ISTD Amount18,1
ISTD Amount19,1
ISTD Amount20,1
ISTD Amount21,1
ISTD Amount22,1
ISTD Amount23,1
ISTD Amount24,1
ISTD Amount25,1
ISTD Amount26,1
ISTD Amount27,1
ISTD Amount28,1
ISTD Amount29,1
ISTD Amount30,1
ISTD Amount31,1
ISTD Amount32,1
Sample Amount,1
Dilution Factor,1
Vial#,3
Injection Volume,20

[Original Files]
Data File,C:\Users\cremerlab\Desktop\Richa\Oct_18th_2022_yield_expt\Oct 18th 2022 yield expt_10182022_001_004.lcd
Method File,C:\Users\cremerlab\Desktop\Richa\acetate_excretion.lcm
Batch File,C:\Users\cremerlab\Desktop\Richa\Oct_18th_2022_yield_expt\Oct 18th 2022 yield expt.lcb
Report Format File,c:\LabSolutions\System\DEFAULT.lsr

[File Description]


[Configuration]
Instrument Name,HPLC-PC-Instrument1
Instrument #,1
Line #,1
# of Detectors,2
Detector ID,Detector A,Detector B
Detector Name,Detector A,Detector B
# of Channels,1,1

[Peak Table(Detector A)]
# of Peaks,0

[Peak Table(Detector B)]
# of Peaks,7
Peak#,R.Time,I.Time,F.Time,Area,Height,A/H,Conc.,Mark,ID#,Name,k',Plate #,Plate Ht.,Tailing,Resolution,Sep.Factor,Area Ratio,Height Ratio,Conc. %,Norm Conc.
1,11.029,10.558,12.633,2208100,114234,19.330,0.000,   ,,,0.000,7764,19.320,0.922,0.000,0.000,0,0,0.000,0.000
2,14.351,12.633,15.192,3701793,77968,47.478,0.000, V ,,,0.301,2451,61.196,0.652,4.002,0.000,0,0,0.000,0.000
3,15.771,15.192,18.333,1360606,45266,30.058,0.000, V ,,,0.430,6757,22.200,1.145,1.473,1.427,0,0,0.000,0.000
4,20.971,20.392,22.142,21172,483,43.812,0.000,   ,,,0.901,6026,24.893,1.485,5.627,2.097,0,0,0.000,0.000
5,23.129,22.408,24.033,49742,1366,36.408,0.000,   ,,,1.097,9199,16.307,1.026,2.110,1.217,0,0,0.000,0.000
6,25.083,24.275,26.158,180188,4516,39.904,0.000,   ,,,1.274,9161,16.374,1.048,1.942,1.162,0,0,0.000,0.000
7,32.380,30.742,33.450,53078,882,60.155,0.000,   ,,,1.936,8075,18.576,0.797,5.862,1.519,0,0,0.000,0.000

[LC Chromatogram(Detector B-Ch1)]
Interval(msec),500
# of Points,6001
Start Time(min),0.000
End Time(min),50.000
Intensity Units,mV
Intensity Multiplier,0.001
R.Time (min),Intensity
0.00000,0
0.00833,0
0.01667,0
0.02500,0
0.03333,1
0.04167,1
0.05000,0
0.05833,-0
0.06667,-0
0.07500,-0
0.08333,-0
0.09167,0
0.10000,0
0.10833,1
0.11667,1
0.12500,1
0.13333,1
0.14167,0
0.15000,1
0.15833,1
0.16667,1
0.17500,1
0.18333,0
0.19167,0
0.20000,1
0.20833,1
0.21667,1
0.22500,1
0.23333,1
0.24167,1
0.25000,1
0.25833,1
0.26667,1
0.27500,1
0.28333,1
0.29167,1
0.30000,1
0.30833,1
0.31667,1
0.32500,1
0.33333,2
0.34167,2
0.35000,2
0.35833,1
0.36667,1
0.37500,1
0.38333,1
0.39167,1
0.40000,1
0.40833,1
0.41667,1
0.42500,1
0.43333,1
0.44167,1
0.45000,1
0.45833,1
0.46667,1
0.47500,0
0.48333,0
0.49167,0
0.50000,0
0.50833,0
0.51667,0
0.52500,0
0.53333,0
0.54167,-0
0.55000,-0
0.55833,0
0.56667,0
0.57500,0
0.58333,0
0.59167,0
0.60000,-0
0.60833,-0
0.61667,0
0.62500,0
0.63333,0
0.64167,0
0.65000,0
0.65833,-0
0.66667,-0
0.67500,-1
0.68333,-1
0.69167,-1
0.70000,-1
0.70833,-1
0.71667,-1
0.72500,-1
0.73333,-1
0.74167,-1
0.75000,-1
0.75833,-1
0.76667,-2
0.77500,-2
0.78333,-2
0.79167,-2
0.80000,-2
0.80833,-2
0.81667,-2
0.82500,-2
0.83333,-2
0.84167,-2
0.85000,-2
0.85833,-2
0.86667,-2
0.87500,-2
0.88333,-2
0.89167,-2
0.90000,-2
0.90833,-3
0.91667,-3
0.92500,-3
0.93333,-3
0.94167,-3
0.95000,-3
0.95833,-3
0.96667,-3
0.97500,-3
0.98333,-3
0.99167,-3
1.00000,-3
1.00833,-3
1.01667,-3
1.02500,-3
1.03333,-3
1.04167,-3
1.05000,-3
1.05833,-3
1.06667,-3
1.07500,-3
1.08333,-3
1.09167,-4
1.10000,-4
1.10833,-4
1.11667,-4
1.12500,-4
1.13333,-4
1.14167,-4
1.15000,-4
1.15833,-4
1.16667,-4
1.17500,-4
1.18333,-4
1.19167,-4
1.20000,-4
1.20833,-4
1.21667,-5
1.22500,-5
1.23333,-5
1.24167,-5
1.25000,-5
1.25833,-5
1.26667,-5
1.27500,-5
1.28333,-5
1.29167,-5
1.30000,-5
1.30833,-5
1.31667,-6
1.32500,-6
1.33333,-7
1.34167,-7
1.35000,-7
1.35833,-7
1.36667,-7
1.37500,-7
1.38333,-7
1.39167,-7
1.40000,-6
1.40833,-6
1.41667,-7
1.42500,-7
1.43333,-6
1.44167,-6
1.45000,-6
1.45833,-6
1.46667,-6
1.47500,-6
1.48333,-6
1.49167,-6
1.50000,-6
1.50833,-6
1.51667,-7
1.52500,-7
1.53333,-6
1.54167,-6
1.55000,-7
1.55833,-7
1.56667,-7
1.57500,-7
1.58333,-7
1.59167,-7
1.60000,-7
1.60833,-7
1.61667,-7
1.62500,-7
1.63333,-7
1.64167,-7
1.65000,-7
1.65833,-8
1.66667,-8
1.67500,-8
1.68333,-8
1.69167,-7
1.70000,-7
1.70833,-7
1.71667,-7
1.72500,-7
1.73333,-7
1.74167,-7
1.75000,-7
1.75833,-7
1.76667,-7
1.77500,-7
1.78333,-8
1.79167,-8
1.80000,-7
1.80833,-8
1.81667,-8
1.82500,-8
1.83333,-9
1.84167,-9
1.85000,-9
1.85833,-8
1.86667,-8
1.87500,-8
1.88333,-8
1.89167,-8
1.90000,-8
1.90833,-8
1.91667,-8
1.92500,-8
1.93333,-9
1.94167,-9
1.95000,-10
1.95833,-10
1.96667,-9
1.97500,-9
1.98333,-9
1.99167,-9
2.00000,-9
2.00833,-9
2.01667,-9
2.02500,-8
2.03333,-8
2.04167,-8
2.05000,-8
2.05833,-9
2.06667,-9
2.07500,-9
2.08333,-9
2.09167,-9
2.10000,-9
2.10833,-9
2.11667,-9
2.12500,-9
2.13333,-9
2.14167,-9
2.15000,-9
2.15833,-8
2.16667,-8
2.17500,-8
2.18333,-8
2.19167,-8
2.20000,-8
2.20833,-8
2.21667,-9
2.22500,-9
2.23333,-9
2.24167,-9
2.25000,-9
2.25833,-9
2.26667,-9
2.27500,-9
2.28333,-9
2.29167,-9
2.30000,-9
2.30833,-8
2.31667,-8
2.32500,-9
2.33333,-9
2.34167,-9
2.35000,-9
2.35833,-9
2.36667,-9
2.37500,-9
2.38333,-9
2.39167,-9
2.40000,-9
2.40833,-9
2.41667,-9
2.42500,-9
2.43333,-10
2.44167,-10
2.45000,-10
2.45833,-9
2.46667,-9
2.47500,-9
2.48333,-9
2.49167,-10
2.50000,-9
2.50833,-9
2.51667,-9
2.52500,-8
2.53333,-8
2.54167,-9
2.55000,-8
2.55833,-8
2.56667,-8
2.57500,-8
2.58333,-8
2.59167,-8
2.60000,-8
2.60833,-9
2.61667,-9
2.62500,-9
2.63333,-9
2.64167,-9
2.65000,-9
2.65833,-9
2.66667,-9
2.67500,-8
2.68333,-8
2.69167,-8
2.70000,-7
2.70833,-7
2.71667,-7
2.72500,-7
2.73333,-7
2.74167,-7
2.75000,-7
2.75833,-7
2.76667,-7
2.77500,-8
2.78333,-8
2.79167,-9
2.80000,-9
2.80833,-9
2.81667,-9
2.82500,-9
2.83333,-8
2.84167,-8
2.85000,-8
2.85833,-7
2.86667,-7
2.87500,-7
2.88333,-8
2.89167,-8
2.90000,-8
2.90833,-9
2.91667,-9
2.92500,-9
2.93333,-9
2.94167,-9
2.95000,-9
2.95833,-9
2.96667,-8
2.97500,-8
2.98333,-8
2.99167,-8
3.00000,-8
3.00833,-8
3.01667,-9
3.02500,-9
3.03333,-9
3.04167,-9
3.05000,-9
3.05833,-9
3.06667,-9
3.07500,-9
3.08333,-10
3.09167,-10
3.10000,-10
3.10833,-10
3.11667,-10
3.12500,-9
3.13333,-9
3.14167,-9
3.15000,-9
3.15833,-9
3.16667,-9
3.17500,-8
3.18333,-9
3.19167,-9
3.20000,-9
3.20833,-9
3.21667,-9
3.22500,-9
3.23333,-9
3.24167,-9
3.25000,-9
3.25833,-9
3.26667,-9
3.27500,-9
3.28333,-9
3.29167,-9
3.30000,-9
3.30833,-9
3.31667,-9
3.32500,-9
3.33333,-9
3.34167,-9
3.35000,-9
3.35833,-9
3.36667,-9
3.37500,-9
3.38333,-8
3.39167,-8
3.40000,-8
3.40833,-8
3.41667,-8
3.42500,-9
3.43333,-9
3.44167,-9
3.45000,-9
3.45833,-9
3.46667,-9
3.47500,-9
3.48333,-9
3.49167,-8
3.50000,-8
3.50833,-8
3.51667,-8
3.52500,-9
3.53333,-9
3.54167,-9
3.55000,-9
3.55833,-8
3.56667,-8
3.57500,-8
3.58333,-8
3.59167,-9
3.60000,-9
3.60833,-9
3.61667,-9
3.62500,-9
3.63333,-9
3.64167,-9
3.65000,-9
3.65833,-8
3.66667,-9
3.67500,-9
3.68333,-9
3.69167,-10
3.70000,-10
3.70833,-10
3.71667,-10
3.72500,-9
3.73333,-9
3.74167,-9
3.75000,-9
3.75833,-9
3.76667,-9
3.77500,-9
3.78333,-9
3.79167,-10
3.80000,-10
3.80833,-10
3.81667,-9
3.82500,-9
3.83333,-9
3.84167,-9
3.85000,-9
3.85833,-9
3.86667,-9
3.87500,-9
3.88333,-9
3.89167,-9
3.90000,-9
3.90833,-9
3.91667,-9
3.92500,-9
3.93333,-9
3.94167,-9
3.95000,-9
3.95833,-9
3.96667,-9
3.97500,-9
3.98333,-9
3.99167,-9
4.00000,-9
4.00833,-9
4.01667,-9
4.02500,-9
4.03333,-9
4.04167,-9
4.05000,-9
4.05833,-9
4.06667,-9
4.07500,-9
4.08333,-9
4.09167,-9
4.10000,-9
4.10833,-9
4.11667,-9
4.12500,-9
4.13333,-9
4.14167,-9
4.15000,-9
4.15833,-9
4.16667,-9
4.17500,-9
4.18333,-9
4.19167,-9
4.20000,-10
4.20833,-10
4.21667,-10
4.22500,-10
4.23333,-10
4.24167,-10
4.25000,-10
4.25833,-10
4.26667,-10
4.27500,-10
4.28333,-10
4.29167,-9
4.30000,-9
4.30833,-9
4.31667,-9
4.32500,-9
4.33333,-8
4.34167,-9
4.35000,-9
4.35833,-9
4.36667,-9
4.37500,-9
4.38333,-9
4.39167,-9
4.40000,-9
4.40833,-9
4.41667,-9
4.42500,-8
4.43333,-8
4.44167,-8
4.45000,-8
4.45833,-9
4.46667,-9
4.47500,-9
4.48333,-9
4.49167,-10
4.50000,-10
4.50833,-10
4.51667,-10
4.52500,-10
4.53333,-10
4.54167,-10
4.55000,-10
4.55833,-10
4.56667,-9
4.57500,-9
4.58333,-9
4.59167,-8
4.60000,-8
4.60833,-8
4.61667,-8
4.62500,-9
4.63333,-9
4.64167,-9
4.65000,-9
4.65833,-9
4.66667,-10
4.67500,-10
4.68333,-10
4.69167,-9
4.70000,-9
4.70833,-9
4.71667,-9
4.72500,-9
4.73333,-10
4.74167,-10
4.75000,-9
4.75833,-9
4.76667,-9
4.77500,-9
4.78333,-9
4.79167,-9
4.80000,-9
4.80833,-9
4.81667,-9
4.82500,-10
4.83333,-10
4.84167,-10
4.85000,-10
4.85833,-10
4.86667,-10
4.87500,-10
4.88333,-10
4.89167,-10
4.90000,-10
4.90833,-10
4.91667,-10
4.92500,-10
4.93333,-9
4.94167,-9
4.95000,-9
4.95833,-10
4.96667,-10
4.97500,-10
4.98333,-10
4.99167,-10
5.00000,-10
5.00833,-10
5.01667,-10
5.02500,-10
5.03333,-10
5.04167,-10
5.05000,-10
5.05833,-10
5.06667,-10
5.07500,-10
5.08333,-10
5.09167,-10
5.10000,-10
5.10833,-10
5.11667,-10
5.12500,-10
5.13333,-11
5.14167,-11
5.15000,-11
5.15833,-11
5.16667,-11
5.17500,-11
5.18333,-11
5.19167,-11
5.20000,-11
5.20833,-11
5.21667,-11
5.22500,-11
5.23333,-11
5.24167,-11
5.25000,-11
5.25833,-11
5.26667,-11
5.27500,-11
5.28333,-11
5.29167,-11
5.30000,-11
5.30833,-11
5.31667,-11
5.32500,-11
5.33333,-11
5.34167,-10
5.35000,-10
5.35833,-10
5.36667,-10
5.37500,-10
5.38333,-11
5.39167,-10
5.40000,-10
5.40833,-10
5.41667,-11
5.42500,-10
5.43333,-10
5.44167,-10
5.45000,-10
5.45833,-10
5.46667,-10
5.47500,-10
5.48333,-10
5.49167,-10
5.50000,-10
5.50833,-10
5.51667,-10
5.52500,-10
5.53333,-10
5.54167,-10
5.55000,-10
5.55833,-10
5.56667,-10
5.57500,-10
5.58333,-10
5.59167,-10
5.60000,-10
5.60833,-10
5.61667,-10
5.62500,-10
5.63333,-10
5.64167,-10
5.65000,-10
5.65833,-10
5.66667,-10
5.67500,-11
5.68333,-11
5.69167,-11
5.70000,-11
5.70833,-11
5.71667,-11
5.72500,-11
5.73333,-11
5.74167,-11
5.75000,-11
5.75833,-10
5.76667,-10
5.77500,-10
5.78333,-11
5.79167,-11
5.80000,-11
5.80833,-11
5.81667,-11
5.82500,-11
5.83333,-11
5.84167,-11
5.85000,-11
5.85833,-10
5.86667,-10
5.87500,-10
5.88333,-10
5.89167,-10
5.90000,-11
5.90833,-11
5.91667,-11
5.92500,-10
5.93333,-10
5.94167,-10
5.95000,-10
5.95833,-10
5.96667,-10
5.97500,-10
5.98333,-10
5.99167,-10
6.00000,-10
6.00833,-10
6.01667,-10
6.02500,-10
6.03333,-10
6.04167,-10
6.05000,-10
6.05833,-10
6.06667,-10
6.07500,-10
6.08333,-10
6.09167,-10
6.10000,-10
6.10833,-10
6.11667,-10
6.12500,-10
6.13333,-11
6.14167,-11
6.15000,-11
6.15833,-11
6.16667,-11
6.17500,-11
6.18333,-11
6.19167,-11
6.20000,-11
6.20833,-12
6.21667,-11
6.22500,-11
6.23333,-11
6.24167,-11
6.25000,-11
6.25833,-11
6.26667,-11
6.27500,-11
6.28333,-12
6.29167,-11
6.30000,-11
6.30833,-11
6.31667,-10
6.32500,-10
6.33333,-10
6.34167,-10
6.35000,-10
6.35833,-10
6.36667,-11
6.37500,-11
6.38333,-11
6.39167,-12
6.40000,-12
6.40833,-11
6.41667,-11
6.42500,-11
6.43333,-11
6.44167,-11
6.45000,-11
6.45833,-11
6.46667,-11
6.47500,-11
6.48333,-11
6.49167,-11
6.50000,-11
6.50833,-11
6.51667,-11
6.52500,-10
6.53333,-10
6.54167,-10
6.55000,-10
6.55833,-10
6.56667,-10
6.57500,-10
6.58333,-10
6.59167,-10
6.60000,-10
6.60833,-11
6.61667,-11
6.62500,-10
6.63333,-10
6.64167,-10
6.65000,-10
6.65833,-10
6.66667,-10
6.67500,-10
6.68333,-10
6.69167,-11
6.70000,-11
6.70833,-11
6.71667,-11
6.72500,-11
6.73333,-12
6.74167,-11
6.75000,-11
6.75833,-11
6.76667,-11
6.77500,-11
6.78333,-11
6.79167,-11
6.80000,-10
6.80833,-10
6.81667,-10
6.82500,-11
6.83333,-11
6.84167,-11
6.85000,-11
6.85833,-11
6.86667,-11
6.87500,-11
6.88333,-11
6.89167,-11
6.90000,-11
6.90833,-11
6.91667,-11
6.92500,-11
6.93333,-11
6.94167,-11
6.95000,-11
6.95833,-11
6.96667,-11
6.97500,-11
6.98333,-11
6.99167,-11
7.00000,-11
7.00833,-11
7.01667,-10
7.02500,-10
7.03333,-10
7.04167,-10
7.05000,-11
7.05833,-11
7.06667,-11
7.07500,-11
7.08333,-11
7.09167,-11
7.10000,-11
7.10833,-11
7.11667,-11
7.12500,-11
7.13333,-11
7.14167,-11
7.15000,-11
7.15833,-11
7.16667,-12
7.17500,-12
7.18333,-12
7.19167,-12
7.20000,-12
7.20833,-12
7.21667,-12
7.22500,-12
7.23333,-12
7.24167,-12
7.25000,-12
7.25833,-11
7.26667,-11
7.27500,-11
7.28333,-11
7.29167,-11
7.30000,-11
7.30833,-11
7.31667,-11
7.32500,-12
7.33333,-12
7.34167,-12
7.35000,-11
7.35833,-11
7.36667,-11
7.37500,-11
7.38333,-11
7.39167,-11
7.40000,-11
7.40833,-11
7.41667,-11
7.42500,-12
7.43333,-11
7.44167,-11
7.45000,-11
7.45833,-11
7.46667,-11
7.47500,-12
7.48333,-12
7.49167,-12
7.50000,-12
7.50833,-12
7.51667,-12
7.52500,-12
7.53333,-12
7.54167,-12
7.55000,-12
7.55833,-11
7.56667,-11
7.57500,-11
7.58333,-11
7.59167,-11
7.60000,-12
7.60833,-12
7.61667,-12
7.62500,-12
7.63333,-11
7.64167,-11
7.65000,-11
7.65833,-11
7.66667,-11
7.67500,-11
7.68333,-11
7.69167,-11
7.70000,-11
7.70833,-11
7.71667,-11
7.72500,-11
7.73333,-11
7.74167,-11
7.75000,-11
7.75833,-11
7.76667,-11
7.77500,-11
7.78333,-12
7.79167,-12
7.80000,-12
7.80833,-11
7.81667,-11
7.82500,-11
7.83333,-11
7.84167,-11
7.85000,-11
7.85833,-11
7.86667,-11
7.87500,-12
7.88333,-12
7.89167,-12
7.90000,-12
7.90833,-11
7.91667,-11
7.92500,-11
7.93333,-11
7.94167,-11
7.95000,-11
7.95833,-11
7.96667,-12
7.97500,-11
7.98333,-11
7.99167,-11
8.00000,-12
8.00833,-12
8.01667,-12
8.02500,-12
8.03333,-12
8.04167,-11
8.05000,-12
8.05833,-12
8.06667,-12
8.07500,-12
8.08333,-13
8.09167,-13
8.10000,-13
8.10833,-12
8.11667,-12
8.12500,-12
8.13333,-12
8.14167,-12
8.15000,-12
8.15833,-12
8.16667,-11
8.17500,-11
8.18333,-11
8.19167,-12
8.20000,-12
8.20833,-12
8.21667,-12
8.22500,-13
8.23333,-13
8.24167,-12
8.25000,-12
8.25833,-12
8.26667,-12
8.27500,-12
8.28333,-12
8.29167,-12
8.30000,-12
8.30833,-12
8.31667,-13
8.32500,-13
8.33333,-13
8.34167,-12
8.35000,-12
8.35833,-12
8.36667,-12
8.37500,-12
8.38333,-12
8.39167,-12
8.40000,-12
8.40833,-13
8.41667,-13
8.42500,-13
8.43333,-12
8.44167,-12
8.45000,-12
8.45833,-12
8.46667,-12
8.47500,-13
8.48333,-13
8.49167,-13
8.50000,-13
8.50833,-12
8.51667,-12
8.52500,-12
8.53333,-12
8.54167,-12
8.55000,-13
8.55833,-13
8.56667,-13
8.57500,-13
8.58333,-13
8.59167,-13
8.60000,-13
8.60833,-13
8.61667,-13
8.62500,-13
8.63333,-13
8.64167,-13
8.65000,-13
8.65833,-13
8.66667,-13
8.67500,-13
8.68333,-13
8.69167,-13
8.70000,-13
8.70833,-13
8.71667,-13
8.72500,-13
8.73333,-13
8.74167,-13
8.75000,-13
8.75833,-13
8.76667,-13
8.77500,-13
8.78333,-13
8.79167,-13
8.80000,-13
8.80833,-13
8.81667,-13
8.82500,-13
8.83333,-13
8.84167,-13
8.85000,-12
8.85833,-12
8.86667,-12
8.87500,-12
8.88333,-12
8.89167,-13
8.90000,-13
8.90833,-13
8.91667,-13
8.92500,-13
8.93333,-14
8.94167,-14
8.95000,-13
8.95833,-13
8.96667,-13
8.97500,-13
8.98333,-13
8.99167,-12
9.00000,-12
9.00833,-12
9.01667,-12
9.02500,-12
9.03333,-12
9.04167,-12
9.05000,-12
9.05833,-12
9.06667,-12
9.07500,-13
9.08333,-13
9.09167,-13
9.10000,-12
9.10833,-12
9.11667,-12
9.12500,-12
9.13333,-12
9.14167,-12
9.15000,-13
9.15833,-13
9.16667,-12
9.17500,-12
9.18333,-12
9.19167,-12
9.20000,-12
9.20833,-12
9.21667,-12
9.22500,-12
9.23333,-12
9.24167,-12
9.25000,-12
9.25833,-12
9.26667,-12
9.27500,-12
9.28333,-12
9.29167,-12
9.30000,-13
9.30833,-13
9.31667,-13
9.32500,-13
9.33333,-13
9.34167,-13
9.35000,-13
9.35833,-12
9.36667,-12
9.37500,-12
9.38333,-12
9.39167,-12
9.40000,-12
9.40833,-12
9.41667,-12
9.42500,-12
9.43333,-12
9.44167,-13
9.45000,-13
9.45833,-13
9.46667,-13
9.47500,-13
9.48333,-13
9.49167,-13
9.50000,-13
9.50833,-13
9.51667,-13
9.52500,-13
9.53333,-13
9.54167,-12
9.55000,-12
9.55833,-12
9.56667,-12
9.57500,-12
9.58333,-12
9.59167,-12
9.60000,-12
9.60833,-12
9.61667,-12
9.62500,-12
9.63333,-12
9.64167,-13
9.65000,-13
9.65833,-13
9.66667,-13
9.67500,-13
9.68333,-13
9.69167,-13
9.70000,-13
9.70833,-12
9.71667,-12
9.72500,-12
9.73333,-12
9.74167,-12
9.75000,-12
9.75833,-13
9.76667,-13
9.77500,-13
9.78333,-13
9.79167,-13
9.80000,-13
9.80833,-13
9.81667,-13
9.82500,-13
9.83333,-13
9.84167,-14
9.85000,-14
9.85833,-14
9.86667,-14
9.87500,-14
9.88333,-14
9.89167,-13
9.90000,-13
9.90833,-13
9.91667,-13
9.92500,-13
9.93333,-13
9.94167,-13
9.95000,-13
9.95833,-13
9.96667,-12
9.97500,-12
9.98333,-12
9.99167,-12
10.00000,-12
10.00833,-12
10.01667,-12
10.02500,-12
10.03333,-12
10.04167,-12
10.05000,-13
10.05833,-13
10.06667,-13
10.07500,-13
10.08333,-13
10.09167,-13
10.10000,-13
10.10833,-13
10.11667,-13
10.12500,-13
10.13333,-13
10.14167,-13
10.15000,-13
10.15833,-12
10.16667,-12
10.17500,-12
10.18333,-12
10.19167,-12
10.20000,-12
10.20833,-12
10.21667,-13
10.22500,-13
10.23333,-13
10.24167,-13
10.25000,-13
10.25833,-12
10.26667,-12
10.27500,-12
10.28333,-11
10.29167,-11
10.30000,-11
10.30833,-11
10.31667,-11
10.32500,-11
10.33333,-12
10.34167,-12
10.35000,-13
10.35833,-14
10.36667,-15
10.37500,-18
10.38333,-21
10.39167,-26
10.40000,-33
10.40833,-41
10.41667,-53
10.42500,-68
10.43333,-88
10.44167,-112
10.45000,-142
10.45833,-177
10.46667,-218
10.47500,-265
10.48333,-318
10.49167,-376
10.50000,-437
10.50833,-500
10.51667,-563
10.52500,-623
10.53333,-675
10.54167,-718
10.55000,-745
10.55833,-752
10.56667,-734
10.57500,-685
10.58333,-599
10.59167,-471
10.60000,-295
10.60833,-64
10.61667,228
10.62500,587
10.63333,1019
10.64167,1530
10.65000,2125
10.65833,2808
10.66667,3586
10.67500,4463
10.68333,5441
10.69167,6526
10.70000,7721
10.70833,9029
10.71667,10452
10.72500,11993
10.73333,13652
10.74167,15433
10.75000,17335
10.75833,19360
10.76667,21508
10.77500,23777
10.78333,26169
10.79167,28681
10.80000,31313
10.80833,34062
10.81667,36926
10.82500,39903
10.83333,42988
10.84167,46177
10.85000,49466
10.85833,52849
10.86667,56318
10.87500,59867
10.88333,63485
10.89167,67162
10.90000,70885
10.90833,74638
10.91667,78406
10.92500,82164
10.93333,85890
10.94167,89555
10.95000,93126
10.95833,96566
10.96667,99832
10.97500,102878
10.98333,105653
10.99167,108104
11.00000,110173
11.00833,111805
11.01667,112942
11.02500,113534
11.03333,113533
11.04167,112905
11.05000,111624
11.05833,109683
11.06667,107090
11.07500,103870
11.08333,100069
11.09167,95748
11.10000,90984
11.10833,85864
11.11667,80482
11.12500,74937
11.13333,69324
11.14167,63734
11.15000,58249
11.15833,52940
11.16667,47865
11.17500,43071
11.18333,38589
11.19167,34440
11.20000,30634
11.20833,27171
11.21667,24043
11.22500,21237
11.23333,18735
11.24167,16515
11.25000,14556
11.25833,12833
11.26667,11324
11.27500,10006
11.28333,8857
11.29167,7858
11.30000,6990
11.30833,6236
11.31667,5581
11.32500,5013
11.33333,4520
11.34167,4090
11.35000,3715
11.35833,3388
11.36667,3101
11.37500,2849
11.38333,2627
11.39167,2431
11.40000,2257
11.40833,2102
11.41667,1963
11.42500,1838
11.43333,1726
11.44167,1624
11.45000,1531
11.45833,1447
11.46667,1370
11.47500,1300
11.48333,1234
11.49167,1174
11.50000,1118
11.50833,1065
11.51667,1017
11.52500,972
11.53333,929
11.54167,889
11.55000,852
11.55833,817
11.56667,784
11.57500,752
11.58333,722
11.59167,694
11.60000,668
11.60833,643
11.61667,620
11.62500,598
11.63333,577
11.64167,556
11.65000,537
11.65833,519
11.66667,501
11.67500,484
11.68333,468
11.69167,453
11.70000,438
11.70833,425
11.71667,412
11.72500,400
11.73333,389
11.74167,378
11.75000,368
11.75833,359
11.76667,350
11.77500,342
11.78333,333
11.79167,326
11.80000,318
11.80833,311
11.81667,304
11.82500,298
11.83333,293
11.84167,287
11.85000,283
11.85833,278
11.86667,273
11.87500,269
11.88333,265
11.89167,261
11.90000,257
11.90833,254
11.91667,251
11.92500,248
11.93333,245
11.94167,242
11.95000,240
11.95833,237
11.96667,235
11.97500,233
11.98333,231
11.99167,229
12.00000,228
12.00833,227
12.01667,225
12.02500,223
12.03333,222
12.04167,220
12.05000,218
12.05833,217
12.06667,215
12.07500,214
12.08333,212
12.09167,210
12.10000,209
12.10833,207
12.11667,206
12.12500,204
12.13333,203
12.14167,201
12.15000,199
12.15833,197
12.16667,195
12.17500,193
12.18333,191
12.19167,189
12.20000,188
12.20833,186
12.21667,185
12.22500,184
12.23333,183
12.24167,181
12.25000,179
12.25833,178
12.26667,176
12.27500,174
12.28333,173
12.29167,171
12.30000,169
12.30833,168
12.31667,166
12.32500,165
12.33333,163
12.34167,161
12.35000,159
12.35833,158
12.36667,156
12.37500,155
12.38333,153
12.39167,152
12.40000,150
12.40833,148
12.41667,147
12.42500,146
12.43333,144
12.44167,143
12.45000,142
12.45833,140
12.46667,139
12.47500,137
12.48333,136
12.49167,135
12.50000,133
12.50833,132
12.51667,130
12.52500,129
12.53333,128
12.54167,126
12.55000,125
12.55833,124
12.56667,122
12.57500,121
12.58333,119
12.59167,118
12.60000,117
12.60833,116
12.61667,116
12.62500,115
12.63333,115
12.64167,115
12.65000,115
12.65833,116
12.66667,117
12.67500,119
12.68333,122
12.69167,125
12.70000,130
12.70833,135
12.71667,142
12.72500,151
12.73333,161
12.74167,174
12.75000,189
12.75833,206
12.76667,226
12.77500,248
12.78333,274
12.79167,302
12.80000,335
12.80833,371
12.81667,411
12.82500,455
12.83333,503
12.84167,556
12.85000,613
12.85833,676
12.86667,743
12.87500,815
12.88333,892
12.89167,975
12.90000,1062
12.90833,1155
12.91667,1254
12.92500,1357
12.93333,1467
12.94167,1582
12.95000,1703
12.95833,1829
12.96667,1961
12.97500,2099
12.98333,2242
12.99167,2390
13.00000,2544
13.00833,2704
13.01667,2869
13.02500,3040
13.03333,3216
13.04167,3398
13.05000,3584
13.05833,3776
13.06667,3973
13.07500,4176
13.08333,4383
13.09167,4595
13.10000,4812
13.10833,5033
13.11667,5259
13.12500,5490
13.13333,5726
13.14167,5966
13.15000,6210
13.15833,6458
13.16667,6711
13.17500,6967
13.18333,7227
13.19167,7492
13.20000,7761
13.20833,8033
13.21667,8309
13.22500,8589
13.23333,8872
13.24167,9159
13.25000,9449
13.25833,9743
13.26667,10040
13.27500,10340
13.28333,10644
13.29167,10951
13.30000,11261
13.30833,11574
13.31667,11891
13.32500,12210
13.33333,12533
13.34167,12859
13.35000,13188
13.35833,13520
13.36667,13856
13.37500,14194
13.38333,14536
13.39167,14880
13.40000,15227
13.40833,15578
13.41667,15931
13.42500,16287
13.43333,16646
13.44167,17009
13.45000,17374
13.45833,17743
13.46667,18114
13.47500,18489
13.48333,18867
13.49167,19247
13.50000,19631
13.50833,20018
13.51667,20408
13.52500,20801
13.53333,21197
13.54167,21597
13.55000,22000
13.55833,22406
13.56667,22815
13.57500,23228
13.58333,23645
13.59167,24064
13.60000,24487
13.60833,24913
13.61667,25343
13.62500,25776
13.63333,26213
13.64167,26653
13.65000,27096
13.65833,27543
13.66667,27993
13.67500,28448
13.68333,28906
13.69167,29367
13.70000,29833
13.70833,30302
13.71667,30775
13.72500,31252
13.73333,31733
13.74167,32217
13.75000,32706
13.75833,33199
13.76667,33695
13.77500,34196
13.78333,34701
13.79167,35210
13.80000,35723
13.80833,36240
13.81667,36762
13.82500,37288
13.83333,37818
13.84167,38353
13.85000,38893
13.85833,39437
13.86667,39985
13.87500,40538
13.88333,41095
13.89167,41658
13.90000,42225
13.90833,42797
13.91667,43373
13.92500,43955
13.93333,44541
13.94167,45133
13.95000,45729
13.95833,46331
13.96667,46938
13.97500,47551
13.98333,48168
13.99167,48791
14.00000,49419
14.00833,50053
14.01667,50693
14.02500,51338
14.03333,51989
14.04167,52646
14.05000,53308
14.05833,53976
14.06667,54651
14.07500,55331
14.08333,56017
14.09167,56709
14.10000,57408
14.10833,58112
14.11667,58824
14.12500,59541
14.13333,60266
14.14167,60997
14.15000,61734
14.15833,62479
14.16667,63230
14.17500,63988
14.18333,64753
14.19167,65526
14.20000,66304
14.20833,67090
14.21667,67883
14.22500,68681
14.23333,69483
14.24167,70287
14.25000,71090
14.25833,71887
14.26667,72671
14.27500,73436
14.28333,74172
14.29167,74868
14.30000,75514
14.30833,76096
14.31667,76602
14.32500,77020
14.33333,77337
14.34167,77543
14.35000,77629
14.35833,77587
14.36667,77409
14.37500,77092
14.38333,76632
14.39167,76026
14.40000,75271
14.40833,74366
14.41667,73308
14.42500,72097
14.43333,70730
14.44167,69204
14.45000,67519
14.45833,65675
14.46667,63673
14.47500,61518
14.48333,59216
14.49167,56778
14.50000,54218
14.50833,51554
14.51667,48807
14.52500,45999
14.53333,43156
14.54167,40305
14.55000,37473
14.55833,34685
14.56667,31968
14.57500,29342
14.58333,26828
14.59167,24441
14.60000,22193
14.60833,20092
14.61667,18144
14.62500,16350
14.63333,14708
14.64167,13215
14.65000,11864
14.65833,10648
14.66667,9558
14.67500,8585
14.68333,7719
14.69167,6950
14.70000,6270
14.70833,5669
14.71667,5139
14.72500,4671
14.73333,4259
14.74167,3895
14.75000,3575
14.75833,3293
14.76667,3043
14.77500,2822
14.78333,2626
14.79167,2452
14.80000,2297
14.80833,2158
14.81667,2034
14.82500,1922
14.83333,1821
14.84167,1730
14.85000,1647
14.85833,1572
14.86667,1503
14.87500,1440
14.88333,1382
14.89167,1328
14.90000,1279
14.90833,1233
14.91667,1190
14.92500,1151
14.93333,1113
14.94167,1078
14.95000,1046
14.95833,1015
14.96667,986
14.97500,959
14.98333,933
14.99167,908
15.00000,885
15.00833,863
15.01667,842
15.02500,823
15.03333,804
15.04167,786
15.05000,770
15.05833,755
15.06667,740
15.07500,727
15.08333,714
15.09167,701
15.10000,690
15.10833,679
15.11667,669
15.12500,660
15.13333,652
15.14167,644
15.15000,637
15.15833,632
15.16667,627
15.17500,623
15.18333,621
15.19167,620
15.20000,622
15.20833,626
15.21667,634
15.22500,645
15.23333,660
15.24167,680
15.25000,707
15.25833,741
15.26667,783
15.27500,835
15.28333,899
15.29167,976
15.30000,1069
15.30833,1179
15.31667,1310
15.32500,1463
15.33333,1640
15.34167,1846
15.35000,2083
15.35833,2354
15.36667,2661
15.37500,3009
15.38333,3399
15.39167,3834
15.40000,4318
15.40833,4853
15.41667,5441
15.42500,6083
15.43333,6783
15.44167,7539
15.45000,8353
15.45833,9225
15.46667,10154
15.47500,11140
15.48333,12179
15.49167,13269
15.50000,14409
15.50833,15593
15.51667,16819
15.52500,18080
15.53333,19372
15.54167,20689
15.55000,22025
15.55833,23373
15.56667,24728
15.57500,26083
15.58333,27430
15.59167,28764
15.60000,30078
15.60833,31365
15.61667,32621
15.62500,33838
15.63333,35012
15.64167,36138
15.65000,37210
15.65833,38226
15.66667,39180
15.67500,40070
15.68333,40893
15.69167,41647
15.70000,42330
15.70833,42940
15.71667,43474
15.72500,43934
15.73333,44317
15.74167,44624
15.75000,44853
15.75833,45006
15.76667,45082
15.77500,45082
15.78333,45006
15.79167,44856
15.80000,44631
15.80833,44335
15.81667,43968
15.82500,43531
15.83333,43028
15.84167,42459
15.85000,41829
15.85833,41138
15.86667,40391
15.87500,39590
15.88333,38740
15.89167,37843
15.90000,36904
15.90833,35927
15.91667,34916
15.92500,33875
15.93333,32808
15.94167,31721
15.95000,30618
15.95833,29502
15.96667,28379
15.97500,27252
15.98333,26126
15.99167,25006
16.00000,23894
16.00833,22795
16.01667,21712
16.02500,20647
16.03333,19605
16.04167,18588
16.05000,17597
16.05833,16636
16.06667,15706
16.07500,14808
16.08333,13944
16.09167,13114
16.10000,12319
16.10833,11560
16.11667,10836
16.12500,10148
16.13333,9495
16.14167,8876
16.15000,8292
16.15833,7741
16.16667,7223
16.17500,6736
16.18333,6280
16.19167,5853
16.20000,5454
16.20833,5083
16.21667,4737
16.22500,4415
16.23333,4117
16.24167,3840
16.25000,3583
16.25833,3346
16.26667,3127
16.27500,2925
16.28333,2739
16.29167,2567
16.30000,2409
16.30833,2264
16.31667,2130
16.32500,2007
16.33333,1893
16.34167,1790
16.35000,1694
16.35833,1606
16.36667,1525
16.37500,1451
16.38333,1382
16.39167,1319
16.40000,1261
16.40833,1207
16.41667,1158
16.42500,1112
16.43333,1070
16.44167,1030
16.45000,994
16.45833,960
16.46667,928
16.47500,898
16.48333,871
16.49167,844
16.50000,820
16.50833,797
16.51667,775
16.52500,755
16.53333,735
16.54167,717
16.55000,699
16.55833,681
16.56667,665
16.57500,649
16.58333,633
16.59167,618
16.60000,604
16.60833,590
16.61667,576
16.62500,564
16.63333,552
16.64167,540
16.65000,528
16.65833,517
16.66667,506
16.67500,495
16.68333,485
16.69167,476
16.70000,466
16.70833,457
16.71667,448
16.72500,440
16.73333,432
16.74167,424
16.75000,416
16.75833,409
16.76667,401
16.77500,394
16.78333,387
16.79167,381
16.80000,374
16.80833,368
16.81667,362
16.82500,357
16.83333,352
16.84167,347
16.85000,342
16.85833,338
16.86667,333
16.87500,329
16.88333,324
16.89167,320
16.90000,316
16.90833,313
16.91667,310
16.92500,306
16.93333,303
16.94167,300
16.95000,297
16.95833,295
16.96667,292
16.97500,289
16.98333,287
16.99167,284
17.00000,282
17.00833,280
17.01667,278
17.02500,275
17.03333,273
17.04167,271
17.05000,269
17.05833,267
17.06667,264
17.07500,263
17.08333,261
17.09167,259
17.10000,258
17.10833,256
17.11667,254
17.12500,252
17.13333,250
17.14167,249
17.15000,247
17.15833,246
17.16667,244
17.17500,242
17.18333,240
17.19167,238
17.20000,236
17.20833,234
17.21667,233
17.22500,231
17.23333,230
17.24167,229
17.25000,227
17.25833,226
17.26667,224
17.27500,223
17.28333,221
17.29167,219
17.30000,218
17.30833,216
17.31667,214
17.32500,213
17.33333,212
17.34167,210
17.35000,209
17.35833,207
17.36667,206
17.37500,204
17.38333,202
17.39167,201
17.40000,200
17.40833,198
17.41667,196
17.42500,195
17.43333,193
17.44167,192
17.45000,190
17.45833,189
17.46667,187
17.47500,186
17.48333,184
17.49167,183
17.50000,182
17.50833,180
17.51667,179
17.52500,177
17.53333,176
17.54167,174
17.55000,173
17.55833,172
17.56667,171
17.57500,169
17.58333,169
17.59167,168
17.60000,166
17.60833,165
17.61667,163
17.62500,162
17.63333,161
17.64167,160
17.65000,159
17.65833,157
17.66667,156
17.67500,155
17.68333,153
17.69167,152
17.70000,151
17.70833,150
17.71667,149
17.72500,148
17.73333,147
17.74167,146
17.75000,145
17.75833,144
17.76667,143
17.77500,142
17.78333,141
17.79167,140
17.80000,139
17.80833,138
17.81667,137
17.82500,136
17.83333,135
17.84167,134
17.85000,134
17.85833,133
17.86667,132
17.87500,131
17.88333,130
17.89167,129
17.90000,128
17.90833,126
17.91667,126
17.92500,125
17.93333,124
17.94167,123
17.95000,123
17.95833,122
17.96667,121
17.97500,120
17.98333,120
17.99167,119
18.00000,119
18.00833,118
18.01667,118
18.02500,117
18.03333,116
18.04167,116
18.05000,115
18.05833,115
18.06667,115
18.07500,114
18.08333,113
18.09167,112
18.10000,111
18.10833,110
18.11667,110
18.12500,109
18.13333,108
18.14167,107
18.15000,107
18.15833,106
18.16667,105
18.17500,105
18.18333,104
18.19167,104
18.20000,103
18.20833,102
18.21667,102
18.22500,101
18.23333,101
18.24167,100
18.25000,100
18.25833,99
18.26667,99
18.27500,98
18.28333,98
18.29167,97
18.30000,96
18.30833,96
18.31667,95
18.32500,95
18.33333,95
18.34167,95
18.35000,94
18.35833,94
18.36667,93
18.37500,93
18.38333,92
18.39167,92
18.40000,91
18.40833,91
18.41667,90
18.42500,90
18.43333,90
18.44167,89
18.45000,89
18.45833,89
18.46667,88
18.47500,88
18.48333,88
18.49167,88
18.50000,88
18.50833,88
18.51667,87
18.52500,87
18.53333,87
18.54167,86
18.55000,85
18.55833,85
18.56667,85
18.57500,85
18.58333,85
18.59167,85
18.60000,84
18.60833,84
18.61667,84
18.62500,83
18.63333,83
18.64167,82
18.65000,82
18.65833,81
18.66667,81
18.67500,80
18.68333,80
18.69167,80
18.70000,79
18.70833,78
18.71667,78
18.72500,77
18.73333,77
18.74167,77
18.75000,77
18.75833,76
18.76667,76
18.77500,76
18.78333,75
18.79167,75
18.80000,74
18.80833,73
18.81667,73
18.82500,73
18.83333,72
18.84167,72
18.85000,72
18.85833,71
18.86667,71
18.87500,71
18.88333,70
18.89167,70
18.90000,69
18.90833,69
18.91667,69
18.92500,69
18.93333,69
18.94167,69
18.95000,69
18.95833,69
18.96667,69
18.97500,68
18.98333,67
18.99167,67
19.00000,66
19.00833,66
19.01667,66
19.02500,66
19.03333,66
19.04167,66
19.05000,66
19.05833,66
19.06667,66
19.07500,65
19.08333,65
19.09167,65
19.10000,65
19.10833,65
19.11667,65
19.12500,64
19.13333,64
19.14167,64
19.15000,64
19.15833,63
19.16667,63
19.17500,63
19.18333,63
19.19167,64
19.20000,64
19.20833,64
19.21667,64
19.22500,64
19.23333,64
19.24167,64
19.25000,63
19.25833,63
19.26667,63
19.27500,63
19.28333,63
19.29167,63
19.30000,62
19.30833,62
19.31667,61
19.32500,61
19.33333,60
19.34167,60
19.35000,60
19.35833,59
19.36667,59
19.37500,58
19.38333,58
19.39167,58
19.40000,58
19.40833,57
19.41667,57
19.42500,56
19.43333,56
19.44167,56
19.45000,56
19.45833,55
19.46667,54
19.47500,54
19.48333,53
19.49167,52
19.50000,51
19.50833,51
19.51667,50
19.52500,50
19.53333,50
19.54167,49
19.55000,49
19.55833,48
19.56667,48
19.57500,47
19.58333,47
19.59167,46
19.60000,45
19.60833,45
19.61667,44
19.62500,43
19.63333,42
19.64167,42
19.65000,41
19.65833,41
19.66667,40
19.67500,40
19.68333,39
19.69167,38
19.70000,38
19.70833,37
19.71667,37
19.72500,37
19.73333,37
19.74167,36
19.75000,36
19.75833,36
19.76667,35
19.77500,35
19.78333,34
19.79167,34
19.80000,34
19.80833,33
19.81667,33
19.82500,33
19.83333,33
19.84167,33
19.85000,32
19.85833,32
19.86667,32
19.87500,31
19.88333,31
19.89167,31
19.90000,30
19.90833,30
19.91667,30
19.92500,29
19.93333,28
19.94167,28
19.95000,29
19.95833,29
19.96667,29
19.97500,29
19.98333,29
19.99167,29
20.00000,29
20.00833,28
20.01667,28
20.02500,28
20.03333,28
20.04167,28
20.05000,28
20.05833,27
20.06667,27
20.07500,27
20.08333,28
20.09167,28
20.10000,28
20.10833,28
20.11667,28
20.12500,28
20.13333,28
20.14167,28
20.15000,28
20.15833,27
20.16667,27
20.17500,27
20.18333,27
20.19167,27
20.20000,27
20.20833,27
20.21667,27
20.22500,27
20.23333,27
20.24167,27
20.25000,27
20.25833,27
20.26667,27
20.27500,26
20.28333,26
20.29167,26
20.30000,25
20.30833,25
20.31667,25
20.32500,25
20.33333,26
20.34167,26
20.35000,26
20.35833,27
20.36667,27
20.37500,28
20.38333,29
20.39167,30
20.40000,31
20.40833,33
20.41667,34
20.42500,36
20.43333,37
20.44167,40
20.45000,42
20.45833,45
20.46667,48
20.47500,51
20.48333,55
20.49167,59
20.50000,64
20.50833,69
20.51667,75
20.52500,80
20.53333,86
20.54167,93
20.55000,99
20.55833,106
20.56667,114
20.57500,122
20.58333,131
20.59167,140
20.60000,149
20.60833,159
20.61667,169
20.62500,180
20.63333,191
20.64167,202
20.65000,214
20.65833,226
20.66667,238
20.67500,249
20.68333,261
20.69167,273
20.70000,285
20.70833,296
20.71667,308
20.72500,320
20.73333,331
20.74167,342
20.75000,354
20.75833,365
20.76667,375
20.77500,386
20.78333,396
20.79167,405
20.80000,414
20.80833,423
20.81667,431
20.82500,438
20.83333,446
20.84167,453
20.85000,460
20.85833,466
20.86667,472
20.87500,477
20.88333,482
20.89167,486
20.90000,491
20.90833,494
20.91667,498
20.92500,501
20.93333,503
20.94167,504
20.95000,506
20.95833,506
20.96667,507
20.97500,507
20.98333,506
20.99167,505
21.00000,504
21.00833,502
21.01667,500
21.02500,498
21.03333,494
21.04167,491
21.05000,487
21.05833,483
21.06667,479
21.07500,474
21.08333,469
21.09167,464
21.10000,458
21.10833,453
21.11667,446
21.12500,440
21.13333,433
21.14167,426
21.15000,419
21.15833,412
21.16667,405
21.17500,397
21.18333,390
21.19167,383
21.20000,375
21.20833,368
21.21667,360
21.22500,353
21.23333,345
21.24167,338
21.25000,330
21.25833,323
21.26667,316
21.27500,309
21.28333,302
21.29167,295
21.30000,288
21.30833,282
21.31667,276
21.32500,270
21.33333,264
21.34167,258
21.35000,252
21.35833,247
21.36667,242
21.37500,236
21.38333,231
21.39167,227
21.40000,222
21.40833,218
21.41667,214
21.42500,209
21.43333,206
21.44167,202
21.45000,198
21.45833,195
21.46667,192
21.47500,190
21.48333,188
21.49167,185
21.50000,182
21.50833,180
21.51667,177
21.52500,175
21.53333,172
21.54167,170
21.55000,167
21.55833,165
21.56667,162
21.57500,160
21.58333,157
21.59167,155
21.60000,152
21.60833,150
21.61667,148
21.62500,145
21.63333,142
21.64167,139
21.65000,136
21.65833,133
21.66667,130
21.67500,128
21.68333,125
21.69167,122
21.70000,119
21.70833,116
21.71667,113
21.72500,110
21.73333,107
21.74167,103
21.75000,100
21.75833,97
21.76667,94
21.77500,91
21.78333,88
21.79167,85
21.80000,82
21.80833,79
21.81667,76
21.82500,72
21.83333,69
21.84167,66
21.85000,63
21.85833,61
21.86667,59
21.87500,56
21.88333,54
21.89167,51
21.90000,49
21.90833,46
21.91667,44
21.92500,41
21.93333,39
21.94167,37
21.95000,36
21.95833,34
21.96667,32
21.97500,30
21.98333,29
21.99167,27
22.00000,26
22.00833,25
22.01667,23
22.02500,22
22.03333,21
22.04167,20
22.05000,19
22.05833,18
22.06667,17
22.07500,16
22.08333,16
22.09167,15
22.10000,14
22.10833,13
22.11667,13
22.12500,12
22.13333,12
22.14167,12
22.15000,11
22.15833,11
22.16667,11
22.17500,11
22.18333,10
22.19167,10
22.20000,9
22.20833,9
22.21667,9
22.22500,9
22.23333,9
22.24167,9
22.25000,9
22.25833,9
22.26667,9
22.27500,9
22.28333,9
22.29167,9
22.30000,9
22.30833,9
22.31667,10
22.32500,10
22.33333,11
22.34167,11
22.35000,12
22.35833,13
22.36667,13
22.37500,14
22.38333,15
22.39167,16
22.40000,17
22.40833,18
22.41667,18
22.42500,19
22.43333,20
22.44167,22
22.45000,24
22.45833,25
22.46667,27
22.47500,30
22.48333,33
22.49167,36
22.50000,39
22.50833,42
22.51667,45
22.52500,49
22.53333,54
22.54167,59
22.55000,64
22.55833,70
22.56667,77
22.57500,84
22.58333,91
22.59167,100
22.60000,109
22.60833,118
22.61667,129
22.62500,141
22.63333,153
22.64167,166
22.65000,180
22.65833,195
22.66667,210
22.67500,227
22.68333,245
22.69167,264
22.70000,284
22.70833,305
22.71667,327
22.72500,350
22.73333,374
22.74167,398
22.75000,424
22.75833,450
22.76667,476
22.77500,503
22.78333,531
22.79167,559
22.80000,588
22.80833,617
22.81667,647
22.82500,676
22.83333,706
22.84167,735
22.85000,765
22.85833,795
22.86667,825
22.87500,854
22.88333,883
22.89167,912
22.90000,940
22.90833,968
22.91667,995
22.92500,1021
22.93333,1047
22.94167,1072
22.95000,1096
22.95833,1120
22.96667,1143
22.97500,1165
22.98333,1186
22.99167,1206
23.00000,1225
23.00833,1243
23.01667,1261
23.02500,1277
23.03333,1292
23.04167,1305
23.05000,1318
23.05833,1329
23.06667,1340
23.07500,1349
23.08333,1357
23.09167,1364
23.10000,1369
23.10833,1373
23.11667,1376
23.12500,1378
23.13333,1377
23.14167,1376
23.15000,1374
23.15833,1370
23.16667,1364
23.17500,1357
23.18333,1349
23.19167,1339
23.20000,1327
23.20833,1315
23.21667,1301
23.22500,1285
23.23333,1269
23.24167,1251
23.25000,1231
23.25833,1211
23.26667,1189
23.27500,1166
23.28333,1142
23.29167,1117
23.30000,1091
23.30833,1065
23.31667,1037
23.32500,1009
23.33333,980
23.34167,951
23.35000,921
23.35833,892
23.36667,862
23.37500,832
23.38333,802
23.39167,772
23.40000,742
23.40833,711
23.41667,681
23.42500,652
23.43333,624
23.44167,596
23.45000,568
23.45833,540
23.46667,514
23.47500,488
23.48333,463
23.49167,438
23.50000,415
23.50833,392
23.51667,369
23.52500,348
23.53333,328
23.54167,309
23.55000,290
23.55833,272
23.56667,255
23.57500,239
23.58333,224
23.59167,210
23.60000,196
23.60833,183
23.61667,170
23.62500,158
23.63333,147
23.64167,137
23.65000,128
23.65833,119
23.66667,111
23.67500,103
23.68333,95
23.69167,88
23.70000,82
23.70833,76
23.71667,70
23.72500,65
23.73333,60
23.74167,55
23.75000,51
23.75833,47
23.76667,43
23.77500,40
23.78333,37
23.79167,34
23.80000,31
23.80833,28
23.81667,26
23.82500,25
23.83333,23
23.84167,22
23.85000,20
23.85833,18
23.86667,17
23.87500,15
23.88333,14
23.89167,13
23.90000,12
23.90833,11
23.91667,10
23.92500,10
23.93333,9
23.94167,9
23.95000,8
23.95833,8
23.96667,7
23.97500,7
23.98333,6
23.99167,5
24.00000,5
24.00833,4
24.01667,4
24.02500,4
24.03333,3
24.04167,3
24.05000,3
24.05833,3
24.06667,2
24.07500,2
24.08333,2
24.09167,1
24.10000,1
24.10833,1
24.11667,0
24.12500,0
24.13333,-0
24.14167,-1
24.15000,-1
24.15833,-0
24.16667,0
24.17500,0
24.18333,0
24.19167,0
24.20000,0
24.20833,-0
24.21667,-0
24.22500,-0
24.23333,-0
24.24167,-0
24.25000,0
24.25833,1
24.26667,2
24.27500,2
24.28333,3
24.29167,4
24.30000,5
24.30833,7
24.31667,8
24.32500,10
24.33333,13
24.34167,15
24.35000,18
24.35833,21
24.36667,25
24.37500,30
24.38333,35
24.39167,41
24.40000,48
24.40833,56
24.41667,65
24.42500,75
24.43333,86
24.44167,99
24.45000,113
24.45833,128
24.46667,145
24.47500,164
24.48333,185
24.49167,208
24.50000,233
24.50833,260
24.51667,289
24.52500,321
24.53333,356
24.54167,393
24.55000,433
24.55833,475
24.56667,521
24.57500,569
24.58333,620
24.59167,675
24.60000,732
24.60833,792
24.61667,856
24.62500,922
24.63333,992
24.64167,1064
24.65000,1139
24.65833,1217
24.66667,1298
24.67500,1380
24.68333,1465
24.69167,1552
24.70000,1641
24.70833,1732
24.71667,1823
24.72500,1917
24.73333,2011
24.74167,2105
24.75000,2200
24.75833,2295
24.76667,2390
24.77500,2485
24.78333,2579
24.79167,2673
24.80000,2766
24.80833,2858
24.81667,2949
24.82500,3038
24.83333,3125
24.84167,3210
24.85000,3294
24.85833,3375
24.86667,3455
24.87500,3531
24.88333,3606
24.89167,3678
24.90000,3747
24.90833,3814
24.91667,3877
24.92500,3938
24.93333,3996
24.94167,4051
24.95000,4103
24.95833,4153
24.96667,4199
24.97500,4243
24.98333,4283
24.99167,4321
25.00000,4356
25.00833,4387
25.01667,4415
25.02500,4440
25.03333,4462
25.04167,4481
25.05000,4496
25.05833,4509
25.06667,4517
25.07500,4523
25.08333,4524
25.09167,4522
25.10000,4516
25.10833,4507
25.11667,4494
25.12500,4478
25.13333,4457
25.14167,4433
25.15000,4405
25.15833,4373
25.16667,4338
25.17500,4298
25.18333,4256
25.19167,4209
25.20000,4159
25.20833,4105
25.21667,4047
25.22500,3986
25.23333,3922
25.24167,3855
25.25000,3785
25.25833,3712
25.26667,3636
25.27500,3558
25.28333,3478
25.29167,3396
25.30000,3312
25.30833,3226
25.31667,3138
25.32500,3050
25.33333,2961
25.34167,2871
25.35000,2781
25.35833,2690
25.36667,2599
25.37500,2508
25.38333,2417
25.39167,2328
25.40000,2239
25.40833,2151
25.41667,2063
25.42500,1977
25.43333,1893
25.44167,1810
25.45000,1729
25.45833,1650
25.46667,1574
25.47500,1499
25.48333,1426
25.49167,1355
25.50000,1286
25.50833,1219
25.51667,1155
25.52500,1093
25.53333,1034
25.54167,977
25.55000,922
25.55833,870
25.56667,819
25.57500,771
25.58333,725
25.59167,682
25.60000,640
25.60833,601
25.61667,563
25.62500,528
25.63333,495
25.64167,464
25.65000,434
25.65833,406
25.66667,380
25.67500,355
25.68333,332
25.69167,310
25.70000,290
25.70833,270
25.71667,253
25.72500,236
25.73333,220
25.74167,206
25.75000,193
25.75833,180
25.76667,168
25.77500,157
25.78333,147
25.79167,137
25.80000,128
25.80833,120
25.81667,112
25.82500,105
25.83333,98
25.84167,92
25.85000,87
25.85833,82
25.86667,77
25.87500,73
25.88333,69
25.89167,65
25.90000,61
25.90833,58
25.91667,55
25.92500,52
25.93333,50
25.94167,47
25.95000,45
25.95833,43
25.96667,41
25.97500,39
25.98333,37
25.99167,35
26.00000,33
26.00833,31
26.01667,30
26.02500,29
26.03333,28
26.04167,28
26.05000,27
26.05833,26
26.06667,25
26.07500,24
26.08333,24
26.09167,23
26.10000,22
26.10833,21
26.11667,20
26.12500,19
26.13333,18
26.14167,18
26.15000,18
26.15833,17
26.16667,17
26.17500,16
26.18333,15
26.19167,15
26.20000,14
26.20833,14
26.21667,14
26.22500,13
26.23333,13
26.24167,13
26.25000,12
26.25833,11
26.26667,11
26.27500,11
26.28333,11
26.29167,11
26.30000,11
26.30833,11
26.31667,10
26.32500,10
26.33333,9
26.34167,9
26.35000,9
26.35833,9
26.36667,9
26.37500,9
26.38333,8
26.39167,8
26.40000,8
26.40833,8
26.41667,8
26.42500,8
26.43333,8
26.44167,7
26.45000,7
26.45833,6
26.46667,5
26.47500,5
26.48333,5
26.49167,5
26.50000,5
26.50833,5
26.51667,5
26.52500,5
26.53333,5
26.54167,5
26.55000,4
26.55833,4
26.56667,4
26.57500,4
26.58333,4
26.59167,3
26.60000,4
26.60833,4
26.61667,4
26.62500,3
26.63333,3
26.64167,3
26.65000,3
26.65833,3
26.66667,3
26.67500,3
26.68333,3
26.69167,3
26.70000,3
26.70833,3
26.71667,2
26.72500,2
26.73333,2
26.74167,2
26.75000,2
26.75833,2
26.76667,2
26.77500,2
26.78333,2
26.79167,2
26.80000,2
26.80833,2
26.81667,2
26.82500,1
26.83333,1
26.84167,0
26.85000,0
26.85833,0
26.86667,0
26.87500,-0
26.88333,-0
26.89167,-0
26.90000,-0
26.90833,-1
26.91667,-1
26.92500,-1
26.93333,-1
26.94167,-0
26.95000,-0
26.95833,-0
26.96667,-1
26.97500,-1
26.98333,-1
26.99167,-1
27.00000,-1
27.00833,-1
27.01667,-1
27.02500,-1
27.03333,-1
27.04167,-1
27.05000,-1
27.05833,-1
27.06667,-1
27.07500,-2
27.08333,-2
27.09167,-3
27.10000,-4
27.10833,-4
27.11667,-5
27.12500,-5
27.13333,-6
27.14167,-7
27.15000,-7
27.15833,-8
27.16667,-8
27.17500,-9
27.18333,-9
27.19167,-9
27.20000,-10
27.20833,-10
27.21667,-10
27.22500,-11
27.23333,-12
27.24167,-13
27.25000,-14
27.25833,-15
27.26667,-15
27.27500,-16
27.28333,-17
27.29167,-18
27.30000,-19
27.30833,-21
27.31667,-22
27.32500,-23
27.33333,-24
27.34167,-25
27.35000,-26
27.35833,-27
27.36667,-29
27.37500,-30
27.38333,-31
27.39167,-33
27.40000,-35
27.40833,-36
27.41667,-38
27.42500,-40
27.43333,-41
27.44167,-43
27.45000,-45
27.45833,-46
27.46667,-48
27.47500,-50
27.48333,-52
27.49167,-54
27.50000,-56
27.50833,-58
27.51667,-60
27.52500,-62
27.53333,-64
27.54167,-66
27.55000,-68
27.55833,-70
27.56667,-72
27.57500,-74
27.58333,-76
27.59167,-78
27.60000,-81
27.60833,-82
27.61667,-84
27.62500,-86
27.63333,-88
27.64167,-90
27.65000,-93
27.65833,-95
27.66667,-97
27.67500,-99
27.68333,-100
27.69167,-102
27.70000,-104
27.70833,-106
27.71667,-108
27.72500,-109
27.73333,-111
27.74167,-112
27.75000,-114
27.75833,-115
27.76667,-116
27.77500,-118
27.78333,-119
27.79167,-120
27.80000,-122
27.80833,-123
27.81667,-124
27.82500,-124
27.83333,-124
27.84167,-125
27.85000,-126
27.85833,-127
27.86667,-127
27.87500,-128
27.88333,-128
27.89167,-129
27.90000,-129
27.90833,-129
27.91667,-129
27.92500,-129
27.93333,-129
27.94167,-128
27.95000,-128
27.95833,-127
27.96667,-127
27.97500,-126
27.98333,-125
27.99167,-125
28.00000,-124
28.00833,-122
28.01667,-121
28.02500,-120
28.03333,-120
28.04167,-119
28.05000,-119
28.05833,-117
28.06667,-116
28.07500,-114
28.08333,-113
28.09167,-112
28.10000,-110
28.10833,-108
28.11667,-106
28.12500,-105
28.13333,-103
28.14167,-101
28.15000,-99
28.15833,-98
28.16667,-96
28.17500,-95
28.18333,-93
28.19167,-92
28.20000,-90
28.20833,-88
28.21667,-86
28.22500,-84
28.23333,-83
28.24167,-81
28.25000,-79
28.25833,-78
28.26667,-76
28.27500,-74
28.28333,-73
28.29167,-71
28.30000,-69
28.30833,-67
28.31667,-65
28.32500,-63
28.33333,-62
28.34167,-60
28.35000,-59
28.35833,-58
28.36667,-57
28.37500,-55
28.38333,-54
28.39167,-52
28.40000,-51
28.40833,-50
28.41667,-49
28.42500,-48
28.43333,-47
28.44167,-46
28.45000,-45
28.45833,-44
28.46667,-43
28.47500,-42
28.48333,-41
28.49167,-40
28.50000,-39
28.50833,-38
28.51667,-37
28.52500,-36
28.53333,-35
28.54167,-35
28.55000,-34
28.55833,-33
28.56667,-33
28.57500,-32
28.58333,-31
28.59167,-31
28.60000,-31
28.60833,-30
28.61667,-30
28.62500,-29
28.63333,-28
28.64167,-28
28.65000,-28
28.65833,-28
28.66667,-27
28.67500,-26
28.68333,-26
28.69167,-25
28.70000,-25
28.70833,-24
28.71667,-24
28.72500,-24
28.73333,-24
28.74167,-24
28.75000,-24
28.75833,-23
28.76667,-23
28.77500,-23
28.78333,-23
28.79167,-23
28.80000,-23
28.80833,-23
28.81667,-22
28.82500,-23
28.83333,-23
28.84167,-22
28.85000,-22
28.85833,-22
28.86667,-22
28.87500,-22
28.88333,-23
28.89167,-23
28.90000,-23
28.90833,-22
28.91667,-22
28.92500,-22
28.93333,-22
28.94167,-22
28.95000,-22
28.95833,-22
28.96667,-22
28.97500,-22
28.98333,-22
28.99167,-23
29.00000,-23
29.00833,-23
29.01667,-23
29.02500,-24
29.03333,-24
29.04167,-24
29.05000,-24
29.05833,-25
29.06667,-25
29.07500,-24
29.08333,-25
29.09167,-25
29.10000,-25
29.10833,-26
29.11667,-27
29.12500,-28
29.13333,-28
29.14167,-29
29.15000,-29
29.15833,-30
29.16667,-30
29.17500,-30
29.18333,-30
29.19167,-31
29.20000,-32
29.20833,-32
29.21667,-33
29.22500,-34
29.23333,-34
29.24167,-35
29.25000,-36
29.25833,-36
29.26667,-37
29.27500,-38
29.28333,-39
29.29167,-39
29.30000,-40
29.30833,-40
29.31667,-40
29.32500,-40
29.33333,-40
29.34167,-41
29.35000,-41
29.35833,-41
29.36667,-42
29.37500,-43
29.38333,-44
29.39167,-45
29.40000,-45
29.40833,-45
29.41667,-46
29.42500,-46
29.43333,-47
29.44167,-47
29.45000,-48
29.45833,-48
29.46667,-49
29.47500,-49
29.48333,-49
29.49167,-50
29.50000,-50
29.50833,-51
29.51667,-51
29.52500,-51
29.53333,-52
29.54167,-52
29.55000,-53
29.55833,-53
29.56667,-53
29.57500,-53
29.58333,-53
29.59167,-53
29.60000,-53
29.60833,-53
29.61667,-53
29.62500,-54
29.63333,-54
29.64167,-54
29.65000,-54
29.65833,-54
29.66667,-55
29.67500,-55
29.68333,-55
29.69167,-55
29.70000,-55
29.70833,-55
29.71667,-55
29.72500,-55
29.73333,-55
29.74167,-55
29.75000,-55
29.75833,-54
29.76667,-54
29.77500,-54
29.78333,-53
29.79167,-53
29.80000,-53
29.80833,-53
29.81667,-53
29.82500,-53
29.83333,-53
29.84167,-53
29.85000,-53
29.85833,-53
29.86667,-53
29.87500,-53
29.88333,-54
29.89167,-54
29.90000,-54
29.90833,-55
29.91667,-56
29.92500,-56
29.93333,-56
29.94167,-57
29.95000,-58
29.95833,-58
29.96667,-59
29.97500,-59
29.98333,-60
29.99167,-61
30.00000,-61
30.00833,-62
30.01667,-63
30.02500,-64
30.03333,-65
30.04167,-66
30.05000,-67
30.05833,-68
30.06667,-70
30.07500,-71
30.08333,-73
30.09167,-75
30.10000,-77
30.10833,-79
30.11667,-81
30.12500,-83
30.13333,-85
30.14167,-87
30.15000,-89
30.15833,-92
30.16667,-94
30.17500,-97
30.18333,-99
30.19167,-102
30.20000,-104
30.20833,-107
30.21667,-110
30.22500,-113
30.23333,-116
30.24167,-119
30.25000,-122
30.25833,-125
30.26667,-128
30.27500,-131
30.28333,-134
30.29167,-137
30.30000,-141
30.30833,-144
30.31667,-148
30.32500,-152
30.33333,-155
30.34167,-158
30.35000,-162
30.35833,-165
30.36667,-168
30.37500,-172
30.38333,-175
30.39167,-179
30.40000,-182
30.40833,-185
30.41667,-189
30.42500,-192
30.43333,-195
30.44167,-198
30.45000,-201
30.45833,-204
30.46667,-207
30.47500,-209
30.48333,-212
30.49167,-215
30.50000,-217
30.50833,-219
30.51667,-222
30.52500,-224
30.53333,-227
30.54167,-229
30.55000,-231
30.55833,-233
30.56667,-234
30.57500,-236
30.58333,-237
30.59167,-239
30.60000,-240
30.60833,-241
30.61667,-242
30.62500,-243
30.63333,-244
30.64167,-245
30.65000,-246
30.65833,-247
30.66667,-247
30.67500,-247
30.68333,-247
30.69167,-247
30.70000,-247
30.70833,-246
30.71667,-246
30.72500,-245
30.73333,-244
30.74167,-243
30.75000,-242
30.75833,-241
30.76667,-240
30.77500,-238
30.78333,-237
30.79167,-235
30.80000,-233
30.80833,-232
30.81667,-230
30.82500,-227
30.83333,-225
30.84167,-223
30.85000,-221
30.85833,-218
30.86667,-216
30.87500,-213
30.88333,-210
30.89167,-207
30.90000,-204
30.90833,-201
30.91667,-199
30.92500,-195
30.93333,-192
30.94167,-189
30.95000,-186
30.95833,-182
30.96667,-179
30.97500,-175
30.98333,-171
30.99167,-168
31.00000,-165
31.00833,-161
31.01667,-158
31.02500,-154
31.03333,-151
31.04167,-148
31.05000,-144
31.05833,-141
31.06667,-138
31.07500,-134
31.08333,-131
31.09167,-128
31.10000,-125
31.10833,-122
31.11667,-119
31.12500,-116
31.13333,-113
31.14167,-110
31.15000,-106
31.15833,-103
31.16667,-100
31.17500,-97
31.18333,-95
31.19167,-92
31.20000,-89
31.20833,-87
31.21667,-85
31.22500,-82
31.23333,-80
31.24167,-77
31.25000,-75
31.25833,-73
31.26667,-71
31.27500,-69
31.28333,-67
31.29167,-65
31.30000,-64
31.30833,-62
31.31667,-61
31.32500,-59
31.33333,-57
31.34167,-56
31.35000,-55
31.35833,-54
31.36667,-52
31.37500,-51
31.38333,-50
31.39167,-48
31.40000,-47
31.40833,-45
31.41667,-44
31.42500,-42
31.43333,-41
31.44167,-40
31.45000,-39
31.45833,-37
31.46667,-36
31.47500,-35
31.48333,-34
31.49167,-33
31.50000,-31
31.50833,-30
31.51667,-28
31.52500,-26
31.53333,-24
31.54167,-22
31.55000,-20
31.55833,-18
31.56667,-16
31.57500,-13
31.58333,-11
31.59167,-8
31.60000,-5
31.60833,-2
31.61667,1
31.62500,5
31.63333,9
31.64167,12
31.65000,16
31.65833,21
31.66667,26
31.67500,31
31.68333,36
31.69167,42
31.70000,48
31.70833,54
31.71667,60
31.72500,66
31.73333,73
31.74167,80
31.75000,88
31.75833,96
31.76667,104
31.77500,113
31.78333,122
31.79167,131
31.80000,140
31.80833,150
31.81667,160
31.82500,171
31.83333,182
31.84167,192
31.85000,203
31.85833,214
31.86667,226
31.87500,238
31.88333,250
31.89167,262
31.90000,275
31.90833,287
31.91667,300
31.92500,313
31.93333,326
31.94167,339
31.95000,351
31.95833,364
31.96667,377
31.97500,390
31.98333,403
31.99167,415
32.00000,428
32.00833,441
32.01667,454
32.02500,466
32.03333,479
32.04167,491
32.05000,503
32.05833,515
32.06667,527
32.07500,539
32.08333,551
32.09167,562
32.10000,573
32.10833,584
32.11667,594
32.12500,605
32.13333,614
32.14167,624
32.15000,633
32.15833,642
32.16667,651
32.17500,659
32.18333,668
32.19167,675
32.20000,682
32.20833,690
32.21667,696
32.22500,703
32.23333,710
32.24167,716
32.25000,722
32.25833,728
32.26667,733
32.27500,737
32.28333,741
32.29167,745
32.30000,748
32.30833,751
32.31667,754
32.32500,756
32.33333,759
32.34167,760
32.35000,762
32.35833,763
32.36667,763
32.37500,764
32.38333,764
32.39167,763
32.40000,762
32.40833,761
32.41667,759
32.42500,757
32.43333,754
32.44167,751
32.45000,748
32.45833,744
32.46667,739
32.47500,734
32.48333,729
32.49167,724
32.50000,718
32.50833,712
32.51667,705
32.52500,698
32.53333,690
32.54167,682
32.55000,673
32.55833,664
32.56667,655
32.57500,645
32.58333,635
32.59167,625
32.60000,614
32.60833,604
32.61667,593
32.62500,582
32.63333,571
32.64167,559
32.65000,547
32.65833,535
32.66667,523
32.67500,510
32.68333,497
32.69167,484
32.70000,471
32.70833,459
32.71667,446
32.72500,433
32.73333,419
32.74167,406
32.75000,393
32.75833,380
32.76667,367
32.77500,355
32.78333,343
32.79167,330
32.80000,318
32.80833,306
32.81667,294
32.82500,282
32.83333,270
32.84167,259
32.85000,248
32.85833,237
32.86667,227
32.87500,216
32.88333,206
32.89167,196
32.90000,186
32.90833,177
32.91667,167
32.92500,158
32.93333,149
32.94167,141
32.95000,133
32.95833,126
32.96667,118
32.97500,110
32.98333,103
32.99167,96
33.00000,89
33.00833,83
33.01667,77
33.02500,71
33.03333,66
33.04167,61
33.05000,56
33.05833,51
33.06667,46
33.07500,42
33.08333,38
33.09167,34
33.10000,30
33.10833,26
33.11667,22
33.12500,19
33.13333,16
33.14167,13
33.15000,10
33.15833,7
33.16667,5
33.17500,3
33.18333,1
33.19167,-2
33.20000,-4
33.20833,-7
33.21667,-9
33.22500,-10
33.23333,-12
33.24167,-14
33.25000,-16
33.25833,-17
33.26667,-18
33.27500,-19
33.28333,-20
33.29167,-21
33.30000,-23
33.30833,-24
33.31667,-25
33.32500,-26
33.33333,-27
33.34167,-28
33.35000,-29
33.35833,-30
33.36667,-31
33.37500,-32
33.38333,-33
33.39167,-34
33.40000,-35
33.40833,-35
33.41667,-36
33.42500,-36
33.43333,-37
33.44167,-37
33.45000,-38
33.45833,-38
33.46667,-38
33.47500,-38
33.48333,-39
33.49167,-39
33.50000,-40
33.50833,-40
33.51667,-41
33.52500,-41
33.53333,-42
33.54167,-42
33.55000,-42
33.55833,-43
33.56667,-43
33.57500,-43
33.58333,-43
33.59167,-43
33.60000,-44
33.60833,-44
33.61667,-44
33.62500,-44
33.63333,-44
33.64167,-44
33.65000,-44
33.65833,-44
33.66667,-44
33.67500,-44
33.68333,-45
33.69167,-45
33.70000,-45
33.70833,-45
33.71667,-46
33.72500,-46
33.73333,-45
33.74167,-45
33.75000,-45
33.75833,-45
33.76667,-46
33.77500,-46
33.78333,-46
33.79167,-46
33.80000,-46
33.80833,-45
33.81667,-46
33.82500,-46
33.83333,-45
33.84167,-45
33.85000,-45
33.85833,-45
33.86667,-45
33.87500,-45
33.88333,-44
33.89167,-44
33.90000,-44
33.90833,-44
33.91667,-44
33.92500,-44
33.93333,-44
33.94167,-44
33.95000,-44
33.95833,-44
33.96667,-44
33.97500,-44
33.98333,-44
33.99167,-43
34.00000,-43
34.00833,-43
34.01667,-43
34.02500,-42
34.03333,-42
34.04167,-42
34.05000,-42
34.05833,-42
34.06667,-42
34.07500,-42
34.08333,-41
34.09167,-41
34.10000,-41
34.10833,-41
34.11667,-40
34.12500,-40
34.13333,-40
34.14167,-40
34.15000,-40
34.15833,-40
34.16667,-40
34.17500,-40
34.18333,-40
34.19167,-40
34.20000,-39
34.20833,-39
34.21667,-39
34.22500,-39
34.23333,-39
34.24167,-39
34.25000,-39
34.25833,-38
34.26667,-38
34.27500,-38
34.28333,-38
34.29167,-37
34.30000,-37
34.30833,-37
34.31667,-37
34.32500,-36
34.33333,-37
34.34167,-37
34.35000,-37
34.35833,-36
34.36667,-36
34.37500,-36
34.38333,-36
34.39167,-36
34.40000,-36
34.40833,-36
34.41667,-36
34.42500,-36
34.43333,-36
34.44167,-35
34.45000,-35
34.45833,-35
34.46667,-35
34.47500,-35
34.48333,-35
34.49167,-35
34.50000,-35
34.50833,-34
34.51667,-34
34.52500,-34
34.53333,-34
34.54167,-34
34.55000,-34
34.55833,-34
34.56667,-34
34.57500,-34
34.58333,-34
34.59167,-34
34.60000,-34
34.60833,-34
34.61667,-35
34.62500,-35
34.63333,-35
34.64167,-36
34.65000,-36
34.65833,-36
34.66667,-36
34.67500,-36
34.68333,-36
34.69167,-36
34.70000,-36
34.70833,-36
34.71667,-35
34.72500,-35
34.73333,-35
34.74167,-36
34.75000,-36
34.75833,-36
34.76667,-36
34.77500,-36
34.78333,-37
34.79167,-37
34.80000,-37
34.80833,-37
34.81667,-37
34.82500,-37
34.83333,-37
34.84167,-37
34.85000,-37
34.85833,-37
34.86667,-37
34.87500,-37
34.88333,-37
34.89167,-37
34.90000,-38
34.90833,-38
34.91667,-38
34.92500,-38
34.93333,-38
34.94167,-37
34.95000,-37
34.95833,-37
34.96667,-37
34.97500,-37
34.98333,-37
34.99167,-37
35.00000,-37
35.00833,-37
35.01667,-36
35.02500,-36
35.03333,-36
35.04167,-36
35.05000,-36
35.05833,-36
35.06667,-37
35.07500,-37
35.08333,-37
35.09167,-37
35.10000,-37
35.10833,-37
35.11667,-38
35.12500,-38
35.13333,-38
35.14167,-38
35.15000,-38
35.15833,-38
35.16667,-38
35.17500,-38
35.18333,-38
35.19167,-38
35.20000,-38
35.20833,-38
35.21667,-37
35.22500,-37
35.23333,-37
35.24167,-37
35.25000,-38
35.25833,-38
35.26667,-38
35.27500,-38
35.28333,-38
35.29167,-38
35.30000,-38
35.30833,-37
35.31667,-37
35.32500,-37
35.33333,-37
35.34167,-37
35.35000,-38
35.35833,-38
35.36667,-38
35.37500,-38
35.38333,-38
35.39167,-37
35.40000,-37
35.40833,-37
35.41667,-37
35.42500,-37
35.43333,-37
35.44167,-37
35.45000,-38
35.45833,-38
35.46667,-38
35.47500,-38
35.48333,-38
35.49167,-38
35.50000,-38
35.50833,-38
35.51667,-38
35.52500,-38
35.53333,-38
35.54167,-38
35.55000,-38
35.55833,-37
35.56667,-37
35.57500,-37
35.58333,-38
35.59167,-38
35.60000,-38
35.60833,-38
35.61667,-38
35.62500,-38
35.63333,-38
35.64167,-37
35.65000,-37
35.65833,-37
35.66667,-38
35.67500,-38
35.68333,-38
35.69167,-38
35.70000,-38
35.70833,-38
35.71667,-38
35.72500,-38
35.73333,-38
35.74167,-39
35.75000,-39
35.75833,-39
35.76667,-39
35.77500,-39
35.78333,-38
35.79167,-38
35.80000,-39
35.80833,-39
35.81667,-39
35.82500,-39
35.83333,-39
35.84167,-39
35.85000,-39
35.85833,-39
35.86667,-39
35.87500,-39
35.88333,-39
35.89167,-39
35.90000,-39
35.90833,-39
35.91667,-39
35.92500,-39
35.93333,-39
35.94167,-39
35.95000,-39
35.95833,-39
35.96667,-39
35.97500,-39
35.98333,-39
35.99167,-38
36.00000,-38
36.00833,-38
36.01667,-38
36.02500,-39
36.03333,-39
36.04167,-39
36.05000,-39
36.05833,-39
36.06667,-40
36.07500,-40
36.08333,-40
36.09167,-40
36.10000,-40
36.10833,-40
36.11667,-40
36.12500,-40
36.13333,-39
36.14167,-40
36.15000,-40
36.15833,-40
36.16667,-40
36.17500,-40
36.18333,-40
36.19167,-40
36.20000,-40
36.20833,-40
36.21667,-40
36.22500,-40
36.23333,-40
36.24167,-40
36.25000,-40
36.25833,-40
36.26667,-39
36.27500,-39
36.28333,-39
36.29167,-39
36.30000,-40
36.30833,-40
36.31667,-40
36.32500,-39
36.33333,-39
36.34167,-39
36.35000,-39
36.35833,-39
36.36667,-40
36.37500,-39
36.38333,-39
36.39167,-40
36.40000,-40
36.40833,-40
36.41667,-40
36.42500,-40
36.43333,-41
36.44167,-41
36.45000,-41
36.45833,-41
36.46667,-41
36.47500,-40
36.48333,-40
36.49167,-40
36.50000,-40
36.50833,-40
36.51667,-40
36.52500,-40
36.53333,-40
36.54167,-40
36.55000,-40
36.55833,-40
36.56667,-40
36.57500,-40
36.58333,-40
36.59167,-40
36.60000,-40
36.60833,-40
36.61667,-40
36.62500,-40
36.63333,-40
36.64167,-40
36.65000,-40
36.65833,-40
36.66667,-40
36.67500,-40
36.68333,-40
36.69167,-40
36.70000,-40
36.70833,-40
36.71667,-40
36.72500,-40
36.73333,-39
36.74167,-39
36.75000,-40
36.75833,-40
36.76667,-40
36.77500,-40
36.78333,-39
36.79167,-39
36.80000,-39
36.80833,-39
36.81667,-39
36.82500,-39
36.83333,-39
36.84167,-39
36.85000,-39
36.85833,-39
36.86667,-39
36.87500,-39
36.88333,-39
36.89167,-38
36.90000,-39
36.90833,-39
36.91667,-39
36.92500,-39
36.93333,-39
36.94167,-40
36.95000,-40
36.95833,-39
36.96667,-39
36.97500,-39
36.98333,-39
36.99167,-39
37.00000,-39
37.00833,-39
37.01667,-38
37.02500,-38
37.03333,-39
37.04167,-39
37.05000,-39
37.05833,-39
37.06667,-38
37.07500,-38
37.08333,-38
37.09167,-38
37.10000,-38
37.10833,-38
37.11667,-38
37.12500,-38
37.13333,-38
37.14167,-38
37.15000,-38
37.15833,-38
37.16667,-37
37.17500,-37
37.18333,-37
37.19167,-37
37.20000,-37
37.20833,-37
37.21667,-37
37.22500,-37
37.23333,-37
37.24167,-38
37.25000,-38
37.25833,-38
37.26667,-38
37.27500,-39
37.28333,-39
37.29167,-39
37.30000,-39
37.30833,-39
37.31667,-39
37.32500,-39
37.33333,-38
37.34167,-38
37.35000,-38
37.35833,-38
37.36667,-38
37.37500,-38
37.38333,-38
37.39167,-38
37.40000,-38
37.40833,-38
37.41667,-38
37.42500,-38
37.43333,-38
37.44167,-39
37.45000,-39
37.45833,-39
37.46667,-39
37.47500,-39
37.48333,-39
37.49167,-39
37.50000,-39
37.50833,-39
37.51667,-38
37.52500,-38
37.53333,-38
37.54167,-38
37.55000,-38
37.55833,-38
37.56667,-38
37.57500,-38
37.58333,-38
37.59167,-38
37.60000,-38
37.60833,-37
37.61667,-37
37.62500,-38
37.63333,-38
37.64167,-38
37.65000,-38
37.65833,-38
37.66667,-38
37.67500,-37
37.68333,-37
37.69167,-37
37.70000,-37
37.70833,-37
37.71667,-38
37.72500,-38
37.73333,-38
37.74167,-38
37.75000,-38
37.75833,-38
37.76667,-38
37.77500,-38
37.78333,-38
37.79167,-38
37.80000,-38
37.80833,-38
37.81667,-38
37.82500,-38
37.83333,-38
37.84167,-37
37.85000,-37
37.85833,-37
37.86667,-37
37.87500,-37
37.88333,-37
37.89167,-37
37.90000,-37
37.90833,-37
37.91667,-38
37.92500,-38
37.93333,-38
37.94167,-38
37.95000,-38
37.95833,-38
37.96667,-38
37.97500,-39
37.98333,-39
37.99167,-39
38.00000,-39
38.00833,-39
38.01667,-39
38.02500,-39
38.03333,-39
38.04167,-39
38.05000,-39
38.05833,-39
38.06667,-39
38.07500,-40
38.08333,-40
38.09167,-40
38.10000,-40
38.10833,-40
38.11667,-40
38.12500,-40
38.13333,-40
38.14167,-40
38.15000,-39
38.15833,-39
38.16667,-40
38.17500,-40
38.18333,-40
38.19167,-40
38.20000,-40
38.20833,-41
38.21667,-41
38.22500,-41
38.23333,-41
38.24167,-41
38.25000,-41
38.25833,-40
38.26667,-40
38.27500,-40
38.28333,-40
38.29167,-40
38.30000,-41
38.30833,-41
38.31667,-41
38.32500,-41
38.33333,-41
38.34167,-41
38.35000,-41
38.35833,-41
38.36667,-41
38.37500,-41
38.38333,-41
38.39167,-41
38.40000,-41
38.40833,-41
38.41667,-41
38.42500,-41
38.43333,-41
38.44167,-41
38.45000,-42
38.45833,-42
38.46667,-42
38.47500,-42
38.48333,-43
38.49167,-43
38.50000,-43
38.50833,-43
38.51667,-43
38.52500,-43
38.53333,-43
38.54167,-44
38.55000,-44
38.55833,-45
38.56667,-45
38.57500,-45
38.58333,-45
38.59167,-45
38.60000,-44
38.60833,-44
38.61667,-44
38.62500,-44
38.63333,-44
38.64167,-44
38.65000,-44
38.65833,-44
38.66667,-45
38.67500,-45
38.68333,-45
38.69167,-45
38.70000,-45
38.70833,-45
38.71667,-45
38.72500,-45
38.73333,-45
38.74167,-45
38.75000,-45
38.75833,-45
38.76667,-46
38.77500,-46
38.78333,-46
38.79167,-46
38.80000,-46
38.80833,-46
38.81667,-46
38.82500,-46
38.83333,-46
38.84167,-46
38.85000,-46
38.85833,-46
38.86667,-46
38.87500,-46
38.88333,-47
38.89167,-47
38.90000,-47
38.90833,-47
38.91667,-47
38.92500,-47
38.93333,-47
38.94167,-47
38.95000,-47
38.95833,-47
38.96667,-47
38.97500,-47
38.98333,-47
38.99167,-47
39.00000,-48
39.00833,-48
39.01667,-48
39.02500,-48
39.03333,-48
39.04167,-48
39.05000,-48
39.05833,-48
39.06667,-48
39.07500,-48
39.08333,-48
39.09167,-48
39.10000,-48
39.10833,-48
39.11667,-48
39.12500,-48
39.13333,-49
39.14167,-49
39.15000,-49
39.15833,-49
39.16667,-49
39.17500,-49
39.18333,-49
39.19167,-49
39.20000,-48
39.20833,-49
39.21667,-49
39.22500,-49
39.23333,-49
39.24167,-49
39.25000,-49
39.25833,-49
39.26667,-49
39.27500,-48
39.28333,-48
39.29167,-49
39.30000,-49
39.30833,-49
39.31667,-49
39.32500,-49
39.33333,-49
39.34167,-49
39.35000,-49
39.35833,-49
39.36667,-49
39.37500,-49
39.38333,-49
39.39167,-49
39.40000,-49
39.40833,-49
39.41667,-49
39.42500,-48
39.43333,-49
39.44167,-48
39.45000,-48
39.45833,-49
39.46667,-49
39.47500,-49
39.48333,-49
39.49167,-49
39.50000,-49
39.50833,-49
39.51667,-49
39.52500,-49
39.53333,-49
39.54167,-49
39.55000,-49
39.55833,-49
39.56667,-49
39.57500,-49
39.58333,-49
39.59167,-49
39.60000,-49
39.60833,-49
39.61667,-49
39.62500,-49
39.63333,-49
39.64167,-49
39.65000,-50
39.65833,-50
39.66667,-50
39.67500,-50
39.68333,-50
39.69167,-50
39.70000,-50
39.70833,-50
39.71667,-50
39.72500,-50
39.73333,-49
39.74167,-49
39.75000,-49
39.75833,-49
39.76667,-49
39.77500,-49
39.78333,-49
39.79167,-49
39.80000,-49
39.80833,-49
39.81667,-49
39.82500,-50
39.83333,-50
39.84167,-50
39.85000,-50
39.85833,-50
39.86667,-50
39.87500,-50
39.88333,-49
39.89167,-49
39.90000,-49
39.90833,-50
39.91667,-50
39.92500,-50
39.93333,-50
39.94167,-50
39.95000,-50
39.95833,-50
39.96667,-50
39.97500,-50
39.98333,-50
39.99167,-50
40.00000,-50
40.00833,-50
40.01667,-51
40.02500,-51
40.03333,-51
40.04167,-51
40.05000,-51
40.05833,-51
40.06667,-51
40.07500,-50
40.08333,-50
40.09167,-50
40.10000,-50
40.10833,-50
40.11667,-50
40.12500,-50
40.13333,-50
40.14167,-50
40.15000,-50
40.15833,-50
40.16667,-50
40.17500,-51
40.18333,-51
40.19167,-51
40.20000,-51
40.20833,-51
40.21667,-51
40.22500,-51
40.23333,-52
40.24167,-52
40.25000,-52
40.25833,-52
40.26667,-53
40.27500,-53
40.28333,-53
40.29167,-53
40.30000,-53
40.30833,-53
40.31667,-53
40.32500,-53
40.33333,-53
40.34167,-52
40.35000,-52
40.35833,-52
40.36667,-52
40.37500,-52
40.38333,-52
40.39167,-52
40.40000,-52
40.40833,-52
40.41667,-53
40.42500,-52
40.43333,-52
40.44167,-53
40.45000,-53
40.45833,-53
40.46667,-53
40.47500,-53
40.48333,-53
40.49167,-53
40.50000,-53
40.50833,-53
40.51667,-53
40.52500,-54
40.53333,-54
40.54167,-54
40.55000,-54
40.55833,-54
40.56667,-55
40.57500,-55
40.58333,-55
40.59167,-55
40.60000,-55
40.60833,-55
40.61667,-55
40.62500,-55
40.63333,-55
40.64167,-55
40.65000,-55
40.65833,-55
40.66667,-55
40.67500,-55
40.68333,-55
40.69167,-55
40.70000,-55
40.70833,-55
40.71667,-55
40.72500,-56
40.73333,-56
40.74167,-56
40.75000,-56
40.75833,-56
40.76667,-56
40.77500,-57
40.78333,-57
40.79167,-57
40.80000,-57
40.80833,-57
40.81667,-58
40.82500,-58
40.83333,-57
40.84167,-57
40.85000,-57
40.85833,-57
40.86667,-58
40.87500,-57
40.88333,-57
40.89167,-57
40.90000,-57
40.90833,-57
40.91667,-57
40.92500,-57
40.93333,-57
40.94167,-57
40.95000,-57
40.95833,-58
40.96667,-58
40.97500,-58
40.98333,-58
40.99167,-58
41.00000,-58
41.00833,-58
41.01667,-58
41.02500,-58
41.03333,-58
41.04167,-57
41.05000,-57
41.05833,-57
41.06667,-57
41.07500,-57
41.08333,-57
41.09167,-57
41.10000,-58
41.10833,-58
41.11667,-59
41.12500,-59
41.13333,-59
41.14167,-59
41.15000,-59
41.15833,-59
41.16667,-58
41.17500,-58
41.18333,-58
41.19167,-58
41.20000,-57
41.20833,-57
41.21667,-57
41.22500,-57
41.23333,-57
41.24167,-57
41.25000,-57
41.25833,-58
41.26667,-58
41.27500,-58
41.28333,-58
41.29167,-58
41.30000,-58
41.30833,-59
41.31667,-59
41.32500,-59
41.33333,-59
41.34167,-59
41.35000,-59
41.35833,-59
41.36667,-59
41.37500,-59
41.38333,-59
41.39167,-59
41.40000,-59
41.40833,-59
41.41667,-59
41.42500,-59
41.43333,-59
41.44167,-59
41.45000,-59
41.45833,-59
41.46667,-59
41.47500,-59
41.48333,-59
41.49167,-59
41.50000,-59
41.50833,-59
41.51667,-59
41.52500,-59
41.53333,-59
41.54167,-59
41.55000,-59
41.55833,-59
41.56667,-59
41.57500,-59
41.58333,-59
41.59167,-59
41.60000,-59
41.60833,-59
41.61667,-58
41.62500,-58
41.63333,-58
41.64167,-58
41.65000,-58
41.65833,-58
41.66667,-58
41.67500,-58
41.68333,-58
41.69167,-58
41.70000,-58
41.70833,-58
41.71667,-58
41.72500,-59
41.73333,-59
41.74167,-59
41.75000,-59
41.75833,-59
41.76667,-59
41.77500,-60
41.78333,-60
41.79167,-60
41.80000,-60
41.80833,-60
41.81667,-59
41.82500,-59
41.83333,-59
41.84167,-59
41.85000,-59
41.85833,-59
41.86667,-59
41.87500,-59
41.88333,-59
41.89167,-59
41.90000,-59
41.90833,-59
41.91667,-59
41.92500,-60
41.93333,-59
41.94167,-59
41.95000,-59
41.95833,-59
41.96667,-59
41.97500,-59
41.98333,-59
41.99167,-59
42.00000,-59
42.00833,-59
42.01667,-59
42.02500,-59
42.03333,-59
42.04167,-59
42.05000,-59
42.05833,-59
42.06667,-59
42.07500,-59
42.08333,-58
42.09167,-58
42.10000,-58
42.10833,-58
42.11667,-59
42.12500,-59
42.13333,-59
42.14167,-59
42.15000,-59
42.15833,-59
42.16667,-59
42.17500,-60
42.18333,-60
42.19167,-60
42.20000,-59
42.20833,-59
42.21667,-59
42.22500,-58
42.23333,-59
42.24167,-59
42.25000,-58
42.25833,-58
42.26667,-58
42.27500,-58
42.28333,-58
42.29167,-58
42.30000,-58
42.30833,-58
42.31667,-58
42.32500,-58
42.33333,-58
42.34167,-58
42.35000,-58
42.35833,-58
42.36667,-58
42.37500,-57
42.38333,-57
42.39167,-58
42.40000,-58
42.40833,-58
42.41667,-58
42.42500,-58
42.43333,-58
42.44167,-57
42.45000,-57
42.45833,-57
42.46667,-58
42.47500,-58
42.48333,-58
42.49167,-58
42.50000,-58
42.50833,-59
42.51667,-59
42.52500,-59
42.53333,-59
42.54167,-60
42.55000,-60
42.55833,-59
42.56667,-59
42.57500,-59
42.58333,-59
42.59167,-59
42.60000,-58
42.60833,-58
42.61667,-58
42.62500,-58
42.63333,-58
42.64167,-58
42.65000,-58
42.65833,-59
42.66667,-59
42.67500,-59
42.68333,-60
42.69167,-60
42.70000,-59
42.70833,-59
42.71667,-59
42.72500,-59
42.73333,-59
42.74167,-59
42.75000,-59
42.75833,-59
42.76667,-59
42.77500,-59
42.78333,-59
42.79167,-59
42.80000,-59
42.80833,-58
42.81667,-59
42.82500,-59
42.83333,-59
42.84167,-58
42.85000,-58
42.85833,-59
42.86667,-59
42.87500,-59
42.88333,-59
42.89167,-59
42.90000,-59
42.90833,-60
42.91667,-61
42.92500,-61
42.93333,-61
42.94167,-61
42.95000,-61
42.95833,-61
42.96667,-61
42.97500,-60
42.98333,-60
42.99167,-60
43.00000,-60
43.00833,-60
43.01667,-60
43.02500,-60
43.03333,-60
43.04167,-60
43.05000,-60
43.05833,-60
43.06667,-59
43.07500,-59
43.08333,-59
43.09167,-59
43.10000,-59
43.10833,-60
43.11667,-60
43.12500,-60
43.13333,-59
43.14167,-59
43.15000,-59
43.15833,-60
43.16667,-60
43.17500,-60
43.18333,-61
43.19167,-61
43.20000,-60
43.20833,-61
43.21667,-61
43.22500,-61
43.23333,-61
43.24167,-61
43.25000,-61
43.25833,-61
43.26667,-61
43.27500,-60
43.28333,-60
43.29167,-60
43.30000,-60
43.30833,-60
43.31667,-60
43.32500,-60
43.33333,-59
43.34167,-59
43.35000,-60
43.35833,-60
43.36667,-60
43.37500,-61
43.38333,-61
43.39167,-60
43.40000,-60
43.40833,-60
43.41667,-60
43.42500,-60
43.43333,-61
43.44167,-61
43.45000,-61
43.45833,-61
43.46667,-61
43.47500,-61
43.48333,-61
43.49167,-60
43.50000,-60
43.50833,-60
43.51667,-60
43.52500,-60
43.53333,-60
43.54167,-60
43.55000,-60
43.55833,-61
43.56667,-61
43.57500,-60
43.58333,-60
43.59167,-59
43.60000,-59
43.60833,-59
43.61667,-59
43.62500,-59
43.63333,-59
43.64167,-60
43.65000,-60
43.65833,-60
43.66667,-60
43.67500,-60
43.68333,-60
43.69167,-60
43.70000,-60
43.70833,-59
43.71667,-59
43.72500,-59
43.73333,-59
43.74167,-60
43.75000,-60
43.75833,-60
43.76667,-60
43.77500,-60
43.78333,-60
43.79167,-60
43.80000,-60
43.80833,-60
43.81667,-60
43.82500,-60
43.83333,-60
43.84167,-61
43.85000,-61
43.85833,-61
43.86667,-61
43.87500,-60
43.88333,-60
43.89167,-60
43.90000,-60
43.90833,-60
43.91667,-60
43.92500,-60
43.93333,-60
43.94167,-59
43.95000,-59
43.95833,-59
43.96667,-59
43.97500,-59
43.98333,-59
43.99167,-59
44.00000,-59
44.00833,-59
44.01667,-60
44.02500,-60
44.03333,-60
44.04167,-60
44.05000,-60
44.05833,-61
44.06667,-61
44.07500,-61
44.08333,-61
44.09167,-61
44.10000,-61
44.10833,-61
44.11667,-61
44.12500,-61
44.13333,-60
44.14167,-60
44.15000,-60
44.15833,-60
44.16667,-60
44.17500,-60
44.18333,-60
44.19167,-60
44.20000,-60
44.20833,-60
44.21667,-60
44.22500,-59
44.23333,-60
44.24167,-60
44.25000,-60
44.25833,-60
44.26667,-60
44.27500,-60
44.28333,-60
44.29167,-60
44.30000,-60
44.30833,-60
44.31667,-60
44.32500,-61
44.33333,-61
44.34167,-61
44.35000,-61
44.35833,-61
44.36667,-61
44.37500,-61
44.38333,-61
44.39167,-61
44.40000,-60
44.40833,-61
44.41667,-61
44.42500,-61
44.43333,-61
44.44167,-62
44.45000,-62
44.45833,-62
44.46667,-62
44.47500,-62
44.48333,-62
44.49167,-62
44.50000,-62
44.50833,-62
44.51667,-62
44.52500,-62
44.53333,-62
44.54167,-61
44.55000,-61
44.55833,-61
44.56667,-61
44.57500,-62
44.58333,-62
44.59167,-62
44.60000,-61
44.60833,-61
44.61667,-61
44.62500,-61
44.63333,-62
44.64167,-62
44.65000,-63
44.65833,-63
44.66667,-63
44.67500,-63
44.68333,-64
44.69167,-63
44.70000,-63
44.70833,-63
44.71667,-63
44.72500,-63
44.73333,-63
44.74167,-63
44.75000,-63
44.75833,-63
44.76667,-63
44.77500,-64
44.78333,-64
44.79167,-64
44.80000,-64
44.80833,-64
44.81667,-64
44.82500,-64
44.83333,-64
44.84167,-64
44.85000,-64
44.85833,-64
44.86667,-64
44.87500,-65
44.88333,-65
44.89167,-65
44.90000,-64
44.90833,-64
44.91667,-64
44.92500,-64
44.93333,-64
44.94167,-64
44.95000,-65
44.95833,-64
44.96667,-64
44.97500,-64
44.98333,-64
44.99167,-64
45.00000,-64
45.00833,-65
45.01667,-65
45.02500,-65
45.03333,-65
45.04167,-65
45.05000,-65
45.05833,-65
45.06667,-64
45.07500,-64
45.08333,-64
45.09167,-64
45.10000,-64
45.10833,-64
45.11667,-64
45.12500,-65
45.13333,-65
45.14167,-64
45.15000,-64
45.15833,-64
45.16667,-64
45.17500,-64
45.18333,-64
45.19167,-64
45.20000,-64
45.20833,-64
45.21667,-64
45.22500,-64
45.23333,-65
45.24167,-65
45.25000,-65
45.25833,-64
45.26667,-65
45.27500,-65
45.28333,-65
45.29167,-65
45.30000,-65
45.30833,-66
45.31667,-66
45.32500,-66
45.33333,-66
45.34167,-66
45.35000,-66
45.35833,-66
45.36667,-65
45.37500,-65
45.38333,-65
45.39167,-65
45.40000,-65
45.40833,-65
45.41667,-65
45.42500,-65
45.43333,-65
45.44167,-65
45.45000,-65
45.45833,-65
45.46667,-65
45.47500,-65
45.48333,-65
45.49167,-66
45.50000,-66
45.50833,-66
45.51667,-66
45.52500,-66
45.53333,-65
45.54167,-65
45.55000,-65
45.55833,-65
45.56667,-65
45.57500,-66
45.58333,-65
45.59167,-65
45.60000,-65
45.60833,-65
45.61667,-65
45.62500,-65
45.63333,-65
45.64167,-65
45.65000,-65
45.65833,-65
45.66667,-65
45.67500,-65
45.68333,-65
45.69167,-65
45.70000,-65
45.70833,-65
45.71667,-66
45.72500,-66
45.73333,-66
45.74167,-66
45.75000,-66
45.75833,-66
45.76667,-66
45.77500,-65
45.78333,-65
45.79167,-65
45.80000,-65
45.80833,-65
45.81667,-65
45.82500,-65
45.83333,-65
45.84167,-65
45.85000,-65
45.85833,-66
45.86667,-66
45.87500,-66
45.88333,-66
45.89167,-66
45.90000,-66
45.90833,-67
45.91667,-67
45.92500,-66
45.93333,-66
45.94167,-66
45.95000,-66
45.95833,-66
45.96667,-67
45.97500,-67
45.98333,-66
45.99167,-66
46.00000,-66
46.00833,-65
46.01667,-65
46.02500,-65
46.03333,-66
46.04167,-66
46.05000,-66
46.05833,-66
46.06667,-66
46.07500,-66
46.08333,-66
46.09167,-66
46.10000,-66
46.10833,-66
46.11667,-66
46.12500,-66
46.13333,-66
46.14167,-66
46.15000,-66
46.15833,-67
46.16667,-67
46.17500,-67
46.18333,-67
46.19167,-67
46.20000,-66
46.20833,-67
46.21667,-67
46.22500,-67
46.23333,-67
46.24167,-67
46.25000,-67
46.25833,-67
46.26667,-67
46.27500,-66
46.28333,-66
46.29167,-66
46.30000,-66
46.30833,-66
46.31667,-67
46.32500,-67
46.33333,-67
46.34167,-66
46.35000,-66
46.35833,-66
46.36667,-66
46.37500,-67
46.38333,-67
46.39167,-67
46.40000,-67
46.40833,-67
46.41667,-67
46.42500,-67
46.43333,-67
46.44167,-67
46.45000,-67
46.45833,-67
46.46667,-67
46.47500,-67
46.48333,-67
46.49167,-66
46.50000,-66
46.50833,-66
46.51667,-66
46.52500,-66
46.53333,-66
46.54167,-67
46.55000,-67
46.55833,-67
46.56667,-67
46.57500,-66
46.58333,-66
46.59167,-66
46.60000,-66
46.60833,-66
46.61667,-66
46.62500,-66
46.63333,-66
46.64167,-66
46.65000,-66
46.65833,-66
46.66667,-66
46.67500,-66
46.68333,-65
46.69167,-65
46.70000,-66
46.70833,-66
46.71667,-66
46.72500,-66
46.73333,-65
46.74167,-65
46.75000,-65
46.75833,-66
46.76667,-66
46.77500,-66
46.78333,-66
46.79167,-66
46.80000,-66
46.80833,-66
46.81667,-66
46.82500,-66
46.83333,-66
46.84167,-66
46.85000,-67
46.85833,-67
46.86667,-67
46.87500,-67
46.88333,-66
46.89167,-66
46.90000,-66
46.90833,-66
46.91667,-66
46.92500,-66
46.93333,-66
46.94167,-66
46.95000,-66
46.95833,-66
46.96667,-66
46.97500,-66
46.98333,-66
46.99167,-67
47.00000,-67
47.00833,-67
47.01667,-67
47.02500,-67
47.03333,-67
47.04167,-66
47.05000,-66
47.05833,-66
47.06667,-65
47.07500,-65
47.08333,-65
47.09167,-66
47.10000,-66
47.10833,-66
47.11667,-66
47.12500,-66
47.13333,-66
47.14167,-65
47.15000,-65
47.15833,-65
47.16667,-66
47.17500,-67
47.18333,-67
47.19167,-66
47.20000,-66
47.20833,-66
47.21667,-66
47.22500,-66
47.23333,-65
47.24167,-65
47.25000,-65
47.25833,-65
47.26667,-65
47.27500,-65
47.28333,-65
47.29167,-65
47.30000,-66
47.30833,-66
47.31667,-67
47.32500,-67
47.33333,-67
47.34167,-67
47.35000,-67
47.35833,-67
47.36667,-67
47.37500,-67
47.38333,-66
47.39167,-66
47.40000,-66
47.40833,-67
47.41667,-66
47.42500,-66
47.43333,-66
47.44167,-66
47.45000,-66
47.45833,-66
47.46667,-66
47.47500,-67
47.48333,-67
47.49167,-67
47.50000,-66
47.50833,-66
47.51667,-66
47.52500,-66
47.53333,-66
47.54167,-66
47.55000,-66
47.55833,-65
47.56667,-65
47.57500,-66
47.58333,-66
47.59167,-66
47.60000,-66
47.60833,-66
47.61667,-66
47.62500,-65
47.63333,-66
47.64167,-66
47.65000,-66
47.65833,-66
47.66667,-66
47.67500,-66
47.68333,-66
47.69167,-66
47.70000,-66
47.70833,-67
47.71667,-67
47.72500,-67
47.73333,-66
47.74167,-66
47.75000,-66
47.75833,-66
47.76667,-66
47.77500,-67
47.78333,-67
47.79167,-67
47.80000,-67
47.80833,-67
47.81667,-67
47.82500,-66
47.83333,-66
47.84167,-66
47.85000,-66
47.85833,-66
47.86667,-66
47.87500,-66
47.88333,-66
47.89167,-67
47.90000,-67
47.90833,-67
47.91667,-67
47.92500,-67
47.93333,-67
47.94167,-67
47.95000,-67
47.95833,-67
47.96667,-67
47.97500,-67
47.98333,-67
47.99167,-67
48.00000,-67
48.00833,-67
48.01667,-67
48.02500,-66
48.03333,-66
48.04167,-66
48.05000,-66
48.05833,-66
48.06667,-66
48.07500,-66
48.08333,-66
48.09167,-66
48.10000,-67
48.10833,-66
48.11667,-66
48.12500,-66
48.13333,-66
48.14167,-66
48.15000,-66
48.15833,-67
48.16667,-67
48.17500,-67
48.18333,-67
48.19167,-67
48.20000,-67
48.20833,-67
48.21667,-67
48.22500,-68
48.23333,-68
48.24167,-68
48.25000,-68
48.25833,-67
48.26667,-67
48.27500,-67
48.28333,-67
48.29167,-67
48.30000,-67
48.30833,-67
48.31667,-67
48.32500,-67
48.33333,-67
48.34167,-67
48.35000,-67
48.35833,-67
48.36667,-67
48.37500,-67
48.38333,-67
48.39167,-67
48.40000,-67
48.40833,-67
48.41667,-67
48.42500,-67
48.43333,-67
48.44167,-67
48.45000,-67
48.45833,-67
48.46667,-67
48.47500,-67
48.48333,-67
48.49167,-67
48.50000,-67
48.50833,-67
48.51667,-67
48.52500,-67
48.53333,-67
48.54167,-67
48.55000,-67
48.55833,-67
48.56667,-67
48.57500,-67
48.58333,-67
48.59167,-67
48.60000,-67
48.60833,-67
48.61667,-67
48.62500,-67
48.63333,-66
48.64167,-67
48.65000,-67
48.65833,-67
48.66667,-67
48.67500,-67
48.68333,-67
48.69167,-67
48.70000,-67
48.70833,-67
48.71667,-67
48.72500,-67
48.73333,-67
48.74167,-67
48.75000,-67
48.75833,-66
48.76667,-66
48.77500,-66
48.78333,-66
48.79167,-66
48.80000,-67
48.80833,-67
48.81667,-67
48.82500,-67
48.83333,-66
48.84167,-66
48.85000,-66
48.85833,-66
48.86667,-66
48.87500,-66
48.88333,-66
48.89167,-66
48.90000,-66
48.90833,-66
48.91667,-66
48.92500,-66
48.93333,-66
48.94167,-66
48.95000,-66
48.95833,-66
48.96667,-66
48.97500,-66
48.98333,-66
48.99167,-66
49.00000,-67
49.00833,-67
49.01667,-67
49.02500,-67
49.03333,-67
49.04167,-68
49.05000,-68
49.05833,-68
49.06667,-68
49.07500,-68
49.08333,-68
49.09167,-67
49.10000,-67
49.10833,-67
49.11667,-67
49.12500,-67
49.13333,-67
49.14167,-67
49.15000,-67
49.15833,-67
49.16667,-67
49.17500,-67
49.18333,-67
49.19167,-66
49.20000,-67
49.20833,-67
49.21667,-67
49.22500,-67
49.23333,-67
49.24167,-67
49.25000,-67
49.25833,-67
49.26667,-67
49.27500,-66
49.28333,-66
49.29167,-65
49.30000,-65
49.30833,-65
49.31667,-65
49.32500,-65
49.33333,-65
49.34167,-65
49.35000,-65
49.35833,-65
49.36667,-65
49.37500,-65
49.38333,-65
49.39167,-65
49.40000,-66
49.40833,-66
49.41667,-66
49.42500,-66
49.43333,-66
49.44167,-66
49.45000,-66
49.45833,-66
49.46667,-66
49.47500,-66
49.48333,-66
49.49167,-66
49.50000,-67
49.50833,-67
49.51667,-67
49.52500,-67
49.53333,-67
49.54167,-67
49.55000,-67
49.55833,-67
49.56667,-67
49.57500,-67
49.58333,-66
49.59167,-66
49.60000,-65
49.60833,-65
49.61667,-65
49.62500,-65
49.63333,-65
49.64167,-65
49.65000,-64
49.65833,-64
49.66667,-64
49.67500,-64
49.68333,-64
49.69167,-65
49.70000,-65
49.70833,-65
49.71667,-65
49.72500,-66
49.73333,-66
49.74167,-66
49.75000,-66
49.75833,-66
49.76667,-66
49.77500,-66
49.78333,-66
49.79167,-66
49.80000,-66
49.80833,-66
49.81667,-65
49.82500,-65
49.83333,-65
49.84167,-65
49.85000,-65
49.85833,-65
49.86667,-65
49.87500,-65
49.88333,-65
49.89167,-65
49.90000,-64
49.90833,-65
49.91667,-65
49.92500,-65
49.93333,-64
49.94167,-65
49.95000,-65
49.95833,-65
49.96667,-64
49.97500,-64
49.98333,-64
49.99167,-64
50.00000,-64

