[Header]
Application Name,LabSolutions
Version,5.97 SP1
Data File Name,C:\Users\cremerlab\Desktop\Richa\Oct_18th_2022_yield_expt\Oct 18th 2022 yield expt_10182022_001_003.lcd
Output Date,10/18/2022
Output Time,7:22:02 PM

[File Information]
Type,Data File
Generated,10/18/2022 6:31:43 PM
Generated by,System Administrator
Modified,10/18/2022 7:22:02 PM
Modified by,System Administrator

[Sample Information]
Operator Name,System Administrator
Acquired,10/18/2022 6:32:01 PM
Sample Type,0:Unknown
Level,0
Sample Name,101822_NCM_2
Sample ID,001
ISTD Amount1,1
ISTD Amount2,1
ISTD Amount3,1
ISTD Amount4,1
ISTD Amount5,1
ISTD Amount6,1
ISTD Amount7,1
ISTD Amount8,1
ISTD Amount9,1
ISTD Amount10,1
ISTD Amount11,1
ISTD Amount12,1
ISTD Amount13,1
ISTD Amount14,1
ISTD Amount15,1
ISTD Amount16,1
ISTD Amount17,1
ISTD Amount18,1
ISTD Amount19,1
ISTD Amount20,1
ISTD Amount21,1
ISTD Amount22,1
ISTD Amount23,1
ISTD Amount24,1
ISTD Amount25,1
ISTD Amount26,1
ISTD Amount27,1
ISTD Amount28,1
ISTD Amount29,1
ISTD Amount30,1
ISTD Amount31,1
ISTD Amount32,1
Sample Amount,1
Dilution Factor,1
Vial#,2
Injection Volume,20

[Original Files]
Data File,C:\Users\cremerlab\Desktop\Richa\Oct_18th_2022_yield_expt\Oct 18th 2022 yield expt_10182022_001_003.lcd
Method File,C:\Users\cremerlab\Desktop\Richa\acetate_excretion.lcm
Batch File,C:\Users\cremerlab\Desktop\Richa\Oct_18th_2022_yield_expt\Oct 18th 2022 yield expt.lcb
Report Format File,c:\LabSolutions\System\DEFAULT.lsr

[File Description]


[Configuration]
Instrument Name,HPLC-PC-Instrument1
Instrument #,1
Line #,1
# of Detectors,2
Detector ID,Detector A,Detector B
Detector Name,Detector A,Detector B
# of Channels,1,1

[Peak Table(Detector A)]
# of Peaks,0

[Peak Table(Detector B)]
# of Peaks,7
Peak#,R.Time,I.Time,F.Time,Area,Height,A/H,Conc.,Mark,ID#,Name,k',Plate #,Plate Ht.,Tailing,Resolution,Sep.Factor,Area Ratio,Height Ratio,Conc. %,Norm Conc.
1,11.028,10.558,12.625,2203524,114122,19.309,0.000,   ,,,0.000,7769,19.308,0.922,0.000,0.000,0,0,0.000,0.000
2,14.349,12.625,15.183,3694586,77879,47.440,0.000, V ,,,0.301,2448,61.278,0.652,4.000,0.000,0,0,0.000,0.000
3,15.770,15.183,18.150,1493400,50001,29.867,0.000, V ,,,0.430,6779,22.126,1.146,1.474,1.428,0,0,0.000,0.000
4,20.961,20.433,22.142,12361,262,47.107,0.000,   ,,,0.901,4861,30.857,1.580,5.274,2.095,0,0,0.000,0.000
5,23.122,22.458,23.933,24969,688,36.268,0.000,   ,,,1.097,9192,16.318,1.021,1.994,1.218,0,0,0.000,0.000
6,25.083,24.283,26.167,157512,3948,39.900,0.000,   ,,,1.274,9176,16.348,1.048,1.949,1.162,0,0,0.000,0.000
7,32.384,30.725,33.375,45203,688,65.658,0.000,   ,,,1.937,7310,20.519,0.780,5.699,1.520,0,0,0.000,0.000

[LC Chromatogram(Detector B-Ch1)]
Interval(msec),500
# of Points,6001
Start Time(min),0.000
End Time(min),50.000
Intensity Units,mV
Intensity Multiplier,0.001
R.Time (min),Intensity
0.00000,0
0.00833,0
0.01667,0
0.02500,0
0.03333,1
0.04167,1
0.05000,1
0.05833,0
0.06667,-0
0.07500,-0
0.08333,-0
0.09167,-0
0.10000,-0
0.10833,0
0.11667,1
0.12500,1
0.13333,1
0.14167,1
0.15000,1
0.15833,0
0.16667,0
0.17500,-0
0.18333,-0
0.19167,-0
0.20000,-1
0.20833,-1
0.21667,-0
0.22500,-0
0.23333,-0
0.24167,-1
0.25000,-1
0.25833,-1
0.26667,-1
0.27500,-1
0.28333,-1
0.29167,-1
0.30000,-1
0.30833,-1
0.31667,-1
0.32500,-1
0.33333,-1
0.34167,-1
0.35000,-1
0.35833,-1
0.36667,-1
0.37500,-1
0.38333,-1
0.39167,-2
0.40000,-2
0.40833,-2
0.41667,-2
0.42500,-2
0.43333,-1
0.44167,-1
0.45000,-1
0.45833,-1
0.46667,-2
0.47500,-2
0.48333,-2
0.49167,-2
0.50000,-2
0.50833,-2
0.51667,-2
0.52500,-1
0.53333,-1
0.54167,-2
0.55000,-2
0.55833,-2
0.56667,-2
0.57500,-2
0.58333,-2
0.59167,-3
0.60000,-3
0.60833,-2
0.61667,-2
0.62500,-2
0.63333,-2
0.64167,-2
0.65000,-3
0.65833,-3
0.66667,-3
0.67500,-3
0.68333,-3
0.69167,-3
0.70000,-3
0.70833,-3
0.71667,-4
0.72500,-4
0.73333,-4
0.74167,-4
0.75000,-4
0.75833,-4
0.76667,-4
0.77500,-5
0.78333,-5
0.79167,-5
0.80000,-5
0.80833,-5
0.81667,-5
0.82500,-5
0.83333,-6
0.84167,-6
0.85000,-6
0.85833,-6
0.86667,-6
0.87500,-6
0.88333,-6
0.89167,-6
0.90000,-6
0.90833,-7
0.91667,-7
0.92500,-7
0.93333,-7
0.94167,-7
0.95000,-8
0.95833,-7
0.96667,-7
0.97500,-7
0.98333,-7
0.99167,-7
1.00000,-7
1.00833,-7
1.01667,-7
1.02500,-7
1.03333,-7
1.04167,-7
1.05000,-7
1.05833,-6
1.06667,-6
1.07500,-7
1.08333,-7
1.09167,-7
1.10000,-7
1.10833,-7
1.11667,-7
1.12500,-7
1.13333,-8
1.14167,-9
1.15000,-9
1.15833,-9
1.16667,-9
1.17500,-9
1.18333,-10
1.19167,-10
1.20000,-10
1.20833,-10
1.21667,-10
1.22500,-10
1.23333,-10
1.24167,-10
1.25000,-10
1.25833,-10
1.26667,-10
1.27500,-11
1.28333,-11
1.29167,-11
1.30000,-11
1.30833,-11
1.31667,-11
1.32500,-11
1.33333,-11
1.34167,-11
1.35000,-12
1.35833,-12
1.36667,-12
1.37500,-12
1.38333,-12
1.39167,-12
1.40000,-12
1.40833,-12
1.41667,-12
1.42500,-12
1.43333,-13
1.44167,-13
1.45000,-13
1.45833,-13
1.46667,-13
1.47500,-13
1.48333,-12
1.49167,-13
1.50000,-13
1.50833,-13
1.51667,-13
1.52500,-14
1.53333,-14
1.54167,-14
1.55000,-14
1.55833,-14
1.56667,-13
1.57500,-13
1.58333,-14
1.59167,-14
1.60000,-14
1.60833,-14
1.61667,-14
1.62500,-14
1.63333,-14
1.64167,-14
1.65000,-14
1.65833,-15
1.66667,-15
1.67500,-15
1.68333,-15
1.69167,-15
1.70000,-15
1.70833,-15
1.71667,-15
1.72500,-16
1.73333,-16
1.74167,-16
1.75000,-16
1.75833,-16
1.76667,-16
1.77500,-16
1.78333,-16
1.79167,-16
1.80000,-16
1.80833,-16
1.81667,-16
1.82500,-16
1.83333,-16
1.84167,-16
1.85000,-16
1.85833,-16
1.86667,-16
1.87500,-17
1.88333,-17
1.89167,-17
1.90000,-17
1.90833,-17
1.91667,-17
1.92500,-17
1.93333,-17
1.94167,-17
1.95000,-17
1.95833,-17
1.96667,-17
1.97500,-17
1.98333,-17
1.99167,-17
2.00000,-17
2.00833,-17
2.01667,-18
2.02500,-18
2.03333,-18
2.04167,-18
2.05000,-18
2.05833,-18
2.06667,-18
2.07500,-18
2.08333,-19
2.09167,-19
2.10000,-19
2.10833,-19
2.11667,-18
2.12500,-18
2.13333,-19
2.14167,-19
2.15000,-18
2.15833,-18
2.16667,-18
2.17500,-18
2.18333,-18
2.19167,-19
2.20000,-19
2.20833,-19
2.21667,-19
2.22500,-19
2.23333,-19
2.24167,-18
2.25000,-19
2.25833,-19
2.26667,-18
2.27500,-18
2.28333,-18
2.29167,-18
2.30000,-19
2.30833,-19
2.31667,-19
2.32500,-18
2.33333,-18
2.34167,-18
2.35000,-19
2.35833,-19
2.36667,-20
2.37500,-20
2.38333,-20
2.39167,-20
2.40000,-20
2.40833,-20
2.41667,-20
2.42500,-19
2.43333,-19
2.44167,-20
2.45000,-20
2.45833,-20
2.46667,-20
2.47500,-20
2.48333,-20
2.49167,-20
2.50000,-20
2.50833,-20
2.51667,-21
2.52500,-21
2.53333,-20
2.54167,-20
2.55000,-20
2.55833,-20
2.56667,-20
2.57500,-20
2.58333,-20
2.59167,-20
2.60000,-20
2.60833,-21
2.61667,-21
2.62500,-21
2.63333,-21
2.64167,-21
2.65000,-21
2.65833,-21
2.66667,-22
2.67500,-22
2.68333,-22
2.69167,-22
2.70000,-22
2.70833,-22
2.71667,-22
2.72500,-22
2.73333,-22
2.74167,-22
2.75000,-22
2.75833,-22
2.76667,-22
2.77500,-21
2.78333,-21
2.79167,-22
2.80000,-22
2.80833,-22
2.81667,-22
2.82500,-22
2.83333,-22
2.84167,-22
2.85000,-22
2.85833,-22
2.86667,-22
2.87500,-23
2.88333,-23
2.89167,-23
2.90000,-23
2.90833,-23
2.91667,-23
2.92500,-23
2.93333,-23
2.94167,-23
2.95000,-22
2.95833,-22
2.96667,-22
2.97500,-22
2.98333,-22
2.99167,-22
3.00000,-23
3.00833,-23
3.01667,-23
3.02500,-23
3.03333,-23
3.04167,-23
3.05000,-22
3.05833,-23
3.06667,-23
3.07500,-23
3.08333,-23
3.09167,-23
3.10000,-24
3.10833,-24
3.11667,-24
3.12500,-25
3.13333,-25
3.14167,-25
3.15000,-25
3.15833,-25
3.16667,-25
3.17500,-25
3.18333,-24
3.19167,-24
3.20000,-24
3.20833,-24
3.21667,-24
3.22500,-24
3.23333,-24
3.24167,-24
3.25000,-24
3.25833,-24
3.26667,-25
3.27500,-25
3.28333,-25
3.29167,-25
3.30000,-25
3.30833,-25
3.31667,-25
3.32500,-25
3.33333,-25
3.34167,-26
3.35000,-25
3.35833,-26
3.36667,-26
3.37500,-26
3.38333,-26
3.39167,-26
3.40000,-26
3.40833,-26
3.41667,-26
3.42500,-26
3.43333,-25
3.44167,-25
3.45000,-25
3.45833,-25
3.46667,-25
3.47500,-26
3.48333,-26
3.49167,-26
3.50000,-26
3.50833,-26
3.51667,-26
3.52500,-26
3.53333,-26
3.54167,-25
3.55000,-25
3.55833,-26
3.56667,-26
3.57500,-26
3.58333,-27
3.59167,-27
3.60000,-27
3.60833,-27
3.61667,-26
3.62500,-26
3.63333,-26
3.64167,-26
3.65000,-27
3.65833,-27
3.66667,-27
3.67500,-27
3.68333,-27
3.69167,-27
3.70000,-28
3.70833,-28
3.71667,-28
3.72500,-28
3.73333,-28
3.74167,-28
3.75000,-28
3.75833,-28
3.76667,-28
3.77500,-28
3.78333,-29
3.79167,-29
3.80000,-29
3.80833,-29
3.81667,-28
3.82500,-29
3.83333,-28
3.84167,-28
3.85000,-28
3.85833,-28
3.86667,-28
3.87500,-28
3.88333,-27
3.89167,-27
3.90000,-27
3.90833,-27
3.91667,-27
3.92500,-28
3.93333,-27
3.94167,-27
3.95000,-28
3.95833,-28
3.96667,-28
3.97500,-28
3.98333,-28
3.99167,-28
4.00000,-29
4.00833,-29
4.01667,-28
4.02500,-28
4.03333,-28
4.04167,-28
4.05000,-28
4.05833,-29
4.06667,-29
4.07500,-29
4.08333,-29
4.09167,-29
4.10000,-29
4.10833,-29
4.11667,-29
4.12500,-29
4.13333,-29
4.14167,-29
4.15000,-29
4.15833,-29
4.16667,-28
4.17500,-28
4.18333,-29
4.19167,-29
4.20000,-29
4.20833,-30
4.21667,-30
4.22500,-29
4.23333,-29
4.24167,-29
4.25000,-29
4.25833,-29
4.26667,-30
4.27500,-30
4.28333,-30
4.29167,-30
4.30000,-30
4.30833,-31
4.31667,-31
4.32500,-31
4.33333,-31
4.34167,-30
4.35000,-30
4.35833,-31
4.36667,-31
4.37500,-31
4.38333,-31
4.39167,-31
4.40000,-30
4.40833,-31
4.41667,-31
4.42500,-31
4.43333,-31
4.44167,-31
4.45000,-31
4.45833,-30
4.46667,-30
4.47500,-30
4.48333,-31
4.49167,-31
4.50000,-31
4.50833,-31
4.51667,-31
4.52500,-31
4.53333,-31
4.54167,-31
4.55000,-31
4.55833,-31
4.56667,-31
4.57500,-32
4.58333,-31
4.59167,-31
4.60000,-31
4.60833,-31
4.61667,-32
4.62500,-32
4.63333,-32
4.64167,-32
4.65000,-32
4.65833,-32
4.66667,-33
4.67500,-32
4.68333,-32
4.69167,-32
4.70000,-32
4.70833,-32
4.71667,-32
4.72500,-32
4.73333,-32
4.74167,-32
4.75000,-32
4.75833,-32
4.76667,-32
4.77500,-32
4.78333,-32
4.79167,-33
4.80000,-33
4.80833,-33
4.81667,-33
4.82500,-33
4.83333,-33
4.84167,-33
4.85000,-33
4.85833,-33
4.86667,-33
4.87500,-33
4.88333,-33
4.89167,-34
4.90000,-34
4.90833,-33
4.91667,-33
4.92500,-33
4.93333,-33
4.94167,-34
4.95000,-34
4.95833,-34
4.96667,-34
4.97500,-34
4.98333,-34
4.99167,-34
5.00000,-34
5.00833,-34
5.01667,-34
5.02500,-34
5.03333,-34
5.04167,-34
5.05000,-34
5.05833,-34
5.06667,-34
5.07500,-34
5.08333,-34
5.09167,-34
5.10000,-34
5.10833,-35
5.11667,-35
5.12500,-35
5.13333,-35
5.14167,-35
5.15000,-34
5.15833,-34
5.16667,-34
5.17500,-35
5.18333,-35
5.19167,-35
5.20000,-35
5.20833,-35
5.21667,-35
5.22500,-34
5.23333,-34
5.24167,-34
5.25000,-34
5.25833,-34
5.26667,-34
5.27500,-34
5.28333,-34
5.29167,-34
5.30000,-35
5.30833,-35
5.31667,-35
5.32500,-36
5.33333,-36
5.34167,-36
5.35000,-36
5.35833,-36
5.36667,-37
5.37500,-37
5.38333,-37
5.39167,-37
5.40000,-36
5.40833,-36
5.41667,-35
5.42500,-36
5.43333,-36
5.44167,-36
5.45000,-36
5.45833,-36
5.46667,-36
5.47500,-36
5.48333,-36
5.49167,-36
5.50000,-37
5.50833,-37
5.51667,-37
5.52500,-37
5.53333,-37
5.54167,-37
5.55000,-36
5.55833,-36
5.56667,-37
5.57500,-37
5.58333,-36
5.59167,-36
5.60000,-37
5.60833,-37
5.61667,-37
5.62500,-37
5.63333,-37
5.64167,-37
5.65000,-37
5.65833,-37
5.66667,-37
5.67500,-37
5.68333,-37
5.69167,-36
5.70000,-36
5.70833,-36
5.71667,-36
5.72500,-36
5.73333,-37
5.74167,-37
5.75000,-37
5.75833,-37
5.76667,-37
5.77500,-37
5.78333,-37
5.79167,-37
5.80000,-37
5.80833,-37
5.81667,-37
5.82500,-37
5.83333,-37
5.84167,-37
5.85000,-37
5.85833,-37
5.86667,-38
5.87500,-38
5.88333,-38
5.89167,-38
5.90000,-38
5.90833,-38
5.91667,-38
5.92500,-38
5.93333,-38
5.94167,-37
5.95000,-37
5.95833,-37
5.96667,-37
5.97500,-37
5.98333,-37
5.99167,-37
6.00000,-37
6.00833,-37
6.01667,-37
6.02500,-38
6.03333,-38
6.04167,-38
6.05000,-38
6.05833,-38
6.06667,-38
6.07500,-39
6.08333,-39
6.09167,-39
6.10000,-39
6.10833,-39
6.11667,-39
6.12500,-39
6.13333,-39
6.14167,-39
6.15000,-39
6.15833,-39
6.16667,-39
6.17500,-39
6.18333,-39
6.19167,-39
6.20000,-39
6.20833,-39
6.21667,-39
6.22500,-39
6.23333,-39
6.24167,-39
6.25000,-40
6.25833,-40
6.26667,-40
6.27500,-40
6.28333,-41
6.29167,-40
6.30000,-40
6.30833,-40
6.31667,-40
6.32500,-40
6.33333,-40
6.34167,-40
6.35000,-41
6.35833,-40
6.36667,-40
6.37500,-41
6.38333,-41
6.39167,-41
6.40000,-41
6.40833,-41
6.41667,-41
6.42500,-41
6.43333,-41
6.44167,-41
6.45000,-41
6.45833,-41
6.46667,-41
6.47500,-41
6.48333,-41
6.49167,-41
6.50000,-41
6.50833,-41
6.51667,-41
6.52500,-41
6.53333,-41
6.54167,-41
6.55000,-41
6.55833,-41
6.56667,-40
6.57500,-40
6.58333,-40
6.59167,-40
6.60000,-40
6.60833,-40
6.61667,-40
6.62500,-40
6.63333,-40
6.64167,-40
6.65000,-41
6.65833,-41
6.66667,-41
6.67500,-42
6.68333,-41
6.69167,-41
6.70000,-41
6.70833,-41
6.71667,-41
6.72500,-41
6.73333,-41
6.74167,-41
6.75000,-42
6.75833,-42
6.76667,-42
6.77500,-42
6.78333,-43
6.79167,-42
6.80000,-42
6.80833,-42
6.81667,-42
6.82500,-42
6.83333,-42
6.84167,-42
6.85000,-42
6.85833,-43
6.86667,-43
6.87500,-43
6.88333,-43
6.89167,-42
6.90000,-42
6.90833,-42
6.91667,-42
6.92500,-42
6.93333,-42
6.94167,-42
6.95000,-42
6.95833,-42
6.96667,-42
6.97500,-42
6.98333,-42
6.99167,-42
7.00000,-42
7.00833,-42
7.01667,-43
7.02500,-43
7.03333,-43
7.04167,-43
7.05000,-43
7.05833,-43
7.06667,-43
7.07500,-43
7.08333,-43
7.09167,-43
7.10000,-43
7.10833,-43
7.11667,-43
7.12500,-43
7.13333,-43
7.14167,-43
7.15000,-42
7.15833,-43
7.16667,-43
7.17500,-43
7.18333,-43
7.19167,-43
7.20000,-44
7.20833,-44
7.21667,-44
7.22500,-44
7.23333,-44
7.24167,-44
7.25000,-44
7.25833,-44
7.26667,-44
7.27500,-44
7.28333,-44
7.29167,-44
7.30000,-44
7.30833,-44
7.31667,-44
7.32500,-45
7.33333,-45
7.34167,-44
7.35000,-44
7.35833,-44
7.36667,-44
7.37500,-44
7.38333,-44
7.39167,-45
7.40000,-45
7.40833,-45
7.41667,-44
7.42500,-44
7.43333,-44
7.44167,-44
7.45000,-44
7.45833,-44
7.46667,-44
7.47500,-44
7.48333,-44
7.49167,-44
7.50000,-45
7.50833,-45
7.51667,-45
7.52500,-45
7.53333,-45
7.54167,-45
7.55000,-45
7.55833,-45
7.56667,-45
7.57500,-44
7.58333,-44
7.59167,-44
7.60000,-44
7.60833,-44
7.61667,-44
7.62500,-44
7.63333,-44
7.64167,-45
7.65000,-45
7.65833,-45
7.66667,-45
7.67500,-45
7.68333,-45
7.69167,-46
7.70000,-46
7.70833,-46
7.71667,-46
7.72500,-46
7.73333,-46
7.74167,-46
7.75000,-46
7.75833,-46
7.76667,-46
7.77500,-46
7.78333,-46
7.79167,-46
7.80000,-46
7.80833,-46
7.81667,-46
7.82500,-46
7.83333,-46
7.84167,-46
7.85000,-46
7.85833,-45
7.86667,-46
7.87500,-45
7.88333,-45
7.89167,-45
7.90000,-45
7.90833,-45
7.91667,-45
7.92500,-45
7.93333,-45
7.94167,-45
7.95000,-45
7.95833,-45
7.96667,-46
7.97500,-46
7.98333,-46
7.99167,-46
8.00000,-46
8.00833,-46
8.01667,-46
8.02500,-46
8.03333,-46
8.04167,-46
8.05000,-46
8.05833,-45
8.06667,-46
8.07500,-46
8.08333,-47
8.09167,-47
8.10000,-47
8.10833,-47
8.11667,-47
8.12500,-47
8.13333,-47
8.14167,-47
8.15000,-47
8.15833,-47
8.16667,-47
8.17500,-46
8.18333,-46
8.19167,-46
8.20000,-46
8.20833,-47
8.21667,-47
8.22500,-47
8.23333,-47
8.24167,-47
8.25000,-47
8.25833,-47
8.26667,-47
8.27500,-47
8.28333,-47
8.29167,-47
8.30000,-47
8.30833,-47
8.31667,-47
8.32500,-47
8.33333,-48
8.34167,-48
8.35000,-48
8.35833,-48
8.36667,-48
8.37500,-48
8.38333,-48
8.39167,-47
8.40000,-47
8.40833,-47
8.41667,-47
8.42500,-47
8.43333,-47
8.44167,-48
8.45000,-48
8.45833,-48
8.46667,-48
8.47500,-49
8.48333,-49
8.49167,-49
8.50000,-49
8.50833,-49
8.51667,-48
8.52500,-48
8.53333,-48
8.54167,-48
8.55000,-48
8.55833,-48
8.56667,-48
8.57500,-48
8.58333,-48
8.59167,-48
8.60000,-48
8.60833,-49
8.61667,-49
8.62500,-48
8.63333,-48
8.64167,-48
8.65000,-48
8.65833,-48
8.66667,-49
8.67500,-49
8.68333,-48
8.69167,-49
8.70000,-48
8.70833,-48
8.71667,-48
8.72500,-49
8.73333,-49
8.74167,-49
8.75000,-50
8.75833,-50
8.76667,-50
8.77500,-50
8.78333,-50
8.79167,-50
8.80000,-51
8.80833,-51
8.81667,-51
8.82500,-50
8.83333,-51
8.84167,-50
8.85000,-50
8.85833,-50
8.86667,-50
8.87500,-50
8.88333,-50
8.89167,-50
8.90000,-50
8.90833,-50
8.91667,-50
8.92500,-50
8.93333,-50
8.94167,-50
8.95000,-50
8.95833,-49
8.96667,-50
8.97500,-50
8.98333,-50
8.99167,-50
9.00000,-50
9.00833,-50
9.01667,-51
9.02500,-51
9.03333,-50
9.04167,-50
9.05000,-50
9.05833,-50
9.06667,-50
9.07500,-50
9.08333,-50
9.09167,-50
9.10000,-50
9.10833,-51
9.11667,-51
9.12500,-51
9.13333,-51
9.14167,-51
9.15000,-51
9.15833,-51
9.16667,-50
9.17500,-50
9.18333,-50
9.19167,-50
9.20000,-50
9.20833,-50
9.21667,-50
9.22500,-50
9.23333,-50
9.24167,-50
9.25000,-50
9.25833,-50
9.26667,-51
9.27500,-51
9.28333,-51
9.29167,-50
9.30000,-50
9.30833,-50
9.31667,-51
9.32500,-51
9.33333,-51
9.34167,-51
9.35000,-51
9.35833,-51
9.36667,-51
9.37500,-51
9.38333,-51
9.39167,-51
9.40000,-51
9.40833,-50
9.41667,-51
9.42500,-51
9.43333,-51
9.44167,-51
9.45000,-51
9.45833,-51
9.46667,-51
9.47500,-51
9.48333,-51
9.49167,-52
9.50000,-52
9.50833,-52
9.51667,-52
9.52500,-52
9.53333,-52
9.54167,-52
9.55000,-52
9.55833,-52
9.56667,-52
9.57500,-52
9.58333,-52
9.59167,-51
9.60000,-51
9.60833,-51
9.61667,-51
9.62500,-51
9.63333,-51
9.64167,-51
9.65000,-51
9.65833,-51
9.66667,-52
9.67500,-52
9.68333,-52
9.69167,-53
9.70000,-53
9.70833,-53
9.71667,-53
9.72500,-53
9.73333,-53
9.74167,-53
9.75000,-53
9.75833,-52
9.76667,-52
9.77500,-52
9.78333,-52
9.79167,-53
9.80000,-53
9.80833,-53
9.81667,-52
9.82500,-52
9.83333,-52
9.84167,-53
9.85000,-53
9.85833,-53
9.86667,-53
9.87500,-53
9.88333,-53
9.89167,-53
9.90000,-53
9.90833,-52
9.91667,-52
9.92500,-52
9.93333,-52
9.94167,-52
9.95000,-52
9.95833,-52
9.96667,-52
9.97500,-52
9.98333,-52
9.99167,-52
10.00000,-52
10.00833,-52
10.01667,-52
10.02500,-52
10.03333,-52
10.04167,-52
10.05000,-52
10.05833,-53
10.06667,-53
10.07500,-53
10.08333,-52
10.09167,-52
10.10000,-52
10.10833,-53
10.11667,-53
10.12500,-53
10.13333,-52
10.14167,-52
10.15000,-52
10.15833,-52
10.16667,-52
10.17500,-52
10.18333,-52
10.19167,-52
10.20000,-52
10.20833,-52
10.21667,-52
10.22500,-52
10.23333,-52
10.24167,-52
10.25000,-52
10.25833,-52
10.26667,-52
10.27500,-52
10.28333,-52
10.29167,-52
10.30000,-52
10.30833,-52
10.31667,-51
10.32500,-51
10.33333,-51
10.34167,-51
10.35000,-52
10.35833,-53
10.36667,-54
10.37500,-57
10.38333,-61
10.39167,-66
10.40000,-73
10.40833,-82
10.41667,-94
10.42500,-110
10.43333,-130
10.44167,-155
10.45000,-186
10.45833,-222
10.46667,-264
10.47500,-312
10.48333,-366
10.49167,-424
10.50000,-486
10.50833,-549
10.51667,-612
10.52500,-671
10.53333,-722
10.54167,-763
10.55000,-788
10.55833,-792
10.56667,-771
10.57500,-719
10.58333,-629
10.59167,-496
10.60000,-313
10.60833,-74
10.61667,226
10.62500,593
10.63333,1035
10.64167,1555
10.65000,2160
10.65833,2855
10.66667,3644
10.67500,4532
10.68333,5523
10.69167,6620
10.70000,7828
10.70833,9149
10.71667,10585
10.72500,12139
10.73333,13813
10.74167,15607
10.75000,17523
10.75833,19561
10.76667,21722
10.77500,24005
10.78333,26410
10.79167,28936
10.80000,31580
10.80833,34342
10.81667,37218
10.82500,40206
10.83333,43301
10.84167,46501
10.85000,49800
10.85833,53191
10.86667,56669
10.87500,60225
10.88333,63849
10.89167,67530
10.90000,71256
10.90833,75010
10.91667,78775
10.92500,82528
10.93333,86245
10.94167,89896
10.95000,93449
10.95833,96864
10.96667,100100
10.97500,103110
10.98333,105841
10.99167,108240
11.00000,110249
11.00833,111812
11.01667,112874
11.02500,113383
11.03333,113295
11.04167,112574
11.05000,111200
11.05833,109166
11.06667,106483
11.07500,103180
11.08333,99304
11.09167,94920
11.10000,90105
11.10833,84947
11.11667,79543
11.12500,73989
11.13333,68380
11.14167,62808
11.15000,57351
11.15833,52079
11.16667,47049
11.17500,42304
11.18333,37874
11.19167,33779
11.20000,30026
11.20833,26616
11.21667,23538
11.22500,20780
11.23333,18322
11.24167,16144
11.25000,14223
11.25833,12534
11.26667,11056
11.27500,9765
11.28333,8640
11.29167,7663
11.30000,6813
11.30833,6076
11.31667,5436
11.32500,4881
11.33333,4399
11.34167,3979
11.35000,3612
11.35833,3292
11.36667,3012
11.37500,2765
11.38333,2548
11.39167,2356
11.40000,2186
11.40833,2034
11.41667,1897
11.42500,1775
11.43333,1665
11.44167,1565
11.45000,1474
11.45833,1391
11.46667,1315
11.47500,1246
11.48333,1181
11.49167,1122
11.50000,1066
11.50833,1015
11.51667,967
11.52500,922
11.53333,880
11.54167,841
11.55000,804
11.55833,769
11.56667,736
11.57500,705
11.58333,676
11.59167,649
11.60000,622
11.60833,598
11.61667,574
11.62500,552
11.63333,531
11.64167,511
11.65000,493
11.65833,475
11.66667,458
11.67500,442
11.68333,427
11.69167,412
11.70000,398
11.70833,385
11.71667,372
11.72500,361
11.73333,350
11.74167,340
11.75000,330
11.75833,320
11.76667,311
11.77500,302
11.78333,293
11.79167,286
11.80000,279
11.80833,272
11.81667,266
11.82500,260
11.83333,254
11.84167,249
11.85000,244
11.85833,239
11.86667,235
11.87500,230
11.88333,226
11.89167,222
11.90000,218
11.90833,215
11.91667,211
11.92500,208
11.93333,205
11.94167,202
11.95000,199
11.95833,197
11.96667,195
11.97500,192
11.98333,190
11.99167,188
12.00000,186
12.00833,184
12.01667,182
12.02500,180
12.03333,178
12.04167,176
12.05000,174
12.05833,172
12.06667,171
12.07500,169
12.08333,166
12.09167,165
12.10000,163
12.10833,161
12.11667,159
12.12500,157
12.13333,156
12.14167,154
12.15000,153
12.15833,151
12.16667,150
12.17500,148
12.18333,146
12.19167,144
12.20000,143
12.20833,141
12.21667,139
12.22500,137
12.23333,136
12.24167,134
12.25000,133
12.25833,132
12.26667,130
12.27500,128
12.28333,126
12.29167,124
12.30000,122
12.30833,121
12.31667,119
12.32500,117
12.33333,116
12.34167,114
12.35000,112
12.35833,111
12.36667,109
12.37500,107
12.38333,105
12.39167,104
12.40000,103
12.40833,102
12.41667,101
12.42500,99
12.43333,98
12.44167,96
12.45000,94
12.45833,93
12.46667,91
12.47500,90
12.48333,89
12.49167,88
12.50000,86
12.50833,85
12.51667,84
12.52500,82
12.53333,81
12.54167,80
12.55000,79
12.55833,78
12.56667,77
12.57500,76
12.58333,75
12.59167,74
12.60000,73
12.60833,72
12.61667,71
12.62500,71
12.63333,71
12.64167,71
12.65000,71
12.65833,72
12.66667,73
12.67500,75
12.68333,77
12.69167,81
12.70000,86
12.70833,92
12.71667,99
12.72500,108
12.73333,118
12.74167,131
12.75000,146
12.75833,164
12.76667,184
12.77500,206
12.78333,232
12.79167,262
12.80000,295
12.80833,332
12.81667,373
12.82500,418
12.83333,466
12.84167,520
12.85000,578
12.85833,641
12.86667,709
12.87500,782
12.88333,860
12.89167,944
12.90000,1033
12.90833,1127
12.91667,1226
12.92500,1331
12.93333,1441
12.94167,1557
12.95000,1678
12.95833,1805
12.96667,1938
12.97500,2077
12.98333,2221
12.99167,2370
13.00000,2525
13.00833,2686
13.01667,2852
13.02500,3023
13.03333,3200
13.04167,3382
13.05000,3570
13.05833,3763
13.06667,3960
13.07500,4163
13.08333,4370
13.09167,4583
13.10000,4801
13.10833,5024
13.11667,5251
13.12500,5483
13.13333,5719
13.14167,5960
13.15000,6205
13.15833,6454
13.16667,6707
13.17500,6965
13.18333,7226
13.19167,7492
13.20000,7761
13.20833,8034
13.21667,8310
13.22500,8590
13.23333,8874
13.24167,9161
13.25000,9452
13.25833,9747
13.26667,10045
13.27500,10346
13.28333,10650
13.29167,10958
13.30000,11268
13.30833,11582
13.31667,11899
13.32500,12220
13.33333,12543
13.34167,12870
13.35000,13200
13.35833,13532
13.36667,13868
13.37500,14206
13.38333,14548
13.39167,14892
13.40000,15239
13.40833,15590
13.41667,15943
13.42500,16300
13.43333,16660
13.44167,17023
13.45000,17389
13.45833,17758
13.46667,18130
13.47500,18505
13.48333,18883
13.49167,19264
13.50000,19649
13.50833,20036
13.51667,20425
13.52500,20819
13.53333,21216
13.54167,21616
13.55000,22019
13.55833,22426
13.56667,22836
13.57500,23249
13.58333,23665
13.59167,24085
13.60000,24508
13.60833,24934
13.61667,25364
13.62500,25798
13.63333,26234
13.64167,26675
13.65000,27119
13.65833,27566
13.66667,28018
13.67500,28473
13.68333,28932
13.69167,29394
13.70000,29860
13.70833,30330
13.71667,30803
13.72500,31280
13.73333,31761
13.74167,32246
13.75000,32736
13.75833,33229
13.76667,33726
13.77500,34227
13.78333,34732
13.79167,35242
13.80000,35755
13.80833,36273
13.81667,36795
13.82500,37322
13.83333,37853
13.84167,38388
13.85000,38928
13.85833,39473
13.86667,40022
13.87500,40576
13.88333,41134
13.89167,41697
13.90000,42265
13.90833,42838
13.91667,43416
13.92500,43998
13.93333,44586
13.94167,45178
13.95000,45775
13.95833,46378
13.96667,46985
13.97500,47598
13.98333,48216
13.99167,48840
14.00000,49470
14.00833,50105
14.01667,50746
14.02500,51392
14.03333,52044
14.04167,52702
14.05000,53365
14.05833,54035
14.06667,54710
14.07500,55392
14.08333,56079
14.09167,56773
14.10000,57472
14.10833,58178
14.11667,58890
14.12500,59609
14.13333,60334
14.14167,61066
14.15000,61805
14.15833,62550
14.16667,63302
14.17500,64061
14.18333,64828
14.19167,65602
14.20000,66382
14.20833,67169
14.21667,67962
14.22500,68761
14.23333,69563
14.24167,70367
14.25000,71168
14.25833,71961
14.26667,72741
14.27500,73500
14.28333,74227
14.29167,74912
14.30000,75543
14.30833,76108
14.31667,76594
14.32500,76989
14.33333,77281
14.34167,77460
14.35000,77516
14.35833,77442
14.36667,77233
14.37500,76883
14.38333,76389
14.39167,75748
14.40000,74959
14.40833,74019
14.41667,72927
14.42500,71681
14.43333,70278
14.44167,68716
14.45000,66995
14.45833,65115
14.46667,63078
14.47500,60890
14.48333,58558
14.49167,56093
14.50000,53510
14.50833,50826
14.51667,48065
14.52500,45249
14.53333,42405
14.54167,39559
14.55000,36738
14.55833,33967
14.56667,31272
14.57500,28673
14.58333,26189
14.59167,23836
14.60000,21623
14.60833,19560
14.61667,17650
14.62500,15893
14.63333,14287
14.64167,12828
14.65000,11510
14.65833,10325
14.66667,9263
14.67500,8316
14.68333,7474
14.69167,6727
14.70000,6067
14.70833,5483
14.71667,4969
14.72500,4514
14.73333,4114
14.74167,3761
14.75000,3450
14.75833,3176
14.76667,2934
14.77500,2719
14.78333,2528
14.79167,2359
14.80000,2208
14.80833,2073
14.81667,1952
14.82500,1844
14.83333,1746
14.84167,1657
14.85000,1576
14.85833,1503
14.86667,1436
14.87500,1374
14.88333,1318
14.89167,1265
14.90000,1217
14.90833,1172
14.91667,1130
14.92500,1090
14.93333,1053
14.94167,1019
14.95000,987
14.95833,957
14.96667,929
14.97500,902
14.98333,877
14.99167,853
15.00000,830
15.00833,808
15.01667,788
15.02500,769
15.03333,751
15.04167,734
15.05000,717
15.05833,701
15.06667,687
15.07500,673
15.08333,660
15.09167,648
15.10000,637
15.10833,627
15.11667,617
15.12500,608
15.13333,599
15.14167,592
15.15000,585
15.15833,580
15.16667,575
15.17500,573
15.18333,572
15.19167,573
15.20000,576
15.20833,582
15.21667,591
15.22500,604
15.23333,622
15.24167,646
15.25000,677
15.25833,716
15.26667,765
15.27500,825
15.28333,898
15.29167,986
15.30000,1092
15.30833,1217
15.31667,1364
15.32500,1537
15.33333,1738
15.34167,1970
15.35000,2236
15.35833,2541
15.36667,2886
15.37500,3276
15.38333,3714
15.39167,4203
15.40000,4746
15.40833,5345
15.41667,6002
15.42500,6720
15.43333,7501
15.44167,8345
15.45000,9254
15.45833,10226
15.46667,11261
15.47500,12359
15.48333,13516
15.49167,14730
15.50000,15998
15.50833,17315
15.51667,18677
15.52500,20078
15.53333,21513
15.54167,22975
15.55000,24457
15.55833,25952
15.56667,27455
15.57500,28955
15.58333,30447
15.59167,31923
15.60000,33377
15.60833,34799
15.61667,36185
15.62500,37528
15.63333,38822
15.64167,40061
15.65000,41241
15.65833,42357
15.66667,43405
15.67500,44381
15.68333,45283
15.69167,46107
15.70000,46852
15.70833,47514
15.71667,48095
15.72500,48591
15.73333,49003
15.74167,49330
15.75000,49571
15.75833,49728
15.76667,49799
15.77500,49786
15.78333,49689
15.79167,49510
15.80000,49250
15.80833,48910
15.81667,48492
15.82500,47998
15.83333,47430
15.84167,46791
15.85000,46084
15.85833,45311
15.86667,44477
15.87500,43584
15.88333,42636
15.89167,41638
15.90000,40594
15.90833,39508
15.91667,38385
15.92500,37230
15.93333,36047
15.94167,34842
15.95000,33620
15.95833,32385
15.96667,31142
15.97500,29896
15.98333,28652
15.99167,27414
16.00000,26187
16.00833,24974
16.01667,23779
16.02500,22606
16.03333,21457
16.04167,20335
16.05000,19244
16.05833,18185
16.06667,17161
16.07500,16173
16.08333,15221
16.09167,14308
16.10000,13434
16.10833,12599
16.11667,11803
16.12500,11047
16.13333,10329
16.14167,9650
16.15000,9008
16.15833,8404
16.16667,7835
16.17500,7301
16.18333,6801
16.19167,6333
16.20000,5896
16.20833,5489
16.21667,5109
16.22500,4757
16.23333,4429
16.24167,4126
16.25000,3845
16.25833,3586
16.26667,3345
16.27500,3124
16.28333,2921
16.29167,2733
16.30000,2561
16.30833,2402
16.31667,2255
16.32500,2121
16.33333,1997
16.34167,1884
16.35000,1779
16.35833,1683
16.36667,1595
16.37500,1514
16.38333,1439
16.39167,1370
16.40000,1306
16.40833,1247
16.41667,1193
16.42500,1143
16.43333,1096
16.44167,1053
16.45000,1013
16.45833,977
16.46667,942
16.47500,910
16.48333,880
16.49167,852
16.50000,825
16.50833,800
16.51667,776
16.52500,753
16.53333,732
16.54167,711
16.55000,692
16.55833,673
16.56667,655
16.57500,638
16.58333,622
16.59167,607
16.60000,592
16.60833,577
16.61667,564
16.62500,550
16.63333,537
16.64167,524
16.65000,512
16.65833,500
16.66667,488
16.67500,477
16.68333,466
16.69167,456
16.70000,446
16.70833,436
16.71667,427
16.72500,418
16.73333,409
16.74167,400
16.75000,392
16.75833,384
16.76667,376
16.77500,368
16.78333,362
16.79167,355
16.80000,349
16.80833,343
16.81667,337
16.82500,331
16.83333,325
16.84167,320
16.85000,315
16.85833,310
16.86667,306
16.87500,301
16.88333,296
16.89167,292
16.90000,288
16.90833,284
16.91667,281
16.92500,278
16.93333,275
16.94167,272
16.95000,269
16.95833,266
16.96667,263
16.97500,260
16.98333,257
16.99167,255
17.00000,252
17.00833,250
17.01667,247
17.02500,245
17.03333,242
17.04167,240
17.05000,238
17.05833,236
17.06667,234
17.07500,232
17.08333,231
17.09167,229
17.10000,227
17.10833,225
17.11667,223
17.12500,221
17.13333,219
17.14167,217
17.15000,215
17.15833,214
17.16667,212
17.17500,210
17.18333,209
17.19167,207
17.20000,205
17.20833,203
17.21667,202
17.22500,200
17.23333,198
17.24167,196
17.25000,194
17.25833,193
17.26667,191
17.27500,189
17.28333,188
17.29167,187
17.30000,185
17.30833,183
17.31667,182
17.32500,180
17.33333,178
17.34167,177
17.35000,175
17.35833,173
17.36667,171
17.37500,169
17.38333,168
17.39167,166
17.40000,164
17.40833,162
17.41667,161
17.42500,159
17.43333,158
17.44167,156
17.45000,154
17.45833,153
17.46667,151
17.47500,150
17.48333,149
17.49167,148
17.50000,146
17.50833,145
17.51667,143
17.52500,141
17.53333,140
17.54167,138
17.55000,137
17.55833,136
17.56667,135
17.57500,133
17.58333,132
17.59167,131
17.60000,129
17.60833,128
17.61667,126
17.62500,125
17.63333,124
17.64167,122
17.65000,121
17.65833,120
17.66667,119
17.67500,118
17.68333,117
17.69167,116
17.70000,115
17.70833,114
17.71667,112
17.72500,111
17.73333,109
17.74167,108
17.75000,107
17.75833,107
17.76667,106
17.77500,105
17.78333,104
17.79167,103
17.80000,102
17.80833,101
17.81667,100
17.82500,98
17.83333,97
17.84167,96
17.85000,94
17.85833,93
17.86667,92
17.87500,91
17.88333,91
17.89167,90
17.90000,89
17.90833,89
17.91667,88
17.92500,87
17.93333,86
17.94167,85
17.95000,85
17.95833,84
17.96667,83
17.97500,83
17.98333,82
17.99167,81
18.00000,80
18.00833,80
18.01667,79
18.02500,78
18.03333,77
18.04167,76
18.05000,76
18.05833,75
18.06667,74
18.07500,73
18.08333,72
18.09167,72
18.10000,71
18.10833,70
18.11667,69
18.12500,68
18.13333,68
18.14167,68
18.15000,67
18.15833,67
18.16667,67
18.17500,66
18.18333,65
18.19167,64
18.20000,63
18.20833,63
18.21667,62
18.22500,62
18.23333,61
18.24167,61
18.25000,60
18.25833,59
18.26667,58
18.27500,58
18.28333,57
18.29167,57
18.30000,56
18.30833,55
18.31667,55
18.32500,55
18.33333,55
18.34167,54
18.35000,54
18.35833,54
18.36667,53
18.37500,52
18.38333,51
18.39167,51
18.40000,50
18.40833,49
18.41667,49
18.42500,48
18.43333,48
18.44167,47
18.45000,47
18.45833,46
18.46667,46
18.47500,46
18.48333,45
18.49167,45
18.50000,44
18.50833,44
18.51667,43
18.52500,43
18.53333,43
18.54167,42
18.55000,42
18.55833,41
18.56667,41
18.57500,40
18.58333,39
18.59167,39
18.60000,38
18.60833,38
18.61667,37
18.62500,37
18.63333,37
18.64167,37
18.65000,36
18.65833,36
18.66667,35
18.67500,35
18.68333,35
18.69167,34
18.70000,33
18.70833,33
18.71667,32
18.72500,32
18.73333,31
18.74167,31
18.75000,31
18.75833,30
18.76667,30
18.77500,30
18.78333,30
18.79167,29
18.80000,29
18.80833,29
18.81667,28
18.82500,28
18.83333,27
18.84167,27
18.85000,26
18.85833,26
18.86667,26
18.87500,25
18.88333,25
18.89167,24
18.90000,24
18.90833,23
18.91667,23
18.92500,23
18.93333,23
18.94167,23
18.95000,22
18.95833,22
18.96667,22
18.97500,22
18.98333,23
18.99167,23
19.00000,23
19.00833,23
19.01667,22
19.02500,22
19.03333,21
19.04167,21
19.05000,21
19.05833,20
19.06667,20
19.07500,19
19.08333,19
19.09167,19
19.10000,19
19.10833,19
19.11667,19
19.12500,19
19.13333,19
19.14167,19
19.15000,19
19.15833,19
19.16667,19
19.17500,19
19.18333,18
19.19167,18
19.20000,18
19.20833,17
19.21667,17
19.22500,17
19.23333,18
19.24167,18
19.25000,18
19.25833,18
19.26667,18
19.27500,17
19.28333,17
19.29167,17
19.30000,16
19.30833,16
19.31667,15
19.32500,15
19.33333,15
19.34167,14
19.35000,14
19.35833,14
19.36667,13
19.37500,13
19.38333,12
19.39167,12
19.40000,11
19.40833,11
19.41667,10
19.42500,10
19.43333,10
19.44167,10
19.45000,9
19.45833,9
19.46667,9
19.47500,8
19.48333,7
19.49167,7
19.50000,6
19.50833,5
19.51667,5
19.52500,4
19.53333,3
19.54167,3
19.55000,2
19.55833,2
19.56667,2
19.57500,1
19.58333,1
19.59167,0
19.60000,-0
19.60833,-1
19.61667,-2
19.62500,-2
19.63333,-3
19.64167,-3
19.65000,-4
19.65833,-4
19.66667,-5
19.67500,-6
19.68333,-6
19.69167,-7
19.70000,-7
19.70833,-8
19.71667,-8
19.72500,-8
19.73333,-8
19.74167,-8
19.75000,-8
19.75833,-8
19.76667,-9
19.77500,-9
19.78333,-10
19.79167,-10
19.80000,-11
19.80833,-11
19.81667,-11
19.82500,-11
19.83333,-11
19.84167,-12
19.85000,-12
19.85833,-13
19.86667,-13
19.87500,-13
19.88333,-14
19.89167,-14
19.90000,-15
19.90833,-15
19.91667,-15
19.92500,-15
19.93333,-15
19.94167,-15
19.95000,-15
19.95833,-16
19.96667,-16
19.97500,-16
19.98333,-16
19.99167,-16
20.00000,-16
20.00833,-16
20.01667,-16
20.02500,-16
20.03333,-16
20.04167,-16
20.05000,-16
20.05833,-16
20.06667,-16
20.07500,-16
20.08333,-17
20.09167,-17
20.10000,-17
20.10833,-17
20.11667,-17
20.12500,-17
20.13333,-17
20.14167,-18
20.15000,-18
20.15833,-17
20.16667,-17
20.17500,-17
20.18333,-18
20.19167,-18
20.20000,-19
20.20833,-19
20.21667,-19
20.22500,-19
20.23333,-19
20.24167,-20
20.25000,-19
20.25833,-19
20.26667,-19
20.27500,-19
20.28333,-19
20.29167,-19
20.30000,-20
20.30833,-20
20.31667,-20
20.32500,-20
20.33333,-20
20.34167,-20
20.35000,-20
20.35833,-19
20.36667,-19
20.37500,-19
20.38333,-18
20.39167,-18
20.40000,-17
20.40833,-16
20.41667,-15
20.42500,-14
20.43333,-13
20.44167,-12
20.45000,-11
20.45833,-9
20.46667,-8
20.47500,-6
20.48333,-4
20.49167,-2
20.50000,1
20.50833,3
20.51667,5
20.52500,8
20.53333,12
20.54167,15
20.55000,19
20.55833,23
20.56667,27
20.57500,32
20.58333,37
20.59167,42
20.60000,48
20.60833,53
20.61667,59
20.62500,65
20.63333,71
20.64167,77
20.65000,83
20.65833,90
20.66667,96
20.67500,102
20.68333,109
20.69167,115
20.70000,121
20.70833,128
20.71667,135
20.72500,141
20.73333,148
20.74167,154
20.75000,160
20.75833,166
20.76667,172
20.77500,177
20.78333,183
20.79167,188
20.80000,193
20.80833,198
20.81667,202
20.82500,207
20.83333,210
20.84167,214
20.85000,218
20.85833,221
20.86667,224
20.87500,227
20.88333,230
20.89167,232
20.90000,235
20.90833,237
20.91667,238
20.92500,240
20.93333,241
20.94167,241
20.95000,242
20.95833,242
20.96667,242
20.97500,242
20.98333,241
20.99167,241
21.00000,241
21.00833,240
21.01667,239
21.02500,238
21.03333,237
21.04167,235
21.05000,233
21.05833,231
21.06667,229
21.07500,227
21.08333,224
21.09167,221
21.10000,219
21.10833,216
21.11667,213
21.12500,210
21.13333,206
21.14167,203
21.15000,199
21.15833,196
21.16667,193
21.17500,189
21.18333,186
21.19167,182
21.20000,178
21.20833,175
21.21667,171
21.22500,168
21.23333,164
21.24167,161
21.25000,158
21.25833,155
21.26667,151
21.27500,148
21.28333,144
21.29167,141
21.30000,138
21.30833,135
21.31667,133
21.32500,130
21.33333,128
21.34167,125
21.35000,122
21.35833,119
21.36667,117
21.37500,115
21.38333,112
21.39167,110
21.40000,108
21.40833,106
21.41667,104
21.42500,103
21.43333,101
21.44167,99
21.45000,98
21.45833,96
21.46667,95
21.47500,93
21.48333,91
21.49167,90
21.50000,88
21.50833,87
21.51667,86
21.52500,84
21.53333,83
21.54167,81
21.55000,80
21.55833,79
21.56667,78
21.57500,76
21.58333,74
21.59167,73
21.60000,71
21.60833,69
21.61667,68
21.62500,66
21.63333,64
21.64167,63
21.65000,61
21.65833,58
21.66667,56
21.67500,54
21.68333,52
21.69167,50
21.70000,48
21.70833,45
21.71667,43
21.72500,40
21.73333,38
21.74167,36
21.75000,33
21.75833,30
21.76667,28
21.77500,26
21.78333,23
21.79167,21
21.80000,18
21.80833,16
21.81667,14
21.82500,11
21.83333,9
21.84167,7
21.85000,4
21.85833,2
21.86667,0
21.87500,-2
21.88333,-4
21.89167,-6
21.90000,-8
21.90833,-10
21.91667,-11
21.92500,-13
21.93333,-14
21.94167,-16
21.95000,-17
21.95833,-18
21.96667,-20
21.97500,-21
21.98333,-22
21.99167,-24
22.00000,-25
22.00833,-26
22.01667,-27
22.02500,-28
22.03333,-29
22.04167,-29
22.05000,-30
22.05833,-31
22.06667,-31
22.07500,-32
22.08333,-32
22.09167,-33
22.10000,-34
22.10833,-34
22.11667,-35
22.12500,-35
22.13333,-36
22.14167,-36
22.15000,-36
22.15833,-36
22.16667,-36
22.17500,-36
22.18333,-37
22.19167,-37
22.20000,-37
22.20833,-36
22.21667,-37
22.22500,-37
22.23333,-37
22.24167,-37
22.25000,-37
22.25833,-37
22.26667,-37
22.27500,-37
22.28333,-37
22.29167,-36
22.30000,-36
22.30833,-36
22.31667,-35
22.32500,-35
22.33333,-35
22.34167,-34
22.35000,-34
22.35833,-34
22.36667,-33
22.37500,-32
22.38333,-32
22.39167,-31
22.40000,-30
22.40833,-29
22.41667,-28
22.42500,-27
22.43333,-26
22.44167,-25
22.45000,-24
22.45833,-23
22.46667,-22
22.47500,-21
22.48333,-19
22.49167,-18
22.50000,-16
22.50833,-14
22.51667,-12
22.52500,-10
22.53333,-7
22.54167,-4
22.55000,-1
22.55833,3
22.56667,7
22.57500,11
22.58333,15
22.59167,20
22.60000,25
22.60833,30
22.61667,35
22.62500,41
22.63333,47
22.64167,54
22.65000,62
22.65833,70
22.66667,79
22.67500,88
22.68333,97
22.69167,107
22.70000,118
22.70833,128
22.71667,140
22.72500,151
22.73333,163
22.74167,176
22.75000,189
22.75833,202
22.76667,215
22.77500,230
22.78333,244
22.79167,258
22.80000,273
22.80833,288
22.81667,303
22.82500,318
22.83333,333
22.84167,347
22.85000,362
22.85833,377
22.86667,392
22.87500,406
22.88333,421
22.89167,435
22.90000,448
22.90833,462
22.91667,475
22.92500,489
22.93333,501
22.94167,514
22.95000,526
22.95833,537
22.96667,548
22.97500,559
22.98333,569
22.99167,579
23.00000,589
23.00833,598
23.01667,606
23.02500,613
23.03333,620
23.04167,627
23.05000,633
23.05833,637
23.06667,642
23.07500,646
23.08333,649
23.09167,652
23.10000,654
23.10833,655
23.11667,656
23.12500,656
23.13333,656
23.14167,654
23.15000,653
23.15833,650
23.16667,647
23.17500,643
23.18333,638
23.19167,632
23.20000,626
23.20833,619
23.21667,611
23.22500,602
23.23333,593
23.24167,584
23.25000,574
23.25833,563
23.26667,552
23.27500,540
23.28333,527
23.29167,514
23.30000,500
23.30833,487
23.31667,472
23.32500,458
23.33333,443
23.34167,429
23.35000,414
23.35833,399
23.36667,383
23.37500,368
23.38333,352
23.39167,337
23.40000,322
23.40833,307
23.41667,292
23.42500,277
23.43333,263
23.44167,248
23.45000,235
23.45833,221
23.46667,208
23.47500,195
23.48333,182
23.49167,169
23.50000,157
23.50833,146
23.51667,135
23.52500,125
23.53333,115
23.54167,105
23.55000,96
23.55833,87
23.56667,79
23.57500,71
23.58333,63
23.59167,55
23.60000,48
23.60833,42
23.61667,36
23.62500,30
23.63333,25
23.64167,20
23.65000,15
23.65833,11
23.66667,7
23.67500,3
23.68333,-1
23.69167,-4
23.70000,-8
23.70833,-11
23.71667,-14
23.72500,-16
23.73333,-19
23.74167,-21
23.75000,-23
23.75833,-24
23.76667,-26
23.77500,-28
23.78333,-29
23.79167,-31
23.80000,-32
23.80833,-33
23.81667,-34
23.82500,-35
23.83333,-35
23.84167,-36
23.85000,-37
23.85833,-37
23.86667,-38
23.87500,-39
23.88333,-40
23.89167,-41
23.90000,-41
23.90833,-42
23.91667,-42
23.92500,-43
23.93333,-43
23.94167,-43
23.95000,-44
23.95833,-44
23.96667,-44
23.97500,-44
23.98333,-44
23.99167,-45
24.00000,-45
24.00833,-45
24.01667,-46
24.02500,-46
24.03333,-45
24.04167,-45
24.05000,-46
24.05833,-46
24.06667,-46
24.07500,-46
24.08333,-47
24.09167,-47
24.10000,-47
24.10833,-47
24.11667,-47
24.12500,-47
24.13333,-47
24.14167,-47
24.15000,-47
24.15833,-47
24.16667,-47
24.17500,-47
24.18333,-47
24.19167,-47
24.20000,-47
24.20833,-47
24.21667,-46
24.22500,-46
24.23333,-45
24.24167,-45
24.25000,-44
24.25833,-44
24.26667,-44
24.27500,-43
24.28333,-43
24.29167,-42
24.30000,-42
24.30833,-40
24.31667,-39
24.32500,-37
24.33333,-35
24.34167,-33
24.35000,-30
24.35833,-26
24.36667,-23
24.37500,-18
24.38333,-14
24.39167,-8
24.40000,-2
24.40833,5
24.41667,13
24.42500,22
24.43333,31
24.44167,43
24.45000,55
24.45833,68
24.46667,84
24.47500,100
24.48333,119
24.49167,139
24.50000,160
24.50833,184
24.51667,210
24.52500,238
24.53333,269
24.54167,301
24.55000,336
24.55833,374
24.56667,414
24.57500,457
24.58333,502
24.59167,549
24.60000,600
24.60833,653
24.61667,709
24.62500,768
24.63333,829
24.64167,893
24.65000,959
24.65833,1027
24.66667,1097
24.67500,1170
24.68333,1244
24.69167,1320
24.70000,1398
24.70833,1477
24.71667,1558
24.72500,1639
24.73333,1721
24.74167,1803
24.75000,1886
24.75833,1969
24.76667,2053
24.77500,2136
24.78333,2219
24.79167,2301
24.80000,2382
24.80833,2462
24.81667,2541
24.82500,2618
24.83333,2695
24.84167,2769
24.85000,2842
24.85833,2912
24.86667,2981
24.87500,3048
24.88333,3113
24.89167,3175
24.90000,3235
24.90833,3293
24.91667,3348
24.92500,3402
24.93333,3452
24.94167,3500
24.95000,3546
24.95833,3589
24.96667,3630
24.97500,3668
24.98333,3703
24.99167,3736
25.00000,3766
25.00833,3793
25.01667,3818
25.02500,3840
25.03333,3859
25.04167,3875
25.05000,3888
25.05833,3898
25.06667,3905
25.07500,3909
25.08333,3911
25.09167,3909
25.10000,3904
25.10833,3896
25.11667,3884
25.12500,3870
25.13333,3851
25.14167,3829
25.15000,3804
25.15833,3776
25.16667,3745
25.17500,3710
25.18333,3672
25.19167,3631
25.20000,3587
25.20833,3539
25.21667,3488
25.22500,3434
25.23333,3377
25.24167,3319
25.25000,3257
25.25833,3193
25.26667,3127
25.27500,3059
25.28333,2988
25.29167,2916
25.30000,2842
25.30833,2767
25.31667,2691
25.32500,2614
25.33333,2535
25.34167,2457
25.35000,2378
25.35833,2298
25.36667,2218
25.37500,2139
25.38333,2059
25.39167,1981
25.40000,1903
25.40833,1826
25.41667,1750
25.42500,1675
25.43333,1602
25.44167,1530
25.45000,1459
25.45833,1390
25.46667,1323
25.47500,1257
25.48333,1194
25.49167,1132
25.50000,1072
25.50833,1014
25.51667,958
25.52500,904
25.53333,852
25.54167,802
25.55000,755
25.55833,709
25.56667,666
25.57500,624
25.58333,584
25.59167,546
25.60000,511
25.60833,476
25.61667,444
25.62500,414
25.63333,385
25.64167,358
25.65000,332
25.65833,308
25.66667,285
25.67500,263
25.68333,244
25.69167,225
25.70000,207
25.70833,190
25.71667,175
25.72500,161
25.73333,147
25.74167,134
25.75000,123
25.75833,112
25.76667,102
25.77500,92
25.78333,84
25.79167,76
25.80000,68
25.80833,61
25.81667,55
25.82500,49
25.83333,43
25.84167,38
25.85000,33
25.85833,28
25.86667,24
25.87500,20
25.88333,17
25.89167,13
25.90000,11
25.90833,8
25.91667,5
25.92500,3
25.93333,1
25.94167,-1
25.95000,-3
25.95833,-5
25.96667,-7
25.97500,-9
25.98333,-10
25.99167,-12
26.00000,-13
26.00833,-14
26.01667,-15
26.02500,-16
26.03333,-18
26.04167,-19
26.05000,-20
26.05833,-21
26.06667,-22
26.07500,-22
26.08333,-23
26.09167,-24
26.10000,-24
26.10833,-25
26.11667,-26
26.12500,-27
26.13333,-28
26.14167,-28
26.15000,-29
26.15833,-29
26.16667,-29
26.17500,-29
26.18333,-30
26.19167,-30
26.20000,-31
26.20833,-31
26.21667,-32
26.22500,-32
26.23333,-32
26.24167,-32
26.25000,-33
26.25833,-33
26.26667,-33
26.27500,-33
26.28333,-34
26.29167,-34
26.30000,-34
26.30833,-34
26.31667,-34
26.32500,-34
26.33333,-34
26.34167,-35
26.35000,-35
26.35833,-35
26.36667,-35
26.37500,-35
26.38333,-35
26.39167,-35
26.40000,-35
26.40833,-35
26.41667,-35
26.42500,-36
26.43333,-36
26.44167,-36
26.45000,-36
26.45833,-36
26.46667,-37
26.47500,-37
26.48333,-38
26.49167,-38
26.50000,-38
26.50833,-38
26.51667,-38
26.52500,-39
26.53333,-38
26.54167,-38
26.55000,-38
26.55833,-38
26.56667,-38
26.57500,-38
26.58333,-38
26.59167,-38
26.60000,-38
26.60833,-39
26.61667,-39
26.62500,-39
26.63333,-39
26.64167,-39
26.65000,-39
26.65833,-39
26.66667,-39
26.67500,-39
26.68333,-40
26.69167,-40
26.70000,-40
26.70833,-40
26.71667,-40
26.72500,-41
26.73333,-41
26.74167,-41
26.75000,-41
26.75833,-41
26.76667,-41
26.77500,-42
26.78333,-42
26.79167,-41
26.80000,-41
26.80833,-41
26.81667,-41
26.82500,-42
26.83333,-42
26.84167,-42
26.85000,-42
26.85833,-42
26.86667,-42
26.87500,-42
26.88333,-43
26.89167,-43
26.90000,-43
26.90833,-43
26.91667,-43
26.92500,-43
26.93333,-43
26.94167,-43
26.95000,-43
26.95833,-43
26.96667,-44
26.97500,-44
26.98333,-45
26.99167,-45
27.00000,-45
27.00833,-45
27.01667,-45
27.02500,-45
27.03333,-46
27.04167,-46
27.05000,-46
27.05833,-46
27.06667,-46
27.07500,-47
27.08333,-47
27.09167,-47
27.10000,-47
27.10833,-47
27.11667,-47
27.12500,-48
27.13333,-48
27.14167,-49
27.15000,-49
27.15833,-50
27.16667,-50
27.17500,-51
27.18333,-51
27.19167,-52
27.20000,-52
27.20833,-52
27.21667,-53
27.22500,-54
27.23333,-55
27.24167,-56
27.25000,-57
27.25833,-58
27.26667,-59
27.27500,-60
27.28333,-60
27.29167,-61
27.30000,-62
27.30833,-63
27.31667,-64
27.32500,-65
27.33333,-66
27.34167,-67
27.35000,-69
27.35833,-70
27.36667,-72
27.37500,-73
27.38333,-75
27.39167,-76
27.40000,-78
27.40833,-79
27.41667,-81
27.42500,-82
27.43333,-84
27.44167,-86
27.45000,-87
27.45833,-89
27.46667,-91
27.47500,-92
27.48333,-94
27.49167,-96
27.50000,-99
27.50833,-101
27.51667,-103
27.52500,-105
27.53333,-107
27.54167,-109
27.55000,-111
27.55833,-113
27.56667,-115
27.57500,-116
27.58333,-119
27.59167,-121
27.60000,-123
27.60833,-125
27.61667,-128
27.62500,-130
27.63333,-131
27.64167,-133
27.65000,-135
27.65833,-137
27.66667,-139
27.67500,-141
27.68333,-143
27.69167,-144
27.70000,-145
27.70833,-147
27.71667,-149
27.72500,-150
27.73333,-151
27.74167,-153
27.75000,-154
27.75833,-156
27.76667,-157
27.77500,-158
27.78333,-159
27.79167,-161
27.80000,-162
27.80833,-163
27.81667,-164
27.82500,-165
27.83333,-165
27.84167,-166
27.85000,-166
27.85833,-167
27.86667,-167
27.87500,-168
27.88333,-168
27.89167,-169
27.90000,-169
27.90833,-169
27.91667,-169
27.92500,-169
27.93333,-168
27.94167,-168
27.95000,-168
27.95833,-167
27.96667,-167
27.97500,-167
27.98333,-166
27.99167,-165
28.00000,-164
28.00833,-163
28.01667,-162
28.02500,-161
28.03333,-159
28.04167,-159
28.05000,-157
28.05833,-156
28.06667,-154
28.07500,-153
28.08333,-152
28.09167,-150
28.10000,-149
28.10833,-147
28.11667,-145
28.12500,-143
28.13333,-141
28.14167,-139
28.15000,-138
28.15833,-137
28.16667,-135
28.17500,-133
28.18333,-132
28.19167,-130
28.20000,-128
28.20833,-126
28.21667,-124
28.22500,-123
28.23333,-121
28.24167,-119
28.25000,-117
28.25833,-116
28.26667,-114
28.27500,-112
28.28333,-111
28.29167,-110
28.30000,-108
28.30833,-106
28.31667,-104
28.32500,-103
28.33333,-101
28.34167,-99
28.35000,-98
28.35833,-96
28.36667,-95
28.37500,-93
28.38333,-93
28.39167,-92
28.40000,-90
28.40833,-89
28.41667,-88
28.42500,-87
28.43333,-86
28.44167,-85
28.45000,-83
28.45833,-82
28.46667,-80
28.47500,-79
28.48333,-79
28.49167,-78
28.50000,-77
28.50833,-76
28.51667,-75
28.52500,-74
28.53333,-73
28.54167,-72
28.55000,-72
28.55833,-71
28.56667,-71
28.57500,-70
28.58333,-70
28.59167,-69
28.60000,-69
28.60833,-68
28.61667,-67
28.62500,-67
28.63333,-66
28.64167,-66
28.65000,-66
28.65833,-65
28.66667,-65
28.67500,-65
28.68333,-64
28.69167,-63
28.70000,-63
28.70833,-63
28.71667,-63
28.72500,-62
28.73333,-63
28.74167,-62
28.75000,-62
28.75833,-61
28.76667,-61
28.77500,-61
28.78333,-61
28.79167,-61
28.80000,-61
28.80833,-61
28.81667,-60
28.82500,-60
28.83333,-60
28.84167,-59
28.85000,-59
28.85833,-59
28.86667,-59
28.87500,-59
28.88333,-59
28.89167,-60
28.90000,-60
28.90833,-60
28.91667,-60
28.92500,-60
28.93333,-60
28.94167,-60
28.95000,-60
28.95833,-60
28.96667,-60
28.97500,-60
28.98333,-60
28.99167,-60
29.00000,-60
29.00833,-61
29.01667,-61
29.02500,-61
29.03333,-61
29.04167,-61
29.05000,-61
29.05833,-62
29.06667,-62
29.07500,-62
29.08333,-63
29.09167,-63
29.10000,-64
29.10833,-64
29.11667,-65
29.12500,-66
29.13333,-66
29.14167,-66
29.15000,-66
29.15833,-67
29.16667,-68
29.17500,-68
29.18333,-69
29.19167,-69
29.20000,-70
29.20833,-71
29.21667,-71
29.22500,-71
29.23333,-72
29.24167,-72
29.25000,-72
29.25833,-73
29.26667,-73
29.27500,-74
29.28333,-75
29.29167,-75
29.30000,-76
29.30833,-76
29.31667,-77
29.32500,-78
29.33333,-78
29.34167,-79
29.35000,-79
29.35833,-80
29.36667,-81
29.37500,-81
29.38333,-82
29.39167,-82
29.40000,-82
29.40833,-83
29.41667,-84
29.42500,-84
29.43333,-85
29.44167,-86
29.45000,-86
29.45833,-86
29.46667,-86
29.47500,-86
29.48333,-86
29.49167,-87
29.50000,-87
29.50833,-88
29.51667,-88
29.52500,-89
29.53333,-89
29.54167,-89
29.55000,-90
29.55833,-90
29.56667,-90
29.57500,-90
29.58333,-90
29.59167,-90
29.60000,-90
29.60833,-91
29.61667,-91
29.62500,-91
29.63333,-91
29.64167,-91
29.65000,-91
29.65833,-91
29.66667,-92
29.67500,-92
29.68333,-92
29.69167,-92
29.70000,-92
29.70833,-92
29.71667,-92
29.72500,-91
29.73333,-91
29.74167,-91
29.75000,-91
29.75833,-91
29.76667,-91
29.77500,-91
29.78333,-90
29.79167,-90
29.80000,-90
29.80833,-90
29.81667,-90
29.82500,-90
29.83333,-90
29.84167,-90
29.85000,-90
29.85833,-90
29.86667,-91
29.87500,-91
29.88333,-91
29.89167,-91
29.90000,-92
29.90833,-92
29.91667,-92
29.92500,-93
29.93333,-94
29.94167,-95
29.95000,-96
29.95833,-96
29.96667,-97
29.97500,-99
29.98333,-100
29.99167,-101
30.00000,-102
30.00833,-103
30.01667,-104
30.02500,-105
30.03333,-107
30.04167,-109
30.05000,-111
30.05833,-113
30.06667,-115
30.07500,-117
30.08333,-120
30.09167,-122
30.10000,-125
30.10833,-127
30.11667,-130
30.12500,-132
30.13333,-135
30.14167,-138
30.15000,-140
30.15833,-143
30.16667,-146
30.17500,-149
30.18333,-152
30.19167,-155
30.20000,-159
30.20833,-163
30.21667,-167
30.22500,-171
30.23333,-175
30.24167,-179
30.25000,-183
30.25833,-187
30.26667,-191
30.27500,-195
30.28333,-199
30.29167,-203
30.30000,-207
30.30833,-211
30.31667,-215
30.32500,-219
30.33333,-224
30.34167,-228
30.35000,-232
30.35833,-237
30.36667,-241
30.37500,-245
30.38333,-249
30.39167,-253
30.40000,-258
30.40833,-262
30.41667,-266
30.42500,-270
30.43333,-274
30.44167,-277
30.45000,-281
30.45833,-284
30.46667,-288
30.47500,-292
30.48333,-296
30.49167,-299
30.50000,-302
30.50833,-305
30.51667,-308
30.52500,-311
30.53333,-314
30.54167,-316
30.55000,-319
30.55833,-321
30.56667,-324
30.57500,-326
30.58333,-328
30.59167,-329
30.60000,-331
30.60833,-333
30.61667,-334
30.62500,-335
30.63333,-336
30.64167,-337
30.65000,-338
30.65833,-339
30.66667,-339
30.67500,-340
30.68333,-340
30.69167,-340
30.70000,-339
30.70833,-339
30.71667,-339
30.72500,-338
30.73333,-337
30.74167,-336
30.75000,-335
30.75833,-333
30.76667,-332
30.77500,-330
30.78333,-327
30.79167,-325
30.80000,-323
30.80833,-321
30.81667,-318
30.82500,-316
30.83333,-312
30.84167,-309
30.85000,-306
30.85833,-303
30.86667,-299
30.87500,-296
30.88333,-292
30.89167,-288
30.90000,-284
30.90833,-280
30.91667,-276
30.92500,-272
30.93333,-269
30.94167,-265
30.95000,-261
30.95833,-256
30.96667,-252
30.97500,-248
30.98333,-244
30.99167,-239
31.00000,-235
31.00833,-230
31.01667,-226
31.02500,-221
31.03333,-217
31.04167,-212
31.05000,-208
31.05833,-204
31.06667,-199
31.07500,-195
31.08333,-191
31.09167,-186
31.10000,-182
31.10833,-179
31.11667,-175
31.12500,-171
31.13333,-167
31.14167,-163
31.15000,-159
31.15833,-156
31.16667,-152
31.17500,-149
31.18333,-146
31.19167,-142
31.20000,-139
31.20833,-136
31.21667,-134
31.22500,-131
31.23333,-128
31.24167,-125
31.25000,-122
31.25833,-120
31.26667,-117
31.27500,-115
31.28333,-113
31.29167,-110
31.30000,-108
31.30833,-106
31.31667,-104
31.32500,-102
31.33333,-100
31.34167,-98
31.35000,-96
31.35833,-94
31.36667,-93
31.37500,-91
31.38333,-89
31.39167,-87
31.40000,-85
31.40833,-84
31.41667,-83
31.42500,-81
31.43333,-80
31.44167,-79
31.45000,-78
31.45833,-76
31.46667,-75
31.47500,-73
31.48333,-72
31.49167,-70
31.50000,-69
31.50833,-67
31.51667,-66
31.52500,-64
31.53333,-63
31.54167,-61
31.55000,-60
31.55833,-58
31.56667,-57
31.57500,-55
31.58333,-53
31.59167,-51
31.60000,-48
31.60833,-45
31.61667,-43
31.62500,-40
31.63333,-37
31.64167,-34
31.65000,-30
31.65833,-27
31.66667,-24
31.67500,-20
31.68333,-16
31.69167,-12
31.70000,-8
31.70833,-3
31.71667,2
31.72500,7
31.73333,12
31.74167,17
31.75000,23
31.75833,29
31.76667,35
31.77500,41
31.78333,47
31.79167,53
31.80000,60
31.80833,68
31.81667,75
31.82500,83
31.83333,91
31.84167,99
31.85000,108
31.85833,116
31.86667,125
31.87500,133
31.88333,142
31.89167,151
31.90000,160
31.90833,169
31.91667,178
31.92500,187
31.93333,196
31.94167,206
31.95000,215
31.95833,225
31.96667,234
31.97500,244
31.98333,253
31.99167,262
32.00000,272
32.00833,282
32.01667,291
32.02500,301
32.03333,310
32.04167,319
32.05000,328
32.05833,337
32.06667,346
32.07500,355
32.08333,363
32.09167,371
32.10000,379
32.10833,387
32.11667,395
32.12500,402
32.13333,409
32.14167,416
32.15000,423
32.15833,429
32.16667,435
32.17500,442
32.18333,448
32.19167,454
32.20000,460
32.20833,465
32.21667,470
32.22500,475
32.23333,480
32.24167,485
32.25000,489
32.25833,493
32.26667,496
32.27500,499
32.28333,502
32.29167,505
32.30000,508
32.30833,511
32.31667,513
32.32500,515
32.33333,517
32.34167,518
32.35000,519
32.35833,520
32.36667,521
32.37500,521
32.38333,521
32.39167,521
32.40000,521
32.40833,519
32.41667,518
32.42500,516
32.43333,514
32.44167,512
32.45000,509
32.45833,506
32.46667,503
32.47500,499
32.48333,495
32.49167,491
32.50000,487
32.50833,482
32.51667,476
32.52500,471
32.53333,466
32.54167,460
32.55000,455
32.55833,449
32.56667,442
32.57500,435
32.58333,428
32.59167,420
32.60000,412
32.60833,404
32.61667,396
32.62500,388
32.63333,379
32.64167,371
32.65000,362
32.65833,353
32.66667,344
32.67500,335
32.68333,326
32.69167,317
32.70000,307
32.70833,298
32.71667,289
32.72500,279
32.73333,269
32.74167,260
32.75000,250
32.75833,241
32.76667,232
32.77500,222
32.78333,213
32.79167,204
32.80000,195
32.80833,186
32.81667,177
32.82500,169
32.83333,160
32.84167,152
32.85000,144
32.85833,136
32.86667,128
32.87500,120
32.88333,113
32.89167,106
32.90000,99
32.90833,92
32.91667,85
32.92500,78
32.93333,71
32.94167,65
32.95000,60
32.95833,54
32.96667,48
32.97500,43
32.98333,37
32.99167,32
33.00000,27
33.00833,22
33.01667,17
33.02500,13
33.03333,9
33.04167,5
33.05000,1
33.05833,-2
33.06667,-5
33.07500,-8
33.08333,-12
33.09167,-14
33.10000,-17
33.10833,-19
33.11667,-22
33.12500,-24
33.13333,-27
33.14167,-30
33.15000,-32
33.15833,-34
33.16667,-36
33.17500,-39
33.18333,-41
33.19167,-42
33.20000,-44
33.20833,-45
33.21667,-47
33.22500,-48
33.23333,-49
33.24167,-50
33.25000,-51
33.25833,-52
33.26667,-54
33.27500,-55
33.28333,-56
33.29167,-57
33.30000,-58
33.30833,-59
33.31667,-60
33.32500,-61
33.33333,-62
33.34167,-64
33.35000,-64
33.35833,-64
33.36667,-65
33.37500,-65
33.38333,-65
33.39167,-66
33.40000,-67
33.40833,-67
33.41667,-68
33.42500,-68
33.43333,-69
33.44167,-69
33.45000,-69
33.45833,-70
33.46667,-70
33.47500,-71
33.48333,-71
33.49167,-72
33.50000,-73
33.50833,-73
33.51667,-74
33.52500,-74
33.53333,-74
33.54167,-74
33.55000,-74
33.55833,-74
33.56667,-74
33.57500,-75
33.58333,-75
33.59167,-75
33.60000,-75
33.60833,-75
33.61667,-75
33.62500,-75
33.63333,-76
33.64167,-76
33.65000,-77
33.65833,-77
33.66667,-77
33.67500,-77
33.68333,-77
33.69167,-78
33.70000,-78
33.70833,-78
33.71667,-77
33.72500,-77
33.73333,-77
33.74167,-77
33.75000,-77
33.75833,-77
33.76667,-77
33.77500,-77
33.78333,-78
33.79167,-78
33.80000,-78
33.80833,-78
33.81667,-78
33.82500,-78
33.83333,-78
33.84167,-78
33.85000,-77
33.85833,-78
33.86667,-78
33.87500,-77
33.88333,-77
33.89167,-77
33.90000,-76
33.90833,-76
33.91667,-76
33.92500,-75
33.93333,-75
33.94167,-75
33.95000,-75
33.95833,-75
33.96667,-75
33.97500,-75
33.98333,-75
33.99167,-75
34.00000,-75
34.00833,-74
34.01667,-74
34.02500,-74
34.03333,-73
34.04167,-73
34.05000,-73
34.05833,-73
34.06667,-73
34.07500,-72
34.08333,-72
34.09167,-72
34.10000,-72
34.10833,-72
34.11667,-71
34.12500,-71
34.13333,-71
34.14167,-70
34.15000,-69
34.15833,-68
34.16667,-68
34.17500,-68
34.18333,-67
34.19167,-67
34.20000,-67
34.20833,-67
34.21667,-68
34.22500,-67
34.23333,-67
34.24167,-67
34.25000,-67
34.25833,-67
34.26667,-66
34.27500,-66
34.28333,-66
34.29167,-66
34.30000,-66
34.30833,-66
34.31667,-66
34.32500,-66
34.33333,-66
34.34167,-66
34.35000,-66
34.35833,-66
34.36667,-66
34.37500,-66
34.38333,-66
34.39167,-65
34.40000,-65
34.40833,-65
34.41667,-64
34.42500,-64
34.43333,-64
34.44167,-64
34.45000,-64
34.45833,-64
34.46667,-64
34.47500,-64
34.48333,-64
34.49167,-63
34.50000,-63
34.50833,-62
34.51667,-63
34.52500,-63
34.53333,-63
34.54167,-63
34.55000,-63
34.55833,-63
34.56667,-63
34.57500,-63
34.58333,-63
34.59167,-63
34.60000,-63
34.60833,-63
34.61667,-63
34.62500,-62
34.63333,-62
34.64167,-63
34.65000,-63
34.65833,-63
34.66667,-63
34.67500,-63
34.68333,-63
34.69167,-63
34.70000,-63
34.70833,-63
34.71667,-63
34.72500,-63
34.73333,-63
34.74167,-63
34.75000,-63
34.75833,-63
34.76667,-63
34.77500,-63
34.78333,-63
34.79167,-63
34.80000,-63
34.80833,-63
34.81667,-63
34.82500,-64
34.83333,-64
34.84167,-65
34.85000,-64
34.85833,-64
34.86667,-64
34.87500,-64
34.88333,-64
34.89167,-64
34.90000,-64
34.90833,-64
34.91667,-65
34.92500,-65
34.93333,-65
34.94167,-65
34.95000,-64
34.95833,-64
34.96667,-64
34.97500,-64
34.98333,-64
34.99167,-64
35.00000,-64
35.00833,-64
35.01667,-64
35.02500,-64
35.03333,-64
35.04167,-64
35.05000,-64
35.05833,-64
35.06667,-64
35.07500,-64
35.08333,-65
35.09167,-65
35.10000,-65
35.10833,-64
35.11667,-64
35.12500,-64
35.13333,-64
35.14167,-64
35.15000,-65
35.15833,-64
35.16667,-64
35.17500,-64
35.18333,-65
35.19167,-65
35.20000,-65
35.20833,-65
35.21667,-65
35.22500,-66
35.23333,-66
35.24167,-66
35.25000,-66
35.25833,-66
35.26667,-66
35.27500,-66
35.28333,-66
35.29167,-66
35.30000,-65
35.30833,-65
35.31667,-65
35.32500,-64
35.33333,-64
35.34167,-65
35.35000,-64
35.35833,-64
35.36667,-64
35.37500,-64
35.38333,-64
35.39167,-64
35.40000,-64
35.40833,-64
35.41667,-64
35.42500,-64
35.43333,-65
35.44167,-65
35.45000,-65
35.45833,-65
35.46667,-65
35.47500,-66
35.48333,-66
35.49167,-66
35.50000,-65
35.50833,-65
35.51667,-64
35.52500,-64
35.53333,-64
35.54167,-64
35.55000,-64
35.55833,-64
35.56667,-64
35.57500,-64
35.58333,-64
35.59167,-64
35.60000,-64
35.60833,-64
35.61667,-64
35.62500,-64
35.63333,-65
35.64167,-65
35.65000,-65
35.65833,-65
35.66667,-65
35.67500,-65
35.68333,-65
35.69167,-65
35.70000,-65
35.70833,-65
35.71667,-65
35.72500,-65
35.73333,-65
35.74167,-65
35.75000,-65
35.75833,-65
35.76667,-65
35.77500,-65
35.78333,-65
35.79167,-65
35.80000,-65
35.80833,-65
35.81667,-65
35.82500,-65
35.83333,-65
35.84167,-65
35.85000,-65
35.85833,-64
35.86667,-64
35.87500,-65
35.88333,-65
35.89167,-65
35.90000,-66
35.90833,-65
35.91667,-65
35.92500,-65
35.93333,-65
35.94167,-65
35.95000,-66
35.95833,-66
35.96667,-66
35.97500,-66
35.98333,-65
35.99167,-66
36.00000,-66
36.00833,-66
36.01667,-66
36.02500,-66
36.03333,-66
36.04167,-66
36.05000,-66
36.05833,-66
36.06667,-66
36.07500,-66
36.08333,-66
36.09167,-66
36.10000,-66
36.10833,-67
36.11667,-67
36.12500,-67
36.13333,-66
36.14167,-66
36.15000,-66
36.15833,-66
36.16667,-66
36.17500,-66
36.18333,-66
36.19167,-67
36.20000,-67
36.20833,-67
36.21667,-67
36.22500,-66
36.23333,-66
36.24167,-66
36.25000,-66
36.25833,-66
36.26667,-66
36.27500,-66
36.28333,-66
36.29167,-66
36.30000,-66
36.30833,-65
36.31667,-65
36.32500,-65
36.33333,-66
36.34167,-66
36.35000,-66
36.35833,-66
36.36667,-67
36.37500,-67
36.38333,-67
36.39167,-67
36.40000,-67
36.40833,-67
36.41667,-67
36.42500,-67
36.43333,-66
36.44167,-66
36.45000,-66
36.45833,-67
36.46667,-67
36.47500,-67
36.48333,-67
36.49167,-66
36.50000,-66
36.50833,-67
36.51667,-67
36.52500,-67
36.53333,-67
36.54167,-67
36.55000,-67
36.55833,-68
36.56667,-68
36.57500,-68
36.58333,-68
36.59167,-67
36.60000,-67
36.60833,-67
36.61667,-67
36.62500,-67
36.63333,-67
36.64167,-67
36.65000,-67
36.65833,-67
36.66667,-67
36.67500,-67
36.68333,-67
36.69167,-67
36.70000,-67
36.70833,-67
36.71667,-67
36.72500,-67
36.73333,-67
36.74167,-66
36.75000,-66
36.75833,-66
36.76667,-66
36.77500,-66
36.78333,-66
36.79167,-66
36.80000,-66
36.80833,-67
36.81667,-67
36.82500,-66
36.83333,-66
36.84167,-66
36.85000,-66
36.85833,-66
36.86667,-66
36.87500,-66
36.88333,-66
36.89167,-66
36.90000,-66
36.90833,-66
36.91667,-66
36.92500,-66
36.93333,-66
36.94167,-66
36.95000,-66
36.95833,-66
36.96667,-66
36.97500,-66
36.98333,-66
36.99167,-66
37.00000,-65
37.00833,-65
37.01667,-65
37.02500,-65
37.03333,-65
37.04167,-65
37.05000,-65
37.05833,-65
37.06667,-65
37.07500,-66
37.08333,-66
37.09167,-65
37.10000,-65
37.10833,-65
37.11667,-65
37.12500,-65
37.13333,-65
37.14167,-65
37.15000,-65
37.15833,-64
37.16667,-64
37.17500,-64
37.18333,-64
37.19167,-65
37.20000,-65
37.20833,-65
37.21667,-65
37.22500,-65
37.23333,-65
37.24167,-65
37.25000,-65
37.25833,-65
37.26667,-64
37.27500,-64
37.28333,-64
37.29167,-64
37.30000,-64
37.30833,-64
37.31667,-64
37.32500,-64
37.33333,-64
37.34167,-64
37.35000,-64
37.35833,-64
37.36667,-64
37.37500,-64
37.38333,-64
37.39167,-64
37.40000,-64
37.40833,-64
37.41667,-64
37.42500,-64
37.43333,-64
37.44167,-64
37.45000,-64
37.45833,-64
37.46667,-63
37.47500,-63
37.48333,-63
37.49167,-63
37.50000,-63
37.50833,-63
37.51667,-63
37.52500,-64
37.53333,-64
37.54167,-64
37.55000,-64
37.55833,-64
37.56667,-63
37.57500,-63
37.58333,-63
37.59167,-63
37.60000,-64
37.60833,-64
37.61667,-64
37.62500,-64
37.63333,-64
37.64167,-64
37.65000,-64
37.65833,-64
37.66667,-64
37.67500,-63
37.68333,-63
37.69167,-63
37.70000,-63
37.70833,-63
37.71667,-63
37.72500,-63
37.73333,-63
37.74167,-63
37.75000,-63
37.75833,-63
37.76667,-63
37.77500,-63
37.78333,-63
37.79167,-64
37.80000,-64
37.80833,-64
37.81667,-64
37.82500,-64
37.83333,-63
37.84167,-63
37.85000,-63
37.85833,-63
37.86667,-63
37.87500,-63
37.88333,-64
37.89167,-64
37.90000,-63
37.90833,-63
37.91667,-63
37.92500,-64
37.93333,-64
37.94167,-64
37.95000,-64
37.95833,-64
37.96667,-64
37.97500,-64
37.98333,-64
37.99167,-65
38.00000,-64
38.00833,-64
38.01667,-65
38.02500,-65
38.03333,-65
38.04167,-65
38.05000,-64
38.05833,-65
38.06667,-65
38.07500,-65
38.08333,-65
38.09167,-65
38.10000,-66
38.10833,-66
38.11667,-66
38.12500,-66
38.13333,-66
38.14167,-66
38.15000,-66
38.15833,-65
38.16667,-66
38.17500,-66
38.18333,-66
38.19167,-66
38.20000,-66
38.20833,-66
38.21667,-66
38.22500,-66
38.23333,-66
38.24167,-66
38.25000,-67
38.25833,-67
38.26667,-67
38.27500,-66
38.28333,-66
38.29167,-66
38.30000,-66
38.30833,-66
38.31667,-66
38.32500,-66
38.33333,-66
38.34167,-66
38.35000,-66
38.35833,-66
38.36667,-66
38.37500,-66
38.38333,-66
38.39167,-66
38.40000,-66
38.40833,-67
38.41667,-67
38.42500,-67
38.43333,-67
38.44167,-67
38.45000,-68
38.45833,-68
38.46667,-68
38.47500,-68
38.48333,-68
38.49167,-68
38.50000,-69
38.50833,-69
38.51667,-69
38.52500,-69
38.53333,-69
38.54167,-69
38.55000,-69
38.55833,-69
38.56667,-69
38.57500,-70
38.58333,-70
38.59167,-70
38.60000,-70
38.60833,-70
38.61667,-70
38.62500,-70
38.63333,-70
38.64167,-70
38.65000,-70
38.65833,-70
38.66667,-70
38.67500,-70
38.68333,-70
38.69167,-71
38.70000,-71
38.70833,-71
38.71667,-71
38.72500,-71
38.73333,-72
38.74167,-72
38.75000,-72
38.75833,-72
38.76667,-72
38.77500,-72
38.78333,-72
38.79167,-72
38.80000,-72
38.80833,-73
38.81667,-73
38.82500,-73
38.83333,-73
38.84167,-73
38.85000,-73
38.85833,-73
38.86667,-73
38.87500,-73
38.88333,-73
38.89167,-73
38.90000,-73
38.90833,-73
38.91667,-73
38.92500,-74
38.93333,-74
38.94167,-74
38.95000,-74
38.95833,-74
38.96667,-74
38.97500,-74
38.98333,-74
38.99167,-75
39.00000,-75
39.00833,-75
39.01667,-76
39.02500,-76
39.03333,-75
39.04167,-75
39.05000,-75
39.05833,-75
39.06667,-75
39.07500,-75
39.08333,-75
39.09167,-75
39.10000,-74
39.10833,-75
39.11667,-75
39.12500,-75
39.13333,-75
39.14167,-76
39.15000,-76
39.15833,-76
39.16667,-76
39.17500,-76
39.18333,-76
39.19167,-76
39.20000,-75
39.20833,-76
39.21667,-76
39.22500,-76
39.23333,-76
39.24167,-76
39.25000,-76
39.25833,-76
39.26667,-76
39.27500,-76
39.28333,-76
39.29167,-76
39.30000,-76
39.30833,-76
39.31667,-76
39.32500,-76
39.33333,-76
39.34167,-77
39.35000,-77
39.35833,-77
39.36667,-77
39.37500,-77
39.38333,-77
39.39167,-77
39.40000,-77
39.40833,-77
39.41667,-77
39.42500,-77
39.43333,-77
39.44167,-77
39.45000,-77
39.45833,-77
39.46667,-77
39.47500,-77
39.48333,-77
39.49167,-77
39.50000,-77
39.50833,-77
39.51667,-76
39.52500,-77
39.53333,-77
39.54167,-77
39.55000,-77
39.55833,-77
39.56667,-77
39.57500,-77
39.58333,-77
39.59167,-78
39.60000,-78
39.60833,-78
39.61667,-78
39.62500,-78
39.63333,-78
39.64167,-78
39.65000,-78
39.65833,-78
39.66667,-78
39.67500,-78
39.68333,-78
39.69167,-78
39.70000,-78
39.70833,-77
39.71667,-78
39.72500,-78
39.73333,-78
39.74167,-78
39.75000,-78
39.75833,-79
39.76667,-79
39.77500,-79
39.78333,-78
39.79167,-78
39.80000,-77
39.80833,-77
39.81667,-77
39.82500,-78
39.83333,-78
39.84167,-78
39.85000,-78
39.85833,-79
39.86667,-79
39.87500,-79
39.88333,-79
39.89167,-79
39.90000,-79
39.90833,-78
39.91667,-78
39.92500,-77
39.93333,-77
39.94167,-77
39.95000,-77
39.95833,-77
39.96667,-78
39.97500,-78
39.98333,-79
39.99167,-79
40.00000,-79
40.00833,-80
40.01667,-80
40.02500,-80
40.03333,-79
40.04167,-79
40.05000,-79
40.05833,-80
40.06667,-80
40.07500,-80
40.08333,-80
40.09167,-79
40.10000,-79
40.10833,-79
40.11667,-79
40.12500,-79
40.13333,-79
40.14167,-79
40.15000,-79
40.15833,-79
40.16667,-79
40.17500,-79
40.18333,-79
40.19167,-79
40.20000,-80
40.20833,-80
40.21667,-80
40.22500,-79
40.23333,-79
40.24167,-79
40.25000,-80
40.25833,-80
40.26667,-80
40.27500,-80
40.28333,-80
40.29167,-80
40.30000,-80
40.30833,-81
40.31667,-81
40.32500,-81
40.33333,-81
40.34167,-81
40.35000,-81
40.35833,-81
40.36667,-81
40.37500,-81
40.38333,-81
40.39167,-81
40.40000,-81
40.40833,-82
40.41667,-82
40.42500,-82
40.43333,-82
40.44167,-82
40.45000,-82
40.45833,-82
40.46667,-82
40.47500,-83
40.48333,-83
40.49167,-83
40.50000,-83
40.50833,-83
40.51667,-83
40.52500,-83
40.53333,-83
40.54167,-83
40.55000,-84
40.55833,-84
40.56667,-84
40.57500,-84
40.58333,-83
40.59167,-83
40.60000,-83
40.60833,-83
40.61667,-84
40.62500,-84
40.63333,-84
40.64167,-84
40.65000,-84
40.65833,-84
40.66667,-84
40.67500,-84
40.68333,-84
40.69167,-83
40.70000,-83
40.70833,-83
40.71667,-83
40.72500,-83
40.73333,-83
40.74167,-83
40.75000,-84
40.75833,-84
40.76667,-85
40.77500,-85
40.78333,-85
40.79167,-86
40.80000,-86
40.80833,-86
40.81667,-86
40.82500,-86
40.83333,-86
40.84167,-86
40.85000,-86
40.85833,-86
40.86667,-86
40.87500,-86
40.88333,-86
40.89167,-86
40.90000,-85
40.90833,-85
40.91667,-86
40.92500,-86
40.93333,-86
40.94167,-86
40.95000,-86
40.95833,-86
40.96667,-86
40.97500,-86
40.98333,-86
40.99167,-86
41.00000,-87
41.00833,-87
41.01667,-87
41.02500,-87
41.03333,-87
41.04167,-86
41.05000,-86
41.05833,-86
41.06667,-86
41.07500,-86
41.08333,-86
41.09167,-86
41.10000,-86
41.10833,-86
41.11667,-86
41.12500,-86
41.13333,-86
41.14167,-86
41.15000,-86
41.15833,-86
41.16667,-86
41.17500,-86
41.18333,-86
41.19167,-86
41.20000,-86
41.20833,-86
41.21667,-86
41.22500,-86
41.23333,-86
41.24167,-86
41.25000,-86
41.25833,-86
41.26667,-86
41.27500,-86
41.28333,-86
41.29167,-86
41.30000,-87
41.30833,-87
41.31667,-87
41.32500,-87
41.33333,-87
41.34167,-87
41.35000,-87
41.35833,-87
41.36667,-87
41.37500,-87
41.38333,-87
41.39167,-87
41.40000,-87
41.40833,-87
41.41667,-87
41.42500,-87
41.43333,-87
41.44167,-87
41.45000,-88
41.45833,-88
41.46667,-88
41.47500,-88
41.48333,-88
41.49167,-88
41.50000,-88
41.50833,-88
41.51667,-87
41.52500,-87
41.53333,-87
41.54167,-88
41.55000,-88
41.55833,-88
41.56667,-88
41.57500,-88
41.58333,-87
41.59167,-87
41.60000,-87
41.60833,-88
41.61667,-88
41.62500,-89
41.63333,-89
41.64167,-88
41.65000,-88
41.65833,-88
41.66667,-87
41.67500,-87
41.68333,-88
41.69167,-88
41.70000,-88
41.70833,-88
41.71667,-88
41.72500,-88
41.73333,-88
41.74167,-88
41.75000,-88
41.75833,-88
41.76667,-87
41.77500,-87
41.78333,-87
41.79167,-87
41.80000,-87
41.80833,-88
41.81667,-88
41.82500,-88
41.83333,-88
41.84167,-88
41.85000,-88
41.85833,-88
41.86667,-88
41.87500,-88
41.88333,-88
41.89167,-88
41.90000,-88
41.90833,-88
41.91667,-88
41.92500,-88
41.93333,-89
41.94167,-89
41.95000,-88
41.95833,-88
41.96667,-88
41.97500,-88
41.98333,-88
41.99167,-88
42.00000,-88
42.00833,-88
42.01667,-89
42.02500,-89
42.03333,-89
42.04167,-89
42.05000,-88
42.05833,-88
42.06667,-88
42.07500,-88
42.08333,-88
42.09167,-88
42.10000,-88
42.10833,-88
42.11667,-88
42.12500,-88
42.13333,-88
42.14167,-88
42.15000,-87
42.15833,-87
42.16667,-87
42.17500,-87
42.18333,-87
42.19167,-86
42.20000,-87
42.20833,-87
42.21667,-87
42.22500,-87
42.23333,-88
42.24167,-88
42.25000,-88
42.25833,-88
42.26667,-88
42.27500,-88
42.28333,-89
42.29167,-89
42.30000,-89
42.30833,-88
42.31667,-88
42.32500,-88
42.33333,-89
42.34167,-89
42.35000,-89
42.35833,-89
42.36667,-89
42.37500,-89
42.38333,-89
42.39167,-88
42.40000,-88
42.40833,-88
42.41667,-88
42.42500,-88
42.43333,-88
42.44167,-89
42.45000,-89
42.45833,-89
42.46667,-89
42.47500,-89
42.48333,-89
42.49167,-89
42.50000,-89
42.50833,-89
42.51667,-89
42.52500,-89
42.53333,-89
42.54167,-89
42.55000,-89
42.55833,-88
42.56667,-88
42.57500,-88
42.58333,-88
42.59167,-88
42.60000,-88
42.60833,-88
42.61667,-88
42.62500,-88
42.63333,-88
42.64167,-89
42.65000,-89
42.65833,-89
42.66667,-89
42.67500,-89
42.68333,-89
42.69167,-89
42.70000,-89
42.70833,-89
42.71667,-89
42.72500,-89
42.73333,-89
42.74167,-89
42.75000,-89
42.75833,-89
42.76667,-89
42.77500,-89
42.78333,-89
42.79167,-89
42.80000,-89
42.80833,-88
42.81667,-88
42.82500,-89
42.83333,-89
42.84167,-89
42.85000,-89
42.85833,-89
42.86667,-90
42.87500,-90
42.88333,-90
42.89167,-89
42.90000,-89
42.90833,-89
42.91667,-89
42.92500,-89
42.93333,-89
42.94167,-89
42.95000,-89
42.95833,-89
42.96667,-89
42.97500,-89
42.98333,-89
42.99167,-89
43.00000,-89
43.00833,-89
43.01667,-89
43.02500,-89
43.03333,-89
43.04167,-89
43.05000,-89
43.05833,-89
43.06667,-89
43.07500,-89
43.08333,-89
43.09167,-89
43.10000,-89
43.10833,-89
43.11667,-89
43.12500,-89
43.13333,-89
43.14167,-89
43.15000,-89
43.15833,-89
43.16667,-89
43.17500,-89
43.18333,-89
43.19167,-89
43.20000,-89
43.20833,-89
43.21667,-89
43.22500,-90
43.23333,-90
43.24167,-90
43.25000,-90
43.25833,-90
43.26667,-90
43.27500,-90
43.28333,-90
43.29167,-90
43.30000,-90
43.30833,-90
43.31667,-90
43.32500,-90
43.33333,-89
43.34167,-89
43.35000,-89
43.35833,-89
43.36667,-89
43.37500,-89
43.38333,-89
43.39167,-89
43.40000,-89
43.40833,-89
43.41667,-89
43.42500,-89
43.43333,-89
43.44167,-89
43.45000,-89
43.45833,-89
43.46667,-89
43.47500,-89
43.48333,-89
43.49167,-89
43.50000,-88
43.50833,-88
43.51667,-88
43.52500,-88
43.53333,-88
43.54167,-89
43.55000,-89
43.55833,-89
43.56667,-88
43.57500,-88
43.58333,-89
43.59167,-89
43.60000,-89
43.60833,-89
43.61667,-89
43.62500,-89
43.63333,-89
43.64167,-89
43.65000,-89
43.65833,-90
43.66667,-90
43.67500,-90
43.68333,-90
43.69167,-89
43.70000,-89
43.70833,-89
43.71667,-89
43.72500,-89
43.73333,-89
43.74167,-89
43.75000,-89
43.75833,-89
43.76667,-89
43.77500,-89
43.78333,-89
43.79167,-89
43.80000,-89
43.80833,-88
43.81667,-88
43.82500,-88
43.83333,-88
43.84167,-89
43.85000,-89
43.85833,-89
43.86667,-90
43.87500,-89
43.88333,-89
43.89167,-88
43.90000,-89
43.90833,-89
43.91667,-89
43.92500,-89
43.93333,-89
43.94167,-89
43.95000,-89
43.95833,-89
43.96667,-89
43.97500,-89
43.98333,-88
43.99167,-88
44.00000,-88
44.00833,-88
44.01667,-88
44.02500,-88
44.03333,-89
44.04167,-89
44.05000,-89
44.05833,-89
44.06667,-89
44.07500,-89
44.08333,-89
44.09167,-88
44.10000,-89
44.10833,-88
44.11667,-88
44.12500,-89
44.13333,-89
44.14167,-89
44.15000,-89
44.15833,-89
44.16667,-89
44.17500,-89
44.18333,-89
44.19167,-88
44.20000,-88
44.20833,-88
44.21667,-88
44.22500,-88
44.23333,-89
44.24167,-89
44.25000,-89
44.25833,-89
44.26667,-89
44.27500,-89
44.28333,-89
44.29167,-89
44.30000,-89
44.30833,-89
44.31667,-89
44.32500,-89
44.33333,-88
44.34167,-88
44.35000,-88
44.35833,-88
44.36667,-89
44.37500,-89
44.38333,-89
44.39167,-89
44.40000,-90
44.40833,-90
44.41667,-90
44.42500,-90
44.43333,-90
44.44167,-89
44.45000,-89
44.45833,-89
44.46667,-89
44.47500,-89
44.48333,-89
44.49167,-89
44.50000,-90
44.50833,-90
44.51667,-90
44.52500,-90
44.53333,-90
44.54167,-90
44.55000,-90
44.55833,-90
44.56667,-90
44.57500,-90
44.58333,-90
44.59167,-90
44.60000,-90
44.60833,-90
44.61667,-90
44.62500,-90
44.63333,-90
44.64167,-90
44.65000,-90
44.65833,-90
44.66667,-91
44.67500,-91
44.68333,-91
44.69167,-90
44.70000,-90
44.70833,-90
44.71667,-90
44.72500,-90
44.73333,-90
44.74167,-90
44.75000,-91
44.75833,-91
44.76667,-91
44.77500,-91
44.78333,-91
44.79167,-91
44.80000,-91
44.80833,-91
44.81667,-92
44.82500,-92
44.83333,-91
44.84167,-91
44.85000,-91
44.85833,-91
44.86667,-91
44.87500,-91
44.88333,-91
44.89167,-91
44.90000,-91
44.90833,-91
44.91667,-91
44.92500,-91
44.93333,-91
44.94167,-91
44.95000,-91
44.95833,-91
44.96667,-91
44.97500,-91
44.98333,-91
44.99167,-91
45.00000,-92
45.00833,-92
45.01667,-92
45.02500,-92
45.03333,-91
45.04167,-91
45.05000,-91
45.05833,-92
45.06667,-92
45.07500,-93
45.08333,-93
45.09167,-92
45.10000,-92
45.10833,-92
45.11667,-92
45.12500,-92
45.13333,-91
45.14167,-91
45.15000,-91
45.15833,-91
45.16667,-92
45.17500,-92
45.18333,-92
45.19167,-92
45.20000,-92
45.20833,-92
45.21667,-92
45.22500,-92
45.23333,-92
45.24167,-92
45.25000,-92
45.25833,-92
45.26667,-92
45.27500,-93
45.28333,-93
45.29167,-93
45.30000,-93
45.30833,-93
45.31667,-93
45.32500,-93
45.33333,-92
45.34167,-92
45.35000,-92
45.35833,-92
45.36667,-92
45.37500,-92
45.38333,-92
45.39167,-92
45.40000,-92
45.40833,-92
45.41667,-92
45.42500,-92
45.43333,-92
45.44167,-91
45.45000,-91
45.45833,-92
45.46667,-93
45.47500,-93
45.48333,-93
45.49167,-93
45.50000,-93
45.50833,-93
45.51667,-93
45.52500,-93
45.53333,-93
45.54167,-92
45.55000,-93
45.55833,-93
45.56667,-93
45.57500,-93
45.58333,-93
45.59167,-93
45.60000,-93
45.60833,-92
45.61667,-92
45.62500,-92
45.63333,-92
45.64167,-92
45.65000,-92
45.65833,-92
45.66667,-92
45.67500,-92
45.68333,-92
45.69167,-92
45.70000,-92
45.70833,-92
45.71667,-92
45.72500,-92
45.73333,-92
45.74167,-92
45.75000,-92
45.75833,-92
45.76667,-92
45.77500,-92
45.78333,-92
45.79167,-92
45.80000,-92
45.80833,-92
45.81667,-92
45.82500,-92
45.83333,-93
45.84167,-93
45.85000,-93
45.85833,-93
45.86667,-93
45.87500,-93
45.88333,-93
45.89167,-93
45.90000,-93
45.90833,-93
45.91667,-93
45.92500,-93
45.93333,-93
45.94167,-93
45.95000,-93
45.95833,-93
45.96667,-92
45.97500,-92
45.98333,-92
45.99167,-92
46.00000,-92
46.00833,-93
46.01667,-93
46.02500,-93
46.03333,-93
46.04167,-93
46.05000,-93
46.05833,-93
46.06667,-93
46.07500,-93
46.08333,-93
46.09167,-93
46.10000,-93
46.10833,-93
46.11667,-93
46.12500,-93
46.13333,-93
46.14167,-93
46.15000,-93
46.15833,-93
46.16667,-93
46.17500,-93
46.18333,-93
46.19167,-93
46.20000,-93
46.20833,-93
46.21667,-93
46.22500,-93
46.23333,-93
46.24167,-93
46.25000,-93
46.25833,-93
46.26667,-93
46.27500,-93
46.28333,-93
46.29167,-93
46.30000,-93
46.30833,-93
46.31667,-94
46.32500,-94
46.33333,-94
46.34167,-94
46.35000,-94
46.35833,-94
46.36667,-94
46.37500,-93
46.38333,-93
46.39167,-94
46.40000,-94
46.40833,-94
46.41667,-94
46.42500,-94
46.43333,-94
46.44167,-94
46.45000,-94
46.45833,-94
46.46667,-94
46.47500,-94
46.48333,-94
46.49167,-94
46.50000,-94
46.50833,-94
46.51667,-95
46.52500,-95
46.53333,-94
46.54167,-94
46.55000,-94
46.55833,-94
46.56667,-94
46.57500,-93
46.58333,-93
46.59167,-93
46.60000,-93
46.60833,-93
46.61667,-93
46.62500,-93
46.63333,-94
46.64167,-94
46.65000,-94
46.65833,-94
46.66667,-93
46.67500,-94
46.68333,-94
46.69167,-94
46.70000,-94
46.70833,-94
46.71667,-94
46.72500,-94
46.73333,-95
46.74167,-95
46.75000,-95
46.75833,-95
46.76667,-95
46.77500,-94
46.78333,-94
46.79167,-95
46.80000,-95
46.80833,-94
46.81667,-94
46.82500,-94
46.83333,-94
46.84167,-94
46.85000,-94
46.85833,-94
46.86667,-94
46.87500,-94
46.88333,-94
46.89167,-94
46.90000,-94
46.90833,-94
46.91667,-94
46.92500,-94
46.93333,-94
46.94167,-94
46.95000,-93
46.95833,-93
46.96667,-94
46.97500,-94
46.98333,-94
46.99167,-94
47.00000,-94
47.00833,-94
47.01667,-94
47.02500,-94
47.03333,-94
47.04167,-94
47.05000,-94
47.05833,-94
47.06667,-94
47.07500,-95
47.08333,-95
47.09167,-95
47.10000,-95
47.10833,-96
47.11667,-95
47.12500,-95
47.13333,-95
47.14167,-95
47.15000,-95
47.15833,-95
47.16667,-95
47.17500,-95
47.18333,-95
47.19167,-95
47.20000,-95
47.20833,-95
47.21667,-95
47.22500,-95
47.23333,-95
47.24167,-95
47.25000,-94
47.25833,-94
47.26667,-94
47.27500,-94
47.28333,-94
47.29167,-94
47.30000,-95
47.30833,-95
47.31667,-95
47.32500,-95
47.33333,-95
47.34167,-94
47.35000,-94
47.35833,-94
47.36667,-94
47.37500,-94
47.38333,-95
47.39167,-95
47.40000,-95
47.40833,-95
47.41667,-95
47.42500,-95
47.43333,-95
47.44167,-95
47.45000,-95
47.45833,-95
47.46667,-95
47.47500,-95
47.48333,-95
47.49167,-95
47.50000,-95
47.50833,-95
47.51667,-95
47.52500,-95
47.53333,-95
47.54167,-96
47.55000,-96
47.55833,-96
47.56667,-96
47.57500,-95
47.58333,-95
47.59167,-95
47.60000,-95
47.60833,-95
47.61667,-95
47.62500,-95
47.63333,-95
47.64167,-95
47.65000,-95
47.65833,-96
47.66667,-96
47.67500,-96
47.68333,-96
47.69167,-96
47.70000,-96
47.70833,-96
47.71667,-95
47.72500,-95
47.73333,-95
47.74167,-95
47.75000,-96
47.75833,-96
47.76667,-95
47.77500,-95
47.78333,-95
47.79167,-95
47.80000,-95
47.80833,-96
47.81667,-96
47.82500,-96
47.83333,-96
47.84167,-96
47.85000,-96
47.85833,-96
47.86667,-96
47.87500,-96
47.88333,-96
47.89167,-96
47.90000,-96
47.90833,-97
47.91667,-97
47.92500,-96
47.93333,-96
47.94167,-96
47.95000,-96
47.95833,-96
47.96667,-96
47.97500,-96
47.98333,-96
47.99167,-96
48.00000,-96
48.00833,-96
48.01667,-97
48.02500,-97
48.03333,-97
48.04167,-97
48.05000,-97
48.05833,-97
48.06667,-97
48.07500,-97
48.08333,-97
48.09167,-97
48.10000,-97
48.10833,-97
48.11667,-97
48.12500,-97
48.13333,-97
48.14167,-96
48.15000,-96
48.15833,-96
48.16667,-96
48.17500,-96
48.18333,-96
48.19167,-97
48.20000,-97
48.20833,-96
48.21667,-97
48.22500,-97
48.23333,-96
48.24167,-96
48.25000,-96
48.25833,-96
48.26667,-96
48.27500,-96
48.28333,-97
48.29167,-97
48.30000,-97
48.30833,-97
48.31667,-98
48.32500,-98
48.33333,-98
48.34167,-98
48.35000,-98
48.35833,-98
48.36667,-97
48.37500,-97
48.38333,-97
48.39167,-96
48.40000,-96
48.40833,-96
48.41667,-96
48.42500,-96
48.43333,-96
48.44167,-97
48.45000,-97
48.45833,-97
48.46667,-97
48.47500,-97
48.48333,-97
48.49167,-97
48.50000,-97
48.50833,-97
48.51667,-96
48.52500,-96
48.53333,-96
48.54167,-97
48.55000,-97
48.55833,-97
48.56667,-97
48.57500,-97
48.58333,-98
48.59167,-98
48.60000,-98
48.60833,-98
48.61667,-98
48.62500,-98
48.63333,-98
48.64167,-98
48.65000,-98
48.65833,-98
48.66667,-97
48.67500,-97
48.68333,-97
48.69167,-97
48.70000,-97
48.70833,-97
48.71667,-97
48.72500,-97
48.73333,-97
48.74167,-98
48.75000,-98
48.75833,-98
48.76667,-98
48.77500,-98
48.78333,-98
48.79167,-98
48.80000,-98
48.80833,-98
48.81667,-98
48.82500,-98
48.83333,-98
48.84167,-98
48.85000,-98
48.85833,-98
48.86667,-98
48.87500,-98
48.88333,-98
48.89167,-98
48.90000,-99
48.90833,-99
48.91667,-99
48.92500,-99
48.93333,-99
48.94167,-99
48.95000,-99
48.95833,-99
48.96667,-99
48.97500,-99
48.98333,-99
48.99167,-100
49.00000,-100
49.00833,-99
49.01667,-99
49.02500,-99
49.03333,-99
49.04167,-99
49.05000,-98
49.05833,-98
49.06667,-98
49.07500,-99
49.08333,-99
49.09167,-99
49.10000,-99
49.10833,-99
49.11667,-99
49.12500,-99
49.13333,-100
49.14167,-100
49.15000,-99
49.15833,-99
49.16667,-99
49.17500,-99
49.18333,-98
49.19167,-98
49.20000,-98
49.20833,-99
49.21667,-99
49.22500,-99
49.23333,-99
49.24167,-98
49.25000,-98
49.25833,-98
49.26667,-98
49.27500,-98
49.28333,-98
49.29167,-98
49.30000,-98
49.30833,-98
49.31667,-98
49.32500,-98
49.33333,-98
49.34167,-98
49.35000,-98
49.35833,-98
49.36667,-99
49.37500,-98
49.38333,-98
49.39167,-98
49.40000,-98
49.40833,-98
49.41667,-99
49.42500,-99
49.43333,-99
49.44167,-99
49.45000,-99
49.45833,-99
49.46667,-99
49.47500,-99
49.48333,-98
49.49167,-98
49.50000,-98
49.50833,-98
49.51667,-98
49.52500,-98
49.53333,-98
49.54167,-98
49.55000,-98
49.55833,-98
49.56667,-98
49.57500,-98
49.58333,-98
49.59167,-98
49.60000,-98
49.60833,-99
49.61667,-99
49.62500,-99
49.63333,-99
49.64167,-99
49.65000,-98
49.65833,-98
49.66667,-98
49.67500,-98
49.68333,-98
49.69167,-98
49.70000,-98
49.70833,-98
49.71667,-98
49.72500,-98
49.73333,-98
49.74167,-98
49.75000,-98
49.75833,-98
49.76667,-98
49.77500,-98
49.78333,-98
49.79167,-98
49.80000,-98
49.80833,-98
49.81667,-98
49.82500,-98
49.83333,-98
49.84167,-98
49.85000,-97
49.85833,-97
49.86667,-97
49.87500,-97
49.88333,-97
49.89167,-97
49.90000,-97
49.90833,-97
49.91667,-97
49.92500,-97
49.93333,-98
49.94167,-97
49.95000,-97
49.95833,-97
49.96667,-97
49.97500,-97
49.98333,-97
49.99167,-97
50.00000,-97

