[Header]
Application Name,LabSolutions
Version,5.97 SP1
Data File Name,C:\Users\cremerlab\Desktop\Richa\May_12th_2022_yield_expt\May 12th_5122022_001_006.lcd
Output Date,5/12/2022
Output Time,8:15:45 PM

[File Information]
Type,Data File
Generated,5/12/2022 7:35:23 PM
Generated by,System Administrator
Modified,5/12/2022 8:15:45 PM
Modified by,System Administrator

[Sample Information]
Operator Name,System Administrator
Acquired,5/12/2022 7:35:44 PM
Sample Type,0:Unknown
Level,0
Sample Name,220512_BF_2
Sample ID,001
ISTD Amount1,1
ISTD Amount2,1
ISTD Amount3,1
ISTD Amount4,1
ISTD Amount5,1
ISTD Amount6,1
ISTD Amount7,1
ISTD Amount8,1
ISTD Amount9,1
ISTD Amount10,1
ISTD Amount11,1
ISTD Amount12,1
ISTD Amount13,1
ISTD Amount14,1
ISTD Amount15,1
ISTD Amount16,1
ISTD Amount17,1
ISTD Amount18,1
ISTD Amount19,1
ISTD Amount20,1
ISTD Amount21,1
ISTD Amount22,1
ISTD Amount23,1
ISTD Amount24,1
ISTD Amount25,1
ISTD Amount26,1
ISTD Amount27,1
ISTD Amount28,1
ISTD Amount29,1
ISTD Amount30,1
ISTD Amount31,1
ISTD Amount32,1
Sample Amount,1
Dilution Factor,1
Vial#,5
Injection Volume,20

[Original Files]
Data File,C:\Users\cremerlab\Desktop\Richa\May_12th_2022_yield_expt\May 12th_5122022_001_006.lcd
Method File,C:\Users\cremerlab\Desktop\Richa\acetate_excretion.lcm
Batch File,C:\Users\cremerlab\Desktop\Richa\May_12th_2022_yield_expt\May 12th.lcb
Report Format File,c:\LabSolutions\System\DEFAULT.lsr

[File Description]


[Configuration]
Instrument Name,HPLC-PC-Instrument1
Instrument #,1
Line #,1
# of Detectors,2
Detector ID,Detector A,Detector B
Detector Name,Detector A,Detector B
# of Channels,1,1

[Peak Table(Detector A)]
# of Peaks,0

[Peak Table(Detector B)]
# of Peaks,7
Peak#,R.Time,I.Time,F.Time,Area,Height,A/H,Conc.,Mark,ID#,Name,k',Plate #,Plate Ht.,Tailing,Resolution,Sep.Factor,Area Ratio,Height Ratio,Conc. %,Norm Conc.
1,11.077,10.650,12.517,2184489,131508,16.611,0.000,   ,,,0.000,10206,14.698,0.899,0.000,0.000,0,0,0.000,0.000
2,14.486,12.725,15.375,3795645,78823,48.154,0.000,   ,,,0.308,2654,56.519,0.000,4.361,0.000,0,0,0.000,0.000
3,15.862,15.375,20.150,1988064,71937,27.636,0.000, V ,,,0.432,10193,14.716,0.000,1.570,1.404,0,0,0.000,0.000
4,23.275,22.917,23.808,2575,105,24.535,0.000,   ,,,1.101,19103,7.852,1.148,11.387,2.549,0,0,0.000,0.000
5,25.195,24.783,25.817,4649,170,27.292,0.000,   ,,,1.275,18156,8.262,1.155,2.702,1.157,0,0,0.000,0.000
6,29.429,29.058,30.617,15778,191,82.749,0.000,   ,,,1.657,6406,23.414,2.113,3.817,1.300,0,0,0.000,0.000
7,32.257,30.692,33.117,44078,691,63.795,0.000,   ,,,1.912,11049,13.576,0.749,2.096,1.154,0,0,0.000,0.000

[LC Chromatogram(Detector B-Ch1)]
Interval(msec),500
# of Points,4801
Start Time(min),0.000
End Time(min),40.000
Intensity Units,mV
Intensity Multiplier,0.001
R.Time (min),Intensity
0.00000,-1
0.00833,-1
0.01667,-0
0.02500,0
0.03333,-0
0.04167,-0
0.05000,-0
0.05833,-0
0.06667,-1
0.07500,-0
0.08333,0
0.09167,0
0.10000,0
0.10833,0
0.11667,0
0.12500,-0
0.13333,-0
0.14167,-0
0.15000,-0
0.15833,-0
0.16667,-0
0.17500,-0
0.18333,-1
0.19167,-1
0.20000,-1
0.20833,-1
0.21667,-0
0.22500,-0
0.23333,0
0.24167,-0
0.25000,-0
0.25833,-1
0.26667,-1
0.27500,-1
0.28333,-0
0.29167,-1
0.30000,-1
0.30833,-1
0.31667,-2
0.32500,-2
0.33333,-1
0.34167,-1
0.35000,-1
0.35833,-1
0.36667,-1
0.37500,-0
0.38333,-0
0.39167,-0
0.40000,-1
0.40833,-1
0.41667,-1
0.42500,-1
0.43333,-1
0.44167,-1
0.45000,-1
0.45833,-1
0.46667,-1
0.47500,-1
0.48333,-1
0.49167,-0
0.50000,0
0.50833,0
0.51667,-0
0.52500,-1
0.53333,-1
0.54167,-1
0.55000,-1
0.55833,-2
0.56667,-2
0.57500,-2
0.58333,-2
0.59167,-2
0.60000,-2
0.60833,-2
0.61667,-2
0.62500,-2
0.63333,-2
0.64167,-2
0.65000,-2
0.65833,-2
0.66667,-2
0.67500,-2
0.68333,-2
0.69167,-2
0.70000,-2
0.70833,-2
0.71667,-2
0.72500,-2
0.73333,-2
0.74167,-2
0.75000,-2
0.75833,-1
0.76667,-1
0.77500,-1
0.78333,-2
0.79167,-2
0.80000,-1
0.80833,-2
0.81667,-2
0.82500,-2
0.83333,-2
0.84167,-2
0.85000,-2
0.85833,-2
0.86667,-2
0.87500,-2
0.88333,-2
0.89167,-2
0.90000,-2
0.90833,-2
0.91667,-2
0.92500,-2
0.93333,-2
0.94167,-2
0.95000,-2
0.95833,-2
0.96667,-2
0.97500,-2
0.98333,-2
0.99167,-2
1.00000,-2
1.00833,-2
1.01667,-2
1.02500,-2
1.03333,-2
1.04167,-2
1.05000,-2
1.05833,-2
1.06667,-2
1.07500,-1
1.08333,-1
1.09167,-1
1.10000,-1
1.10833,-1
1.11667,-1
1.12500,-1
1.13333,-1
1.14167,-1
1.15000,-0
1.15833,-0
1.16667,-0
1.17500,-0
1.18333,-0
1.19167,-0
1.20000,-0
1.20833,-0
1.21667,-0
1.22500,-0
1.23333,-0
1.24167,-0
1.25000,-0
1.25833,-1
1.26667,-1
1.27500,-1
1.28333,-1
1.29167,-1
1.30000,-1
1.30833,-1
1.31667,-2
1.32500,-2
1.33333,-1
1.34167,-1
1.35000,-2
1.35833,-2
1.36667,-2
1.37500,-2
1.38333,-1
1.39167,-1
1.40000,-1
1.40833,-1
1.41667,-1
1.42500,-1
1.43333,-1
1.44167,-1
1.45000,-1
1.45833,-1
1.46667,-1
1.47500,-1
1.48333,-1
1.49167,-1
1.50000,-1
1.50833,-1
1.51667,-1
1.52500,-1
1.53333,-0
1.54167,-0
1.55000,-1
1.55833,-0
1.56667,-1
1.57500,-1
1.58333,-1
1.59167,-1
1.60000,-1
1.60833,-1
1.61667,-1
1.62500,-0
1.63333,-0
1.64167,-0
1.65000,-0
1.65833,-0
1.66667,-0
1.67500,-0
1.68333,-0
1.69167,-0
1.70000,-0
1.70833,-1
1.71667,-0
1.72500,-0
1.73333,0
1.74167,-0
1.75000,-0
1.75833,-0
1.76667,-0
1.77500,-0
1.78333,-0
1.79167,-0
1.80000,-0
1.80833,-0
1.81667,-0
1.82500,-0
1.83333,-0
1.84167,-0
1.85000,-0
1.85833,-0
1.86667,-1
1.87500,-1
1.88333,-1
1.89167,-1
1.90000,-0
1.90833,-0
1.91667,-0
1.92500,0
1.93333,0
1.94167,1
1.95000,1
1.95833,1
1.96667,1
1.97500,1
1.98333,1
1.99167,1
2.00000,1
2.00833,1
2.01667,1
2.02500,1
2.03333,1
2.04167,0
2.05000,0
2.05833,0
2.06667,0
2.07500,0
2.08333,0
2.09167,0
2.10000,0
2.10833,0
2.11667,0
2.12500,0
2.13333,0
2.14167,0
2.15000,0
2.15833,1
2.16667,1
2.17500,1
2.18333,1
2.19167,1
2.20000,1
2.20833,1
2.21667,1
2.22500,1
2.23333,1
2.24167,0
2.25000,0
2.25833,0
2.26667,1
2.27500,1
2.28333,0
2.29167,0
2.30000,0
2.30833,1
2.31667,1
2.32500,1
2.33333,1
2.34167,1
2.35000,1
2.35833,1
2.36667,1
2.37500,1
2.38333,1
2.39167,2
2.40000,2
2.40833,1
2.41667,1
2.42500,1
2.43333,0
2.44167,0
2.45000,1
2.45833,1
2.46667,1
2.47500,1
2.48333,1
2.49167,1
2.50000,1
2.50833,1
2.51667,1
2.52500,1
2.53333,1
2.54167,1
2.55000,1
2.55833,1
2.56667,1
2.57500,1
2.58333,1
2.59167,1
2.60000,1
2.60833,1
2.61667,1
2.62500,1
2.63333,0
2.64167,0
2.65000,0
2.65833,0
2.66667,0
2.67500,0
2.68333,0
2.69167,1
2.70000,1
2.70833,2
2.71667,1
2.72500,1
2.73333,1
2.74167,1
2.75000,1
2.75833,1
2.76667,1
2.77500,1
2.78333,1
2.79167,1
2.80000,1
2.80833,1
2.81667,0
2.82500,0
2.83333,0
2.84167,0
2.85000,0
2.85833,0
2.86667,0
2.87500,-0
2.88333,-0
2.89167,-0
2.90000,-0
2.90833,-0
2.91667,-0
2.92500,-0
2.93333,-0
2.94167,-1
2.95000,-1
2.95833,-1
2.96667,-0
2.97500,-0
2.98333,0
2.99167,0
3.00000,0
3.00833,1
3.01667,0
3.02500,0
3.03333,0
3.04167,0
3.05000,0
3.05833,1
3.06667,1
3.07500,1
3.08333,1
3.09167,1
3.10000,1
3.10833,1
3.11667,1
3.12500,1
3.13333,1
3.14167,0
3.15000,0
3.15833,-0
3.16667,-0
3.17500,-0
3.18333,0
3.19167,1
3.20000,1
3.20833,1
3.21667,1
3.22500,1
3.23333,1
3.24167,1
3.25000,1
3.25833,1
3.26667,1
3.27500,1
3.28333,1
3.29167,1
3.30000,1
3.30833,1
3.31667,1
3.32500,1
3.33333,1
3.34167,1
3.35000,1
3.35833,1
3.36667,1
3.37500,1
3.38333,2
3.39167,2
3.40000,2
3.40833,2
3.41667,1
3.42500,1
3.43333,1
3.44167,1
3.45000,1
3.45833,1
3.46667,1
3.47500,1
3.48333,2
3.49167,2
3.50000,2
3.50833,2
3.51667,2
3.52500,2
3.53333,3
3.54167,3
3.55000,2
3.55833,2
3.56667,2
3.57500,2
3.58333,2
3.59167,2
3.60000,2
3.60833,2
3.61667,2
3.62500,3
3.63333,3
3.64167,3
3.65000,3
3.65833,3
3.66667,3
3.67500,3
3.68333,3
3.69167,3
3.70000,3
3.70833,2
3.71667,2
3.72500,2
3.73333,2
3.74167,2
3.75000,3
3.75833,3
3.76667,3
3.77500,3
3.78333,3
3.79167,3
3.80000,3
3.80833,3
3.81667,3
3.82500,3
3.83333,3
3.84167,3
3.85000,3
3.85833,3
3.86667,3
3.87500,3
3.88333,3
3.89167,3
3.90000,3
3.90833,3
3.91667,3
3.92500,3
3.93333,3
3.94167,3
3.95000,3
3.95833,3
3.96667,2
3.97500,2
3.98333,2
3.99167,2
4.00000,2
4.00833,2
4.01667,2
4.02500,2
4.03333,2
4.04167,2
4.05000,2
4.05833,2
4.06667,2
4.07500,2
4.08333,2
4.09167,2
4.10000,2
4.10833,2
4.11667,2
4.12500,2
4.13333,3
4.14167,3
4.15000,3
4.15833,3
4.16667,3
4.17500,2
4.18333,2
4.19167,2
4.20000,2
4.20833,2
4.21667,2
4.22500,2
4.23333,2
4.24167,2
4.25000,2
4.25833,2
4.26667,1
4.27500,1
4.28333,1
4.29167,1
4.30000,1
4.30833,1
4.31667,1
4.32500,2
4.33333,2
4.34167,2
4.35000,3
4.35833,3
4.36667,2
4.37500,2
4.38333,2
4.39167,1
4.40000,1
4.40833,1
4.41667,1
4.42500,1
4.43333,1
4.44167,1
4.45000,1
4.45833,1
4.46667,1
4.47500,1
4.48333,1
4.49167,1
4.50000,1
4.50833,1
4.51667,1
4.52500,2
4.53333,1
4.54167,1
4.55000,1
4.55833,1
4.56667,1
4.57500,2
4.58333,2
4.59167,2
4.60000,2
4.60833,2
4.61667,2
4.62500,2
4.63333,2
4.64167,2
4.65000,2
4.65833,2
4.66667,2
4.67500,2
4.68333,2
4.69167,2
4.70000,2
4.70833,2
4.71667,2
4.72500,2
4.73333,2
4.74167,2
4.75000,1
4.75833,1
4.76667,1
4.77500,1
4.78333,1
4.79167,1
4.80000,1
4.80833,1
4.81667,1
4.82500,2
4.83333,2
4.84167,2
4.85000,1
4.85833,1
4.86667,1
4.87500,2
4.88333,2
4.89167,2
4.90000,2
4.90833,2
4.91667,2
4.92500,3
4.93333,3
4.94167,3
4.95000,3
4.95833,2
4.96667,2
4.97500,1
4.98333,1
4.99167,1
5.00000,1
5.00833,2
5.01667,2
5.02500,2
5.03333,2
5.04167,2
5.05000,2
5.05833,2
5.06667,2
5.07500,2
5.08333,3
5.09167,3
5.10000,3
5.10833,2
5.11667,3
5.12500,3
5.13333,3
5.14167,3
5.15000,2
5.15833,2
5.16667,2
5.17500,2
5.18333,1
5.19167,1
5.20000,1
5.20833,0
5.21667,1
5.22500,1
5.23333,1
5.24167,2
5.25000,2
5.25833,2
5.26667,2
5.27500,2
5.28333,2
5.29167,2
5.30000,2
5.30833,2
5.31667,2
5.32500,2
5.33333,2
5.34167,2
5.35000,2
5.35833,2
5.36667,1
5.37500,1
5.38333,1
5.39167,1
5.40000,1
5.40833,1
5.41667,1
5.42500,2
5.43333,2
5.44167,2
5.45000,2
5.45833,2
5.46667,2
5.47500,2
5.48333,2
5.49167,2
5.50000,2
5.50833,2
5.51667,2
5.52500,2
5.53333,2
5.54167,3
5.55000,2
5.55833,2
5.56667,2
5.57500,2
5.58333,1
5.59167,1
5.60000,1
5.60833,1
5.61667,1
5.62500,2
5.63333,2
5.64167,2
5.65000,2
5.65833,2
5.66667,2
5.67500,2
5.68333,2
5.69167,2
5.70000,2
5.70833,2
5.71667,2
5.72500,2
5.73333,2
5.74167,1
5.75000,2
5.75833,2
5.76667,2
5.77500,2
5.78333,2
5.79167,1
5.80000,1
5.80833,1
5.81667,1
5.82500,1
5.83333,1
5.84167,2
5.85000,2
5.85833,2
5.86667,2
5.87500,2
5.88333,1
5.89167,1
5.90000,1
5.90833,1
5.91667,1
5.92500,1
5.93333,1
5.94167,1
5.95000,1
5.95833,1
5.96667,1
5.97500,1
5.98333,1
5.99167,1
6.00000,2
6.00833,2
6.01667,2
6.02500,2
6.03333,2
6.04167,2
6.05000,2
6.05833,2
6.06667,2
6.07500,2
6.08333,2
6.09167,2
6.10000,2
6.10833,1
6.11667,1
6.12500,1
6.13333,1
6.14167,1
6.15000,1
6.15833,1
6.16667,1
6.17500,1
6.18333,1
6.19167,1
6.20000,1
6.20833,1
6.21667,1
6.22500,0
6.23333,0
6.24167,1
6.25000,1
6.25833,1
6.26667,2
6.27500,2
6.28333,2
6.29167,2
6.30000,1
6.30833,1
6.31667,1
6.32500,1
6.33333,1
6.34167,1
6.35000,1
6.35833,2
6.36667,1
6.37500,1
6.38333,2
6.39167,2
6.40000,2
6.40833,1
6.41667,1
6.42500,1
6.43333,1
6.44167,1
6.45000,2
6.45833,3
6.46667,2
6.47500,2
6.48333,2
6.49167,2
6.50000,2
6.50833,2
6.51667,2
6.52500,2
6.53333,2
6.54167,2
6.55000,2
6.55833,2
6.56667,2
6.57500,2
6.58333,2
6.59167,2
6.60000,2
6.60833,2
6.61667,2
6.62500,2
6.63333,2
6.64167,1
6.65000,1
6.65833,1
6.66667,1
6.67500,1
6.68333,1
6.69167,1
6.70000,1
6.70833,1
6.71667,1
6.72500,1
6.73333,1
6.74167,1
6.75000,1
6.75833,1
6.76667,1
6.77500,1
6.78333,1
6.79167,1
6.80000,1
6.80833,1
6.81667,1
6.82500,1
6.83333,1
6.84167,1
6.85000,1
6.85833,1
6.86667,1
6.87500,1
6.88333,1
6.89167,1
6.90000,1
6.90833,0
6.91667,0
6.92500,1
6.93333,1
6.94167,1
6.95000,1
6.95833,1
6.96667,1
6.97500,1
6.98333,1
6.99167,1
7.00000,1
7.00833,1
7.01667,1
7.02500,1
7.03333,1
7.04167,0
7.05000,0
7.05833,0
7.06667,-0
7.07500,-0
7.08333,-0
7.09167,-0
7.10000,0
7.10833,0
7.11667,0
7.12500,0
7.13333,0
7.14167,0
7.15000,-0
7.15833,-0
7.16667,-0
7.17500,0
7.18333,1
7.19167,0
7.20000,0
7.20833,-0
7.21667,-1
7.22500,-1
7.23333,-0
7.24167,-0
7.25000,0
7.25833,0
7.26667,0
7.27500,1
7.28333,1
7.29167,1
7.30000,1
7.30833,1
7.31667,1
7.32500,0
7.33333,0
7.34167,-0
7.35000,-0
7.35833,-0
7.36667,0
7.37500,1
7.38333,1
7.39167,1
7.40000,1
7.40833,1
7.41667,0
7.42500,0
7.43333,-0
7.44167,0
7.45000,-0
7.45833,0
7.46667,0
7.47500,1
7.48333,0
7.49167,0
7.50000,1
7.50833,1
7.51667,1
7.52500,1
7.53333,1
7.54167,1
7.55000,1
7.55833,1
7.56667,1
7.57500,1
7.58333,1
7.59167,1
7.60000,1
7.60833,1
7.61667,1
7.62500,0
7.63333,0
7.64167,0
7.65000,1
7.65833,1
7.66667,1
7.67500,1
7.68333,1
7.69167,0
7.70000,0
7.70833,0
7.71667,0
7.72500,0
7.73333,0
7.74167,0
7.75000,1
7.75833,1
7.76667,0
7.77500,0
7.78333,0
7.79167,1
7.80000,1
7.80833,1
7.81667,1
7.82500,1
7.83333,1
7.84167,1
7.85000,1
7.85833,1
7.86667,1
7.87500,1
7.88333,1
7.89167,1
7.90000,1
7.90833,1
7.91667,1
7.92500,1
7.93333,1
7.94167,1
7.95000,1
7.95833,1
7.96667,2
7.97500,2
7.98333,2
7.99167,2
8.00000,1
8.00833,1
8.01667,1
8.02500,0
8.03333,1
8.04167,1
8.05000,1
8.05833,1
8.06667,1
8.07500,0
8.08333,0
8.09167,-0
8.10000,-0
8.10833,-0
8.11667,-0
8.12500,-0
8.13333,0
8.14167,0
8.15000,0
8.15833,0
8.16667,0
8.17500,1
8.18333,1
8.19167,1
8.20000,0
8.20833,0
8.21667,1
8.22500,1
8.23333,0
8.24167,0
8.25000,1
8.25833,0
8.26667,0
8.27500,0
8.28333,0
8.29167,0
8.30000,0
8.30833,0
8.31667,0
8.32500,0
8.33333,-0
8.34167,-0
8.35000,-0
8.35833,-0
8.36667,-0
8.37500,-0
8.38333,0
8.39167,0
8.40000,0
8.40833,1
8.41667,1
8.42500,1
8.43333,1
8.44167,0
8.45000,0
8.45833,0
8.46667,0
8.47500,-0
8.48333,-1
8.49167,-1
8.50000,-1
8.50833,-0
8.51667,-0
8.52500,0
8.53333,0
8.54167,0
8.55000,1
8.55833,1
8.56667,0
8.57500,0
8.58333,-0
8.59167,-1
8.60000,-1
8.60833,-1
8.61667,-1
8.62500,-0
8.63333,-0
8.64167,-0
8.65000,-0
8.65833,-0
8.66667,-0
8.67500,-0
8.68333,-0
8.69167,-0
8.70000,-0
8.70833,-0
8.71667,-0
8.72500,-0
8.73333,-1
8.74167,-1
8.75000,-0
8.75833,-0
8.76667,-0
8.77500,-0
8.78333,-0
8.79167,-0
8.80000,-0
8.80833,-0
8.81667,0
8.82500,0
8.83333,0
8.84167,0
8.85000,0
8.85833,0
8.86667,0
8.87500,0
8.88333,0
8.89167,0
8.90000,0
8.90833,0
8.91667,-0
8.92500,-0
8.93333,-0
8.94167,-0
8.95000,-1
8.95833,-1
8.96667,-1
8.97500,-0
8.98333,-0
8.99167,0
9.00000,0
9.00833,0
9.01667,-0
9.02500,-0
9.03333,-1
9.04167,-1
9.05000,-1
9.05833,-1
9.06667,-1
9.07500,-1
9.08333,-1
9.09167,-1
9.10000,-1
9.10833,-0
9.11667,-0
9.12500,-0
9.13333,0
9.14167,1
9.15000,1
9.15833,0
9.16667,0
9.17500,0
9.18333,0
9.19167,0
9.20000,0
9.20833,-0
9.21667,0
9.22500,0
9.23333,0
9.24167,0
9.25000,-0
9.25833,-1
9.26667,-1
9.27500,-1
9.28333,-1
9.29167,-1
9.30000,-1
9.30833,-1
9.31667,-1
9.32500,-1
9.33333,-1
9.34167,-1
9.35000,-1
9.35833,-1
9.36667,-1
9.37500,-1
9.38333,-1
9.39167,-0
9.40000,-0
9.40833,-0
9.41667,-0
9.42500,-0
9.43333,0
9.44167,0
9.45000,-0
9.45833,-0
9.46667,-1
9.47500,-1
9.48333,-1
9.49167,-0
9.50000,-0
9.50833,-0
9.51667,-0
9.52500,-0
9.53333,-0
9.54167,-0
9.55000,-0
9.55833,-0
9.56667,-0
9.57500,-0
9.58333,-0
9.59167,-0
9.60000,-0
9.60833,0
9.61667,0
9.62500,1
9.63333,0
9.64167,0
9.65000,0
9.65833,0
9.66667,0
9.67500,-0
9.68333,-1
9.69167,-1
9.70000,-1
9.70833,-1
9.71667,-1
9.72500,-1
9.73333,-1
9.74167,-0
9.75000,-0
9.75833,0
9.76667,0
9.77500,-0
9.78333,-0
9.79167,-0
9.80000,-0
9.80833,-0
9.81667,0
9.82500,0
9.83333,0
9.84167,0
9.85000,-0
9.85833,-1
9.86667,-1
9.87500,-1
9.88333,-1
9.89167,-1
9.90000,-1
9.90833,-1
9.91667,-1
9.92500,-0
9.93333,0
9.94167,0
9.95000,0
9.95833,0
9.96667,0
9.97500,0
9.98333,0
9.99167,0
10.00000,0
10.00833,0
10.01667,0
10.02500,0
10.03333,0
10.04167,0
10.05000,-0
10.05833,-0
10.06667,-1
10.07500,-1
10.08333,-1
10.09167,-1
10.10000,-1
10.10833,-1
10.11667,-1
10.12500,-0
10.13333,-0
10.14167,-0
10.15000,0
10.15833,0
10.16667,1
10.17500,1
10.18333,1
10.19167,1
10.20000,1
10.20833,1
10.21667,1
10.22500,1
10.23333,1
10.24167,1
10.25000,1
10.25833,1
10.26667,1
10.27500,1
10.28333,1
10.29167,1
10.30000,1
10.30833,1
10.31667,1
10.32500,1
10.33333,1
10.34167,1
10.35000,1
10.35833,1
10.36667,1
10.37500,1
10.38333,2
10.39167,2
10.40000,2
10.40833,2
10.41667,2
10.42500,2
10.43333,1
10.44167,1
10.45000,-0
10.45833,-2
10.46667,-5
10.47500,-9
10.48333,-15
10.49167,-24
10.50000,-35
10.50833,-51
10.51667,-71
10.52500,-97
10.53333,-129
10.54167,-170
10.55000,-218
10.55833,-276
10.56667,-342
10.57500,-417
10.58333,-500
10.59167,-589
10.60000,-681
10.60833,-772
10.61667,-858
10.62500,-933
10.63333,-991
10.64167,-1025
10.65000,-1027
10.65833,-989
10.66667,-902
10.67500,-757
10.68333,-545
10.69167,-255
10.70000,120
10.70833,588
10.71667,1159
10.72500,1839
10.73333,2636
10.74167,3555
10.75000,4604
10.75833,5786
10.76667,7105
10.77500,8566
10.78333,10171
10.79167,11921
10.80000,13819
10.80833,15867
10.81667,18064
10.82500,20411
10.83333,22909
10.84167,25556
10.85000,28351
10.85833,31295
10.86667,34386
10.87500,37621
10.88333,41000
10.89167,44521
10.90000,48180
10.90833,51975
10.91667,55904
10.92500,59963
10.93333,64148
10.94167,68453
10.95000,72872
10.95833,77398
10.96667,82018
10.97500,86720
10.98333,91481
10.99167,96277
11.00000,101069
11.00833,105809
11.01667,110432
11.02500,114855
11.03333,118980
11.04167,122690
11.05000,125853
11.05833,128333
11.06667,129996
11.07500,130722
11.08333,130413
11.09167,129011
11.10000,126498
11.10833,122904
11.11667,118305
11.12500,112818
11.13333,106594
11.14167,99802
11.15000,92627
11.15833,85249
11.16667,77835
11.17500,70539
11.18333,63486
11.19167,56776
11.20000,50484
11.20833,44659
11.21667,39328
11.22500,34498
11.23333,30162
11.24167,26302
11.25000,22888
11.25833,19889
11.26667,17268
11.27500,14989
11.28333,13016
11.29167,11312
11.30000,9846
11.30833,8587
11.31667,7506
11.32500,6581
11.33333,5788
11.34167,5109
11.35000,4527
11.35833,4028
11.36667,3599
11.37500,3230
11.38333,2911
11.39167,2635
11.40000,2395
11.40833,2186
11.41667,2003
11.42500,1842
11.43333,1700
11.44167,1575
11.45000,1463
11.45833,1363
11.46667,1273
11.47500,1192
11.48333,1119
11.49167,1053
11.50000,992
11.50833,937
11.51667,886
11.52500,839
11.53333,795
11.54167,754
11.55000,716
11.55833,680
11.56667,647
11.57500,616
11.58333,587
11.59167,560
11.60000,534
11.60833,510
11.61667,487
11.62500,465
11.63333,444
11.64167,425
11.65000,406
11.65833,388
11.66667,371
11.67500,355
11.68333,339
11.69167,325
11.70000,311
11.70833,297
11.71667,285
11.72500,273
11.73333,261
11.74167,251
11.75000,240
11.75833,231
11.76667,221
11.77500,213
11.78333,204
11.79167,196
11.80000,188
11.80833,181
11.81667,174
11.82500,167
11.83333,160
11.84167,154
11.85000,148
11.85833,143
11.86667,138
11.87500,133
11.88333,128
11.89167,124
11.90000,120
11.90833,116
11.91667,112
11.92500,109
11.93333,106
11.94167,103
11.95000,100
11.95833,97
11.96667,94
11.97500,92
11.98333,89
11.99167,87
12.00000,85
12.00833,83
12.01667,82
12.02500,80
12.03333,79
12.04167,77
12.05000,75
12.05833,73
12.06667,72
12.07500,70
12.08333,69
12.09167,67
12.10000,65
12.10833,64
12.11667,63
12.12500,62
12.13333,61
12.14167,59
12.15000,58
12.15833,56
12.16667,55
12.17500,54
12.18333,53
12.19167,52
12.20000,51
12.20833,50
12.21667,49
12.22500,48
12.23333,47
12.24167,46
12.25000,45
12.25833,44
12.26667,43
12.27500,42
12.28333,41
12.29167,40
12.30000,39
12.30833,39
12.31667,38
12.32500,37
12.33333,37
12.34167,36
12.35000,36
12.35833,35
12.36667,35
12.37500,34
12.38333,33
12.39167,33
12.40000,32
12.40833,32
12.41667,31
12.42500,31
12.43333,30
12.44167,29
12.45000,29
12.45833,29
12.46667,28
12.47500,28
12.48333,27
12.49167,27
12.50000,26
12.50833,26
12.51667,25
12.52500,25
12.53333,25
12.54167,25
12.55000,25
12.55833,24
12.56667,24
12.57500,24
12.58333,24
12.59167,24
12.60000,24
12.60833,24
12.61667,24
12.62500,24
12.63333,24
12.64167,23
12.65000,23
12.65833,23
12.66667,23
12.67500,23
12.68333,23
12.69167,23
12.70000,24
12.70833,24
12.71667,24
12.72500,25
12.73333,26
12.74167,26
12.75000,27
12.75833,28
12.76667,30
12.77500,32
12.78333,35
12.79167,39
12.80000,43
12.80833,49
12.81667,56
12.82500,64
12.83333,74
12.84167,86
12.85000,100
12.85833,117
12.86667,136
12.87500,159
12.88333,186
12.89167,216
12.90000,251
12.90833,291
12.91667,335
12.92500,386
12.93333,442
12.94167,503
12.95000,572
12.95833,646
12.96667,727
12.97500,814
12.98333,908
12.99167,1009
13.00000,1117
13.00833,1232
13.01667,1353
13.02500,1482
13.03333,1617
13.04167,1759
13.05000,1907
13.05833,2062
13.06667,2223
13.07500,2390
13.08333,2563
13.09167,2742
13.10000,2926
13.10833,3116
13.11667,3311
13.12500,3510
13.13333,3715
13.14167,3925
13.15000,4139
13.15833,4357
13.16667,4580
13.17500,4807
13.18333,5038
13.19167,5272
13.20000,5511
13.20833,5753
13.21667,5998
13.22500,6247
13.23333,6500
13.24167,6755
13.25000,7014
13.25833,7276
13.26667,7541
13.27500,7809
13.28333,8080
13.29167,8354
13.30000,8631
13.30833,8910
13.31667,9193
13.32500,9478
13.33333,9765
13.34167,10055
13.35000,10348
13.35833,10643
13.36667,10940
13.37500,11241
13.38333,11544
13.39167,11849
13.40000,12157
13.40833,12468
13.41667,12781
13.42500,13096
13.43333,13414
13.44167,13734
13.45000,14056
13.45833,14380
13.46667,14707
13.47500,15037
13.48333,15369
13.49167,15703
13.50000,16040
13.50833,16380
13.51667,16721
13.52500,17066
13.53333,17413
13.54167,17762
13.55000,18114
13.55833,18468
13.56667,18825
13.57500,19184
13.58333,19546
13.59167,19911
13.60000,20279
13.60833,20650
13.61667,21024
13.62500,21400
13.63333,21780
13.64167,22161
13.65000,22546
13.65833,22934
13.66667,23324
13.67500,23717
13.68333,24114
13.69167,24513
13.70000,24916
13.70833,25321
13.71667,25730
13.72500,26142
13.73333,26557
13.74167,26976
13.75000,27397
13.75833,27821
13.76667,28249
13.77500,28680
13.78333,29115
13.79167,29552
13.80000,29993
13.80833,30438
13.81667,30885
13.82500,31336
13.83333,31791
13.84167,32249
13.85000,32710
13.85833,33176
13.86667,33645
13.87500,34117
13.88333,34593
13.89167,35073
13.90000,35556
13.90833,36043
13.91667,36533
13.92500,37028
13.93333,37527
13.94167,38029
13.95000,38536
13.95833,39046
13.96667,39561
13.97500,40079
13.98333,40602
13.99167,41128
14.00000,41659
14.00833,42194
14.01667,42733
14.02500,43277
14.03333,43825
14.04167,44377
14.05000,44934
14.05833,45496
14.06667,46062
14.07500,46633
14.08333,47208
14.09167,47789
14.10000,48373
14.10833,48962
14.11667,49556
14.12500,50155
14.13333,50760
14.14167,51369
14.15000,51983
14.15833,52602
14.16667,53227
14.17500,53856
14.18333,54491
14.19167,55131
14.20000,55778
14.20833,56429
14.21667,57085
14.22500,57748
14.23333,58415
14.24167,59089
14.25000,59769
14.25833,60454
14.26667,61145
14.27500,61842
14.28333,62545
14.29167,63254
14.30000,63969
14.30833,64691
14.31667,65419
14.32500,66153
14.33333,66893
14.34167,67640
14.35000,68394
14.35833,69154
14.36667,69920
14.37500,70692
14.38333,71470
14.39167,72251
14.40000,73034
14.40833,73814
14.41667,74587
14.42500,75344
14.43333,76074
14.44167,76764
14.45000,77396
14.45833,77948
14.46667,78395
14.47500,78709
14.48333,78859
14.49167,78815
14.50000,78544
14.50833,78020
14.51667,77218
14.52500,76119
14.53333,74714
14.54167,72999
14.55000,70982
14.55833,68679
14.56667,66116
14.57500,63325
14.58333,60345
14.59167,57221
14.60000,53999
14.60833,50726
14.61667,47447
14.62500,44206
14.63333,41042
14.64167,37987
14.65000,35070
14.65833,32313
14.66667,29729
14.67500,27330
14.68333,25119
14.69167,23097
14.70000,21258
14.70833,19597
14.71667,18104
14.72500,16767
14.73333,15576
14.74167,14518
14.75000,13580
14.75833,12751
14.76667,12019
14.77500,11373
14.78333,10804
14.79167,10301
14.80000,9858
14.80833,9466
14.81667,9119
14.82500,8811
14.83333,8537
14.84167,8292
14.85000,8072
14.85833,7874
14.86667,7695
14.87500,7533
14.88333,7385
14.89167,7250
14.90000,7125
14.90833,7009
14.91667,6902
14.92500,6802
14.93333,6709
14.94167,6621
14.95000,6538
14.95833,6458
14.96667,6383
14.97500,6311
14.98333,6241
14.99167,6174
15.00000,6110
15.00833,6048
15.01667,5988
15.02500,5930
15.03333,5873
15.04167,5817
15.05000,5763
15.05833,5711
15.06667,5659
15.07500,5609
15.08333,5560
15.09167,5512
15.10000,5465
15.10833,5419
15.11667,5373
15.12500,5329
15.13333,5286
15.14167,5243
15.15000,5202
15.15833,5161
15.16667,5121
15.17500,5082
15.18333,5044
15.19167,5007
15.20000,4971
15.20833,4936
15.21667,4902
15.22500,4868
15.23333,4836
15.24167,4805
15.25000,4774
15.25833,4745
15.26667,4717
15.27500,4690
15.28333,4665
15.29167,4640
15.30000,4616
15.30833,4594
15.31667,4572
15.32500,4553
15.33333,4535
15.34167,4519
15.35000,4505
15.35833,4493
15.36667,4485
15.37500,4480
15.38333,4481
15.39167,4487
15.40000,4499
15.40833,4519
15.41667,4548
15.42500,4589
15.43333,4643
15.44167,4714
15.45000,4803
15.45833,4914
15.46667,5051
15.47500,5218
15.48333,5418
15.49167,5658
15.50000,5943
15.50833,6277
15.51667,6666
15.52500,7118
15.53333,7638
15.54167,8233
15.55000,8909
15.55833,9674
15.56667,10533
15.57500,11492
15.58333,12558
15.59167,13734
15.60000,15024
15.60833,16432
15.61667,17959
15.62500,19606
15.63333,21372
15.64167,23253
15.65000,25247
15.65833,27346
15.66667,29543
15.67500,31828
15.68333,34191
15.69167,36617
15.70000,39094
15.70833,41603
15.71667,44128
15.72500,46651
15.73333,49153
15.74167,51614
15.75000,54013
15.75833,56332
15.76667,58551
15.77500,60651
15.78333,62614
15.79167,64424
15.80000,66066
15.80833,67527
15.81667,68794
15.82500,69859
15.83333,70714
15.84167,71355
15.85000,71777
15.85833,71981
15.86667,71969
15.87500,71742
15.88333,71307
15.89167,70672
15.90000,69844
15.90833,68835
15.91667,67658
15.92500,66323
15.93333,64844
15.94167,63237
15.95000,61515
15.95833,59694
15.96667,57789
15.97500,55814
15.98333,53783
15.99167,51712
16.00000,49613
16.00833,47501
16.01667,45386
16.02500,43281
16.03333,41196
16.04167,39141
16.05000,37123
16.05833,35152
16.06667,33232
16.07500,31370
16.08333,29571
16.09167,27839
16.10000,26176
16.10833,24585
16.11667,23068
16.12500,21625
16.13333,20256
16.14167,18961
16.15000,17739
16.15833,16590
16.16667,15511
16.17500,14499
16.18333,13553
16.19167,12671
16.20000,11850
16.20833,11087
16.21667,10379
16.22500,9723
16.23333,9117
16.24167,8557
16.25000,8040
16.25833,7565
16.26667,7127
16.27500,6725
16.28333,6356
16.29167,6018
16.30000,5708
16.30833,5424
16.31667,5164
16.32500,4925
16.33333,4707
16.34167,4507
16.35000,4324
16.35833,4157
16.36667,4004
16.37500,3864
16.38333,3735
16.39167,3618
16.40000,3510
16.40833,3411
16.41667,3320
16.42500,3236
16.43333,3158
16.44167,3086
16.45000,3020
16.45833,2958
16.46667,2901
16.47500,2848
16.48333,2799
16.49167,2754
16.50000,2711
16.50833,2671
16.51667,2634
16.52500,2599
16.53333,2566
16.54167,2535
16.55000,2505
16.55833,2477
16.56667,2450
16.57500,2425
16.58333,2401
16.59167,2379
16.60000,2357
16.60833,2336
16.61667,2317
16.62500,2297
16.63333,2279
16.64167,2261
16.65000,2244
16.65833,2228
16.66667,2213
16.67500,2198
16.68333,2184
16.69167,2169
16.70000,2156
16.70833,2142
16.71667,2130
16.72500,2117
16.73333,2105
16.74167,2094
16.75000,2083
16.75833,2072
16.76667,2061
16.77500,2050
16.78333,2040
16.79167,2030
16.80000,2021
16.80833,2011
16.81667,2002
16.82500,1993
16.83333,1984
16.84167,1975
16.85000,1967
16.85833,1959
16.86667,1951
16.87500,1943
16.88333,1936
16.89167,1928
16.90000,1921
16.90833,1914
16.91667,1907
16.92500,1901
16.93333,1894
16.94167,1887
16.95000,1881
16.95833,1875
16.96667,1869
16.97500,1863
16.98333,1857
16.99167,1851
17.00000,1845
17.00833,1839
17.01667,1833
17.02500,1827
17.03333,1822
17.04167,1816
17.05000,1811
17.05833,1806
17.06667,1801
17.07500,1796
17.08333,1790
17.09167,1785
17.10000,1780
17.10833,1774
17.11667,1768
17.12500,1763
17.13333,1758
17.14167,1752
17.15000,1747
17.15833,1741
17.16667,1735
17.17500,1729
17.18333,1723
17.19167,1717
17.20000,1712
17.20833,1706
17.21667,1700
17.22500,1693
17.23333,1687
17.24167,1681
17.25000,1674
17.25833,1668
17.26667,1661
17.27500,1655
17.28333,1648
17.29167,1642
17.30000,1635
17.30833,1628
17.31667,1621
17.32500,1614
17.33333,1607
17.34167,1600
17.35000,1593
17.35833,1586
17.36667,1579
17.37500,1572
17.38333,1565
17.39167,1558
17.40000,1551
17.40833,1544
17.41667,1537
17.42500,1530
17.43333,1524
17.44167,1517
17.45000,1510
17.45833,1504
17.46667,1497
17.47500,1491
17.48333,1485
17.49167,1478
17.50000,1472
17.50833,1466
17.51667,1460
17.52500,1454
17.53333,1447
17.54167,1441
17.55000,1435
17.55833,1429
17.56667,1423
17.57500,1418
17.58333,1412
17.59167,1405
17.60000,1399
17.60833,1393
17.61667,1388
17.62500,1383
17.63333,1377
17.64167,1372
17.65000,1367
17.65833,1361
17.66667,1355
17.67500,1350
17.68333,1344
17.69167,1339
17.70000,1334
17.70833,1329
17.71667,1324
17.72500,1319
17.73333,1313
17.74167,1308
17.75000,1303
17.75833,1298
17.76667,1293
17.77500,1287
17.78333,1282
17.79167,1277
17.80000,1272
17.80833,1267
17.81667,1261
17.82500,1256
17.83333,1251
17.84167,1246
17.85000,1241
17.85833,1236
17.86667,1230
17.87500,1226
17.88333,1221
17.89167,1216
17.90000,1211
17.90833,1206
17.91667,1201
17.92500,1196
17.93333,1191
17.94167,1186
17.95000,1181
17.95833,1176
17.96667,1172
17.97500,1168
17.98333,1163
17.99167,1158
18.00000,1153
18.00833,1148
18.01667,1143
18.02500,1138
18.03333,1134
18.04167,1129
18.05000,1124
18.05833,1119
18.06667,1114
18.07500,1109
18.08333,1103
18.09167,1098
18.10000,1094
18.10833,1089
18.11667,1085
18.12500,1080
18.13333,1074
18.14167,1069
18.15000,1065
18.15833,1060
18.16667,1055
18.17500,1050
18.18333,1046
18.19167,1041
18.20000,1037
18.20833,1032
18.21667,1028
18.22500,1023
18.23333,1018
18.24167,1013
18.25000,1008
18.25833,1004
18.26667,999
18.27500,994
18.28333,989
18.29167,984
18.30000,979
18.30833,974
18.31667,969
18.32500,964
18.33333,959
18.34167,954
18.35000,949
18.35833,944
18.36667,939
18.37500,934
18.38333,929
18.39167,924
18.40000,919
18.40833,913
18.41667,908
18.42500,903
18.43333,897
18.44167,892
18.45000,887
18.45833,882
18.46667,876
18.47500,871
18.48333,866
18.49167,860
18.50000,855
18.50833,850
18.51667,844
18.52500,839
18.53333,833
18.54167,828
18.55000,822
18.55833,817
18.56667,811
18.57500,805
18.58333,800
18.59167,794
18.60000,788
18.60833,783
18.61667,777
18.62500,771
18.63333,766
18.64167,760
18.65000,754
18.65833,749
18.66667,743
18.67500,737
18.68333,731
18.69167,724
18.70000,719
18.70833,713
18.71667,707
18.72500,701
18.73333,695
18.74167,689
18.75000,683
18.75833,677
18.76667,671
18.77500,665
18.78333,659
18.79167,653
18.80000,647
18.80833,641
18.81667,635
18.82500,628
18.83333,622
18.84167,616
18.85000,610
18.85833,604
18.86667,598
18.87500,593
18.88333,587
18.89167,580
18.90000,574
18.90833,568
18.91667,562
18.92500,556
18.93333,549
18.94167,543
18.95000,537
18.95833,531
18.96667,525
18.97500,519
18.98333,513
18.99167,507
19.00000,501
19.00833,495
19.01667,488
19.02500,482
19.03333,476
19.04167,471
19.05000,465
19.05833,460
19.06667,454
19.07500,448
19.08333,442
19.09167,437
19.10000,432
19.10833,426
19.11667,420
19.12500,415
19.13333,409
19.14167,404
19.15000,399
19.15833,393
19.16667,388
19.17500,383
19.18333,378
19.19167,373
19.20000,368
19.20833,363
19.21667,359
19.22500,354
19.23333,349
19.24167,345
19.25000,341
19.25833,337
19.26667,333
19.27500,329
19.28333,325
19.29167,321
19.30000,317
19.30833,314
19.31667,310
19.32500,306
19.33333,303
19.34167,299
19.35000,296
19.35833,292
19.36667,289
19.37500,286
19.38333,282
19.39167,278
19.40000,275
19.40833,271
19.41667,268
19.42500,265
19.43333,261
19.44167,258
19.45000,255
19.45833,251
19.46667,248
19.47500,244
19.48333,240
19.49167,237
19.50000,233
19.50833,230
19.51667,226
19.52500,222
19.53333,219
19.54167,215
19.55000,211
19.55833,207
19.56667,204
19.57500,200
19.58333,196
19.59167,193
19.60000,189
19.60833,186
19.61667,182
19.62500,179
19.63333,176
19.64167,173
19.65000,169
19.65833,166
19.66667,163
19.67500,160
19.68333,156
19.69167,153
19.70000,151
19.70833,148
19.71667,145
19.72500,143
19.73333,140
19.74167,137
19.75000,135
19.75833,132
19.76667,130
19.77500,128
19.78333,125
19.79167,123
19.80000,121
19.80833,119
19.81667,118
19.82500,116
19.83333,114
19.84167,112
19.85000,110
19.85833,108
19.86667,106
19.87500,105
19.88333,103
19.89167,101
19.90000,100
19.90833,98
19.91667,96
19.92500,95
19.93333,94
19.94167,93
19.95000,92
19.95833,91
19.96667,89
19.97500,88
19.98333,87
19.99167,86
20.00000,85
20.00833,84
20.01667,83
20.02500,82
20.03333,81
20.04167,81
20.05000,80
20.05833,78
20.06667,78
20.07500,77
20.08333,76
20.09167,75
20.10000,74
20.10833,73
20.11667,72
20.12500,72
20.13333,72
20.14167,71
20.15000,71
20.15833,70
20.16667,70
20.17500,70
20.18333,69
20.19167,68
20.20000,67
20.20833,67
20.21667,66
20.22500,66
20.23333,65
20.24167,64
20.25000,63
20.25833,63
20.26667,62
20.27500,62
20.28333,61
20.29167,61
20.30000,60
20.30833,60
20.31667,60
20.32500,60
20.33333,59
20.34167,59
20.35000,59
20.35833,58
20.36667,57
20.37500,57
20.38333,56
20.39167,56
20.40000,56
20.40833,56
20.41667,55
20.42500,55
20.43333,54
20.44167,54
20.45000,54
20.45833,53
20.46667,53
20.47500,52
20.48333,52
20.49167,51
20.50000,51
20.50833,51
20.51667,51
20.52500,51
20.53333,51
20.54167,51
20.55000,51
20.55833,50
20.56667,50
20.57500,50
20.58333,49
20.59167,49
20.60000,49
20.60833,49
20.61667,49
20.62500,48
20.63333,47
20.64167,47
20.65000,47
20.65833,47
20.66667,47
20.67500,47
20.68333,47
20.69167,47
20.70000,47
20.70833,47
20.71667,47
20.72500,47
20.73333,46
20.74167,46
20.75000,47
20.75833,47
20.76667,47
20.77500,47
20.78333,47
20.79167,48
20.80000,48
20.80833,49
20.81667,49
20.82500,50
20.83333,50
20.84167,51
20.85000,52
20.85833,53
20.86667,54
20.87500,55
20.88333,56
20.89167,57
20.90000,58
20.90833,60
20.91667,61
20.92500,63
20.93333,65
20.94167,67
20.95000,69
20.95833,71
20.96667,73
20.97500,75
20.98333,77
20.99167,79
21.00000,81
21.00833,83
21.01667,85
21.02500,87
21.03333,89
21.04167,91
21.05000,93
21.05833,95
21.06667,97
21.07500,99
21.08333,101
21.09167,103
21.10000,104
21.10833,106
21.11667,107
21.12500,108
21.13333,109
21.14167,110
21.15000,111
21.15833,111
21.16667,111
21.17500,112
21.18333,112
21.19167,112
21.20000,112
21.20833,111
21.21667,111
21.22500,110
21.23333,109
21.24167,109
21.25000,108
21.25833,106
21.26667,105
21.27500,104
21.28333,102
21.29167,101
21.30000,100
21.30833,99
21.31667,97
21.32500,96
21.33333,95
21.34167,93
21.35000,92
21.35833,91
21.36667,90
21.37500,89
21.38333,88
21.39167,88
21.40000,87
21.40833,87
21.41667,87
21.42500,87
21.43333,87
21.44167,87
21.45000,88
21.45833,89
21.46667,90
21.47500,91
21.48333,92
21.49167,93
21.50000,95
21.50833,96
21.51667,98
21.52500,99
21.53333,101
21.54167,102
21.55000,103
21.55833,105
21.56667,107
21.57500,109
21.58333,111
21.59167,112
21.60000,114
21.60833,115
21.61667,117
21.62500,118
21.63333,119
21.64167,120
21.65000,121
21.65833,121
21.66667,121
21.67500,121
21.68333,121
21.69167,121
21.70000,120
21.70833,120
21.71667,119
21.72500,118
21.73333,117
21.74167,116
21.75000,114
21.75833,113
21.76667,111
21.77500,109
21.78333,106
21.79167,104
21.80000,102
21.80833,100
21.81667,98
21.82500,96
21.83333,94
21.84167,91
21.85000,88
21.85833,86
21.86667,83
21.87500,80
21.88333,78
21.89167,75
21.90000,73
21.90833,70
21.91667,68
21.92500,65
21.93333,63
21.94167,61
21.95000,59
21.95833,57
21.96667,55
21.97500,53
21.98333,51
21.99167,50
22.00000,48
22.00833,47
22.01667,45
22.02500,43
22.03333,42
22.04167,40
22.05000,39
22.05833,38
22.06667,37
22.07500,36
22.08333,35
22.09167,35
22.10000,34
22.10833,33
22.11667,32
22.12500,31
22.13333,31
22.14167,30
22.15000,30
22.15833,29
22.16667,29
22.17500,28
22.18333,28
22.19167,27
22.20000,27
22.20833,27
22.21667,26
22.22500,26
22.23333,25
22.24167,24
22.25000,24
22.25833,24
22.26667,24
22.27500,24
22.28333,24
22.29167,25
22.30000,25
22.30833,24
22.31667,24
22.32500,23
22.33333,23
22.34167,24
22.35000,24
22.35833,24
22.36667,23
22.37500,23
22.38333,23
22.39167,23
22.40000,23
22.40833,22
22.41667,22
22.42500,22
22.43333,23
22.44167,23
22.45000,22
22.45833,22
22.46667,23
22.47500,23
22.48333,23
22.49167,23
22.50000,22
22.50833,22
22.51667,21
22.52500,21
22.53333,21
22.54167,21
22.55000,21
22.55833,21
22.56667,21
22.57500,21
22.58333,21
22.59167,21
22.60000,20
22.60833,20
22.61667,20
22.62500,20
22.63333,20
22.64167,20
22.65000,19
22.65833,19
22.66667,19
22.67500,19
22.68333,19
22.69167,19
22.70000,19
22.70833,19
22.71667,19
22.72500,19
22.73333,19
22.74167,19
22.75000,19
22.75833,19
22.76667,20
22.77500,20
22.78333,20
22.79167,21
22.80000,21
22.80833,21
22.81667,22
22.82500,22
22.83333,23
22.84167,23
22.85000,23
22.85833,24
22.86667,25
22.87500,26
22.88333,27
22.89167,28
22.90000,29
22.90833,30
22.91667,31
22.92500,33
22.93333,34
22.94167,36
22.95000,37
22.95833,39
22.96667,41
22.97500,43
22.98333,45
22.99167,47
23.00000,49
23.00833,52
23.01667,54
23.02500,57
23.03333,60
23.04167,63
23.05000,66
23.05833,69
23.06667,73
23.07500,76
23.08333,79
23.09167,82
23.10000,85
23.10833,89
23.11667,92
23.12500,95
23.13333,98
23.14167,101
23.15000,104
23.15833,106
23.16667,109
23.17500,112
23.18333,115
23.19167,117
23.20000,120
23.20833,121
23.21667,123
23.22500,125
23.23333,127
23.24167,128
23.25000,129
23.25833,130
23.26667,131
23.27500,131
23.28333,131
23.29167,130
23.30000,130
23.30833,129
23.31667,127
23.32500,126
23.33333,124
23.34167,123
23.35000,121
23.35833,119
23.36667,116
23.37500,114
23.38333,111
23.39167,109
23.40000,106
23.40833,104
23.41667,101
23.42500,98
23.43333,95
23.44167,93
23.45000,89
23.45833,86
23.46667,83
23.47500,80
23.48333,77
23.49167,73
23.50000,70
23.50833,67
23.51667,64
23.52500,61
23.53333,59
23.54167,56
23.55000,54
23.55833,52
23.56667,50
23.57500,48
23.58333,46
23.59167,44
23.60000,42
23.60833,40
23.61667,38
23.62500,36
23.63333,34
23.64167,32
23.65000,30
23.65833,29
23.66667,29
23.67500,28
23.68333,27
23.69167,26
23.70000,25
23.70833,24
23.71667,23
23.72500,23
23.73333,22
23.74167,22
23.75000,21
23.75833,21
23.76667,20
23.77500,19
23.78333,19
23.79167,19
23.80000,18
23.80833,18
23.81667,17
23.82500,17
23.83333,17
23.84167,17
23.85000,17
23.85833,16
23.86667,16
23.87500,16
23.88333,16
23.89167,16
23.90000,16
23.90833,15
23.91667,15
23.92500,15
23.93333,15
23.94167,15
23.95000,15
23.95833,15
23.96667,16
23.97500,16
23.98333,16
23.99167,16
24.00000,16
24.00833,15
24.01667,15
24.02500,15
24.03333,15
24.04167,15
24.05000,15
24.05833,14
24.06667,14
24.07500,14
24.08333,14
24.09167,14
24.10000,14
24.10833,14
24.11667,14
24.12500,14
24.13333,15
24.14167,14
24.15000,14
24.15833,14
24.16667,14
24.17500,14
24.18333,14
24.19167,14
24.20000,14
24.20833,14
24.21667,13
24.22500,13
24.23333,13
24.24167,13
24.25000,13
24.25833,13
24.26667,13
24.27500,13
24.28333,13
24.29167,13
24.30000,13
24.30833,13
24.31667,14
24.32500,13
24.33333,13
24.34167,13
24.35000,13
24.35833,13
24.36667,13
24.37500,13
24.38333,12
24.39167,12
24.40000,12
24.40833,13
24.41667,13
24.42500,13
24.43333,13
24.44167,13
24.45000,13
24.45833,13
24.46667,13
24.47500,12
24.48333,12
24.49167,13
24.50000,13
24.50833,13
24.51667,13
24.52500,13
24.53333,12
24.54167,12
24.55000,12
24.55833,13
24.56667,13
24.57500,13
24.58333,13
24.59167,13
24.60000,13
24.60833,14
24.61667,14
24.62500,14
24.63333,14
24.64167,14
24.65000,14
24.65833,14
24.66667,14
24.67500,15
24.68333,15
24.69167,15
24.70000,15
24.70833,16
24.71667,17
24.72500,18
24.73333,19
24.74167,19
24.75000,20
24.75833,21
24.76667,23
24.77500,24
24.78333,25
24.79167,27
24.80000,28
24.80833,30
24.81667,31
24.82500,33
24.83333,35
24.84167,38
24.85000,41
24.85833,43
24.86667,46
24.87500,49
24.88333,52
24.89167,55
24.90000,59
24.90833,63
24.91667,67
24.92500,71
24.93333,75
24.94167,79
24.95000,84
24.95833,88
24.96667,93
24.97500,98
24.98333,102
24.99167,107
25.00000,112
25.00833,117
25.01667,122
25.02500,126
25.03333,131
25.04167,136
25.05000,141
25.05833,146
25.06667,150
25.07500,155
25.08333,159
25.09167,163
25.10000,167
25.10833,170
25.11667,174
25.12500,177
25.13333,180
25.14167,182
25.15000,184
25.15833,186
25.16667,188
25.17500,189
25.18333,190
25.19167,191
25.20000,191
25.20833,191
25.21667,190
25.22500,189
25.23333,188
25.24167,186
25.25000,184
25.25833,182
25.26667,180
25.27500,178
25.28333,175
25.29167,171
25.30000,168
25.30833,165
25.31667,162
25.32500,158
25.33333,154
25.34167,150
25.35000,146
25.35833,141
25.36667,137
25.37500,132
25.38333,128
25.39167,124
25.40000,119
25.40833,115
25.41667,110
25.42500,106
25.43333,102
25.44167,98
25.45000,94
25.45833,90
25.46667,86
25.47500,82
25.48333,78
25.49167,75
25.50000,71
25.50833,68
25.51667,64
25.52500,61
25.53333,58
25.54167,55
25.55000,52
25.55833,50
25.56667,47
25.57500,44
25.58333,42
25.59167,40
25.60000,38
25.60833,36
25.61667,34
25.62500,32
25.63333,31
25.64167,29
25.65000,28
25.65833,27
25.66667,26
25.67500,25
25.68333,23
25.69167,22
25.70000,22
25.70833,21
25.71667,21
25.72500,20
25.73333,19
25.74167,18
25.75000,18
25.75833,17
25.76667,17
25.77500,16
25.78333,16
25.79167,15
25.80000,15
25.80833,14
25.81667,14
25.82500,14
25.83333,13
25.84167,14
25.85000,13
25.85833,13
25.86667,13
25.87500,13
25.88333,14
25.89167,14
25.90000,14
25.90833,13
25.91667,13
25.92500,12
25.93333,12
25.94167,12
25.95000,12
25.95833,12
25.96667,12
25.97500,12
25.98333,12
25.99167,12
26.00000,12
26.00833,12
26.01667,12
26.02500,12
26.03333,12
26.04167,12
26.05000,12
26.05833,11
26.06667,11
26.07500,11
26.08333,11
26.09167,11
26.10000,11
26.10833,11
26.11667,12
26.12500,12
26.13333,12
26.14167,12
26.15000,12
26.15833,12
26.16667,12
26.17500,12
26.18333,11
26.19167,11
26.20000,11
26.20833,11
26.21667,11
26.22500,10
26.23333,11
26.24167,11
26.25000,11
26.25833,11
26.26667,11
26.27500,11
26.28333,11
26.29167,11
26.30000,11
26.30833,11
26.31667,11
26.32500,11
26.33333,10
26.34167,10
26.35000,10
26.35833,10
26.36667,10
26.37500,10
26.38333,10
26.39167,11
26.40000,11
26.40833,11
26.41667,11
26.42500,11
26.43333,11
26.44167,11
26.45000,10
26.45833,10
26.46667,10
26.47500,10
26.48333,10
26.49167,10
26.50000,10
26.50833,10
26.51667,10
26.52500,10
26.53333,10
26.54167,11
26.55000,11
26.55833,11
26.56667,11
26.57500,11
26.58333,11
26.59167,11
26.60000,11
26.60833,11
26.61667,11
26.62500,11
26.63333,11
26.64167,11
26.65000,11
26.65833,11
26.66667,11
26.67500,11
26.68333,11
26.69167,10
26.70000,10
26.70833,10
26.71667,10
26.72500,10
26.73333,10
26.74167,11
26.75000,11
26.75833,11
26.76667,11
26.77500,12
26.78333,12
26.79167,12
26.80000,12
26.80833,12
26.81667,12
26.82500,12
26.83333,12
26.84167,12
26.85000,13
26.85833,13
26.86667,13
26.87500,12
26.88333,12
26.89167,12
26.90000,12
26.90833,12
26.91667,12
26.92500,12
26.93333,12
26.94167,12
26.95000,12
26.95833,12
26.96667,12
26.97500,12
26.98333,12
26.99167,13
27.00000,13
27.00833,13
27.01667,12
27.02500,13
27.03333,12
27.04167,12
27.05000,12
27.05833,12
27.06667,13
27.07500,13
27.08333,12
27.09167,12
27.10000,12
27.10833,12
27.11667,12
27.12500,12
27.13333,12
27.14167,12
27.15000,11
27.15833,11
27.16667,11
27.17500,10
27.18333,10
27.19167,9
27.20000,9
27.20833,8
27.21667,8
27.22500,7
27.23333,6
27.24167,6
27.25000,5
27.25833,5
27.26667,5
27.27500,4
27.28333,4
27.29167,3
27.30000,2
27.30833,1
27.31667,1
27.32500,-0
27.33333,-2
27.34167,-3
27.35000,-5
27.35833,-6
27.36667,-7
27.37500,-9
27.38333,-11
27.39167,-12
27.40000,-14
27.40833,-16
27.41667,-18
27.42500,-20
27.43333,-22
27.44167,-24
27.45000,-27
27.45833,-29
27.46667,-31
27.47500,-34
27.48333,-36
27.49167,-38
27.50000,-41
27.50833,-44
27.51667,-47
27.52500,-50
27.53333,-52
27.54167,-55
27.55000,-58
27.55833,-61
27.56667,-64
27.57500,-68
27.58333,-71
27.59167,-74
27.60000,-77
27.60833,-80
27.61667,-84
27.62500,-87
27.63333,-90
27.64167,-92
27.65000,-95
27.65833,-98
27.66667,-101
27.67500,-104
27.68333,-106
27.69167,-109
27.70000,-111
27.70833,-113
27.71667,-115
27.72500,-118
27.73333,-120
27.74167,-122
27.75000,-123
27.75833,-125
27.76667,-126
27.77500,-128
27.78333,-129
27.79167,-131
27.80000,-131
27.80833,-132
27.81667,-132
27.82500,-132
27.83333,-133
27.84167,-133
27.85000,-133
27.85833,-132
27.86667,-132
27.87500,-131
27.88333,-130
27.89167,-129
27.90000,-128
27.90833,-127
27.91667,-125
27.92500,-124
27.93333,-122
27.94167,-120
27.95000,-118
27.95833,-116
27.96667,-114
27.97500,-112
27.98333,-110
27.99167,-108
28.00000,-106
28.00833,-104
28.01667,-101
28.02500,-99
28.03333,-96
28.04167,-94
28.05000,-92
28.05833,-88
28.06667,-85
28.07500,-82
28.08333,-80
28.09167,-77
28.10000,-75
28.10833,-72
28.11667,-70
28.12500,-67
28.13333,-65
28.14167,-63
28.15000,-61
28.15833,-59
28.16667,-57
28.17500,-55
28.18333,-52
28.19167,-50
28.20000,-48
28.20833,-46
28.21667,-44
28.22500,-42
28.23333,-40
28.24167,-38
28.25000,-36
28.25833,-34
28.26667,-32
28.27500,-30
28.28333,-29
28.29167,-27
28.30000,-26
28.30833,-25
28.31667,-23
28.32500,-22
28.33333,-20
28.34167,-19
28.35000,-18
28.35833,-17
28.36667,-16
28.37500,-15
28.38333,-14
28.39167,-13
28.40000,-12
28.40833,-11
28.41667,-11
28.42500,-10
28.43333,-9
28.44167,-8
28.45000,-7
28.45833,-7
28.46667,-6
28.47500,-6
28.48333,-5
28.49167,-5
28.50000,-5
28.50833,-4
28.51667,-4
28.52500,-3
28.53333,-2
28.54167,-2
28.55000,-1
28.55833,-1
28.56667,-1
28.57500,-0
28.58333,1
28.59167,1
28.60000,1
28.60833,1
28.61667,1
28.62500,1
28.63333,2
28.64167,2
28.65000,2
28.65833,2
28.66667,2
28.67500,3
28.68333,3
28.69167,3
28.70000,4
28.70833,4
28.71667,4
28.72500,4
28.73333,5
28.74167,5
28.75000,5
28.75833,5
28.76667,5
28.77500,5
28.78333,5
28.79167,6
28.80000,6
28.80833,6
28.81667,7
28.82500,7
28.83333,7
28.84167,7
28.85000,8
28.85833,8
28.86667,9
28.87500,10
28.88333,10
28.89167,11
28.90000,11
28.90833,12
28.91667,12
28.92500,12
28.93333,13
28.94167,14
28.95000,14
28.95833,15
28.96667,15
28.97500,16
28.98333,17
28.99167,17
29.00000,18
29.00833,19
29.01667,20
29.02500,20
29.03333,21
29.04167,22
29.05000,23
29.05833,25
29.06667,26
29.07500,28
29.08333,30
29.09167,31
29.10000,33
29.10833,35
29.11667,37
29.12500,38
29.13333,40
29.14167,42
29.15000,44
29.15833,46
29.16667,48
29.17500,50
29.18333,52
29.19167,54
29.20000,57
29.20833,59
29.21667,62
29.22500,64
29.23333,67
29.24167,69
29.25000,71
29.25833,73
29.26667,75
29.27500,77
29.28333,79
29.29167,81
29.30000,83
29.30833,85
29.31667,86
29.32500,88
29.33333,90
29.34167,91
29.35000,93
29.35833,94
29.36667,95
29.37500,97
29.38333,98
29.39167,99
29.40000,100
29.40833,100
29.41667,101
29.42500,101
29.43333,101
29.44167,101
29.45000,100
29.45833,99
29.46667,98
29.47500,98
29.48333,97
29.49167,96
29.50000,95
29.50833,94
29.51667,93
29.52500,92
29.53333,90
29.54167,89
29.55000,87
29.55833,85
29.56667,83
29.57500,81
29.58333,79
29.59167,77
29.60000,74
29.60833,73
29.61667,71
29.62500,69
29.63333,67
29.64167,65
29.65000,63
29.65833,60
29.66667,58
29.67500,55
29.68333,53
29.69167,50
29.70000,48
29.70833,46
29.71667,44
29.72500,42
29.73333,40
29.74167,38
29.75000,36
29.75833,34
29.76667,32
29.77500,30
29.78333,28
29.79167,27
29.80000,25
29.80833,23
29.81667,22
29.82500,21
29.83333,20
29.84167,19
29.85000,18
29.85833,16
29.86667,14
29.87500,13
29.88333,11
29.89167,10
29.90000,8
29.90833,7
29.91667,6
29.92500,5
29.93333,4
29.94167,3
29.95000,2
29.95833,1
29.96667,-1
29.97500,-2
29.98333,-4
29.99167,-5
30.00000,-7
30.00833,-8
30.01667,-10
30.02500,-11
30.03333,-13
30.04167,-15
30.05000,-17
30.05833,-19
30.06667,-22
30.07500,-24
30.08333,-27
30.09167,-29
30.10000,-32
30.10833,-35
30.11667,-38
30.12500,-41
30.13333,-45
30.14167,-48
30.15000,-52
30.15833,-57
30.16667,-61
30.17500,-66
30.18333,-71
30.19167,-76
30.20000,-81
30.20833,-87
30.21667,-92
30.22500,-98
30.23333,-104
30.24167,-111
30.25000,-118
30.25833,-125
30.26667,-132
30.27500,-139
30.28333,-147
30.29167,-155
30.30000,-163
30.30833,-171
30.31667,-180
30.32500,-188
30.33333,-197
30.34167,-206
30.35000,-215
30.35833,-224
30.36667,-233
30.37500,-242
30.38333,-252
30.39167,-261
30.40000,-271
30.40833,-280
30.41667,-290
30.42500,-299
30.43333,-308
30.44167,-318
30.45000,-327
30.45833,-336
30.46667,-345
30.47500,-354
30.48333,-362
30.49167,-370
30.50000,-378
30.50833,-386
30.51667,-393
30.52500,-400
30.53333,-407
30.54167,-413
30.55000,-420
30.55833,-426
30.56667,-432
30.57500,-437
30.58333,-442
30.59167,-446
30.60000,-450
30.60833,-453
30.61667,-455
30.62500,-458
30.63333,-460
30.64167,-461
30.65000,-462
30.65833,-462
30.66667,-463
30.67500,-462
30.68333,-462
30.69167,-461
30.70000,-459
30.70833,-457
30.71667,-454
30.72500,-450
30.73333,-447
30.74167,-443
30.75000,-438
30.75833,-433
30.76667,-428
30.77500,-422
30.78333,-416
30.79167,-410
30.80000,-403
30.80833,-396
30.81667,-389
30.82500,-382
30.83333,-375
30.84167,-368
30.85000,-360
30.85833,-352
30.86667,-344
30.87500,-335
30.88333,-326
30.89167,-317
30.90000,-309
30.90833,-300
30.91667,-292
30.92500,-283
30.93333,-275
30.94167,-266
30.95000,-258
30.95833,-249
30.96667,-241
30.97500,-233
30.98333,-225
30.99167,-217
31.00000,-208
31.00833,-201
31.01667,-193
31.02500,-185
31.03333,-178
31.04167,-171
31.05000,-164
31.05833,-157
31.06667,-150
31.07500,-144
31.08333,-137
31.09167,-131
31.10000,-126
31.10833,-120
31.11667,-114
31.12500,-109
31.13333,-103
31.14167,-98
31.15000,-93
31.15833,-89
31.16667,-84
31.17500,-80
31.18333,-76
31.19167,-72
31.20000,-68
31.20833,-65
31.21667,-62
31.22500,-58
31.23333,-55
31.24167,-52
31.25000,-49
31.25833,-47
31.26667,-44
31.27500,-42
31.28333,-39
31.29167,-37
31.30000,-34
31.30833,-32
31.31667,-30
31.32500,-28
31.33333,-26
31.34167,-25
31.35000,-24
31.35833,-22
31.36667,-21
31.37500,-19
31.38333,-18
31.39167,-17
31.40000,-15
31.40833,-14
31.41667,-13
31.42500,-12
31.43333,-11
31.44167,-10
31.45000,-9
31.45833,-8
31.46667,-8
31.47500,-7
31.48333,-6
31.49167,-4
31.50000,-4
31.50833,-3
31.51667,-2
31.52500,-1
31.53333,-0
31.54167,0
31.55000,1
31.55833,2
31.56667,3
31.57500,4
31.58333,6
31.59167,7
31.60000,8
31.60833,10
31.61667,12
31.62500,13
31.63333,15
31.64167,17
31.65000,19
31.65833,21
31.66667,23
31.67500,25
31.68333,28
31.69167,30
31.70000,33
31.70833,36
31.71667,39
31.72500,42
31.73333,46
31.74167,50
31.75000,54
31.75833,58
31.76667,62
31.77500,67
31.78333,72
31.79167,77
31.80000,83
31.80833,89
31.81667,95
31.82500,101
31.83333,108
31.84167,116
31.85000,123
31.85833,131
31.86667,139
31.87500,147
31.88333,156
31.89167,164
31.90000,173
31.90833,183
31.91667,192
31.92500,202
31.93333,212
31.94167,223
31.95000,233
31.95833,244
31.96667,254
31.97500,265
31.98333,276
31.99167,287
32.00000,299
32.00833,310
32.01667,322
32.02500,333
32.03333,345
32.04167,356
32.05000,368
32.05833,379
32.06667,390
32.07500,401
32.08333,411
32.09167,422
32.10000,432
32.10833,441
32.11667,451
32.12500,460
32.13333,469
32.14167,477
32.15000,485
32.15833,492
32.16667,499
32.17500,505
32.18333,510
32.19167,516
32.20000,520
32.20833,524
32.21667,528
32.22500,530
32.23333,533
32.24167,534
32.25000,535
32.25833,535
32.26667,535
32.27500,533
32.28333,531
32.29167,529
32.30000,526
32.30833,523
32.31667,519
32.32500,515
32.33333,510
32.34167,504
32.35000,498
32.35833,491
32.36667,484
32.37500,477
32.38333,469
32.39167,460
32.40000,452
32.40833,443
32.41667,434
32.42500,425
32.43333,415
32.44167,405
32.45000,395
32.45833,385
32.46667,374
32.47500,364
32.48333,354
32.49167,343
32.50000,332
32.50833,322
32.51667,311
32.52500,300
32.53333,290
32.54167,280
32.55000,270
32.55833,260
32.56667,250
32.57500,241
32.58333,231
32.59167,222
32.60000,213
32.60833,204
32.61667,195
32.62500,186
32.63333,178
32.64167,170
32.65000,162
32.65833,155
32.66667,148
32.67500,141
32.68333,134
32.69167,127
32.70000,121
32.70833,115
32.71667,109
32.72500,103
32.73333,98
32.74167,93
32.75000,88
32.75833,83
32.76667,79
32.77500,74
32.78333,70
32.79167,67
32.80000,63
32.80833,60
32.81667,57
32.82500,53
32.83333,50
32.84167,47
32.85000,45
32.85833,42
32.86667,40
32.87500,39
32.88333,37
32.89167,36
32.90000,34
32.90833,33
32.91667,31
32.92500,29
32.93333,28
32.94167,27
32.95000,26
32.95833,24
32.96667,23
32.97500,22
32.98333,21
32.99167,20
33.00000,19
33.00833,19
33.01667,18
33.02500,18
33.03333,17
33.04167,17
33.05000,16
33.05833,15
33.06667,15
33.07500,14
33.08333,14
33.09167,13
33.10000,12
33.10833,12
33.11667,12
33.12500,12
33.13333,11
33.14167,11
33.15000,11
33.15833,11
33.16667,10
33.17500,10
33.18333,9
33.19167,8
33.20000,8
33.20833,8
33.21667,8
33.22500,8
33.23333,8
33.24167,7
33.25000,7
33.25833,6
33.26667,6
33.27500,5
33.28333,5
33.29167,4
33.30000,4
33.30833,4
33.31667,3
33.32500,3
33.33333,3
33.34167,2
33.35000,2
33.35833,1
33.36667,1
33.37500,0
33.38333,-0
33.39167,-0
33.40000,-1
33.40833,-1
33.41667,-2
33.42500,-2
33.43333,-3
33.44167,-4
33.45000,-4
33.45833,-5
33.46667,-5
33.47500,-6
33.48333,-7
33.49167,-8
33.50000,-9
33.50833,-9
33.51667,-10
33.52500,-10
33.53333,-11
33.54167,-12
33.55000,-12
33.55833,-13
33.56667,-13
33.57500,-13
33.58333,-14
33.59167,-14
33.60000,-15
33.60833,-15
33.61667,-16
33.62500,-17
33.63333,-17
33.64167,-18
33.65000,-18
33.65833,-18
33.66667,-19
33.67500,-19
33.68333,-18
33.69167,-19
33.70000,-19
33.70833,-19
33.71667,-19
33.72500,-20
33.73333,-20
33.74167,-20
33.75000,-21
33.75833,-21
33.76667,-21
33.77500,-21
33.78333,-21
33.79167,-21
33.80000,-21
33.80833,-21
33.81667,-21
33.82500,-21
33.83333,-20
33.84167,-20
33.85000,-20
33.85833,-19
33.86667,-19
33.87500,-19
33.88333,-19
33.89167,-19
33.90000,-19
33.90833,-18
33.91667,-18
33.92500,-17
33.93333,-17
33.94167,-16
33.95000,-16
33.95833,-15
33.96667,-14
33.97500,-13
33.98333,-12
33.99167,-11
34.00000,-11
34.00833,-11
34.01667,-10
34.02500,-10
34.03333,-10
34.04167,-9
34.05000,-9
34.05833,-8
34.06667,-8
34.07500,-8
34.08333,-7
34.09167,-7
34.10000,-6
34.10833,-6
34.11667,-5
34.12500,-5
34.13333,-4
34.14167,-4
34.15000,-3
34.15833,-2
34.16667,-2
34.17500,-1
34.18333,-1
34.19167,-0
34.20000,-0
34.20833,-0
34.21667,0
34.22500,1
34.23333,1
34.24167,1
34.25000,1
34.25833,2
34.26667,2
34.27500,2
34.28333,3
34.29167,3
34.30000,3
34.30833,3
34.31667,4
34.32500,4
34.33333,4
34.34167,5
34.35000,5
34.35833,5
34.36667,5
34.37500,5
34.38333,5
34.39167,5
34.40000,6
34.40833,6
34.41667,6
34.42500,6
34.43333,6
34.44167,6
34.45000,6
34.45833,6
34.46667,6
34.47500,6
34.48333,6
34.49167,7
34.50000,6
34.50833,6
34.51667,6
34.52500,6
34.53333,6
34.54167,6
34.55000,6
34.55833,6
34.56667,6
34.57500,6
34.58333,6
34.59167,6
34.60000,6
34.60833,6
34.61667,6
34.62500,6
34.63333,6
34.64167,6
34.65000,6
34.65833,6
34.66667,6
34.67500,6
34.68333,6
34.69167,7
34.70000,7
34.70833,6
34.71667,6
34.72500,6
34.73333,6
34.74167,6
34.75000,6
34.75833,6
34.76667,7
34.77500,6
34.78333,6
34.79167,6
34.80000,6
34.80833,6
34.81667,6
34.82500,6
34.83333,6
34.84167,6
34.85000,7
34.85833,7
34.86667,7
34.87500,6
34.88333,6
34.89167,6
34.90000,6
34.90833,7
34.91667,6
34.92500,6
34.93333,6
34.94167,6
34.95000,6
34.95833,6
34.96667,6
34.97500,6
34.98333,6
34.99167,5
35.00000,5
35.00833,5
35.01667,6
35.02500,6
35.03333,6
35.04167,6
35.05000,6
35.05833,6
35.06667,5
35.07500,5
35.08333,5
35.09167,5
35.10000,5
35.10833,5
35.11667,5
35.12500,5
35.13333,5
35.14167,6
35.15000,6
35.15833,5
35.16667,5
35.17500,5
35.18333,4
35.19167,4
35.20000,4
35.20833,4
35.21667,4
35.22500,5
35.23333,5
35.24167,5
35.25000,5
35.25833,5
35.26667,5
35.27500,5
35.28333,5
35.29167,5
35.30000,5
35.30833,5
35.31667,5
35.32500,5
35.33333,5
35.34167,5
35.35000,5
35.35833,5
35.36667,5
35.37500,6
35.38333,6
35.39167,6
35.40000,6
35.40833,6
35.41667,6
35.42500,6
35.43333,6
35.44167,5
35.45000,5
35.45833,5
35.46667,5
35.47500,5
35.48333,5
35.49167,5
35.50000,5
35.50833,5
35.51667,5
35.52500,5
35.53333,5
35.54167,5
35.55000,5
35.55833,5
35.56667,5
35.57500,5
35.58333,5
35.59167,6
35.60000,6
35.60833,6
35.61667,6
35.62500,6
35.63333,6
35.64167,6
35.65000,6
35.65833,7
35.66667,7
35.67500,7
35.68333,7
35.69167,7
35.70000,7
35.70833,7
35.71667,7
35.72500,6
35.73333,6
35.74167,6
35.75000,6
35.75833,5
35.76667,6
35.77500,6
35.78333,6
35.79167,6
35.80000,6
35.80833,6
35.81667,6
35.82500,6
35.83333,6
35.84167,6
35.85000,6
35.85833,6
35.86667,6
35.87500,6
35.88333,6
35.89167,6
35.90000,6
35.90833,6
35.91667,7
35.92500,7
35.93333,7
35.94167,7
35.95000,7
35.95833,7
35.96667,6
35.97500,6
35.98333,6
35.99167,6
36.00000,6
36.00833,6
36.01667,6
36.02500,6
36.03333,6
36.04167,6
36.05000,6
36.05833,6
36.06667,6
36.07500,6
36.08333,6
36.09167,6
36.10000,6
36.10833,6
36.11667,6
36.12500,6
36.13333,6
36.14167,6
36.15000,6
36.15833,6
36.16667,6
36.17500,6
36.18333,6
36.19167,6
36.20000,6
36.20833,6
36.21667,6
36.22500,6
36.23333,6
36.24167,6
36.25000,6
36.25833,6
36.26667,6
36.27500,6
36.28333,6
36.29167,6
36.30000,6
36.30833,6
36.31667,6
36.32500,6
36.33333,6
36.34167,7
36.35000,7
36.35833,7
36.36667,6
36.37500,7
36.38333,7
36.39167,7
36.40000,6
36.40833,6
36.41667,6
36.42500,7
36.43333,7
36.44167,7
36.45000,7
36.45833,7
36.46667,7
36.47500,7
36.48333,7
36.49167,7
36.50000,7
36.50833,7
36.51667,7
36.52500,7
36.53333,7
36.54167,8
36.55000,8
36.55833,8
36.56667,8
36.57500,9
36.58333,9
36.59167,8
36.60000,8
36.60833,8
36.61667,8
36.62500,8
36.63333,8
36.64167,8
36.65000,8
36.65833,8
36.66667,8
36.67500,8
36.68333,8
36.69167,8
36.70000,8
36.70833,8
36.71667,9
36.72500,9
36.73333,9
36.74167,9
36.75000,9
36.75833,10
36.76667,10
36.77500,10
36.78333,10
36.79167,11
36.80000,11
36.80833,11
36.81667,11
36.82500,11
36.83333,11
36.84167,10
36.85000,10
36.85833,10
36.86667,10
36.87500,10
36.88333,11
36.89167,11
36.90000,11
36.90833,12
36.91667,12
36.92500,12
36.93333,12
36.94167,12
36.95000,13
36.95833,12
36.96667,12
36.97500,12
36.98333,13
36.99167,13
37.00000,13
37.00833,13
37.01667,13
37.02500,12
37.03333,13
37.04167,13
37.05000,13
37.05833,13
37.06667,13
37.07500,13
37.08333,14
37.09167,14
37.10000,14
37.10833,13
37.11667,13
37.12500,13
37.13333,13
37.14167,14
37.15000,14
37.15833,14
37.16667,15
37.17500,15
37.18333,16
37.19167,16
37.20000,16
37.20833,17
37.21667,17
37.22500,17
37.23333,17
37.24167,17
37.25000,17
37.25833,17
37.26667,17
37.27500,17
37.28333,17
37.29167,17
37.30000,17
37.30833,17
37.31667,17
37.32500,17
37.33333,17
37.34167,17
37.35000,17
37.35833,17
37.36667,18
37.37500,18
37.38333,18
37.39167,18
37.40000,19
37.40833,19
37.41667,19
37.42500,19
37.43333,20
37.44167,20
37.45000,20
37.45833,20
37.46667,20
37.47500,20
37.48333,20
37.49167,20
37.50000,20
37.50833,20
37.51667,20
37.52500,20
37.53333,21
37.54167,20
37.55000,20
37.55833,20
37.56667,20
37.57500,20
37.58333,21
37.59167,21
37.60000,21
37.60833,21
37.61667,21
37.62500,22
37.63333,22
37.64167,22
37.65000,22
37.65833,23
37.66667,23
37.67500,23
37.68333,23
37.69167,23
37.70000,23
37.70833,23
37.71667,23
37.72500,23
37.73333,23
37.74167,23
37.75000,23
37.75833,23
37.76667,22
37.77500,22
37.78333,22
37.79167,22
37.80000,22
37.80833,22
37.81667,23
37.82500,23
37.83333,23
37.84167,23
37.85000,23
37.85833,23
37.86667,22
37.87500,22
37.88333,22
37.89167,22
37.90000,22
37.90833,22
37.91667,22
37.92500,22
37.93333,23
37.94167,23
37.95000,23
37.95833,22
37.96667,22
37.97500,22
37.98333,22
37.99167,22
38.00000,21
38.00833,21
38.01667,21
38.02500,21
38.03333,21
38.04167,21
38.05000,21
38.05833,22
38.06667,22
38.07500,22
38.08333,21
38.09167,21
38.10000,21
38.10833,22
38.11667,22
38.12500,21
38.13333,21
38.14167,21
38.15000,21
38.15833,21
38.16667,21
38.17500,21
38.18333,20
38.19167,20
38.20000,20
38.20833,20
38.21667,20
38.22500,20
38.23333,20
38.24167,20
38.25000,19
38.25833,19
38.26667,19
38.27500,19
38.28333,19
38.29167,19
38.30000,19
38.30833,18
38.31667,18
38.32500,18
38.33333,18
38.34167,19
38.35000,18
38.35833,18
38.36667,18
38.37500,17
38.38333,17
38.39167,17
38.40000,17
38.40833,17
38.41667,17
38.42500,16
38.43333,16
38.44167,16
38.45000,16
38.45833,15
38.46667,15
38.47500,15
38.48333,14
38.49167,14
38.50000,14
38.50833,14
38.51667,14
38.52500,14
38.53333,14
38.54167,13
38.55000,13
38.55833,13
38.56667,13
38.57500,13
38.58333,13
38.59167,13
38.60000,13
38.60833,13
38.61667,12
38.62500,12
38.63333,12
38.64167,13
38.65000,13
38.65833,12
38.66667,12
38.67500,12
38.68333,12
38.69167,12
38.70000,12
38.70833,12
38.71667,11
38.72500,11
38.73333,11
38.74167,10
38.75000,10
38.75833,10
38.76667,10
38.77500,9
38.78333,9
38.79167,9
38.80000,8
38.80833,8
38.81667,8
38.82500,9
38.83333,8
38.84167,8
38.85000,8
38.85833,8
38.86667,8
38.87500,7
38.88333,7
38.89167,7
38.90000,8
38.90833,8
38.91667,8
38.92500,8
38.93333,7
38.94167,7
38.95000,7
38.95833,7
38.96667,6
38.97500,6
38.98333,5
38.99167,5
39.00000,4
39.00833,4
39.01667,4
39.02500,4
39.03333,5
39.04167,5
39.05000,5
39.05833,5
39.06667,5
39.07500,4
39.08333,4
39.09167,4
39.10000,4
39.10833,4
39.11667,4
39.12500,4
39.13333,4
39.14167,3
39.15000,3
39.15833,3
39.16667,3
39.17500,3
39.18333,3
39.19167,3
39.20000,3
39.20833,2
39.21667,2
39.22500,2
39.23333,2
39.24167,1
39.25000,1
39.25833,1
39.26667,1
39.27500,1
39.28333,1
39.29167,1
39.30000,1
39.30833,1
39.31667,1
39.32500,1
39.33333,1
39.34167,1
39.35000,1
39.35833,1
39.36667,1
39.37500,1
39.38333,1
39.39167,2
39.40000,2
39.40833,1
39.41667,1
39.42500,1
39.43333,1
39.44167,1
39.45000,1
39.45833,1
39.46667,1
39.47500,1
39.48333,1
39.49167,0
39.50000,0
39.50833,0
39.51667,-0
39.52500,0
39.53333,-0
39.54167,-0
39.55000,-0
39.55833,-0
39.56667,-0
39.57500,-0
39.58333,-0
39.59167,-0
39.60000,-0
39.60833,-1
39.61667,-1
39.62500,-1
39.63333,-1
39.64167,-1
39.65000,-0
39.65833,-0
39.66667,-0
39.67500,-0
39.68333,-1
39.69167,-1
39.70000,-1
39.70833,-1
39.71667,-1
39.72500,-1
39.73333,-1
39.74167,-2
39.75000,-2
39.75833,-1
39.76667,-1
39.77500,-2
39.78333,-2
39.79167,-2
39.80000,-2
39.80833,-2
39.81667,-1
39.82500,-1
39.83333,-1
39.84167,-1
39.85000,-2
39.85833,-2
39.86667,-2
39.87500,-2
39.88333,-2
39.89167,-2
39.90000,-2
39.90833,-2
39.91667,-2
39.92500,-2
39.93333,-2
39.94167,-2
39.95000,-2
39.95833,-2
39.96667,-2
39.97500,-2
39.98333,-2
39.99167,-2
40.00000,-2

