[Header]
Application Name,LabSolutions
Version,5.97 SP1
Data File Name,C:\Users\cremerlab\Desktop\Richa\May_12th_2022_yield_expt\May 12th_5122022_001_004.lcd
Output Date,5/12/2022
Output Time,6:55:01 PM

[File Information]
Type,Data File
Generated,5/12/2022 6:14:40 PM
Generated by,System Administrator
Modified,5/12/2022 6:55:01 PM
Modified by,System Administrator

[Sample Information]
Operator Name,System Administrator
Acquired,5/12/2022 6:15:00 PM
Sample Type,0:Unknown
Level,0
Sample Name,220512_NCM3722_3
Sample ID,001
ISTD Amount1,1
ISTD Amount2,1
ISTD Amount3,1
ISTD Amount4,1
ISTD Amount5,1
ISTD Amount6,1
ISTD Amount7,1
ISTD Amount8,1
ISTD Amount9,1
ISTD Amount10,1
ISTD Amount11,1
ISTD Amount12,1
ISTD Amount13,1
ISTD Amount14,1
ISTD Amount15,1
ISTD Amount16,1
ISTD Amount17,1
ISTD Amount18,1
ISTD Amount19,1
ISTD Amount20,1
ISTD Amount21,1
ISTD Amount22,1
ISTD Amount23,1
ISTD Amount24,1
ISTD Amount25,1
ISTD Amount26,1
ISTD Amount27,1
ISTD Amount28,1
ISTD Amount29,1
ISTD Amount30,1
ISTD Amount31,1
ISTD Amount32,1
Sample Amount,1
Dilution Factor,1
Vial#,3
Injection Volume,20

[Original Files]
Data File,C:\Users\cremerlab\Desktop\Richa\May_12th_2022_yield_expt\May 12th_5122022_001_004.lcd
Method File,C:\Users\cremerlab\Desktop\Richa\acetate_excretion.lcm
Batch File,C:\Users\cremerlab\Desktop\Richa\May_12th_2022_yield_expt\May 12th.lcb
Report Format File,c:\LabSolutions\System\DEFAULT.lsr

[File Description]


[Configuration]
Instrument Name,HPLC-PC-Instrument1
Instrument #,1
Line #,1
# of Detectors,2
Detector ID,Detector A,Detector B
Detector Name,Detector A,Detector B
# of Channels,1,1

[Peak Table(Detector A)]
# of Peaks,0

[Peak Table(Detector B)]
# of Peaks,8
Peak#,R.Time,I.Time,F.Time,Area,Height,A/H,Conc.,Mark,ID#,Name,k',Plate #,Plate Ht.,Tailing,Resolution,Sep.Factor,Area Ratio,Height Ratio,Conc. %,Norm Conc.
1,11.041,10.667,12.192,1463022,91384,16.010,0.000,   ,,,0.000,10918,13.739,0.963,0.000,0.000,0,0,0.000,0.000
2,14.447,12.708,15.475,3598468,75214,47.843,0.000,   ,,,0.309,2650,56.595,0.799,4.409,0.000,0,0,0.000,0.000
3,15.857,15.475,20.033,418218,9828,42.553,0.000,SV ,,,0.436,6962,21.547,0.000,1.497,1.414,0,0,0.000,0.000
4,19.457,19.200,19.883,1500,76,19.841,0.000,T  ,,,0.762,21113,7.105,1.293,5.556,1.747,0,0,0.000,0.000
5,21.185,20.658,22.242,37755,1358,27.799,0.000,   ,,,0.919,14487,10.354,1.360,2.789,1.205,0,0,0.000,0.000
6,23.288,22.675,24.133,84794,3100,27.349,0.000,   ,,,1.109,16452,9.118,1.062,2.941,1.207,0,0,0.000,0.000
7,25.204,24.575,26.050,67151,2307,29.110,0.000,   ,,,1.283,16973,8.837,1.079,2.555,1.156,0,0,0.000,0.000
8,32.262,30.700,33.308,67395,1395,48.311,0.000,   ,,,1.922,14648,10.240,0.769,7.672,1.498,0,0,0.000,0.000

[LC Chromatogram(Detector B-Ch1)]
Interval(msec),500
# of Points,4801
Start Time(min),0.000
End Time(min),40.000
Intensity Units,mV
Intensity Multiplier,0.001
R.Time (min),Intensity
0.00000,-5
0.00833,-5
0.01667,-1
0.02500,0
0.03333,0
0.04167,0
0.05000,0
0.05833,1
0.06667,1
0.07500,1
0.08333,1
0.09167,0
0.10000,-0
0.10833,-0
0.11667,-0
0.12500,-0
0.13333,-0
0.14167,0
0.15000,-0
0.15833,-0
0.16667,-1
0.17500,-1
0.18333,-1
0.19167,-1
0.20000,-1
0.20833,-2
0.21667,-2
0.22500,-2
0.23333,-2
0.24167,-2
0.25000,-2
0.25833,-2
0.26667,-3
0.27500,-3
0.28333,-3
0.29167,-3
0.30000,-2
0.30833,-2
0.31667,-2
0.32500,-2
0.33333,-2
0.34167,-2
0.35000,-2
0.35833,-3
0.36667,-3
0.37500,-3
0.38333,-3
0.39167,-4
0.40000,-3
0.40833,-3
0.41667,-3
0.42500,-3
0.43333,-3
0.44167,-3
0.45000,-2
0.45833,-2
0.46667,-2
0.47500,-2
0.48333,-2
0.49167,-2
0.50000,-2
0.50833,-2
0.51667,-2
0.52500,-2
0.53333,-2
0.54167,-2
0.55000,-2
0.55833,-2
0.56667,-2
0.57500,-2
0.58333,-3
0.59167,-3
0.60000,-3
0.60833,-3
0.61667,-3
0.62500,-2
0.63333,-2
0.64167,-2
0.65000,-2
0.65833,-2
0.66667,-2
0.67500,-2
0.68333,-2
0.69167,-2
0.70000,-2
0.70833,-2
0.71667,-3
0.72500,-3
0.73333,-2
0.74167,-3
0.75000,-3
0.75833,-2
0.76667,-2
0.77500,-3
0.78333,-3
0.79167,-3
0.80000,-2
0.80833,-2
0.81667,-2
0.82500,-2
0.83333,-2
0.84167,-2
0.85000,-2
0.85833,-2
0.86667,-2
0.87500,-2
0.88333,-2
0.89167,-2
0.90000,-2
0.90833,-2
0.91667,-2
0.92500,-2
0.93333,-3
0.94167,-3
0.95000,-3
0.95833,-3
0.96667,-3
0.97500,-3
0.98333,-2
0.99167,-2
1.00000,-2
1.00833,-2
1.01667,-2
1.02500,-2
1.03333,-2
1.04167,-2
1.05000,-2
1.05833,-2
1.06667,-1
1.07500,-1
1.08333,-1
1.09167,-1
1.10000,-1
1.10833,-1
1.11667,-2
1.12500,-2
1.13333,-2
1.14167,-2
1.15000,-2
1.15833,-2
1.16667,-2
1.17500,-1
1.18333,-1
1.19167,-1
1.20000,-0
1.20833,-0
1.21667,0
1.22500,0
1.23333,0
1.24167,-0
1.25000,-1
1.25833,-1
1.26667,-1
1.27500,-1
1.28333,-1
1.29167,-1
1.30000,-1
1.30833,-1
1.31667,-1
1.32500,-2
1.33333,-2
1.34167,-2
1.35000,-2
1.35833,-1
1.36667,-1
1.37500,-1
1.38333,-1
1.39167,-1
1.40000,-1
1.40833,-1
1.41667,-1
1.42500,-2
1.43333,-2
1.44167,-1
1.45000,-1
1.45833,-1
1.46667,-1
1.47500,-1
1.48333,-1
1.49167,-2
1.50000,-2
1.50833,-2
1.51667,-2
1.52500,-1
1.53333,-1
1.54167,-1
1.55000,-0
1.55833,-0
1.56667,0
1.57500,-0
1.58333,-0
1.59167,-0
1.60000,0
1.60833,0
1.61667,0
1.62500,0
1.63333,0
1.64167,1
1.65000,1
1.65833,0
1.66667,-0
1.67500,-0
1.68333,-0
1.69167,-0
1.70000,-0
1.70833,-0
1.71667,-0
1.72500,-0
1.73333,-0
1.74167,-0
1.75000,-0
1.75833,-0
1.76667,0
1.77500,0
1.78333,1
1.79167,1
1.80000,1
1.80833,1
1.81667,0
1.82500,0
1.83333,1
1.84167,1
1.85000,1
1.85833,1
1.86667,1
1.87500,1
1.88333,2
1.89167,2
1.90000,2
1.90833,2
1.91667,2
1.92500,2
1.93333,2
1.94167,3
1.95000,3
1.95833,3
1.96667,2
1.97500,2
1.98333,2
1.99167,2
2.00000,2
2.00833,2
2.01667,3
2.02500,3
2.03333,3
2.04167,3
2.05000,3
2.05833,2
2.06667,2
2.07500,2
2.08333,2
2.09167,2
2.10000,2
2.10833,2
2.11667,2
2.12500,3
2.13333,3
2.14167,4
2.15000,4
2.15833,4
2.16667,4
2.17500,4
2.18333,4
2.19167,4
2.20000,4
2.20833,3
2.21667,3
2.22500,3
2.23333,3
2.24167,3
2.25000,3
2.25833,3
2.26667,3
2.27500,3
2.28333,3
2.29167,3
2.30000,3
2.30833,3
2.31667,3
2.32500,3
2.33333,3
2.34167,3
2.35000,3
2.35833,3
2.36667,3
2.37500,3
2.38333,3
2.39167,2
2.40000,3
2.40833,3
2.41667,3
2.42500,3
2.43333,3
2.44167,3
2.45000,3
2.45833,4
2.46667,4
2.47500,4
2.48333,4
2.49167,4
2.50000,3
2.50833,3
2.51667,3
2.52500,3
2.53333,3
2.54167,3
2.55000,3
2.55833,3
2.56667,3
2.57500,2
2.58333,2
2.59167,2
2.60000,2
2.60833,3
2.61667,3
2.62500,3
2.63333,3
2.64167,3
2.65000,3
2.65833,3
2.66667,3
2.67500,3
2.68333,4
2.69167,4
2.70000,4
2.70833,4
2.71667,4
2.72500,4
2.73333,4
2.74167,5
2.75000,5
2.75833,5
2.76667,5
2.77500,4
2.78333,5
2.79167,4
2.80000,4
2.80833,4
2.81667,4
2.82500,4
2.83333,4
2.84167,3
2.85000,4
2.85833,4
2.86667,4
2.87500,4
2.88333,4
2.89167,4
2.90000,4
2.90833,4
2.91667,4
2.92500,4
2.93333,5
2.94167,5
2.95000,5
2.95833,5
2.96667,5
2.97500,5
2.98333,5
2.99167,5
3.00000,5
3.00833,5
3.01667,5
3.02500,5
3.03333,5
3.04167,5
3.05000,5
3.05833,5
3.06667,5
3.07500,5
3.08333,5
3.09167,5
3.10000,5
3.10833,5
3.11667,5
3.12500,5
3.13333,5
3.14167,5
3.15000,5
3.15833,5
3.16667,5
3.17500,6
3.18333,6
3.19167,6
3.20000,6
3.20833,6
3.21667,6
3.22500,6
3.23333,5
3.24167,5
3.25000,5
3.25833,5
3.26667,5
3.27500,5
3.28333,5
3.29167,5
3.30000,6
3.30833,6
3.31667,6
3.32500,7
3.33333,7
3.34167,7
3.35000,7
3.35833,6
3.36667,6
3.37500,5
3.38333,5
3.39167,5
3.40000,6
3.40833,6
3.41667,6
3.42500,7
3.43333,7
3.44167,7
3.45000,6
3.45833,6
3.46667,6
3.47500,6
3.48333,6
3.49167,5
3.50000,5
3.50833,5
3.51667,5
3.52500,5
3.53333,5
3.54167,5
3.55000,5
3.55833,6
3.56667,6
3.57500,6
3.58333,6
3.59167,6
3.60000,6
3.60833,6
3.61667,6
3.62500,6
3.63333,6
3.64167,7
3.65000,7
3.65833,7
3.66667,7
3.67500,7
3.68333,7
3.69167,6
3.70000,6
3.70833,6
3.71667,6
3.72500,6
3.73333,6
3.74167,6
3.75000,7
3.75833,7
3.76667,7
3.77500,7
3.78333,7
3.79167,7
3.80000,7
3.80833,7
3.81667,7
3.82500,7
3.83333,7
3.84167,7
3.85000,7
3.85833,7
3.86667,7
3.87500,7
3.88333,7
3.89167,7
3.90000,7
3.90833,7
3.91667,7
3.92500,6
3.93333,6
3.94167,6
3.95000,6
3.95833,5
3.96667,6
3.97500,6
3.98333,6
3.99167,6
4.00000,7
4.00833,6
4.01667,6
4.02500,6
4.03333,6
4.04167,6
4.05000,6
4.05833,6
4.06667,6
4.07500,6
4.08333,6
4.09167,6
4.10000,6
4.10833,6
4.11667,6
4.12500,6
4.13333,6
4.14167,6
4.15000,6
4.15833,6
4.16667,6
4.17500,6
4.18333,6
4.19167,6
4.20000,6
4.20833,6
4.21667,6
4.22500,6
4.23333,6
4.24167,6
4.25000,6
4.25833,6
4.26667,6
4.27500,6
4.28333,6
4.29167,6
4.30000,6
4.30833,6
4.31667,6
4.32500,6
4.33333,6
4.34167,6
4.35000,6
4.35833,6
4.36667,6
4.37500,6
4.38333,5
4.39167,6
4.40000,6
4.40833,6
4.41667,6
4.42500,6
4.43333,6
4.44167,5
4.45000,6
4.45833,6
4.46667,6
4.47500,6
4.48333,6
4.49167,6
4.50000,6
4.50833,6
4.51667,6
4.52500,6
4.53333,6
4.54167,6
4.55000,6
4.55833,6
4.56667,5
4.57500,5
4.58333,5
4.59167,5
4.60000,5
4.60833,5
4.61667,5
4.62500,5
4.63333,5
4.64167,5
4.65000,5
4.65833,5
4.66667,5
4.67500,5
4.68333,6
4.69167,5
4.70000,5
4.70833,5
4.71667,6
4.72500,6
4.73333,6
4.74167,5
4.75000,5
4.75833,5
4.76667,5
4.77500,5
4.78333,5
4.79167,5
4.80000,4
4.80833,4
4.81667,4
4.82500,4
4.83333,4
4.84167,5
4.85000,5
4.85833,5
4.86667,5
4.87500,6
4.88333,6
4.89167,6
4.90000,6
4.90833,6
4.91667,6
4.92500,6
4.93333,6
4.94167,6
4.95000,6
4.95833,5
4.96667,5
4.97500,5
4.98333,6
4.99167,6
5.00000,6
5.00833,6
5.01667,6
5.02500,6
5.03333,6
5.04167,6
5.05000,6
5.05833,5
5.06667,5
5.07500,5
5.08333,5
5.09167,5
5.10000,5
5.10833,5
5.11667,5
5.12500,5
5.13333,5
5.14167,5
5.15000,6
5.15833,6
5.16667,6
5.17500,6
5.18333,6
5.19167,6
5.20000,6
5.20833,6
5.21667,6
5.22500,6
5.23333,6
5.24167,6
5.25000,6
5.25833,5
5.26667,6
5.27500,6
5.28333,6
5.29167,6
5.30000,6
5.30833,6
5.31667,6
5.32500,6
5.33333,5
5.34167,5
5.35000,5
5.35833,5
5.36667,5
5.37500,5
5.38333,5
5.39167,5
5.40000,5
5.40833,5
5.41667,5
5.42500,5
5.43333,6
5.44167,6
5.45000,6
5.45833,6
5.46667,6
5.47500,6
5.48333,6
5.49167,6
5.50000,6
5.50833,6
5.51667,6
5.52500,6
5.53333,6
5.54167,6
5.55000,6
5.55833,6
5.56667,6
5.57500,7
5.58333,7
5.59167,7
5.60000,7
5.60833,7
5.61667,7
5.62500,7
5.63333,7
5.64167,7
5.65000,7
5.65833,6
5.66667,6
5.67500,6
5.68333,6
5.69167,6
5.70000,6
5.70833,6
5.71667,6
5.72500,6
5.73333,7
5.74167,7
5.75000,7
5.75833,7
5.76667,7
5.77500,7
5.78333,6
5.79167,6
5.80000,6
5.80833,6
5.81667,6
5.82500,6
5.83333,7
5.84167,7
5.85000,7
5.85833,7
5.86667,7
5.87500,7
5.88333,7
5.89167,7
5.90000,6
5.90833,7
5.91667,7
5.92500,7
5.93333,7
5.94167,7
5.95000,7
5.95833,7
5.96667,6
5.97500,6
5.98333,7
5.99167,7
6.00000,7
6.00833,7
6.01667,7
6.02500,7
6.03333,7
6.04167,7
6.05000,7
6.05833,7
6.06667,7
6.07500,7
6.08333,7
6.09167,7
6.10000,7
6.10833,7
6.11667,6
6.12500,7
6.13333,7
6.14167,7
6.15000,7
6.15833,7
6.16667,7
6.17500,7
6.18333,8
6.19167,7
6.20000,7
6.20833,7
6.21667,7
6.22500,7
6.23333,8
6.24167,8
6.25000,8
6.25833,7
6.26667,7
6.27500,6
6.28333,6
6.29167,6
6.30000,6
6.30833,5
6.31667,5
6.32500,6
6.33333,6
6.34167,6
6.35000,6
6.35833,5
6.36667,5
6.37500,6
6.38333,6
6.39167,7
6.40000,7
6.40833,7
6.41667,7
6.42500,6
6.43333,6
6.44167,6
6.45000,7
6.45833,7
6.46667,7
6.47500,7
6.48333,6
6.49167,6
6.50000,6
6.50833,6
6.51667,6
6.52500,6
6.53333,6
6.54167,6
6.55000,7
6.55833,7
6.56667,7
6.57500,7
6.58333,7
6.59167,7
6.60000,7
6.60833,7
6.61667,7
6.62500,7
6.63333,6
6.64167,6
6.65000,6
6.65833,6
6.66667,6
6.67500,6
6.68333,6
6.69167,6
6.70000,6
6.70833,6
6.71667,6
6.72500,6
6.73333,6
6.74167,6
6.75000,6
6.75833,6
6.76667,5
6.77500,5
6.78333,5
6.79167,5
6.80000,5
6.80833,5
6.81667,6
6.82500,6
6.83333,6
6.84167,6
6.85000,6
6.85833,6
6.86667,6
6.87500,6
6.88333,6
6.89167,6
6.90000,6
6.90833,6
6.91667,6
6.92500,5
6.93333,5
6.94167,5
6.95000,5
6.95833,5
6.96667,5
6.97500,5
6.98333,5
6.99167,5
7.00000,5
7.00833,5
7.01667,5
7.02500,5
7.03333,6
7.04167,6
7.05000,6
7.05833,6
7.06667,6
7.07500,5
7.08333,5
7.09167,6
7.10000,6
7.10833,6
7.11667,6
7.12500,6
7.13333,6
7.14167,6
7.15000,6
7.15833,6
7.16667,6
7.17500,6
7.18333,6
7.19167,6
7.20000,6
7.20833,6
7.21667,6
7.22500,6
7.23333,6
7.24167,7
7.25000,7
7.25833,7
7.26667,7
7.27500,7
7.28333,7
7.29167,7
7.30000,6
7.30833,6
7.31667,6
7.32500,6
7.33333,6
7.34167,6
7.35000,6
7.35833,6
7.36667,6
7.37500,6
7.38333,6
7.39167,6
7.40000,6
7.40833,5
7.41667,5
7.42500,5
7.43333,6
7.44167,6
7.45000,6
7.45833,6
7.46667,6
7.47500,6
7.48333,6
7.49167,6
7.50000,6
7.50833,7
7.51667,7
7.52500,7
7.53333,7
7.54167,7
7.55000,7
7.55833,7
7.56667,7
7.57500,7
7.58333,7
7.59167,7
7.60000,7
7.60833,7
7.61667,7
7.62500,7
7.63333,7
7.64167,7
7.65000,7
7.65833,7
7.66667,7
7.67500,6
7.68333,6
7.69167,5
7.70000,5
7.70833,5
7.71667,5
7.72500,5
7.73333,6
7.74167,5
7.75000,5
7.75833,6
7.76667,6
7.77500,6
7.78333,6
7.79167,7
7.80000,7
7.80833,7
7.81667,7
7.82500,7
7.83333,7
7.84167,6
7.85000,6
7.85833,6
7.86667,6
7.87500,7
7.88333,7
7.89167,7
7.90000,7
7.90833,7
7.91667,8
7.92500,8
7.93333,8
7.94167,7
7.95000,7
7.95833,8
7.96667,8
7.97500,8
7.98333,8
7.99167,8
8.00000,7
8.00833,7
8.01667,7
8.02500,6
8.03333,6
8.04167,6
8.05000,6
8.05833,6
8.06667,6
8.07500,6
8.08333,7
8.09167,7
8.10000,7
8.10833,7
8.11667,7
8.12500,7
8.13333,7
8.14167,7
8.15000,7
8.15833,7
8.16667,7
8.17500,6
8.18333,6
8.19167,6
8.20000,6
8.20833,6
8.21667,6
8.22500,6
8.23333,6
8.24167,6
8.25000,7
8.25833,7
8.26667,7
8.27500,7
8.28333,7
8.29167,7
8.30000,7
8.30833,7
8.31667,7
8.32500,7
8.33333,6
8.34167,6
8.35000,6
8.35833,7
8.36667,6
8.37500,6
8.38333,6
8.39167,6
8.40000,6
8.40833,6
8.41667,6
8.42500,6
8.43333,6
8.44167,6
8.45000,6
8.45833,6
8.46667,7
8.47500,7
8.48333,6
8.49167,6
8.50000,6
8.50833,6
8.51667,6
8.52500,5
8.53333,6
8.54167,6
8.55000,6
8.55833,6
8.56667,6
8.57500,6
8.58333,6
8.59167,5
8.60000,5
8.60833,5
8.61667,5
8.62500,6
8.63333,6
8.64167,6
8.65000,6
8.65833,6
8.66667,6
8.67500,6
8.68333,7
8.69167,7
8.70000,6
8.70833,7
8.71667,7
8.72500,7
8.73333,7
8.74167,6
8.75000,6
8.75833,6
8.76667,6
8.77500,6
8.78333,6
8.79167,6
8.80000,6
8.80833,6
8.81667,6
8.82500,6
8.83333,6
8.84167,6
8.85000,6
8.85833,6
8.86667,6
8.87500,6
8.88333,6
8.89167,6
8.90000,6
8.90833,6
8.91667,6
8.92500,6
8.93333,6
8.94167,6
8.95000,6
8.95833,7
8.96667,7
8.97500,7
8.98333,6
8.99167,6
9.00000,7
9.00833,7
9.01667,7
9.02500,7
9.03333,7
9.04167,7
9.05000,7
9.05833,6
9.06667,6
9.07500,6
9.08333,6
9.09167,6
9.10000,6
9.10833,5
9.11667,5
9.12500,5
9.13333,6
9.14167,6
9.15000,6
9.15833,6
9.16667,6
9.17500,6
9.18333,6
9.19167,6
9.20000,6
9.20833,7
9.21667,7
9.22500,7
9.23333,7
9.24167,7
9.25000,7
9.25833,6
9.26667,6
9.27500,6
9.28333,6
9.29167,7
9.30000,7
9.30833,7
9.31667,7
9.32500,7
9.33333,7
9.34167,7
9.35000,7
9.35833,6
9.36667,6
9.37500,6
9.38333,6
9.39167,6
9.40000,7
9.40833,7
9.41667,7
9.42500,7
9.43333,7
9.44167,8
9.45000,8
9.45833,8
9.46667,8
9.47500,7
9.48333,7
9.49167,7
9.50000,7
9.50833,7
9.51667,7
9.52500,7
9.53333,7
9.54167,6
9.55000,6
9.55833,6
9.56667,5
9.57500,5
9.58333,5
9.59167,5
9.60000,5
9.60833,6
9.61667,6
9.62500,6
9.63333,6
9.64167,6
9.65000,6
9.65833,6
9.66667,6
9.67500,6
9.68333,7
9.69167,6
9.70000,6
9.70833,6
9.71667,6
9.72500,6
9.73333,6
9.74167,6
9.75000,6
9.75833,5
9.76667,5
9.77500,5
9.78333,5
9.79167,5
9.80000,5
9.80833,5
9.81667,5
9.82500,6
9.83333,6
9.84167,6
9.85000,6
9.85833,6
9.86667,6
9.87500,6
9.88333,6
9.89167,6
9.90000,6
9.90833,6
9.91667,6
9.92500,6
9.93333,6
9.94167,5
9.95000,5
9.95833,5
9.96667,6
9.97500,6
9.98333,6
9.99167,6
10.00000,6
10.00833,6
10.01667,6
10.02500,6
10.03333,7
10.04167,7
10.05000,7
10.05833,6
10.06667,6
10.07500,6
10.08333,7
10.09167,7
10.10000,7
10.10833,7
10.11667,7
10.12500,7
10.13333,7
10.14167,6
10.15000,6
10.15833,7
10.16667,7
10.17500,7
10.18333,7
10.19167,8
10.20000,8
10.20833,8
10.21667,8
10.22500,7
10.23333,7
10.24167,8
10.25000,8
10.25833,7
10.26667,7
10.27500,7
10.28333,7
10.29167,7
10.30000,8
10.30833,8
10.31667,8
10.32500,8
10.33333,8
10.34167,8
10.35000,9
10.35833,9
10.36667,10
10.37500,10
10.38333,10
10.39167,10
10.40000,10
10.40833,10
10.41667,10
10.42500,10
10.43333,10
10.44167,9
10.45000,8
10.45833,7
10.46667,5
10.47500,2
10.48333,-3
10.49167,-9
10.50000,-18
10.50833,-30
10.51667,-47
10.52500,-69
10.53333,-98
10.54167,-134
10.55000,-178
10.55833,-231
10.56667,-294
10.57500,-367
10.58333,-450
10.59167,-542
10.60000,-642
10.60833,-747
10.61667,-853
10.62500,-957
10.63333,-1052
10.64167,-1133
10.65000,-1193
10.65833,-1224
10.66667,-1218
10.67500,-1167
10.68333,-1062
10.69167,-893
10.70000,-652
10.70833,-331
10.71667,79
10.72500,587
10.73333,1198
10.74167,1920
10.75000,2758
10.75833,3719
10.76667,4807
10.77500,6025
10.78333,7377
10.79167,8867
10.80000,10495
10.80833,12262
10.81667,14171
10.82500,16220
10.83333,18409
10.84167,20739
10.85000,23208
10.85833,25814
10.86667,28555
10.87500,31427
10.88333,34428
10.89167,37552
10.90000,40795
10.90833,44148
10.91667,47603
10.92500,51148
10.93333,54770
10.94167,58448
10.95000,62159
10.95833,65874
10.96667,69553
10.97500,73149
10.98333,76606
10.99167,79855
11.00000,82820
11.00833,85418
11.01667,87562
11.02500,89166
11.03333,90154
11.04167,90460
11.05000,90041
11.05833,88877
11.06667,86974
11.07500,84369
11.08333,81122
11.09167,77317
11.10000,73054
11.10833,68445
11.11667,63603
11.12500,58641
11.13333,53664
11.14167,48766
11.15000,44025
11.15833,39505
11.16667,35253
11.17500,31301
11.18333,27668
11.19167,24360
11.20000,21375
11.20833,18703
11.21667,16327
11.22500,14228
11.23333,12384
11.24167,10771
11.25000,9367
11.25833,8149
11.26667,7094
11.27500,6184
11.28333,5400
11.29167,4726
11.30000,4146
11.30833,3648
11.31667,3220
11.32500,2851
11.33333,2533
11.34167,2260
11.35000,2023
11.35833,1818
11.36667,1641
11.37500,1486
11.38333,1350
11.39167,1232
11.40000,1128
11.40833,1036
11.41667,954
11.42500,881
11.43333,816
11.44167,758
11.45000,705
11.45833,658
11.46667,615
11.47500,576
11.48333,541
11.49167,508
11.50000,477
11.50833,449
11.51667,423
11.52500,399
11.53333,376
11.54167,355
11.55000,336
11.55833,317
11.56667,299
11.57500,283
11.58333,267
11.59167,252
11.60000,238
11.60833,225
11.61667,212
11.62500,200
11.63333,189
11.64167,178
11.65000,168
11.65833,159
11.66667,150
11.67500,141
11.68333,132
11.69167,125
11.70000,117
11.70833,110
11.71667,103
11.72500,96
11.73333,90
11.74167,84
11.75000,78
11.75833,73
11.76667,68
11.77500,63
11.78333,58
11.79167,53
11.80000,49
11.80833,45
11.81667,42
11.82500,39
11.83333,36
11.84167,33
11.85000,30
11.85833,27
11.86667,24
11.87500,21
11.88333,19
11.89167,16
11.90000,14
11.90833,11
11.91667,10
11.92500,8
11.93333,7
11.94167,5
11.95000,4
11.95833,2
11.96667,1
11.97500,-0
11.98333,-2
11.99167,-3
12.00000,-4
12.00833,-5
12.01667,-5
12.02500,-6
12.03333,-7
12.04167,-8
12.05000,-9
12.05833,-9
12.06667,-10
12.07500,-11
12.08333,-12
12.09167,-12
12.10000,-13
12.10833,-13
12.11667,-14
12.12500,-15
12.13333,-16
12.14167,-17
12.15000,-17
12.15833,-18
12.16667,-19
12.17500,-19
12.18333,-20
12.19167,-20
12.20000,-20
12.20833,-20
12.21667,-21
12.22500,-21
12.23333,-21
12.24167,-21
12.25000,-21
12.25833,-21
12.26667,-21
12.27500,-21
12.28333,-22
12.29167,-22
12.30000,-22
12.30833,-21
12.31667,-21
12.32500,-21
12.33333,-21
12.34167,-21
12.35000,-21
12.35833,-21
12.36667,-21
12.37500,-20
12.38333,-20
12.39167,-20
12.40000,-20
12.40833,-20
12.41667,-19
12.42500,-19
12.43333,-19
12.44167,-18
12.45000,-18
12.45833,-18
12.46667,-18
12.47500,-18
12.48333,-18
12.49167,-17
12.50000,-16
12.50833,-16
12.51667,-16
12.52500,-16
12.53333,-16
12.54167,-16
12.55000,-15
12.55833,-15
12.56667,-14
12.57500,-14
12.58333,-13
12.59167,-13
12.60000,-12
12.60833,-12
12.61667,-11
12.62500,-10
12.63333,-10
12.64167,-9
12.65000,-9
12.65833,-9
12.66667,-8
12.67500,-8
12.68333,-8
12.69167,-8
12.70000,-7
12.70833,-6
12.71667,-5
12.72500,-4
12.73333,-3
12.74167,-1
12.75000,1
12.75833,3
12.76667,6
12.77500,9
12.78333,14
12.79167,19
12.80000,26
12.80833,34
12.81667,43
12.82500,55
12.83333,68
12.84167,84
12.85000,102
12.85833,124
12.86667,150
12.87500,179
12.88333,212
12.89167,251
12.90000,294
12.90833,342
12.91667,395
12.92500,454
12.93333,520
12.94167,592
12.95000,670
12.95833,754
12.96667,845
12.97500,943
12.98333,1047
12.99167,1159
13.00000,1277
13.00833,1402
13.01667,1533
13.02500,1671
13.03333,1816
13.04167,1967
13.05000,2124
13.05833,2287
13.06667,2456
13.07500,2631
13.08333,2812
13.09167,2997
13.10000,3188
13.10833,3384
13.11667,3585
13.12500,3790
13.13333,4000
13.14167,4214
13.15000,4432
13.15833,4655
13.16667,4881
13.17500,5112
13.18333,5345
13.19167,5584
13.20000,5825
13.20833,6070
13.21667,6318
13.22500,6569
13.23333,6824
13.24167,7081
13.25000,7341
13.25833,7604
13.26667,7871
13.27500,8140
13.28333,8412
13.29167,8687
13.30000,8964
13.30833,9244
13.31667,9527
13.32500,9812
13.33333,10099
13.34167,10389
13.35000,10682
13.35833,10977
13.36667,11275
13.37500,11576
13.38333,11879
13.39167,12184
13.40000,12491
13.40833,12802
13.41667,13115
13.42500,13430
13.43333,13748
13.44167,14068
13.45000,14390
13.45833,14715
13.46667,15043
13.47500,15373
13.48333,15706
13.49167,16041
13.50000,16379
13.50833,16719
13.51667,17061
13.52500,17407
13.53333,17755
13.54167,18106
13.55000,18459
13.55833,18815
13.56667,19173
13.57500,19534
13.58333,19897
13.59167,20263
13.60000,20632
13.60833,21004
13.61667,21378
13.62500,21755
13.63333,22136
13.64167,22519
13.65000,22905
13.65833,23293
13.66667,23685
13.67500,24079
13.68333,24476
13.69167,24876
13.70000,25280
13.70833,25686
13.71667,26095
13.72500,26507
13.73333,26923
13.74167,27341
13.75000,27763
13.75833,28188
13.76667,28615
13.77500,29045
13.78333,29480
13.79167,29917
13.80000,30357
13.80833,30802
13.81667,31249
13.82500,31700
13.83333,32154
13.84167,32611
13.85000,33073
13.85833,33537
13.86667,34005
13.87500,34477
13.88333,34952
13.89167,35430
13.90000,35913
13.90833,36399
13.91667,36889
13.92500,37383
13.93333,37881
13.94167,38382
13.95000,38887
13.95833,39397
13.96667,39910
13.97500,40427
13.98333,40948
13.99167,41474
14.00000,42003
14.00833,42537
14.01667,43075
14.02500,43617
14.03333,44163
14.04167,44714
14.05000,45269
14.05833,45829
14.06667,46393
14.07500,46962
14.08333,47535
14.09167,48113
14.10000,48696
14.10833,49283
14.11667,49875
14.12500,50472
14.13333,51073
14.14167,51680
14.15000,52291
14.15833,52907
14.16667,53529
14.17500,54156
14.18333,54787
14.19167,55425
14.20000,56068
14.20833,56716
14.21667,57369
14.22500,58028
14.23333,58692
14.24167,59362
14.25000,60037
14.25833,60718
14.26667,61405
14.27500,62097
14.28333,62796
14.29167,63501
14.30000,64212
14.30833,64929
14.31667,65652
14.32500,66380
14.33333,67114
14.34167,67853
14.35000,68596
14.35833,69342
14.36667,70087
14.37500,70828
14.38333,71557
14.39167,72266
14.40000,72943
14.40833,73572
14.41667,74135
14.42500,74608
14.43333,74966
14.44167,75180
14.45000,75220
14.45833,75054
14.46667,74655
14.47500,73997
14.48333,73059
14.49167,71828
14.50000,70298
14.50833,68472
14.51667,66362
14.52500,63989
14.53333,61383
14.54167,58578
14.55000,55616
14.55833,52542
14.56667,49400
14.57500,46236
14.58333,43094
14.59167,40011
14.60000,37023
14.60833,34160
14.61667,31443
14.62500,28890
14.63333,26512
14.64167,24315
14.65000,22300
14.65833,20466
14.66667,18805
14.67500,17309
14.68333,15969
14.69167,14772
14.70000,13708
14.70833,12764
14.71667,11930
14.72500,11192
14.73333,10542
14.74167,9968
14.75000,9461
14.75833,9014
14.76667,8619
14.77500,8269
14.78333,7958
14.79167,7682
14.80000,7435
14.80833,7214
14.81667,7015
14.82500,6835
14.83333,6672
14.84167,6523
14.85000,6386
14.85833,6261
14.86667,6145
14.87500,6037
14.88333,5936
14.89167,5842
14.90000,5752
14.90833,5668
14.91667,5587
14.92500,5511
14.93333,5437
14.94167,5367
14.95000,5299
14.95833,5234
14.96667,5171
14.97500,5110
14.98333,5050
14.99167,4993
15.00000,4937
15.00833,4882
15.01667,4829
15.02500,4777
15.03333,4726
15.04167,4677
15.05000,4629
15.05833,4581
15.06667,4535
15.07500,4489
15.08333,4445
15.09167,4401
15.10000,4358
15.10833,4316
15.11667,4275
15.12500,4235
15.13333,4196
15.14167,4158
15.15000,4121
15.15833,4084
15.16667,4048
15.17500,4013
15.18333,3979
15.19167,3946
15.20000,3913
15.20833,3882
15.21667,3850
15.22500,3820
15.23333,3791
15.24167,3762
15.25000,3735
15.25833,3707
15.26667,3681
15.27500,3655
15.28333,3630
15.29167,3605
15.30000,3581
15.30833,3558
15.31667,3536
15.32500,3514
15.33333,3492
15.34167,3471
15.35000,3450
15.35833,3430
15.36667,3410
15.37500,3391
15.38333,3373
15.39167,3355
15.40000,3338
15.40833,3322
15.41667,3306
15.42500,3292
15.43333,3279
15.44167,3268
15.45000,3259
15.45833,3253
15.46667,3249
15.47500,3249
15.48333,3252
15.49167,3260
15.50000,3272
15.50833,3290
15.51667,3315
15.52500,3346
15.53333,3385
15.54167,3433
15.55000,3490
15.55833,3557
15.56667,3635
15.57500,3724
15.58333,3824
15.59167,3938
15.60000,4064
15.60833,4203
15.61667,4356
15.62500,4522
15.63333,4701
15.64167,4893
15.65000,5098
15.65833,5314
15.66667,5541
15.67500,5777
15.68333,6022
15.69167,6274
15.70000,6531
15.70833,6791
15.71667,7053
15.72500,7314
15.73333,7573
15.74167,7827
15.75000,8074
15.75833,8313
15.76667,8540
15.77500,8754
15.78333,8953
15.79167,9136
15.80000,9300
15.80833,9444
15.81667,9567
15.82500,9669
15.83333,9748
15.84167,9803
15.85000,9835
15.85833,9843
15.86667,9828
15.87500,9790
15.88333,9729
15.89167,9647
15.90000,9543
15.90833,9420
15.91667,9278
15.92500,9120
15.93333,8945
15.94167,8757
15.95000,8557
15.95833,8346
15.96667,8126
15.97500,7899
15.98333,7665
15.99167,7428
16.00000,7187
16.00833,6944
16.01667,6702
16.02500,6461
16.03333,6222
16.04167,5986
16.05000,5756
16.05833,5530
16.06667,5310
16.07500,5097
16.08333,4890
16.09167,4691
16.10000,4500
16.10833,4317
16.11667,4141
16.12500,3975
16.13333,3816
16.14167,3666
16.15000,3524
16.15833,3390
16.16667,3264
16.17500,3145
16.18333,3034
16.19167,2929
16.20000,2832
16.20833,2740
16.21667,2655
16.22500,2576
16.23333,2501
16.24167,2432
16.25000,2368
16.25833,2308
16.26667,2253
16.27500,2202
16.28333,2155
16.29167,2111
16.30000,2069
16.30833,2031
16.31667,1996
16.32500,1963
16.33333,1932
16.34167,1903
16.35000,1876
16.35833,1851
16.36667,1828
16.37500,1806
16.38333,1786
16.39167,1767
16.40000,1748
16.40833,1731
16.41667,1714
16.42500,1698
16.43333,1683
16.44167,1668
16.45000,1655
16.45833,1642
16.46667,1630
16.47500,1618
16.48333,1607
16.49167,1596
16.50000,1585
16.50833,1575
16.51667,1565
16.52500,1555
16.53333,1546
16.54167,1537
16.55000,1528
16.55833,1519
16.56667,1511
16.57500,1502
16.58333,1494
16.59167,1486
16.60000,1478
16.60833,1471
16.61667,1463
16.62500,1456
16.63333,1449
16.64167,1441
16.65000,1434
16.65833,1426
16.66667,1419
16.67500,1412
16.68333,1406
16.69167,1399
16.70000,1393
16.70833,1386
16.71667,1380
16.72500,1373
16.73333,1367
16.74167,1360
16.75000,1354
16.75833,1347
16.76667,1340
16.77500,1334
16.78333,1327
16.79167,1321
16.80000,1315
16.80833,1310
16.81667,1304
16.82500,1298
16.83333,1292
16.84167,1285
16.85000,1279
16.85833,1273
16.86667,1267
16.87500,1261
16.88333,1256
16.89167,1250
16.90000,1244
16.90833,1238
16.91667,1232
16.92500,1226
16.93333,1220
16.94167,1215
16.95000,1209
16.95833,1203
16.96667,1197
16.97500,1191
16.98333,1185
16.99167,1179
17.00000,1173
17.00833,1167
17.01667,1161
17.02500,1155
17.03333,1149
17.04167,1144
17.05000,1138
17.05833,1132
17.06667,1127
17.07500,1121
17.08333,1115
17.09167,1110
17.10000,1104
17.10833,1099
17.11667,1094
17.12500,1088
17.13333,1082
17.14167,1077
17.15000,1071
17.15833,1065
17.16667,1059
17.17500,1054
17.18333,1048
17.19167,1043
17.20000,1038
17.20833,1032
17.21667,1027
17.22500,1021
17.23333,1016
17.24167,1010
17.25000,1005
17.25833,1000
17.26667,995
17.27500,990
17.28333,984
17.29167,979
17.30000,973
17.30833,968
17.31667,964
17.32500,959
17.33333,954
17.34167,948
17.35000,943
17.35833,938
17.36667,933
17.37500,927
17.38333,922
17.39167,917
17.40000,912
17.40833,907
17.41667,902
17.42500,897
17.43333,892
17.44167,887
17.45000,881
17.45833,876
17.46667,871
17.47500,866
17.48333,860
17.49167,855
17.50000,851
17.50833,846
17.51667,841
17.52500,836
17.53333,831
17.54167,826
17.55000,821
17.55833,816
17.56667,812
17.57500,807
17.58333,802
17.59167,798
17.60000,793
17.60833,789
17.61667,784
17.62500,780
17.63333,776
17.64167,771
17.65000,767
17.65833,762
17.66667,758
17.67500,754
17.68333,749
17.69167,744
17.70000,739
17.70833,734
17.71667,730
17.72500,725
17.73333,721
17.74167,716
17.75000,712
17.75833,707
17.76667,703
17.77500,699
17.78333,694
17.79167,690
17.80000,685
17.80833,681
17.81667,676
17.82500,672
17.83333,667
17.84167,663
17.85000,659
17.85833,655
17.86667,650
17.87500,646
17.88333,641
17.89167,637
17.90000,632
17.90833,628
17.91667,624
17.92500,620
17.93333,616
17.94167,611
17.95000,607
17.95833,603
17.96667,599
17.97500,595
17.98333,591
17.99167,586
18.00000,582
18.00833,578
18.01667,574
18.02500,571
18.03333,567
18.04167,563
18.05000,559
18.05833,555
18.06667,551
18.07500,547
18.08333,543
18.09167,539
18.10000,535
18.10833,531
18.11667,527
18.12500,523
18.13333,520
18.14167,516
18.15000,512
18.15833,508
18.16667,504
18.17500,500
18.18333,496
18.19167,493
18.20000,489
18.20833,485
18.21667,481
18.22500,477
18.23333,473
18.24167,469
18.25000,465
18.25833,462
18.26667,458
18.27500,455
18.28333,451
18.29167,448
18.30000,444
18.30833,441
18.31667,437
18.32500,434
18.33333,430
18.34167,426
18.35000,422
18.35833,419
18.36667,414
18.37500,410
18.38333,406
18.39167,403
18.40000,399
18.40833,396
18.41667,392
18.42500,388
18.43333,385
18.44167,381
18.45000,377
18.45833,373
18.46667,369
18.47500,365
18.48333,361
18.49167,358
18.50000,354
18.50833,350
18.51667,347
18.52500,343
18.53333,339
18.54167,335
18.55000,332
18.55833,328
18.56667,324
18.57500,320
18.58333,317
18.59167,313
18.60000,310
18.60833,306
18.61667,303
18.62500,299
18.63333,296
18.64167,292
18.65000,289
18.65833,286
18.66667,283
18.67500,280
18.68333,277
18.69167,274
18.70000,271
18.70833,268
18.71667,265
18.72500,262
18.73333,260
18.74167,257
18.75000,254
18.75833,252
18.76667,249
18.77500,246
18.78333,243
18.79167,240
18.80000,238
18.80833,235
18.81667,232
18.82500,230
18.83333,227
18.84167,225
18.85000,222
18.85833,220
18.86667,217
18.87500,215
18.88333,212
18.89167,209
18.90000,206
18.90833,203
18.91667,201
18.92500,198
18.93333,196
18.94167,194
18.95000,191
18.95833,188
18.96667,185
18.97500,183
18.98333,180
18.99167,177
19.00000,174
19.00833,172
19.01667,169
19.02500,167
19.03333,165
19.04167,162
19.05000,159
19.05833,157
19.06667,155
19.07500,152
19.08333,150
19.09167,148
19.10000,146
19.10833,145
19.11667,143
19.12500,142
19.13333,140
19.14167,139
19.15000,137
19.15833,136
19.16667,136
19.17500,135
19.18333,135
19.19167,134
19.20000,134
19.20833,134
19.21667,134
19.22500,134
19.23333,135
19.24167,136
19.25000,138
19.25833,139
19.26667,141
19.27500,143
19.28333,144
19.29167,146
19.30000,148
19.30833,151
19.31667,153
19.32500,156
19.33333,158
19.34167,160
19.35000,163
19.35833,165
19.36667,168
19.37500,170
19.38333,172
19.39167,174
19.40000,175
19.40833,176
19.41667,177
19.42500,178
19.43333,179
19.44167,180
19.45000,180
19.45833,180
19.46667,180
19.47500,179
19.48333,178
19.49167,177
19.50000,176
19.50833,174
19.51667,172
19.52500,170
19.53333,168
19.54167,165
19.55000,162
19.55833,159
19.56667,156
19.57500,152
19.58333,149
19.59167,146
19.60000,143
19.60833,140
19.61667,136
19.62500,132
19.63333,128
19.64167,125
19.65000,121
19.65833,118
19.66667,114
19.67500,111
19.68333,107
19.69167,104
19.70000,101
19.70833,98
19.71667,95
19.72500,93
19.73333,90
19.74167,87
19.75000,85
19.75833,82
19.76667,80
19.77500,78
19.78333,75
19.79167,73
19.80000,71
19.80833,69
19.81667,68
19.82500,66
19.83333,64
19.84167,63
19.85000,61
19.85833,60
19.86667,58
19.87500,57
19.88333,56
19.89167,55
19.90000,54
19.90833,53
19.91667,52
19.92500,52
19.93333,51
19.94167,50
19.95000,49
19.95833,49
19.96667,48
19.97500,47
19.98333,46
19.99167,45
20.00000,44
20.00833,44
20.01667,43
20.02500,43
20.03333,43
20.04167,43
20.05000,42
20.05833,42
20.06667,42
20.07500,41
20.08333,41
20.09167,41
20.10000,41
20.10833,41
20.11667,41
20.12500,41
20.13333,41
20.14167,40
20.15000,40
20.15833,40
20.16667,40
20.17500,39
20.18333,39
20.19167,39
20.20000,38
20.20833,38
20.21667,38
20.22500,37
20.23333,37
20.24167,38
20.25000,38
20.25833,38
20.26667,38
20.27500,38
20.28333,38
20.29167,39
20.30000,39
20.30833,39
20.31667,39
20.32500,39
20.33333,39
20.34167,39
20.35000,39
20.35833,38
20.36667,38
20.37500,39
20.38333,39
20.39167,39
20.40000,39
20.40833,39
20.41667,39
20.42500,39
20.43333,39
20.44167,39
20.45000,39
20.45833,39
20.46667,39
20.47500,39
20.48333,38
20.49167,38
20.50000,38
20.50833,38
20.51667,38
20.52500,39
20.53333,39
20.54167,39
20.55000,39
20.55833,39
20.56667,39
20.57500,39
20.58333,39
20.59167,39
20.60000,39
20.60833,39
20.61667,40
20.62500,40
20.63333,41
20.64167,41
20.65000,42
20.65833,43
20.66667,44
20.67500,44
20.68333,46
20.69167,47
20.70000,49
20.70833,51
20.71667,54
20.72500,57
20.73333,61
20.74167,65
20.75000,70
20.75833,75
20.76667,81
20.77500,88
20.78333,96
20.79167,105
20.80000,115
20.80833,125
20.81667,137
20.82500,150
20.83333,165
20.84167,180
20.85000,197
20.85833,215
20.86667,235
20.87500,257
20.88333,280
20.89167,305
20.90000,332
20.90833,361
20.91667,390
20.92500,422
20.93333,455
20.94167,490
20.95000,527
20.95833,564
20.96667,603
20.97500,643
20.98333,684
20.99167,725
21.00000,767
21.00833,810
21.01667,852
21.02500,895
21.03333,937
21.04167,979
21.05000,1020
21.05833,1060
21.06667,1098
21.07500,1135
21.08333,1171
21.09167,1204
21.10000,1235
21.10833,1264
21.11667,1291
21.12500,1315
21.13333,1336
21.14167,1354
21.15000,1369
21.15833,1380
21.16667,1389
21.17500,1395
21.18333,1397
21.19167,1396
21.20000,1392
21.20833,1385
21.21667,1374
21.22500,1361
21.23333,1345
21.24167,1327
21.25000,1306
21.25833,1283
21.26667,1258
21.27500,1231
21.28333,1202
21.29167,1172
21.30000,1140
21.30833,1107
21.31667,1073
21.32500,1038
21.33333,1003
21.34167,967
21.35000,932
21.35833,896
21.36667,860
21.37500,825
21.38333,790
21.39167,755
21.40000,722
21.40833,689
21.41667,657
21.42500,626
21.43333,595
21.44167,566
21.45000,538
21.45833,511
21.46667,485
21.47500,461
21.48333,438
21.49167,416
21.50000,395
21.50833,375
21.51667,357
21.52500,340
21.53333,323
21.54167,308
21.55000,293
21.55833,280
21.56667,268
21.57500,257
21.58333,246
21.59167,236
21.60000,227
21.60833,219
21.61667,211
21.62500,204
21.63333,197
21.64167,191
21.65000,185
21.65833,180
21.66667,175
21.67500,170
21.68333,166
21.69167,161
21.70000,157
21.70833,153
21.71667,150
21.72500,147
21.73333,144
21.74167,140
21.75000,137
21.75833,134
21.76667,131
21.77500,129
21.78333,126
21.79167,123
21.80000,120
21.80833,117
21.81667,114
21.82500,112
21.83333,109
21.84167,107
21.85000,104
21.85833,101
21.86667,99
21.87500,97
21.88333,95
21.89167,92
21.90000,90
21.90833,88
21.91667,85
21.92500,83
21.93333,80
21.94167,78
21.95000,76
21.95833,74
21.96667,72
21.97500,70
21.98333,68
21.99167,66
22.00000,64
22.00833,62
22.01667,61
22.02500,59
22.03333,57
22.04167,56
22.05000,54
22.05833,53
22.06667,51
22.07500,49
22.08333,48
22.09167,47
22.10000,45
22.10833,44
22.11667,43
22.12500,42
22.13333,42
22.14167,41
22.15000,40
22.15833,39
22.16667,38
22.17500,36
22.18333,35
22.19167,34
22.20000,33
22.20833,33
22.21667,32
22.22500,32
22.23333,32
22.24167,31
22.25000,31
22.25833,30
22.26667,30
22.27500,29
22.28333,29
22.29167,28
22.30000,28
22.30833,27
22.31667,27
22.32500,26
22.33333,26
22.34167,26
22.35000,25
22.35833,25
22.36667,24
22.37500,24
22.38333,24
22.39167,24
22.40000,24
22.40833,24
22.41667,24
22.42500,23
22.43333,23
22.44167,23
22.45000,22
22.45833,22
22.46667,22
22.47500,22
22.48333,22
22.49167,22
22.50000,22
22.50833,21
22.51667,21
22.52500,21
22.53333,21
22.54167,21
22.55000,22
22.55833,22
22.56667,22
22.57500,22
22.58333,21
22.59167,21
22.60000,21
22.60833,22
22.61667,22
22.62500,22
22.63333,22
22.64167,23
22.65000,24
22.65833,25
22.66667,26
22.67500,26
22.68333,28
22.69167,29
22.70000,30
22.70833,32
22.71667,34
22.72500,36
22.73333,39
22.74167,43
22.75000,46
22.75833,50
22.76667,55
22.77500,61
22.78333,67
22.79167,75
22.80000,83
22.80833,92
22.81667,102
22.82500,113
22.83333,125
22.84167,139
22.85000,155
22.85833,172
22.86667,191
22.87500,213
22.88333,236
22.89167,262
22.90000,289
22.90833,319
22.91667,351
22.92500,387
22.93333,425
22.94167,466
22.95000,510
22.95833,558
22.96667,608
22.97500,662
22.98333,719
22.99167,778
23.00000,841
23.00833,907
23.01667,976
23.02500,1047
23.03333,1122
23.04167,1199
23.05000,1279
23.05833,1361
23.06667,1445
23.07500,1531
23.08333,1618
23.09167,1706
23.10000,1795
23.10833,1884
23.11667,1973
23.12500,2062
23.13333,2150
23.14167,2238
23.15000,2323
23.15833,2406
23.16667,2487
23.17500,2564
23.18333,2639
23.19167,2709
23.20000,2775
23.20833,2836
23.21667,2892
23.22500,2943
23.23333,2988
23.24167,3028
23.25000,3061
23.25833,3088
23.26667,3109
23.27500,3123
23.28333,3130
23.29167,3131
23.30000,3124
23.30833,3112
23.31667,3093
23.32500,3067
23.33333,3036
23.34167,2998
23.35000,2954
23.35833,2906
23.36667,2852
23.37500,2794
23.38333,2732
23.39167,2665
23.40000,2595
23.40833,2522
23.41667,2446
23.42500,2368
23.43333,2288
23.44167,2206
23.45000,2123
23.45833,2040
23.46667,1956
23.47500,1872
23.48333,1789
23.49167,1707
23.50000,1626
23.50833,1546
23.51667,1467
23.52500,1390
23.53333,1315
23.54167,1243
23.55000,1172
23.55833,1105
23.56667,1039
23.57500,976
23.58333,915
23.59167,858
23.60000,803
23.60833,751
23.61667,701
23.62500,654
23.63333,610
23.64167,568
23.65000,528
23.65833,491
23.66667,457
23.67500,424
23.68333,394
23.69167,366
23.70000,339
23.70833,315
23.71667,292
23.72500,271
23.73333,251
23.74167,233
23.75000,216
23.75833,201
23.76667,187
23.77500,174
23.78333,162
23.79167,151
23.80000,141
23.80833,132
23.81667,124
23.82500,116
23.83333,109
23.84167,103
23.85000,97
23.85833,92
23.86667,87
23.87500,82
23.88333,78
23.89167,74
23.90000,71
23.90833,68
23.91667,65
23.92500,62
23.93333,60
23.94167,57
23.95000,55
23.95833,54
23.96667,52
23.97500,51
23.98333,49
23.99167,48
24.00000,47
24.00833,45
24.01667,44
24.02500,43
24.03333,42
24.04167,41
24.05000,40
24.05833,40
24.06667,39
24.07500,38
24.08333,38
24.09167,37
24.10000,37
24.10833,36
24.11667,36
24.12500,35
24.13333,35
24.14167,35
24.15000,35
24.15833,34
24.16667,34
24.17500,34
24.18333,34
24.19167,34
24.20000,33
24.20833,33
24.21667,33
24.22500,32
24.23333,32
24.24167,32
24.25000,31
24.25833,31
24.26667,30
24.27500,31
24.28333,31
24.29167,31
24.30000,30
24.30833,30
24.31667,30
24.32500,29
24.33333,29
24.34167,29
24.35000,29
24.35833,30
24.36667,29
24.37500,29
24.38333,29
24.39167,29
24.40000,29
24.40833,29
24.41667,29
24.42500,29
24.43333,29
24.44167,29
24.45000,29
24.45833,29
24.46667,29
24.47500,29
24.48333,29
24.49167,29
24.50000,29
24.50833,30
24.51667,30
24.52500,30
24.53333,30
24.54167,31
24.55000,31
24.55833,32
24.56667,33
24.57500,33
24.58333,35
24.59167,36
24.60000,37
24.60833,39
24.61667,40
24.62500,42
24.63333,44
24.64167,47
24.65000,50
24.65833,53
24.66667,57
24.67500,61
24.68333,66
24.69167,72
24.70000,78
24.70833,85
24.71667,92
24.72500,101
24.73333,111
24.74167,121
24.75000,133
24.75833,146
24.76667,160
24.77500,175
24.78333,192
24.79167,211
24.80000,231
24.80833,253
24.81667,276
24.82500,301
24.83333,329
24.84167,359
24.85000,390
24.85833,423
24.86667,459
24.87500,497
24.88333,537
24.89167,579
24.90000,624
24.90833,671
24.91667,719
24.92500,770
24.93333,823
24.94167,878
24.95000,934
24.95833,992
24.96667,1052
24.97500,1113
24.98333,1175
24.99167,1237
25.00000,1300
25.00833,1364
25.01667,1428
25.02500,1491
25.03333,1555
25.04167,1618
25.05000,1679
25.05833,1740
25.06667,1799
25.07500,1856
25.08333,1912
25.09167,1965
25.10000,2016
25.10833,2064
25.11667,2108
25.12500,2149
25.13333,2186
25.14167,2219
25.15000,2249
25.15833,2274
25.16667,2295
25.17500,2313
25.18333,2326
25.19167,2335
25.20000,2339
25.20833,2339
25.21667,2335
25.22500,2326
25.23333,2314
25.24167,2296
25.25000,2275
25.25833,2250
25.26667,2222
25.27500,2190
25.28333,2155
25.29167,2116
25.30000,2075
25.30833,2031
25.31667,1985
25.32500,1936
25.33333,1886
25.34167,1834
25.35000,1780
25.35833,1726
25.36667,1670
25.37500,1614
25.38333,1557
25.39167,1500
25.40000,1443
25.40833,1386
25.41667,1329
25.42500,1272
25.43333,1216
25.44167,1161
25.45000,1107
25.45833,1055
25.46667,1004
25.47500,953
25.48333,904
25.49167,857
25.50000,811
25.50833,767
25.51667,724
25.52500,683
25.53333,643
25.54167,605
25.55000,569
25.55833,535
25.56667,503
25.57500,472
25.58333,443
25.59167,415
25.60000,388
25.60833,363
25.61667,339
25.62500,317
25.63333,296
25.64167,276
25.65000,258
25.65833,241
25.66667,225
25.67500,210
25.68333,196
25.69167,183
25.70000,171
25.70833,160
25.71667,149
25.72500,139
25.73333,131
25.74167,123
25.75000,115
25.75833,108
25.76667,102
25.77500,96
25.78333,91
25.79167,86
25.80000,81
25.80833,77
25.81667,73
25.82500,69
25.83333,66
25.84167,63
25.85000,60
25.85833,57
25.86667,55
25.87500,52
25.88333,51
25.89167,49
25.90000,47
25.90833,45
25.91667,44
25.92500,42
25.93333,41
25.94167,40
25.95000,39
25.95833,37
25.96667,36
25.97500,36
25.98333,35
25.99167,34
26.00000,34
26.00833,33
26.01667,32
26.02500,32
26.03333,31
26.04167,31
26.05000,31
26.05833,30
26.06667,30
26.07500,29
26.08333,29
26.09167,28
26.10000,28
26.10833,28
26.11667,28
26.12500,27
26.13333,27
26.14167,27
26.15000,26
26.15833,26
26.16667,26
26.17500,25
26.18333,25
26.19167,25
26.20000,25
26.20833,24
26.21667,24
26.22500,24
26.23333,24
26.24167,24
26.25000,24
26.25833,24
26.26667,23
26.27500,23
26.28333,23
26.29167,23
26.30000,23
26.30833,23
26.31667,23
26.32500,23
26.33333,23
26.34167,23
26.35000,22
26.35833,22
26.36667,22
26.37500,22
26.38333,22
26.39167,22
26.40000,22
26.40833,22
26.41667,22
26.42500,22
26.43333,22
26.44167,22
26.45000,22
26.45833,22
26.46667,22
26.47500,22
26.48333,22
26.49167,22
26.50000,22
26.50833,22
26.51667,22
26.52500,22
26.53333,21
26.54167,21
26.55000,21
26.55833,20
26.56667,20
26.57500,20
26.58333,20
26.59167,20
26.60000,20
26.60833,20
26.61667,20
26.62500,20
26.63333,21
26.64167,21
26.65000,20
26.65833,20
26.66667,21
26.67500,21
26.68333,21
26.69167,21
26.70000,21
26.70833,21
26.71667,21
26.72500,21
26.73333,21
26.74167,21
26.75000,21
26.75833,21
26.76667,21
26.77500,21
26.78333,21
26.79167,21
26.80000,21
26.80833,21
26.81667,21
26.82500,21
26.83333,21
26.84167,20
26.85000,20
26.85833,21
26.86667,21
26.87500,21
26.88333,21
26.89167,20
26.90000,20
26.90833,20
26.91667,20
26.92500,19
26.93333,19
26.94167,19
26.95000,19
26.95833,19
26.96667,19
26.97500,19
26.98333,20
26.99167,20
27.00000,19
27.00833,19
27.01667,20
27.02500,20
27.03333,19
27.04167,19
27.05000,19
27.05833,19
27.06667,19
27.07500,19
27.08333,19
27.09167,19
27.10000,19
27.10833,18
27.11667,18
27.12500,18
27.13333,18
27.14167,18
27.15000,18
27.15833,18
27.16667,18
27.17500,17
27.18333,17
27.19167,16
27.20000,16
27.20833,16
27.21667,16
27.22500,15
27.23333,15
27.24167,14
27.25000,13
27.25833,13
27.26667,12
27.27500,11
27.28333,10
27.29167,9
27.30000,8
27.30833,8
27.31667,7
27.32500,6
27.33333,4
27.34167,3
27.35000,2
27.35833,0
27.36667,-1
27.37500,-3
27.38333,-5
27.39167,-6
27.40000,-8
27.40833,-9
27.41667,-11
27.42500,-14
27.43333,-16
27.44167,-18
27.45000,-20
27.45833,-22
27.46667,-25
27.47500,-27
27.48333,-29
27.49167,-32
27.50000,-35
27.50833,-38
27.51667,-41
27.52500,-44
27.53333,-47
27.54167,-50
27.55000,-53
27.55833,-56
27.56667,-59
27.57500,-62
27.58333,-65
27.59167,-69
27.60000,-72
27.60833,-75
27.61667,-79
27.62500,-82
27.63333,-84
27.64167,-88
27.65000,-91
27.65833,-94
27.66667,-97
27.67500,-100
27.68333,-103
27.69167,-106
27.70000,-108
27.70833,-111
27.71667,-113
27.72500,-116
27.73333,-118
27.74167,-120
27.75000,-122
27.75833,-124
27.76667,-126
27.77500,-127
27.78333,-128
27.79167,-129
27.80000,-130
27.80833,-131
27.81667,-131
27.82500,-131
27.83333,-131
27.84167,-131
27.85000,-131
27.85833,-131
27.86667,-131
27.87500,-130
27.88333,-129
27.89167,-129
27.90000,-128
27.90833,-126
27.91667,-124
27.92500,-122
27.93333,-121
27.94167,-119
27.95000,-118
27.95833,-116
27.96667,-114
27.97500,-112
27.98333,-109
27.99167,-107
28.00000,-104
28.00833,-101
28.01667,-99
28.02500,-96
28.03333,-93
28.04167,-91
28.05000,-88
28.05833,-86
28.06667,-83
28.07500,-80
28.08333,-77
28.09167,-74
28.10000,-71
28.10833,-68
28.11667,-66
28.12500,-63
28.13333,-60
28.14167,-58
28.15000,-55
28.15833,-53
28.16667,-50
28.17500,-47
28.18333,-44
28.19167,-41
28.20000,-38
28.20833,-35
28.21667,-33
28.22500,-30
28.23333,-28
28.24167,-26
28.25000,-24
28.25833,-22
28.26667,-20
28.27500,-18
28.28333,-16
28.29167,-15
28.30000,-13
28.30833,-11
28.31667,-9
28.32500,-8
28.33333,-6
28.34167,-4
28.35000,-3
28.35833,-1
28.36667,-0
28.37500,0
28.38333,1
28.39167,2
28.40000,3
28.40833,4
28.41667,5
28.42500,6
28.43333,6
28.44167,7
28.45000,8
28.45833,8
28.46667,9
28.47500,9
28.48333,10
28.49167,10
28.50000,11
28.50833,11
28.51667,12
28.52500,12
28.53333,12
28.54167,12
28.55000,12
28.55833,13
28.56667,13
28.57500,13
28.58333,13
28.59167,13
28.60000,13
28.60833,13
28.61667,13
28.62500,13
28.63333,13
28.64167,13
28.65000,13
28.65833,13
28.66667,13
28.67500,12
28.68333,12
28.69167,12
28.70000,12
28.70833,12
28.71667,12
28.72500,12
28.73333,12
28.74167,12
28.75000,11
28.75833,11
28.76667,11
28.77500,11
28.78333,11
28.79167,10
28.80000,10
28.80833,10
28.81667,10
28.82500,10
28.83333,10
28.84167,10
28.85000,10
28.85833,10
28.86667,10
28.87500,10
28.88333,10
28.89167,11
28.90000,11
28.90833,10
28.91667,10
28.92500,10
28.93333,10
28.94167,9
28.95000,9
28.95833,9
28.96667,9
28.97500,9
28.98333,9
28.99167,9
29.00000,8
29.00833,8
29.01667,8
29.02500,8
29.03333,8
29.04167,8
29.05000,7
29.05833,7
29.06667,7
29.07500,6
29.08333,6
29.09167,5
29.10000,5
29.10833,5
29.11667,4
29.12500,4
29.13333,3
29.14167,3
29.15000,2
29.15833,1
29.16667,1
29.17500,-0
29.18333,-1
29.19167,-2
29.20000,-3
29.20833,-4
29.21667,-5
29.22500,-5
29.23333,-5
29.24167,-6
29.25000,-7
29.25833,-7
29.26667,-8
29.27500,-8
29.28333,-9
29.29167,-9
29.30000,-10
29.30833,-10
29.31667,-11
29.32500,-12
29.33333,-13
29.34167,-14
29.35000,-15
29.35833,-16
29.36667,-17
29.37500,-18
29.38333,-18
29.39167,-19
29.40000,-20
29.40833,-20
29.41667,-20
29.42500,-21
29.43333,-21
29.44167,-22
29.45000,-22
29.45833,-23
29.46667,-24
29.47500,-24
29.48333,-25
29.49167,-25
29.50000,-26
29.50833,-26
29.51667,-26
29.52500,-26
29.53333,-26
29.54167,-26
29.55000,-27
29.55833,-27
29.56667,-27
29.57500,-27
29.58333,-27
29.59167,-27
29.60000,-27
29.60833,-26
29.61667,-26
29.62500,-26
29.63333,-25
29.64167,-25
29.65000,-25
29.65833,-24
29.66667,-24
29.67500,-24
29.68333,-24
29.69167,-24
29.70000,-23
29.70833,-23
29.71667,-23
29.72500,-22
29.73333,-22
29.74167,-21
29.75000,-20
29.75833,-20
29.76667,-20
29.77500,-19
29.78333,-19
29.79167,-18
29.80000,-17
29.80833,-16
29.81667,-16
29.82500,-15
29.83333,-15
29.84167,-15
29.85000,-15
29.85833,-15
29.86667,-14
29.87500,-14
29.88333,-13
29.89167,-13
29.90000,-12
29.90833,-12
29.91667,-12
29.92500,-12
29.93333,-12
29.94167,-13
29.95000,-13
29.95833,-13
29.96667,-13
29.97500,-13
29.98333,-13
29.99167,-14
30.00000,-14
30.00833,-15
30.01667,-15
30.02500,-16
30.03333,-17
30.04167,-18
30.05000,-20
30.05833,-21
30.06667,-22
30.07500,-24
30.08333,-25
30.09167,-27
30.10000,-28
30.10833,-30
30.11667,-32
30.12500,-34
30.13333,-37
30.14167,-39
30.15000,-42
30.15833,-45
30.16667,-48
30.17500,-51
30.18333,-55
30.19167,-59
30.20000,-63
30.20833,-67
30.21667,-72
30.22500,-76
30.23333,-80
30.24167,-85
30.25000,-89
30.25833,-94
30.26667,-100
30.27500,-105
30.28333,-111
30.29167,-117
30.30000,-123
30.30833,-129
30.31667,-135
30.32500,-142
30.33333,-148
30.34167,-155
30.35000,-161
30.35833,-168
30.36667,-175
30.37500,-182
30.38333,-190
30.39167,-197
30.40000,-204
30.40833,-212
30.41667,-218
30.42500,-225
30.43333,-232
30.44167,-239
30.45000,-246
30.45833,-253
30.46667,-260
30.47500,-266
30.48333,-273
30.49167,-280
30.50000,-287
30.50833,-293
30.51667,-299
30.52500,-305
30.53333,-311
30.54167,-316
30.55000,-321
30.55833,-326
30.56667,-330
30.57500,-334
30.58333,-338
30.59167,-342
30.60000,-345
30.60833,-348
30.61667,-350
30.62500,-352
30.63333,-354
30.64167,-356
30.65000,-356
30.65833,-357
30.66667,-357
30.67500,-356
30.68333,-356
30.69167,-355
30.70000,-354
30.70833,-353
30.71667,-351
30.72500,-348
30.73333,-346
30.74167,-343
30.75000,-340
30.75833,-336
30.76667,-332
30.77500,-328
30.78333,-324
30.79167,-320
30.80000,-315
30.80833,-310
30.81667,-305
30.82500,-299
30.83333,-293
30.84167,-287
30.85000,-281
30.85833,-274
30.86667,-268
30.87500,-262
30.88333,-255
30.89167,-249
30.90000,-243
30.90833,-236
30.91667,-230
30.92500,-223
30.93333,-217
30.94167,-210
30.95000,-203
30.95833,-196
30.96667,-190
30.97500,-184
30.98333,-177
30.99167,-171
31.00000,-165
31.00833,-159
31.01667,-153
31.02500,-147
31.03333,-140
31.04167,-135
31.05000,-129
31.05833,-124
31.06667,-119
31.07500,-114
31.08333,-109
31.09167,-104
31.10000,-99
31.10833,-95
31.11667,-90
31.12500,-86
31.13333,-82
31.14167,-78
31.15000,-74
31.15833,-71
31.16667,-67
31.17500,-64
31.18333,-60
31.19167,-57
31.20000,-54
31.20833,-51
31.21667,-48
31.22500,-46
31.23333,-43
31.24167,-41
31.25000,-38
31.25833,-36
31.26667,-34
31.27500,-32
31.28333,-31
31.29167,-29
31.30000,-27
31.30833,-26
31.31667,-24
31.32500,-22
31.33333,-20
31.34167,-19
31.35000,-18
31.35833,-17
31.36667,-15
31.37500,-14
31.38333,-13
31.39167,-12
31.40000,-11
31.40833,-10
31.41667,-9
31.42500,-8
31.43333,-7
31.44167,-5
31.45000,-4
31.45833,-4
31.46667,-3
31.47500,-2
31.48333,-0
31.49167,1
31.50000,2
31.50833,3
31.51667,4
31.52500,6
31.53333,7
31.54167,9
31.55000,10
31.55833,12
31.56667,14
31.57500,16
31.58333,18
31.59167,20
31.60000,22
31.60833,24
31.61667,27
31.62500,30
31.63333,33
31.64167,37
31.65000,41
31.65833,45
31.66667,50
31.67500,55
31.68333,60
31.69167,65
31.70000,71
31.70833,77
31.71667,84
31.72500,91
31.73333,99
31.74167,107
31.75000,116
31.75833,125
31.76667,135
31.77500,146
31.78333,157
31.79167,169
31.80000,181
31.80833,194
31.81667,208
31.82500,223
31.83333,238
31.84167,254
31.85000,270
31.85833,288
31.86667,306
31.87500,325
31.88333,344
31.89167,365
31.90000,386
31.90833,407
31.91667,429
31.92500,452
31.93333,476
31.94167,500
31.95000,524
31.95833,548
31.96667,574
31.97500,599
31.98333,625
31.99167,652
32.00000,679
32.00833,706
32.01667,733
32.02500,760
32.03333,787
32.04167,814
32.05000,841
32.05833,867
32.06667,894
32.07500,920
32.08333,945
32.09167,970
32.10000,994
32.10833,1018
32.11667,1041
32.12500,1063
32.13333,1084
32.14167,1104
32.15000,1123
32.15833,1142
32.16667,1158
32.17500,1174
32.18333,1189
32.19167,1202
32.20000,1214
32.20833,1224
32.21667,1233
32.22500,1241
32.23333,1247
32.24167,1252
32.25000,1255
32.25833,1257
32.26667,1257
32.27500,1255
32.28333,1252
32.29167,1248
32.30000,1243
32.30833,1236
32.31667,1228
32.32500,1218
32.33333,1208
32.34167,1195
32.35000,1182
32.35833,1167
32.36667,1152
32.37500,1135
32.38333,1117
32.39167,1098
32.40000,1079
32.40833,1058
32.41667,1037
32.42500,1015
32.43333,993
32.44167,970
32.45000,946
32.45833,922
32.46667,898
32.47500,874
32.48333,849
32.49167,823
32.50000,799
32.50833,774
32.51667,749
32.52500,725
32.53333,700
32.54167,675
32.55000,651
32.55833,627
32.56667,604
32.57500,580
32.58333,558
32.59167,535
32.60000,513
32.60833,491
32.61667,470
32.62500,449
32.63333,429
32.64167,409
32.65000,390
32.65833,372
32.66667,354
32.67500,337
32.68333,320
32.69167,304
32.70000,289
32.70833,274
32.71667,259
32.72500,246
32.73333,233
32.74167,220
32.75000,209
32.75833,197
32.76667,186
32.77500,176
32.78333,166
32.79167,157
32.80000,149
32.80833,140
32.81667,132
32.82500,124
32.83333,117
32.84167,110
32.85000,103
32.85833,97
32.86667,92
32.87500,86
32.88333,81
32.89167,76
32.90000,72
32.90833,68
32.91667,64
32.92500,60
32.93333,56
32.94167,54
32.95000,51
32.95833,48
32.96667,45
32.97500,42
32.98333,40
32.99167,38
33.00000,36
33.00833,34
33.01667,32
33.02500,30
33.03333,29
33.04167,27
33.05000,26
33.05833,26
33.06667,25
33.07500,24
33.08333,23
33.09167,22
33.10000,21
33.10833,20
33.11667,19
33.12500,18
33.13333,18
33.14167,17
33.15000,17
33.15833,16
33.16667,15
33.17500,14
33.18333,13
33.19167,13
33.20000,12
33.20833,12
33.21667,11
33.22500,11
33.23333,10
33.24167,10
33.25000,9
33.25833,9
33.26667,8
33.27500,8
33.28333,7
33.29167,6
33.30000,6
33.30833,6
33.31667,6
33.32500,5
33.33333,4
33.34167,4
33.35000,3
33.35833,2
33.36667,2
33.37500,1
33.38333,0
33.39167,-0
33.40000,-0
33.40833,-1
33.41667,-1
33.42500,-2
33.43333,-3
33.44167,-4
33.45000,-4
33.45833,-4
33.46667,-4
33.47500,-6
33.48333,-7
33.49167,-8
33.50000,-8
33.50833,-9
33.51667,-10
33.52500,-11
33.53333,-11
33.54167,-12
33.55000,-12
33.55833,-13
33.56667,-13
33.57500,-14
33.58333,-14
33.59167,-15
33.60000,-15
33.60833,-16
33.61667,-17
33.62500,-18
33.63333,-18
33.64167,-18
33.65000,-19
33.65833,-20
33.66667,-20
33.67500,-21
33.68333,-21
33.69167,-21
33.70000,-22
33.70833,-22
33.71667,-22
33.72500,-23
33.73333,-23
33.74167,-23
33.75000,-23
33.75833,-23
33.76667,-22
33.77500,-22
33.78333,-22
33.79167,-22
33.80000,-22
33.80833,-22
33.81667,-22
33.82500,-22
33.83333,-22
33.84167,-22
33.85000,-22
33.85833,-21
33.86667,-21
33.87500,-21
33.88333,-21
33.89167,-20
33.90000,-20
33.90833,-19
33.91667,-19
33.92500,-19
33.93333,-18
33.94167,-18
33.95000,-17
33.95833,-16
33.96667,-16
33.97500,-15
33.98333,-15
33.99167,-14
34.00000,-14
34.00833,-14
34.01667,-13
34.02500,-12
34.03333,-11
34.04167,-10
34.05000,-10
34.05833,-9
34.06667,-9
34.07500,-9
34.08333,-8
34.09167,-8
34.10000,-7
34.10833,-7
34.11667,-6
34.12500,-5
34.13333,-5
34.14167,-5
34.15000,-4
34.15833,-4
34.16667,-3
34.17500,-3
34.18333,-2
34.19167,-1
34.20000,-1
34.20833,-1
34.21667,-1
34.22500,-1
34.23333,-0
34.24167,0
34.25000,1
34.25833,1
34.26667,1
34.27500,1
34.28333,2
34.29167,2
34.30000,2
34.30833,2
34.31667,2
34.32500,2
34.33333,3
34.34167,3
34.35000,3
34.35833,3
34.36667,3
34.37500,4
34.38333,4
34.39167,4
34.40000,4
34.40833,4
34.41667,4
34.42500,4
34.43333,4
34.44167,4
34.45000,4
34.45833,4
34.46667,4
34.47500,4
34.48333,5
34.49167,5
34.50000,5
34.50833,5
34.51667,5
34.52500,5
34.53333,5
34.54167,5
34.55000,5
34.55833,5
34.56667,5
34.57500,4
34.58333,4
34.59167,5
34.60000,5
34.60833,5
34.61667,5
34.62500,5
34.63333,5
34.64167,5
34.65000,5
34.65833,5
34.66667,5
34.67500,5
34.68333,5
34.69167,5
34.70000,5
34.70833,4
34.71667,4
34.72500,4
34.73333,5
34.74167,5
34.75000,5
34.75833,5
34.76667,5
34.77500,5
34.78333,5
34.79167,5
34.80000,5
34.80833,5
34.81667,5
34.82500,5
34.83333,5
34.84167,5
34.85000,5
34.85833,5
34.86667,4
34.87500,4
34.88333,4
34.89167,4
34.90000,4
34.90833,4
34.91667,4
34.92500,4
34.93333,4
34.94167,4
34.95000,5
34.95833,4
34.96667,4
34.97500,4
34.98333,4
34.99167,4
35.00000,4
35.00833,4
35.01667,4
35.02500,4
35.03333,4
35.04167,4
35.05000,4
35.05833,5
35.06667,5
35.07500,5
35.08333,5
35.09167,5
35.10000,4
35.10833,4
35.11667,4
35.12500,5
35.13333,5
35.14167,5
35.15000,5
35.15833,5
35.16667,5
35.17500,5
35.18333,5
35.19167,5
35.20000,4
35.20833,4
35.21667,4
35.22500,4
35.23333,4
35.24167,5
35.25000,5
35.25833,5
35.26667,5
35.27500,5
35.28333,5
35.29167,5
35.30000,5
35.30833,4
35.31667,4
35.32500,4
35.33333,4
35.34167,4
35.35000,4
35.35833,4
35.36667,5
35.37500,5
35.38333,5
35.39167,4
35.40000,4
35.40833,4
35.41667,4
35.42500,5
35.43333,5
35.44167,4
35.45000,4
35.45833,5
35.46667,5
35.47500,5
35.48333,6
35.49167,6
35.50000,6
35.50833,6
35.51667,5
35.52500,5
35.53333,5
35.54167,5
35.55000,5
35.55833,5
35.56667,5
35.57500,5
35.58333,5
35.59167,5
35.60000,5
35.60833,5
35.61667,4
35.62500,4
35.63333,4
35.64167,4
35.65000,4
35.65833,5
35.66667,5
35.67500,5
35.68333,6
35.69167,6
35.70000,6
35.70833,5
35.71667,5
35.72500,5
35.73333,5
35.74167,5
35.75000,5
35.75833,5
35.76667,5
35.77500,5
35.78333,4
35.79167,4
35.80000,5
35.80833,5
35.81667,5
35.82500,5
35.83333,5
35.84167,5
35.85000,6
35.85833,6
35.86667,5
35.87500,5
35.88333,5
35.89167,5
35.90000,4
35.90833,4
35.91667,4
35.92500,4
35.93333,4
35.94167,4
35.95000,4
35.95833,4
35.96667,5
35.97500,5
35.98333,5
35.99167,5
36.00000,5
36.00833,5
36.01667,5
36.02500,5
36.03333,5
36.04167,6
36.05000,5
36.05833,5
36.06667,5
36.07500,5
36.08333,6
36.09167,6
36.10000,6
36.10833,6
36.11667,6
36.12500,6
36.13333,6
36.14167,6
36.15000,5
36.15833,5
36.16667,5
36.17500,5
36.18333,5
36.19167,5
36.20000,5
36.20833,5
36.21667,5
36.22500,5
36.23333,5
36.24167,5
36.25000,5
36.25833,6
36.26667,6
36.27500,6
36.28333,6
36.29167,6
36.30000,6
36.30833,6
36.31667,7
36.32500,7
36.33333,7
36.34167,7
36.35000,7
36.35833,7
36.36667,7
36.37500,7
36.38333,7
36.39167,7
36.40000,7
36.40833,7
36.41667,8
36.42500,8
36.43333,8
36.44167,8
36.45000,8
36.45833,8
36.46667,8
36.47500,8
36.48333,8
36.49167,8
36.50000,8
36.50833,8
36.51667,8
36.52500,9
36.53333,9
36.54167,9
36.55000,9
36.55833,8
36.56667,9
36.57500,9
36.58333,9
36.59167,9
36.60000,9
36.60833,9
36.61667,9
36.62500,9
36.63333,9
36.64167,9
36.65000,10
36.65833,10
36.66667,10
36.67500,10
36.68333,11
36.69167,11
36.70000,11
36.70833,11
36.71667,12
36.72500,12
36.73333,12
36.74167,13
36.75000,13
36.75833,13
36.76667,12
36.77500,12
36.78333,12
36.79167,12
36.80000,13
36.80833,13
36.81667,13
36.82500,13
36.83333,13
36.84167,13
36.85000,13
36.85833,13
36.86667,13
36.87500,12
36.88333,13
36.89167,13
36.90000,13
36.90833,13
36.91667,13
36.92500,13
36.93333,14
36.94167,14
36.95000,14
36.95833,14
36.96667,14
36.97500,14
36.98333,14
36.99167,14
37.00000,14
37.00833,15
37.01667,15
37.02500,15
37.03333,15
37.04167,15
37.05000,15
37.05833,15
37.06667,15
37.07500,16
37.08333,16
37.09167,16
37.10000,16
37.10833,16
37.11667,16
37.12500,17
37.13333,17
37.14167,17
37.15000,17
37.15833,17
37.16667,17
37.17500,18
37.18333,18
37.19167,19
37.20000,19
37.20833,19
37.21667,19
37.22500,18
37.23333,18
37.24167,18
37.25000,18
37.25833,18
37.26667,19
37.27500,19
37.28333,19
37.29167,19
37.30000,19
37.30833,19
37.31667,18
37.32500,18
37.33333,19
37.34167,19
37.35000,19
37.35833,20
37.36667,20
37.37500,20
37.38333,20
37.39167,21
37.40000,21
37.40833,21
37.41667,21
37.42500,21
37.43333,21
37.44167,21
37.45000,22
37.45833,22
37.46667,22
37.47500,23
37.48333,23
37.49167,24
37.50000,24
37.50833,24
37.51667,24
37.52500,24
37.53333,24
37.54167,23
37.55000,23
37.55833,23
37.56667,23
37.57500,23
37.58333,23
37.59167,24
37.60000,24
37.60833,24
37.61667,24
37.62500,24
37.63333,24
37.64167,24
37.65000,24
37.65833,24
37.66667,24
37.67500,24
37.68333,24
37.69167,25
37.70000,25
37.70833,25
37.71667,26
37.72500,26
37.73333,26
37.74167,26
37.75000,26
37.75833,26
37.76667,26
37.77500,26
37.78333,26
37.79167,26
37.80000,26
37.80833,26
37.81667,26
37.82500,27
37.83333,27
37.84167,27
37.85000,27
37.85833,27
37.86667,26
37.87500,26
37.88333,26
37.89167,26
37.90000,26
37.90833,26
37.91667,26
37.92500,26
37.93333,26
37.94167,26
37.95000,26
37.95833,26
37.96667,26
37.97500,26
37.98333,26
37.99167,26
38.00000,26
38.00833,26
38.01667,25
38.02500,25
38.03333,25
38.04167,25
38.05000,25
38.05833,25
38.06667,25
38.07500,25
38.08333,25
38.09167,25
38.10000,25
38.10833,25
38.11667,25
38.12500,25
38.13333,25
38.14167,25
38.15000,24
38.15833,24
38.16667,24
38.17500,24
38.18333,24
38.19167,24
38.20000,24
38.20833,24
38.21667,24
38.22500,24
38.23333,24
38.24167,23
38.25000,23
38.25833,23
38.26667,23
38.27500,23
38.28333,23
38.29167,23
38.30000,22
38.30833,22
38.31667,22
38.32500,21
38.33333,21
38.34167,20
38.35000,20
38.35833,20
38.36667,20
38.37500,20
38.38333,20
38.39167,20
38.40000,20
38.40833,19
38.41667,19
38.42500,18
38.43333,18
38.44167,18
38.45000,18
38.45833,18
38.46667,18
38.47500,18
38.48333,18
38.49167,18
38.50000,18
38.50833,18
38.51667,18
38.52500,18
38.53333,18
38.54167,18
38.55000,17
38.55833,17
38.56667,17
38.57500,17
38.58333,16
38.59167,16
38.60000,16
38.60833,15
38.61667,15
38.62500,14
38.63333,14
38.64167,13
38.65000,13
38.65833,13
38.66667,13
38.67500,12
38.68333,13
38.69167,13
38.70000,13
38.70833,12
38.71667,12
38.72500,11
38.73333,11
38.74167,11
38.75000,11
38.75833,11
38.76667,11
38.77500,11
38.78333,11
38.79167,11
38.80000,10
38.80833,10
38.81667,9
38.82500,9
38.83333,9
38.84167,9
38.85000,9
38.85833,8
38.86667,8
38.87500,8
38.88333,8
38.89167,8
38.90000,8
38.90833,8
38.91667,7
38.92500,7
38.93333,7
38.94167,7
38.95000,7
38.95833,7
38.96667,6
38.97500,5
38.98333,5
38.99167,5
39.00000,4
39.00833,4
39.01667,4
39.02500,4
39.03333,4
39.04167,4
39.05000,5
39.05833,5
39.06667,5
39.07500,5
39.08333,5
39.09167,4
39.10000,4
39.10833,3
39.11667,3
39.12500,3
39.13333,3
39.14167,3
39.15000,3
39.15833,3
39.16667,3
39.17500,3
39.18333,3
39.19167,3
39.20000,3
39.20833,3
39.21667,3
39.22500,3
39.23333,3
39.24167,3
39.25000,2
39.25833,2
39.26667,1
39.27500,1
39.28333,1
39.29167,1
39.30000,1
39.30833,1
39.31667,1
39.32500,0
39.33333,0
39.34167,0
39.35000,0
39.35833,-0
39.36667,-0
39.37500,0
39.38333,0
39.39167,0
39.40000,1
39.40833,1
39.41667,1
39.42500,1
39.43333,1
39.44167,0
39.45000,0
39.45833,0
39.46667,0
39.47500,0
39.48333,0
39.49167,0
39.50000,0
39.50833,0
39.51667,-0
39.52500,-0
39.53333,-0
39.54167,-0
39.55000,-0
39.55833,-0
39.56667,-0
39.57500,-0
39.58333,-1
39.59167,-1
39.60000,-1
39.60833,-1
39.61667,-1
39.62500,-0
39.63333,-0
39.64167,0
39.65000,-0
39.65833,-0
39.66667,-0
39.67500,-0
39.68333,-0
39.69167,-0
39.70000,-0
39.70833,-0
39.71667,-0
39.72500,-0
39.73333,-0
39.74167,-1
39.75000,-1
39.75833,-1
39.76667,-1
39.77500,-1
39.78333,-1
39.79167,-1
39.80000,-1
39.80833,-1
39.81667,-1
39.82500,-1
39.83333,-1
39.84167,-1
39.85000,-1
39.85833,-1
39.86667,-1
39.87500,-1
39.88333,-1
39.89167,-1
39.90000,-1
39.90833,-1
39.91667,-2
39.92500,-2
39.93333,-2
39.94167,-2
39.95000,-3
39.95833,-3
39.96667,-3
39.97500,-2
39.98333,-2
39.99167,-2
40.00000,-2

