File Path	chrom://marshall/Chromeleon7/HPLC_Ultimate_3000/Users/markusar/20230610_CMO_FP11_FP12.seq/365.smp/RI_1.channel/RI_1.chm
Channel	RI_1

Injection Information:
Data Vault	Chromeleon7
Injection	FP11_7_S1
Injection Number	2
Position	BA1
Comment	
Processing Method	
Instrument Method	run_25B_method
Type	Unknown
Status	Finished
Injection Date	10.06.2023
Injection Time	19:24:50
Injection Volume (µl)	20.000
Dilution Factor	1.0000
Weight	1.0000

Chromatogram Data Information:
Time Min. (min)	0.000000
Time Max. (min)	40.000000
Data Points	2401
Detector	RI
Generating Data System	Chromeleon 7.2.5.9507
Exporting Data System	Chromeleon 7.2.5.0
Operator	Instrument Controller
Signal Quantity	Refractive 
Signal Unit	µRIU
Signal Min.	-1.369500
Signal Max.	48.819250
Channel	RI_1
Driver Name	RID520Driver.dll
Channel Type	Evaluation
Min. Step (s)	1
Max. Step (s)	1
Average Step (s)	1

Signal Parameter Information:
Signal Info	

Chromatogram Data:
Time (min)	Step (s)	Value (µRIU)
0.000000	n.a.	-0.013750
0.016667	1	-0.014875
0.033333	1	-0.015750
0.050000	1	-0.016625
0.066667	1	-0.017125
0.083333	1	-0.017125
0.100000	1	-0.017000
0.116667	1	-0.017500
0.133333	1	-0.018375
0.150000	1	-0.018875
0.166667	1	-0.019625
0.183333	1	-0.020250
0.200000	1	-0.021000
0.216667	1	-0.021375
0.233333	1	-0.021750
0.250000	1	-0.022375
0.266667	1	-0.022875
0.283333	1	-0.023125
0.300000	1	-0.022875
0.316667	1	-0.024750
0.333333	1	-0.027125
0.350000	1	-0.030375
0.366667	1	-0.033500
0.383333	1	-0.035000
0.400000	1	-0.033875
0.416667	1	-0.031125
0.433333	1	-0.028000
0.450000	1	-0.025000
0.466667	1	-0.022000
0.483333	1	-0.020125
0.500000	1	-0.018875
0.516667	1	-0.016875
0.533333	1	-0.015875
0.550000	1	-0.016250
0.566667	1	-0.017875
0.583333	1	-0.020625
0.600000	1	-0.023250
0.616667	1	-0.025125
0.633333	1	-0.026500
0.650000	1	-0.028000
0.666667	1	-0.028500
0.683333	1	-0.029750
0.700000	1	-0.031000
0.716667	1	-0.032000
0.733333	1	-0.032500
0.750000	1	-0.033375
0.766667	1	-0.033625
0.783333	1	-0.034000
0.800000	1	-0.034750
0.816667	1	-0.035375
0.833333	1	-0.035375
0.850000	1	-0.035875
0.866667	1	-0.035625
0.883333	1	-0.035500
0.900000	1	-0.035875
0.916667	1	-0.036250
0.933333	1	-0.037125
0.950000	1	-0.037500
0.966667	1	-0.037875
0.983333	1	-0.037875
1.000000	1	-0.038250
1.016667	1	-0.038500
1.033333	1	-0.039125
1.050000	1	-0.039250
1.066667	1	-0.039625
1.083333	1	-0.040000
1.100000	1	-0.039875
1.116667	1	-0.040375
1.133333	1	-0.040750
1.150000	1	-0.041625
1.166667	1	-0.041750
1.183333	1	-0.042375
1.200000	1	-0.043000
1.216667	1	-0.043625
1.233333	1	-0.043625
1.250000	1	-0.044375
1.266667	1	-0.044875
1.283333	1	-0.044875
1.300000	1	-0.045250
1.316667	1	-0.045875
1.333333	1	-0.046375
1.350000	1	-0.046875
1.366667	1	-0.047000
1.383333	1	-0.047125
1.400000	1	-0.047500
1.416667	1	-0.047500
1.433333	1	-0.047250
1.450000	1	-0.047375
1.466667	1	-0.047750
1.483333	1	-0.047750
1.500000	1	-0.047875
1.516667	1	-0.048250
1.533333	1	-0.048750
1.550000	1	-0.049125
1.566667	1	-0.049500
1.583333	1	-0.050125
1.600000	1	-0.050000
1.616667	1	-0.050125
1.633333	1	-0.050125
1.650000	1	-0.050500
1.666667	1	-0.051125
1.683333	1	-0.051125
1.700000	1	-0.051250
1.716667	1	-0.052000
1.733333	1	-0.052875
1.750000	1	-0.053500
1.766667	1	-0.053750
1.783333	1	-0.054625
1.800000	1	-0.055000
1.816667	1	-0.055125
1.833333	1	-0.055000
1.850000	1	-0.055125
1.866667	1	-0.055500
1.883333	1	-0.056250
1.900000	1	-0.056625
1.916667	1	-0.057250
1.933333	1	-0.057250
1.950000	1	-0.057375
1.966667	1	-0.058625
1.983333	1	-0.058875
2.000000	1	-0.059125
2.016667	1	-0.059500
2.033333	1	-0.059250
2.050000	1	-0.060000
2.066667	1	-0.060000
2.083333	1	-0.059500
2.100000	1	-0.059875
2.116667	1	-0.060125
2.133333	1	-0.060875
2.150000	1	-0.061125
2.166667	1	-0.060875
2.183333	1	-0.061125
2.200000	1	-0.061625
2.216667	1	-0.062250
2.233333	1	-0.061625
2.250000	1	-0.062125
2.266667	1	-0.062375
2.283333	1	-0.062000
2.300000	1	-0.062875
2.316667	1	-0.062375
2.333333	1	-0.062125
2.350000	1	-0.061250
2.366667	1	-0.060750
2.383333	1	-0.061000
2.400000	1	-0.060875
2.416667	1	-0.060500
2.433333	1	-0.059500
2.450000	1	-0.058875
2.466667	1	-0.058375
2.483333	1	-0.058500
2.500000	1	-0.058375
2.516667	1	-0.058625
2.533333	1	-0.058500
2.550000	1	-0.058625
2.566667	1	-0.058250
2.583333	1	-0.057750
2.600000	1	-0.057250
2.616667	1	-0.057125
2.633333	1	-0.057125
2.650000	1	-0.056875
2.666667	1	-0.056500
2.683333	1	-0.056500
2.700000	1	-0.056500
2.716667	1	-0.056125
2.733333	1	-0.055875
2.750000	1	-0.056625
2.766667	1	-0.057000
2.783333	1	-0.056750
2.800000	1	-0.056125
2.816667	1	-0.056125
2.833333	1	-0.056750
2.850000	1	-0.057000
2.866667	1	-0.057250
2.883333	1	-0.057500
2.900000	1	-0.058125
2.916667	1	-0.058500
2.933333	1	-0.058625
2.950000	1	-0.058375
2.966667	1	-0.058250
2.983333	1	-0.057875
3.000000	1	-0.058000
3.016667	1	-0.057875
3.033333	1	-0.058125
3.050000	1	-0.058000
3.066667	1	-0.058375
3.083333	1	-0.058625
3.100000	1	-0.059125
3.116667	1	-0.059500
3.133333	1	-0.060000
3.150000	1	-0.060375
3.166667	1	-0.060500
3.183333	1	-0.060750
3.200000	1	-0.060750
3.216667	1	-0.060625
3.233333	1	-0.060625
3.250000	1	-0.060750
3.266667	1	-0.061500
3.283333	1	-0.061500
3.300000	1	-0.061500
3.316667	1	-0.061500
3.333333	1	-0.061875
3.350000	1	-0.062625
3.366667	1	-0.062500
3.383333	1	-0.062875
3.400000	1	-0.063000
3.416667	1	-0.063375
3.433333	1	-0.063375
3.450000	1	-0.063250
3.466667	1	-0.063250
3.483333	1	-0.062875
3.500000	1	-0.062875
3.516667	1	-0.062500
3.533333	1	-0.062250
3.550000	1	-0.062500
3.566667	1	-0.062000
3.583333	1	-0.061625
3.600000	1	-0.061000
3.616667	1	-0.061000
3.633333	1	-0.060625
3.650000	1	-0.060125
3.666667	1	-0.060000
3.683333	1	-0.059375
3.700000	1	-0.058750
3.716667	1	-0.058125
3.733333	1	-0.057625
3.750000	1	-0.057000
3.766667	1	-0.056125
3.783333	1	-0.055750
3.800000	1	-0.054875
3.816667	1	-0.054500
3.833333	1	-0.054000
3.850000	1	-0.052750
3.866667	1	-0.052750
3.883333	1	-0.052250
3.900000	1	-0.051625
3.916667	1	-0.051125
3.933333	1	-0.050750
3.950000	1	-0.050375
3.966667	1	-0.050375
3.983333	1	-0.049375
4.000000	1	-0.048500
4.016667	1	-0.048250
4.033333	1	-0.047625
4.050000	1	-0.046875
4.066667	1	-0.046625
4.083333	1	-0.046375
4.100000	1	-0.046250
4.116667	1	-0.045375
4.133333	1	-0.044375
4.150000	1	-0.044875
4.166667	1	-0.044375
4.183333	1	-0.043875
4.200000	1	-0.043375
4.216667	1	-0.042750
4.233333	1	-0.041500
4.250000	1	-0.041375
4.266667	1	-0.041875
4.283333	1	-0.041500
4.300000	1	-0.040500
4.316667	1	-0.040000
4.333333	1	-0.040000
4.350000	1	-0.039625
4.366667	1	-0.039375
4.383333	1	-0.039250
4.400000	1	-0.039000
4.416667	1	-0.038375
4.433333	1	-0.038375
4.450000	1	-0.038250
4.466667	1	-0.038875
4.483333	1	-0.039000
4.500000	1	-0.039000
4.516667	1	-0.039500
4.533333	1	-0.039375
4.550000	1	-0.039500
4.566667	1	-0.039875
4.583333	1	-0.040625
4.600000	1	-0.040750
4.616667	1	-0.040125
4.633333	1	-0.040375
4.650000	1	-0.041750
4.666667	1	-0.042500
4.683333	1	-0.043250
4.700000	1	-0.044500
4.716667	1	-0.046125
4.733333	1	-0.047375
4.750000	1	-0.047500
4.766667	1	-0.048500
4.783333	1	-0.049250
4.800000	1	-0.049875
4.816667	1	-0.051125
4.833333	1	-0.051875
4.850000	1	-0.053125
4.866667	1	-0.054625
4.883333	1	-0.056000
4.900000	1	-0.057000
4.916667	1	-0.058125
4.933333	1	-0.058750
4.950000	1	-0.060750
4.966667	1	-0.061500
4.983333	1	-0.062750
5.000000	1	-0.063750
5.016667	1	-0.065250
5.033333	1	-0.066750
5.050000	1	-0.067625
5.066667	1	-0.069250
5.083333	1	-0.070375
5.100000	1	-0.071250
5.116667	1	-0.072500
5.133333	1	-0.073125
5.150000	1	-0.074625
5.166667	1	-0.075625
5.183333	1	-0.076750
5.200000	1	-0.077750
5.216667	1	-0.078875
5.233333	1	-0.079875
5.250000	1	-0.081000
5.266667	1	-0.082625
5.283333	1	-0.084125
5.300000	1	-0.084625
5.316667	1	-0.085375
5.333333	1	-0.086250
5.350000	1	-0.087000
5.366667	1	-0.087500
5.383333	1	-0.088375
5.400000	1	-0.088750
5.416667	1	-0.089625
5.433333	1	-0.090375
5.450000	1	-0.090875
5.466667	1	-0.091750
5.483333	1	-0.092250
5.500000	1	-0.093125
5.516667	1	-0.093500
5.533333	1	-0.093500
5.550000	1	-0.093375
5.566667	1	-0.093375
5.583333	1	-0.093375
5.600000	1	-0.093750
5.616667	1	-0.093750
5.633333	1	-0.093750
5.650000	1	-0.094000
5.666667	1	-0.094125
5.683333	1	-0.094125
5.700000	1	-0.093625
5.716667	1	-0.093125
5.733333	1	-0.092625
5.750000	1	-0.092500
5.766667	1	-0.092125
5.783333	1	-0.091375
5.800000	1	-0.091000
5.816667	1	-0.090000
5.833333	1	-0.089375
5.850000	1	-0.088875
5.866667	1	-0.088625
5.883333	1	-0.087250
5.900000	1	-0.086625
5.916667	1	-0.085500
5.933333	1	-0.084750
5.950000	1	-0.083375
5.966667	1	-0.082250
5.983333	1	-0.080750
6.000000	1	-0.079500
6.016667	1	-0.078375
6.033333	1	-0.077375
6.050000	1	-0.076875
6.066667	1	-0.075500
6.083333	1	-0.074125
6.100000	1	-0.073500
6.116667	1	-0.072750
6.133333	1	-0.071750
6.150000	1	-0.070875
6.166667	1	-0.070875
6.183333	1	-0.069625
6.200000	1	-0.068375
6.216667	1	-0.067375
6.233333	1	-0.066625
6.250000	1	-0.066000
6.266667	1	-0.066250
6.283333	1	-0.066250
6.300000	1	-0.066500
6.316667	1	-0.065875
6.333333	1	-0.065375
6.350000	1	-0.065125
6.366667	1	-0.064750
6.383333	1	-0.064750
6.400000	1	-0.064625
6.416667	1	-0.065375
6.433333	1	-0.065875
6.450000	1	-0.066375
6.466667	1	-0.067375
6.483333	1	-0.067500
6.500000	1	-0.068375
6.516667	1	-0.068500
6.533333	1	-0.069375
6.550000	1	-0.070125
6.566667	1	-0.071125
6.583333	1	-0.071250
6.600000	1	-0.072750
6.616667	1	-0.073500
6.633333	1	-0.074875
6.650000	1	-0.076250
6.666667	1	-0.076875
6.683333	1	-0.078125
6.700000	1	-0.078750
6.716667	1	-0.080375
6.733333	1	-0.080875
6.750000	1	-0.082125
6.766667	1	-0.083500
6.783333	1	-0.084750
6.800000	1	-0.085625
6.816667	1	-0.086750
6.833333	1	-0.088125
6.850000	1	-0.089500
6.866667	1	-0.089875
6.883333	1	-0.091000
6.900000	1	-0.091750
6.916667	1	-0.093250
6.933333	1	-0.094750
6.950000	1	-0.095500
6.966667	1	-0.096000
6.983333	1	-0.097000
7.000000	1	-0.098500
7.016667	1	-0.099125
7.033333	1	-0.099500
7.050000	1	-0.100500
7.066667	1	-0.101875
7.083333	1	-0.102500
7.100000	1	-0.102625
7.116667	1	-0.103500
7.133333	1	-0.104625
7.150000	1	-0.105125
7.166667	1	-0.105875
7.183333	1	-0.106750
7.200000	1	-0.106750
7.216667	1	-0.107125
7.233333	1	-0.106875
7.250000	1	-0.107625
7.266667	1	-0.107500
7.283333	1	-0.107375
7.300000	1	-0.107500
7.316667	1	-0.107000
7.333333	1	-0.106625
7.350000	1	-0.106500
7.366667	1	-0.106000
7.383333	1	-0.106000
7.400000	1	-0.105750
7.416667	1	-0.105500
7.433333	1	-0.105250
7.450000	1	-0.103750
7.466667	1	-0.103125
7.483333	1	-0.101875
7.500000	1	-0.101250
7.516667	1	-0.100500
7.533333	1	-0.099625
7.550000	1	-0.098750
7.566667	1	-0.097375
7.583333	1	-0.097000
7.600000	1	-0.096125
7.616667	1	-0.094875
7.633333	1	-0.093875
7.650000	1	-0.092375
7.666667	1	-0.091500
7.683333	1	-0.090375
7.700000	1	-0.089750
7.716667	1	-0.088500
7.733333	1	-0.087000
7.750000	1	-0.086125
7.766667	1	-0.084625
7.783333	1	-0.083875
7.800000	1	-0.083125
7.816667	1	-0.082125
7.833333	1	-0.081375
7.850000	1	-0.081375
7.866667	1	-0.080500
7.883333	1	-0.079875
7.900000	1	-0.078750
7.916667	1	-0.078125
7.933333	1	-0.077875
7.950000	1	-0.077000
7.966667	1	-0.076125
7.983333	1	-0.075625
8.000000	1	-0.075750
8.016667	1	-0.075625
8.033333	1	-0.075000
8.050000	1	-0.074875
8.066667	1	-0.075125
8.083333	1	-0.075125
8.100000	1	-0.074625
8.116667	1	-0.074875
8.133333	1	-0.075250
8.150000	1	-0.074625
8.166667	1	-0.074625
8.183333	1	-0.074875
8.200000	1	-0.074750
8.216667	1	-0.074875
8.233333	1	-0.075125
8.250000	1	-0.075250
8.266667	1	-0.075500
8.283333	1	-0.075750
8.300000	1	-0.075750
8.316667	1	-0.075750
8.333333	1	-0.076000
8.350000	1	-0.076000
8.366667	1	-0.076625
8.383333	1	-0.077500
8.400000	1	-0.078000
8.416667	1	-0.078500
8.433333	1	-0.078375
8.450000	1	-0.079250
8.466667	1	-0.080000
8.483333	1	-0.080375
8.500000	1	-0.080875
8.516667	1	-0.081500
8.533333	1	-0.081500
8.550000	1	-0.081625
8.566667	1	-0.081625
8.583333	1	-0.082125
8.600000	1	-0.082625
8.616667	1	-0.083500
8.633333	1	-0.083500
8.650000	1	-0.084500
8.666667	1	-0.085000
8.683333	1	-0.085250
8.700000	1	-0.085875
8.716667	1	-0.086375
8.733333	1	-0.086750
8.750000	1	-0.086875
8.766667	1	-0.087500
8.783333	1	-0.087750
8.800000	1	-0.088500
8.816667	1	-0.089375
8.833333	1	-0.090000
8.850000	1	-0.090125
8.866667	1	-0.090750
8.883333	1	-0.091250
8.900000	1	-0.091500
8.916667	1	-0.091750
8.933333	1	-0.092125
8.950000	1	-0.092000
8.966667	1	-0.091875
8.983333	1	-0.091625
9.000000	1	-0.091125
9.016667	1	-0.091250
9.033333	1	-0.091375
9.050000	1	-0.091125
9.066667	1	-0.091125
9.083333	1	-0.090875
9.100000	1	-0.090000
9.116667	1	-0.089750
9.133333	1	-0.089250
9.150000	1	-0.088375
9.166667	1	-0.087875
9.183333	1	-0.087250
9.200000	1	-0.086375
9.216667	1	-0.085500
9.233333	1	-0.084500
9.250000	1	-0.083625
9.266667	1	-0.082500
9.283333	1	-0.082125
9.300000	1	-0.080875
9.316667	1	-0.079625
9.333333	1	-0.078750
9.350000	1	-0.077750
9.366667	1	-0.075750
9.383333	1	-0.074375
9.400000	1	-0.072500
9.416667	1	-0.070750
9.433333	1	-0.069000
9.450000	1	-0.067125
9.466667	1	-0.064625
9.483333	1	-0.062875
9.500000	1	-0.060250
9.516667	1	-0.057000
9.533333	1	-0.054000
9.550000	1	-0.049750
9.566667	1	-0.044750
9.583333	1	-0.038625
9.600000	1	-0.032625
9.616667	1	-0.025000
9.633333	1	-0.015750
9.650000	1	-0.005125
9.666667	1	0.007625
9.683333	1	0.023375
9.700000	1	0.041000
9.716667	1	0.063500
9.733333	1	0.089250
9.750000	1	0.118875
9.766667	1	0.152875
9.783333	1	0.190250
9.800000	1	0.231875
9.816667	1	0.276250
9.833333	1	0.323250
9.850000	1	0.369000
9.866667	1	0.411000
9.883333	1	0.444500
9.900000	1	0.466375
9.916667	1	0.477625
9.933333	1	0.487250
9.950000	1	0.514375
9.966667	1	0.586750
9.983333	1	0.736875
10.000000	1	1.001375
10.016667	1	1.412625
10.033333	1	1.999375
10.050000	1	2.783250
10.066667	1	3.776875
10.083333	1	4.990500
10.100000	1	6.426125
10.116667	1	8.080750
10.133333	1	9.940625
10.150000	1	11.985250
10.166667	1	14.184375
10.183333	1	16.501000
10.200000	1	18.893625
10.216667	1	21.315375
10.233333	1	23.722500
10.250000	1	26.070875
10.266667	1	28.319125
10.283333	1	30.427250
10.300000	1	32.350250
10.316667	1	34.032000
10.333333	1	35.398125
10.350000	1	36.355875
10.366667	1	36.798000
10.383333	1	36.625375
10.400000	1	35.772625
10.416667	1	34.232625
10.433333	1	32.078125
10.450000	1	29.458250
10.466667	1	26.565500
10.483333	1	23.595250
10.500000	1	20.713875
10.516667	1	18.039375
10.533333	1	15.633250
10.550000	1	13.514000
10.566667	1	11.671125
10.583333	1	10.081250
10.600000	1	8.717875
10.616667	1	7.554375
10.633333	1	6.568625
10.650000	1	5.739750
10.666667	1	5.047500
10.683333	1	4.471500
10.700000	1	3.994250
10.716667	1	3.599875
10.733333	1	3.272625
10.750000	1	2.999625
10.766667	1	2.769875
10.783333	1	2.574250
10.800000	1	2.406500
10.816667	1	2.260875
10.833333	1	2.131875
10.850000	1	2.017625
10.866667	1	1.914750
10.883333	1	1.822625
10.900000	1	1.738500
10.916667	1	1.662750
10.933333	1	1.593000
10.950000	1	1.528750
10.966667	1	1.468875
10.983333	1	1.413500
11.000000	1	1.362375
11.016667	1	1.313875
11.033333	1	1.269500
11.050000	1	1.227875
11.066667	1	1.188500
11.083333	1	1.151500
11.100000	1	1.116625
11.116667	1	1.083500
11.133333	1	1.052750
11.150000	1	1.024625
11.166667	1	0.997625
11.183333	1	0.972500
11.200000	1	0.949125
11.216667	1	0.927000
11.233333	1	0.907000
11.250000	1	0.887750
11.266667	1	0.869375
11.283333	1	0.852500
11.300000	1	0.837500
11.316667	1	0.822750
11.333333	1	0.809625
11.350000	1	0.798500
11.366667	1	0.787625
11.383333	1	0.777500
11.400000	1	0.768750
11.416667	1	0.760375
11.433333	1	0.753125
11.450000	1	0.746375
11.466667	1	0.740875
11.483333	1	0.735750
11.500000	1	0.731500
11.516667	1	0.727875
11.533333	1	0.724750
11.550000	1	0.721875
11.566667	1	0.719875
11.583333	1	0.718000
11.600000	1	0.716125
11.616667	1	0.714500
11.633333	1	0.713625
11.650000	1	0.713625
11.666667	1	0.713125
11.683333	1	0.712500
11.700000	1	0.712000
11.716667	1	0.711875
11.733333	1	0.711500
11.750000	1	0.711125
11.766667	1	0.710875
11.783333	1	0.710375
11.800000	1	0.710125
11.816667	1	0.709750
11.833333	1	0.709625
11.850000	1	0.709500
11.866667	1	0.709875
11.883333	1	0.710250
11.900000	1	0.710375
11.916667	1	0.710875
11.933333	1	0.711750
11.950000	1	0.713500
11.966667	1	0.716250
11.983333	1	0.720375
12.000000	1	0.725500
12.016667	1	0.730875
12.033333	1	0.738375
12.050000	1	0.748125
12.066667	1	0.760750
12.083333	1	0.777875
12.100000	1	0.799000
12.116667	1	0.826625
12.133333	1	0.861250
12.150000	1	0.906125
12.166667	1	0.962500
12.183333	1	1.032250
12.200000	1	1.117625
12.216667	1	1.220125
12.233333	1	1.341000
12.250000	1	1.482375
12.266667	1	1.645250
12.283333	1	1.832875
12.300000	1	2.047000
12.316667	1	2.289000
12.333333	1	2.561000
12.350000	1	2.864625
12.366667	1	3.201125
12.383333	1	3.571375
12.400000	1	3.975625
12.416667	1	4.413375
12.433333	1	4.882375
12.450000	1	5.380125
12.466667	1	5.905500
12.483333	1	6.455000
12.500000	1	7.024750
12.516667	1	7.609125
12.533333	1	8.202375
12.550000	1	8.797125
12.566667	1	9.385625
12.583333	1	9.955250
12.600000	1	10.494250
12.616667	1	10.990375
12.633333	1	11.432750
12.650000	1	11.815375
12.666667	1	12.134125
12.683333	1	12.389500
12.700000	1	12.581250
12.716667	1	12.712000
12.733333	1	12.784375
12.750000	1	12.799000
12.766667	1	12.757625
12.783333	1	12.659875
12.800000	1	12.502750
12.816667	1	12.283625
12.833333	1	12.002750
12.850000	1	11.663500
12.866667	1	11.275750
12.883333	1	10.847500
12.900000	1	10.386375
12.916667	1	9.894625
12.933333	1	9.372375
12.950000	1	8.817250
12.966667	1	8.228000
12.983333	1	7.608625
13.000000	1	6.964500
13.016667	1	6.301625
13.033333	1	5.624875
13.050000	1	4.944125
13.066667	1	4.278250
13.083333	1	3.657875
13.100000	1	3.111625
13.116667	1	2.657375
13.133333	1	2.296250
13.150000	1	2.016000
13.166667	1	1.800500
13.183333	1	1.633750
13.200000	1	1.502625
13.216667	1	1.397625
13.233333	1	1.311750
13.250000	1	1.240000
13.266667	1	1.179000
13.283333	1	1.125875
13.300000	1	1.078500
13.316667	1	1.035500
13.333333	1	0.995875
13.350000	1	0.960125
13.366667	1	0.926625
13.383333	1	0.896000
13.400000	1	0.867625
13.416667	1	0.840250
13.433333	1	0.814750
13.450000	1	0.790750
13.466667	1	0.768750
13.483333	1	0.747875
13.500000	1	0.728625
13.516667	1	0.712000
13.533333	1	0.696375
13.550000	1	0.683000
13.566667	1	0.670875
13.583333	1	0.661125
13.600000	1	0.652250
13.616667	1	0.645125
13.633333	1	0.638500
13.650000	1	0.633750
13.666667	1	0.629875
13.683333	1	0.627125
13.700000	1	0.625375
13.716667	1	0.624000
13.733333	1	0.623375
13.750000	1	0.622875
13.766667	1	0.622500
13.783333	1	0.621625
13.800000	1	0.620625
13.816667	1	0.619125
13.833333	1	0.617125
13.850000	1	0.613125
13.866667	1	0.607250
13.883333	1	0.600625
13.900000	1	0.592250
13.916667	1	0.582500
13.933333	1	0.571125
13.950000	1	0.559250
13.966667	1	0.545750
13.983333	1	0.531750
14.000000	1	0.518375
14.016667	1	0.505125
14.033333	1	0.492000
14.050000	1	0.479750
14.066667	1	0.468000
14.083333	1	0.456750
14.100000	1	0.447250
14.116667	1	0.437750
14.133333	1	0.429250
14.150000	1	0.421125
14.166667	1	0.414250
14.183333	1	0.408875
14.200000	1	0.404875
14.216667	1	0.402250
14.233333	1	0.401000
14.250000	1	0.401000
14.266667	1	0.402250
14.283333	1	0.404250
14.300000	1	0.408750
14.316667	1	0.414625
14.333333	1	0.422750
14.350000	1	0.434375
14.366667	1	0.449000
14.383333	1	0.466125
14.400000	1	0.486875
14.416667	1	0.512500
14.433333	1	0.542625
14.450000	1	0.579125
14.466667	1	0.622750
14.483333	1	0.674875
14.500000	1	0.737750
14.516667	1	0.813500
14.533333	1	0.905625
14.550000	1	1.018500
14.566667	1	1.157875
14.583333	1	1.330625
14.600000	1	1.547375
14.616667	1	1.820000
14.633333	1	2.162250
14.650000	1	2.594375
14.666667	1	3.133875
14.683333	1	3.802625
14.700000	1	4.621375
14.716667	1	5.609125
14.733333	1	6.782250
14.750000	1	8.155625
14.766667	1	9.738000
14.783333	1	11.528000
14.800000	1	13.519750
14.816667	1	15.700875
14.833333	1	18.054000
14.850000	1	20.555875
14.866667	1	23.175375
14.883333	1	25.875750
14.900000	1	28.619000
14.916667	1	31.362125
14.933333	1	34.062750
14.950000	1	36.677500
14.966667	1	39.160375
14.983333	1	41.463000
15.000000	1	43.535875
15.016667	1	45.330250
15.033333	1	46.798250
15.050000	1	47.894000
15.066667	1	48.577375
15.083333	1	48.819250
15.100000	1	48.602125
15.116667	1	47.928250
15.133333	1	46.812625
15.150000	1	45.288375
15.166667	1	43.402750
15.183333	1	41.213125
15.200000	1	38.785125
15.216667	1	36.185500
15.233333	1	33.479500
15.250000	1	30.732875
15.266667	1	28.006500
15.283333	1	25.351250
15.300000	1	22.810000
15.316667	1	20.417125
15.333333	1	18.195375
15.350000	1	16.158375
15.366667	1	14.310500
15.383333	1	12.651125
15.400000	1	11.173375
15.416667	1	9.864875
15.433333	1	8.713625
15.450000	1	7.704875
15.466667	1	6.825125
15.483333	1	6.060750
15.500000	1	5.399250
15.516667	1	4.829000
15.533333	1	4.336500
15.550000	1	3.912625
15.566667	1	3.548125
15.583333	1	3.234375
15.600000	1	2.964625
15.616667	1	2.732125
15.633333	1	2.532125
15.650000	1	2.359375
15.666667	1	2.210000
15.683333	1	2.080750
15.700000	1	1.968125
15.716667	1	1.870750
15.733333	1	1.786375
15.750000	1	1.712625
15.766667	1	1.646625
15.783333	1	1.586625
15.800000	1	1.532500
15.816667	1	1.482375
15.833333	1	1.434750
15.850000	1	1.388375
15.866667	1	1.343750
15.883333	1	1.299125
15.900000	1	1.256625
15.916667	1	1.214875
15.933333	1	1.174125
15.950000	1	1.135000
15.966667	1	1.097125
15.983333	1	1.061625
16.000000	1	1.028250
16.016667	1	0.998000
16.033333	1	0.970625
16.050000	1	0.945750
16.066667	1	0.923500
16.083333	1	0.904375
16.100000	1	0.888125
16.116667	1	0.875125
16.133333	1	0.864500
16.150000	1	0.855375
16.166667	1	0.849375
16.183333	1	0.845750
16.200000	1	0.843750
16.216667	1	0.843125
16.233333	1	0.844125
16.250000	1	0.847125
16.266667	1	0.849625
16.283333	1	0.852875
16.300000	1	0.856250
16.316667	1	0.858875
16.333333	1	0.861375
16.350000	1	0.863625
16.366667	1	0.864375
16.383333	1	0.863750
16.400000	1	0.861125
16.416667	1	0.857125
16.433333	1	0.851750
16.450000	1	0.844250
16.466667	1	0.835750
16.483333	1	0.825375
16.500000	1	0.814500
16.516667	1	0.803125
16.533333	1	0.791000
16.550000	1	0.778500
16.566667	1	0.766500
16.583333	1	0.755000
16.600000	1	0.744250
16.616667	1	0.734250
16.633333	1	0.725750
16.650000	1	0.718125
16.666667	1	0.712375
16.683333	1	0.707375
16.700000	1	0.702875
16.716667	1	0.699875
16.733333	1	0.698250
16.750000	1	0.697625
16.766667	1	0.697000
16.783333	1	0.698000
16.800000	1	0.698500
16.816667	1	0.699625
16.833333	1	0.701875
16.850000	1	0.704000
16.866667	1	0.706875
16.883333	1	0.709000
16.900000	1	0.710750
16.916667	1	0.712500
16.933333	1	0.714375
16.950000	1	0.715750
16.966667	1	0.717000
16.983333	1	0.718500
17.000000	1	0.719250
17.016667	1	0.719375
17.033333	1	0.719875
17.050000	1	0.719875
17.066667	1	0.718875
17.083333	1	0.718000
17.100000	1	0.717000
17.116667	1	0.715250
17.133333	1	0.714250
17.150000	1	0.712875
17.166667	1	0.711250
17.183333	1	0.709500
17.200000	1	0.707750
17.216667	1	0.707000
17.233333	1	0.705125
17.250000	1	0.703250
17.266667	1	0.699750
17.283333	1	0.696250
17.300000	1	0.692500
17.316667	1	0.688125
17.333333	1	0.682750
17.350000	1	0.677375
17.366667	1	0.671125
17.383333	1	0.665000
17.400000	1	0.658625
17.416667	1	0.651750
17.433333	1	0.644750
17.450000	1	0.637875
17.466667	1	0.631625
17.483333	1	0.624500
17.500000	1	0.619000
17.516667	1	0.613750
17.533333	1	0.609000
17.550000	1	0.605375
17.566667	1	0.603125
17.583333	1	0.602125
17.600000	1	0.601875
17.616667	1	0.602625
17.633333	1	0.605875
17.650000	1	0.609875
17.666667	1	0.614250
17.683333	1	0.620375
17.700000	1	0.627750
17.716667	1	0.636125
17.733333	1	0.645250
17.750000	1	0.656000
17.766667	1	0.667625
17.783333	1	0.679500
17.800000	1	0.692375
17.816667	1	0.704500
17.833333	1	0.717250
17.850000	1	0.729875
17.866667	1	0.742000
17.883333	1	0.754125
17.900000	1	0.765875
17.916667	1	0.777375
17.933333	1	0.787500
17.950000	1	0.796250
17.966667	1	0.804500
17.983333	1	0.811250
18.000000	1	0.817125
18.016667	1	0.820625
18.033333	1	0.822750
18.050000	1	0.823750
18.066667	1	0.822125
18.083333	1	0.819625
18.100000	1	0.815625
18.116667	1	0.809750
18.133333	1	0.803375
18.150000	1	0.796000
18.166667	1	0.786875
18.183333	1	0.777000
18.200000	1	0.765750
18.216667	1	0.754500
18.233333	1	0.742750
18.250000	1	0.730625
18.266667	1	0.718125
18.283333	1	0.705375
18.300000	1	0.694125
18.316667	1	0.682750
18.333333	1	0.672250
18.350000	1	0.662000
18.366667	1	0.652250
18.383333	1	0.642875
18.400000	1	0.634375
18.416667	1	0.626750
18.433333	1	0.619250
18.450000	1	0.613000
18.466667	1	0.607875
18.483333	1	0.602000
18.500000	1	0.597125
18.516667	1	0.593875
18.533333	1	0.590625
18.550000	1	0.588375
18.566667	1	0.587125
18.583333	1	0.586250
18.600000	1	0.585375
18.616667	1	0.584875
18.633333	1	0.585000
18.650000	1	0.585125
18.666667	1	0.585750
18.683333	1	0.586250
18.700000	1	0.587000
18.716667	1	0.588375
18.733333	1	0.590250
18.750000	1	0.593000
18.766667	1	0.595875
18.783333	1	0.598125
18.800000	1	0.601375
18.816667	1	0.605000
18.833333	1	0.609875
18.850000	1	0.614750
18.866667	1	0.620375
18.883333	1	0.626625
18.900000	1	0.634375
18.916667	1	0.643625
18.933333	1	0.653375
18.950000	1	0.664500
18.966667	1	0.677375
18.983333	1	0.692125
19.000000	1	0.707875
19.016667	1	0.725750
19.033333	1	0.744750
19.050000	1	0.766000
19.066667	1	0.788500
19.083333	1	0.813000
19.100000	1	0.839125
19.116667	1	0.866375
19.133333	1	0.894625
19.150000	1	0.923500
19.166667	1	0.953875
19.183333	1	0.985125
19.200000	1	1.016125
19.216667	1	1.046625
19.233333	1	1.077500
19.250000	1	1.106750
19.266667	1	1.134375
19.283333	1	1.160250
19.300000	1	1.183500
19.316667	1	1.205000
19.333333	1	1.222750
19.350000	1	1.237250
19.366667	1	1.248000
19.383333	1	1.254250
19.400000	1	1.255750
19.416667	1	1.253000
19.433333	1	1.245750
19.450000	1	1.234250
19.466667	1	1.218500
19.483333	1	1.198875
19.500000	1	1.175500
19.516667	1	1.148625
19.533333	1	1.118375
19.550000	1	1.086500
19.566667	1	1.052500
19.583333	1	1.016625
19.600000	1	0.981375
19.616667	1	0.944750
19.633333	1	0.908250
19.650000	1	0.873000
19.666667	1	0.838000
19.683333	1	0.804875
19.700000	1	0.774375
19.716667	1	0.745750
19.733333	1	0.719875
19.750000	1	0.696625
19.766667	1	0.676000
19.783333	1	0.658375
19.800000	1	0.643000
19.816667	1	0.631500
19.833333	1	0.621875
19.850000	1	0.615125
19.866667	1	0.612125
19.883333	1	0.611250
19.900000	1	0.613125
19.916667	1	0.617500
19.933333	1	0.624125
19.950000	1	0.632125
19.966667	1	0.642000
19.983333	1	0.653375
20.000000	1	0.666500
20.016667	1	0.680625
20.033333	1	0.695875
20.050000	1	0.711875
20.066667	1	0.728375
20.083333	1	0.746125
20.100000	1	0.763625
20.116667	1	0.781000
20.133333	1	0.799625
20.150000	1	0.818125
20.166667	1	0.837000
20.183333	1	0.857250
20.200000	1	0.877875
20.216667	1	0.899250
20.233333	1	0.922750
20.250000	1	0.947000
20.266667	1	0.972375
20.283333	1	1.000500
20.300000	1	1.030625
20.316667	1	1.063000
20.333333	1	1.097125
20.350000	1	1.135125
20.366667	1	1.174500
20.383333	1	1.216000
20.400000	1	1.259625
20.416667	1	1.304750
20.433333	1	1.350750
20.450000	1	1.398875
20.466667	1	1.447375
20.483333	1	1.496250
20.500000	1	1.544375
20.516667	1	1.591250
20.533333	1	1.637250
20.550000	1	1.680875
20.566667	1	1.721125
20.583333	1	1.758250
20.600000	1	1.791125
20.616667	1	1.819250
20.633333	1	1.842125
20.650000	1	1.859750
20.666667	1	1.870375
20.683333	1	1.875750
20.700000	1	1.875250
20.716667	1	1.869375
20.733333	1	1.858250
20.750000	1	1.842750
20.766667	1	1.823750
20.783333	1	1.801500
20.800000	1	1.776625
20.816667	1	1.750750
20.833333	1	1.724000
20.850000	1	1.697875
20.866667	1	1.673250
20.883333	1	1.649875
20.900000	1	1.628125
20.916667	1	1.608625
20.933333	1	1.590750
20.950000	1	1.576000
20.966667	1	1.563500
20.983333	1	1.552125
21.000000	1	1.541625
21.016667	1	1.531625
21.033333	1	1.522125
21.050000	1	1.509750
21.066667	1	1.496125
21.083333	1	1.479750
21.100000	1	1.460875
21.116667	1	1.437750
21.133333	1	1.411250
21.150000	1	1.380375
21.166667	1	1.344625
21.183333	1	1.305250
21.200000	1	1.262000
21.216667	1	1.215625
21.233333	1	1.166000
21.250000	1	1.114875
21.266667	1	1.062250
21.283333	1	1.009375
21.300000	1	0.956375
21.316667	1	0.904000
21.333333	1	0.852875
21.350000	1	0.803625
21.366667	1	0.756750
21.383333	1	0.711625
21.400000	1	0.669750
21.416667	1	0.630750
21.433333	1	0.594500
21.450000	1	0.561000
21.466667	1	0.531000
21.483333	1	0.503375
21.500000	1	0.478375
21.516667	1	0.456625
21.533333	1	0.436875
21.550000	1	0.419250
21.566667	1	0.403500
21.583333	1	0.389750
21.600000	1	0.376750
21.616667	1	0.366375
21.633333	1	0.356500
21.650000	1	0.348625
21.666667	1	0.341625
21.683333	1	0.335375
21.700000	1	0.330375
21.716667	1	0.326250
21.733333	1	0.323000
21.750000	1	0.320000
21.766667	1	0.317500
21.783333	1	0.315625
21.800000	1	0.314125
21.816667	1	0.313500
21.833333	1	0.313000
21.850000	1	0.312375
21.866667	1	0.313000
21.883333	1	0.313500
21.900000	1	0.314750
21.916667	1	0.315750
21.933333	1	0.317625
21.950000	1	0.319000
21.966667	1	0.321500
21.983333	1	0.324125
22.000000	1	0.326375
22.016667	1	0.328875
22.033333	1	0.331125
22.050000	1	0.334375
22.066667	1	0.337625
22.083333	1	0.339875
22.100000	1	0.342000
22.116667	1	0.344375
22.133333	1	0.346500
22.150000	1	0.348625
22.166667	1	0.350750
22.183333	1	0.351750
22.200000	1	0.352375
22.216667	1	0.352000
22.233333	1	0.350875
22.250000	1	0.350500
22.266667	1	0.349250
22.283333	1	0.348250
22.300000	1	0.347000
22.316667	1	0.344625
22.333333	1	0.342625
22.350000	1	0.340375
22.366667	1	0.338875
22.383333	1	0.336250
22.400000	1	0.334000
22.416667	1	0.331750
22.433333	1	0.330125
22.450000	1	0.329125
22.466667	1	0.328500
22.483333	1	0.329000
22.500000	1	0.329375
22.516667	1	0.330250
22.533333	1	0.331375
22.550000	1	0.333250
22.566667	1	0.334750
22.583333	1	0.336875
22.600000	1	0.339375
22.616667	1	0.341875
22.633333	1	0.345250
22.650000	1	0.348625
22.666667	1	0.351000
22.683333	1	0.354250
22.700000	1	0.357750
22.716667	1	0.359500
22.733333	1	0.362000
22.750000	1	0.364125
22.766667	1	0.365875
22.783333	1	0.367625
22.800000	1	0.368875
22.816667	1	0.368875
22.833333	1	0.369250
22.850000	1	0.368750
22.866667	1	0.368125
22.883333	1	0.367125
22.900000	1	0.365875
22.916667	1	0.363875
22.933333	1	0.361125
22.950000	1	0.358250
22.966667	1	0.354750
22.983333	1	0.350875
23.000000	1	0.347125
23.016667	1	0.343250
23.033333	1	0.338875
23.050000	1	0.334125
23.066667	1	0.330125
23.083333	1	0.325625
23.100000	1	0.320875
23.116667	1	0.316125
23.133333	1	0.312500
23.150000	1	0.308750
23.166667	1	0.305375
23.183333	1	0.301875
23.200000	1	0.299500
23.216667	1	0.297250
23.233333	1	0.296375
23.250000	1	0.296000
23.266667	1	0.296125
23.283333	1	0.297000
23.300000	1	0.299250
23.316667	1	0.302625
23.333333	1	0.307000
23.350000	1	0.313000
23.366667	1	0.320625
23.383333	1	0.330125
23.400000	1	0.341875
23.416667	1	0.355375
23.433333	1	0.372125
23.450000	1	0.391375
23.466667	1	0.414125
23.483333	1	0.440375
23.500000	1	0.471500
23.516667	1	0.508000
23.533333	1	0.549000
23.550000	1	0.596500
23.566667	1	0.649875
23.583333	1	0.710125
23.600000	1	0.778875
23.616667	1	0.855375
23.633333	1	0.939375
23.650000	1	1.032625
23.666667	1	1.133750
23.683333	1	1.243750
23.700000	1	1.362375
23.716667	1	1.490000
23.733333	1	1.624625
23.750000	1	1.767750
23.766667	1	1.918125
23.783333	1	2.075125
23.800000	1	2.237375
23.816667	1	2.403000
23.833333	1	2.573000
23.850000	1	2.745625
23.866667	1	2.918250
23.883333	1	3.089750
23.900000	1	3.258250
23.916667	1	3.423250
23.933333	1	3.582000
23.950000	1	3.731375
23.966667	1	3.870375
23.983333	1	3.996000
24.000000	1	4.107250
24.016667	1	4.202125
24.033333	1	4.278500
24.050000	1	4.335125
24.066667	1	4.371125
24.083333	1	4.386625
24.100000	1	4.379500
24.116667	1	4.351000
24.133333	1	4.300500
24.150000	1	4.230750
24.166667	1	4.141125
24.183333	1	4.034875
24.200000	1	3.912750
24.216667	1	3.777500
24.233333	1	3.630750
24.250000	1	3.475000
24.266667	1	3.313375
24.283333	1	3.147625
24.300000	1	2.979000
24.316667	1	2.811250
24.333333	1	2.644750
24.350000	1	2.482000
24.366667	1	2.324875
24.383333	1	2.173375
24.400000	1	2.029750
24.416667	1	1.893375
24.433333	1	1.765875
24.450000	1	1.647500
24.466667	1	1.537250
24.483333	1	1.434750
24.500000	1	1.342375
24.516667	1	1.256875
24.533333	1	1.178750
24.550000	1	1.108000
24.566667	1	1.043625
24.583333	1	0.985250
24.600000	1	0.932125
24.616667	1	0.883250
24.633333	1	0.839500
24.650000	1	0.799375
24.666667	1	0.762500
24.683333	1	0.728375
24.700000	1	0.696625
24.716667	1	0.666500
24.733333	1	0.638250
24.750000	1	0.611500
24.766667	1	0.586375
24.783333	1	0.562625
24.800000	1	0.539250
24.816667	1	0.516875
24.833333	1	0.494875
24.850000	1	0.474000
24.866667	1	0.453375
24.883333	1	0.434375
24.900000	1	0.415750
24.916667	1	0.397375
24.933333	1	0.380000
24.950000	1	0.362500
24.966667	1	0.345875
24.983333	1	0.330375
25.000000	1	0.315375
25.016667	1	0.301000
25.033333	1	0.287625
25.050000	1	0.275250
25.066667	1	0.263375
25.083333	1	0.252250
25.100000	1	0.242875
25.116667	1	0.234125
25.133333	1	0.225875
25.150000	1	0.218500
25.166667	1	0.211000
25.183333	1	0.205250
25.200000	1	0.199500
25.216667	1	0.195125
25.233333	1	0.191125
25.250000	1	0.187625
25.266667	1	0.185375
25.283333	1	0.183500
25.300000	1	0.182250
25.316667	1	0.181125
25.333333	1	0.180500
25.350000	1	0.180625
25.366667	1	0.180875
25.383333	1	0.181000
25.400000	1	0.181750
25.416667	1	0.182500
25.433333	1	0.183750
25.450000	1	0.185000
25.466667	1	0.186750
25.483333	1	0.188500
25.500000	1	0.190750
25.516667	1	0.193125
25.533333	1	0.195000
25.550000	1	0.196500
25.566667	1	0.198250
25.583333	1	0.199750
25.600000	1	0.201500
25.616667	1	0.203250
25.633333	1	0.204750
25.650000	1	0.206000
25.666667	1	0.205750
25.683333	1	0.206625
25.700000	1	0.207500
25.716667	1	0.208000
25.733333	1	0.208250
25.750000	1	0.208375
25.766667	1	0.208000
25.783333	1	0.207750
25.800000	1	0.207625
25.816667	1	0.206875
25.833333	1	0.206500
25.850000	1	0.206000
25.866667	1	0.205125
25.883333	1	0.203875
25.900000	1	0.202750
25.916667	1	0.202000
25.933333	1	0.200625
25.950000	1	0.199250
25.966667	1	0.198250
25.983333	1	0.197625
26.000000	1	0.196500
26.016667	1	0.194750
26.033333	1	0.194250
26.050000	1	0.193500
26.066667	1	0.192750
26.083333	1	0.192125
26.100000	1	0.192250
26.116667	1	0.191625
26.133333	1	0.191125
26.150000	1	0.191000
26.166667	1	0.190375
26.183333	1	0.190250
26.200000	1	0.189750
26.216667	1	0.189625
26.233333	1	0.190375
26.250000	1	0.191625
26.266667	1	0.192125
26.283333	1	0.193375
26.300000	1	0.194250
26.316667	1	0.195125
26.333333	1	0.196500
26.350000	1	0.197750
26.366667	1	0.198750
26.383333	1	0.199250
26.400000	1	0.199625
26.416667	1	0.200875
26.433333	1	0.201750
26.450000	1	0.202375
26.466667	1	0.202750
26.483333	1	0.203125
26.500000	1	0.202250
26.516667	1	0.201250
26.533333	1	0.200375
26.550000	1	0.199250
26.566667	1	0.197500
26.583333	1	0.195125
26.600000	1	0.192375
26.616667	1	0.189625
26.633333	1	0.186250
26.650000	1	0.182250
26.666667	1	0.178000
26.683333	1	0.173250
26.700000	1	0.168750
26.716667	1	0.164375
26.733333	1	0.159375
26.750000	1	0.154375
26.766667	1	0.148875
26.783333	1	0.143000
26.800000	1	0.137250
26.816667	1	0.131000
26.833333	1	0.125250
26.850000	1	0.119625
26.866667	1	0.115000
26.883333	1	0.109750
26.900000	1	0.104625
26.916667	1	0.100250
26.933333	1	0.095500
26.950000	1	0.091875
26.966667	1	0.088125
26.983333	1	0.084750
27.000000	1	0.081625
27.016667	1	0.079250
27.033333	1	0.077125
27.050000	1	0.075125
27.066667	1	0.074125
27.083333	1	0.073750
27.100000	1	0.073500
27.116667	1	0.074000
27.133333	1	0.075000
27.150000	1	0.075625
27.166667	1	0.077000
27.183333	1	0.079375
27.200000	1	0.082000
27.216667	1	0.085750
27.233333	1	0.090625
27.250000	1	0.095625
27.266667	1	0.100875
27.283333	1	0.107250
27.300000	1	0.114500
27.316667	1	0.122375
27.333333	1	0.131375
27.350000	1	0.141875
27.366667	1	0.153125
27.383333	1	0.166125
27.400000	1	0.181250
27.416667	1	0.197375
27.433333	1	0.216375
27.450000	1	0.237375
27.466667	1	0.260500
27.483333	1	0.286375
27.500000	1	0.314875
27.516667	1	0.346500
27.533333	1	0.380875
27.550000	1	0.419375
27.566667	1	0.461375
27.583333	1	0.508500
27.600000	1	0.560000
27.616667	1	0.616125
27.633333	1	0.677000
27.650000	1	0.742375
27.666667	1	0.812500
27.683333	1	0.888250
27.700000	1	0.969000
27.716667	1	1.055000
27.733333	1	1.144625
27.750000	1	1.239375
27.766667	1	1.338125
27.783333	1	1.441000
27.800000	1	1.548000
27.816667	1	1.658125
27.833333	1	1.770750
27.850000	1	1.885500
27.866667	1	2.002500
27.883333	1	2.119250
27.900000	1	2.236750
27.916667	1	2.353000
27.933333	1	2.467250
27.950000	1	2.578125
27.966667	1	2.686125
27.983333	1	2.789125
28.000000	1	2.886625
28.016667	1	2.977375
28.033333	1	3.061250
28.050000	1	3.135750
28.066667	1	3.200500
28.083333	1	3.255000
28.100000	1	3.298375
28.116667	1	3.330000
28.133333	1	3.348625
28.150000	1	3.354250
28.166667	1	3.345875
28.183333	1	3.325000
28.200000	1	3.290375
28.216667	1	3.242750
28.233333	1	3.182500
28.250000	1	3.109750
28.266667	1	3.025125
28.283333	1	2.929750
28.300000	1	2.824625
28.316667	1	2.710875
28.333333	1	2.589625
28.350000	1	2.461875
28.366667	1	2.329750
28.383333	1	2.193250
28.400000	1	2.054750
28.416667	1	1.914375
28.433333	1	1.773875
28.450000	1	1.634500
28.466667	1	1.495000
28.483333	1	1.358125
28.500000	1	1.223375
28.516667	1	1.092500
28.533333	1	0.964625
28.550000	1	0.839750
28.566667	1	0.719750
28.583333	1	0.603500
28.600000	1	0.490875
28.616667	1	0.381500
28.633333	1	0.275750
28.650000	1	0.172625
28.666667	1	0.073250
28.683333	1	-0.022375
28.700000	1	-0.115375
28.716667	1	-0.205125
28.733333	1	-0.292125
28.750000	1	-0.376125
28.766667	1	-0.457500
28.783333	1	-0.536875
28.800000	1	-0.613250
28.816667	1	-0.687375
28.833333	1	-0.758375
28.850000	1	-0.826125
28.866667	1	-0.891750
28.883333	1	-0.953500
28.900000	1	-1.012000
28.916667	1	-1.067375
28.933333	1	-1.118250
28.950000	1	-1.164875
28.966667	1	-1.207000
28.983333	1	-1.244625
29.000000	1	-1.278125
29.016667	1	-1.305875
29.033333	1	-1.328875
29.050000	1	-1.346875
29.066667	1	-1.359750
29.083333	1	-1.367375
29.100000	1	-1.369500
29.116667	1	-1.366750
29.133333	1	-1.358250
29.150000	1	-1.345125
29.166667	1	-1.326875
29.183333	1	-1.304375
29.200000	1	-1.277375
29.216667	1	-1.246500
29.233333	1	-1.212125
29.250000	1	-1.173750
29.266667	1	-1.132625
29.283333	1	-1.088750
29.300000	1	-1.043000
29.316667	1	-0.995625
29.333333	1	-0.945625
29.350000	1	-0.894125
29.366667	1	-0.843000
29.383333	1	-0.790875
29.400000	1	-0.738750
29.416667	1	-0.686750
29.433333	1	-0.635125
29.450000	1	-0.584625
29.466667	1	-0.534875
29.483333	1	-0.486500
29.500000	1	-0.439000
29.516667	1	-0.393750
29.533333	1	-0.349750
29.550000	1	-0.307750
29.566667	1	-0.268375
29.583333	1	-0.230250
29.600000	1	-0.194500
29.616667	1	-0.160875
29.633333	1	-0.129375
29.650000	1	-0.099250
29.666667	1	-0.071125
29.683333	1	-0.044500
29.700000	1	-0.021000
29.716667	1	0.000625
29.733333	1	0.021250
29.750000	1	0.039875
29.766667	1	0.056875
29.783333	1	0.072750
29.800000	1	0.086500
29.816667	1	0.099250
29.833333	1	0.110500
29.850000	1	0.121500
29.866667	1	0.131250
29.883333	1	0.139250
29.900000	1	0.146625
29.916667	1	0.154125
29.933333	1	0.161625
29.950000	1	0.168500
29.966667	1	0.175125
29.983333	1	0.181875
30.000000	1	0.188625
30.016667	1	0.195125
30.033333	1	0.203000
30.050000	1	0.211250
30.066667	1	0.220125
30.083333	1	0.230000
30.100000	1	0.240875
30.116667	1	0.253375
30.133333	1	0.267500
30.150000	1	0.283625
30.166667	1	0.301875
30.183333	1	0.321875
30.200000	1	0.345500
30.216667	1	0.372750
30.233333	1	0.403250
30.250000	1	0.437250
30.266667	1	0.474875
30.283333	1	0.517625
30.300000	1	0.565125
30.316667	1	0.618125
30.333333	1	0.677250
30.350000	1	0.741375
30.366667	1	0.812625
30.383333	1	0.891625
30.400000	1	0.977000
30.416667	1	1.070250
30.433333	1	1.171250
30.450000	1	1.281000
30.466667	1	1.398500
30.483333	1	1.524500
30.500000	1	1.658125
30.516667	1	1.800000
30.533333	1	1.950375
30.550000	1	2.107750
30.566667	1	2.272625
30.583333	1	2.444625
30.600000	1	2.623875
30.616667	1	2.809125
30.633333	1	2.999625
30.650000	1	3.194250
30.666667	1	3.392750
30.683333	1	3.592250
30.700000	1	3.793000
30.716667	1	3.993125
30.733333	1	4.191875
30.750000	1	4.387000
30.766667	1	4.576750
30.783333	1	4.760750
30.800000	1	4.936375
30.816667	1	5.102500
30.833333	1	5.257625
30.850000	1	5.400125
30.866667	1	5.528375
30.883333	1	5.641750
30.900000	1	5.738000
30.916667	1	5.816625
30.933333	1	5.877000
30.950000	1	5.919250
30.966667	1	5.940750
30.983333	1	5.943250
31.000000	1	5.926625
31.016667	1	5.890750
31.033333	1	5.836125
31.050000	1	5.763250
31.066667	1	5.672500
31.083333	1	5.564625
31.100000	1	5.442000
31.116667	1	5.306000
31.133333	1	5.158750
31.150000	1	5.000000
31.166667	1	4.832500
31.183333	1	4.657500
31.200000	1	4.477125
31.216667	1	4.291125
31.233333	1	4.102625
31.250000	1	3.912625
31.266667	1	3.722625
31.283333	1	3.533875
31.300000	1	3.348125
31.316667	1	3.165500
31.333333	1	2.987000
31.350000	1	2.814000
31.366667	1	2.646625
31.383333	1	2.485500
31.400000	1	2.331875
31.416667	1	2.184625
31.433333	1	2.044375
31.450000	1	1.911125
31.466667	1	1.785500
31.483333	1	1.667125
31.500000	1	1.555500
31.516667	1	1.451875
31.533333	1	1.355000
31.550000	1	1.264875
31.566667	1	1.180875
31.583333	1	1.102250
31.600000	1	1.030125
31.616667	1	0.963125
31.633333	1	0.901250
31.650000	1	0.843125
31.666667	1	0.790750
31.683333	1	0.742125
31.700000	1	0.697375
31.716667	1	0.655750
31.733333	1	0.617875
31.750000	1	0.583625
31.766667	1	0.552625
31.783333	1	0.523250
31.800000	1	0.496875
31.816667	1	0.473125
31.833333	1	0.451000
31.850000	1	0.431125
31.866667	1	0.412750
31.883333	1	0.396375
31.900000	1	0.381500
31.916667	1	0.368000
31.933333	1	0.355500
31.950000	1	0.343625
31.966667	1	0.333250
31.983333	1	0.323750
32.000000	1	0.315625
32.016667	1	0.308125
32.033333	1	0.301625
32.050000	1	0.294750
32.066667	1	0.287750
32.083333	1	0.281500
32.100000	1	0.275875
32.116667	1	0.270125
32.133333	1	0.264500
32.150000	1	0.259250
32.166667	1	0.254375
32.183333	1	0.249125
32.200000	1	0.243375
32.216667	1	0.237250
32.233333	1	0.231750
32.250000	1	0.226250
32.266667	1	0.220500
32.283333	1	0.214375
32.300000	1	0.208375
32.316667	1	0.201875
32.333333	1	0.195000
32.350000	1	0.188000
32.366667	1	0.181125
32.383333	1	0.173625
32.400000	1	0.166625
32.416667	1	0.159250
32.433333	1	0.151750
32.450000	1	0.144125
32.466667	1	0.136375
32.483333	1	0.129500
32.500000	1	0.122625
32.516667	1	0.115000
32.533333	1	0.108250
32.550000	1	0.101625
32.566667	1	0.095500
32.583333	1	0.089625
32.600000	1	0.083875
32.616667	1	0.078000
32.633333	1	0.072000
32.650000	1	0.066250
32.666667	1	0.061125
32.683333	1	0.056625
32.700000	1	0.052875
32.716667	1	0.049125
32.733333	1	0.045750
32.750000	1	0.042625
32.766667	1	0.039375
32.783333	1	0.037000
32.800000	1	0.034000
32.816667	1	0.030750
32.833333	1	0.028375
32.850000	1	0.026750
32.866667	1	0.024875
32.883333	1	0.023250
32.900000	1	0.022375
32.916667	1	0.020625
32.933333	1	0.019000
32.950000	1	0.017625
32.966667	1	0.016875
32.983333	1	0.016250
33.000000	1	0.015125
33.016667	1	0.013750
33.033333	1	0.013125
33.050000	1	0.012125
33.066667	1	0.010875
33.083333	1	0.010250
33.100000	1	0.010500
33.116667	1	0.009875
33.133333	1	0.008875
33.150000	1	0.007625
33.166667	1	0.007375
33.183333	1	0.006000
33.200000	1	0.005250
33.216667	1	0.004375
33.233333	1	0.003375
33.250000	1	0.003125
33.266667	1	0.002250
33.283333	1	0.002000
33.300000	1	0.001250
33.316667	1	0.000375
33.333333	1	-0.000375
33.350000	1	-0.001125
33.366667	1	-0.001500
33.383333	1	-0.002125
33.400000	1	-0.003000
33.416667	1	-0.003875
33.433333	1	-0.004375
33.450000	1	-0.005375
33.466667	1	-0.006500
33.483333	1	-0.007500
33.500000	1	-0.009250
33.516667	1	-0.010750
33.533333	1	-0.011750
33.550000	1	-0.012875
33.566667	1	-0.014500
33.583333	1	-0.015500
33.600000	1	-0.016875
33.616667	1	-0.018000
33.633333	1	-0.018625
33.650000	1	-0.020125
33.666667	1	-0.020625
33.683333	1	-0.021375
33.700000	1	-0.022500
33.716667	1	-0.023875
33.733333	1	-0.024875
33.750000	1	-0.025375
33.766667	1	-0.026125
33.783333	1	-0.027125
33.800000	1	-0.028500
33.816667	1	-0.028875
33.833333	1	-0.029875
33.850000	1	-0.030500
33.866667	1	-0.031250
33.883333	1	-0.031250
33.900000	1	-0.031875
33.916667	1	-0.032375
33.933333	1	-0.032625
33.950000	1	-0.033000
33.966667	1	-0.033875
33.983333	1	-0.034250
34.000000	1	-0.034250
34.016667	1	-0.034125
34.033333	1	-0.034625
34.050000	1	-0.034875
34.066667	1	-0.034625
34.083333	1	-0.034375
34.100000	1	-0.033625
34.116667	1	-0.033375
34.133333	1	-0.033125
34.150000	1	-0.032625
34.166667	1	-0.032375
34.183333	1	-0.031625
34.200000	1	-0.031000
34.216667	1	-0.030625
34.233333	1	-0.029875
34.250000	1	-0.030000
34.266667	1	-0.029250
34.283333	1	-0.028625
34.300000	1	-0.027625
34.316667	1	-0.026750
34.333333	1	-0.026375
34.350000	1	-0.026250
34.366667	1	-0.025375
34.383333	1	-0.025375
34.400000	1	-0.025750
34.416667	1	-0.025375
34.433333	1	-0.024750
34.450000	1	-0.025250
34.466667	1	-0.025125
34.483333	1	-0.025875
34.500000	1	-0.025500
34.516667	1	-0.024875
34.533333	1	-0.025125
34.550000	1	-0.025375
34.566667	1	-0.025625
34.583333	1	-0.025500
34.600000	1	-0.026750
34.616667	1	-0.027375
34.633333	1	-0.027750
34.650000	1	-0.027750
34.666667	1	-0.028000
34.683333	1	-0.028625
34.700000	1	-0.028375
34.716667	1	-0.029250
34.733333	1	-0.030125
34.750000	1	-0.030500
34.766667	1	-0.031375
34.783333	1	-0.032125
34.800000	1	-0.032750
34.816667	1	-0.033250
34.833333	1	-0.033500
34.850000	1	-0.033750
34.866667	1	-0.033750
34.883333	1	-0.034250
34.900000	1	-0.034625
34.916667	1	-0.034625
34.933333	1	-0.034125
34.950000	1	-0.034375
34.966667	1	-0.034375
34.983333	1	-0.034750
35.000000	1	-0.034750
35.016667	1	-0.034750
35.033333	1	-0.035250
35.050000	1	-0.034875
35.066667	1	-0.034125
35.083333	1	-0.033250
35.100000	1	-0.032250
35.116667	1	-0.031125
35.133333	1	-0.030875
35.150000	1	-0.029750
35.166667	1	-0.029000
35.183333	1	-0.029000
35.200000	1	-0.027750
35.216667	1	-0.026625
35.233333	1	-0.025250
35.250000	1	-0.024000
35.266667	1	-0.022750
35.283333	1	-0.021250
35.300000	1	-0.019625
35.316667	1	-0.018875
35.333333	1	-0.017750
35.350000	1	-0.016250
35.366667	1	-0.014500
35.383333	1	-0.013250
35.400000	1	-0.011500
35.416667	1	-0.010250
35.433333	1	-0.009250
35.450000	1	-0.008000
35.466667	1	-0.007000
35.483333	1	-0.006375
35.500000	1	-0.005250
35.516667	1	-0.003750
35.533333	1	-0.002875
35.550000	1	-0.001500
35.566667	1	-0.000375
35.583333	1	0.000125
35.600000	1	0.001125
35.616667	1	0.001875
35.633333	1	0.002500
35.650000	1	0.003375
35.666667	1	0.003625
35.683333	1	0.004500
35.700000	1	0.005750
35.716667	1	0.006875
35.733333	1	0.007875
35.750000	1	0.008750
35.766667	1	0.010500
35.783333	1	0.011875
35.800000	1	0.012375
35.816667	1	0.013000
35.833333	1	0.014375
35.850000	1	0.015625
35.866667	1	0.017125
35.883333	1	0.018875
35.900000	1	0.020125
35.916667	1	0.021375
35.933333	1	0.023000
35.950000	1	0.024625
35.966667	1	0.025500
35.983333	1	0.026125
36.000000	1	0.027750
36.016667	1	0.028625
36.033333	1	0.029625
36.050000	1	0.030875
36.066667	1	0.032250
36.083333	1	0.033375
36.100000	1	0.034875
36.116667	1	0.036250
36.133333	1	0.037750
36.150000	1	0.039000
36.166667	1	0.040000
36.183333	1	0.040875
36.200000	1	0.042000
36.216667	1	0.041875
36.233333	1	0.041875
36.250000	1	0.042875
36.266667	1	0.043750
36.283333	1	0.044875
36.300000	1	0.045375
36.316667	1	0.046125
36.333333	1	0.046625
36.350000	1	0.047250
36.366667	1	0.047750
36.383333	1	0.047250
36.400000	1	0.046875
36.416667	1	0.046750
36.433333	1	0.046750
36.450000	1	0.046125
36.466667	1	0.045375
36.483333	1	0.044625
36.500000	1	0.044000
36.516667	1	0.043375
36.533333	1	0.043000
36.550000	1	0.041875
36.566667	1	0.041250
36.583333	1	0.040125
36.600000	1	0.039250
36.616667	1	0.037875
36.633333	1	0.036500
36.650000	1	0.034750
36.666667	1	0.033500
36.683333	1	0.032250
36.700000	1	0.030500
36.716667	1	0.029375
36.733333	1	0.027000
36.750000	1	0.024875
36.766667	1	0.022625
36.783333	1	0.020375
36.800000	1	0.018000
36.816667	1	0.015750
36.833333	1	0.013375
36.850000	1	0.010625
36.866667	1	0.008250
36.883333	1	0.005250
36.900000	1	0.002500
36.916667	1	0.000000
36.933333	1	-0.002750
36.950000	1	-0.005750
36.966667	1	-0.008750
36.983333	1	-0.012125
37.000000	1	-0.015625
37.016667	1	-0.018875
37.033333	1	-0.022250
37.050000	1	-0.025250
37.066667	1	-0.028000
37.083333	1	-0.031500
37.100000	1	-0.034750
37.116667	1	-0.037500
37.133333	1	-0.040250
37.150000	1	-0.043500
37.166667	1	-0.046875
37.183333	1	-0.050125
37.200000	1	-0.052875
37.216667	1	-0.056000
37.233333	1	-0.058000
37.250000	1	-0.060750
37.266667	1	-0.063250
37.283333	1	-0.065000
37.300000	1	-0.067125
37.316667	1	-0.069375
37.333333	1	-0.071875
37.350000	1	-0.074500
37.366667	1	-0.076375
37.383333	1	-0.077750
37.400000	1	-0.079125
37.416667	1	-0.080375
37.433333	1	-0.081625
37.450000	1	-0.082875
37.466667	1	-0.083500
37.483333	1	-0.083625
37.500000	1	-0.084625
37.516667	1	-0.085375
37.533333	1	-0.085625
37.550000	1	-0.086500
37.566667	1	-0.087250
37.583333	1	-0.087375
37.600000	1	-0.086750
37.616667	1	-0.086875
37.633333	1	-0.086750
37.650000	1	-0.086750
37.666667	1	-0.086625
37.683333	1	-0.085750
37.700000	1	-0.085500
37.716667	1	-0.085125
37.733333	1	-0.084500
37.750000	1	-0.083750
37.766667	1	-0.083250
37.783333	1	-0.082625
37.800000	1	-0.082250
37.816667	1	-0.082000
37.833333	1	-0.081250
37.850000	1	-0.080375
37.866667	1	-0.079500
37.883333	1	-0.078750
37.900000	1	-0.078250
37.916667	1	-0.077125
37.933333	1	-0.076875
37.950000	1	-0.077125
37.966667	1	-0.075625
37.983333	1	-0.073875
38.000000	1	-0.073125
38.016667	1	-0.071625
38.033333	1	-0.070375
38.050000	1	-0.069750
38.066667	1	-0.068375
38.083333	1	-0.067625
38.100000	1	-0.066500
38.116667	1	-0.065375
38.133333	1	-0.063750
38.150000	1	-0.062500
38.166667	1	-0.060875
38.183333	1	-0.060000
38.200000	1	-0.058750
38.216667	1	-0.057625
38.233333	1	-0.056625
38.250000	1	-0.056000
38.266667	1	-0.054000
38.283333	1	-0.053375
38.300000	1	-0.052500
38.316667	1	-0.051375
38.333333	1	-0.050125
38.350000	1	-0.049000
38.366667	1	-0.047875
38.383333	1	-0.047125
38.400000	1	-0.046625
38.416667	1	-0.046125
38.433333	1	-0.045750
38.450000	1	-0.044375
38.466667	1	-0.043500
38.483333	1	-0.043500
38.500000	1	-0.042750
38.516667	1	-0.041750
38.533333	1	-0.041875
38.550000	1	-0.041750
38.566667	1	-0.041875
38.583333	1	-0.041625
38.600000	1	-0.041250
38.616667	1	-0.041375
38.633333	1	-0.041375
38.650000	1	-0.041500
38.666667	1	-0.042125
38.683333	1	-0.041875
38.700000	1	-0.042875
38.716667	1	-0.042750
38.733333	1	-0.042750
38.750000	1	-0.042500
38.766667	1	-0.043125
38.783333	1	-0.043750
38.800000	1	-0.043750
38.816667	1	-0.045000
38.833333	1	-0.045125
38.850000	1	-0.045125
38.866667	1	-0.045375
38.883333	1	-0.045625
38.900000	1	-0.046250
38.916667	1	-0.046750
38.933333	1	-0.046375
38.950000	1	-0.046875
38.966667	1	-0.047500
38.983333	1	-0.048375
39.000000	1	-0.049000
39.016667	1	-0.049500
39.033333	1	-0.049250
39.050000	1	-0.049500
39.066667	1	-0.050125
39.083333	1	-0.050250
39.100000	1	-0.050750
39.116667	1	-0.051500
39.133333	1	-0.052125
39.150000	1	-0.052125
39.166667	1	-0.052250
39.183333	1	-0.052375
39.200000	1	-0.052250
39.216667	1	-0.053125
39.233333	1	-0.054125
39.250000	1	-0.054375
39.266667	1	-0.054500
39.283333	1	-0.054500
39.300000	1	-0.054750
39.316667	1	-0.055000
39.333333	1	-0.055125
39.350000	1	-0.055125
39.366667	1	-0.055750
39.383333	1	-0.056250
39.400000	1	-0.056625
39.416667	1	-0.056250
39.433333	1	-0.056750
39.450000	1	-0.056750
39.466667	1	-0.056750
39.483333	1	-0.056625
39.500000	1	-0.057125
39.516667	1	-0.057125
39.533333	1	-0.057000
39.550000	1	-0.056750
39.566667	1	-0.056375
39.583333	1	-0.056500
39.600000	1	-0.056250
39.616667	1	-0.055750
39.633333	1	-0.055125
39.650000	1	-0.054625
39.666667	1	-0.054375
39.683333	1	-0.053625
39.700000	1	-0.053875
39.716667	1	-0.053250
39.733333	1	-0.052750
39.750000	1	-0.052500
39.766667	1	-0.052500
39.783333	1	-0.052500
39.800000	1	-0.052125
39.816667	1	-0.051875
39.833333	1	-0.051750
39.850000	1	-0.051125
39.866667	1	-0.050375
39.883333	1	-0.049625
39.900000	1	-0.049750
39.916667	1	-0.049875
39.933333	1	-0.049625
39.950000	1	-0.049500
39.966667	1	-0.049875
39.983333	1	-0.049750
40.000000	1	-0.050375
