File Path	chrom://990-75db15j/XVault/Ultimate_3000/1256/20230531_CMO_stabTest _FP08_FP09.seq/277.smp/RI_1.channel/RI_1.chm
Channel	RI_1

Injection Information:
Data Vault	XVault
Injection	FP08_7_s4
Injection Number	40
Position	BE6
Comment	
Processing Method	
Instrument Method	run_25B_method
Type	Unknown
Status	Finished
Injection Date	02.06.2023
Injection Time	15:34:05
Injection Volume (µl)	20.000
Dilution Factor	1.0000
Weight	1.0000

Chromatogram Data Information:
Time Min. (min)	0.000000
Time Max. (min)	40.000000
Data Points	2401
Detector	RI
Generating Data System	Chromeleon 7.2.5.9507
Exporting Data System	Chromeleon 7.2.5.0
Operator	Instrument Controller
Signal Quantity	Refractive 
Signal Unit	µRIU
Signal Min.	-0.373750
Signal Max.	55.045875
Channel	RI_1
Driver Name	RID520Driver.dll
Channel Type	Evaluation
Min. Step (s)	1
Max. Step (s)	1
Average Step (s)	1

Signal Parameter Information:
Signal Info	

Chromatogram Data:
Time (min)	Step (s)	Value (µRIU)
0.000000	n.a.	-0.086125
0.016667	1	-0.088125
0.033333	1	-0.090125
0.050000	1	-0.092875
0.066667	1	-0.094750
0.083333	1	-0.096500
0.100000	1	-0.097750
0.116667	1	-0.100125
0.133333	1	-0.102125
0.150000	1	-0.103625
0.166667	1	-0.105125
0.183333	1	-0.106625
0.200000	1	-0.108125
0.216667	1	-0.108625
0.233333	1	-0.109500
0.250000	1	-0.110250
0.266667	1	-0.111125
0.283333	1	-0.113625
0.300000	1	-0.117000
0.316667	1	-0.121500
0.333333	1	-0.124000
0.350000	1	-0.123750
0.366667	1	-0.121000
0.383333	1	-0.118125
0.400000	1	-0.114875
0.416667	1	-0.112125
0.433333	1	-0.109500
0.450000	1	-0.107375
0.466667	1	-0.107000
0.483333	1	-0.108000
0.500000	1	-0.109375
0.516667	1	-0.111625
0.533333	1	-0.114000
0.550000	1	-0.115500
0.566667	1	-0.117250
0.583333	1	-0.118750
0.600000	1	-0.119750
0.616667	1	-0.120625
0.633333	1	-0.121750
0.650000	1	-0.122750
0.666667	1	-0.123500
0.683333	1	-0.123625
0.700000	1	-0.124375
0.716667	1	-0.124250
0.733333	1	-0.124375
0.750000	1	-0.125250
0.766667	1	-0.125500
0.783333	1	-0.125750
0.800000	1	-0.126500
0.816667	1	-0.126750
0.833333	1	-0.126750
0.850000	1	-0.126625
0.866667	1	-0.126375
0.883333	1	-0.126250
0.900000	1	-0.126000
0.916667	1	-0.126000
0.933333	1	-0.125750
0.950000	1	-0.125750
0.966667	1	-0.125875
0.983333	1	-0.126125
1.000000	1	-0.125375
1.016667	1	-0.125500
1.033333	1	-0.125375
1.050000	1	-0.124375
1.066667	1	-0.123875
1.083333	1	-0.123500
1.100000	1	-0.123750
1.116667	1	-0.122875
1.133333	1	-0.122125
1.150000	1	-0.121750
1.166667	1	-0.122250
1.183333	1	-0.121250
1.200000	1	-0.120875
1.216667	1	-0.120250
1.233333	1	-0.119375
1.250000	1	-0.118125
1.266667	1	-0.117500
1.283333	1	-0.117125
1.300000	1	-0.116875
1.316667	1	-0.116000
1.333333	1	-0.115375
1.350000	1	-0.114250
1.366667	1	-0.113375
1.383333	1	-0.112250
1.400000	1	-0.111750
1.416667	1	-0.110875
1.433333	1	-0.110250
1.450000	1	-0.109375
1.466667	1	-0.108750
1.483333	1	-0.107750
1.500000	1	-0.106375
1.516667	1	-0.105125
1.533333	1	-0.104875
1.550000	1	-0.104125
1.566667	1	-0.103500
1.583333	1	-0.102375
1.600000	1	-0.101375
1.616667	1	-0.101125
1.633333	1	-0.100500
1.650000	1	-0.100250
1.666667	1	-0.100375
1.683333	1	-0.099500
1.700000	1	-0.099250
1.716667	1	-0.099375
1.733333	1	-0.099000
1.750000	1	-0.099125
1.766667	1	-0.099625
1.783333	1	-0.100500
1.800000	1	-0.100500
1.816667	1	-0.100000
1.833333	1	-0.100250
1.850000	1	-0.101250
1.866667	1	-0.101500
1.883333	1	-0.102500
1.900000	1	-0.104125
1.916667	1	-0.104750
1.933333	1	-0.105250
1.950000	1	-0.105625
1.966667	1	-0.106500
1.983333	1	-0.107625
2.000000	1	-0.108625
2.016667	1	-0.109000
2.033333	1	-0.109625
2.050000	1	-0.110250
2.066667	1	-0.111125
2.083333	1	-0.112250
2.100000	1	-0.113250
2.116667	1	-0.113250
2.133333	1	-0.114000
2.150000	1	-0.114750
2.166667	1	-0.115000
2.183333	1	-0.114250
2.200000	1	-0.114125
2.216667	1	-0.114250
2.233333	1	-0.114375
2.250000	1	-0.114500
2.266667	1	-0.113750
2.283333	1	-0.114125
2.300000	1	-0.114250
2.316667	1	-0.114500
2.333333	1	-0.115125
2.350000	1	-0.115375
2.366667	1	-0.115375
2.383333	1	-0.115500
2.400000	1	-0.114750
2.416667	1	-0.114500
2.433333	1	-0.114750
2.450000	1	-0.114750
2.466667	1	-0.115125
2.483333	1	-0.115000
2.500000	1	-0.114875
2.516667	1	-0.115250
2.533333	1	-0.115125
2.550000	1	-0.114500
2.566667	1	-0.114250
2.583333	1	-0.114000
2.600000	1	-0.113500
2.616667	1	-0.112500
2.633333	1	-0.111875
2.650000	1	-0.111000
2.666667	1	-0.110375
2.683333	1	-0.110250
2.700000	1	-0.109875
2.716667	1	-0.108750
2.733333	1	-0.108000
2.750000	1	-0.107500
2.766667	1	-0.106875
2.783333	1	-0.105875
2.800000	1	-0.105000
2.816667	1	-0.104375
2.833333	1	-0.102875
2.850000	1	-0.102125
2.866667	1	-0.100750
2.883333	1	-0.099875
2.900000	1	-0.098250
2.916667	1	-0.097625
2.933333	1	-0.096500
2.950000	1	-0.095625
2.966667	1	-0.095500
2.983333	1	-0.094875
3.000000	1	-0.093625
3.016667	1	-0.092250
3.033333	1	-0.091500
3.050000	1	-0.090875
3.066667	1	-0.090625
3.083333	1	-0.090250
3.100000	1	-0.089500
3.116667	1	-0.088625
3.133333	1	-0.088125
3.150000	1	-0.087500
3.166667	1	-0.087000
3.183333	1	-0.086625
3.200000	1	-0.086250
3.216667	1	-0.085750
3.233333	1	-0.085125
3.250000	1	-0.085250
3.266667	1	-0.086000
3.283333	1	-0.086125
3.300000	1	-0.086000
3.316667	1	-0.086750
3.333333	1	-0.087125
3.350000	1	-0.087250
3.366667	1	-0.087750
3.383333	1	-0.088000
3.400000	1	-0.088375
3.416667	1	-0.088625
3.433333	1	-0.087875
3.450000	1	-0.088125
3.466667	1	-0.088125
3.483333	1	-0.088125
3.500000	1	-0.088750
3.516667	1	-0.088750
3.533333	1	-0.089000
3.550000	1	-0.089250
3.566667	1	-0.089375
3.583333	1	-0.089375
3.600000	1	-0.089500
3.616667	1	-0.089375
3.633333	1	-0.089375
3.650000	1	-0.089125
3.666667	1	-0.089125
3.683333	1	-0.089500
3.700000	1	-0.089500
3.716667	1	-0.089875
3.733333	1	-0.089625
3.750000	1	-0.090125
3.766667	1	-0.090750
3.783333	1	-0.090625
3.800000	1	-0.090375
3.816667	1	-0.090750
3.833333	1	-0.090375
3.850000	1	-0.090375
3.866667	1	-0.091250
3.883333	1	-0.092000
3.900000	1	-0.091625
3.916667	1	-0.092125
3.933333	1	-0.093000
3.950000	1	-0.094125
3.966667	1	-0.094625
3.983333	1	-0.095000
4.000000	1	-0.095500
4.016667	1	-0.095625
4.033333	1	-0.096000
4.050000	1	-0.097750
4.066667	1	-0.099125
4.083333	1	-0.100250
4.100000	1	-0.101500
4.116667	1	-0.102375
4.133333	1	-0.103500
4.150000	1	-0.104250
4.166667	1	-0.104875
4.183333	1	-0.105625
4.200000	1	-0.107125
4.216667	1	-0.108250
4.233333	1	-0.109625
4.250000	1	-0.110500
4.266667	1	-0.111875
4.283333	1	-0.113000
4.300000	1	-0.114125
4.316667	1	-0.114875
4.333333	1	-0.115750
4.350000	1	-0.116500
4.366667	1	-0.117875
4.383333	1	-0.119000
4.400000	1	-0.119875
4.416667	1	-0.120625
4.433333	1	-0.120625
4.450000	1	-0.121125
4.466667	1	-0.121625
4.483333	1	-0.122375
4.500000	1	-0.122250
4.516667	1	-0.122125
4.533333	1	-0.122500
4.550000	1	-0.122375
4.566667	1	-0.122125
4.583333	1	-0.122375
4.600000	1	-0.122250
4.616667	1	-0.121375
4.633333	1	-0.121500
4.650000	1	-0.121875
4.666667	1	-0.121375
4.683333	1	-0.119750
4.700000	1	-0.118750
4.716667	1	-0.117750
4.733333	1	-0.116875
4.750000	1	-0.115250
4.766667	1	-0.113625
4.783333	1	-0.112500
4.800000	1	-0.111375
4.816667	1	-0.110250
4.833333	1	-0.108500
4.850000	1	-0.106750
4.866667	1	-0.105000
4.883333	1	-0.103500
4.900000	1	-0.101750
4.916667	1	-0.099500
4.933333	1	-0.097000
4.950000	1	-0.094875
4.966667	1	-0.092125
4.983333	1	-0.089750
5.000000	1	-0.086625
5.016667	1	-0.084250
5.033333	1	-0.081500
5.050000	1	-0.078500
5.066667	1	-0.075000
5.083333	1	-0.072375
5.100000	1	-0.070125
5.116667	1	-0.067125
5.133333	1	-0.064625
5.150000	1	-0.061875
5.166667	1	-0.059500
5.183333	1	-0.057375
5.200000	1	-0.055000
5.216667	1	-0.052500
5.233333	1	-0.049750
5.250000	1	-0.048250
5.266667	1	-0.046875
5.283333	1	-0.045375
5.300000	1	-0.044125
5.316667	1	-0.042750
5.333333	1	-0.042500
5.350000	1	-0.041375
5.366667	1	-0.040750
5.383333	1	-0.040250
5.400000	1	-0.041000
5.416667	1	-0.041125
5.433333	1	-0.041375
5.450000	1	-0.041375
5.466667	1	-0.042125
5.483333	1	-0.043125
5.500000	1	-0.044625
5.516667	1	-0.045750
5.533333	1	-0.046750
5.550000	1	-0.047250
5.566667	1	-0.048250
5.583333	1	-0.049500
5.600000	1	-0.051000
5.616667	1	-0.052250
5.633333	1	-0.053500
5.650000	1	-0.054875
5.666667	1	-0.056250
5.683333	1	-0.057625
5.700000	1	-0.059500
5.716667	1	-0.060875
5.733333	1	-0.062125
5.750000	1	-0.063125
5.766667	1	-0.064875
5.783333	1	-0.066250
5.800000	1	-0.067250
5.816667	1	-0.067875
5.833333	1	-0.068625
5.850000	1	-0.069875
5.866667	1	-0.070375
5.883333	1	-0.071125
5.900000	1	-0.072750
5.916667	1	-0.073125
5.933333	1	-0.073625
5.950000	1	-0.073750
5.966667	1	-0.074250
5.983333	1	-0.074125
6.000000	1	-0.073875
6.016667	1	-0.074000
6.033333	1	-0.073250
6.050000	1	-0.072375
6.066667	1	-0.071875
6.083333	1	-0.071375
6.100000	1	-0.070625
6.116667	1	-0.070250
6.133333	1	-0.069375
6.150000	1	-0.068500
6.166667	1	-0.068500
6.183333	1	-0.067875
6.200000	1	-0.066875
6.216667	1	-0.065625
6.233333	1	-0.064875
6.250000	1	-0.063625
6.266667	1	-0.063625
6.283333	1	-0.062250
6.300000	1	-0.061125
6.316667	1	-0.060125
6.333333	1	-0.058750
6.350000	1	-0.057875
6.366667	1	-0.056000
6.383333	1	-0.054750
6.400000	1	-0.053375
6.416667	1	-0.052000
6.433333	1	-0.050625
6.450000	1	-0.049000
6.466667	1	-0.047250
6.483333	1	-0.045375
6.500000	1	-0.043875
6.516667	1	-0.042000
6.533333	1	-0.040625
6.550000	1	-0.038750
6.566667	1	-0.037125
6.583333	1	-0.035125
6.600000	1	-0.033375
6.616667	1	-0.031250
6.633333	1	-0.029125
6.650000	1	-0.027500
6.666667	1	-0.025500
6.683333	1	-0.023625
6.700000	1	-0.022875
6.716667	1	-0.021375
6.733333	1	-0.019875
6.750000	1	-0.017875
6.766667	1	-0.016625
6.783333	1	-0.016000
6.800000	1	-0.015375
6.816667	1	-0.015000
6.833333	1	-0.014625
6.850000	1	-0.015000
6.866667	1	-0.015375
6.883333	1	-0.015625
6.900000	1	-0.017250
6.916667	1	-0.018125
6.933333	1	-0.019500
6.950000	1	-0.020125
6.966667	1	-0.021750
6.983333	1	-0.023250
7.000000	1	-0.025750
7.016667	1	-0.028000
7.033333	1	-0.031875
7.050000	1	-0.034875
7.066667	1	-0.037875
7.083333	1	-0.040875
7.100000	1	-0.044125
7.116667	1	-0.047750
7.133333	1	-0.052375
7.150000	1	-0.056125
7.166667	1	-0.059750
7.183333	1	-0.063750
7.200000	1	-0.067875
7.216667	1	-0.072875
7.233333	1	-0.077500
7.250000	1	-0.082000
7.266667	1	-0.086250
7.283333	1	-0.091250
7.300000	1	-0.095500
7.316667	1	-0.099375
7.333333	1	-0.103375
7.350000	1	-0.107750
7.366667	1	-0.110875
7.383333	1	-0.113875
7.400000	1	-0.117375
7.416667	1	-0.120500
7.433333	1	-0.123500
7.450000	1	-0.125625
7.466667	1	-0.128750
7.483333	1	-0.130750
7.500000	1	-0.132875
7.516667	1	-0.134500
7.533333	1	-0.135875
7.550000	1	-0.137000
7.566667	1	-0.138250
7.583333	1	-0.139000
7.600000	1	-0.140375
7.616667	1	-0.141250
7.633333	1	-0.142500
7.650000	1	-0.142875
7.666667	1	-0.142875
7.683333	1	-0.143875
7.700000	1	-0.144250
7.716667	1	-0.144000
7.733333	1	-0.144000
7.750000	1	-0.143875
7.766667	1	-0.143500
7.783333	1	-0.144000
7.800000	1	-0.144000
7.816667	1	-0.144500
7.833333	1	-0.145000
7.850000	1	-0.144750
7.866667	1	-0.144875
7.883333	1	-0.145250
7.900000	1	-0.145125
7.916667	1	-0.144875
7.933333	1	-0.144250
7.950000	1	-0.144625
7.966667	1	-0.144750
7.983333	1	-0.145125
8.000000	1	-0.145500
8.016667	1	-0.145875
8.033333	1	-0.145500
8.050000	1	-0.145250
8.066667	1	-0.145375
8.083333	1	-0.145375
8.100000	1	-0.145125
8.116667	1	-0.145125
8.133333	1	-0.144875
8.150000	1	-0.144250
8.166667	1	-0.143375
8.183333	1	-0.142750
8.200000	1	-0.142875
8.216667	1	-0.141875
8.233333	1	-0.141000
8.250000	1	-0.140375
8.266667	1	-0.139750
8.283333	1	-0.138500
8.300000	1	-0.137500
8.316667	1	-0.136875
8.333333	1	-0.135750
8.350000	1	-0.134375
8.366667	1	-0.131875
8.383333	1	-0.130625
8.400000	1	-0.129000
8.416667	1	-0.126750
8.433333	1	-0.125000
8.450000	1	-0.122750
8.466667	1	-0.119875
8.483333	1	-0.116375
8.500000	1	-0.113500
8.516667	1	-0.110500
8.533333	1	-0.107750
8.550000	1	-0.105000
8.566667	1	-0.102750
8.583333	1	-0.100750
8.600000	1	-0.099250
8.616667	1	-0.097375
8.633333	1	-0.096375
8.650000	1	-0.095750
8.666667	1	-0.094625
8.683333	1	-0.094125
8.700000	1	-0.094125
8.716667	1	-0.094750
8.733333	1	-0.094375
8.750000	1	-0.094375
8.766667	1	-0.095000
8.783333	1	-0.095500
8.800000	1	-0.095250
8.816667	1	-0.096375
8.833333	1	-0.097250
8.850000	1	-0.098000
8.866667	1	-0.099375
8.883333	1	-0.100500
8.900000	1	-0.101875
8.916667	1	-0.102750
8.933333	1	-0.103125
8.950000	1	-0.103875
8.966667	1	-0.104750
8.983333	1	-0.106625
9.000000	1	-0.108500
9.016667	1	-0.109500
9.033333	1	-0.111000
9.050000	1	-0.112000
9.066667	1	-0.112750
9.083333	1	-0.114000
9.100000	1	-0.115125
9.116667	1	-0.116500
9.133333	1	-0.117625
9.150000	1	-0.118500
9.166667	1	-0.119875
9.183333	1	-0.120875
9.200000	1	-0.122250
9.216667	1	-0.122250
9.233333	1	-0.122500
9.250000	1	-0.123375
9.266667	1	-0.124250
9.283333	1	-0.124250
9.300000	1	-0.125250
9.316667	1	-0.126000
9.333333	1	-0.126750
9.350000	1	-0.126875
9.366667	1	-0.126750
9.383333	1	-0.127000
9.400000	1	-0.126375
9.416667	1	-0.125375
9.433333	1	-0.124375
9.450000	1	-0.122875
9.466667	1	-0.120625
9.483333	1	-0.117875
9.500000	1	-0.114125
9.516667	1	-0.110000
9.533333	1	-0.104750
9.550000	1	-0.098375
9.566667	1	-0.090875
9.583333	1	-0.082125
9.600000	1	-0.071750
9.616667	1	-0.060125
9.633333	1	-0.046500
9.650000	1	-0.031000
9.666667	1	-0.014125
9.683333	1	0.005375
9.700000	1	0.026500
9.716667	1	0.049125
9.733333	1	0.072875
9.750000	1	0.095500
9.766667	1	0.116000
9.783333	1	0.132750
9.800000	1	0.146000
9.816667	1	0.154625
9.833333	1	0.156375
9.850000	1	0.151875
9.866667	1	0.137625
9.883333	1	0.114625
9.900000	1	0.085500
9.916667	1	0.065625
9.933333	1	0.084500
9.950000	1	0.188000
9.966667	1	0.434375
9.983333	1	0.887250
10.000000	1	1.607625
10.016667	1	2.647750
10.033333	1	4.047750
10.050000	1	5.830875
10.066667	1	8.010500
10.083333	1	10.585000
10.100000	1	13.540875
10.116667	1	16.850375
10.133333	1	20.466500
10.150000	1	24.324750
10.166667	1	28.338625
10.183333	1	32.391125
10.200000	1	36.337875
10.216667	1	39.999875
10.233333	1	43.172875
10.250000	1	45.645125
10.266667	1	47.230000
10.283333	1	47.793750
10.300000	1	47.285625
10.316667	1	45.756250
10.333333	1	43.350750
10.350000	1	40.280125
10.366667	1	36.793125
10.383333	1	33.130125
10.400000	1	29.496500
10.416667	1	26.048125
10.433333	1	22.885625
10.450000	1	20.059625
10.466667	1	17.578000
10.483333	1	15.424875
10.500000	1	13.568000
10.516667	1	11.970000
10.533333	1	10.593500
10.550000	1	9.403750
10.566667	1	8.370750
10.583333	1	7.472000
10.600000	1	6.689125
10.616667	1	6.008000
10.633333	1	5.415750
10.650000	1	4.902250
10.666667	1	4.457875
10.683333	1	4.073750
10.700000	1	3.741375
10.716667	1	3.453500
10.733333	1	3.203375
10.750000	1	2.983625
10.766667	1	2.790375
10.783333	1	2.620250
10.800000	1	2.468125
10.816667	1	2.331750
10.833333	1	2.209000
10.850000	1	2.097125
10.866667	1	1.995750
10.883333	1	1.903000
10.900000	1	1.818000
10.916667	1	1.739750
10.933333	1	1.668375
10.950000	1	1.602250
10.966667	1	1.540875
10.983333	1	1.484375
11.000000	1	1.432000
11.016667	1	1.382750
11.033333	1	1.337125
11.050000	1	1.296000
11.066667	1	1.256500
11.083333	1	1.220250
11.100000	1	1.187250
11.116667	1	1.155875
11.133333	1	1.126750
11.150000	1	1.098750
11.166667	1	1.073125
11.183333	1	1.049000
11.200000	1	1.026875
11.216667	1	1.005375
11.233333	1	0.984375
11.250000	1	0.965250
11.266667	1	0.947750
11.283333	1	0.931750
11.300000	1	0.916250
11.316667	1	0.901750
11.333333	1	0.888125
11.350000	1	0.875500
11.366667	1	0.863375
11.383333	1	0.853250
11.400000	1	0.844000
11.416667	1	0.835500
11.433333	1	0.828125
11.450000	1	0.822375
11.466667	1	0.817750
11.483333	1	0.813375
11.500000	1	0.810125
11.516667	1	0.808000
11.533333	1	0.806000
11.550000	1	0.805500
11.566667	1	0.805125
11.583333	1	0.805000
11.600000	1	0.805000
11.616667	1	0.806250
11.633333	1	0.807750
11.650000	1	0.808625
11.666667	1	0.810125
11.683333	1	0.811625
11.700000	1	0.813000
11.716667	1	0.814250
11.733333	1	0.814625
11.750000	1	0.815250
11.766667	1	0.815625
11.783333	1	0.816750
11.800000	1	0.818250
11.816667	1	0.820000
11.833333	1	0.822250
11.850000	1	0.825750
11.866667	1	0.830625
11.883333	1	0.836625
11.900000	1	0.844625
11.916667	1	0.853875
11.933333	1	0.865375
11.950000	1	0.879250
11.966667	1	0.895500
11.983333	1	0.914000
12.000000	1	0.934625
12.016667	1	0.958750
12.033333	1	0.986500
12.050000	1	1.018000
12.066667	1	1.055250
12.083333	1	1.099125
12.100000	1	1.150750
12.116667	1	1.212750
12.133333	1	1.286125
12.150000	1	1.373875
12.166667	1	1.479875
12.183333	1	1.604375
12.200000	1	1.751125
12.216667	1	1.920625
12.233333	1	2.113875
12.250000	1	2.333500
12.266667	1	2.580500
12.283333	1	2.856125
12.300000	1	3.161375
12.316667	1	3.499125
12.333333	1	3.871875
12.350000	1	4.282750
12.366667	1	4.733875
12.383333	1	5.228500
12.400000	1	5.767125
12.416667	1	6.348000
12.433333	1	6.966500
12.450000	1	7.613875
12.466667	1	8.278875
12.483333	1	8.942750
12.500000	1	9.583125
12.516667	1	10.177125
12.533333	1	10.700500
12.550000	1	11.132375
12.566667	1	11.461875
12.583333	1	11.684250
12.600000	1	11.803625
12.616667	1	11.829250
12.633333	1	11.776250
12.650000	1	11.657375
12.666667	1	11.487000
12.683333	1	11.277625
12.700000	1	11.039625
12.716667	1	10.782625
12.733333	1	10.514125
12.750000	1	10.239625
12.766667	1	9.964625
12.783333	1	9.691250
12.800000	1	9.422750
12.816667	1	9.160500
12.833333	1	8.907125
12.850000	1	8.662375
12.866667	1	8.425125
12.883333	1	8.194125
12.900000	1	7.969625
12.916667	1	7.749375
12.933333	1	7.532000
12.950000	1	7.315875
12.966667	1	7.099250
12.983333	1	6.882000
13.000000	1	6.660875
13.016667	1	6.435250
13.033333	1	6.203250
13.050000	1	5.961625
13.066667	1	5.708625
13.083333	1	5.441125
13.100000	1	5.157500
13.116667	1	4.854500
13.133333	1	4.529000
13.150000	1	4.180000
13.166667	1	3.808500
13.183333	1	3.419500
13.200000	1	3.026125
13.216667	1	2.649250
13.233333	1	2.309375
13.250000	1	2.018250
13.266667	1	1.780375
13.283333	1	1.590375
13.300000	1	1.439750
13.316667	1	1.319625
13.333333	1	1.223250
13.350000	1	1.143875
13.366667	1	1.077750
13.383333	1	1.021500
13.400000	1	0.973625
13.416667	1	0.932625
13.433333	1	0.897000
13.450000	1	0.865875
13.466667	1	0.838875
13.483333	1	0.815000
13.500000	1	0.794625
13.516667	1	0.777375
13.533333	1	0.762375
13.550000	1	0.751375
13.566667	1	0.743000
13.583333	1	0.735875
13.600000	1	0.731000
13.616667	1	0.727500
13.633333	1	0.725125
13.650000	1	0.723500
13.666667	1	0.722500
13.683333	1	0.721125
13.700000	1	0.718875
13.716667	1	0.714625
13.733333	1	0.709500
13.750000	1	0.704125
13.766667	1	0.696875
13.783333	1	0.688250
13.800000	1	0.678000
13.816667	1	0.667125
13.833333	1	0.655250
13.850000	1	0.642125
13.866667	1	0.629125
13.883333	1	0.615375
13.900000	1	0.601625
13.916667	1	0.588375
13.933333	1	0.574375
13.950000	1	0.561250
13.966667	1	0.549250
13.983333	1	0.536875
14.000000	1	0.526250
14.016667	1	0.516625
14.033333	1	0.508250
14.050000	1	0.500500
14.066667	1	0.493250
14.083333	1	0.488125
14.100000	1	0.483875
14.116667	1	0.481000
14.133333	1	0.479250
14.150000	1	0.479125
14.166667	1	0.480625
14.183333	1	0.484375
14.200000	1	0.490625
14.216667	1	0.499875
14.233333	1	0.512375
14.250000	1	0.529000
14.266667	1	0.550375
14.283333	1	0.576750
14.300000	1	0.609625
14.316667	1	0.650375
14.333333	1	0.699750
14.350000	1	0.758500
14.366667	1	0.828250
14.383333	1	0.911250
14.400000	1	1.008500
14.416667	1	1.121750
14.433333	1	1.253250
14.450000	1	1.404000
14.466667	1	1.576375
14.483333	1	1.774500
14.500000	1	1.999875
14.516667	1	2.256500
14.533333	1	2.549750
14.550000	1	2.883250
14.566667	1	3.267250
14.583333	1	3.709000
14.600000	1	4.223250
14.616667	1	4.826500
14.633333	1	5.542500
14.650000	1	6.397250
14.666667	1	7.424000
14.683333	1	8.659000
14.700000	1	10.141375
14.716667	1	11.906125
14.733333	1	13.987375
14.750000	1	16.407375
14.766667	1	19.172375
14.783333	1	22.267000
14.800000	1	25.658375
14.816667	1	29.288750
14.833333	1	33.075000
14.850000	1	36.912000
14.866667	1	40.675875
14.883333	1	44.233750
14.900000	1	47.455625
14.916667	1	50.216875
14.933333	1	52.414875
14.950000	1	53.976125
14.966667	1	54.856125
14.983333	1	55.045875
15.000000	1	54.568375
15.016667	1	53.471750
15.033333	1	51.824500
15.050000	1	49.710750
15.066667	1	47.224250
15.083333	1	44.460500
15.100000	1	41.514375
15.116667	1	38.473250
15.133333	1	35.411500
15.150000	1	32.391125
15.166667	1	29.467375
15.183333	1	26.678625
15.200000	1	24.052125
15.216667	1	21.602875
15.233333	1	19.340875
15.250000	1	17.268875
15.266667	1	15.383875
15.283333	1	13.681625
15.300000	1	12.155250
15.316667	1	10.792625
15.333333	1	9.582750
15.350000	1	8.511500
15.366667	1	7.568500
15.383333	1	6.740625
15.400000	1	6.017125
15.416667	1	5.385500
15.433333	1	4.836125
15.450000	1	4.360375
15.466667	1	3.949500
15.483333	1	3.595750
15.500000	1	3.293875
15.516667	1	3.036875
15.533333	1	2.819000
15.550000	1	2.634875
15.566667	1	2.479375
15.583333	1	2.347500
15.600000	1	2.235250
15.616667	1	2.138750
15.633333	1	2.054875
15.650000	1	1.979875
15.666667	1	1.910375
15.683333	1	1.845875
15.700000	1	1.785000
15.716667	1	1.725750
15.733333	1	1.668000
15.750000	1	1.609875
15.766667	1	1.553375
15.783333	1	1.498250
15.800000	1	1.443750
15.816667	1	1.390750
15.833333	1	1.339875
15.850000	1	1.292000
15.866667	1	1.246375
15.883333	1	1.202875
15.900000	1	1.162500
15.916667	1	1.124875
15.933333	1	1.090375
15.950000	1	1.058875
15.966667	1	1.030500
15.983333	1	1.005625
16.000000	1	0.983125
16.016667	1	0.964250
16.033333	1	0.949000
16.050000	1	0.936250
16.066667	1	0.926625
16.083333	1	0.919125
16.100000	1	0.915875
16.116667	1	0.914500
16.133333	1	0.915125
16.150000	1	0.918000
16.166667	1	0.922125
16.183333	1	0.927125
16.200000	1	0.931500
16.216667	1	0.934250
16.233333	1	0.936500
16.250000	1	0.936750
16.266667	1	0.935000
16.283333	1	0.931875
16.300000	1	0.926250
16.316667	1	0.919125
16.333333	1	0.910875
16.350000	1	0.901750
16.366667	1	0.891625
16.383333	1	0.880625
16.400000	1	0.868625
16.416667	1	0.857750
16.433333	1	0.846875
16.450000	1	0.837000
16.466667	1	0.827750
16.483333	1	0.819625
16.500000	1	0.812500
16.516667	1	0.806375
16.533333	1	0.801250
16.550000	1	0.797250
16.566667	1	0.794500
16.583333	1	0.792625
16.600000	1	0.792625
16.616667	1	0.792875
16.633333	1	0.794375
16.650000	1	0.795750
16.666667	1	0.798500
16.683333	1	0.801000
16.700000	1	0.804625
16.716667	1	0.809125
16.733333	1	0.812625
16.750000	1	0.816375
16.766667	1	0.819875
16.783333	1	0.823125
16.800000	1	0.826000
16.816667	1	0.827375
16.833333	1	0.827750
16.850000	1	0.827625
16.866667	1	0.826750
16.883333	1	0.825000
16.900000	1	0.822000
16.916667	1	0.818875
16.933333	1	0.816125
16.950000	1	0.813625
16.966667	1	0.812000
16.983333	1	0.810375
17.000000	1	0.810500
17.016667	1	0.810625
17.033333	1	0.811000
17.050000	1	0.812000
17.066667	1	0.813000
17.083333	1	0.814125
17.100000	1	0.814750
17.116667	1	0.815375
17.133333	1	0.814625
17.150000	1	0.813375
17.166667	1	0.810125
17.183333	1	0.806125
17.200000	1	0.801500
17.216667	1	0.795375
17.233333	1	0.788125
17.250000	1	0.780000
17.266667	1	0.771125
17.283333	1	0.761500
17.300000	1	0.751500
17.316667	1	0.741375
17.333333	1	0.731250
17.350000	1	0.721000
17.366667	1	0.711625
17.383333	1	0.702250
17.400000	1	0.694250
17.416667	1	0.686250
17.433333	1	0.679125
17.450000	1	0.673625
17.466667	1	0.668625
17.483333	1	0.664875
17.500000	1	0.662875
17.516667	1	0.662875
17.533333	1	0.664500
17.550000	1	0.667125
17.566667	1	0.671375
17.583333	1	0.677500
17.600000	1	0.684750
17.616667	1	0.694500
17.633333	1	0.705375
17.650000	1	0.717375
17.666667	1	0.730375
17.683333	1	0.744250
17.700000	1	0.759750
17.716667	1	0.775250
17.733333	1	0.791625
17.750000	1	0.807625
17.766667	1	0.824375
17.783333	1	0.841000
17.800000	1	0.856375
17.816667	1	0.872375
17.833333	1	0.887375
17.850000	1	0.900375
17.866667	1	0.911375
17.883333	1	0.920750
17.900000	1	0.928375
17.916667	1	0.933750
17.933333	1	0.937250
17.950000	1	0.937875
17.966667	1	0.936875
17.983333	1	0.934125
18.000000	1	0.928500
18.016667	1	0.921125
18.033333	1	0.911375
18.050000	1	0.900625
18.066667	1	0.888250
18.083333	1	0.874875
18.100000	1	0.860250
18.116667	1	0.845250
18.133333	1	0.829375
18.150000	1	0.813625
18.166667	1	0.797750
18.183333	1	0.781000
18.200000	1	0.765875
18.216667	1	0.751125
18.233333	1	0.736250
18.250000	1	0.722625
18.266667	1	0.710125
18.283333	1	0.698375
18.300000	1	0.688000
18.316667	1	0.678625
18.333333	1	0.670750
18.350000	1	0.663000
18.366667	1	0.656875
18.383333	1	0.652000
18.400000	1	0.648000
18.416667	1	0.644500
18.433333	1	0.641375
18.450000	1	0.638750
18.466667	1	0.637250
18.483333	1	0.636375
18.500000	1	0.636250
18.516667	1	0.635750
18.533333	1	0.635625
18.550000	1	0.636375
18.566667	1	0.637625
18.583333	1	0.639625
18.600000	1	0.641875
18.616667	1	0.644125
18.633333	1	0.647250
18.650000	1	0.650875
18.666667	1	0.654625
18.683333	1	0.659625
18.700000	1	0.664875
18.716667	1	0.670500
18.733333	1	0.677000
18.750000	1	0.683875
18.766667	1	0.691500
18.783333	1	0.700125
18.800000	1	0.708500
18.816667	1	0.718125
18.833333	1	0.727625
18.850000	1	0.737875
18.866667	1	0.749750
18.883333	1	0.762000
18.900000	1	0.775375
18.916667	1	0.790625
18.933333	1	0.807375
18.950000	1	0.827250
18.966667	1	0.849125
18.983333	1	0.873125
19.000000	1	0.900125
19.016667	1	0.928875
19.033333	1	0.961125
19.050000	1	0.996125
19.066667	1	1.034125
19.083333	1	1.073375
19.100000	1	1.113875
19.116667	1	1.155375
19.133333	1	1.197250
19.150000	1	1.239000
19.166667	1	1.278750
19.183333	1	1.315625
19.200000	1	1.348000
19.216667	1	1.377000
19.233333	1	1.401250
19.250000	1	1.419125
19.266667	1	1.431375
19.283333	1	1.437500
19.300000	1	1.435500
19.316667	1	1.428750
19.333333	1	1.415625
19.350000	1	1.396250
19.366667	1	1.371500
19.383333	1	1.341875
19.400000	1	1.307500
19.416667	1	1.269625
19.433333	1	1.229250
19.450000	1	1.186625
19.466667	1	1.142250
19.483333	1	1.096875
19.500000	1	1.051875
19.516667	1	1.007250
19.533333	1	0.964000
19.550000	1	0.922000
19.566667	1	0.883000
19.583333	1	0.846125
19.600000	1	0.812000
19.616667	1	0.780250
19.633333	1	0.752000
19.650000	1	0.727625
19.666667	1	0.706625
19.683333	1	0.689500
19.700000	1	0.675875
19.716667	1	0.666500
19.733333	1	0.661250
19.750000	1	0.660500
19.766667	1	0.664000
19.783333	1	0.671500
19.800000	1	0.683000
19.816667	1	0.698500
19.833333	1	0.717875
19.850000	1	0.739500
19.866667	1	0.763625
19.883333	1	0.789875
19.900000	1	0.818500
19.916667	1	0.847750
19.933333	1	0.878250
19.950000	1	0.909375
19.966667	1	0.940375
19.983333	1	0.970125
20.000000	1	0.999500
20.016667	1	1.028625
20.033333	1	1.057000
20.050000	1	1.085125
20.066667	1	1.113375
20.083333	1	1.142000
20.100000	1	1.171250
20.116667	1	1.202750
20.133333	1	1.236125
20.150000	1	1.273625
20.166667	1	1.317000
20.183333	1	1.365625
20.200000	1	1.421750
20.216667	1	1.486500
20.233333	1	1.561500
20.250000	1	1.646875
20.266667	1	1.744250
20.283333	1	1.853625
20.300000	1	1.975000
20.316667	1	2.106625
20.333333	1	2.249250
20.350000	1	2.400000
20.366667	1	2.557500
20.383333	1	2.718125
20.400000	1	2.877750
20.416667	1	3.032750
20.433333	1	3.180375
20.450000	1	3.316375
20.466667	1	3.436375
20.483333	1	3.537750
20.500000	1	3.616750
20.516667	1	3.672375
20.533333	1	3.702500
20.550000	1	3.707375
20.566667	1	3.688250
20.583333	1	3.645625
20.600000	1	3.581125
20.616667	1	3.497625
20.633333	1	3.398125
20.650000	1	3.287625
20.666667	1	3.168500
20.683333	1	3.044375
20.700000	1	2.919125
20.716667	1	2.795750
20.733333	1	2.676125
20.750000	1	2.564250
20.766667	1	2.461125
20.783333	1	2.367500
20.800000	1	2.284625
20.816667	1	2.212750
20.833333	1	2.151375
20.850000	1	2.100125
20.866667	1	2.057000
20.883333	1	2.020375
20.900000	1	1.989125
20.916667	1	1.960875
20.933333	1	1.933375
20.950000	1	1.904875
20.966667	1	1.875250
20.983333	1	1.841000
21.000000	1	1.802125
21.016667	1	1.758500
21.033333	1	1.710250
21.050000	1	1.655625
21.066667	1	1.596750
21.083333	1	1.534000
21.100000	1	1.467375
21.116667	1	1.399000
21.133333	1	1.328500
21.150000	1	1.257375
21.166667	1	1.186500
21.183333	1	1.117500
21.200000	1	1.049500
21.216667	1	0.984250
21.233333	1	0.921875
21.250000	1	0.863500
21.266667	1	0.808500
21.283333	1	0.757625
21.300000	1	0.709875
21.316667	1	0.666250
21.333333	1	0.626875
21.350000	1	0.591375
21.366667	1	0.558750
21.383333	1	0.529375
21.400000	1	0.504125
21.416667	1	0.481000
21.433333	1	0.460375
21.450000	1	0.442500
21.466667	1	0.427000
21.483333	1	0.413750
21.500000	1	0.402625
21.516667	1	0.392625
21.533333	1	0.383625
21.550000	1	0.375875
21.566667	1	0.370125
21.583333	1	0.365000
21.600000	1	0.360750
21.616667	1	0.357000
21.633333	1	0.354000
21.650000	1	0.351375
21.666667	1	0.349375
21.683333	1	0.347875
21.700000	1	0.346875
21.716667	1	0.347125
21.733333	1	0.348500
21.750000	1	0.350250
21.766667	1	0.352750
21.783333	1	0.355500
21.800000	1	0.359500
21.816667	1	0.363750
21.833333	1	0.368750
21.850000	1	0.374625
21.866667	1	0.381500
21.883333	1	0.389250
21.900000	1	0.397000
21.916667	1	0.405000
21.933333	1	0.412750
21.950000	1	0.420500
21.966667	1	0.427750
21.983333	1	0.434750
22.000000	1	0.440625
22.016667	1	0.446250
22.033333	1	0.450875
22.050000	1	0.454000
22.066667	1	0.456000
22.083333	1	0.456625
22.100000	1	0.456000
22.116667	1	0.453875
22.133333	1	0.451750
22.150000	1	0.447625
22.166667	1	0.443375
22.183333	1	0.439250
22.200000	1	0.433875
22.216667	1	0.428625
22.233333	1	0.423125
22.250000	1	0.417625
22.266667	1	0.412625
22.283333	1	0.407875
22.300000	1	0.403750
22.316667	1	0.400500
22.333333	1	0.397625
22.350000	1	0.395125
22.366667	1	0.393625
22.383333	1	0.393250
22.400000	1	0.393625
22.416667	1	0.394625
22.433333	1	0.395875
22.450000	1	0.398750
22.466667	1	0.401375
22.483333	1	0.404750
22.500000	1	0.408625
22.516667	1	0.412250
22.533333	1	0.416500
22.550000	1	0.421000
22.566667	1	0.425000
22.583333	1	0.428750
22.600000	1	0.432125
22.616667	1	0.436000
22.633333	1	0.439250
22.650000	1	0.442250
22.666667	1	0.445125
22.683333	1	0.447000
22.700000	1	0.448625
22.716667	1	0.449625
22.733333	1	0.450000
22.750000	1	0.450125
22.766667	1	0.449125
22.783333	1	0.447375
22.800000	1	0.445750
22.816667	1	0.442125
22.833333	1	0.438125
22.850000	1	0.434500
22.866667	1	0.429625
22.883333	1	0.424875
22.900000	1	0.420375
22.916667	1	0.415250
22.933333	1	0.409875
22.950000	1	0.404500
22.966667	1	0.399500
22.983333	1	0.394125
23.000000	1	0.389375
23.016667	1	0.385625
23.033333	1	0.382750
23.050000	1	0.380125
23.066667	1	0.378875
23.083333	1	0.378875
23.100000	1	0.380500
23.116667	1	0.382500
23.133333	1	0.385750
23.150000	1	0.390375
23.166667	1	0.396875
23.183333	1	0.405000
23.200000	1	0.414875
23.216667	1	0.426000
23.233333	1	0.439375
23.250000	1	0.455375
23.266667	1	0.473250
23.283333	1	0.494125
23.300000	1	0.517875
23.316667	1	0.543125
23.333333	1	0.571750
23.350000	1	0.604250
23.366667	1	0.639125
23.383333	1	0.677250
23.400000	1	0.719625
23.416667	1	0.767750
23.433333	1	0.820250
23.450000	1	0.879000
23.466667	1	0.943875
23.483333	1	1.017250
23.500000	1	1.099375
23.516667	1	1.190500
23.533333	1	1.292625
23.550000	1	1.407500
23.566667	1	1.535750
23.583333	1	1.680375
23.600000	1	1.840625
23.616667	1	2.019125
23.633333	1	2.216000
23.650000	1	2.432125
23.666667	1	2.667500
23.683333	1	2.922250
23.700000	1	3.195500
23.716667	1	3.484500
23.733333	1	3.787625
23.750000	1	4.100375
23.766667	1	4.419625
23.783333	1	4.740250
23.800000	1	5.056750
23.816667	1	5.364375
23.833333	1	5.656250
23.850000	1	5.927750
23.866667	1	6.171375
23.883333	1	6.384625
23.900000	1	6.561750
23.916667	1	6.699500
23.933333	1	6.794250
23.950000	1	6.845625
23.966667	1	6.853375
23.983333	1	6.816750
24.000000	1	6.738250
24.016667	1	6.620125
24.033333	1	6.465750
24.050000	1	6.278500
24.066667	1	6.063625
24.083333	1	5.825500
24.100000	1	5.567375
24.116667	1	5.295625
24.133333	1	5.013750
24.150000	1	4.726625
24.166667	1	4.439250
24.183333	1	4.154375
24.200000	1	3.876125
24.216667	1	3.605750
24.233333	1	3.346625
24.250000	1	3.100500
24.266667	1	2.869000
24.283333	1	2.650875
24.300000	1	2.448125
24.316667	1	2.260500
24.333333	1	2.087750
24.350000	1	1.929500
24.366667	1	1.786000
24.383333	1	1.654125
24.400000	1	1.535250
24.416667	1	1.427875
24.433333	1	1.331000
24.450000	1	1.244500
24.466667	1	1.166500
24.483333	1	1.096125
24.500000	1	1.032375
24.516667	1	0.974125
24.533333	1	0.920500
24.550000	1	0.872000
24.566667	1	0.827000
24.583333	1	0.785500
24.600000	1	0.746250
24.616667	1	0.710000
24.633333	1	0.675375
24.650000	1	0.643125
24.666667	1	0.612375
24.683333	1	0.582250
24.700000	1	0.554250
24.716667	1	0.527625
24.733333	1	0.501000
24.750000	1	0.476000
24.766667	1	0.452125
24.783333	1	0.429750
24.800000	1	0.407500
24.816667	1	0.386375
24.833333	1	0.366250
24.850000	1	0.347625
24.866667	1	0.329750
24.883333	1	0.313375
24.900000	1	0.297250
24.916667	1	0.282750
24.933333	1	0.268750
24.950000	1	0.256875
24.966667	1	0.245125
24.983333	1	0.235250
25.000000	1	0.224875
25.016667	1	0.216875
25.033333	1	0.209250
25.050000	1	0.202875
25.066667	1	0.198000
25.083333	1	0.192875
25.100000	1	0.189125
25.116667	1	0.185875
25.133333	1	0.183375
25.150000	1	0.181000
25.166667	1	0.179875
25.183333	1	0.179125
25.200000	1	0.179375
25.216667	1	0.179750
25.233333	1	0.180875
25.250000	1	0.182125
25.266667	1	0.184000
25.283333	1	0.186500
25.300000	1	0.189125
25.316667	1	0.191500
25.333333	1	0.194250
25.350000	1	0.196750
25.366667	1	0.199750
25.383333	1	0.202875
25.400000	1	0.205625
25.416667	1	0.208625
25.433333	1	0.211125
25.450000	1	0.213875
25.466667	1	0.216875
25.483333	1	0.219250
25.500000	1	0.221500
25.516667	1	0.223500
25.533333	1	0.225625
25.550000	1	0.227375
25.566667	1	0.228875
25.583333	1	0.229625
25.600000	1	0.230500
25.616667	1	0.231125
25.633333	1	0.231500
25.650000	1	0.231125
25.666667	1	0.230875
25.683333	1	0.230375
25.700000	1	0.230375
25.716667	1	0.228875
25.733333	1	0.227375
25.750000	1	0.225375
25.766667	1	0.224625
25.783333	1	0.222500
25.800000	1	0.220500
25.816667	1	0.217875
25.833333	1	0.215125
25.850000	1	0.211750
25.866667	1	0.208625
25.883333	1	0.204750
25.900000	1	0.200875
25.916667	1	0.196500
25.933333	1	0.191875
25.950000	1	0.186625
25.966667	1	0.180875
25.983333	1	0.175125
26.000000	1	0.169000
26.016667	1	0.163000
26.033333	1	0.156500
26.050000	1	0.150250
26.066667	1	0.143250
26.083333	1	0.136625
26.100000	1	0.130000
26.116667	1	0.123750
26.133333	1	0.117250
26.150000	1	0.111375
26.166667	1	0.106000
26.183333	1	0.101000
26.200000	1	0.096500
26.216667	1	0.091875
26.233333	1	0.088250
26.250000	1	0.085750
26.266667	1	0.083875
26.283333	1	0.082000
26.300000	1	0.081125
26.316667	1	0.081125
26.333333	1	0.081125
26.350000	1	0.082125
26.366667	1	0.083750
26.383333	1	0.085000
26.400000	1	0.087250
26.416667	1	0.089500
26.433333	1	0.092375
26.450000	1	0.095125
26.466667	1	0.097625
26.483333	1	0.099875
26.500000	1	0.102000
26.516667	1	0.104000
26.533333	1	0.106000
26.550000	1	0.107750
26.566667	1	0.108625
26.583333	1	0.110250
26.600000	1	0.111250
26.616667	1	0.111875
26.633333	1	0.112750
26.650000	1	0.113125
26.666667	1	0.114000
26.683333	1	0.114000
26.700000	1	0.114125
26.716667	1	0.113750
26.733333	1	0.113500
26.750000	1	0.113250
26.766667	1	0.113125
26.783333	1	0.113000
26.800000	1	0.112625
26.816667	1	0.113625
26.833333	1	0.113750
26.850000	1	0.114750
26.866667	1	0.116250
26.883333	1	0.118000
26.900000	1	0.119375
26.916667	1	0.121250
26.933333	1	0.123250
26.950000	1	0.126125
26.966667	1	0.128375
26.983333	1	0.132000
27.000000	1	0.135875
27.016667	1	0.140750
27.033333	1	0.146375
27.050000	1	0.151750
27.066667	1	0.157625
27.083333	1	0.164375
27.100000	1	0.171750
27.116667	1	0.179750
27.133333	1	0.188000
27.150000	1	0.197000
27.166667	1	0.207500
27.183333	1	0.217875
27.200000	1	0.228750
27.216667	1	0.241125
27.233333	1	0.254250
27.250000	1	0.268125
27.266667	1	0.282125
27.283333	1	0.297750
27.300000	1	0.313375
27.316667	1	0.330000
27.333333	1	0.348375
27.350000	1	0.367375
27.366667	1	0.387750
27.383333	1	0.409500
27.400000	1	0.431250
27.416667	1	0.456375
27.433333	1	0.482875
27.450000	1	0.511750
27.466667	1	0.543500
27.483333	1	0.577375
27.500000	1	0.614125
27.516667	1	0.654500
27.533333	1	0.698250
27.550000	1	0.746125
27.566667	1	0.799875
27.583333	1	0.858125
27.600000	1	0.922750
27.616667	1	0.994250
27.633333	1	1.072000
27.650000	1	1.156500
27.666667	1	1.247500
27.683333	1	1.345750
27.700000	1	1.450000
27.716667	1	1.561875
27.733333	1	1.679750
27.750000	1	1.804625
27.766667	1	1.933750
27.783333	1	2.066500
27.800000	1	2.202125
27.816667	1	2.340250
27.833333	1	2.477875
27.850000	1	2.613750
27.866667	1	2.746250
27.883333	1	2.873750
27.900000	1	2.994125
27.916667	1	3.106250
27.933333	1	3.207250
27.950000	1	3.296500
27.966667	1	3.371375
27.983333	1	3.431250
28.000000	1	3.474750
28.016667	1	3.501750
28.033333	1	3.511625
28.050000	1	3.502625
28.066667	1	3.476375
28.083333	1	3.432625
28.100000	1	3.372250
28.116667	1	3.295375
28.133333	1	3.204750
28.150000	1	3.100875
28.166667	1	2.986500
28.183333	1	2.862125
28.200000	1	2.729375
28.216667	1	2.590625
28.233333	1	2.447375
28.250000	1	2.301750
28.266667	1	2.154875
28.283333	1	2.009250
28.300000	1	1.865125
28.316667	1	1.724375
28.333333	1	1.587625
28.350000	1	1.456875
28.366667	1	1.332000
28.383333	1	1.213125
28.400000	1	1.100625
28.416667	1	0.994875
28.433333	1	0.895875
28.450000	1	0.803500
28.466667	1	0.716625
28.483333	1	0.635750
28.500000	1	0.560750
28.516667	1	0.491250
28.533333	1	0.425750
28.550000	1	0.365000
28.566667	1	0.309750
28.583333	1	0.256875
28.600000	1	0.207500
28.616667	1	0.160375
28.633333	1	0.115625
28.650000	1	0.073375
28.666667	1	0.033250
28.683333	1	-0.005750
28.700000	1	-0.042000
28.716667	1	-0.076375
28.733333	1	-0.109875
28.750000	1	-0.141500
28.766667	1	-0.170875
28.783333	1	-0.199125
28.800000	1	-0.225875
28.816667	1	-0.249750
28.833333	1	-0.272000
28.850000	1	-0.292875
28.866667	1	-0.311625
28.883333	1	-0.328000
28.900000	1	-0.341750
28.916667	1	-0.353375
28.933333	1	-0.362125
28.950000	1	-0.368250
28.966667	1	-0.372375
28.983333	1	-0.373750
29.000000	1	-0.372500
29.016667	1	-0.368625
29.033333	1	-0.362125
29.050000	1	-0.353375
29.066667	1	-0.341875
29.083333	1	-0.328125
29.100000	1	-0.312000
29.116667	1	-0.293875
29.133333	1	-0.274250
29.150000	1	-0.253875
29.166667	1	-0.231375
29.183333	1	-0.207625
29.200000	1	-0.183250
29.216667	1	-0.157500
29.233333	1	-0.131125
29.250000	1	-0.104000
29.266667	1	-0.076625
29.283333	1	-0.049125
29.300000	1	-0.022125
29.316667	1	0.005000
29.333333	1	0.032250
29.350000	1	0.058625
29.366667	1	0.084375
29.383333	1	0.110125
29.400000	1	0.135125
29.416667	1	0.159500
29.433333	1	0.182125
29.450000	1	0.204750
29.466667	1	0.226000
29.483333	1	0.246250
29.500000	1	0.265125
29.516667	1	0.282875
29.533333	1	0.299875
29.550000	1	0.314750
29.566667	1	0.328875
29.583333	1	0.342125
29.600000	1	0.354125
29.616667	1	0.364125
29.633333	1	0.373625
29.650000	1	0.381625
29.666667	1	0.388750
29.683333	1	0.394250
29.700000	1	0.399000
29.716667	1	0.402250
29.733333	1	0.404750
29.750000	1	0.406500
29.766667	1	0.406875
29.783333	1	0.406000
29.800000	1	0.405375
29.816667	1	0.404250
29.833333	1	0.402375
29.850000	1	0.398875
29.866667	1	0.394750
29.883333	1	0.390500
29.900000	1	0.386000
29.916667	1	0.381125
29.933333	1	0.376750
29.950000	1	0.372000
29.966667	1	0.367750
29.983333	1	0.362750
30.000000	1	0.357875
30.016667	1	0.352875
30.033333	1	0.348500
30.050000	1	0.344750
30.066667	1	0.340625
30.083333	1	0.335875
30.100000	1	0.331625
30.116667	1	0.327750
30.133333	1	0.324625
30.150000	1	0.321750
30.166667	1	0.318250
30.183333	1	0.315875
30.200000	1	0.313500
30.216667	1	0.311875
30.233333	1	0.310125
30.250000	1	0.308875
30.266667	1	0.306875
30.283333	1	0.305750
30.300000	1	0.304000
30.316667	1	0.303250
30.333333	1	0.302750
30.350000	1	0.303500
30.366667	1	0.304500
30.383333	1	0.305375
30.400000	1	0.306000
30.416667	1	0.307875
30.433333	1	0.310375
30.450000	1	0.313250
30.466667	1	0.315750
30.483333	1	0.319000
30.500000	1	0.322750
30.516667	1	0.327000
30.533333	1	0.332375
30.550000	1	0.337375
30.566667	1	0.343625
30.583333	1	0.349500
30.600000	1	0.355875
30.616667	1	0.362125
30.633333	1	0.368875
30.650000	1	0.375625
30.666667	1	0.382000
30.683333	1	0.388375
30.700000	1	0.395625
30.716667	1	0.402125
30.733333	1	0.408625
30.750000	1	0.415375
30.766667	1	0.420625
30.783333	1	0.425000
30.800000	1	0.428625
30.816667	1	0.431750
30.833333	1	0.434500
30.850000	1	0.435750
30.866667	1	0.436250
30.883333	1	0.434875
30.900000	1	0.433125
30.916667	1	0.430625
30.933333	1	0.425750
30.950000	1	0.421500
30.966667	1	0.416875
30.983333	1	0.410875
31.000000	1	0.403750
31.016667	1	0.395000
31.033333	1	0.385625
31.050000	1	0.374875
31.066667	1	0.364125
31.083333	1	0.354000
31.100000	1	0.343250
31.116667	1	0.332000
31.133333	1	0.322125
31.150000	1	0.312750
31.166667	1	0.302500
31.183333	1	0.292125
31.200000	1	0.282500
31.216667	1	0.273000
31.233333	1	0.263625
31.250000	1	0.255375
31.266667	1	0.247750
31.283333	1	0.240125
31.300000	1	0.233250
31.316667	1	0.226750
31.333333	1	0.221000
31.350000	1	0.215625
31.366667	1	0.210750
31.383333	1	0.206625
31.400000	1	0.201125
31.416667	1	0.197625
31.433333	1	0.195875
31.450000	1	0.192875
31.466667	1	0.192000
31.483333	1	0.191000
31.500000	1	0.190500
31.516667	1	0.189875
31.533333	1	0.189375
31.550000	1	0.190125
31.566667	1	0.191375
31.583333	1	0.192750
31.600000	1	0.195000
31.616667	1	0.198000
31.633333	1	0.200125
31.650000	1	0.202750
31.666667	1	0.204625
31.683333	1	0.208625
31.700000	1	0.212375
31.716667	1	0.216125
31.733333	1	0.220500
31.750000	1	0.225250
31.766667	1	0.229875
31.783333	1	0.233000
31.800000	1	0.235750
31.816667	1	0.240375
31.833333	1	0.244000
31.850000	1	0.249250
31.866667	1	0.254125
31.883333	1	0.259250
31.900000	1	0.264500
31.916667	1	0.269375
31.933333	1	0.274375
31.950000	1	0.278000
31.966667	1	0.282125
31.983333	1	0.286000
32.000000	1	0.287750
32.016667	1	0.288750
32.033333	1	0.289500
32.050000	1	0.289625
32.066667	1	0.290000
32.083333	1	0.289625
32.100000	1	0.288750
32.116667	1	0.286750
32.133333	1	0.283875
32.150000	1	0.280625
32.166667	1	0.277250
32.183333	1	0.272875
32.200000	1	0.268375
32.216667	1	0.263625
32.233333	1	0.256625
32.250000	1	0.249750
32.266667	1	0.243625
32.283333	1	0.236500
32.300000	1	0.228125
32.316667	1	0.219625
32.333333	1	0.209750
32.350000	1	0.199250
32.366667	1	0.188750
32.383333	1	0.180750
32.400000	1	0.172375
32.416667	1	0.163250
32.433333	1	0.153250
32.450000	1	0.143125
32.466667	1	0.132500
32.483333	1	0.122500
32.500000	1	0.113750
32.516667	1	0.104875
32.533333	1	0.097000
32.550000	1	0.089000
32.566667	1	0.081500
32.583333	1	0.073875
32.600000	1	0.066250
32.616667	1	0.059625
32.633333	1	0.053875
32.650000	1	0.047875
32.666667	1	0.042000
32.683333	1	0.036375
32.700000	1	0.031625
32.716667	1	0.027375
32.733333	1	0.022625
32.750000	1	0.018375
32.766667	1	0.015000
32.783333	1	0.011625
32.800000	1	0.008125
32.816667	1	0.004625
32.833333	1	0.001500
32.850000	1	-0.000875
32.866667	1	-0.002750
32.883333	1	-0.004625
32.900000	1	-0.006125
32.916667	1	-0.007625
32.933333	1	-0.009250
32.950000	1	-0.010500
32.966667	1	-0.011250
32.983333	1	-0.011875
33.000000	1	-0.013000
33.016667	1	-0.013375
33.033333	1	-0.013875
33.050000	1	-0.014000
33.066667	1	-0.014250
33.083333	1	-0.014875
33.100000	1	-0.014875
33.116667	1	-0.014625
33.133333	1	-0.015000
33.150000	1	-0.014750
33.166667	1	-0.014250
33.183333	1	-0.013125
33.200000	1	-0.012625
33.216667	1	-0.013000
33.233333	1	-0.013000
33.250000	1	-0.013125
33.266667	1	-0.013375
33.283333	1	-0.012625
33.300000	1	-0.012750
33.316667	1	-0.012750
33.333333	1	-0.012000
33.350000	1	-0.011250
33.366667	1	-0.010875
33.383333	1	-0.010625
33.400000	1	-0.010625
33.416667	1	-0.010000
33.433333	1	-0.009500
33.450000	1	-0.009625
33.466667	1	-0.008500
33.483333	1	-0.008250
33.500000	1	-0.008250
33.516667	1	-0.007875
33.533333	1	-0.007625
33.550000	1	-0.007875
33.566667	1	-0.007250
33.583333	1	-0.006750
33.600000	1	-0.006250
33.616667	1	-0.006500
33.633333	1	-0.005375
33.650000	1	-0.004250
33.666667	1	-0.003750
33.683333	1	-0.003375
33.700000	1	-0.002250
33.716667	1	-0.001625
33.733333	1	-0.001375
33.750000	1	-0.000250
33.766667	1	0.001125
33.783333	1	0.002000
33.800000	1	0.002750
33.816667	1	0.004000
33.833333	1	0.004000
33.850000	1	0.004250
33.866667	1	0.004875
33.883333	1	0.006000
33.900000	1	0.007625
33.916667	1	0.008750
33.933333	1	0.009625
33.950000	1	0.010250
33.966667	1	0.011000
33.983333	1	0.012500
34.000000	1	0.013500
34.016667	1	0.014250
34.033333	1	0.014250
34.050000	1	0.015500
34.066667	1	0.016625
34.083333	1	0.017125
34.100000	1	0.017750
34.116667	1	0.018750
34.133333	1	0.019750
34.150000	1	0.020375
34.166667	1	0.022000
34.183333	1	0.022375
34.200000	1	0.023625
34.216667	1	0.024875
34.233333	1	0.026125
34.250000	1	0.026500
34.266667	1	0.027500
34.283333	1	0.028625
34.300000	1	0.029125
34.316667	1	0.029625
34.333333	1	0.030750
34.350000	1	0.032000
34.366667	1	0.033000
34.383333	1	0.034000
34.400000	1	0.034250
34.416667	1	0.034250
34.433333	1	0.034375
34.450000	1	0.035125
34.466667	1	0.035250
34.483333	1	0.035250
34.500000	1	0.035750
34.516667	1	0.036125
34.533333	1	0.036375
34.550000	1	0.037125
34.566667	1	0.036250
34.583333	1	0.036625
34.600000	1	0.037000
34.616667	1	0.036875
34.633333	1	0.036250
34.650000	1	0.036000
34.666667	1	0.036000
34.683333	1	0.036500
34.700000	1	0.037250
34.716667	1	0.037750
34.733333	1	0.038375
34.750000	1	0.039000
34.766667	1	0.039750
34.783333	1	0.040625
34.800000	1	0.041500
34.816667	1	0.042000
34.833333	1	0.042750
34.850000	1	0.044625
34.866667	1	0.046375
34.883333	1	0.047750
34.900000	1	0.048875
34.916667	1	0.050875
34.933333	1	0.053000
34.950000	1	0.055125
34.966667	1	0.056750
34.983333	1	0.059000
35.000000	1	0.061125
35.016667	1	0.063000
35.033333	1	0.065875
35.050000	1	0.068875
35.066667	1	0.071500
35.083333	1	0.073750
35.100000	1	0.076375
35.116667	1	0.078875
35.133333	1	0.081625
35.150000	1	0.084875
35.166667	1	0.087750
35.183333	1	0.090875
35.200000	1	0.093500
35.216667	1	0.095625
35.233333	1	0.097750
35.250000	1	0.100875
35.266667	1	0.103125
35.283333	1	0.105250
35.300000	1	0.107500
35.316667	1	0.109500
35.333333	1	0.111000
35.350000	1	0.112625
35.366667	1	0.113500
35.383333	1	0.114875
35.400000	1	0.116125
35.416667	1	0.117250
35.433333	1	0.116875
35.450000	1	0.117125
35.466667	1	0.118000
35.483333	1	0.118250
35.500000	1	0.117875
35.516667	1	0.117625
35.533333	1	0.117250
35.550000	1	0.116875
35.566667	1	0.116375
35.583333	1	0.115875
35.600000	1	0.114875
35.616667	1	0.114625
35.633333	1	0.113750
35.650000	1	0.113250
35.666667	1	0.112625
35.683333	1	0.111750
35.700000	1	0.110875
35.716667	1	0.109750
35.733333	1	0.108625
35.750000	1	0.108125
35.766667	1	0.107000
35.783333	1	0.105625
35.800000	1	0.104375
35.816667	1	0.103375
35.833333	1	0.101875
35.850000	1	0.101375
35.866667	1	0.100250
35.883333	1	0.099750
35.900000	1	0.098625
35.916667	1	0.097625
35.933333	1	0.096375
35.950000	1	0.095250
35.966667	1	0.093750
35.983333	1	0.093000
36.000000	1	0.092125
36.016667	1	0.091000
36.033333	1	0.090375
36.050000	1	0.089375
36.066667	1	0.087750
36.083333	1	0.087250
36.100000	1	0.086000
36.116667	1	0.084750
36.133333	1	0.083000
36.150000	1	0.081125
36.166667	1	0.079375
36.183333	1	0.078000
36.200000	1	0.076375
36.216667	1	0.074750
36.233333	1	0.073250
36.250000	1	0.071625
36.266667	1	0.069625
36.283333	1	0.068125
36.300000	1	0.066125
36.316667	1	0.064125
36.333333	1	0.062000
36.350000	1	0.060375
36.366667	1	0.058750
36.383333	1	0.056625
36.400000	1	0.055125
36.416667	1	0.053250
36.433333	1	0.051625
36.450000	1	0.049875
36.466667	1	0.048625
36.483333	1	0.046875
36.500000	1	0.046125
36.516667	1	0.045875
36.533333	1	0.044750
36.550000	1	0.043875
36.566667	1	0.042250
36.583333	1	0.041000
36.600000	1	0.039375
36.616667	1	0.038500
36.633333	1	0.037000
36.650000	1	0.035750
36.666667	1	0.034125
36.683333	1	0.032500
36.700000	1	0.030375
36.716667	1	0.028375
36.733333	1	0.025750
36.750000	1	0.024000
36.766667	1	0.021000
36.783333	1	0.018625
36.800000	1	0.016125
36.816667	1	0.012750
36.833333	1	0.009500
36.850000	1	0.005875
36.866667	1	0.002500
36.883333	1	-0.001500
36.900000	1	-0.004875
36.916667	1	-0.008500
36.933333	1	-0.011875
36.950000	1	-0.016375
36.966667	1	-0.019625
36.983333	1	-0.023625
37.000000	1	-0.027625
37.016667	1	-0.030875
37.033333	1	-0.033750
37.050000	1	-0.036375
37.066667	1	-0.040125
37.083333	1	-0.043125
37.100000	1	-0.046000
37.116667	1	-0.048875
37.133333	1	-0.051250
37.150000	1	-0.054375
37.166667	1	-0.056500
37.183333	1	-0.058625
37.200000	1	-0.060750
37.216667	1	-0.062625
37.233333	1	-0.064500
37.250000	1	-0.066125
37.266667	1	-0.067750
37.283333	1	-0.068750
37.300000	1	-0.069500
37.316667	1	-0.070375
37.333333	1	-0.071125
37.350000	1	-0.072000
37.366667	1	-0.072750
37.383333	1	-0.074500
37.400000	1	-0.074750
37.416667	1	-0.075375
37.433333	1	-0.076250
37.450000	1	-0.076625
37.466667	1	-0.076625
37.483333	1	-0.076500
37.500000	1	-0.076750
37.516667	1	-0.076875
37.533333	1	-0.076625
37.550000	1	-0.076625
37.566667	1	-0.076625
37.583333	1	-0.076750
37.600000	1	-0.076000
37.616667	1	-0.075750
37.633333	1	-0.074625
37.650000	1	-0.073875
37.666667	1	-0.073000
37.683333	1	-0.073000
37.700000	1	-0.072625
37.716667	1	-0.072000
37.733333	1	-0.071125
37.750000	1	-0.070750
37.766667	1	-0.070250
37.783333	1	-0.069375
37.800000	1	-0.068750
37.816667	1	-0.068125
37.833333	1	-0.067375
37.850000	1	-0.066250
37.866667	1	-0.064625
37.883333	1	-0.063000
37.900000	1	-0.061875
37.916667	1	-0.060875
37.933333	1	-0.059375
37.950000	1	-0.058375
37.966667	1	-0.057250
37.983333	1	-0.055750
38.000000	1	-0.053500
38.016667	1	-0.051875
38.033333	1	-0.050375
38.050000	1	-0.048500
38.066667	1	-0.046375
38.083333	1	-0.044500
38.100000	1	-0.042875
38.116667	1	-0.040750
38.133333	1	-0.039375
38.150000	1	-0.038000
38.166667	1	-0.036375
38.183333	1	-0.034750
38.200000	1	-0.033625
38.216667	1	-0.032250
38.233333	1	-0.031000
38.250000	1	-0.029875
38.266667	1	-0.028625
38.283333	1	-0.027625
38.300000	1	-0.026625
38.316667	1	-0.026250
38.333333	1	-0.025375
38.350000	1	-0.024875
38.366667	1	-0.024000
38.383333	1	-0.023750
38.400000	1	-0.023750
38.416667	1	-0.024125
38.433333	1	-0.023875
38.450000	1	-0.023625
38.466667	1	-0.023250
38.483333	1	-0.023625
38.500000	1	-0.023000
38.516667	1	-0.022875
38.533333	1	-0.023125
38.550000	1	-0.023500
38.566667	1	-0.023875
38.583333	1	-0.024375
38.600000	1	-0.024625
38.616667	1	-0.024500
38.633333	1	-0.024250
38.650000	1	-0.023625
38.666667	1	-0.023750
38.683333	1	-0.023875
38.700000	1	-0.024125
38.716667	1	-0.024000
38.733333	1	-0.023875
38.750000	1	-0.024500
38.766667	1	-0.024625
38.783333	1	-0.024625
38.800000	1	-0.025125
38.816667	1	-0.025125
38.833333	1	-0.024750
38.850000	1	-0.024750
38.866667	1	-0.024625
38.883333	1	-0.024250
38.900000	1	-0.024750
38.916667	1	-0.025125
38.933333	1	-0.026125
38.950000	1	-0.026500
38.966667	1	-0.027250
38.983333	1	-0.027750
39.000000	1	-0.028625
39.016667	1	-0.029000
39.033333	1	-0.029500
39.050000	1	-0.029750
39.066667	1	-0.030500
39.083333	1	-0.031000
39.100000	1	-0.031875
39.116667	1	-0.033125
39.133333	1	-0.034000
39.150000	1	-0.034875
39.166667	1	-0.035875
39.183333	1	-0.037000
39.200000	1	-0.038250
39.216667	1	-0.039375
39.233333	1	-0.040125
39.250000	1	-0.040500
39.266667	1	-0.040250
39.283333	1	-0.040625
39.300000	1	-0.041250
39.316667	1	-0.041375
39.333333	1	-0.042250
39.350000	1	-0.042875
39.366667	1	-0.043250
39.383333	1	-0.043625
39.400000	1	-0.043500
39.416667	1	-0.044375
39.433333	1	-0.044125
39.450000	1	-0.044000
39.466667	1	-0.043625
39.483333	1	-0.043375
39.500000	1	-0.042625
39.516667	1	-0.042500
39.533333	1	-0.042125
39.550000	1	-0.041750
39.566667	1	-0.041125
39.583333	1	-0.040500
39.600000	1	-0.039000
39.616667	1	-0.038500
39.633333	1	-0.038125
39.650000	1	-0.037875
39.666667	1	-0.037250
39.683333	1	-0.036750
39.700000	1	-0.035750
39.716667	1	-0.034875
39.733333	1	-0.034250
39.750000	1	-0.034500
39.766667	1	-0.034500
39.783333	1	-0.035125
39.800000	1	-0.034750
39.816667	1	-0.034875
39.833333	1	-0.033625
39.850000	1	-0.032750
39.866667	1	-0.031875
39.883333	1	-0.032000
39.900000	1	-0.032500
39.916667	1	-0.031750
39.933333	1	-0.031875
39.950000	1	-0.031625
39.966667	1	-0.031375
39.983333	1	-0.031625
40.000000	1	-0.032125
