File Path	chrom://marshall/Chromeleon7/HPLC_Ultimate_3000/Users/markusar/20230610_CMO_FP11_FP12.seq/928.smp/RI_1.channel/RI_1.chm
Channel	RI_1

Injection Information:
Data Vault	Chromeleon7
Injection	FP11_7_S2
Injection Number	3
Position	BA2
Comment	
Processing Method	
Instrument Method	run_25B_method
Type	Unknown
Status	Finished
Injection Date	10.06.2023
Injection Time	20:05:48
Injection Volume (µl)	20.000
Dilution Factor	1.0000
Weight	1.0000

Chromatogram Data Information:
Time Min. (min)	0.000000
Time Max. (min)	40.000000
Data Points	2401
Detector	RI
Generating Data System	Chromeleon 7.2.5.9507
Exporting Data System	Chromeleon 7.2.5.0
Operator	Instrument Controller
Signal Quantity	Refractive 
Signal Unit	µRIU
Signal Min.	-1.195125
Signal Max.	45.871125
Channel	RI_1
Driver Name	RID520Driver.dll
Channel Type	Evaluation
Min. Step (s)	1
Max. Step (s)	1
Average Step (s)	1

Signal Parameter Information:
Signal Info	

Chromatogram Data:
Time (min)	Step (s)	Value (µRIU)
0.000000	n.a.	-0.032000
0.016667	1	-0.031875
0.033333	1	-0.032125
0.050000	1	-0.032375
0.066667	1	-0.032000
0.083333	1	-0.032250
0.100000	1	-0.032000
0.116667	1	-0.031750
0.133333	1	-0.031500
0.150000	1	-0.032000
0.166667	1	-0.031875
0.183333	1	-0.031250
0.200000	1	-0.031000
0.216667	1	-0.031250
0.233333	1	-0.030750
0.250000	1	-0.030750
0.266667	1	-0.030375
0.283333	1	-0.030000
0.300000	1	-0.030250
0.316667	1	-0.031000
0.333333	1	-0.033000
0.350000	1	-0.036125
0.366667	1	-0.038875
0.383333	1	-0.039500
0.400000	1	-0.037500
0.416667	1	-0.034250
0.433333	1	-0.031000
0.450000	1	-0.027750
0.466667	1	-0.025750
0.483333	1	-0.023875
0.500000	1	-0.022500
0.516667	1	-0.020875
0.533333	1	-0.020500
0.550000	1	-0.021875
0.566667	1	-0.024500
0.583333	1	-0.026625
0.600000	1	-0.029125
0.616667	1	-0.030875
0.633333	1	-0.033000
0.650000	1	-0.034000
0.666667	1	-0.035250
0.683333	1	-0.036375
0.700000	1	-0.038375
0.716667	1	-0.039375
0.733333	1	-0.040625
0.750000	1	-0.041875
0.766667	1	-0.043750
0.783333	1	-0.045125
0.800000	1	-0.046375
0.816667	1	-0.047875
0.833333	1	-0.048875
0.850000	1	-0.050500
0.866667	1	-0.051875
0.883333	1	-0.053000
0.900000	1	-0.054375
0.916667	1	-0.056625
0.933333	1	-0.058000
0.950000	1	-0.058750
0.966667	1	-0.059875
0.983333	1	-0.061625
1.000000	1	-0.062875
1.016667	1	-0.063875
1.033333	1	-0.064625
1.050000	1	-0.065625
1.066667	1	-0.066500
1.083333	1	-0.067875
1.100000	1	-0.069500
1.116667	1	-0.070250
1.133333	1	-0.071500
1.150000	1	-0.071750
1.166667	1	-0.072000
1.183333	1	-0.072875
1.200000	1	-0.073750
1.216667	1	-0.074125
1.233333	1	-0.074125
1.250000	1	-0.074250
1.266667	1	-0.074625
1.283333	1	-0.074500
1.300000	1	-0.074625
1.316667	1	-0.075250
1.333333	1	-0.074750
1.350000	1	-0.074750
1.366667	1	-0.074500
1.383333	1	-0.074125
1.400000	1	-0.074125
1.416667	1	-0.074000
1.433333	1	-0.073500
1.450000	1	-0.073125
1.466667	1	-0.073000
1.483333	1	-0.072250
1.500000	1	-0.071375
1.516667	1	-0.070875
1.533333	1	-0.070500
1.550000	1	-0.070000
1.566667	1	-0.070000
1.583333	1	-0.070375
1.600000	1	-0.069875
1.616667	1	-0.069125
1.633333	1	-0.068625
1.650000	1	-0.067875
1.666667	1	-0.067375
1.683333	1	-0.067250
1.700000	1	-0.066875
1.716667	1	-0.066875
1.733333	1	-0.066000
1.750000	1	-0.066125
1.766667	1	-0.065625
1.783333	1	-0.064875
1.800000	1	-0.064250
1.816667	1	-0.063375
1.833333	1	-0.062625
1.850000	1	-0.061750
1.866667	1	-0.061625
1.883333	1	-0.060625
1.900000	1	-0.059750
1.916667	1	-0.058750
1.933333	1	-0.058375
1.950000	1	-0.057500
1.966667	1	-0.057000
1.983333	1	-0.056250
2.000000	1	-0.055750
2.016667	1	-0.055000
2.033333	1	-0.053875
2.050000	1	-0.053250
2.066667	1	-0.053125
2.083333	1	-0.052125
2.100000	1	-0.051250
2.116667	1	-0.050500
2.133333	1	-0.050125
2.150000	1	-0.049500
2.166667	1	-0.049125
2.183333	1	-0.048625
2.200000	1	-0.048500
2.216667	1	-0.047750
2.233333	1	-0.047500
2.250000	1	-0.046875
2.266667	1	-0.047000
2.283333	1	-0.045500
2.300000	1	-0.045125
2.316667	1	-0.044625
2.333333	1	-0.044500
2.350000	1	-0.044750
2.366667	1	-0.044875
2.383333	1	-0.044625
2.400000	1	-0.044875
2.416667	1	-0.044000
2.433333	1	-0.043250
2.450000	1	-0.042875
2.466667	1	-0.043000
2.483333	1	-0.042750
2.500000	1	-0.042125
2.516667	1	-0.042375
2.533333	1	-0.041750
2.550000	1	-0.041500
2.566667	1	-0.040750
2.583333	1	-0.040250
2.600000	1	-0.040250
2.616667	1	-0.039625
2.633333	1	-0.039000
2.650000	1	-0.038125
2.666667	1	-0.037250
2.683333	1	-0.037250
2.700000	1	-0.036125
2.716667	1	-0.035250
2.733333	1	-0.035000
2.750000	1	-0.034250
2.766667	1	-0.033250
2.783333	1	-0.032500
2.800000	1	-0.032500
2.816667	1	-0.032125
2.833333	1	-0.031375
2.850000	1	-0.030500
2.866667	1	-0.029875
2.883333	1	-0.029625
2.900000	1	-0.029000
2.916667	1	-0.028625
2.933333	1	-0.028500
2.950000	1	-0.027375
2.966667	1	-0.027125
2.983333	1	-0.026500
3.000000	1	-0.026250
3.016667	1	-0.026000
3.033333	1	-0.026125
3.050000	1	-0.026250
3.066667	1	-0.026250
3.083333	1	-0.026000
3.100000	1	-0.026500
3.116667	1	-0.026875
3.133333	1	-0.026875
3.150000	1	-0.027000
3.166667	1	-0.027000
3.183333	1	-0.027375
3.200000	1	-0.028000
3.216667	1	-0.028500
3.233333	1	-0.029250
3.250000	1	-0.030000
3.266667	1	-0.030375
3.283333	1	-0.031750
3.300000	1	-0.032625
3.316667	1	-0.033250
3.333333	1	-0.034500
3.350000	1	-0.035375
3.366667	1	-0.037000
3.383333	1	-0.037625
3.400000	1	-0.038250
3.416667	1	-0.038875
3.433333	1	-0.039625
3.450000	1	-0.040500
3.466667	1	-0.041375
3.483333	1	-0.042500
3.500000	1	-0.043875
3.516667	1	-0.045000
3.533333	1	-0.046250
3.550000	1	-0.046750
3.566667	1	-0.046750
3.583333	1	-0.046500
3.600000	1	-0.047500
3.616667	1	-0.047875
3.633333	1	-0.048875
3.650000	1	-0.049500
3.666667	1	-0.049750
3.683333	1	-0.050625
3.700000	1	-0.051000
3.716667	1	-0.050625
3.733333	1	-0.050500
3.750000	1	-0.050375
3.766667	1	-0.051250
3.783333	1	-0.051500
3.800000	1	-0.051750
3.816667	1	-0.051875
3.833333	1	-0.051750
3.850000	1	-0.052000
3.866667	1	-0.051125
3.883333	1	-0.051375
3.900000	1	-0.051000
3.916667	1	-0.051500
3.933333	1	-0.052375
3.950000	1	-0.052500
3.966667	1	-0.052750
3.983333	1	-0.053250
4.000000	1	-0.052875
4.016667	1	-0.052875
4.033333	1	-0.053500
4.050000	1	-0.054000
4.066667	1	-0.054000
4.083333	1	-0.054000
4.100000	1	-0.054250
4.116667	1	-0.054750
4.133333	1	-0.054625
4.150000	1	-0.054625
4.166667	1	-0.054875
4.183333	1	-0.054875
4.200000	1	-0.055375
4.216667	1	-0.055125
4.233333	1	-0.054750
4.250000	1	-0.055000
4.266667	1	-0.055375
4.283333	1	-0.055625
4.300000	1	-0.055750
4.316667	1	-0.055500
4.333333	1	-0.055500
4.350000	1	-0.055125
4.366667	1	-0.055375
4.383333	1	-0.055000
4.400000	1	-0.054625
4.416667	1	-0.054375
4.433333	1	-0.053625
4.450000	1	-0.053375
4.466667	1	-0.053250
4.483333	1	-0.052500
4.500000	1	-0.052250
4.516667	1	-0.051500
4.533333	1	-0.050500
4.550000	1	-0.049500
4.566667	1	-0.049000
4.583333	1	-0.048125
4.600000	1	-0.046500
4.616667	1	-0.045125
4.633333	1	-0.044000
4.650000	1	-0.043625
4.666667	1	-0.042500
4.683333	1	-0.041375
4.700000	1	-0.040500
4.716667	1	-0.039375
4.733333	1	-0.037875
4.750000	1	-0.036250
4.766667	1	-0.034375
4.783333	1	-0.032250
4.800000	1	-0.029875
4.816667	1	-0.028375
4.833333	1	-0.025875
4.850000	1	-0.023750
4.866667	1	-0.022000
4.883333	1	-0.020250
4.900000	1	-0.018250
4.916667	1	-0.015625
4.933333	1	-0.013250
4.950000	1	-0.010500
4.966667	1	-0.007875
4.983333	1	-0.005125
5.000000	1	-0.003125
5.016667	1	-0.000250
5.033333	1	0.002500
5.050000	1	0.004500
5.066667	1	0.006875
5.083333	1	0.009125
5.100000	1	0.011375
5.116667	1	0.013625
5.133333	1	0.016000
5.150000	1	0.018500
5.166667	1	0.021500
5.183333	1	0.024250
5.200000	1	0.026750
5.216667	1	0.028750
5.233333	1	0.030875
5.250000	1	0.032625
5.266667	1	0.034125
5.283333	1	0.036000
5.300000	1	0.037375
5.316667	1	0.038750
5.333333	1	0.040750
5.350000	1	0.042375
5.366667	1	0.043750
5.383333	1	0.044750
5.400000	1	0.045500
5.416667	1	0.045875
5.433333	1	0.046875
5.450000	1	0.047500
5.466667	1	0.048125
5.483333	1	0.048125
5.500000	1	0.048625
5.516667	1	0.048375
5.533333	1	0.048375
5.550000	1	0.048125
5.566667	1	0.047500
5.583333	1	0.046125
5.600000	1	0.044375
5.616667	1	0.044250
5.633333	1	0.043625
5.650000	1	0.042625
5.666667	1	0.041000
5.683333	1	0.040500
5.700000	1	0.039000
5.716667	1	0.037875
5.733333	1	0.037250
5.750000	1	0.035875
5.766667	1	0.035000
5.783333	1	0.033875
5.800000	1	0.032375
5.816667	1	0.031125
5.833333	1	0.030625
5.850000	1	0.029625
5.866667	1	0.028500
5.883333	1	0.026875
5.900000	1	0.025625
5.916667	1	0.024875
5.933333	1	0.024250
5.950000	1	0.023125
5.966667	1	0.022125
5.983333	1	0.022000
6.000000	1	0.021750
6.016667	1	0.021125
6.033333	1	0.020500
6.050000	1	0.019500
6.066667	1	0.019000
6.083333	1	0.018875
6.100000	1	0.018375
6.116667	1	0.018125
6.133333	1	0.018375
6.150000	1	0.018250
6.166667	1	0.018750
6.183333	1	0.019125
6.200000	1	0.019250
6.216667	1	0.019625
6.233333	1	0.020375
6.250000	1	0.021250
6.266667	1	0.022125
6.283333	1	0.023000
6.300000	1	0.023750
6.316667	1	0.025000
6.333333	1	0.025750
6.350000	1	0.026250
6.366667	1	0.026750
6.383333	1	0.028000
6.400000	1	0.029750
6.416667	1	0.030625
6.433333	1	0.031625
6.450000	1	0.033125
6.466667	1	0.034250
6.483333	1	0.035375
6.500000	1	0.037375
6.516667	1	0.038625
6.533333	1	0.040375
6.550000	1	0.041875
6.566667	1	0.043625
6.583333	1	0.044875
6.600000	1	0.046125
6.616667	1	0.047375
6.633333	1	0.049500
6.650000	1	0.051625
6.666667	1	0.053250
6.683333	1	0.054125
6.700000	1	0.055500
6.716667	1	0.056375
6.733333	1	0.057500
6.750000	1	0.059375
6.766667	1	0.059625
6.783333	1	0.060625
6.800000	1	0.061500
6.816667	1	0.062250
6.833333	1	0.062625
6.850000	1	0.062625
6.866667	1	0.062750
6.883333	1	0.063125
6.900000	1	0.062750
6.916667	1	0.062750
6.933333	1	0.063125
6.950000	1	0.062875
6.966667	1	0.062250
6.983333	1	0.061125
7.000000	1	0.060000
7.016667	1	0.058375
7.033333	1	0.057000
7.050000	1	0.055125
7.066667	1	0.053250
7.083333	1	0.050875
7.100000	1	0.049250
7.116667	1	0.047250
7.133333	1	0.044875
7.150000	1	0.042625
7.166667	1	0.039875
7.183333	1	0.036625
7.200000	1	0.033750
7.216667	1	0.031000
7.233333	1	0.028125
7.250000	1	0.024750
7.266667	1	0.021500
7.283333	1	0.018875
7.300000	1	0.014750
7.316667	1	0.012000
7.333333	1	0.008375
7.350000	1	0.005250
7.366667	1	0.002625
7.383333	1	-0.001500
7.400000	1	-0.003875
7.416667	1	-0.007375
7.433333	1	-0.010375
7.450000	1	-0.013625
7.466667	1	-0.016625
7.483333	1	-0.019500
7.500000	1	-0.022250
7.516667	1	-0.025625
7.533333	1	-0.028000
7.550000	1	-0.030875
7.566667	1	-0.032625
7.583333	1	-0.034750
7.600000	1	-0.037750
7.616667	1	-0.039750
7.633333	1	-0.042250
7.650000	1	-0.044375
7.666667	1	-0.046125
7.683333	1	-0.048000
7.700000	1	-0.049250
7.716667	1	-0.050375
7.733333	1	-0.052000
7.750000	1	-0.053375
7.766667	1	-0.054750
7.783333	1	-0.055500
7.800000	1	-0.056125
7.816667	1	-0.057250
7.833333	1	-0.058125
7.850000	1	-0.058125
7.866667	1	-0.058500
7.883333	1	-0.058750
7.900000	1	-0.059250
7.916667	1	-0.059750
7.933333	1	-0.060000
7.950000	1	-0.059750
7.966667	1	-0.059125
7.983333	1	-0.058625
8.000000	1	-0.057750
8.016667	1	-0.057750
8.033333	1	-0.056625
8.050000	1	-0.056625
8.066667	1	-0.056250
8.083333	1	-0.055750
8.100000	1	-0.055625
8.116667	1	-0.054875
8.133333	1	-0.053500
8.150000	1	-0.052500
8.166667	1	-0.052125
8.183333	1	-0.050875
8.200000	1	-0.049125
8.216667	1	-0.048125
8.233333	1	-0.046750
8.250000	1	-0.045750
8.266667	1	-0.044750
8.283333	1	-0.043625
8.300000	1	-0.042250
8.316667	1	-0.040625
8.333333	1	-0.039250
8.350000	1	-0.037750
8.366667	1	-0.036250
8.383333	1	-0.034750
8.400000	1	-0.032750
8.416667	1	-0.031250
8.433333	1	-0.029625
8.450000	1	-0.028375
8.466667	1	-0.026125
8.483333	1	-0.024500
8.500000	1	-0.022750
8.516667	1	-0.021000
8.533333	1	-0.020000
8.550000	1	-0.018375
8.566667	1	-0.015875
8.583333	1	-0.014375
8.600000	1	-0.012750
8.616667	1	-0.011500
8.633333	1	-0.009625
8.650000	1	-0.008625
8.666667	1	-0.007875
8.683333	1	-0.006250
8.700000	1	-0.005375
8.716667	1	-0.004250
8.733333	1	-0.003250
8.750000	1	-0.003000
8.766667	1	-0.002625
8.783333	1	-0.002500
8.800000	1	-0.002625
8.816667	1	-0.003750
8.833333	1	-0.003875
8.850000	1	-0.004750
8.866667	1	-0.005375
8.883333	1	-0.006375
8.900000	1	-0.007125
8.916667	1	-0.007375
8.933333	1	-0.008250
8.950000	1	-0.009375
8.966667	1	-0.011375
8.983333	1	-0.012500
9.000000	1	-0.014625
9.016667	1	-0.016625
9.033333	1	-0.018125
9.050000	1	-0.019375
9.066667	1	-0.020250
9.083333	1	-0.021750
9.100000	1	-0.023875
9.116667	1	-0.025375
9.133333	1	-0.027625
9.150000	1	-0.029375
9.166667	1	-0.031750
9.183333	1	-0.034000
9.200000	1	-0.035000
9.216667	1	-0.037375
9.233333	1	-0.038750
9.250000	1	-0.040375
9.266667	1	-0.042500
9.283333	1	-0.044500
9.300000	1	-0.045625
9.316667	1	-0.046750
9.333333	1	-0.048375
9.350000	1	-0.049750
9.366667	1	-0.050625
9.383333	1	-0.052000
9.400000	1	-0.052875
9.416667	1	-0.053750
9.433333	1	-0.054625
9.450000	1	-0.055000
9.466667	1	-0.055375
9.483333	1	-0.055375
9.500000	1	-0.054375
9.516667	1	-0.053625
9.533333	1	-0.052000
9.550000	1	-0.050000
9.566667	1	-0.046500
9.583333	1	-0.042500
9.600000	1	-0.038625
9.616667	1	-0.032750
9.633333	1	-0.025250
9.650000	1	-0.017000
9.666667	1	-0.007250
9.683333	1	0.004875
9.700000	1	0.019000
9.716667	1	0.036125
9.733333	1	0.056000
9.750000	1	0.078625
9.766667	1	0.104000
9.783333	1	0.134000
9.800000	1	0.167875
9.816667	1	0.207500
9.833333	1	0.250375
9.850000	1	0.294625
9.866667	1	0.336250
9.883333	1	0.369250
9.900000	1	0.391125
9.916667	1	0.402750
9.933333	1	0.413500
9.950000	1	0.442125
9.966667	1	0.516000
9.983333	1	0.669750
10.000000	1	0.937875
10.016667	1	1.355000
10.033333	1	1.948625
10.050000	1	2.740125
10.066667	1	3.744125
10.083333	1	4.967250
10.100000	1	6.413500
10.116667	1	8.075000
10.133333	1	9.939250
10.150000	1	11.982750
10.166667	1	14.177625
10.183333	1	16.486375
10.200000	1	18.868625
10.216667	1	21.280875
10.233333	1	23.683375
10.250000	1	26.032500
10.266667	1	28.290500
10.283333	1	30.416250
10.300000	1	32.359500
10.316667	1	34.057625
10.333333	1	35.425250
10.350000	1	36.358625
10.366667	1	36.743125
10.383333	1	36.479625
10.400000	1	35.509375
10.416667	1	33.844750
10.433333	1	31.580625
10.450000	1	28.884000
10.466667	1	25.955750
10.483333	1	22.993750
10.500000	1	20.155500
10.516667	1	17.544625
10.533333	1	15.210625
10.550000	1	13.162500
10.566667	1	11.383750
10.583333	1	9.849375
10.600000	1	8.532875
10.616667	1	7.408250
10.633333	1	6.455625
10.650000	1	5.654250
10.666667	1	4.984500
10.683333	1	4.427500
10.700000	1	3.966875
10.716667	1	3.585750
10.733333	1	3.269000
10.750000	1	3.003500
10.766667	1	2.780250
10.783333	1	2.590500
10.800000	1	2.426250
10.816667	1	2.282875
10.833333	1	2.156875
10.850000	1	2.044000
10.866667	1	1.943500
10.883333	1	1.852625
10.900000	1	1.770625
10.916667	1	1.695625
10.933333	1	1.627000
10.950000	1	1.563625
10.966667	1	1.505375
10.983333	1	1.451000
11.000000	1	1.400250
11.016667	1	1.352875
11.033333	1	1.309500
11.050000	1	1.267750
11.066667	1	1.228750
11.083333	1	1.193000
11.100000	1	1.159125
11.116667	1	1.127500
11.133333	1	1.097625
11.150000	1	1.069625
11.166667	1	1.043750
11.183333	1	1.020375
11.200000	1	0.997875
11.216667	1	0.976250
11.233333	1	0.956500
11.250000	1	0.938250
11.266667	1	0.921125
11.283333	1	0.906000
11.300000	1	0.891250
11.316667	1	0.878125
11.333333	1	0.866500
11.350000	1	0.856125
11.366667	1	0.846375
11.383333	1	0.838000
11.400000	1	0.830500
11.416667	1	0.823500
11.433333	1	0.817625
11.450000	1	0.812625
11.466667	1	0.808250
11.483333	1	0.804500
11.500000	1	0.802500
11.516667	1	0.800875
11.533333	1	0.799500
11.550000	1	0.798250
11.566667	1	0.798125
11.583333	1	0.798625
11.600000	1	0.799000
11.616667	1	0.799500
11.633333	1	0.800000
11.650000	1	0.800750
11.666667	1	0.802000
11.683333	1	0.803250
11.700000	1	0.805375
11.716667	1	0.807000
11.733333	1	0.807875
11.750000	1	0.809000
11.766667	1	0.810250
11.783333	1	0.811625
11.800000	1	0.812500
11.816667	1	0.813875
11.833333	1	0.815250
11.850000	1	0.816625
11.866667	1	0.817875
11.883333	1	0.819250
11.900000	1	0.820375
11.916667	1	0.822750
11.933333	1	0.825125
11.950000	1	0.828500
11.966667	1	0.831875
11.983333	1	0.836250
12.000000	1	0.842375
12.016667	1	0.849625
12.033333	1	0.858250
12.050000	1	0.869125
12.066667	1	0.883625
12.083333	1	0.901000
12.100000	1	0.924500
12.116667	1	0.954500
12.133333	1	0.991875
12.150000	1	1.038750
12.166667	1	1.098250
12.183333	1	1.171000
12.200000	1	1.259000
12.216667	1	1.363875
12.233333	1	1.488750
12.250000	1	1.633625
12.266667	1	1.801750
12.283333	1	1.994750
12.300000	1	2.214625
12.316667	1	2.462375
12.333333	1	2.740125
12.350000	1	3.049375
12.366667	1	3.391375
12.383333	1	3.767625
12.400000	1	4.177750
12.416667	1	4.619875
12.433333	1	5.093500
12.450000	1	5.595125
12.466667	1	6.123375
12.483333	1	6.674125
12.500000	1	7.242625
12.516667	1	7.822375
12.533333	1	8.406625
12.550000	1	8.987000
12.566667	1	9.552875
12.583333	1	10.093125
12.600000	1	10.595375
12.616667	1	11.051875
12.633333	1	11.455875
12.650000	1	11.802625
12.666667	1	12.092125
12.683333	1	12.324125
12.700000	1	12.498500
12.716667	1	12.616000
12.733333	1	12.677875
12.750000	1	12.684250
12.766667	1	12.635250
12.783333	1	12.527875
12.800000	1	12.360000
12.816667	1	12.130000
12.833333	1	11.841250
12.850000	1	11.499250
12.866667	1	11.113500
12.883333	1	10.694125
12.900000	1	10.245625
12.916667	1	9.768500
12.933333	1	9.262125
12.950000	1	8.722500
12.966667	1	8.152875
12.983333	1	7.556000
13.000000	1	6.938625
13.016667	1	6.304250
13.033333	1	5.655125
13.050000	1	4.998500
13.066667	1	4.349750
13.083333	1	3.735625
13.100000	1	3.185500
13.116667	1	2.721125
13.133333	1	2.346875
13.150000	1	2.055125
13.166667	1	1.830375
13.183333	1	1.656500
13.200000	1	1.520500
13.216667	1	1.411875
13.233333	1	1.323250
13.250000	1	1.250000
13.266667	1	1.186875
13.283333	1	1.132875
13.300000	1	1.084375
13.316667	1	1.040875
13.333333	1	1.001500
13.350000	1	0.965125
13.366667	1	0.931000
13.383333	1	0.899500
13.400000	1	0.870625
13.416667	1	0.843375
13.433333	1	0.817500
13.450000	1	0.793500
13.466667	1	0.771375
13.483333	1	0.750750
13.500000	1	0.732500
13.516667	1	0.715875
13.533333	1	0.700500
13.550000	1	0.687000
13.566667	1	0.674625
13.583333	1	0.664875
13.600000	1	0.656750
13.616667	1	0.650000
13.633333	1	0.644500
13.650000	1	0.640500
13.666667	1	0.637500
13.683333	1	0.635125
13.700000	1	0.634250
13.716667	1	0.633750
13.733333	1	0.633625
13.750000	1	0.634250
13.766667	1	0.634375
13.783333	1	0.635000
13.800000	1	0.634625
13.816667	1	0.634125
13.833333	1	0.632750
13.850000	1	0.630000
13.866667	1	0.626125
13.883333	1	0.619625
13.900000	1	0.611250
13.916667	1	0.602500
13.933333	1	0.591625
13.950000	1	0.580500
13.966667	1	0.568375
13.983333	1	0.556125
14.000000	1	0.543750
14.016667	1	0.531375
14.033333	1	0.519750
14.050000	1	0.508250
14.066667	1	0.497625
14.083333	1	0.487250
14.100000	1	0.478625
14.116667	1	0.470250
14.133333	1	0.462750
14.150000	1	0.456250
14.166667	1	0.450500
14.183333	1	0.446125
14.200000	1	0.443375
14.216667	1	0.441625
14.233333	1	0.440125
14.250000	1	0.440625
14.266667	1	0.442500
14.283333	1	0.445500
14.300000	1	0.450375
14.316667	1	0.457125
14.333333	1	0.465875
14.350000	1	0.477250
14.366667	1	0.491375
14.383333	1	0.509250
14.400000	1	0.530625
14.416667	1	0.556125
14.433333	1	0.586250
14.450000	1	0.622750
14.466667	1	0.665750
14.483333	1	0.718500
14.500000	1	0.780750
14.516667	1	0.856750
14.533333	1	0.948250
14.550000	1	1.060625
14.566667	1	1.198875
14.583333	1	1.371500
14.600000	1	1.587625
14.616667	1	1.858625
14.633333	1	2.198875
14.650000	1	2.625625
14.666667	1	3.157625
14.683333	1	3.813875
14.700000	1	4.613375
14.716667	1	5.573875
14.733333	1	6.710750
14.750000	1	8.036875
14.766667	1	9.557125
14.783333	1	11.271125
14.800000	1	13.173375
14.816667	1	15.252750
14.833333	1	17.491000
14.850000	1	19.864625
14.866667	1	22.345500
14.883333	1	24.898875
14.900000	1	27.489000
14.916667	1	30.074000
14.933333	1	32.613875
14.950000	1	35.065250
14.966667	1	37.382500
14.983333	1	39.516000
15.000000	1	41.417750
15.016667	1	43.040125
15.033333	1	44.334875
15.050000	1	45.260500
15.066667	1	45.780000
15.083333	1	45.871125
15.100000	1	45.522750
15.116667	1	44.739625
15.133333	1	43.543625
15.150000	1	41.971750
15.166667	1	40.072000
15.183333	1	37.906625
15.200000	1	35.538750
15.216667	1	33.033625
15.233333	1	30.456500
15.250000	1	27.867500
15.266667	1	25.318750
15.283333	1	22.856750
15.300000	1	20.517750
15.316667	1	18.329750
15.333333	1	16.310625
15.350000	1	14.467500
15.366667	1	12.804375
15.383333	1	11.316250
15.400000	1	9.994750
15.416667	1	8.829250
15.433333	1	7.806000
15.450000	1	6.911625
15.466667	1	6.132500
15.483333	1	5.456875
15.500000	1	4.873000
15.516667	1	4.368875
15.533333	1	3.935000
15.550000	1	3.562625
15.566667	1	3.242125
15.583333	1	2.967000
15.600000	1	2.730250
15.616667	1	2.527125
15.633333	1	2.352000
15.650000	1	2.201250
15.666667	1	2.071250
15.683333	1	1.958875
15.700000	1	1.862250
15.716667	1	1.778250
15.733333	1	1.705000
15.750000	1	1.640250
15.766667	1	1.582375
15.783333	1	1.529750
15.800000	1	1.481500
15.816667	1	1.435500
15.833333	1	1.391625
15.850000	1	1.348000
15.866667	1	1.306500
15.883333	1	1.265250
15.900000	1	1.224000
15.916667	1	1.184250
15.933333	1	1.145750
15.950000	1	1.107500
15.966667	1	1.072750
15.983333	1	1.039125
16.000000	1	1.007500
16.016667	1	0.978000
16.033333	1	0.951000
16.050000	1	0.927375
16.066667	1	0.906250
16.083333	1	0.888125
16.100000	1	0.872250
16.116667	1	0.859375
16.133333	1	0.849500
16.150000	1	0.841875
16.166667	1	0.837000
16.183333	1	0.833375
16.200000	1	0.832000
16.216667	1	0.832125
16.233333	1	0.833125
16.250000	1	0.835500
16.266667	1	0.838250
16.283333	1	0.840875
16.300000	1	0.844625
16.316667	1	0.847500
16.333333	1	0.850375
16.350000	1	0.851750
16.366667	1	0.852000
16.383333	1	0.850375
16.400000	1	0.848125
16.416667	1	0.843750
16.433333	1	0.837750
16.450000	1	0.830250
16.466667	1	0.821000
16.483333	1	0.810125
16.500000	1	0.798750
16.516667	1	0.787375
16.533333	1	0.775750
16.550000	1	0.764250
16.566667	1	0.752750
16.583333	1	0.742000
16.600000	1	0.732250
16.616667	1	0.723750
16.633333	1	0.716125
16.650000	1	0.710125
16.666667	1	0.705500
16.683333	1	0.701750
16.700000	1	0.699250
16.716667	1	0.697500
16.733333	1	0.696750
16.750000	1	0.698000
16.766667	1	0.699375
16.783333	1	0.701750
16.800000	1	0.703875
16.816667	1	0.706625
16.833333	1	0.709500
16.850000	1	0.713625
16.866667	1	0.716750
16.883333	1	0.720125
16.900000	1	0.723375
16.916667	1	0.726250
16.933333	1	0.729000
16.950000	1	0.731625
16.966667	1	0.734250
16.983333	1	0.736625
17.000000	1	0.738250
17.016667	1	0.739250
17.033333	1	0.739875
17.050000	1	0.740000
17.066667	1	0.739000
17.083333	1	0.738125
17.100000	1	0.737000
17.116667	1	0.735125
17.133333	1	0.733875
17.150000	1	0.731750
17.166667	1	0.730375
17.183333	1	0.729375
17.200000	1	0.727625
17.216667	1	0.725875
17.233333	1	0.723875
17.250000	1	0.721625
17.266667	1	0.717750
17.283333	1	0.713625
17.300000	1	0.709000
17.316667	1	0.703875
17.333333	1	0.698875
17.350000	1	0.693375
17.366667	1	0.686000
17.383333	1	0.678500
17.400000	1	0.671875
17.416667	1	0.664375
17.433333	1	0.656625
17.450000	1	0.648250
17.466667	1	0.641000
17.483333	1	0.634500
17.500000	1	0.628750
17.516667	1	0.622625
17.533333	1	0.617875
17.550000	1	0.613500
17.566667	1	0.611000
17.583333	1	0.609625
17.600000	1	0.609125
17.616667	1	0.609500
17.633333	1	0.611750
17.650000	1	0.615375
17.666667	1	0.620250
17.683333	1	0.625875
17.700000	1	0.633000
17.716667	1	0.640750
17.733333	1	0.650000
17.750000	1	0.660375
17.766667	1	0.671500
17.783333	1	0.683375
17.800000	1	0.695750
17.816667	1	0.708250
17.833333	1	0.720750
17.850000	1	0.733375
17.866667	1	0.744875
17.883333	1	0.756875
17.900000	1	0.768500
17.916667	1	0.778375
17.933333	1	0.787625
17.950000	1	0.796625
17.966667	1	0.803375
17.983333	1	0.809875
18.000000	1	0.814875
18.016667	1	0.818375
18.033333	1	0.820250
18.050000	1	0.819750
18.066667	1	0.818125
18.083333	1	0.814750
18.100000	1	0.810250
18.116667	1	0.804250
18.133333	1	0.796750
18.150000	1	0.788000
18.166667	1	0.778125
18.183333	1	0.768375
18.200000	1	0.757375
18.216667	1	0.746000
18.233333	1	0.733750
18.250000	1	0.720875
18.266667	1	0.708000
18.283333	1	0.696125
18.300000	1	0.684625
18.316667	1	0.672875
18.333333	1	0.661125
18.350000	1	0.650750
18.366667	1	0.641125
18.383333	1	0.632500
18.400000	1	0.623875
18.416667	1	0.616125
18.433333	1	0.608875
18.450000	1	0.602875
18.466667	1	0.597250
18.483333	1	0.593125
18.500000	1	0.589000
18.516667	1	0.586125
18.533333	1	0.583500
18.550000	1	0.582125
18.566667	1	0.582000
18.583333	1	0.581625
18.600000	1	0.581750
18.616667	1	0.581750
18.633333	1	0.581875
18.650000	1	0.583000
18.666667	1	0.584000
18.683333	1	0.585250
18.700000	1	0.587500
18.716667	1	0.589625
18.733333	1	0.592125
18.750000	1	0.596125
18.766667	1	0.599375
18.783333	1	0.603000
18.800000	1	0.606125
18.816667	1	0.611000
18.833333	1	0.615375
18.850000	1	0.621250
18.866667	1	0.627750
18.883333	1	0.634750
18.900000	1	0.642875
18.916667	1	0.652000
18.933333	1	0.662625
18.950000	1	0.674000
18.966667	1	0.687000
18.983333	1	0.701875
19.000000	1	0.718125
19.016667	1	0.735500
19.033333	1	0.755000
19.050000	1	0.776000
19.066667	1	0.798000
19.083333	1	0.821875
19.100000	1	0.847875
19.116667	1	0.875125
19.133333	1	0.903625
19.150000	1	0.933625
19.166667	1	0.963250
19.183333	1	0.994250
19.200000	1	1.025375
19.216667	1	1.056125
19.233333	1	1.086000
19.250000	1	1.114750
19.266667	1	1.141750
19.283333	1	1.167500
19.300000	1	1.191000
19.316667	1	1.210500
19.333333	1	1.227750
19.350000	1	1.240750
19.366667	1	1.249500
19.383333	1	1.254875
19.400000	1	1.255750
19.416667	1	1.251375
19.433333	1	1.242375
19.450000	1	1.228875
19.466667	1	1.211875
19.483333	1	1.190750
19.500000	1	1.165750
19.516667	1	1.137125
19.533333	1	1.106125
19.550000	1	1.072875
19.566667	1	1.038625
19.583333	1	1.002500
19.600000	1	0.965250
19.616667	1	0.928500
19.633333	1	0.892375
19.650000	1	0.857000
19.666667	1	0.822500
19.683333	1	0.790125
19.700000	1	0.759875
19.716667	1	0.732125
19.733333	1	0.706875
19.750000	1	0.684500
19.766667	1	0.665000
19.783333	1	0.649375
19.800000	1	0.636000
19.816667	1	0.626250
19.833333	1	0.618625
19.850000	1	0.614875
19.866667	1	0.613375
19.883333	1	0.615000
19.900000	1	0.619125
19.916667	1	0.626000
19.933333	1	0.635375
19.950000	1	0.646750
19.966667	1	0.660375
19.983333	1	0.675250
20.000000	1	0.691375
20.016667	1	0.709125
20.033333	1	0.727625
20.050000	1	0.747625
20.066667	1	0.768125
20.083333	1	0.790500
20.100000	1	0.812875
20.116667	1	0.836250
20.133333	1	0.860875
20.150000	1	0.885875
20.166667	1	0.912625
20.183333	1	0.941750
20.200000	1	0.972625
20.216667	1	1.006875
20.233333	1	1.042750
20.250000	1	1.082125
20.266667	1	1.125625
20.283333	1	1.173375
20.300000	1	1.224500
20.316667	1	1.280625
20.333333	1	1.341125
20.350000	1	1.406000
20.366667	1	1.474250
20.383333	1	1.547000
20.400000	1	1.623125
20.416667	1	1.702250
20.433333	1	1.784125
20.450000	1	1.867625
20.466667	1	1.951375
20.483333	1	2.036250
20.500000	1	2.120125
20.516667	1	2.201500
20.533333	1	2.280500
20.550000	1	2.354875
20.566667	1	2.424750
20.583333	1	2.487625
20.600000	1	2.542250
20.616667	1	2.587500
20.633333	1	2.622875
20.650000	1	2.647625
20.666667	1	2.662000
20.683333	1	2.665000
20.700000	1	2.657000
20.716667	1	2.638250
20.733333	1	2.610500
20.750000	1	2.573000
20.766667	1	2.529000
20.783333	1	2.478750
20.800000	1	2.422750
20.816667	1	2.363375
20.833333	1	2.302500
20.850000	1	2.241500
20.866667	1	2.182375
20.883333	1	2.124625
20.900000	1	2.069500
20.916667	1	2.019125
20.933333	1	1.972125
20.950000	1	1.928875
20.966667	1	1.889250
20.983333	1	1.853250
21.000000	1	1.819500
21.016667	1	1.788625
21.033333	1	1.758750
21.050000	1	1.728625
21.066667	1	1.698625
21.083333	1	1.666875
21.100000	1	1.633500
21.116667	1	1.597250
21.133333	1	1.557250
21.150000	1	1.514750
21.166667	1	1.468625
21.183333	1	1.419250
21.200000	1	1.367000
21.216667	1	1.312125
21.233333	1	1.255250
21.250000	1	1.196750
21.266667	1	1.137125
21.283333	1	1.078500
21.300000	1	1.021000
21.316667	1	0.964500
21.333333	1	0.910000
21.350000	1	0.856875
21.366667	1	0.807125
21.383333	1	0.760250
21.400000	1	0.716500
21.416667	1	0.675000
21.433333	1	0.637875
21.450000	1	0.603375
21.466667	1	0.571625
21.483333	1	0.542875
21.500000	1	0.517000
21.516667	1	0.493625
21.533333	1	0.472625
21.550000	1	0.454250
21.566667	1	0.438375
21.583333	1	0.424750
21.600000	1	0.412375
21.616667	1	0.401500
21.633333	1	0.391750
21.650000	1	0.383500
21.666667	1	0.376375
21.683333	1	0.370375
21.700000	1	0.365250
21.716667	1	0.360875
21.733333	1	0.357500
21.750000	1	0.355250
21.766667	1	0.353250
21.783333	1	0.351875
21.800000	1	0.351375
21.816667	1	0.351375
21.833333	1	0.351750
21.850000	1	0.352125
21.866667	1	0.353375
21.883333	1	0.355250
21.900000	1	0.357375
21.916667	1	0.360500
21.933333	1	0.364000
21.950000	1	0.366875
21.966667	1	0.370750
21.983333	1	0.375250
22.000000	1	0.379000
22.016667	1	0.383625
22.033333	1	0.387875
22.050000	1	0.393000
22.066667	1	0.397250
22.083333	1	0.401000
22.100000	1	0.405000
22.116667	1	0.408875
22.133333	1	0.411500
22.150000	1	0.414000
22.166667	1	0.415750
22.183333	1	0.416750
22.200000	1	0.418125
22.216667	1	0.418500
22.233333	1	0.417500
22.250000	1	0.416875
22.266667	1	0.415375
22.283333	1	0.413875
22.300000	1	0.411500
22.316667	1	0.408875
22.333333	1	0.406000
22.350000	1	0.403375
22.366667	1	0.400125
22.383333	1	0.397000
22.400000	1	0.394000
22.416667	1	0.391500
22.433333	1	0.389625
22.450000	1	0.388000
22.466667	1	0.386750
22.483333	1	0.385375
22.500000	1	0.384500
22.516667	1	0.385625
22.533333	1	0.386250
22.550000	1	0.387500
22.566667	1	0.389250
22.583333	1	0.391250
22.600000	1	0.393625
22.616667	1	0.396250
22.633333	1	0.399375
22.650000	1	0.401750
22.666667	1	0.404375
22.683333	1	0.407625
22.700000	1	0.410000
22.716667	1	0.412875
22.733333	1	0.415750
22.750000	1	0.418000
22.766667	1	0.419625
22.783333	1	0.421250
22.800000	1	0.422500
22.816667	1	0.423500
22.833333	1	0.424000
22.850000	1	0.423875
22.866667	1	0.423125
22.883333	1	0.422875
22.900000	1	0.421125
22.916667	1	0.419625
22.933333	1	0.417750
22.950000	1	0.414875
22.966667	1	0.411750
22.983333	1	0.409000
23.000000	1	0.405625
23.016667	1	0.402125
23.033333	1	0.397750
23.050000	1	0.394000
23.066667	1	0.390500
23.083333	1	0.386500
23.100000	1	0.382125
23.116667	1	0.378250
23.133333	1	0.374250
23.150000	1	0.371375
23.166667	1	0.369000
23.183333	1	0.366125
23.200000	1	0.364750
23.216667	1	0.364000
23.233333	1	0.364000
23.250000	1	0.364375
23.266667	1	0.365875
23.283333	1	0.368125
23.300000	1	0.371250
23.316667	1	0.376500
23.333333	1	0.382625
23.350000	1	0.389875
23.366667	1	0.399375
23.383333	1	0.410875
23.400000	1	0.424625
23.416667	1	0.441625
23.433333	1	0.461250
23.450000	1	0.484625
23.466667	1	0.511125
23.483333	1	0.542375
23.500000	1	0.580000
23.516667	1	0.622750
23.533333	1	0.671875
23.550000	1	0.728000
23.566667	1	0.791375
23.583333	1	0.862625
23.600000	1	0.943250
23.616667	1	1.033250
23.633333	1	1.132250
23.650000	1	1.241000
23.666667	1	1.359875
23.683333	1	1.488875
23.700000	1	1.627750
23.716667	1	1.776500
23.733333	1	1.935250
23.750000	1	2.102125
23.766667	1	2.277375
23.783333	1	2.460250
23.800000	1	2.648875
23.816667	1	2.843500
23.833333	1	3.041000
23.850000	1	3.240000
23.866667	1	3.440000
23.883333	1	3.637000
23.900000	1	3.831625
23.916667	1	4.020500
23.933333	1	4.201250
23.950000	1	4.371500
23.966667	1	4.528500
23.983333	1	4.669500
24.000000	1	4.792750
24.016667	1	4.895750
24.033333	1	4.976500
24.050000	1	5.033875
24.066667	1	5.066875
24.083333	1	5.074000
24.100000	1	5.056375
24.116667	1	5.013625
24.133333	1	4.946125
24.150000	1	4.855625
24.166667	1	4.743375
24.183333	1	4.610625
24.200000	1	4.461000
24.216667	1	4.297000
24.233333	1	4.120625
24.250000	1	3.935375
24.266667	1	3.743750
24.283333	1	3.548000
24.300000	1	3.351125
24.316667	1	3.154875
24.333333	1	2.961375
24.350000	1	2.772875
24.366667	1	2.590625
24.383333	1	2.416500
24.400000	1	2.250750
24.416667	1	2.095625
24.433333	1	1.950375
24.450000	1	1.814500
24.466667	1	1.690000
24.483333	1	1.574750
24.500000	1	1.469125
24.516667	1	1.371750
24.533333	1	1.284000
24.550000	1	1.203625
24.566667	1	1.130750
24.583333	1	1.065375
24.600000	1	1.005625
24.616667	1	0.951625
24.633333	1	0.902250
24.650000	1	0.857000
24.666667	1	0.815375
24.683333	1	0.777250
24.700000	1	0.741250
24.716667	1	0.708125
24.733333	1	0.677000
24.750000	1	0.647625
24.766667	1	0.619250
24.783333	1	0.592375
24.800000	1	0.567000
24.816667	1	0.542375
24.833333	1	0.518750
24.850000	1	0.496625
24.866667	1	0.475500
24.883333	1	0.454625
24.900000	1	0.434625
24.916667	1	0.415375
24.933333	1	0.397000
24.950000	1	0.378875
24.966667	1	0.362625
24.983333	1	0.346500
25.000000	1	0.331000
25.016667	1	0.316875
25.033333	1	0.303250
25.050000	1	0.291250
25.066667	1	0.280375
25.083333	1	0.269500
25.100000	1	0.259875
25.116667	1	0.251625
25.133333	1	0.243750
25.150000	1	0.237375
25.166667	1	0.230625
25.183333	1	0.225000
25.200000	1	0.221125
25.216667	1	0.217125
25.233333	1	0.213375
25.250000	1	0.210500
25.266667	1	0.208750
25.283333	1	0.207625
25.300000	1	0.206500
25.316667	1	0.205625
25.333333	1	0.205250
25.350000	1	0.204875
25.366667	1	0.205625
25.383333	1	0.206500
25.400000	1	0.207500
25.416667	1	0.209500
25.433333	1	0.210250
25.450000	1	0.211625
25.466667	1	0.213500
25.483333	1	0.214500
25.500000	1	0.215750
25.516667	1	0.217750
25.533333	1	0.218500
25.550000	1	0.219750
25.566667	1	0.220875
25.583333	1	0.222000
25.600000	1	0.223000
25.616667	1	0.223750
25.633333	1	0.224375
25.650000	1	0.225000
25.666667	1	0.225500
25.683333	1	0.225875
25.700000	1	0.225250
25.716667	1	0.225000
25.733333	1	0.224500
25.750000	1	0.224000
25.766667	1	0.223125
25.783333	1	0.222625
25.800000	1	0.221750
25.816667	1	0.220500
25.833333	1	0.219875
25.850000	1	0.218750
25.866667	1	0.217125
25.883333	1	0.215250
25.900000	1	0.214250
25.916667	1	0.212625
25.933333	1	0.211500
25.950000	1	0.210250
25.966667	1	0.208750
25.983333	1	0.207500
26.000000	1	0.206250
26.016667	1	0.205750
26.033333	1	0.205375
26.050000	1	0.205000
26.066667	1	0.204750
26.083333	1	0.204000
26.100000	1	0.204500
26.116667	1	0.204125
26.133333	1	0.203500
26.150000	1	0.203500
26.166667	1	0.203375
26.183333	1	0.204500
26.200000	1	0.205000
26.216667	1	0.205875
26.233333	1	0.206875
26.250000	1	0.207875
26.266667	1	0.208750
26.283333	1	0.210625
26.300000	1	0.212125
26.316667	1	0.213875
26.333333	1	0.215625
26.350000	1	0.218000
26.366667	1	0.219625
26.383333	1	0.220750
26.400000	1	0.222000
26.416667	1	0.223750
26.433333	1	0.225375
26.450000	1	0.226500
26.466667	1	0.227625
26.483333	1	0.228125
26.500000	1	0.228000
26.516667	1	0.228000
26.533333	1	0.228125
26.550000	1	0.227000
26.566667	1	0.225750
26.583333	1	0.224375
26.600000	1	0.222375
26.616667	1	0.220125
26.633333	1	0.217125
26.650000	1	0.214000
26.666667	1	0.211125
26.683333	1	0.207750
26.700000	1	0.203375
26.716667	1	0.199000
26.733333	1	0.194500
26.750000	1	0.189875
26.766667	1	0.185000
26.783333	1	0.179500
26.800000	1	0.174625
26.816667	1	0.169375
26.833333	1	0.164500
26.850000	1	0.159625
26.866667	1	0.154875
26.883333	1	0.150250
26.900000	1	0.145500
26.916667	1	0.141000
26.933333	1	0.136625
26.950000	1	0.133125
26.966667	1	0.129500
26.983333	1	0.125625
27.000000	1	0.122375
27.016667	1	0.119875
27.033333	1	0.118000
27.050000	1	0.116500
27.066667	1	0.115625
27.083333	1	0.114500
27.100000	1	0.113500
27.116667	1	0.113125
27.133333	1	0.113500
27.150000	1	0.114375
27.166667	1	0.115375
27.183333	1	0.117375
27.200000	1	0.119125
27.216667	1	0.121750
27.233333	1	0.125250
27.250000	1	0.129625
27.266667	1	0.135000
27.283333	1	0.140750
27.300000	1	0.147125
27.316667	1	0.154500
27.333333	1	0.163125
27.350000	1	0.173125
27.366667	1	0.184000
27.383333	1	0.196125
27.400000	1	0.210000
27.416667	1	0.226125
27.433333	1	0.244000
27.450000	1	0.264500
27.466667	1	0.287375
27.483333	1	0.312875
27.500000	1	0.341625
27.516667	1	0.373125
27.533333	1	0.408625
27.550000	1	0.447875
27.566667	1	0.490625
27.583333	1	0.538625
27.600000	1	0.589625
27.616667	1	0.645875
27.633333	1	0.706500
27.650000	1	0.772750
27.666667	1	0.843875
27.683333	1	0.920125
27.700000	1	1.001500
27.716667	1	1.088250
27.733333	1	1.178875
27.750000	1	1.275125
27.766667	1	1.375000
27.783333	1	1.478875
27.800000	1	1.586375
27.816667	1	1.698250
27.833333	1	1.812125
27.850000	1	1.928125
27.866667	1	2.045875
27.883333	1	2.164125
27.900000	1	2.282875
27.916667	1	2.399875
27.933333	1	2.515375
27.950000	1	2.627875
27.966667	1	2.736500
27.983333	1	2.840125
28.000000	1	2.938125
28.016667	1	3.029375
28.033333	1	3.112875
28.050000	1	3.187375
28.066667	1	3.251375
28.083333	1	3.305250
28.100000	1	3.347250
28.116667	1	3.375875
28.133333	1	3.392250
28.150000	1	3.395625
28.166667	1	3.385375
28.183333	1	3.361750
28.200000	1	3.323875
28.216667	1	3.273125
28.233333	1	3.208500
28.250000	1	3.133125
28.266667	1	3.044625
28.283333	1	2.945125
28.300000	1	2.836375
28.316667	1	2.719250
28.333333	1	2.595000
28.350000	1	2.465000
28.366667	1	2.330500
28.383333	1	2.192750
28.400000	1	2.053750
28.416667	1	1.913250
28.433333	1	1.772375
28.450000	1	1.633125
28.466667	1	1.495250
28.483333	1	1.359125
28.500000	1	1.226500
28.516667	1	1.097875
28.533333	1	0.972375
28.550000	1	0.850500
28.566667	1	0.733375
28.583333	1	0.621000
28.600000	1	0.512750
28.616667	1	0.408125
28.633333	1	0.307125
28.650000	1	0.209125
28.666667	1	0.114625
28.683333	1	0.023625
28.700000	1	-0.064875
28.716667	1	-0.149625
28.733333	1	-0.231375
28.750000	1	-0.310625
28.766667	1	-0.387500
28.783333	1	-0.460500
28.800000	1	-0.531625
28.816667	1	-0.600125
28.833333	1	-0.665000
28.850000	1	-0.727625
28.866667	1	-0.787125
28.883333	1	-0.843250
28.900000	1	-0.896750
28.916667	1	-0.946250
28.933333	1	-0.991875
28.950000	1	-1.033375
28.966667	1	-1.070500
28.983333	1	-1.102500
29.000000	1	-1.130125
29.016667	1	-1.152750
29.033333	1	-1.170250
29.050000	1	-1.183000
29.066667	1	-1.192000
29.083333	1	-1.195125
29.100000	1	-1.193500
29.116667	1	-1.186625
29.133333	1	-1.174625
29.150000	1	-1.158000
29.166667	1	-1.137250
29.183333	1	-1.111875
29.200000	1	-1.082250
29.216667	1	-1.048375
29.233333	1	-1.010875
29.250000	1	-0.970750
29.266667	1	-0.927750
29.283333	1	-0.882625
29.300000	1	-0.836500
29.316667	1	-0.788000
29.333333	1	-0.737000
29.350000	1	-0.684750
29.366667	1	-0.632625
29.383333	1	-0.580625
29.400000	1	-0.528500
29.416667	1	-0.477000
29.433333	1	-0.425875
29.450000	1	-0.375750
29.466667	1	-0.326875
29.483333	1	-0.279125
29.500000	1	-0.233125
29.516667	1	-0.188875
29.533333	1	-0.145625
29.550000	1	-0.104375
29.566667	1	-0.065375
29.583333	1	-0.028375
29.600000	1	0.007125
29.616667	1	0.040875
29.633333	1	0.072375
29.650000	1	0.101750
29.666667	1	0.128125
29.683333	1	0.153375
29.700000	1	0.177250
29.716667	1	0.199000
29.733333	1	0.218750
29.750000	1	0.236750
29.766667	1	0.254000
29.783333	1	0.269375
29.800000	1	0.283875
29.816667	1	0.296375
29.833333	1	0.308125
29.850000	1	0.318250
29.866667	1	0.328250
29.883333	1	0.336750
29.900000	1	0.344625
29.916667	1	0.352250
29.933333	1	0.358750
29.950000	1	0.365125
29.966667	1	0.371500
29.983333	1	0.377375
30.000000	1	0.384125
30.016667	1	0.391000
30.033333	1	0.397750
30.050000	1	0.405250
30.066667	1	0.413500
30.083333	1	0.423000
30.100000	1	0.433250
30.116667	1	0.445000
30.133333	1	0.458625
30.150000	1	0.474125
30.166667	1	0.491375
30.183333	1	0.510250
30.200000	1	0.533500
30.216667	1	0.559500
30.233333	1	0.588750
30.250000	1	0.621125
30.266667	1	0.658250
30.283333	1	0.700250
30.300000	1	0.747000
30.316667	1	0.799125
30.333333	1	0.857000
30.350000	1	0.920750
30.366667	1	0.991500
30.383333	1	1.068750
30.400000	1	1.153625
30.416667	1	1.245750
30.433333	1	1.345875
30.450000	1	1.453500
30.466667	1	1.568875
30.483333	1	1.692875
30.500000	1	1.824875
30.516667	1	1.965750
30.533333	1	2.113750
30.550000	1	2.269125
30.566667	1	2.432750
30.583333	1	2.602500
30.600000	1	2.779000
30.616667	1	2.961875
30.633333	1	3.149375
30.650000	1	3.341000
30.666667	1	3.534875
30.683333	1	3.730500
30.700000	1	3.926875
30.716667	1	4.122000
30.733333	1	4.314500
30.750000	1	4.503375
30.766667	1	4.687000
30.783333	1	4.862750
30.800000	1	5.030375
30.816667	1	5.187375
30.833333	1	5.333625
30.850000	1	5.467125
30.866667	1	5.584875
30.883333	1	5.687250
30.900000	1	5.772000
30.916667	1	5.838875
30.933333	1	5.887375
30.950000	1	5.916500
30.966667	1	5.926500
30.983333	1	5.916875
31.000000	1	5.887375
31.016667	1	5.839375
31.033333	1	5.772625
31.050000	1	5.687875
31.066667	1	5.585875
31.083333	1	5.467750
31.100000	1	5.336750
31.116667	1	5.193000
31.133333	1	5.037500
31.150000	1	4.872250
31.166667	1	4.698750
31.183333	1	4.518500
31.200000	1	4.334000
31.216667	1	4.146125
31.233333	1	3.956250
31.250000	1	3.765375
31.266667	1	3.575125
31.283333	1	3.387250
31.300000	1	3.203125
31.316667	1	3.022750
31.333333	1	2.847375
31.350000	1	2.677875
31.366667	1	2.514875
31.383333	1	2.358500
31.400000	1	2.208625
31.416667	1	2.065375
31.433333	1	1.929750
31.450000	1	1.802125
31.466667	1	1.681375
31.483333	1	1.568375
31.500000	1	1.462250
31.516667	1	1.363250
31.533333	1	1.271250
31.550000	1	1.185750
31.566667	1	1.107125
31.583333	1	1.033625
31.600000	1	0.965625
31.616667	1	0.902625
31.633333	1	0.845125
31.650000	1	0.791750
31.666667	1	0.742125
31.683333	1	0.697375
31.700000	1	0.655875
31.716667	1	0.617500
31.733333	1	0.583125
31.750000	1	0.551500
31.766667	1	0.522375
31.783333	1	0.496875
31.800000	1	0.473125
31.816667	1	0.451750
31.833333	1	0.432375
31.850000	1	0.413875
31.866667	1	0.397375
31.883333	1	0.382750
31.900000	1	0.369625
31.916667	1	0.357500
31.933333	1	0.346500
31.950000	1	0.336750
31.966667	1	0.327625
31.983333	1	0.319000
32.000000	1	0.310750
32.016667	1	0.304250
32.033333	1	0.297375
32.050000	1	0.291500
32.066667	1	0.285875
32.083333	1	0.280625
32.100000	1	0.275125
32.116667	1	0.269750
32.133333	1	0.264250
32.150000	1	0.259125
32.166667	1	0.254250
32.183333	1	0.248625
32.200000	1	0.242250
32.216667	1	0.237000
32.233333	1	0.231625
32.250000	1	0.225375
32.266667	1	0.218125
32.283333	1	0.211750
32.300000	1	0.205125
32.316667	1	0.198125
32.333333	1	0.191000
32.350000	1	0.183500
32.366667	1	0.175500
32.383333	1	0.167875
32.400000	1	0.160750
32.416667	1	0.152250
32.433333	1	0.143875
32.450000	1	0.135375
32.466667	1	0.127500
32.483333	1	0.119500
32.500000	1	0.111875
32.516667	1	0.104000
32.533333	1	0.095375
32.550000	1	0.088250
32.566667	1	0.082125
32.583333	1	0.075125
32.600000	1	0.068250
32.616667	1	0.061500
32.633333	1	0.055250
32.650000	1	0.049625
32.666667	1	0.043875
32.683333	1	0.038875
32.700000	1	0.033875
32.716667	1	0.029500
32.733333	1	0.025125
32.750000	1	0.021250
32.766667	1	0.018000
32.783333	1	0.014875
32.800000	1	0.011875
32.816667	1	0.009125
32.833333	1	0.005875
32.850000	1	0.003375
32.866667	1	0.001125
32.883333	1	-0.000125
32.900000	1	-0.001500
32.916667	1	-0.003375
32.933333	1	-0.004875
32.950000	1	-0.006000
32.966667	1	-0.006375
32.983333	1	-0.007375
33.000000	1	-0.008250
33.016667	1	-0.009125
33.033333	1	-0.009875
33.050000	1	-0.010875
33.066667	1	-0.011125
33.083333	1	-0.011625
33.100000	1	-0.011875
33.116667	1	-0.011500
33.133333	1	-0.012000
33.150000	1	-0.011875
33.166667	1	-0.012375
33.183333	1	-0.012875
33.200000	1	-0.012875
33.216667	1	-0.013250
33.233333	1	-0.013000
33.250000	1	-0.013000
33.266667	1	-0.013875
33.283333	1	-0.013250
33.300000	1	-0.013625
33.316667	1	-0.013500
33.333333	1	-0.013250
33.350000	1	-0.012750
33.366667	1	-0.012875
33.383333	1	-0.012375
33.400000	1	-0.012125
33.416667	1	-0.012000
33.433333	1	-0.012125
33.450000	1	-0.012250
33.466667	1	-0.012375
33.483333	1	-0.012125
33.500000	1	-0.012500
33.516667	1	-0.012375
33.533333	1	-0.012375
33.550000	1	-0.012000
33.566667	1	-0.011875
33.583333	1	-0.012000
33.600000	1	-0.012625
33.616667	1	-0.012500
33.633333	1	-0.011875
33.650000	1	-0.012000
33.666667	1	-0.012250
33.683333	1	-0.011500
33.700000	1	-0.011250
33.716667	1	-0.010875
33.733333	1	-0.010875
33.750000	1	-0.010625
33.766667	1	-0.010125
33.783333	1	-0.010375
33.800000	1	-0.009500
33.816667	1	-0.009375
33.833333	1	-0.009125
33.850000	1	-0.008750
33.866667	1	-0.007750
33.883333	1	-0.007875
33.900000	1	-0.008125
33.916667	1	-0.007625
33.933333	1	-0.006625
33.950000	1	-0.006000
33.966667	1	-0.005875
33.983333	1	-0.005250
34.000000	1	-0.005250
34.016667	1	-0.005000
34.033333	1	-0.004500
34.050000	1	-0.003875
34.066667	1	-0.003375
34.083333	1	-0.003250
34.100000	1	-0.002250
34.116667	1	-0.001625
34.133333	1	-0.000750
34.150000	1	-0.000250
34.166667	1	0.000250
34.183333	1	0.000875
34.200000	1	0.001000
34.216667	1	0.001875
34.233333	1	0.002625
34.250000	1	0.002500
34.266667	1	0.002875
34.283333	1	0.003875
34.300000	1	0.004750
34.316667	1	0.005500
34.333333	1	0.006000
34.350000	1	0.006000
34.366667	1	0.006625
34.383333	1	0.007375
34.400000	1	0.007500
34.416667	1	0.007875
34.433333	1	0.008500
34.450000	1	0.009125
34.466667	1	0.009000
34.483333	1	0.009625
34.500000	1	0.010000
34.516667	1	0.010500
34.533333	1	0.010500
34.550000	1	0.010250
34.566667	1	0.011000
34.583333	1	0.011250
34.600000	1	0.011375
34.616667	1	0.011500
34.633333	1	0.011625
34.650000	1	0.011500
34.666667	1	0.011750
34.683333	1	0.011750
34.700000	1	0.012000
34.716667	1	0.011750
34.733333	1	0.012250
34.750000	1	0.012500
34.766667	1	0.012750
34.783333	1	0.013125
34.800000	1	0.012750
34.816667	1	0.013625
34.833333	1	0.014000
34.850000	1	0.014250
34.866667	1	0.015000
34.883333	1	0.015750
34.900000	1	0.016750
34.916667	1	0.017625
34.933333	1	0.018750
34.950000	1	0.019250
34.966667	1	0.020875
34.983333	1	0.022625
35.000000	1	0.023500
35.016667	1	0.024375
35.033333	1	0.026125
35.050000	1	0.027125
35.066667	1	0.028625
35.083333	1	0.030500
35.100000	1	0.032375
35.116667	1	0.034875
35.133333	1	0.036625
35.150000	1	0.038750
35.166667	1	0.040125
35.183333	1	0.042500
35.200000	1	0.044375
35.216667	1	0.046500
35.233333	1	0.048125
35.250000	1	0.050000
35.266667	1	0.051750
35.283333	1	0.053875
35.300000	1	0.056500
35.316667	1	0.058375
35.333333	1	0.060125
35.350000	1	0.061750
35.366667	1	0.063375
35.383333	1	0.065125
35.400000	1	0.067000
35.416667	1	0.068000
35.433333	1	0.069375
35.450000	1	0.070375
35.466667	1	0.071750
35.483333	1	0.072750
35.500000	1	0.074125
35.516667	1	0.074875
35.533333	1	0.076000
35.550000	1	0.076875
35.566667	1	0.078125
35.583333	1	0.079250
35.600000	1	0.080125
35.616667	1	0.080750
35.633333	1	0.081500
35.650000	1	0.082125
35.666667	1	0.083500
35.683333	1	0.084625
35.700000	1	0.085625
35.716667	1	0.086500
35.733333	1	0.087125
35.750000	1	0.086750
35.766667	1	0.086750
35.783333	1	0.087125
35.800000	1	0.087750
35.816667	1	0.087750
35.833333	1	0.088375
35.850000	1	0.088875
35.866667	1	0.089750
35.883333	1	0.090125
35.900000	1	0.089750
35.916667	1	0.089375
35.933333	1	0.089500
35.950000	1	0.089875
35.966667	1	0.089375
35.983333	1	0.089875
36.000000	1	0.089750
36.016667	1	0.089750
36.033333	1	0.089625
36.050000	1	0.090125
36.066667	1	0.090375
36.083333	1	0.090250
36.100000	1	0.089875
36.116667	1	0.090250
36.133333	1	0.090625
36.150000	1	0.090125
36.166667	1	0.089500
36.183333	1	0.088375
36.200000	1	0.088375
36.216667	1	0.088250
36.233333	1	0.087750
36.250000	1	0.086875
36.266667	1	0.086125
36.283333	1	0.085000
36.300000	1	0.084250
36.316667	1	0.083375
36.333333	1	0.082625
36.350000	1	0.082250
36.366667	1	0.080875
36.383333	1	0.079625
36.400000	1	0.078500
36.416667	1	0.077500
36.433333	1	0.076250
36.450000	1	0.074875
36.466667	1	0.073125
36.483333	1	0.071875
36.500000	1	0.070000
36.516667	1	0.069125
36.533333	1	0.067625
36.550000	1	0.066500
36.566667	1	0.065250
36.583333	1	0.063500
36.600000	1	0.062250
36.616667	1	0.060500
36.633333	1	0.058625
36.650000	1	0.056500
36.666667	1	0.055250
36.683333	1	0.052875
36.700000	1	0.051750
36.716667	1	0.050250
36.733333	1	0.048375
36.750000	1	0.046500
36.766667	1	0.045000
36.783333	1	0.042500
36.800000	1	0.040500
36.816667	1	0.039250
36.833333	1	0.037750
36.850000	1	0.035625
36.866667	1	0.033750
36.883333	1	0.031375
36.900000	1	0.029375
36.916667	1	0.027500
36.933333	1	0.025500
36.950000	1	0.023500
36.966667	1	0.021500
36.983333	1	0.018625
37.000000	1	0.016750
37.016667	1	0.014375
37.033333	1	0.012125
37.050000	1	0.009750
37.066667	1	0.007000
37.083333	1	0.004875
37.100000	1	0.002625
37.116667	1	0.000000
37.133333	1	-0.001500
37.150000	1	-0.003625
37.166667	1	-0.006125
37.183333	1	-0.008250
37.200000	1	-0.010375
37.216667	1	-0.012500
37.233333	1	-0.015000
37.250000	1	-0.017500
37.266667	1	-0.019750
37.283333	1	-0.021500
37.300000	1	-0.023875
37.316667	1	-0.025625
37.333333	1	-0.027500
37.350000	1	-0.029500
37.366667	1	-0.032000
37.383333	1	-0.033500
37.400000	1	-0.034625
37.416667	1	-0.036375
37.433333	1	-0.037875
37.450000	1	-0.039375
37.466667	1	-0.040750
37.483333	1	-0.041875
37.500000	1	-0.042625
37.516667	1	-0.043375
37.533333	1	-0.043750
37.550000	1	-0.045250
37.566667	1	-0.046875
37.583333	1	-0.048000
37.600000	1	-0.048875
37.616667	1	-0.049625
37.633333	1	-0.050500
37.650000	1	-0.051125
37.666667	1	-0.051625
37.683333	1	-0.051750
37.700000	1	-0.052375
37.716667	1	-0.052375
37.733333	1	-0.053250
37.750000	1	-0.053500
37.766667	1	-0.054500
37.783333	1	-0.054250
37.800000	1	-0.054250
37.816667	1	-0.054500
37.833333	1	-0.054625
37.850000	1	-0.055500
37.866667	1	-0.055750
37.883333	1	-0.056000
37.900000	1	-0.056250
37.916667	1	-0.056125
37.933333	1	-0.056250
37.950000	1	-0.056750
37.966667	1	-0.056500
37.983333	1	-0.055750
38.000000	1	-0.056125
38.016667	1	-0.056625
38.033333	1	-0.056500
38.050000	1	-0.056000
38.066667	1	-0.055250
38.083333	1	-0.055375
38.100000	1	-0.054625
38.116667	1	-0.054750
38.133333	1	-0.054375
38.150000	1	-0.053625
38.166667	1	-0.052750
38.183333	1	-0.051875
38.200000	1	-0.052000
38.216667	1	-0.051125
38.233333	1	-0.050125
38.250000	1	-0.048875
38.266667	1	-0.047375
38.283333	1	-0.046375
38.300000	1	-0.045375
38.316667	1	-0.043875
38.333333	1	-0.042875
38.350000	1	-0.042000
38.366667	1	-0.041125
38.383333	1	-0.040500
38.400000	1	-0.039875
38.416667	1	-0.039250
38.433333	1	-0.038125
38.450000	1	-0.036750
38.466667	1	-0.035875
38.483333	1	-0.034875
38.500000	1	-0.034125
38.516667	1	-0.032875
38.533333	1	-0.032000
38.550000	1	-0.031125
38.566667	1	-0.030625
38.583333	1	-0.030125
38.600000	1	-0.029500
38.616667	1	-0.028625
38.633333	1	-0.027500
38.650000	1	-0.027500
38.666667	1	-0.027375
38.683333	1	-0.027000
38.700000	1	-0.026125
38.716667	1	-0.025750
38.733333	1	-0.025875
38.750000	1	-0.025875
38.766667	1	-0.025250
38.783333	1	-0.025625
38.800000	1	-0.026250
38.816667	1	-0.026250
38.833333	1	-0.026125
38.850000	1	-0.026500
38.866667	1	-0.026250
38.883333	1	-0.026625
38.900000	1	-0.026500
38.916667	1	-0.026500
38.933333	1	-0.026500
38.950000	1	-0.027250
38.966667	1	-0.027125
38.983333	1	-0.026375
39.000000	1	-0.026750
39.016667	1	-0.027500
39.033333	1	-0.028000
39.050000	1	-0.028500
39.066667	1	-0.028250
39.083333	1	-0.028125
39.100000	1	-0.028250
39.116667	1	-0.028500
39.133333	1	-0.029125
39.150000	1	-0.029500
39.166667	1	-0.029750
39.183333	1	-0.029875
39.200000	1	-0.030125
39.216667	1	-0.030250
39.233333	1	-0.030625
39.250000	1	-0.030625
39.266667	1	-0.031125
39.283333	1	-0.031000
39.300000	1	-0.031625
39.316667	1	-0.031875
39.333333	1	-0.032625
39.350000	1	-0.032500
39.366667	1	-0.032875
39.383333	1	-0.033375
39.400000	1	-0.033750
39.416667	1	-0.034250
39.433333	1	-0.035375
39.450000	1	-0.035875
39.466667	1	-0.036375
39.483333	1	-0.036750
39.500000	1	-0.036875
39.516667	1	-0.037000
39.533333	1	-0.037250
39.550000	1	-0.038000
39.566667	1	-0.038250
39.583333	1	-0.038250
39.600000	1	-0.038625
39.616667	1	-0.038750
39.633333	1	-0.038125
39.650000	1	-0.038125
39.666667	1	-0.038625
39.683333	1	-0.038125
39.700000	1	-0.038750
39.716667	1	-0.038875
39.733333	1	-0.038500
39.750000	1	-0.038250
39.766667	1	-0.038125
39.783333	1	-0.038125
39.800000	1	-0.038125
39.816667	1	-0.037000
39.833333	1	-0.036625
39.850000	1	-0.035625
39.866667	1	-0.035125
39.883333	1	-0.035500
39.900000	1	-0.035125
39.916667	1	-0.034500
39.933333	1	-0.034000
39.950000	1	-0.033625
39.966667	1	-0.032625
39.983333	1	-0.032250
40.000000	1	-0.031625
