File Path	chrom://marshall/Chromeleon7/HPLC_Ultimate_3000/Users/markusar/20230531_CMO_stabTest _FP08_FP09.seq/510.smp/RI_1.channel/RI_1.chm
Channel	RI_1

Injection Information:
Data Vault	Chromeleon7
Injection	FP09__7_s2
Injection Number	74
Position	BE1
Comment	
Processing Method	
Instrument Method	run_25B_method
Type	Unknown
Status	Finished
Injection Date	03.06.2023
Injection Time	16:31:26
Injection Volume (µl)	20.000
Dilution Factor	1.0000
Weight	1.0000

Chromatogram Data Information:
Time Min. (min)	0.000000
Time Max. (min)	40.000000
Data Points	2401
Detector	RI
Generating Data System	Chromeleon 7.2.5.9507
Exporting Data System	Chromeleon 7.2.5.0
Operator	Instrument Controller
Signal Quantity	Refractive 
Signal Unit	µRIU
Signal Min.	-0.899125
Signal Max.	53.169250
Channel	RI_1
Driver Name	RID520Driver.dll
Channel Type	Evaluation
Min. Step (s)	1
Max. Step (s)	1
Average Step (s)	1

Signal Parameter Information:
Signal Info	

Chromatogram Data:
Time (min)	Step (s)	Value (µRIU)
0.000000	n.a.	-0.036750
0.016667	1	-0.038375
0.033333	1	-0.039375
0.050000	1	-0.040000
0.066667	1	-0.040625
0.083333	1	-0.041250
0.100000	1	-0.041375
0.116667	1	-0.042250
0.133333	1	-0.043750
0.150000	1	-0.044250
0.166667	1	-0.045250
0.183333	1	-0.045875
0.200000	1	-0.046875
0.216667	1	-0.047125
0.233333	1	-0.047875
0.250000	1	-0.048500
0.266667	1	-0.048875
0.283333	1	-0.050375
0.300000	1	-0.053500
0.316667	1	-0.057000
0.333333	1	-0.058875
0.350000	1	-0.058000
0.366667	1	-0.054750
0.383333	1	-0.051000
0.400000	1	-0.047125
0.416667	1	-0.044000
0.433333	1	-0.041250
0.450000	1	-0.039000
0.466667	1	-0.037875
0.483333	1	-0.037750
0.500000	1	-0.039250
0.516667	1	-0.041125
0.533333	1	-0.042875
0.550000	1	-0.044250
0.566667	1	-0.045250
0.583333	1	-0.045500
0.600000	1	-0.045500
0.616667	1	-0.045500
0.633333	1	-0.046000
0.650000	1	-0.046750
0.666667	1	-0.046125
0.683333	1	-0.045875
0.700000	1	-0.045375
0.716667	1	-0.045125
0.733333	1	-0.045125
0.750000	1	-0.044750
0.766667	1	-0.044250
0.783333	1	-0.044000
0.800000	1	-0.043625
0.816667	1	-0.043250
0.833333	1	-0.042500
0.850000	1	-0.042250
0.866667	1	-0.042000
0.883333	1	-0.041125
0.900000	1	-0.040750
0.916667	1	-0.040375
0.933333	1	-0.040125
0.950000	1	-0.039750
0.966667	1	-0.039375
0.983333	1	-0.038625
1.000000	1	-0.038625
1.016667	1	-0.038750
1.033333	1	-0.038875
1.050000	1	-0.038625
1.066667	1	-0.039125
1.083333	1	-0.039250
1.100000	1	-0.039375
1.116667	1	-0.039000
1.133333	1	-0.039625
1.150000	1	-0.040000
1.166667	1	-0.040375
1.183333	1	-0.041375
1.200000	1	-0.041875
1.216667	1	-0.042375
1.233333	1	-0.042500
1.250000	1	-0.043000
1.266667	1	-0.043625
1.283333	1	-0.044375
1.300000	1	-0.045750
1.316667	1	-0.046750
1.333333	1	-0.047000
1.350000	1	-0.047875
1.366667	1	-0.049375
1.383333	1	-0.050625
1.400000	1	-0.051125
1.416667	1	-0.052125
1.433333	1	-0.052625
1.450000	1	-0.053000
1.466667	1	-0.053875
1.483333	1	-0.055000
1.500000	1	-0.055625
1.516667	1	-0.056500
1.533333	1	-0.057375
1.550000	1	-0.058250
1.566667	1	-0.058625
1.583333	1	-0.059625
1.600000	1	-0.060875
1.616667	1	-0.061875
1.633333	1	-0.062125
1.650000	1	-0.063000
1.666667	1	-0.063250
1.683333	1	-0.064250
1.700000	1	-0.065375
1.716667	1	-0.065750
1.733333	1	-0.066125
1.750000	1	-0.067250
1.766667	1	-0.068375
1.783333	1	-0.068250
1.800000	1	-0.069375
1.816667	1	-0.070500
1.833333	1	-0.071625
1.850000	1	-0.071875
1.866667	1	-0.073000
1.883333	1	-0.073375
1.900000	1	-0.074125
1.916667	1	-0.074125
1.933333	1	-0.075500
1.950000	1	-0.076250
1.966667	1	-0.076750
1.983333	1	-0.077250
2.000000	1	-0.078125
2.016667	1	-0.079500
2.033333	1	-0.080250
2.050000	1	-0.080000
2.066667	1	-0.080625
2.083333	1	-0.080875
2.100000	1	-0.081875
2.116667	1	-0.083000
2.133333	1	-0.083000
2.150000	1	-0.083500
2.166667	1	-0.083375
2.183333	1	-0.083500
2.200000	1	-0.083875
2.216667	1	-0.083500
2.233333	1	-0.082875
2.250000	1	-0.082000
2.266667	1	-0.082000
2.283333	1	-0.082000
2.300000	1	-0.081750
2.316667	1	-0.081000
2.333333	1	-0.080000
2.350000	1	-0.079250
2.366667	1	-0.078500
2.383333	1	-0.077250
2.400000	1	-0.075750
2.416667	1	-0.074625
2.433333	1	-0.073375
2.450000	1	-0.071250
2.466667	1	-0.069500
2.483333	1	-0.068750
2.500000	1	-0.066750
2.516667	1	-0.065750
2.533333	1	-0.064125
2.550000	1	-0.062625
2.566667	1	-0.061250
2.583333	1	-0.059625
2.600000	1	-0.058875
2.616667	1	-0.056000
2.633333	1	-0.053625
2.650000	1	-0.052000
2.666667	1	-0.049625
2.683333	1	-0.048250
2.700000	1	-0.046875
2.716667	1	-0.045625
2.733333	1	-0.045125
2.750000	1	-0.043500
2.766667	1	-0.042250
2.783333	1	-0.040625
2.800000	1	-0.039375
2.816667	1	-0.038625
2.833333	1	-0.037750
2.850000	1	-0.036750
2.866667	1	-0.036250
2.883333	1	-0.035500
2.900000	1	-0.035000
2.916667	1	-0.035125
2.933333	1	-0.034375
2.950000	1	-0.034000
2.966667	1	-0.033875
2.983333	1	-0.032875
3.000000	1	-0.032750
3.016667	1	-0.032750
3.033333	1	-0.032375
3.050000	1	-0.032375
3.066667	1	-0.032875
3.083333	1	-0.033000
3.100000	1	-0.033875
3.116667	1	-0.034000
3.133333	1	-0.034250
3.150000	1	-0.034625
3.166667	1	-0.035500
3.183333	1	-0.035375
3.200000	1	-0.035375
3.216667	1	-0.036500
3.233333	1	-0.036750
3.250000	1	-0.037625
3.266667	1	-0.038250
3.283333	1	-0.039500
3.300000	1	-0.040000
3.316667	1	-0.040625
3.333333	1	-0.041000
3.350000	1	-0.041375
3.366667	1	-0.042500
3.383333	1	-0.043125
3.400000	1	-0.043625
3.416667	1	-0.044375
3.433333	1	-0.044875
3.450000	1	-0.046000
3.466667	1	-0.046375
3.483333	1	-0.047750
3.500000	1	-0.048625
3.516667	1	-0.049250
3.533333	1	-0.049500
3.550000	1	-0.050625
3.566667	1	-0.051125
3.583333	1	-0.051875
3.600000	1	-0.052375
3.616667	1	-0.053125
3.633333	1	-0.054000
3.650000	1	-0.055125
3.666667	1	-0.054875
3.683333	1	-0.055000
3.700000	1	-0.055500
3.716667	1	-0.055750
3.733333	1	-0.056500
3.750000	1	-0.056875
3.766667	1	-0.057875
3.783333	1	-0.058375
3.800000	1	-0.058375
3.816667	1	-0.058250
3.833333	1	-0.058375
3.850000	1	-0.058250
3.866667	1	-0.058250
3.883333	1	-0.058125
3.900000	1	-0.058500
3.916667	1	-0.058000
3.933333	1	-0.057625
3.950000	1	-0.058250
3.966667	1	-0.057875
3.983333	1	-0.057250
4.000000	1	-0.056625
4.016667	1	-0.056250
4.033333	1	-0.055875
4.050000	1	-0.055750
4.066667	1	-0.055250
4.083333	1	-0.054750
4.100000	1	-0.054125
4.116667	1	-0.053625
4.133333	1	-0.052750
4.150000	1	-0.051875
4.166667	1	-0.050875
4.183333	1	-0.049750
4.200000	1	-0.049000
4.216667	1	-0.048125
4.233333	1	-0.046875
4.250000	1	-0.045750
4.266667	1	-0.044500
4.283333	1	-0.043875
4.300000	1	-0.043500
4.316667	1	-0.042750
4.333333	1	-0.041500
4.350000	1	-0.040500
4.366667	1	-0.039875
4.383333	1	-0.038625
4.400000	1	-0.037875
4.416667	1	-0.036750
4.433333	1	-0.035625
4.450000	1	-0.034625
4.466667	1	-0.034250
4.483333	1	-0.033250
4.500000	1	-0.032125
4.516667	1	-0.031625
4.533333	1	-0.030750
4.550000	1	-0.030125
4.566667	1	-0.028875
4.583333	1	-0.028125
4.600000	1	-0.027750
4.616667	1	-0.026750
4.633333	1	-0.026000
4.650000	1	-0.025250
4.666667	1	-0.024500
4.683333	1	-0.023000
4.700000	1	-0.021250
4.716667	1	-0.020375
4.733333	1	-0.020000
4.750000	1	-0.018125
4.766667	1	-0.017000
4.783333	1	-0.015625
4.800000	1	-0.013875
4.816667	1	-0.012000
4.833333	1	-0.010000
4.850000	1	-0.008250
4.866667	1	-0.006375
4.883333	1	-0.004875
4.900000	1	-0.003375
4.916667	1	-0.001250
4.933333	1	0.000375
4.950000	1	0.002375
4.966667	1	0.004625
4.983333	1	0.006500
5.000000	1	0.009125
5.016667	1	0.011250
5.033333	1	0.012625
5.050000	1	0.014250
5.066667	1	0.015000
5.083333	1	0.016125
5.100000	1	0.017000
5.116667	1	0.017500
5.133333	1	0.018250
5.150000	1	0.019125
5.166667	1	0.019625
5.183333	1	0.020625
5.200000	1	0.020750
5.216667	1	0.020500
5.233333	1	0.020125
5.250000	1	0.019625
5.266667	1	0.018625
5.283333	1	0.017875
5.300000	1	0.017375
5.316667	1	0.016500
5.333333	1	0.015125
5.350000	1	0.013750
5.366667	1	0.013000
5.383333	1	0.011750
5.400000	1	0.010625
5.416667	1	0.009375
5.433333	1	0.007500
5.450000	1	0.006375
5.466667	1	0.005125
5.483333	1	0.003250
5.500000	1	0.001500
5.516667	1	0.000625
5.533333	1	-0.000125
5.550000	1	-0.002000
5.566667	1	-0.003500
5.583333	1	-0.004375
5.600000	1	-0.006125
5.616667	1	-0.007250
5.633333	1	-0.008500
5.650000	1	-0.009500
5.666667	1	-0.010750
5.683333	1	-0.011500
5.700000	1	-0.012000
5.716667	1	-0.012375
5.733333	1	-0.012625
5.750000	1	-0.012750
5.766667	1	-0.012625
5.783333	1	-0.012750
5.800000	1	-0.012125
5.816667	1	-0.012375
5.833333	1	-0.011500
5.850000	1	-0.011000
5.866667	1	-0.010250
5.883333	1	-0.009875
5.900000	1	-0.009500
5.916667	1	-0.008750
5.933333	1	-0.007375
5.950000	1	-0.005875
5.966667	1	-0.004125
5.983333	1	-0.002750
6.000000	1	-0.000500
6.016667	1	0.001125
6.033333	1	0.003250
6.050000	1	0.004625
6.066667	1	0.006875
6.083333	1	0.009000
6.100000	1	0.010375
6.116667	1	0.012000
6.133333	1	0.014625
6.150000	1	0.016875
6.166667	1	0.019125
6.183333	1	0.021000
6.200000	1	0.023875
6.216667	1	0.026000
6.233333	1	0.028625
6.250000	1	0.031125
6.266667	1	0.033750
6.283333	1	0.036125
6.300000	1	0.038625
6.316667	1	0.040500
6.333333	1	0.042750
6.350000	1	0.044750
6.366667	1	0.047875
6.383333	1	0.050250
6.400000	1	0.052500
6.416667	1	0.055000
6.433333	1	0.056875
6.450000	1	0.058375
6.466667	1	0.059500
6.483333	1	0.060875
6.500000	1	0.062125
6.516667	1	0.063250
6.533333	1	0.064500
6.550000	1	0.065750
6.566667	1	0.066250
6.583333	1	0.066750
6.600000	1	0.066625
6.616667	1	0.066875
6.633333	1	0.066875
6.650000	1	0.066500
6.666667	1	0.065125
6.683333	1	0.064250
6.700000	1	0.062750
6.716667	1	0.061500
6.733333	1	0.060125
6.750000	1	0.058375
6.766667	1	0.056250
6.783333	1	0.054625
6.800000	1	0.052000
6.816667	1	0.049500
6.833333	1	0.047125
6.850000	1	0.043875
6.866667	1	0.041250
6.883333	1	0.037750
6.900000	1	0.034750
6.916667	1	0.031000
6.933333	1	0.027875
6.950000	1	0.024750
6.966667	1	0.021750
6.983333	1	0.018125
7.000000	1	0.015375
7.016667	1	0.012375
7.033333	1	0.008250
7.050000	1	0.005375
7.066667	1	0.002000
7.083333	1	-0.001500
7.100000	1	-0.004375
7.116667	1	-0.007500
7.133333	1	-0.011125
7.150000	1	-0.014375
7.166667	1	-0.017000
7.183333	1	-0.020000
7.200000	1	-0.023000
7.216667	1	-0.025125
7.233333	1	-0.027875
7.250000	1	-0.030250
7.266667	1	-0.033000
7.283333	1	-0.035250
7.300000	1	-0.037125
7.316667	1	-0.039250
7.333333	1	-0.041000
7.350000	1	-0.042500
7.366667	1	-0.044250
7.383333	1	-0.045750
7.400000	1	-0.047500
7.416667	1	-0.048500
7.433333	1	-0.050000
7.450000	1	-0.050875
7.466667	1	-0.052125
7.483333	1	-0.053000
7.500000	1	-0.054125
7.516667	1	-0.054625
7.533333	1	-0.055625
7.550000	1	-0.056375
7.566667	1	-0.056625
7.583333	1	-0.056750
7.600000	1	-0.056500
7.616667	1	-0.056875
7.633333	1	-0.057250
7.650000	1	-0.057625
7.666667	1	-0.058000
7.683333	1	-0.058625
7.700000	1	-0.058750
7.716667	1	-0.059000
7.733333	1	-0.058000
7.750000	1	-0.058125
7.766667	1	-0.057750
7.783333	1	-0.058125
7.800000	1	-0.057250
7.816667	1	-0.057125
7.833333	1	-0.056500
7.850000	1	-0.056500
7.866667	1	-0.055375
7.883333	1	-0.055125
7.900000	1	-0.054625
7.916667	1	-0.053875
7.933333	1	-0.053125
7.950000	1	-0.052625
7.966667	1	-0.052250
7.983333	1	-0.051375
8.000000	1	-0.051250
8.016667	1	-0.049750
8.033333	1	-0.049125
8.050000	1	-0.048375
8.066667	1	-0.047375
8.083333	1	-0.046000
8.100000	1	-0.044875
8.116667	1	-0.044375
8.133333	1	-0.043250
8.150000	1	-0.042625
8.166667	1	-0.041750
8.183333	1	-0.040500
8.200000	1	-0.039625
8.216667	1	-0.039250
8.233333	1	-0.038250
8.250000	1	-0.037750
8.266667	1	-0.036750
8.283333	1	-0.035875
8.300000	1	-0.034875
8.316667	1	-0.034625
8.333333	1	-0.033875
8.350000	1	-0.033500
8.366667	1	-0.032625
8.383333	1	-0.033125
8.400000	1	-0.032500
8.416667	1	-0.031750
8.433333	1	-0.031250
8.450000	1	-0.030750
8.466667	1	-0.029875
8.483333	1	-0.029000
8.500000	1	-0.028125
8.516667	1	-0.027375
8.533333	1	-0.026625
8.550000	1	-0.026125
8.566667	1	-0.025125
8.583333	1	-0.024375
8.600000	1	-0.024875
8.616667	1	-0.024875
8.633333	1	-0.025750
8.650000	1	-0.026500
8.666667	1	-0.026250
8.683333	1	-0.026125
8.700000	1	-0.026500
8.716667	1	-0.027000
8.733333	1	-0.027375
8.750000	1	-0.027750
8.766667	1	-0.028000
8.783333	1	-0.028375
8.800000	1	-0.029625
8.816667	1	-0.029750
8.833333	1	-0.030625
8.850000	1	-0.031500
8.866667	1	-0.031125
8.883333	1	-0.031375
8.900000	1	-0.032125
8.916667	1	-0.031625
8.933333	1	-0.032250
8.950000	1	-0.032875
8.966667	1	-0.033375
8.983333	1	-0.033875
9.000000	1	-0.034375
9.016667	1	-0.035875
9.033333	1	-0.036125
9.050000	1	-0.036875
9.066667	1	-0.037250
9.083333	1	-0.038000
9.100000	1	-0.037750
9.116667	1	-0.037875
9.133333	1	-0.038375
9.150000	1	-0.038375
9.166667	1	-0.039000
9.183333	1	-0.040125
9.200000	1	-0.041000
9.216667	1	-0.041625
9.233333	1	-0.041750
9.250000	1	-0.042375
9.266667	1	-0.042750
9.283333	1	-0.043250
9.300000	1	-0.043625
9.316667	1	-0.043750
9.333333	1	-0.044375
9.350000	1	-0.044750
9.366667	1	-0.045375
9.383333	1	-0.045875
9.400000	1	-0.046250
9.416667	1	-0.045625
9.433333	1	-0.045250
9.450000	1	-0.044250
9.466667	1	-0.043000
9.483333	1	-0.041375
9.500000	1	-0.039000
9.516667	1	-0.036000
9.533333	1	-0.032500
9.550000	1	-0.028000
9.566667	1	-0.023000
9.583333	1	-0.016625
9.600000	1	-0.009000
9.616667	1	-0.000375
9.633333	1	0.010500
9.650000	1	0.023625
9.666667	1	0.038625
9.683333	1	0.055875
9.700000	1	0.074375
9.716667	1	0.094750
9.733333	1	0.116875
9.750000	1	0.138250
9.766667	1	0.159375
9.783333	1	0.178625
9.800000	1	0.194625
9.816667	1	0.206250
9.833333	1	0.211875
9.850000	1	0.208875
9.866667	1	0.195125
9.883333	1	0.168625
9.900000	1	0.128250
9.916667	1	0.085125
9.933333	1	0.064000
9.950000	1	0.104125
9.966667	1	0.262625
9.983333	1	0.603125
10.000000	1	1.188500
10.016667	1	2.074125
10.033333	1	3.301125
10.050000	1	4.894250
10.066667	1	6.867000
10.083333	1	9.216125
10.100000	1	11.924875
10.116667	1	14.961500
10.133333	1	18.275625
10.150000	1	21.795250
10.166667	1	25.423000
10.183333	1	29.035625
10.200000	1	32.482750
10.216667	1	35.592125
10.233333	1	38.179375
10.250000	1	40.074375
10.266667	1	41.147000
10.283333	1	41.329625
10.300000	1	40.632250
10.316667	1	39.145625
10.333333	1	37.018875
10.350000	1	34.437500
10.366667	1	31.593625
10.383333	1	28.660125
10.400000	1	25.774125
10.416667	1	23.036750
10.433333	1	20.510875
10.450000	1	18.227375
10.466667	1	16.191250
10.483333	1	14.393750
10.500000	1	12.815250
10.516667	1	11.432375
10.533333	1	10.222875
10.550000	1	9.162500
10.566667	1	8.231000
10.583333	1	7.411500
10.600000	1	6.690250
10.616667	1	6.053875
10.633333	1	5.493625
10.650000	1	5.001000
10.666667	1	4.568125
10.683333	1	4.187125
10.700000	1	3.851250
10.716667	1	3.555875
10.733333	1	3.295125
10.750000	1	3.064500
10.766667	1	2.858750
10.783333	1	2.675125
10.800000	1	2.511000
10.816667	1	2.363500
10.833333	1	2.230375
10.850000	1	2.110250
10.866667	1	2.002000
10.883333	1	1.903250
10.900000	1	1.812125
10.916667	1	1.730750
10.933333	1	1.655875
10.950000	1	1.587500
10.966667	1	1.525000
10.983333	1	1.468125
11.000000	1	1.415625
11.016667	1	1.367250
11.033333	1	1.322625
11.050000	1	1.282375
11.066667	1	1.244625
11.083333	1	1.210625
11.100000	1	1.179625
11.116667	1	1.151250
11.133333	1	1.125375
11.150000	1	1.101375
11.166667	1	1.079125
11.183333	1	1.058625
11.200000	1	1.039875
11.216667	1	1.023000
11.233333	1	1.006750
11.250000	1	0.991500
11.266667	1	0.978500
11.283333	1	0.965375
11.300000	1	0.953625
11.316667	1	0.942250
11.333333	1	0.931750
11.350000	1	0.921750
11.366667	1	0.912500
11.383333	1	0.904875
11.400000	1	0.897375
11.416667	1	0.891000
11.433333	1	0.886125
11.450000	1	0.881625
11.466667	1	0.878125
11.483333	1	0.875750
11.500000	1	0.873250
11.516667	1	0.871750
11.533333	1	0.870750
11.550000	1	0.870375
11.566667	1	0.870875
11.583333	1	0.871000
11.600000	1	0.872000
11.616667	1	0.873125
11.633333	1	0.873875
11.650000	1	0.875375
11.666667	1	0.875875
11.683333	1	0.877125
11.700000	1	0.877875
11.716667	1	0.878500
11.733333	1	0.878625
11.750000	1	0.878375
11.766667	1	0.878625
11.783333	1	0.879000
11.800000	1	0.878250
11.816667	1	0.878250
11.833333	1	0.878625
11.850000	1	0.880500
11.866667	1	0.883500
11.883333	1	0.887125
11.900000	1	0.892500
11.916667	1	0.899500
11.933333	1	0.909125
11.950000	1	0.920250
11.966667	1	0.933625
11.983333	1	0.949250
12.000000	1	0.967875
12.016667	1	0.990125
12.033333	1	1.014250
12.050000	1	1.042250
12.066667	1	1.075000
12.083333	1	1.113000
12.100000	1	1.158875
12.116667	1	1.213500
12.133333	1	1.278750
12.150000	1	1.359250
12.166667	1	1.456250
12.183333	1	1.571500
12.200000	1	1.707875
12.216667	1	1.866125
12.233333	1	2.048000
12.250000	1	2.255500
12.266667	1	2.490000
12.283333	1	2.752625
12.300000	1	3.044375
12.316667	1	3.367625
12.333333	1	3.724000
12.350000	1	4.117125
12.366667	1	4.548625
12.383333	1	5.020750
12.400000	1	5.533125
12.416667	1	6.084000
12.433333	1	6.669000
12.450000	1	7.281250
12.466667	1	7.908375
12.483333	1	8.534500
12.500000	1	9.139250
12.516667	1	9.697625
12.533333	1	10.186875
12.550000	1	10.587250
12.566667	1	10.887750
12.583333	1	11.086375
12.600000	1	11.188375
12.616667	1	11.204125
12.633333	1	11.146875
12.650000	1	11.028875
12.666667	1	10.863250
12.683333	1	10.662125
12.700000	1	10.434000
12.716667	1	10.186500
12.733333	1	9.927500
12.750000	1	9.662625
12.766667	1	9.396125
12.783333	1	9.131125
12.800000	1	8.871375
12.816667	1	8.618625
12.833333	1	8.375125
12.850000	1	8.139875
12.866667	1	7.913500
12.883333	1	7.693500
12.900000	1	7.479750
12.916667	1	7.271500
12.933333	1	7.065500
12.950000	1	6.863250
12.966667	1	6.661500
12.983333	1	6.459000
13.000000	1	6.254125
13.016667	1	6.045875
13.033333	1	5.832000
13.050000	1	5.609500
13.066667	1	5.377000
13.083333	1	5.131250
13.100000	1	4.869625
13.116667	1	4.588500
13.133333	1	4.287500
13.150000	1	3.964125
13.166667	1	3.619750
13.183333	1	3.258375
13.200000	1	2.892750
13.216667	1	2.541375
13.233333	1	2.222375
13.250000	1	1.947625
13.266667	1	1.722500
13.283333	1	1.542250
13.300000	1	1.399625
13.316667	1	1.285125
13.333333	1	1.192125
13.350000	1	1.115875
13.366667	1	1.052750
13.383333	1	0.999250
13.400000	1	0.953125
13.416667	1	0.912250
13.433333	1	0.877125
13.450000	1	0.846250
13.466667	1	0.818750
13.483333	1	0.795125
13.500000	1	0.773875
13.516667	1	0.756375
13.533333	1	0.740875
13.550000	1	0.728000
13.566667	1	0.717375
13.583333	1	0.709125
13.600000	1	0.703250
13.616667	1	0.698625
13.633333	1	0.695625
13.650000	1	0.693125
13.666667	1	0.691125
13.683333	1	0.689875
13.700000	1	0.687875
13.716667	1	0.684625
13.733333	1	0.680750
13.750000	1	0.675000
13.766667	1	0.669000
13.783333	1	0.661250
13.800000	1	0.652750
13.816667	1	0.642750
13.833333	1	0.632625
13.850000	1	0.621250
13.866667	1	0.609375
13.883333	1	0.597000
13.900000	1	0.584375
13.916667	1	0.572000
13.933333	1	0.559625
13.950000	1	0.547625
13.966667	1	0.536375
13.983333	1	0.525875
14.000000	1	0.516375
14.016667	1	0.507375
14.033333	1	0.498500
14.050000	1	0.491500
14.066667	1	0.486500
14.083333	1	0.481750
14.100000	1	0.478625
14.116667	1	0.475375
14.133333	1	0.473500
14.150000	1	0.473500
14.166667	1	0.475375
14.183333	1	0.478750
14.200000	1	0.483875
14.216667	1	0.491375
14.233333	1	0.502875
14.250000	1	0.517000
14.266667	1	0.534750
14.283333	1	0.556625
14.300000	1	0.583750
14.316667	1	0.618125
14.333333	1	0.659125
14.350000	1	0.709000
14.366667	1	0.768500
14.383333	1	0.839375
14.400000	1	0.922625
14.416667	1	1.020125
14.433333	1	1.133375
14.450000	1	1.264875
14.466667	1	1.417500
14.483333	1	1.592250
14.500000	1	1.793000
14.516667	1	2.023875
14.533333	1	2.288500
14.550000	1	2.592625
14.566667	1	2.942750
14.583333	1	3.349250
14.600000	1	3.824250
14.616667	1	4.384375
14.633333	1	5.051375
14.650000	1	5.850750
14.666667	1	6.814000
14.683333	1	7.976125
14.700000	1	9.373000
14.716667	1	11.040375
14.733333	1	13.010875
14.750000	1	15.308250
14.766667	1	17.939375
14.783333	1	20.891625
14.800000	1	24.136000
14.816667	1	27.620375
14.833333	1	31.267125
14.850000	1	34.976625
14.866667	1	38.633375
14.883333	1	42.110125
14.900000	1	45.278250
14.916667	1	48.022375
14.933333	1	50.241750
14.950000	1	51.863125
14.966667	1	52.843250
14.983333	1	53.169250
15.000000	1	52.859250
15.016667	1	51.954625
15.033333	1	50.517125
15.050000	1	48.624500
15.066667	1	46.361375
15.083333	1	43.819125
15.100000	1	41.089375
15.116667	1	38.253500
15.133333	1	35.383000
15.150000	1	32.538875
15.166667	1	29.772000
15.183333	1	27.119875
15.200000	1	24.606500
15.216667	1	22.249375
15.233333	1	20.057625
15.250000	1	18.035500
15.266667	1	16.183125
15.283333	1	14.495500
15.300000	1	12.967375
15.316667	1	11.590875
15.333333	1	10.355875
15.350000	1	9.253125
15.366667	1	8.272125
15.383333	1	7.402375
15.400000	1	6.632625
15.416667	1	5.953500
15.433333	1	5.355875
15.450000	1	4.832375
15.466667	1	4.373875
15.483333	1	3.974875
15.500000	1	3.628750
15.516667	1	3.330125
15.533333	1	3.073250
15.550000	1	2.852125
15.566667	1	2.663000
15.583333	1	2.500750
15.600000	1	2.362000
15.616667	1	2.241000
15.633333	1	2.135875
15.650000	1	2.043375
15.666667	1	1.959750
15.683333	1	1.883625
15.700000	1	1.812500
15.716667	1	1.744375
15.733333	1	1.680625
15.750000	1	1.618500
15.766667	1	1.558500
15.783333	1	1.500875
15.800000	1	1.446500
15.816667	1	1.392625
15.833333	1	1.342250
15.850000	1	1.294000
15.866667	1	1.248500
15.883333	1	1.205500
15.900000	1	1.165000
15.916667	1	1.127500
15.933333	1	1.092500
15.950000	1	1.061000
15.966667	1	1.031375
15.983333	1	1.004875
16.000000	1	0.980375
16.016667	1	0.958875
16.033333	1	0.940250
16.050000	1	0.924375
16.066667	1	0.910625
16.083333	1	0.898875
16.100000	1	0.889875
16.116667	1	0.883500
16.133333	1	0.878625
16.150000	1	0.875250
16.166667	1	0.874125
16.183333	1	0.873750
16.200000	1	0.873125
16.216667	1	0.872875
16.233333	1	0.872250
16.250000	1	0.871000
16.266667	1	0.869500
16.283333	1	0.867000
16.300000	1	0.863875
16.316667	1	0.859750
16.333333	1	0.854625
16.350000	1	0.848875
16.366667	1	0.842625
16.383333	1	0.836500
16.400000	1	0.830000
16.416667	1	0.823875
16.433333	1	0.817625
16.450000	1	0.811625
16.466667	1	0.805375
16.483333	1	0.800750
16.500000	1	0.796625
16.516667	1	0.793125
16.533333	1	0.790375
16.550000	1	0.789375
16.566667	1	0.788500
16.583333	1	0.788000
16.600000	1	0.789250
16.616667	1	0.790875
16.633333	1	0.792750
16.650000	1	0.795625
16.666667	1	0.798625
16.683333	1	0.802625
16.700000	1	0.807125
16.716667	1	0.811250
16.733333	1	0.815375
16.750000	1	0.819000
16.766667	1	0.822750
16.783333	1	0.826375
16.800000	1	0.828750
16.816667	1	0.831000
16.833333	1	0.831375
16.850000	1	0.832000
16.866667	1	0.831250
16.883333	1	0.829125
16.900000	1	0.827000
16.916667	1	0.824500
16.933333	1	0.822125
16.950000	1	0.820125
16.966667	1	0.818125
16.983333	1	0.817125
17.000000	1	0.815625
17.016667	1	0.814750
17.033333	1	0.814375
17.050000	1	0.814625
17.066667	1	0.814250
17.083333	1	0.813750
17.100000	1	0.813500
17.116667	1	0.812375
17.133333	1	0.810625
17.150000	1	0.808250
17.166667	1	0.804875
17.183333	1	0.800000
17.200000	1	0.794750
17.216667	1	0.788500
17.233333	1	0.781500
17.250000	1	0.773250
17.266667	1	0.764750
17.283333	1	0.755250
17.300000	1	0.746375
17.316667	1	0.736750
17.333333	1	0.727750
17.350000	1	0.719125
17.366667	1	0.710375
17.383333	1	0.702125
17.400000	1	0.695000
17.416667	1	0.688500
17.433333	1	0.682250
17.450000	1	0.677250
17.466667	1	0.673625
17.483333	1	0.671000
17.500000	1	0.669750
17.516667	1	0.670125
17.533333	1	0.671625
17.550000	1	0.675125
17.566667	1	0.679750
17.583333	1	0.686000
17.600000	1	0.692750
17.616667	1	0.700625
17.633333	1	0.709875
17.650000	1	0.719750
17.666667	1	0.730875
17.683333	1	0.742500
17.700000	1	0.754500
17.716667	1	0.767500
17.733333	1	0.781000
17.750000	1	0.794375
17.766667	1	0.806750
17.783333	1	0.819625
17.800000	1	0.831875
17.816667	1	0.842375
17.833333	1	0.852625
17.850000	1	0.861250
17.866667	1	0.869000
17.883333	1	0.874500
17.900000	1	0.878750
17.916667	1	0.880750
17.933333	1	0.881500
17.950000	1	0.879625
17.966667	1	0.876750
17.983333	1	0.871250
18.000000	1	0.865000
18.016667	1	0.857000
18.033333	1	0.847625
18.050000	1	0.837250
18.066667	1	0.825875
18.083333	1	0.813875
18.100000	1	0.801125
18.116667	1	0.787875
18.133333	1	0.774625
18.150000	1	0.762125
18.166667	1	0.749500
18.183333	1	0.737500
18.200000	1	0.725500
18.216667	1	0.714750
18.233333	1	0.704625
18.250000	1	0.694625
18.266667	1	0.685875
18.283333	1	0.677875
18.300000	1	0.670875
18.316667	1	0.664875
18.333333	1	0.659500
18.350000	1	0.655500
18.366667	1	0.652500
18.383333	1	0.649750
18.400000	1	0.647875
18.416667	1	0.647125
18.433333	1	0.647250
18.450000	1	0.647500
18.466667	1	0.648375
18.483333	1	0.648875
18.500000	1	0.650125
18.516667	1	0.651625
18.533333	1	0.653875
18.550000	1	0.656750
18.566667	1	0.660000
18.583333	1	0.662750
18.600000	1	0.665500
18.616667	1	0.669000
18.633333	1	0.672375
18.650000	1	0.676500
18.666667	1	0.682000
18.683333	1	0.686875
18.700000	1	0.692500
18.716667	1	0.698750
18.733333	1	0.705250
18.750000	1	0.712875
18.766667	1	0.720375
18.783333	1	0.728875
18.800000	1	0.737875
18.816667	1	0.747625
18.833333	1	0.757125
18.850000	1	0.768125
18.866667	1	0.779750
18.883333	1	0.793000
18.900000	1	0.806750
18.916667	1	0.822125
18.933333	1	0.839125
18.950000	1	0.857875
18.966667	1	0.879375
18.983333	1	0.904250
19.000000	1	0.929875
19.016667	1	0.958750
19.033333	1	0.990000
19.050000	1	1.023375
19.066667	1	1.058375
19.083333	1	1.094875
19.100000	1	1.132500
19.116667	1	1.170875
19.133333	1	1.209000
19.150000	1	1.245375
19.166667	1	1.279750
19.183333	1	1.311250
19.200000	1	1.340125
19.216667	1	1.364250
19.233333	1	1.383375
19.250000	1	1.397000
19.266667	1	1.406125
19.283333	1	1.408125
19.300000	1	1.404750
19.316667	1	1.395625
19.333333	1	1.381000
19.350000	1	1.361125
19.366667	1	1.336500
19.383333	1	1.307375
19.400000	1	1.274875
19.416667	1	1.239250
19.433333	1	1.201250
19.450000	1	1.161875
19.466667	1	1.121750
19.483333	1	1.081250
19.500000	1	1.040625
19.516667	1	1.001375
19.533333	1	0.962500
19.550000	1	0.925750
19.566667	1	0.891000
19.583333	1	0.857750
19.600000	1	0.827000
19.616667	1	0.799250
19.633333	1	0.773375
19.650000	1	0.750625
19.666667	1	0.730375
19.683333	1	0.713750
19.700000	1	0.700625
19.716667	1	0.689875
19.733333	1	0.682875
19.750000	1	0.680625
19.766667	1	0.681250
19.783333	1	0.684750
19.800000	1	0.691625
19.816667	1	0.701500
19.833333	1	0.714250
19.850000	1	0.730000
19.866667	1	0.748125
19.883333	1	0.768375
19.900000	1	0.790250
19.916667	1	0.814375
19.933333	1	0.838000
19.950000	1	0.862625
19.966667	1	0.887625
19.983333	1	0.911500
20.000000	1	0.934875
20.016667	1	0.957625
20.033333	1	0.979125
20.050000	1	0.999625
20.066667	1	1.019875
20.083333	1	1.040250
20.100000	1	1.059875
20.116667	1	1.080750
20.133333	1	1.102875
20.150000	1	1.126500
20.166667	1	1.152500
20.183333	1	1.182500
20.200000	1	1.216625
20.216667	1	1.256500
20.233333	1	1.302750
20.250000	1	1.356250
20.266667	1	1.417750
20.283333	1	1.488625
20.300000	1	1.566625
20.316667	1	1.653375
20.333333	1	1.747875
20.350000	1	1.848500
20.366667	1	1.954500
20.383333	1	2.063750
20.400000	1	2.174500
20.416667	1	2.283250
20.433333	1	2.388375
20.450000	1	2.485750
20.466667	1	2.573500
20.483333	1	2.649375
20.500000	1	2.711875
20.516667	1	2.758375
20.533333	1	2.789500
20.550000	1	2.803625
20.566667	1	2.801625
20.583333	1	2.784000
20.600000	1	2.752750
20.616667	1	2.708750
20.633333	1	2.654625
20.650000	1	2.593250
20.666667	1	2.526125
20.683333	1	2.456875
20.700000	1	2.387000
20.716667	1	2.318625
20.733333	1	2.254375
20.750000	1	2.195125
20.766667	1	2.142250
20.783333	1	2.096750
20.800000	1	2.057500
20.816667	1	2.025500
20.833333	1	1.999750
20.850000	1	1.979125
20.866667	1	1.961625
20.883333	1	1.946000
20.900000	1	1.931125
20.916667	1	1.915000
20.933333	1	1.896250
20.950000	1	1.874250
20.966667	1	1.847125
20.983333	1	1.814000
21.000000	1	1.775000
21.016667	1	1.730375
21.033333	1	1.680125
21.050000	1	1.624625
21.066667	1	1.565000
21.083333	1	1.502000
21.100000	1	1.436625
21.116667	1	1.370000
21.133333	1	1.302625
21.150000	1	1.235125
21.166667	1	1.168625
21.183333	1	1.104875
21.200000	1	1.041375
21.216667	1	0.981875
21.233333	1	0.926125
21.250000	1	0.873375
21.266667	1	0.824500
21.283333	1	0.778875
21.300000	1	0.736875
21.316667	1	0.698750
21.333333	1	0.663875
21.350000	1	0.632000
21.366667	1	0.602750
21.383333	1	0.576625
21.400000	1	0.553875
21.416667	1	0.533250
21.433333	1	0.514625
21.450000	1	0.498500
21.466667	1	0.484000
21.483333	1	0.471250
21.500000	1	0.459875
21.516667	1	0.450375
21.533333	1	0.441875
21.550000	1	0.433875
21.566667	1	0.426625
21.583333	1	0.420500
21.600000	1	0.414250
21.616667	1	0.408750
21.633333	1	0.404750
21.650000	1	0.400875
21.666667	1	0.398000
21.683333	1	0.395250
21.700000	1	0.393000
21.716667	1	0.392375
21.733333	1	0.392125
21.750000	1	0.392125
21.766667	1	0.392500
21.783333	1	0.393750
21.800000	1	0.395375
21.816667	1	0.397750
21.833333	1	0.401125
21.850000	1	0.404875
21.866667	1	0.409875
21.883333	1	0.415125
21.900000	1	0.420750
21.916667	1	0.427125
21.933333	1	0.433750
21.950000	1	0.439750
21.966667	1	0.446125
21.983333	1	0.451750
22.000000	1	0.457125
22.016667	1	0.461375
22.033333	1	0.465375
22.050000	1	0.467625
22.066667	1	0.470125
22.083333	1	0.471750
22.100000	1	0.472750
22.116667	1	0.473000
22.133333	1	0.472375
22.150000	1	0.470750
22.166667	1	0.468125
22.183333	1	0.465875
22.200000	1	0.463250
22.216667	1	0.460250
22.233333	1	0.458125
22.250000	1	0.455500
22.266667	1	0.452500
22.283333	1	0.450375
22.300000	1	0.449500
22.316667	1	0.448625
22.333333	1	0.448000
22.350000	1	0.448625
22.366667	1	0.449625
22.383333	1	0.450375
22.400000	1	0.452125
22.416667	1	0.454500
22.433333	1	0.457250
22.450000	1	0.460250
22.466667	1	0.463375
22.483333	1	0.467375
22.500000	1	0.471500
22.516667	1	0.475750
22.533333	1	0.480125
22.550000	1	0.484500
22.566667	1	0.488875
22.583333	1	0.493250
22.600000	1	0.497250
22.616667	1	0.501500
22.633333	1	0.505875
22.650000	1	0.509125
22.666667	1	0.512000
22.683333	1	0.515000
22.700000	1	0.516500
22.716667	1	0.517750
22.733333	1	0.518750
22.750000	1	0.519250
22.766667	1	0.519250
22.783333	1	0.518125
22.800000	1	0.517250
22.816667	1	0.514375
22.833333	1	0.511750
22.850000	1	0.508375
22.866667	1	0.504625
22.883333	1	0.500875
22.900000	1	0.495875
22.916667	1	0.491500
22.933333	1	0.486125
22.950000	1	0.481125
22.966667	1	0.476000
22.983333	1	0.471375
23.000000	1	0.466375
23.016667	1	0.462500
23.033333	1	0.458875
23.050000	1	0.455250
23.066667	1	0.453750
23.083333	1	0.451750
23.100000	1	0.451000
23.116667	1	0.451500
23.133333	1	0.452625
23.150000	1	0.455375
23.166667	1	0.458375
23.183333	1	0.463375
23.200000	1	0.469625
23.216667	1	0.477000
23.233333	1	0.486125
23.250000	1	0.497250
23.266667	1	0.509500
23.283333	1	0.524375
23.300000	1	0.540250
23.316667	1	0.558500
23.333333	1	0.579125
23.350000	1	0.601875
23.366667	1	0.627250
23.383333	1	0.655500
23.400000	1	0.687750
23.416667	1	0.722625
23.433333	1	0.762125
23.450000	1	0.806500
23.466667	1	0.856000
23.483333	1	0.911875
23.500000	1	0.974500
23.516667	1	1.045750
23.533333	1	1.125625
23.550000	1	1.215375
23.566667	1	1.316375
23.583333	1	1.429125
23.600000	1	1.554625
23.616667	1	1.695375
23.633333	1	1.851250
23.650000	1	2.021125
23.666667	1	2.206500
23.683333	1	2.406500
23.700000	1	2.619500
23.716667	1	2.843875
23.733333	1	3.078250
23.750000	1	3.320750
23.766667	1	3.566625
23.783333	1	3.811750
23.800000	1	4.052750
23.816667	1	4.285250
23.833333	1	4.505000
23.850000	1	4.707000
23.866667	1	4.888375
23.883333	1	5.044750
23.900000	1	5.172750
23.916667	1	5.270125
23.933333	1	5.335375
23.950000	1	5.367125
23.966667	1	5.365250
23.983333	1	5.331625
24.000000	1	5.265750
24.016667	1	5.170750
24.033333	1	5.048875
24.050000	1	4.903375
24.066667	1	4.737875
24.083333	1	4.555625
24.100000	1	4.359625
24.116667	1	4.154750
24.133333	1	3.943750
24.150000	1	3.729000
24.166667	1	3.514625
24.183333	1	3.302500
24.200000	1	3.096250
24.216667	1	2.896000
24.233333	1	2.704000
24.250000	1	2.521875
24.266667	1	2.350000
24.283333	1	2.189375
24.300000	1	2.038875
24.316667	1	1.898875
24.333333	1	1.771375
24.350000	1	1.653625
24.366667	1	1.545250
24.383333	1	1.447000
24.400000	1	1.357250
24.416667	1	1.276250
24.433333	1	1.203500
24.450000	1	1.137375
24.466667	1	1.076250
24.483333	1	1.020750
24.500000	1	0.970250
24.516667	1	0.923625
24.533333	1	0.881250
24.550000	1	0.841875
24.566667	1	0.805125
24.583333	1	0.770000
24.600000	1	0.736875
24.616667	1	0.706250
24.633333	1	0.677500
24.650000	1	0.649625
24.666667	1	0.622875
24.683333	1	0.597375
24.700000	1	0.573000
24.716667	1	0.549625
24.733333	1	0.527000
24.750000	1	0.504625
24.766667	1	0.483750
24.783333	1	0.463875
24.800000	1	0.444750
24.816667	1	0.426875
24.833333	1	0.409625
24.850000	1	0.394000
24.866667	1	0.378625
24.883333	1	0.364125
24.900000	1	0.351625
24.916667	1	0.339500
24.933333	1	0.328625
24.950000	1	0.318875
24.966667	1	0.309375
24.983333	1	0.301125
25.000000	1	0.293500
25.016667	1	0.287000
25.033333	1	0.281000
25.050000	1	0.275625
25.066667	1	0.271625
25.083333	1	0.268250
25.100000	1	0.265625
25.116667	1	0.264000
25.133333	1	0.262750
25.150000	1	0.261750
25.166667	1	0.261750
25.183333	1	0.262375
25.200000	1	0.262750
25.216667	1	0.264000
25.233333	1	0.265125
25.250000	1	0.267000
25.266667	1	0.269125
25.283333	1	0.271250
25.300000	1	0.273750
25.316667	1	0.276375
25.333333	1	0.279375
25.350000	1	0.281625
25.366667	1	0.283875
25.383333	1	0.286625
25.400000	1	0.289375
25.416667	1	0.291625
25.433333	1	0.294250
25.450000	1	0.296000
25.466667	1	0.297375
25.483333	1	0.299500
25.500000	1	0.300750
25.516667	1	0.302625
25.533333	1	0.303500
25.550000	1	0.303500
25.566667	1	0.303375
25.583333	1	0.302625
25.600000	1	0.302250
25.616667	1	0.301750
25.633333	1	0.300625
25.650000	1	0.300000
25.666667	1	0.298250
25.683333	1	0.297000
25.700000	1	0.295000
25.716667	1	0.293250
25.733333	1	0.290500
25.750000	1	0.287875
25.766667	1	0.284750
25.783333	1	0.281625
25.800000	1	0.277875
25.816667	1	0.274250
25.833333	1	0.270125
25.850000	1	0.265375
25.866667	1	0.260875
25.883333	1	0.256750
25.900000	1	0.251500
25.916667	1	0.245625
25.933333	1	0.239750
25.950000	1	0.233750
25.966667	1	0.227750
25.983333	1	0.221125
26.000000	1	0.214625
26.016667	1	0.208125
26.033333	1	0.201875
26.050000	1	0.195625
26.066667	1	0.189875
26.083333	1	0.183875
26.100000	1	0.178375
26.116667	1	0.173125
26.133333	1	0.168000
26.150000	1	0.163125
26.166667	1	0.158875
26.183333	1	0.155375
26.200000	1	0.152125
26.216667	1	0.150250
26.233333	1	0.148875
26.250000	1	0.148000
26.266667	1	0.148000
26.283333	1	0.148625
26.300000	1	0.149000
26.316667	1	0.149625
26.333333	1	0.151250
26.350000	1	0.152875
26.366667	1	0.155000
26.383333	1	0.156875
26.400000	1	0.160000
26.416667	1	0.161875
26.433333	1	0.164125
26.450000	1	0.166375
26.466667	1	0.168375
26.483333	1	0.170000
26.500000	1	0.172375
26.516667	1	0.173625
26.533333	1	0.175125
26.550000	1	0.176125
26.566667	1	0.177000
26.583333	1	0.177375
26.600000	1	0.177750
26.616667	1	0.179000
26.633333	1	0.179500
26.650000	1	0.180625
26.666667	1	0.180625
26.683333	1	0.181125
26.700000	1	0.181375
26.716667	1	0.181500
26.733333	1	0.181875
26.750000	1	0.182500
26.766667	1	0.183125
26.783333	1	0.183375
26.800000	1	0.184625
26.816667	1	0.185750
26.833333	1	0.187500
26.850000	1	0.189250
26.866667	1	0.191875
26.883333	1	0.194375
26.900000	1	0.197500
26.916667	1	0.200125
26.933333	1	0.204125
26.950000	1	0.206750
26.966667	1	0.211000
26.983333	1	0.216125
27.000000	1	0.220625
27.016667	1	0.225125
27.033333	1	0.231500
27.050000	1	0.237375
27.066667	1	0.243625
27.083333	1	0.250875
27.100000	1	0.258125
27.116667	1	0.265375
27.133333	1	0.273750
27.150000	1	0.282875
27.166667	1	0.292750
27.183333	1	0.302750
27.200000	1	0.313250
27.216667	1	0.324750
27.233333	1	0.337375
27.250000	1	0.351250
27.266667	1	0.364875
27.283333	1	0.379750
27.300000	1	0.395000
27.316667	1	0.411375
27.333333	1	0.428750
27.350000	1	0.448250
27.366667	1	0.468875
27.383333	1	0.491500
27.400000	1	0.514875
27.416667	1	0.541125
27.433333	1	0.569000
27.450000	1	0.599125
27.466667	1	0.632500
27.483333	1	0.669250
27.500000	1	0.709625
27.516667	1	0.755125
27.533333	1	0.804500
27.550000	1	0.858375
27.566667	1	0.918250
27.583333	1	0.983125
27.600000	1	1.055125
27.616667	1	1.133250
27.633333	1	1.218000
27.650000	1	1.310125
27.666667	1	1.409000
27.683333	1	1.514250
27.700000	1	1.626000
27.716667	1	1.744375
27.733333	1	1.867875
27.750000	1	1.995000
27.766667	1	2.126375
27.783333	1	2.260250
27.800000	1	2.394875
27.816667	1	2.529625
27.833333	1	2.661500
27.850000	1	2.789375
27.866667	1	2.912125
27.883333	1	3.027750
27.900000	1	3.133875
27.916667	1	3.228750
27.933333	1	3.311375
27.950000	1	3.380625
27.966667	1	3.434625
27.983333	1	3.471750
28.000000	1	3.492000
28.016667	1	3.495375
28.033333	1	3.481875
28.050000	1	3.451125
28.066667	1	3.403875
28.083333	1	3.340875
28.100000	1	3.262375
28.116667	1	3.171250
28.133333	1	3.067375
28.150000	1	2.952125
28.166667	1	2.829000
28.183333	1	2.698625
28.200000	1	2.563250
28.216667	1	2.424125
28.233333	1	2.282375
28.250000	1	2.139125
28.266667	1	1.996250
28.283333	1	1.854875
28.300000	1	1.716250
28.316667	1	1.581750
28.333333	1	1.451000
28.350000	1	1.324875
28.366667	1	1.203500
28.383333	1	1.088000
28.400000	1	0.977375
28.416667	1	0.872375
28.433333	1	0.772000
28.450000	1	0.676000
28.466667	1	0.583875
28.483333	1	0.495875
28.500000	1	0.412125
28.516667	1	0.331125
28.533333	1	0.253375
28.550000	1	0.178125
28.566667	1	0.106000
28.583333	1	0.035250
28.600000	1	-0.032625
28.616667	1	-0.099375
28.633333	1	-0.164750
28.650000	1	-0.228625
28.666667	1	-0.290625
28.683333	1	-0.350500
28.700000	1	-0.409750
28.716667	1	-0.466000
28.733333	1	-0.520000
28.750000	1	-0.571750
28.766667	1	-0.620000
28.783333	1	-0.666125
28.800000	1	-0.708375
28.816667	1	-0.746625
28.833333	1	-0.782000
28.850000	1	-0.812375
28.866667	1	-0.839000
28.883333	1	-0.860500
28.900000	1	-0.877000
28.916667	1	-0.889750
28.933333	1	-0.896875
28.950000	1	-0.899125
28.966667	1	-0.896000
28.983333	1	-0.888250
29.000000	1	-0.876250
29.016667	1	-0.859750
29.033333	1	-0.837750
29.050000	1	-0.812875
29.066667	1	-0.784125
29.083333	1	-0.751750
29.100000	1	-0.716250
29.116667	1	-0.678250
29.133333	1	-0.637250
29.150000	1	-0.595375
29.166667	1	-0.551625
29.183333	1	-0.506250
29.200000	1	-0.459250
29.216667	1	-0.412125
29.233333	1	-0.365250
29.250000	1	-0.317750
29.266667	1	-0.271375
29.283333	1	-0.226000
29.300000	1	-0.180500
29.316667	1	-0.136000
29.333333	1	-0.093000
29.350000	1	-0.051000
29.366667	1	-0.010375
29.383333	1	0.028000
29.400000	1	0.064500
29.416667	1	0.099625
29.433333	1	0.133250
29.450000	1	0.164875
29.466667	1	0.194000
29.483333	1	0.221250
29.500000	1	0.246125
29.516667	1	0.268875
29.533333	1	0.290625
29.550000	1	0.310250
29.566667	1	0.328000
29.583333	1	0.344250
29.600000	1	0.358000
29.616667	1	0.370375
29.633333	1	0.381625
29.650000	1	0.391375
29.666667	1	0.398750
29.683333	1	0.405500
29.700000	1	0.410875
29.716667	1	0.415250
29.733333	1	0.417250
29.750000	1	0.419875
29.766667	1	0.421125
29.783333	1	0.422250
29.800000	1	0.422375
29.816667	1	0.421625
29.833333	1	0.420625
29.850000	1	0.419375
29.866667	1	0.417000
29.883333	1	0.414125
29.900000	1	0.413250
29.916667	1	0.410875
29.933333	1	0.408500
29.950000	1	0.407000
29.966667	1	0.405250
29.983333	1	0.404000
30.000000	1	0.402875
30.016667	1	0.402125
30.033333	1	0.401625
30.050000	1	0.402250
30.066667	1	0.402250
30.083333	1	0.402500
30.100000	1	0.403000
30.116667	1	0.403875
30.133333	1	0.405875
30.150000	1	0.408500
30.166667	1	0.411250
30.183333	1	0.414625
30.200000	1	0.419250
30.216667	1	0.424250
30.233333	1	0.430500
30.250000	1	0.436875
30.266667	1	0.444125
30.283333	1	0.451625
30.300000	1	0.460000
30.316667	1	0.470250
30.333333	1	0.480750
30.350000	1	0.493125
30.366667	1	0.506375
30.383333	1	0.520250
30.400000	1	0.536750
30.416667	1	0.554125
30.433333	1	0.572750
30.450000	1	0.593000
30.466667	1	0.613750
30.483333	1	0.636125
30.500000	1	0.659625
30.516667	1	0.683875
30.533333	1	0.709250
30.550000	1	0.735750
30.566667	1	0.762375
30.583333	1	0.789750
30.600000	1	0.817250
30.616667	1	0.844625
30.633333	1	0.871250
30.650000	1	0.896875
30.666667	1	0.921000
30.683333	1	0.944125
30.700000	1	0.965375
30.716667	1	0.983875
30.733333	1	0.999625
30.750000	1	1.013375
30.766667	1	1.023875
30.783333	1	1.031500
30.800000	1	1.035625
30.816667	1	1.036000
30.833333	1	1.033875
30.850000	1	1.027500
30.866667	1	1.018375
30.883333	1	1.006000
30.900000	1	0.990375
30.916667	1	0.971250
30.933333	1	0.950625
30.950000	1	0.927750
30.966667	1	0.903000
30.983333	1	0.875750
31.000000	1	0.847500
31.016667	1	0.818000
31.033333	1	0.788875
31.050000	1	0.758125
31.066667	1	0.726875
31.083333	1	0.695500
31.100000	1	0.665250
31.116667	1	0.635375
31.133333	1	0.606500
31.150000	1	0.578000
31.166667	1	0.550625
31.183333	1	0.524250
31.200000	1	0.499125
31.216667	1	0.475500
31.233333	1	0.453625
31.250000	1	0.432500
31.266667	1	0.412750
31.283333	1	0.394500
31.300000	1	0.376875
31.316667	1	0.361250
31.333333	1	0.346250
31.350000	1	0.332500
31.366667	1	0.320500
31.383333	1	0.309750
31.400000	1	0.299625
31.416667	1	0.291000
31.433333	1	0.282375
31.450000	1	0.274375
31.466667	1	0.267125
31.483333	1	0.261250
31.500000	1	0.255500
31.516667	1	0.251250
31.533333	1	0.247750
31.550000	1	0.244750
31.566667	1	0.242250
31.583333	1	0.240000
31.600000	1	0.237625
31.616667	1	0.235875
31.633333	1	0.234750
31.650000	1	0.234375
31.666667	1	0.234750
31.683333	1	0.234500
31.700000	1	0.235250
31.716667	1	0.236000
31.733333	1	0.237250
31.750000	1	0.239500
31.766667	1	0.241125
31.783333	1	0.243000
31.800000	1	0.245000
31.816667	1	0.246750
31.833333	1	0.249875
31.850000	1	0.251375
31.866667	1	0.254000
31.883333	1	0.256250
31.900000	1	0.258500
31.916667	1	0.260875
31.933333	1	0.262750
31.950000	1	0.263750
31.966667	1	0.264875
31.983333	1	0.265875
32.000000	1	0.265875
32.016667	1	0.266000
32.033333	1	0.265250
32.050000	1	0.264125
32.066667	1	0.262125
32.083333	1	0.260000
32.100000	1	0.257125
32.116667	1	0.253375
32.133333	1	0.249625
32.150000	1	0.245875
32.166667	1	0.241375
32.183333	1	0.236875
32.200000	1	0.231750
32.216667	1	0.226375
32.233333	1	0.220750
32.250000	1	0.215375
32.266667	1	0.208875
32.283333	1	0.203000
32.300000	1	0.197000
32.316667	1	0.190875
32.333333	1	0.184125
32.350000	1	0.178625
32.366667	1	0.173500
32.383333	1	0.167500
32.400000	1	0.162500
32.416667	1	0.157125
32.433333	1	0.152750
32.450000	1	0.147750
32.466667	1	0.142750
32.483333	1	0.137875
32.500000	1	0.133875
32.516667	1	0.130500
32.533333	1	0.127375
32.550000	1	0.124000
32.566667	1	0.120875
32.583333	1	0.118500
32.600000	1	0.116375
32.616667	1	0.114250
32.633333	1	0.111750
32.650000	1	0.109375
32.666667	1	0.107500
32.683333	1	0.105500
32.700000	1	0.103250
32.716667	1	0.101500
32.733333	1	0.099375
32.750000	1	0.097750
32.766667	1	0.096000
32.783333	1	0.094000
32.800000	1	0.092500
32.816667	1	0.091000
32.833333	1	0.089500
32.850000	1	0.088375
32.866667	1	0.086625
32.883333	1	0.085000
32.900000	1	0.083750
32.916667	1	0.082750
32.933333	1	0.081625
32.950000	1	0.080500
32.966667	1	0.079500
32.983333	1	0.078625
33.000000	1	0.077750
33.016667	1	0.076250
33.033333	1	0.075500
33.050000	1	0.074625
33.066667	1	0.073750
33.083333	1	0.072750
33.100000	1	0.072250
33.116667	1	0.071250
33.133333	1	0.071000
33.150000	1	0.070875
33.166667	1	0.070250
33.183333	1	0.069250
33.200000	1	0.068375
33.216667	1	0.067125
33.233333	1	0.066125
33.250000	1	0.065625
33.266667	1	0.064750
33.283333	1	0.063750
33.300000	1	0.062750
33.316667	1	0.061500
33.333333	1	0.061000
33.350000	1	0.060000
33.366667	1	0.058625
33.383333	1	0.057375
33.400000	1	0.055875
33.416667	1	0.055375
33.433333	1	0.054250
33.450000	1	0.052625
33.466667	1	0.051375
33.483333	1	0.050000
33.500000	1	0.048875
33.516667	1	0.047250
33.533333	1	0.046250
33.550000	1	0.045125
33.566667	1	0.043875
33.583333	1	0.043500
33.600000	1	0.043000
33.616667	1	0.041375
33.633333	1	0.040375
33.650000	1	0.038875
33.666667	1	0.038125
33.683333	1	0.037125
33.700000	1	0.035750
33.716667	1	0.035000
33.733333	1	0.034375
33.750000	1	0.033750
33.766667	1	0.033750
33.783333	1	0.033000
33.800000	1	0.033000
33.816667	1	0.032125
33.833333	1	0.031750
33.850000	1	0.031250
33.866667	1	0.031500
33.883333	1	0.032500
33.900000	1	0.033250
33.916667	1	0.034625
33.933333	1	0.034625
33.950000	1	0.035375
33.966667	1	0.036625
33.983333	1	0.038125
34.000000	1	0.039625
34.016667	1	0.040750
34.033333	1	0.042250
34.050000	1	0.043250
34.066667	1	0.044625
34.083333	1	0.046375
34.100000	1	0.048000
34.116667	1	0.050250
34.133333	1	0.052125
34.150000	1	0.054375
34.166667	1	0.056750
34.183333	1	0.058625
34.200000	1	0.060500
34.216667	1	0.062875
34.233333	1	0.065000
34.250000	1	0.067250
34.266667	1	0.069250
34.283333	1	0.071125
34.300000	1	0.072875
34.316667	1	0.075500
34.333333	1	0.076750
34.350000	1	0.078750
34.366667	1	0.080750
34.383333	1	0.082250
34.400000	1	0.083250
34.416667	1	0.084250
34.433333	1	0.085375
34.450000	1	0.086750
34.466667	1	0.088250
34.483333	1	0.089625
34.500000	1	0.091250
34.516667	1	0.092125
34.533333	1	0.093625
34.550000	1	0.094625
34.566667	1	0.095375
34.583333	1	0.096000
34.600000	1	0.096000
34.616667	1	0.096000
34.633333	1	0.097125
34.650000	1	0.097500
34.666667	1	0.098125
34.683333	1	0.098875
34.700000	1	0.099500
34.716667	1	0.100125
34.733333	1	0.100375
34.750000	1	0.101000
34.766667	1	0.101875
34.783333	1	0.102875
34.800000	1	0.103250
34.816667	1	0.103500
34.833333	1	0.104250
34.850000	1	0.104875
34.866667	1	0.105375
34.883333	1	0.106125
34.900000	1	0.107125
34.916667	1	0.109125
34.933333	1	0.110625
34.950000	1	0.111625
34.966667	1	0.112875
34.983333	1	0.114875
35.000000	1	0.116125
35.016667	1	0.117000
35.033333	1	0.117500
35.050000	1	0.119500
35.066667	1	0.121625
35.083333	1	0.123250
35.100000	1	0.124875
35.116667	1	0.126125
35.133333	1	0.127375
35.150000	1	0.129125
35.166667	1	0.131750
35.183333	1	0.133125
35.200000	1	0.134375
35.216667	1	0.136250
35.233333	1	0.138500
35.250000	1	0.139875
35.266667	1	0.141000
35.283333	1	0.142250
35.300000	1	0.144000
35.316667	1	0.145000
35.333333	1	0.146375
35.350000	1	0.147375
35.366667	1	0.148125
35.383333	1	0.148875
35.400000	1	0.149875
35.416667	1	0.150625
35.433333	1	0.152000
35.450000	1	0.152250
35.466667	1	0.151875
35.483333	1	0.152000
35.500000	1	0.152625
35.516667	1	0.152625
35.533333	1	0.153000
35.550000	1	0.153750
35.566667	1	0.153500
35.583333	1	0.153125
35.600000	1	0.151875
35.616667	1	0.151625
35.633333	1	0.150375
35.650000	1	0.149625
35.666667	1	0.149250
35.683333	1	0.149125
35.700000	1	0.148625
35.716667	1	0.148125
35.733333	1	0.147125
35.750000	1	0.146500
35.766667	1	0.145750
35.783333	1	0.145500
35.800000	1	0.144625
35.816667	1	0.143500
35.833333	1	0.142375
35.850000	1	0.141125
35.866667	1	0.140125
35.883333	1	0.139375
35.900000	1	0.138750
35.916667	1	0.138250
35.933333	1	0.138250
35.950000	1	0.137125
35.966667	1	0.136000
35.983333	1	0.135250
36.000000	1	0.134125
36.016667	1	0.133250
36.033333	1	0.131625
36.050000	1	0.131125
36.066667	1	0.130125
36.083333	1	0.129625
36.100000	1	0.129375
36.116667	1	0.128875
36.133333	1	0.128000
36.150000	1	0.127625
36.166667	1	0.126750
36.183333	1	0.125625
36.200000	1	0.124375
36.216667	1	0.123250
36.233333	1	0.122625
36.250000	1	0.121625
36.266667	1	0.120375
36.283333	1	0.119875
36.300000	1	0.119250
36.316667	1	0.118750
36.333333	1	0.118000
36.350000	1	0.116375
36.366667	1	0.114750
36.383333	1	0.114375
36.400000	1	0.113500
36.416667	1	0.112250
36.433333	1	0.111625
36.450000	1	0.110375
36.466667	1	0.109250
36.483333	1	0.108750
36.500000	1	0.108125
36.516667	1	0.106625
36.533333	1	0.105125
36.550000	1	0.103750
36.566667	1	0.101500
36.583333	1	0.099750
36.600000	1	0.098375
36.616667	1	0.096125
36.633333	1	0.094000
36.650000	1	0.091500
36.666667	1	0.089750
36.683333	1	0.086750
36.700000	1	0.084750
36.716667	1	0.081500
36.733333	1	0.078250
36.750000	1	0.075375
36.766667	1	0.071625
36.783333	1	0.068125
36.800000	1	0.064375
36.816667	1	0.060875
36.833333	1	0.057750
36.850000	1	0.055000
36.866667	1	0.051000
36.883333	1	0.048000
36.900000	1	0.044625
36.916667	1	0.040875
36.933333	1	0.037250
36.950000	1	0.033375
36.966667	1	0.029750
36.983333	1	0.025875
37.000000	1	0.021875
37.016667	1	0.018375
37.033333	1	0.015375
37.050000	1	0.012750
37.066667	1	0.009000
37.083333	1	0.005625
37.100000	1	0.002625
37.116667	1	-0.000500
37.133333	1	-0.003375
37.150000	1	-0.006125
37.166667	1	-0.008875
37.183333	1	-0.011500
37.200000	1	-0.014000
37.216667	1	-0.016750
37.233333	1	-0.019250
37.250000	1	-0.021000
37.266667	1	-0.023000
37.283333	1	-0.025125
37.300000	1	-0.026500
37.316667	1	-0.027750
37.333333	1	-0.029625
37.350000	1	-0.030625
37.366667	1	-0.031375
37.383333	1	-0.032375
37.400000	1	-0.033875
37.416667	1	-0.034375
37.433333	1	-0.035125
37.450000	1	-0.036000
37.466667	1	-0.036500
37.483333	1	-0.036875
37.500000	1	-0.037250
37.516667	1	-0.037500
37.533333	1	-0.037250
37.550000	1	-0.037000
37.566667	1	-0.036250
37.583333	1	-0.035875
37.600000	1	-0.034875
37.616667	1	-0.034625
37.633333	1	-0.033500
37.650000	1	-0.033125
37.666667	1	-0.031750
37.683333	1	-0.030625
37.700000	1	-0.030000
37.716667	1	-0.028625
37.733333	1	-0.026750
37.750000	1	-0.025375
37.766667	1	-0.024750
37.783333	1	-0.022500
37.800000	1	-0.020625
37.816667	1	-0.019000
37.833333	1	-0.017375
37.850000	1	-0.015875
37.866667	1	-0.014000
37.883333	1	-0.012125
37.900000	1	-0.009750
37.916667	1	-0.008375
37.933333	1	-0.006875
37.950000	1	-0.005125
37.966667	1	-0.003625
37.983333	1	-0.001750
38.000000	1	-0.000375
38.016667	1	0.000500
38.033333	1	0.001875
38.050000	1	0.002875
38.066667	1	0.004375
38.083333	1	0.006500
38.100000	1	0.007125
38.116667	1	0.008000
38.133333	1	0.008250
38.150000	1	0.008125
38.166667	1	0.009000
38.183333	1	0.009625
38.200000	1	0.009875
38.216667	1	0.010125
38.233333	1	0.010250
38.250000	1	0.010250
38.266667	1	0.010125
38.283333	1	0.010125
38.300000	1	0.009250
38.316667	1	0.008000
38.333333	1	0.007125
38.350000	1	0.006625
38.366667	1	0.005625
38.383333	1	0.004125
38.400000	1	0.002875
38.416667	1	0.001875
38.433333	1	0.000750
38.450000	1	-0.000875
38.466667	1	-0.002625
38.483333	1	-0.004375
38.500000	1	-0.005625
38.516667	1	-0.007125
38.533333	1	-0.009625
38.550000	1	-0.011000
38.566667	1	-0.012250
38.583333	1	-0.013625
38.600000	1	-0.015500
38.616667	1	-0.017625
38.633333	1	-0.018750
38.650000	1	-0.020000
38.666667	1	-0.021625
38.683333	1	-0.023875
38.700000	1	-0.025500
38.716667	1	-0.027000
38.733333	1	-0.028625
38.750000	1	-0.030125
38.766667	1	-0.030875
38.783333	1	-0.031250
38.800000	1	-0.032000
38.816667	1	-0.033250
38.833333	1	-0.034750
38.850000	1	-0.035250
38.866667	1	-0.035625
38.883333	1	-0.036500
38.900000	1	-0.036500
38.916667	1	-0.037000
38.933333	1	-0.036875
38.950000	1	-0.037000
38.966667	1	-0.036500
38.983333	1	-0.036000
39.000000	1	-0.035375
39.016667	1	-0.034750
39.033333	1	-0.034500
39.050000	1	-0.034125
39.066667	1	-0.033625
39.083333	1	-0.032375
39.100000	1	-0.031500
39.116667	1	-0.030250
39.133333	1	-0.028500
39.150000	1	-0.027375
39.166667	1	-0.026625
39.183333	1	-0.025250
39.200000	1	-0.023875
39.216667	1	-0.021625
39.233333	1	-0.020125
39.250000	1	-0.017750
39.266667	1	-0.016250
39.283333	1	-0.014000
39.300000	1	-0.012625
39.316667	1	-0.010750
39.333333	1	-0.009125
39.350000	1	-0.007000
39.366667	1	-0.004625
39.383333	1	-0.002375
39.400000	1	-0.000250
39.416667	1	0.001125
39.433333	1	0.003500
39.450000	1	0.005125
39.466667	1	0.007250
39.483333	1	0.008875
39.500000	1	0.011250
39.516667	1	0.012750
39.533333	1	0.015250
39.550000	1	0.016625
39.566667	1	0.018625
39.583333	1	0.020625
39.600000	1	0.022500
39.616667	1	0.024000
39.633333	1	0.025500
39.650000	1	0.027125
39.666667	1	0.028375
39.683333	1	0.030000
39.700000	1	0.031375
39.716667	1	0.032750
39.733333	1	0.034125
39.750000	1	0.034875
39.766667	1	0.035750
39.783333	1	0.037000
39.800000	1	0.038250
39.816667	1	0.039625
39.833333	1	0.040000
39.850000	1	0.040625
39.866667	1	0.041375
39.883333	1	0.041875
39.900000	1	0.041750
39.916667	1	0.042250
39.933333	1	0.042125
39.950000	1	0.042750
39.966667	1	0.043125
39.983333	1	0.043250
40.000000	1	0.043250
