File Path	chrom://marshall/Chromeleon7/HPLC_Ultimate_3000/Users/markusar/20230610_CMO_FP11_FP12.seq/280.smp/RI_1.channel/RI_1.chm
Channel	RI_1

Injection Information:
Data Vault	Chromeleon7
Injection	FP11_6_S2
Injection Number	7
Position	BA6
Comment	
Processing Method	
Instrument Method	run_25B_method
Type	Unknown
Status	Finished
Injection Date	10.06.2023
Injection Time	22:49:40
Injection Volume (µl)	20.000
Dilution Factor	1.0000
Weight	1.0000

Chromatogram Data Information:
Time Min. (min)	0.000000
Time Max. (min)	40.000000
Data Points	2401
Detector	RI
Generating Data System	Chromeleon 7.2.5.9507
Exporting Data System	Chromeleon 7.2.5.0
Operator	Instrument Controller
Signal Quantity	Refractive 
Signal Unit	µRIU
Signal Min.	-0.899125
Signal Max.	47.633625
Channel	RI_1
Driver Name	RID520Driver.dll
Channel Type	Evaluation
Min. Step (s)	1
Max. Step (s)	1
Average Step (s)	1

Signal Parameter Information:
Signal Info	

Chromatogram Data:
Time (min)	Step (s)	Value (µRIU)
0.000000	n.a.	-0.013125
0.016667	1	-0.014250
0.033333	1	-0.015125
0.050000	1	-0.016500
0.066667	1	-0.016750
0.083333	1	-0.017000
0.100000	1	-0.017875
0.116667	1	-0.018625
0.133333	1	-0.019125
0.150000	1	-0.020000
0.166667	1	-0.019875
0.183333	1	-0.020125
0.200000	1	-0.021125
0.216667	1	-0.021625
0.233333	1	-0.021750
0.250000	1	-0.022250
0.266667	1	-0.021500
0.283333	1	-0.021250
0.300000	1	-0.021250
0.316667	1	-0.022625
0.333333	1	-0.025250
0.350000	1	-0.029000
0.366667	1	-0.031250
0.383333	1	-0.031500
0.400000	1	-0.029500
0.416667	1	-0.026125
0.433333	1	-0.023000
0.450000	1	-0.020125
0.466667	1	-0.017625
0.483333	1	-0.015500
0.500000	1	-0.012625
0.516667	1	-0.010625
0.533333	1	-0.009625
0.550000	1	-0.009500
0.566667	1	-0.011000
0.583333	1	-0.013000
0.600000	1	-0.015375
0.616667	1	-0.017250
0.633333	1	-0.019000
0.650000	1	-0.020250
0.666667	1	-0.021375
0.683333	1	-0.022250
0.700000	1	-0.023250
0.716667	1	-0.024875
0.733333	1	-0.026000
0.750000	1	-0.027125
0.766667	1	-0.027625
0.783333	1	-0.028125
0.800000	1	-0.029125
0.816667	1	-0.029750
0.833333	1	-0.030250
0.850000	1	-0.031000
0.866667	1	-0.031250
0.883333	1	-0.031500
0.900000	1	-0.032250
0.916667	1	-0.033500
0.933333	1	-0.034125
0.950000	1	-0.035125
0.966667	1	-0.035250
0.983333	1	-0.036125
1.000000	1	-0.036875
1.016667	1	-0.036625
1.033333	1	-0.037000
1.050000	1	-0.037625
1.066667	1	-0.038750
1.083333	1	-0.039000
1.100000	1	-0.039625
1.116667	1	-0.039875
1.133333	1	-0.040000
1.150000	1	-0.041250
1.166667	1	-0.041750
1.183333	1	-0.042750
1.200000	1	-0.043250
1.216667	1	-0.043500
1.233333	1	-0.043250
1.250000	1	-0.044000
1.266667	1	-0.044500
1.283333	1	-0.044625
1.300000	1	-0.045500
1.316667	1	-0.046250
1.333333	1	-0.046625
1.350000	1	-0.047250
1.366667	1	-0.047375
1.383333	1	-0.047500
1.400000	1	-0.048375
1.416667	1	-0.048750
1.433333	1	-0.049000
1.450000	1	-0.049500
1.466667	1	-0.049625
1.483333	1	-0.049875
1.500000	1	-0.050250
1.516667	1	-0.050250
1.533333	1	-0.050875
1.550000	1	-0.051375
1.566667	1	-0.051250
1.583333	1	-0.051500
1.600000	1	-0.051625
1.616667	1	-0.052250
1.633333	1	-0.052375
1.650000	1	-0.053625
1.666667	1	-0.053875
1.683333	1	-0.054250
1.700000	1	-0.054125
1.716667	1	-0.054750
1.733333	1	-0.054625
1.750000	1	-0.055250
1.766667	1	-0.055375
1.783333	1	-0.055500
1.800000	1	-0.056125
1.816667	1	-0.056625
1.833333	1	-0.056750
1.850000	1	-0.056375
1.866667	1	-0.055875
1.883333	1	-0.056625
1.900000	1	-0.056250
1.916667	1	-0.056500
1.933333	1	-0.056125
1.950000	1	-0.056625
1.966667	1	-0.056375
1.983333	1	-0.056875
2.000000	1	-0.056000
2.016667	1	-0.055875
2.033333	1	-0.055875
2.050000	1	-0.055875
2.066667	1	-0.056375
2.083333	1	-0.056875
2.100000	1	-0.057125
2.116667	1	-0.057250
2.133333	1	-0.057125
2.150000	1	-0.057625
2.166667	1	-0.057750
2.183333	1	-0.057750
2.200000	1	-0.058750
2.216667	1	-0.059500
2.233333	1	-0.059750
2.250000	1	-0.059625
2.266667	1	-0.059750
2.283333	1	-0.060500
2.300000	1	-0.061000
2.316667	1	-0.061750
2.333333	1	-0.062250
2.350000	1	-0.062375
2.366667	1	-0.062625
2.383333	1	-0.063625
2.400000	1	-0.064500
2.416667	1	-0.065375
2.433333	1	-0.065750
2.450000	1	-0.065875
2.466667	1	-0.066500
2.483333	1	-0.067000
2.500000	1	-0.067250
2.516667	1	-0.068250
2.533333	1	-0.068375
2.550000	1	-0.068625
2.566667	1	-0.069125
2.583333	1	-0.069625
2.600000	1	-0.069625
2.616667	1	-0.069875
2.633333	1	-0.070375
2.650000	1	-0.069750
2.666667	1	-0.070125
2.683333	1	-0.070125
2.700000	1	-0.070500
2.716667	1	-0.070125
2.733333	1	-0.070625
2.750000	1	-0.070125
2.766667	1	-0.069500
2.783333	1	-0.068750
2.800000	1	-0.068250
2.816667	1	-0.067500
2.833333	1	-0.067125
2.850000	1	-0.066375
2.866667	1	-0.066000
2.883333	1	-0.065250
2.900000	1	-0.064375
2.916667	1	-0.063750
2.933333	1	-0.063125
2.950000	1	-0.062625
2.966667	1	-0.061875
2.983333	1	-0.060750
3.000000	1	-0.060125
3.016667	1	-0.059375
3.033333	1	-0.058000
3.050000	1	-0.056875
3.066667	1	-0.056625
3.083333	1	-0.055875
3.100000	1	-0.055375
3.116667	1	-0.054750
3.133333	1	-0.054500
3.150000	1	-0.054125
3.166667	1	-0.052750
3.183333	1	-0.052375
3.200000	1	-0.051250
3.216667	1	-0.051125
3.233333	1	-0.050875
3.250000	1	-0.050625
3.266667	1	-0.050375
3.283333	1	-0.050500
3.300000	1	-0.050875
3.316667	1	-0.050875
3.333333	1	-0.050250
3.350000	1	-0.049625
3.366667	1	-0.049625
3.383333	1	-0.049125
3.400000	1	-0.049000
3.416667	1	-0.048625
3.433333	1	-0.048125
3.450000	1	-0.047375
3.466667	1	-0.047125
3.483333	1	-0.046875
3.500000	1	-0.047000
3.516667	1	-0.047375
3.533333	1	-0.046875
3.550000	1	-0.047000
3.566667	1	-0.046500
3.583333	1	-0.045875
3.600000	1	-0.046125
3.616667	1	-0.045500
3.633333	1	-0.045000
3.650000	1	-0.044875
3.666667	1	-0.044625
3.683333	1	-0.044750
3.700000	1	-0.044625
3.716667	1	-0.043875
3.733333	1	-0.044000
3.750000	1	-0.043500
3.766667	1	-0.043250
3.783333	1	-0.043375
3.800000	1	-0.043000
3.816667	1	-0.041875
3.833333	1	-0.041500
3.850000	1	-0.041500
3.866667	1	-0.041500
3.883333	1	-0.042000
3.900000	1	-0.042375
3.916667	1	-0.042625
3.933333	1	-0.042625
3.950000	1	-0.043250
3.966667	1	-0.043375
3.983333	1	-0.043750
4.000000	1	-0.043500
4.016667	1	-0.043000
4.033333	1	-0.043000
4.050000	1	-0.043625
4.066667	1	-0.044250
4.083333	1	-0.044750
4.100000	1	-0.045250
4.116667	1	-0.045375
4.133333	1	-0.046125
4.150000	1	-0.046625
4.166667	1	-0.047125
4.183333	1	-0.047500
4.200000	1	-0.047250
4.216667	1	-0.047750
4.233333	1	-0.047875
4.250000	1	-0.048000
4.266667	1	-0.048500
4.283333	1	-0.049125
4.300000	1	-0.049625
4.316667	1	-0.050750
4.333333	1	-0.051000
4.350000	1	-0.051125
4.366667	1	-0.051875
4.383333	1	-0.052000
4.400000	1	-0.052250
4.416667	1	-0.051750
4.433333	1	-0.051625
4.450000	1	-0.051000
4.466667	1	-0.050875
4.483333	1	-0.050875
4.500000	1	-0.050375
4.516667	1	-0.050250
4.533333	1	-0.049500
4.550000	1	-0.049250
4.566667	1	-0.048125
4.583333	1	-0.047375
4.600000	1	-0.046500
4.616667	1	-0.045750
4.633333	1	-0.044875
4.650000	1	-0.043875
4.666667	1	-0.043125
4.683333	1	-0.041750
4.700000	1	-0.040500
4.716667	1	-0.038750
4.733333	1	-0.037250
4.750000	1	-0.034500
4.766667	1	-0.032750
4.783333	1	-0.030625
4.800000	1	-0.029375
4.816667	1	-0.027625
4.833333	1	-0.025500
4.850000	1	-0.023250
4.866667	1	-0.021500
4.883333	1	-0.019750
4.900000	1	-0.017500
4.916667	1	-0.014875
4.933333	1	-0.012875
4.950000	1	-0.009875
4.966667	1	-0.007250
4.983333	1	-0.004750
5.000000	1	-0.002500
5.016667	1	0.000375
5.033333	1	0.002875
5.050000	1	0.005125
5.066667	1	0.007500
5.083333	1	0.009500
5.100000	1	0.011250
5.116667	1	0.012875
5.133333	1	0.015500
5.150000	1	0.017000
5.166667	1	0.019375
5.183333	1	0.020875
5.200000	1	0.022750
5.216667	1	0.024000
5.233333	1	0.024500
5.250000	1	0.026000
5.266667	1	0.027250
5.283333	1	0.027875
5.300000	1	0.028500
5.316667	1	0.030000
5.333333	1	0.030625
5.350000	1	0.031125
5.366667	1	0.030875
5.383333	1	0.031875
5.400000	1	0.032125
5.416667	1	0.032125
5.433333	1	0.031875
5.450000	1	0.031750
5.466667	1	0.031250
5.483333	1	0.030750
5.500000	1	0.029625
5.516667	1	0.029125
5.533333	1	0.028500
5.550000	1	0.027250
5.566667	1	0.026875
5.583333	1	0.026000
5.600000	1	0.024625
5.616667	1	0.023500
5.633333	1	0.022750
5.650000	1	0.021250
5.666667	1	0.020125
5.683333	1	0.019125
5.700000	1	0.017625
5.716667	1	0.016250
5.733333	1	0.015250
5.750000	1	0.013875
5.766667	1	0.012500
5.783333	1	0.011250
5.800000	1	0.010125
5.816667	1	0.008625
5.833333	1	0.007250
5.850000	1	0.006250
5.866667	1	0.004875
5.883333	1	0.004000
5.900000	1	0.003250
5.916667	1	0.002375
5.933333	1	0.001750
5.950000	1	0.000500
5.966667	1	0.000000
5.983333	1	-0.000500
6.000000	1	-0.000875
6.016667	1	-0.000625
6.033333	1	-0.000875
6.050000	1	-0.001750
6.066667	1	-0.001875
6.083333	1	-0.001750
6.100000	1	-0.002375
6.116667	1	-0.002875
6.133333	1	-0.003000
6.150000	1	-0.002625
6.166667	1	-0.001625
6.183333	1	-0.000625
6.200000	1	0.000250
6.216667	1	0.000750
6.233333	1	0.001375
6.250000	1	0.002375
6.266667	1	0.003125
6.283333	1	0.004375
6.300000	1	0.005625
6.316667	1	0.006625
6.333333	1	0.009125
6.350000	1	0.011000
6.366667	1	0.011875
6.383333	1	0.013750
6.400000	1	0.015375
6.416667	1	0.017250
6.433333	1	0.018875
6.450000	1	0.020000
6.466667	1	0.022500
6.483333	1	0.024375
6.500000	1	0.026375
6.516667	1	0.027500
6.533333	1	0.030000
6.550000	1	0.031875
6.566667	1	0.034000
6.583333	1	0.035875
6.600000	1	0.037875
6.616667	1	0.040375
6.633333	1	0.042250
6.650000	1	0.044000
6.666667	1	0.045375
6.683333	1	0.046750
6.700000	1	0.048125
6.716667	1	0.049625
6.733333	1	0.051250
6.750000	1	0.052500
6.766667	1	0.053500
6.783333	1	0.054750
6.800000	1	0.056000
6.816667	1	0.057500
6.833333	1	0.058000
6.850000	1	0.058500
6.866667	1	0.059125
6.883333	1	0.059125
6.900000	1	0.059750
6.916667	1	0.059750
6.933333	1	0.059625
6.950000	1	0.059875
6.966667	1	0.059250
6.983333	1	0.058625
7.000000	1	0.058000
7.016667	1	0.057125
7.033333	1	0.056000
7.050000	1	0.055250
7.066667	1	0.053500
7.083333	1	0.052500
7.100000	1	0.050500
7.116667	1	0.049000
7.133333	1	0.047125
7.150000	1	0.045500
7.166667	1	0.043875
7.183333	1	0.041750
7.200000	1	0.039750
7.216667	1	0.037750
7.233333	1	0.035625
7.250000	1	0.033375
7.266667	1	0.030875
7.283333	1	0.027875
7.300000	1	0.025625
7.316667	1	0.023250
7.333333	1	0.020500
7.350000	1	0.018625
7.366667	1	0.016750
7.383333	1	0.014250
7.400000	1	0.011250
7.416667	1	0.008625
7.433333	1	0.006250
7.450000	1	0.003625
7.466667	1	0.001125
7.483333	1	-0.000750
7.500000	1	-0.003500
7.516667	1	-0.005750
7.533333	1	-0.008000
7.550000	1	-0.010375
7.566667	1	-0.012375
7.583333	1	-0.014750
7.600000	1	-0.016750
7.616667	1	-0.018750
7.633333	1	-0.021250
7.650000	1	-0.023000
7.666667	1	-0.024875
7.683333	1	-0.026750
7.700000	1	-0.029250
7.716667	1	-0.031250
7.733333	1	-0.032875
7.750000	1	-0.034500
7.766667	1	-0.036000
7.783333	1	-0.037625
7.800000	1	-0.039250
7.816667	1	-0.041500
7.833333	1	-0.043250
7.850000	1	-0.044625
7.866667	1	-0.046250
7.883333	1	-0.047000
7.900000	1	-0.048000
7.916667	1	-0.049125
7.933333	1	-0.049875
7.950000	1	-0.050875
7.966667	1	-0.051000
7.983333	1	-0.052375
8.000000	1	-0.052750
8.016667	1	-0.053750
8.033333	1	-0.055000
8.050000	1	-0.054875
8.066667	1	-0.055250
8.083333	1	-0.055250
8.100000	1	-0.055125
8.116667	1	-0.055625
8.133333	1	-0.055750
8.150000	1	-0.054750
8.166667	1	-0.054625
8.183333	1	-0.054500
8.200000	1	-0.053750
8.216667	1	-0.053000
8.233333	1	-0.052250
8.250000	1	-0.051500
8.266667	1	-0.050500
8.283333	1	-0.049125
8.300000	1	-0.047625
8.316667	1	-0.046625
8.333333	1	-0.045375
8.350000	1	-0.043375
8.366667	1	-0.041750
8.383333	1	-0.040125
8.400000	1	-0.037875
8.416667	1	-0.036375
8.433333	1	-0.034625
8.450000	1	-0.032250
8.466667	1	-0.030000
8.483333	1	-0.027875
8.500000	1	-0.025500
8.516667	1	-0.022625
8.533333	1	-0.020250
8.550000	1	-0.018000
8.566667	1	-0.015625
8.583333	1	-0.013125
8.600000	1	-0.010750
8.616667	1	-0.008875
8.633333	1	-0.006500
8.650000	1	-0.004375
8.666667	1	-0.002375
8.683333	1	0.000000
8.700000	1	0.001625
8.716667	1	0.003500
8.733333	1	0.005500
8.750000	1	0.007500
8.766667	1	0.008875
8.783333	1	0.010875
8.800000	1	0.012625
8.816667	1	0.013875
8.833333	1	0.015875
8.850000	1	0.017500
8.866667	1	0.018625
8.883333	1	0.020000
8.900000	1	0.020875
8.916667	1	0.021875
8.933333	1	0.023375
8.950000	1	0.024750
8.966667	1	0.026000
8.983333	1	0.026875
9.000000	1	0.028000
9.016667	1	0.028125
9.033333	1	0.028875
9.050000	1	0.029250
9.066667	1	0.029875
9.083333	1	0.030250
9.100000	1	0.031500
9.116667	1	0.032500
9.133333	1	0.033000
9.150000	1	0.033875
9.166667	1	0.034000
9.183333	1	0.033875
9.200000	1	0.033750
9.216667	1	0.034250
9.233333	1	0.034250
9.250000	1	0.034500
9.266667	1	0.034125
9.283333	1	0.034125
9.300000	1	0.033875
9.316667	1	0.033125
9.333333	1	0.033125
9.350000	1	0.033375
9.366667	1	0.033250
9.383333	1	0.033125
9.400000	1	0.033125
9.416667	1	0.033375
9.433333	1	0.032875
9.450000	1	0.033250
9.466667	1	0.033875
9.483333	1	0.034250
9.500000	1	0.035500
9.516667	1	0.036625
9.533333	1	0.038000
9.550000	1	0.040375
9.566667	1	0.043125
9.583333	1	0.046500
9.600000	1	0.050875
9.616667	1	0.055875
9.633333	1	0.062125
9.650000	1	0.069750
9.666667	1	0.079000
9.683333	1	0.090500
9.700000	1	0.104375
9.716667	1	0.120250
9.733333	1	0.137500
9.750000	1	0.158625
9.766667	1	0.183125
9.783333	1	0.212125
9.800000	1	0.244500
9.816667	1	0.281625
9.833333	1	0.322875
9.850000	1	0.365000
9.866667	1	0.404125
9.883333	1	0.436250
9.900000	1	0.457875
9.916667	1	0.472125
9.933333	1	0.488375
9.950000	1	0.526375
9.966667	1	0.613000
9.983333	1	0.779750
10.000000	1	1.061875
10.016667	1	1.490000
10.033333	1	2.092250
10.050000	1	2.889000
10.066667	1	3.894625
10.083333	1	5.117125
10.100000	1	6.560125
10.116667	1	8.216250
10.133333	1	10.074375
10.150000	1	12.113250
10.166667	1	14.304000
10.183333	1	16.611125
10.200000	1	18.994500
10.216667	1	21.415500
10.233333	1	23.833875
10.250000	1	26.209375
10.266667	1	28.503125
10.283333	1	30.672125
10.300000	1	32.664750
10.316667	1	34.410750
10.333333	1	35.820500
10.350000	1	36.781875
10.366667	1	37.178625
10.383333	1	36.909500
10.400000	1	35.919500
10.416667	1	34.225125
10.433333	1	31.927250
10.450000	1	29.200000
10.466667	1	26.248000
10.483333	1	23.269875
10.500000	1	20.421750
10.516667	1	17.805625
10.533333	1	15.468000
10.550000	1	13.416875
10.566667	1	11.632875
10.583333	1	10.091250
10.600000	1	8.763500
10.616667	1	7.625250
10.633333	1	6.655750
10.650000	1	5.837125
10.666667	1	5.149375
10.683333	1	4.575625
10.700000	1	4.099625
10.716667	1	3.704375
10.733333	1	3.375750
10.750000	1	3.101375
10.766667	1	2.869875
10.783333	1	2.673125
10.800000	1	2.503750
10.816667	1	2.356500
10.833333	1	2.226875
10.850000	1	2.111375
10.866667	1	2.008125
10.883333	1	1.915375
10.900000	1	1.831750
10.916667	1	1.755375
10.933333	1	1.685500
10.950000	1	1.621000
10.966667	1	1.561500
10.983333	1	1.506875
11.000000	1	1.455000
11.016667	1	1.406250
11.033333	1	1.362250
11.050000	1	1.320375
11.066667	1	1.281250
11.083333	1	1.245500
11.100000	1	1.210875
11.116667	1	1.178250
11.133333	1	1.147875
11.150000	1	1.119250
11.166667	1	1.092375
11.183333	1	1.067750
11.200000	1	1.044250
11.216667	1	1.022125
11.233333	1	1.001375
11.250000	1	0.982375
11.266667	1	0.964500
11.283333	1	0.948125
11.300000	1	0.932500
11.316667	1	0.918750
11.333333	1	0.906000
11.350000	1	0.893875
11.366667	1	0.882125
11.383333	1	0.871875
11.400000	1	0.862125
11.416667	1	0.854375
11.433333	1	0.847250
11.450000	1	0.841125
11.466667	1	0.835875
11.483333	1	0.831125
11.500000	1	0.827250
11.516667	1	0.823000
11.533333	1	0.820250
11.550000	1	0.818250
11.566667	1	0.817000
11.583333	1	0.816250
11.600000	1	0.816375
11.616667	1	0.815875
11.633333	1	0.816000
11.650000	1	0.817500
11.666667	1	0.818500
11.683333	1	0.820125
11.700000	1	0.821500
11.716667	1	0.822875
11.733333	1	0.824750
11.750000	1	0.826625
11.766667	1	0.828375
11.783333	1	0.830125
11.800000	1	0.831250
11.816667	1	0.832875
11.833333	1	0.834000
11.850000	1	0.835875
11.866667	1	0.837750
11.883333	1	0.839875
11.900000	1	0.841625
11.916667	1	0.844375
11.933333	1	0.847375
11.950000	1	0.851000
11.966667	1	0.854625
11.983333	1	0.859500
12.000000	1	0.866250
12.016667	1	0.873750
12.033333	1	0.883250
12.050000	1	0.894750
12.066667	1	0.909250
12.083333	1	0.928250
12.100000	1	0.952500
12.116667	1	0.982875
12.133333	1	1.022125
12.150000	1	1.071250
12.166667	1	1.132000
12.183333	1	1.207250
12.200000	1	1.297875
12.216667	1	1.406250
12.233333	1	1.533500
12.250000	1	1.681875
12.266667	1	1.852250
12.283333	1	2.046750
12.300000	1	2.269250
12.316667	1	2.519000
12.333333	1	2.799500
12.350000	1	3.111375
12.366667	1	3.455750
12.383333	1	3.833625
12.400000	1	4.245125
12.416667	1	4.689125
12.433333	1	5.163625
12.450000	1	5.665875
12.466667	1	6.195375
12.483333	1	6.747625
12.500000	1	7.316875
12.516667	1	7.896625
12.533333	1	8.479625
12.550000	1	9.055250
12.566667	1	9.612875
12.583333	1	10.141625
12.600000	1	10.630000
12.616667	1	11.069250
12.633333	1	11.456375
12.650000	1	11.787625
12.666667	1	12.062500
12.683333	1	12.281000
12.700000	1	12.444000
12.716667	1	12.550625
12.733333	1	12.604375
12.750000	1	12.603875
12.766667	1	12.548500
12.783333	1	12.436375
12.800000	1	12.268500
12.816667	1	12.044625
12.833333	1	11.768000
12.850000	1	11.446250
12.866667	1	11.087750
12.883333	1	10.700375
12.900000	1	10.289125
12.916667	1	9.853000
12.933333	1	9.390500
12.950000	1	8.900500
12.966667	1	8.382000
12.983333	1	7.839000
13.000000	1	7.275625
13.016667	1	6.696250
13.033333	1	6.102625
13.050000	1	5.495625
13.066667	1	4.878875
13.083333	1	4.265000
13.100000	1	3.677750
13.116667	1	3.145125
13.133333	1	2.691375
13.150000	1	2.323625
13.166667	1	2.035125
13.183333	1	1.811750
13.200000	1	1.639250
13.216667	1	1.504375
13.233333	1	1.396625
13.250000	1	1.308250
13.266667	1	1.234625
13.283333	1	1.173000
13.300000	1	1.118875
13.316667	1	1.070875
13.333333	1	1.027750
13.350000	1	0.989000
13.366667	1	0.953500
13.383333	1	0.920125
13.400000	1	0.888750
13.416667	1	0.860125
13.433333	1	0.833500
13.450000	1	0.809000
13.466667	1	0.785750
13.483333	1	0.765375
13.500000	1	0.746000
13.516667	1	0.728875
13.533333	1	0.713500
13.550000	1	0.700000
13.566667	1	0.687875
13.583333	1	0.678000
13.600000	1	0.669500
13.616667	1	0.662875
13.633333	1	0.657375
13.650000	1	0.653375
13.666667	1	0.650250
13.683333	1	0.648000
13.700000	1	0.646625
13.716667	1	0.646500
13.733333	1	0.646750
13.750000	1	0.647750
13.766667	1	0.647750
13.783333	1	0.647625
13.800000	1	0.647750
13.816667	1	0.647625
13.833333	1	0.645250
13.850000	1	0.642125
13.866667	1	0.637250
13.883333	1	0.630000
13.900000	1	0.620875
13.916667	1	0.610625
13.933333	1	0.599375
13.950000	1	0.587000
13.966667	1	0.573500
13.983333	1	0.560125
14.000000	1	0.546375
14.016667	1	0.532875
14.033333	1	0.519875
14.050000	1	0.507250
14.066667	1	0.495250
14.083333	1	0.484750
14.100000	1	0.474250
14.116667	1	0.465875
14.133333	1	0.458000
14.150000	1	0.450625
14.166667	1	0.444000
14.183333	1	0.439250
14.200000	1	0.435625
14.216667	1	0.432750
14.233333	1	0.431125
14.250000	1	0.431375
14.266667	1	0.433500
14.283333	1	0.437125
14.300000	1	0.441750
14.316667	1	0.449250
14.333333	1	0.458500
14.350000	1	0.470500
14.366667	1	0.485375
14.383333	1	0.503375
14.400000	1	0.525125
14.416667	1	0.552125
14.433333	1	0.584625
14.450000	1	0.623250
14.466667	1	0.669750
14.483333	1	0.725000
14.500000	1	0.791625
14.516667	1	0.872250
14.533333	1	0.969750
14.550000	1	1.089250
14.566667	1	1.236875
14.583333	1	1.420750
14.600000	1	1.649875
14.616667	1	1.937375
14.633333	1	2.297500
14.650000	1	2.748375
14.666667	1	3.307625
14.683333	1	3.996250
14.700000	1	4.833625
14.716667	1	5.837375
14.733333	1	7.022875
14.750000	1	8.402000
14.766667	1	9.980625
14.783333	1	11.759500
14.800000	1	13.732000
14.816667	1	15.886375
14.833333	1	18.206500
14.850000	1	20.669000
14.866667	1	23.246125
14.883333	1	25.903875
14.900000	1	28.604750
14.916667	1	31.304875
14.933333	1	33.960875
14.950000	1	36.525750
14.966667	1	38.949375
14.983333	1	41.176750
15.000000	1	43.156500
15.016667	1	44.834125
15.033333	1	46.160875
15.050000	1	47.091375
15.066667	1	47.590000
15.083333	1	47.633625
15.100000	1	47.213750
15.116667	1	46.341750
15.133333	1	45.040625
15.150000	1	43.352500
15.166667	1	41.331250
15.183333	1	39.044000
15.200000	1	36.557250
15.216667	1	33.940000
15.233333	1	31.258625
15.250000	1	28.574500
15.266667	1	25.942000
15.283333	1	23.405500
15.300000	1	21.002625
15.316667	1	18.759500
15.333333	1	16.692375
15.350000	1	14.807875
15.366667	1	13.108500
15.383333	1	11.588625
15.400000	1	10.239000
15.416667	1	9.048625
15.433333	1	8.002750
15.450000	1	7.088625
15.466667	1	6.292000
15.483333	1	5.601500
15.500000	1	5.003875
15.516667	1	4.487500
15.533333	1	4.043250
15.550000	1	3.661000
15.566667	1	3.332625
15.583333	1	3.050750
15.600000	1	2.809125
15.616667	1	2.602250
15.633333	1	2.423500
15.650000	1	2.270375
15.666667	1	2.138000
15.683333	1	2.023500
15.700000	1	1.924625
15.716667	1	1.839000
15.733333	1	1.764375
15.750000	1	1.698500
15.766667	1	1.638500
15.783333	1	1.584625
15.800000	1	1.535375
15.816667	1	1.488625
15.833333	1	1.443750
15.850000	1	1.400125
15.866667	1	1.357000
15.883333	1	1.314125
15.900000	1	1.272000
15.916667	1	1.231375
15.933333	1	1.192000
15.950000	1	1.154000
15.966667	1	1.117750
15.983333	1	1.082750
16.000000	1	1.051000
16.016667	1	1.020750
16.033333	1	0.993500
16.050000	1	0.969125
16.066667	1	0.947500
16.083333	1	0.928375
16.100000	1	0.911875
16.116667	1	0.896750
16.133333	1	0.884125
16.150000	1	0.874750
16.166667	1	0.867500
16.183333	1	0.862000
16.200000	1	0.858375
16.216667	1	0.855875
16.233333	1	0.855250
16.250000	1	0.855625
16.266667	1	0.857000
16.283333	1	0.857750
16.300000	1	0.858750
16.316667	1	0.859875
16.333333	1	0.861000
16.350000	1	0.861500
16.366667	1	0.861500
16.383333	1	0.859875
16.400000	1	0.856500
16.416667	1	0.852250
16.433333	1	0.846750
16.450000	1	0.840500
16.466667	1	0.832125
16.483333	1	0.822625
16.500000	1	0.811875
16.516667	1	0.802000
16.533333	1	0.791375
16.550000	1	0.781375
16.566667	1	0.771625
16.583333	1	0.763125
16.600000	1	0.754500
16.616667	1	0.747875
16.633333	1	0.742125
16.650000	1	0.736625
16.666667	1	0.733250
16.683333	1	0.731250
16.700000	1	0.729625
16.716667	1	0.729375
16.733333	1	0.730125
16.750000	1	0.731125
16.766667	1	0.734000
16.783333	1	0.736375
16.800000	1	0.738875
16.816667	1	0.741500
16.833333	1	0.744250
16.850000	1	0.747500
16.866667	1	0.750875
16.883333	1	0.753250
16.900000	1	0.756500
16.916667	1	0.759000
16.933333	1	0.761625
16.950000	1	0.763375
16.966667	1	0.765000
16.983333	1	0.767000
17.000000	1	0.767875
17.016667	1	0.768000
17.033333	1	0.767625
17.050000	1	0.766875
17.066667	1	0.765500
17.083333	1	0.763875
17.100000	1	0.762750
17.116667	1	0.761125
17.133333	1	0.759500
17.150000	1	0.758000
17.166667	1	0.755500
17.183333	1	0.753500
17.200000	1	0.751375
17.216667	1	0.748625
17.233333	1	0.745500
17.250000	1	0.742125
17.266667	1	0.739250
17.283333	1	0.734625
17.300000	1	0.729500
17.316667	1	0.723250
17.333333	1	0.717000
17.350000	1	0.709875
17.366667	1	0.702375
17.383333	1	0.694375
17.400000	1	0.686375
17.416667	1	0.677750
17.433333	1	0.669625
17.450000	1	0.660875
17.466667	1	0.653250
17.483333	1	0.645500
17.500000	1	0.638625
17.516667	1	0.632375
17.533333	1	0.627875
17.550000	1	0.623375
17.566667	1	0.620875
17.583333	1	0.619250
17.600000	1	0.618500
17.616667	1	0.619625
17.633333	1	0.621875
17.650000	1	0.626000
17.666667	1	0.630750
17.683333	1	0.637000
17.700000	1	0.644375
17.716667	1	0.653500
17.733333	1	0.662500
17.750000	1	0.673125
17.766667	1	0.684875
17.783333	1	0.697375
17.800000	1	0.710625
17.816667	1	0.723625
17.833333	1	0.736000
17.850000	1	0.748750
17.866667	1	0.760625
17.883333	1	0.772750
17.900000	1	0.783625
17.916667	1	0.793625
17.933333	1	0.803125
17.950000	1	0.810875
17.966667	1	0.817750
17.983333	1	0.822625
18.000000	1	0.826750
18.016667	1	0.828250
18.033333	1	0.828125
18.050000	1	0.827000
18.066667	1	0.824000
18.083333	1	0.818875
18.100000	1	0.812875
18.116667	1	0.805000
18.133333	1	0.797000
18.150000	1	0.787000
18.166667	1	0.776000
18.183333	1	0.764500
18.200000	1	0.752625
18.216667	1	0.740750
18.233333	1	0.728250
18.250000	1	0.715625
18.266667	1	0.703000
18.283333	1	0.690625
18.300000	1	0.679375
18.316667	1	0.668125
18.333333	1	0.657750
18.350000	1	0.648625
18.366667	1	0.639375
18.383333	1	0.631000
18.400000	1	0.623375
18.416667	1	0.616750
18.433333	1	0.610375
18.450000	1	0.604250
18.466667	1	0.600000
18.483333	1	0.596375
18.500000	1	0.594000
18.516667	1	0.591625
18.533333	1	0.590625
18.550000	1	0.589750
18.566667	1	0.589375
18.583333	1	0.589375
18.600000	1	0.589750
18.616667	1	0.590750
18.633333	1	0.591500
18.650000	1	0.592625
18.666667	1	0.594500
18.683333	1	0.596125
18.700000	1	0.598875
18.716667	1	0.601625
18.733333	1	0.605250
18.750000	1	0.608000
18.766667	1	0.611875
18.783333	1	0.615750
18.800000	1	0.620125
18.816667	1	0.625500
18.833333	1	0.631375
18.850000	1	0.637750
18.866667	1	0.644875
18.883333	1	0.652875
18.900000	1	0.661875
18.916667	1	0.672000
18.933333	1	0.684000
18.950000	1	0.697250
18.966667	1	0.711375
18.983333	1	0.726375
19.000000	1	0.744500
19.016667	1	0.763750
19.033333	1	0.784500
19.050000	1	0.806250
19.066667	1	0.830500
19.083333	1	0.856375
19.100000	1	0.884125
19.116667	1	0.912750
19.133333	1	0.942250
19.150000	1	0.973625
19.166667	1	1.005375
19.183333	1	1.037000
19.200000	1	1.068875
19.216667	1	1.100875
19.233333	1	1.131625
19.250000	1	1.161500
19.266667	1	1.189125
19.283333	1	1.215375
19.300000	1	1.238125
19.316667	1	1.258375
19.333333	1	1.274500
19.350000	1	1.286750
19.366667	1	1.295500
19.383333	1	1.299000
19.400000	1	1.297750
19.416667	1	1.291875
19.433333	1	1.280875
19.450000	1	1.265250
19.466667	1	1.246000
19.483333	1	1.222000
19.500000	1	1.194125
19.516667	1	1.163625
19.533333	1	1.130750
19.550000	1	1.095000
19.566667	1	1.058250
19.583333	1	1.020125
19.600000	1	0.982125
19.616667	1	0.943500
19.633333	1	0.905875
19.650000	1	0.869375
19.666667	1	0.834125
19.683333	1	0.801000
19.700000	1	0.769875
19.716667	1	0.741500
19.733333	1	0.715625
19.750000	1	0.693250
19.766667	1	0.674125
19.783333	1	0.657750
19.800000	1	0.644375
19.816667	1	0.633625
19.833333	1	0.626875
19.850000	1	0.622250
19.866667	1	0.621750
19.883333	1	0.623375
19.900000	1	0.627250
19.916667	1	0.634000
19.933333	1	0.642500
19.950000	1	0.653250
19.966667	1	0.666500
19.983333	1	0.681500
20.000000	1	0.696625
20.016667	1	0.713875
20.033333	1	0.730750
20.050000	1	0.749500
20.066667	1	0.768375
20.083333	1	0.787000
20.100000	1	0.806500
20.116667	1	0.826250
20.133333	1	0.846500
20.150000	1	0.866875
20.166667	1	0.888000
20.183333	1	0.909375
20.200000	1	0.931750
20.216667	1	0.955000
20.233333	1	0.980375
20.250000	1	1.007750
20.266667	1	1.037125
20.283333	1	1.068375
20.300000	1	1.102125
20.316667	1	1.139125
20.333333	1	1.179000
20.350000	1	1.221000
20.366667	1	1.265875
20.383333	1	1.313500
20.400000	1	1.364250
20.416667	1	1.417000
20.433333	1	1.471250
20.450000	1	1.527500
20.466667	1	1.584125
20.483333	1	1.641375
20.500000	1	1.698375
20.516667	1	1.754750
20.533333	1	1.808125
20.550000	1	1.859250
20.566667	1	1.906625
20.583333	1	1.949750
20.600000	1	1.988125
20.616667	1	2.019625
20.633333	1	2.044000
20.650000	1	2.061750
20.666667	1	2.072500
20.683333	1	2.075875
20.700000	1	2.072750
20.716667	1	2.062000
20.733333	1	2.047000
20.750000	1	2.026500
20.766667	1	2.001375
20.783333	1	1.973500
20.800000	1	1.943125
20.816667	1	1.912500
20.833333	1	1.881875
20.850000	1	1.852375
20.866667	1	1.823875
20.883333	1	1.798125
20.900000	1	1.775125
20.916667	1	1.755750
20.933333	1	1.738250
20.950000	1	1.723250
20.966667	1	1.709750
20.983333	1	1.698000
21.000000	1	1.686750
21.016667	1	1.675500
21.033333	1	1.663125
21.050000	1	1.649250
21.066667	1	1.632125
21.083333	1	1.611375
21.100000	1	1.587000
21.116667	1	1.557875
21.133333	1	1.524875
21.150000	1	1.486750
21.166667	1	1.443375
21.183333	1	1.396125
21.200000	1	1.345250
21.216667	1	1.290750
21.233333	1	1.234500
21.250000	1	1.176000
21.266667	1	1.117000
21.283333	1	1.058250
21.300000	1	0.999500
21.316667	1	0.942250
21.333333	1	0.887250
21.350000	1	0.834500
21.366667	1	0.784375
21.383333	1	0.736750
21.400000	1	0.693000
21.416667	1	0.652500
21.433333	1	0.614500
21.450000	1	0.580625
21.466667	1	0.549125
21.483333	1	0.521375
21.500000	1	0.496250
21.516667	1	0.474000
21.533333	1	0.453500
21.550000	1	0.436375
21.566667	1	0.421000
21.583333	1	0.407625
21.600000	1	0.395875
21.616667	1	0.385250
21.633333	1	0.375875
21.650000	1	0.368750
21.666667	1	0.362250
21.683333	1	0.356875
21.700000	1	0.352625
21.716667	1	0.349125
21.733333	1	0.346750
21.750000	1	0.345000
21.766667	1	0.344250
21.783333	1	0.343625
21.800000	1	0.343750
21.816667	1	0.345000
21.833333	1	0.346875
21.850000	1	0.349125
21.866667	1	0.351625
21.883333	1	0.354625
21.900000	1	0.358875
21.916667	1	0.363625
21.933333	1	0.367625
21.950000	1	0.373125
21.966667	1	0.379125
21.983333	1	0.385000
22.000000	1	0.391125
22.016667	1	0.397250
22.033333	1	0.403250
22.050000	1	0.409750
22.066667	1	0.415500
22.083333	1	0.421375
22.100000	1	0.426750
22.116667	1	0.431500
22.133333	1	0.435875
22.150000	1	0.439500
22.166667	1	0.442000
22.183333	1	0.444250
22.200000	1	0.446000
22.216667	1	0.446500
22.233333	1	0.446125
22.250000	1	0.445625
22.266667	1	0.444000
22.283333	1	0.441250
22.300000	1	0.438500
22.316667	1	0.434750
22.333333	1	0.431250
22.350000	1	0.427500
22.366667	1	0.423750
22.383333	1	0.419250
22.400000	1	0.415875
22.416667	1	0.412625
22.433333	1	0.410000
22.450000	1	0.407375
22.466667	1	0.405625
22.483333	1	0.404000
22.500000	1	0.403375
22.516667	1	0.403375
22.533333	1	0.404000
22.550000	1	0.405500
22.566667	1	0.406750
22.583333	1	0.408250
22.600000	1	0.410375
22.616667	1	0.412375
22.633333	1	0.415250
22.650000	1	0.417500
22.666667	1	0.421000
22.683333	1	0.423750
22.700000	1	0.426125
22.716667	1	0.429000
22.733333	1	0.432500
22.750000	1	0.435000
22.766667	1	0.436500
22.783333	1	0.438250
22.800000	1	0.439500
22.816667	1	0.440500
22.833333	1	0.440500
22.850000	1	0.440125
22.866667	1	0.439250
22.883333	1	0.437625
22.900000	1	0.435250
22.916667	1	0.433000
22.933333	1	0.429875
22.950000	1	0.427250
22.966667	1	0.423750
22.983333	1	0.419500
23.000000	1	0.415500
23.016667	1	0.410875
23.033333	1	0.405625
23.050000	1	0.401000
23.066667	1	0.396625
23.083333	1	0.391625
23.100000	1	0.386875
23.116667	1	0.381875
23.133333	1	0.377750
23.150000	1	0.373625
23.166667	1	0.370500
23.183333	1	0.367500
23.200000	1	0.364250
23.216667	1	0.362125
23.233333	1	0.361000
23.250000	1	0.361000
23.266667	1	0.361375
23.283333	1	0.362500
23.300000	1	0.366000
23.316667	1	0.370875
23.333333	1	0.376500
23.350000	1	0.383375
23.366667	1	0.392875
23.383333	1	0.403250
23.400000	1	0.416375
23.416667	1	0.433125
23.433333	1	0.452000
23.450000	1	0.475125
23.466667	1	0.501250
23.483333	1	0.532500
23.500000	1	0.568375
23.516667	1	0.609000
23.533333	1	0.657125
23.550000	1	0.712000
23.566667	1	0.773375
23.583333	1	0.842750
23.600000	1	0.920500
23.616667	1	1.006250
23.633333	1	1.101500
23.650000	1	1.206125
23.666667	1	1.319625
23.683333	1	1.443250
23.700000	1	1.576875
23.716667	1	1.720000
23.733333	1	1.872625
23.750000	1	2.033500
23.766667	1	2.202500
23.783333	1	2.377875
23.800000	1	2.560000
23.816667	1	2.747125
23.833333	1	2.937625
23.850000	1	3.130000
23.866667	1	3.322750
23.883333	1	3.513875
23.900000	1	3.701375
23.916667	1	3.883375
23.933333	1	4.056500
23.950000	1	4.218750
23.966667	1	4.368125
23.983333	1	4.501000
24.000000	1	4.616000
24.016667	1	4.710375
24.033333	1	4.782875
24.050000	1	4.831875
24.066667	1	4.857000
24.083333	1	4.857000
24.100000	1	4.832875
24.116667	1	4.784125
24.133333	1	4.712250
24.150000	1	4.618000
24.166667	1	4.502625
24.183333	1	4.368875
24.200000	1	4.218750
24.216667	1	4.055500
24.233333	1	3.881875
24.250000	1	3.701500
24.266667	1	3.515125
24.283333	1	3.326000
24.300000	1	3.137375
24.316667	1	2.950375
24.333333	1	2.766875
24.350000	1	2.588500
24.366667	1	2.417750
24.383333	1	2.255000
24.400000	1	2.100875
24.416667	1	1.956500
24.433333	1	1.821750
24.450000	1	1.697000
24.466667	1	1.582000
24.483333	1	1.476625
24.500000	1	1.380625
24.516667	1	1.293125
24.533333	1	1.213125
24.550000	1	1.140750
24.566667	1	1.075750
24.583333	1	1.016500
24.600000	1	0.962750
24.616667	1	0.913875
24.633333	1	0.870000
24.650000	1	0.829750
24.666667	1	0.793125
24.683333	1	0.758000
24.700000	1	0.726500
24.716667	1	0.696875
24.733333	1	0.668875
24.750000	1	0.641625
24.766667	1	0.616250
24.783333	1	0.592250
24.800000	1	0.568625
24.816667	1	0.545875
24.833333	1	0.524000
24.850000	1	0.502750
24.866667	1	0.481875
24.883333	1	0.462375
24.900000	1	0.443250
24.916667	1	0.425250
24.933333	1	0.408000
24.950000	1	0.390875
24.966667	1	0.374625
24.983333	1	0.358875
25.000000	1	0.343875
25.016667	1	0.330000
25.033333	1	0.317125
25.050000	1	0.304375
25.066667	1	0.293125
25.083333	1	0.283000
25.100000	1	0.273250
25.116667	1	0.265000
25.133333	1	0.257125
25.150000	1	0.249375
25.166667	1	0.243000
25.183333	1	0.237250
25.200000	1	0.232125
25.216667	1	0.227875
25.233333	1	0.224875
25.250000	1	0.221500
25.266667	1	0.218875
25.283333	1	0.217500
25.300000	1	0.215875
25.316667	1	0.214500
25.333333	1	0.214125
25.350000	1	0.214000
25.366667	1	0.214125
25.383333	1	0.214250
25.400000	1	0.215000
25.416667	1	0.215625
25.433333	1	0.216500
25.450000	1	0.218000
25.466667	1	0.219375
25.483333	1	0.220750
25.500000	1	0.222875
25.516667	1	0.224875
25.533333	1	0.226250
25.550000	1	0.227875
25.566667	1	0.229000
25.583333	1	0.230250
25.600000	1	0.232000
25.616667	1	0.233250
25.633333	1	0.234625
25.650000	1	0.235625
25.666667	1	0.236250
25.683333	1	0.237500
25.700000	1	0.238000
25.716667	1	0.239125
25.733333	1	0.240000
25.750000	1	0.240250
25.766667	1	0.239750
25.783333	1	0.239375
25.800000	1	0.239875
25.816667	1	0.240250
25.833333	1	0.240000
25.850000	1	0.239375
25.866667	1	0.239375
25.883333	1	0.239125
25.900000	1	0.239250
25.916667	1	0.238750
25.933333	1	0.238250
25.950000	1	0.237375
25.966667	1	0.237500
25.983333	1	0.237250
26.000000	1	0.237000
26.016667	1	0.236875
26.033333	1	0.236375
26.050000	1	0.235625
26.066667	1	0.235625
26.083333	1	0.235750
26.100000	1	0.235500
26.116667	1	0.235375
26.133333	1	0.235625
26.150000	1	0.235875
26.166667	1	0.236000
26.183333	1	0.236500
26.200000	1	0.237000
26.216667	1	0.237500
26.233333	1	0.238250
26.250000	1	0.239250
26.266667	1	0.240000
26.283333	1	0.240625
26.300000	1	0.240500
26.316667	1	0.242000
26.333333	1	0.242375
26.350000	1	0.242625
26.366667	1	0.242750
26.383333	1	0.243750
26.400000	1	0.244375
26.416667	1	0.244125
26.433333	1	0.243500
26.450000	1	0.243750
26.466667	1	0.243750
26.483333	1	0.242500
26.500000	1	0.241000
26.516667	1	0.239750
26.533333	1	0.237875
26.550000	1	0.235125
26.566667	1	0.232500
26.583333	1	0.229750
26.600000	1	0.226500
26.616667	1	0.222250
26.633333	1	0.218375
26.650000	1	0.213375
26.666667	1	0.209000
26.683333	1	0.203875
26.700000	1	0.199500
26.716667	1	0.194875
26.733333	1	0.189250
26.750000	1	0.183625
26.766667	1	0.178125
26.783333	1	0.172750
26.800000	1	0.167125
26.816667	1	0.162375
26.833333	1	0.157875
26.850000	1	0.153375
26.866667	1	0.149000
26.883333	1	0.144625
26.900000	1	0.140375
26.916667	1	0.136875
26.933333	1	0.133375
26.950000	1	0.130625
26.966667	1	0.127500
26.983333	1	0.124500
27.000000	1	0.122250
27.016667	1	0.121250
27.033333	1	0.120625
27.050000	1	0.119875
27.066667	1	0.120500
27.083333	1	0.120750
27.100000	1	0.121000
27.116667	1	0.122500
27.133333	1	0.124125
27.150000	1	0.126250
27.166667	1	0.129250
27.183333	1	0.132500
27.200000	1	0.136125
27.216667	1	0.140250
27.233333	1	0.146000
27.250000	1	0.152000
27.266667	1	0.158125
27.283333	1	0.164750
27.300000	1	0.173375
27.316667	1	0.181750
27.333333	1	0.191375
27.350000	1	0.202375
27.366667	1	0.214875
27.383333	1	0.228875
27.400000	1	0.244625
27.416667	1	0.261375
27.433333	1	0.280750
27.450000	1	0.302750
27.466667	1	0.326875
27.483333	1	0.353375
27.500000	1	0.382875
27.516667	1	0.415500
27.533333	1	0.452500
27.550000	1	0.492250
27.566667	1	0.536625
27.583333	1	0.585000
27.600000	1	0.638375
27.616667	1	0.695750
27.633333	1	0.758500
27.650000	1	0.826375
27.666667	1	0.899125
27.683333	1	0.977625
27.700000	1	1.060750
27.716667	1	1.149500
27.733333	1	1.242000
27.750000	1	1.340125
27.766667	1	1.442500
27.783333	1	1.549500
27.800000	1	1.659625
27.816667	1	1.773000
27.833333	1	1.888750
27.850000	1	2.007125
27.866667	1	2.127750
27.883333	1	2.248375
27.900000	1	2.369250
27.916667	1	2.488625
27.933333	1	2.606000
27.950000	1	2.720500
27.966667	1	2.831125
27.983333	1	2.936375
28.000000	1	3.034875
28.016667	1	3.126875
28.033333	1	3.209750
28.050000	1	3.283875
28.066667	1	3.347625
28.083333	1	3.399750
28.100000	1	3.439625
28.116667	1	3.467000
28.133333	1	3.479875
28.150000	1	3.479625
28.166667	1	3.465375
28.183333	1	3.437250
28.200000	1	3.394500
28.216667	1	3.337750
28.233333	1	3.268500
28.250000	1	3.186750
28.266667	1	3.093375
28.283333	1	2.989500
28.300000	1	2.875875
28.316667	1	2.753375
28.333333	1	2.625875
28.350000	1	2.493000
28.366667	1	2.356500
28.383333	1	2.217125
28.400000	1	2.076625
28.416667	1	1.935750
28.433333	1	1.795750
28.450000	1	1.657500
28.466667	1	1.521500
28.483333	1	1.388125
28.500000	1	1.258500
28.516667	1	1.133000
28.533333	1	1.012375
28.550000	1	0.896750
28.566667	1	0.786250
28.583333	1	0.679750
28.600000	1	0.577750
28.616667	1	0.479625
28.633333	1	0.385875
28.650000	1	0.296250
28.666667	1	0.210250
28.683333	1	0.127500
28.700000	1	0.049375
28.716667	1	-0.026375
28.733333	1	-0.099000
28.750000	1	-0.168375
28.766667	1	-0.234125
28.783333	1	-0.297500
28.800000	1	-0.358375
28.816667	1	-0.416625
28.833333	1	-0.472375
28.850000	1	-0.525250
28.866667	1	-0.575375
28.883333	1	-0.622125
28.900000	1	-0.665625
28.916667	1	-0.706125
28.933333	1	-0.743375
28.950000	1	-0.776750
28.966667	1	-0.806375
28.983333	1	-0.831625
29.000000	1	-0.853000
29.016667	1	-0.870375
29.033333	1	-0.884000
29.050000	1	-0.893000
29.066667	1	-0.898250
29.083333	1	-0.899125
29.100000	1	-0.895250
29.116667	1	-0.888000
29.133333	1	-0.875875
29.150000	1	-0.860500
29.166667	1	-0.841000
29.183333	1	-0.817750
29.200000	1	-0.792000
29.216667	1	-0.762750
29.233333	1	-0.731875
29.250000	1	-0.697750
29.266667	1	-0.661375
29.283333	1	-0.622625
29.300000	1	-0.583250
29.316667	1	-0.542625
29.333333	1	-0.501125
29.350000	1	-0.458875
29.366667	1	-0.416375
29.383333	1	-0.373750
29.400000	1	-0.331250
29.416667	1	-0.288250
29.433333	1	-0.247000
29.450000	1	-0.205750
29.466667	1	-0.165625
29.483333	1	-0.127375
29.500000	1	-0.090250
29.516667	1	-0.054125
29.533333	1	-0.019625
29.550000	1	0.013375
29.566667	1	0.044250
29.583333	1	0.072875
29.600000	1	0.101125
29.616667	1	0.127375
29.633333	1	0.151625
29.650000	1	0.174375
29.666667	1	0.194875
29.683333	1	0.214500
29.700000	1	0.231875
29.716667	1	0.248250
29.733333	1	0.263000
29.750000	1	0.276625
29.766667	1	0.289375
29.783333	1	0.300250
29.800000	1	0.309875
29.816667	1	0.318750
29.833333	1	0.326125
29.850000	1	0.332875
29.866667	1	0.338750
29.883333	1	0.343125
29.900000	1	0.347500
29.916667	1	0.351250
29.933333	1	0.354875
29.950000	1	0.358750
29.966667	1	0.362500
29.983333	1	0.365250
30.000000	1	0.369000
30.016667	1	0.372125
30.033333	1	0.377125
30.050000	1	0.382000
30.066667	1	0.387125
30.083333	1	0.392875
30.100000	1	0.400000
30.116667	1	0.409000
30.133333	1	0.418875
30.150000	1	0.430125
30.166667	1	0.442875
30.183333	1	0.458375
30.200000	1	0.476250
30.216667	1	0.495750
30.233333	1	0.518625
30.250000	1	0.544375
30.266667	1	0.573500
30.283333	1	0.606625
30.300000	1	0.643250
30.316667	1	0.684625
30.333333	1	0.729250
30.350000	1	0.779000
30.366667	1	0.834750
30.383333	1	0.896375
30.400000	1	0.963125
30.416667	1	1.035500
30.433333	1	1.114500
30.450000	1	1.199250
30.466667	1	1.289750
30.483333	1	1.387000
30.500000	1	1.491000
30.516667	1	1.601000
30.533333	1	1.717375
30.550000	1	1.838875
30.566667	1	1.965750
30.583333	1	2.098625
30.600000	1	2.235750
30.616667	1	2.378125
30.633333	1	2.523875
30.650000	1	2.672625
30.666667	1	2.822625
30.683333	1	2.973500
30.700000	1	3.124000
30.716667	1	3.274125
30.733333	1	3.420000
30.750000	1	3.562750
30.766667	1	3.701375
30.783333	1	3.833625
30.800000	1	3.959625
30.816667	1	4.076500
30.833333	1	4.183625
30.850000	1	4.279125
30.866667	1	4.363500
30.883333	1	4.434500
30.900000	1	4.491500
30.916667	1	4.534125
30.933333	1	4.561875
30.950000	1	4.575250
30.966667	1	4.572625
30.983333	1	4.555500
31.000000	1	4.522375
31.016667	1	4.475000
31.033333	1	4.413250
31.050000	1	4.338500
31.066667	1	4.250250
31.083333	1	4.151125
31.100000	1	4.040625
31.116667	1	3.922125
31.133333	1	3.795125
31.150000	1	3.661250
31.166667	1	3.522375
31.183333	1	3.379375
31.200000	1	3.233750
31.216667	1	3.086625
31.233333	1	2.938375
31.250000	1	2.790375
31.266667	1	2.643875
31.283333	1	2.499750
31.300000	1	2.359000
31.316667	1	2.222125
31.333333	1	2.089250
31.350000	1	1.962125
31.366667	1	1.839750
31.383333	1	1.722375
31.400000	1	1.610750
31.416667	1	1.504875
31.433333	1	1.404250
31.450000	1	1.309500
31.466667	1	1.221250
31.483333	1	1.139000
31.500000	1	1.062250
31.516667	1	0.990375
31.533333	1	0.923750
31.550000	1	0.861750
31.566667	1	0.804875
31.583333	1	0.751625
31.600000	1	0.702500
31.616667	1	0.657625
31.633333	1	0.616125
31.650000	1	0.578000
31.666667	1	0.543500
31.683333	1	0.512500
31.700000	1	0.483375
31.716667	1	0.456875
31.733333	1	0.433250
31.750000	1	0.412375
31.766667	1	0.393625
31.783333	1	0.375625
31.800000	1	0.360500
31.816667	1	0.346000
31.833333	1	0.333625
31.850000	1	0.322125
31.866667	1	0.311125
31.883333	1	0.302250
31.900000	1	0.293750
31.916667	1	0.287000
31.933333	1	0.281000
31.950000	1	0.276000
31.966667	1	0.271500
31.983333	1	0.267750
32.000000	1	0.263875
32.016667	1	0.260375
32.033333	1	0.257875
32.050000	1	0.255500
32.066667	1	0.252875
32.083333	1	0.250250
32.100000	1	0.247500
32.116667	1	0.244625
32.133333	1	0.242375
32.150000	1	0.240125
32.166667	1	0.237125
32.183333	1	0.233625
32.200000	1	0.230625
32.216667	1	0.227125
32.233333	1	0.223250
32.250000	1	0.219250
32.266667	1	0.215250
32.283333	1	0.210875
32.300000	1	0.205750
32.316667	1	0.200625
32.333333	1	0.195125
32.350000	1	0.189375
32.366667	1	0.183500
32.383333	1	0.176750
32.400000	1	0.170250
32.416667	1	0.163375
32.433333	1	0.157125
32.450000	1	0.151000
32.466667	1	0.144375
32.483333	1	0.137750
32.500000	1	0.131250
32.516667	1	0.125125
32.533333	1	0.119125
32.550000	1	0.113125
32.566667	1	0.107000
32.583333	1	0.101000
32.600000	1	0.095875
32.616667	1	0.090250
32.633333	1	0.085500
32.650000	1	0.080750
32.666667	1	0.076000
32.683333	1	0.071500
32.700000	1	0.067875
32.716667	1	0.063500
32.733333	1	0.059375
32.750000	1	0.055750
32.766667	1	0.051875
32.783333	1	0.048875
32.800000	1	0.045750
32.816667	1	0.042750
32.833333	1	0.039875
32.850000	1	0.036750
32.866667	1	0.033875
32.883333	1	0.031250
32.900000	1	0.028625
32.916667	1	0.025625
32.933333	1	0.023250
32.950000	1	0.020250
32.966667	1	0.018250
32.983333	1	0.015625
33.000000	1	0.013500
33.016667	1	0.011250
33.033333	1	0.008875
33.050000	1	0.006500
33.066667	1	0.004250
33.083333	1	0.001750
33.100000	1	-0.000625
33.116667	1	-0.003500
33.133333	1	-0.005500
33.150000	1	-0.008125
33.166667	1	-0.010000
33.183333	1	-0.011750
33.200000	1	-0.013750
33.216667	1	-0.015875
33.233333	1	-0.018000
33.250000	1	-0.019875
33.266667	1	-0.021875
33.283333	1	-0.023375
33.300000	1	-0.025000
33.316667	1	-0.026500
33.333333	1	-0.027875
33.350000	1	-0.028750
33.366667	1	-0.030000
33.383333	1	-0.031625
33.400000	1	-0.033250
33.416667	1	-0.035000
33.433333	1	-0.036000
33.450000	1	-0.037250
33.466667	1	-0.037875
33.483333	1	-0.038500
33.500000	1	-0.039500
33.516667	1	-0.040750
33.533333	1	-0.041250
33.550000	1	-0.041625
33.566667	1	-0.042500
33.583333	1	-0.043625
33.600000	1	-0.044500
33.616667	1	-0.045125
33.633333	1	-0.045500
33.650000	1	-0.045875
33.666667	1	-0.046625
33.683333	1	-0.046500
33.700000	1	-0.046500
33.716667	1	-0.047125
33.733333	1	-0.047000
33.750000	1	-0.045500
33.766667	1	-0.045625
33.783333	1	-0.046250
33.800000	1	-0.045875
33.816667	1	-0.045375
33.833333	1	-0.045500
33.850000	1	-0.045500
33.866667	1	-0.045250
33.883333	1	-0.045250
33.900000	1	-0.044875
33.916667	1	-0.044500
33.933333	1	-0.043500
33.950000	1	-0.042875
33.966667	1	-0.042500
33.983333	1	-0.042250
34.000000	1	-0.041125
34.016667	1	-0.039750
34.033333	1	-0.039125
34.050000	1	-0.038125
34.066667	1	-0.037500
34.083333	1	-0.036375
34.100000	1	-0.035625
34.116667	1	-0.034750
34.133333	1	-0.033375
34.150000	1	-0.032500
34.166667	1	-0.031250
34.183333	1	-0.030625
34.200000	1	-0.030125
34.216667	1	-0.029000
34.233333	1	-0.027250
34.250000	1	-0.026750
34.266667	1	-0.025875
34.283333	1	-0.025000
34.300000	1	-0.024625
34.316667	1	-0.023500
34.333333	1	-0.022625
34.350000	1	-0.022125
34.366667	1	-0.021500
34.383333	1	-0.020750
34.400000	1	-0.020125
34.416667	1	-0.019500
34.433333	1	-0.019875
34.450000	1	-0.019500
34.466667	1	-0.018625
34.483333	1	-0.018625
34.500000	1	-0.018625
34.516667	1	-0.018750
34.533333	1	-0.018500
34.550000	1	-0.018500
34.566667	1	-0.018500
34.583333	1	-0.018875
34.600000	1	-0.019125
34.616667	1	-0.019625
34.633333	1	-0.020125
34.650000	1	-0.021000
34.666667	1	-0.021750
34.683333	1	-0.022500
34.700000	1	-0.022875
34.716667	1	-0.022875
34.733333	1	-0.023750
34.750000	1	-0.024000
34.766667	1	-0.024125
34.783333	1	-0.024375
34.800000	1	-0.024875
34.816667	1	-0.025000
34.833333	1	-0.025625
34.850000	1	-0.025750
34.866667	1	-0.026375
34.883333	1	-0.026125
34.900000	1	-0.025875
34.916667	1	-0.025750
34.933333	1	-0.025375
34.950000	1	-0.024500
34.966667	1	-0.023625
34.983333	1	-0.022500
35.000000	1	-0.021375
35.016667	1	-0.020250
35.033333	1	-0.018500
35.050000	1	-0.016500
35.066667	1	-0.014625
35.083333	1	-0.012875
35.100000	1	-0.011250
35.116667	1	-0.008625
35.133333	1	-0.005875
35.150000	1	-0.003375
35.166667	1	-0.000500
35.183333	1	0.001500
35.200000	1	0.004375
35.216667	1	0.007500
35.233333	1	0.010125
35.250000	1	0.013250
35.266667	1	0.016375
35.283333	1	0.019125
35.300000	1	0.022375
35.316667	1	0.025875
35.333333	1	0.028375
35.350000	1	0.031125
35.366667	1	0.034375
35.383333	1	0.037250
35.400000	1	0.040000
35.416667	1	0.042875
35.433333	1	0.045375
35.450000	1	0.048000
35.466667	1	0.050625
35.483333	1	0.053000
35.500000	1	0.055625
35.516667	1	0.058125
35.533333	1	0.060375
35.550000	1	0.062250
35.566667	1	0.064375
35.583333	1	0.065750
35.600000	1	0.067750
35.616667	1	0.069375
35.633333	1	0.070250
35.650000	1	0.072250
35.666667	1	0.073625
35.683333	1	0.074625
35.700000	1	0.076000
35.716667	1	0.076500
35.733333	1	0.077000
35.750000	1	0.077500
35.766667	1	0.077875
35.783333	1	0.078375
35.800000	1	0.078375
35.816667	1	0.079000
35.833333	1	0.079375
35.850000	1	0.080000
35.866667	1	0.079125
35.883333	1	0.078750
35.900000	1	0.079000
35.916667	1	0.079500
35.933333	1	0.079500
35.950000	1	0.078875
35.966667	1	0.078500
35.983333	1	0.078000
36.000000	1	0.077625
36.016667	1	0.077125
36.033333	1	0.076750
36.050000	1	0.075750
36.066667	1	0.075375
36.083333	1	0.074500
36.100000	1	0.074125
36.116667	1	0.073875
36.133333	1	0.073250
36.150000	1	0.072000
36.166667	1	0.070750
36.183333	1	0.070000
36.200000	1	0.069375
36.216667	1	0.069125
36.233333	1	0.068625
36.250000	1	0.067875
36.266667	1	0.066875
36.283333	1	0.066750
36.300000	1	0.066375
36.316667	1	0.065625
36.333333	1	0.065000
36.350000	1	0.065125
36.366667	1	0.063875
36.383333	1	0.063625
36.400000	1	0.062750
36.416667	1	0.061375
36.433333	1	0.060375
36.450000	1	0.060250
36.466667	1	0.059500
36.483333	1	0.059000
36.500000	1	0.058625
36.516667	1	0.058250
36.533333	1	0.057375
36.550000	1	0.056500
36.566667	1	0.055750
36.583333	1	0.054750
36.600000	1	0.053250
36.616667	1	0.052000
36.633333	1	0.051000
36.650000	1	0.050000
36.666667	1	0.048375
36.683333	1	0.047250
36.700000	1	0.046000
36.716667	1	0.045250
36.733333	1	0.043625
36.750000	1	0.041625
36.766667	1	0.040000
36.783333	1	0.037625
36.800000	1	0.036125
36.816667	1	0.033750
36.833333	1	0.031750
36.850000	1	0.029750
36.866667	1	0.027625
36.883333	1	0.024625
36.900000	1	0.022750
36.916667	1	0.020250
36.933333	1	0.017750
36.950000	1	0.014875
36.966667	1	0.011625
36.983333	1	0.008250
37.000000	1	0.004875
37.016667	1	0.001375
37.033333	1	-0.001375
37.050000	1	-0.004250
37.066667	1	-0.007500
37.083333	1	-0.010250
37.100000	1	-0.013125
37.116667	1	-0.016250
37.133333	1	-0.019125
37.150000	1	-0.021875
37.166667	1	-0.024500
37.183333	1	-0.027875
37.200000	1	-0.030625
37.216667	1	-0.032875
37.233333	1	-0.035500
37.250000	1	-0.038625
37.266667	1	-0.041375
37.283333	1	-0.043875
37.300000	1	-0.045875
37.316667	1	-0.047750
37.333333	1	-0.049250
37.350000	1	-0.051000
37.366667	1	-0.053000
37.383333	1	-0.054750
37.400000	1	-0.056375
37.416667	1	-0.057375
37.433333	1	-0.058000
37.450000	1	-0.059000
37.466667	1	-0.059750
37.483333	1	-0.061500
37.500000	1	-0.062250
37.516667	1	-0.062500
37.533333	1	-0.062500
37.550000	1	-0.063375
37.566667	1	-0.064000
37.583333	1	-0.063875
37.600000	1	-0.063625
37.616667	1	-0.064250
37.633333	1	-0.064125
37.650000	1	-0.063375
37.666667	1	-0.063375
37.683333	1	-0.063875
37.700000	1	-0.063375
37.716667	1	-0.063875
37.733333	1	-0.063625
37.750000	1	-0.062750
37.766667	1	-0.062625
37.783333	1	-0.062000
37.800000	1	-0.062250
37.816667	1	-0.062125
37.833333	1	-0.061750
37.850000	1	-0.061125
37.866667	1	-0.060375
37.883333	1	-0.060625
37.900000	1	-0.060375
37.916667	1	-0.060125
37.933333	1	-0.059750
37.950000	1	-0.058750
37.966667	1	-0.058125
37.983333	1	-0.056875
38.000000	1	-0.057125
38.016667	1	-0.056625
38.033333	1	-0.055875
38.050000	1	-0.055625
38.066667	1	-0.054875
38.083333	1	-0.054125
38.100000	1	-0.053750
38.116667	1	-0.053875
38.133333	1	-0.053125
38.150000	1	-0.052750
38.166667	1	-0.053000
38.183333	1	-0.052625
38.200000	1	-0.052250
38.216667	1	-0.051250
38.233333	1	-0.050750
38.250000	1	-0.050375
38.266667	1	-0.049500
38.283333	1	-0.049375
38.300000	1	-0.049000
38.316667	1	-0.049000
38.333333	1	-0.048625
38.350000	1	-0.049000
38.366667	1	-0.049500
38.383333	1	-0.049375
38.400000	1	-0.049500
38.416667	1	-0.049500
38.433333	1	-0.050125
38.450000	1	-0.050500
38.466667	1	-0.051125
38.483333	1	-0.051375
38.500000	1	-0.052000
38.516667	1	-0.052750
38.533333	1	-0.053625
38.550000	1	-0.054500
38.566667	1	-0.055625
38.583333	1	-0.056250
38.600000	1	-0.057500
38.616667	1	-0.058000
38.633333	1	-0.059000
38.650000	1	-0.060500
38.666667	1	-0.061500
38.683333	1	-0.062375
38.700000	1	-0.063375
38.716667	1	-0.064375
38.733333	1	-0.065750
38.750000	1	-0.066625
38.766667	1	-0.067875
38.783333	1	-0.069000
38.800000	1	-0.069750
38.816667	1	-0.070625
38.833333	1	-0.071375
38.850000	1	-0.072125
38.866667	1	-0.072875
38.883333	1	-0.073125
38.900000	1	-0.073375
38.916667	1	-0.073500
38.933333	1	-0.075125
38.950000	1	-0.075750
38.966667	1	-0.076500
38.983333	1	-0.077000
39.000000	1	-0.076375
39.016667	1	-0.076500
39.033333	1	-0.076375
39.050000	1	-0.076375
39.066667	1	-0.076375
39.083333	1	-0.076625
39.100000	1	-0.077000
39.116667	1	-0.076875
39.133333	1	-0.076875
39.150000	1	-0.077000
39.166667	1	-0.076875
39.183333	1	-0.076500
39.200000	1	-0.076125
39.216667	1	-0.075750
39.233333	1	-0.075250
39.250000	1	-0.074750
39.266667	1	-0.074250
39.283333	1	-0.073750
39.300000	1	-0.073125
39.316667	1	-0.072000
39.333333	1	-0.071625
39.350000	1	-0.071625
39.366667	1	-0.071625
39.383333	1	-0.070250
39.400000	1	-0.069625
39.416667	1	-0.068750
39.433333	1	-0.068000
39.450000	1	-0.067125
39.466667	1	-0.066125
39.483333	1	-0.065000
39.500000	1	-0.064250
39.516667	1	-0.063625
39.533333	1	-0.063125
39.550000	1	-0.061750
39.566667	1	-0.060750
39.583333	1	-0.059125
39.600000	1	-0.057750
39.616667	1	-0.056500
39.633333	1	-0.054750
39.650000	1	-0.053375
39.666667	1	-0.051625
39.683333	1	-0.050125
39.700000	1	-0.048250
39.716667	1	-0.046750
39.733333	1	-0.045000
39.750000	1	-0.043625
39.766667	1	-0.042250
39.783333	1	-0.041125
39.800000	1	-0.038625
39.816667	1	-0.037125
39.833333	1	-0.035625
39.850000	1	-0.034125
39.866667	1	-0.033375
39.883333	1	-0.031125
39.900000	1	-0.030000
39.916667	1	-0.029000
39.933333	1	-0.027625
39.950000	1	-0.025750
39.966667	1	-0.024500
39.983333	1	-0.023750
40.000000	1	-0.022875
