File Path	chrom://990-75db15j/XVault/Ultimate_3000/1256/20230531_CMO_stabTest _FP08_FP09.seq/303.smp/RI_1.channel/RI_1.chm
Channel	RI_1

Injection Information:
Data Vault	XVault
Injection	FP09__6_s5
Injection Number	72
Position	BC11
Comment	
Processing Method	
Instrument Method	run_25B_method
Type	Unknown
Status	Finished
Injection Date	03.06.2023
Injection Time	14:13:33
Injection Volume (µl)	20.000
Dilution Factor	1.0000
Weight	1.0000

Chromatogram Data Information:
Time Min. (min)	0.000000
Time Max. (min)	40.000000
Data Points	2401
Detector	RI
Generating Data System	Chromeleon 7.2.5.9507
Exporting Data System	Chromeleon 7.2.5.0
Operator	Instrument Controller
Signal Quantity	Refractive 
Signal Unit	µRIU
Signal Min.	-0.291250
Signal Max.	52.209625
Channel	RI_1
Driver Name	RID520Driver.dll
Channel Type	Evaluation
Min. Step (s)	1
Max. Step (s)	1
Average Step (s)	1

Signal Parameter Information:
Signal Info	

Chromatogram Data:
Time (min)	Step (s)	Value (µRIU)
0.000000	n.a.	-0.052875
0.016667	1	-0.053375
0.033333	1	-0.053500
0.050000	1	-0.053500
0.066667	1	-0.053625
0.083333	1	-0.054250
0.100000	1	-0.053375
0.116667	1	-0.053250
0.133333	1	-0.053875
0.150000	1	-0.054125
0.166667	1	-0.054375
0.183333	1	-0.054625
0.200000	1	-0.054500
0.216667	1	-0.055250
0.233333	1	-0.054625
0.250000	1	-0.054250
0.266667	1	-0.054625
0.283333	1	-0.055375
0.300000	1	-0.057875
0.316667	1	-0.061500
0.333333	1	-0.064750
0.350000	1	-0.064875
0.366667	1	-0.062000
0.383333	1	-0.057125
0.400000	1	-0.053375
0.416667	1	-0.050125
0.433333	1	-0.047375
0.450000	1	-0.044875
0.466667	1	-0.043000
0.483333	1	-0.042500
0.500000	1	-0.043750
0.516667	1	-0.045625
0.533333	1	-0.048375
0.550000	1	-0.050375
0.566667	1	-0.051250
0.583333	1	-0.052500
0.600000	1	-0.053250
0.616667	1	-0.054125
0.633333	1	-0.055125
0.650000	1	-0.056000
0.666667	1	-0.056000
0.683333	1	-0.056125
0.700000	1	-0.056875
0.716667	1	-0.057750
0.733333	1	-0.057750
0.750000	1	-0.058875
0.766667	1	-0.059375
0.783333	1	-0.060125
0.800000	1	-0.060500
0.816667	1	-0.060625
0.833333	1	-0.061125
0.850000	1	-0.061375
0.866667	1	-0.061375
0.883333	1	-0.061625
0.900000	1	-0.061500
0.916667	1	-0.062000
0.933333	1	-0.062750
0.950000	1	-0.063375
0.966667	1	-0.063625
0.983333	1	-0.063750
1.000000	1	-0.064500
1.016667	1	-0.064000
1.033333	1	-0.063875
1.050000	1	-0.064125
1.066667	1	-0.064125
1.083333	1	-0.064000
1.100000	1	-0.064500
1.116667	1	-0.064375
1.133333	1	-0.063875
1.150000	1	-0.064375
1.166667	1	-0.064125
1.183333	1	-0.063000
1.200000	1	-0.062625
1.216667	1	-0.062000
1.233333	1	-0.061500
1.250000	1	-0.060750
1.266667	1	-0.060000
1.283333	1	-0.059750
1.300000	1	-0.059625
1.316667	1	-0.059375
1.333333	1	-0.059750
1.350000	1	-0.059125
1.366667	1	-0.059000
1.383333	1	-0.058875
1.400000	1	-0.057875
1.416667	1	-0.057250
1.433333	1	-0.057000
1.450000	1	-0.056875
1.466667	1	-0.055750
1.483333	1	-0.054750
1.500000	1	-0.054875
1.516667	1	-0.054375
1.533333	1	-0.053625
1.550000	1	-0.052875
1.566667	1	-0.052125
1.583333	1	-0.051625
1.600000	1	-0.051625
1.616667	1	-0.051375
1.633333	1	-0.050625
1.650000	1	-0.050250
1.666667	1	-0.049250
1.683333	1	-0.048375
1.700000	1	-0.047250
1.716667	1	-0.047375
1.733333	1	-0.046375
1.750000	1	-0.045875
1.766667	1	-0.045625
1.783333	1	-0.045250
1.800000	1	-0.044750
1.816667	1	-0.043750
1.833333	1	-0.043750
1.850000	1	-0.043500
1.866667	1	-0.042625
1.883333	1	-0.042500
1.900000	1	-0.042500
1.916667	1	-0.042500
1.933333	1	-0.042750
1.950000	1	-0.042500
1.966667	1	-0.042250
1.983333	1	-0.042625
2.000000	1	-0.043125
2.016667	1	-0.043625
2.033333	1	-0.043875
2.050000	1	-0.043750
2.066667	1	-0.044125
2.083333	1	-0.044000
2.100000	1	-0.045000
2.116667	1	-0.045375
2.133333	1	-0.045875
2.150000	1	-0.046875
2.166667	1	-0.047750
2.183333	1	-0.048250
2.200000	1	-0.048000
2.216667	1	-0.047875
2.233333	1	-0.048500
2.250000	1	-0.048875
2.266667	1	-0.049625
2.283333	1	-0.049500
2.300000	1	-0.049750
2.316667	1	-0.049875
2.333333	1	-0.050250
2.350000	1	-0.050375
2.366667	1	-0.050625
2.383333	1	-0.050500
2.400000	1	-0.051500
2.416667	1	-0.051875
2.433333	1	-0.051875
2.450000	1	-0.051750
2.466667	1	-0.051500
2.483333	1	-0.052125
2.500000	1	-0.052375
2.516667	1	-0.052250
2.533333	1	-0.052375
2.550000	1	-0.052375
2.566667	1	-0.052000
2.583333	1	-0.051625
2.600000	1	-0.051625
2.616667	1	-0.051500
2.633333	1	-0.051625
2.650000	1	-0.051250
2.666667	1	-0.051500
2.683333	1	-0.051625
2.700000	1	-0.051000
2.716667	1	-0.050875
2.733333	1	-0.050250
2.750000	1	-0.050125
2.766667	1	-0.049500
2.783333	1	-0.049000
2.800000	1	-0.048125
2.816667	1	-0.048125
2.833333	1	-0.048250
2.850000	1	-0.047875
2.866667	1	-0.047500
2.883333	1	-0.046625
2.900000	1	-0.046750
2.916667	1	-0.046250
2.933333	1	-0.046000
2.950000	1	-0.045500
2.966667	1	-0.045125
2.983333	1	-0.044625
3.000000	1	-0.044500
3.016667	1	-0.043875
3.033333	1	-0.043125
3.050000	1	-0.043125
3.066667	1	-0.043250
3.083333	1	-0.043375
3.100000	1	-0.043000
3.116667	1	-0.042625
3.133333	1	-0.042375
3.150000	1	-0.042750
3.166667	1	-0.042375
3.183333	1	-0.042000
3.200000	1	-0.042125
3.216667	1	-0.041250
3.233333	1	-0.041250
3.250000	1	-0.041000
3.266667	1	-0.041250
3.283333	1	-0.041875
3.300000	1	-0.041750
3.316667	1	-0.042375
3.333333	1	-0.042000
3.350000	1	-0.042125
3.366667	1	-0.042750
3.383333	1	-0.043125
3.400000	1	-0.043500
3.416667	1	-0.044000
3.433333	1	-0.044000
3.450000	1	-0.044375
3.466667	1	-0.044500
3.483333	1	-0.044500
3.500000	1	-0.044625
3.516667	1	-0.044750
3.533333	1	-0.045375
3.550000	1	-0.045125
3.566667	1	-0.045500
3.583333	1	-0.046375
3.600000	1	-0.046500
3.616667	1	-0.046625
3.633333	1	-0.045500
3.650000	1	-0.045500
3.666667	1	-0.045125
3.683333	1	-0.044875
3.700000	1	-0.045125
3.716667	1	-0.045125
3.733333	1	-0.045750
3.750000	1	-0.045375
3.766667	1	-0.045625
3.783333	1	-0.045375
3.800000	1	-0.045000
3.816667	1	-0.045125
3.833333	1	-0.045000
3.850000	1	-0.045250
3.866667	1	-0.045375
3.883333	1	-0.045250
3.900000	1	-0.045500
3.916667	1	-0.045500
3.933333	1	-0.045000
3.950000	1	-0.045500
3.966667	1	-0.045750
3.983333	1	-0.045625
4.000000	1	-0.045000
4.016667	1	-0.045000
4.033333	1	-0.045000
4.050000	1	-0.044750
4.066667	1	-0.044750
4.083333	1	-0.044875
4.100000	1	-0.044750
4.116667	1	-0.045375
4.133333	1	-0.044750
4.150000	1	-0.044625
4.166667	1	-0.044750
4.183333	1	-0.044500
4.200000	1	-0.043375
4.216667	1	-0.043125
4.233333	1	-0.043625
4.250000	1	-0.043375
4.266667	1	-0.043125
4.283333	1	-0.043250
4.300000	1	-0.043625
4.316667	1	-0.043375
4.333333	1	-0.043000
4.350000	1	-0.043000
4.366667	1	-0.042875
4.383333	1	-0.042750
4.400000	1	-0.042000
4.416667	1	-0.041375
4.433333	1	-0.040875
4.450000	1	-0.040750
4.466667	1	-0.040875
4.483333	1	-0.040250
4.500000	1	-0.039875
4.516667	1	-0.038875
4.533333	1	-0.038250
4.550000	1	-0.036875
4.566667	1	-0.036250
4.583333	1	-0.035375
4.600000	1	-0.033750
4.616667	1	-0.031875
4.633333	1	-0.030750
4.650000	1	-0.028500
4.666667	1	-0.026625
4.683333	1	-0.024250
4.700000	1	-0.022125
4.716667	1	-0.020125
4.733333	1	-0.017000
4.750000	1	-0.014500
4.766667	1	-0.011750
4.783333	1	-0.008375
4.800000	1	-0.005375
4.816667	1	-0.002500
4.833333	1	0.000250
4.850000	1	0.003125
4.866667	1	0.006625
4.883333	1	0.009875
4.900000	1	0.013375
4.916667	1	0.016625
4.933333	1	0.020625
4.950000	1	0.024500
4.966667	1	0.028500
4.983333	1	0.032250
5.000000	1	0.035625
5.016667	1	0.039125
5.033333	1	0.042625
5.050000	1	0.045875
5.066667	1	0.048625
5.083333	1	0.051250
5.100000	1	0.053875
5.116667	1	0.056125
5.133333	1	0.058625
5.150000	1	0.060625
5.166667	1	0.062125
5.183333	1	0.063500
5.200000	1	0.065125
5.216667	1	0.066375
5.233333	1	0.066875
5.250000	1	0.067875
5.266667	1	0.068375
5.283333	1	0.069125
5.300000	1	0.069125
5.316667	1	0.069000
5.333333	1	0.068375
5.350000	1	0.068000
5.366667	1	0.067375
5.383333	1	0.066500
5.400000	1	0.065125
5.416667	1	0.064125
5.433333	1	0.062625
5.450000	1	0.062250
5.466667	1	0.061000
5.483333	1	0.059250
5.500000	1	0.058375
5.516667	1	0.056625
5.533333	1	0.054625
5.550000	1	0.053250
5.566667	1	0.051875
5.583333	1	0.050125
5.600000	1	0.048250
5.616667	1	0.046750
5.633333	1	0.045375
5.650000	1	0.043375
5.666667	1	0.041875
5.683333	1	0.039500
5.700000	1	0.037500
5.716667	1	0.036500
5.733333	1	0.035625
5.750000	1	0.033750
5.766667	1	0.032125
5.783333	1	0.030875
5.800000	1	0.030125
5.816667	1	0.028750
5.833333	1	0.027375
5.850000	1	0.026125
5.866667	1	0.025000
5.883333	1	0.024000
5.900000	1	0.023250
5.916667	1	0.022250
5.933333	1	0.021250
5.950000	1	0.021000
5.966667	1	0.020125
5.983333	1	0.020250
6.000000	1	0.019625
6.016667	1	0.019625
6.033333	1	0.020000
6.050000	1	0.019750
6.066667	1	0.019875
6.083333	1	0.020375
6.100000	1	0.021250
6.116667	1	0.021625
6.133333	1	0.022625
6.150000	1	0.023750
6.166667	1	0.025250
6.183333	1	0.026875
6.200000	1	0.028125
6.216667	1	0.029500
6.233333	1	0.030875
6.250000	1	0.032375
6.266667	1	0.033875
6.283333	1	0.035625
6.300000	1	0.037750
6.316667	1	0.038750
6.333333	1	0.041250
6.350000	1	0.043125
6.366667	1	0.045375
6.383333	1	0.047375
6.400000	1	0.049500
6.416667	1	0.051750
6.433333	1	0.054250
6.450000	1	0.055625
6.466667	1	0.057625
6.483333	1	0.059250
6.500000	1	0.060875
6.516667	1	0.062500
6.533333	1	0.064125
6.550000	1	0.066125
6.566667	1	0.066875
6.583333	1	0.067625
6.600000	1	0.069000
6.616667	1	0.069500
6.633333	1	0.070750
6.650000	1	0.071125
6.666667	1	0.070750
6.683333	1	0.070500
6.700000	1	0.070250
6.716667	1	0.070250
6.733333	1	0.069625
6.750000	1	0.069375
6.766667	1	0.068625
6.783333	1	0.068125
6.800000	1	0.067000
6.816667	1	0.066250
6.833333	1	0.064625
6.850000	1	0.062750
6.866667	1	0.060750
6.883333	1	0.059000
6.900000	1	0.057375
6.916667	1	0.055250
6.933333	1	0.053250
6.950000	1	0.050875
6.966667	1	0.049125
6.983333	1	0.046875
7.000000	1	0.043875
7.016667	1	0.041625
7.033333	1	0.039500
7.050000	1	0.037500
7.066667	1	0.035625
7.083333	1	0.033375
7.100000	1	0.030875
7.116667	1	0.027875
7.133333	1	0.025375
7.150000	1	0.022500
7.166667	1	0.020750
7.183333	1	0.019000
7.200000	1	0.016625
7.216667	1	0.014500
7.233333	1	0.012125
7.250000	1	0.010875
7.266667	1	0.009250
7.283333	1	0.006875
7.300000	1	0.005375
7.316667	1	0.003750
7.333333	1	0.002500
7.350000	1	0.001250
7.366667	1	0.000250
7.383333	1	-0.000750
7.400000	1	-0.001125
7.416667	1	-0.001875
7.433333	1	-0.002250
7.450000	1	-0.002625
7.466667	1	-0.003500
7.483333	1	-0.004750
7.500000	1	-0.005125
7.516667	1	-0.005375
7.533333	1	-0.005875
7.550000	1	-0.006125
7.566667	1	-0.006625
7.583333	1	-0.006375
7.600000	1	-0.006500
7.616667	1	-0.006875
7.633333	1	-0.007500
7.650000	1	-0.008250
7.666667	1	-0.008250
7.683333	1	-0.008375
7.700000	1	-0.009375
7.716667	1	-0.009125
7.733333	1	-0.008875
7.750000	1	-0.009000
7.766667	1	-0.009125
7.783333	1	-0.009375
7.800000	1	-0.009000
7.816667	1	-0.008750
7.833333	1	-0.009000
7.850000	1	-0.009625
7.866667	1	-0.009500
7.883333	1	-0.009625
7.900000	1	-0.009375
7.916667	1	-0.009375
7.933333	1	-0.008750
7.950000	1	-0.008500
7.966667	1	-0.007250
7.983333	1	-0.006875
8.000000	1	-0.006000
8.016667	1	-0.005250
8.033333	1	-0.004875
8.050000	1	-0.004375
8.066667	1	-0.004125
8.083333	1	-0.002875
8.100000	1	-0.001875
8.116667	1	-0.001125
8.133333	1	0.000625
8.150000	1	0.001375
8.166667	1	0.002500
8.183333	1	0.003375
8.200000	1	0.004125
8.216667	1	0.005000
8.233333	1	0.006250
8.250000	1	0.006250
8.266667	1	0.007500
8.283333	1	0.007750
8.300000	1	0.008500
8.316667	1	0.009125
8.333333	1	0.010125
8.350000	1	0.011000
8.366667	1	0.011625
8.383333	1	0.012625
8.400000	1	0.014250
8.416667	1	0.015625
8.433333	1	0.016625
8.450000	1	0.017375
8.466667	1	0.018250
8.483333	1	0.019750
8.500000	1	0.020750
8.516667	1	0.020875
8.533333	1	0.021750
8.550000	1	0.023000
8.566667	1	0.024625
8.583333	1	0.026375
8.600000	1	0.027875
8.616667	1	0.028500
8.633333	1	0.030000
8.650000	1	0.031500
8.666667	1	0.032625
8.683333	1	0.034250
8.700000	1	0.035000
8.716667	1	0.035250
8.733333	1	0.036750
8.750000	1	0.037750
8.766667	1	0.038000
8.783333	1	0.038750
8.800000	1	0.039875
8.816667	1	0.040750
8.833333	1	0.041000
8.850000	1	0.041625
8.866667	1	0.041250
8.883333	1	0.041750
8.900000	1	0.041375
8.916667	1	0.041375
8.933333	1	0.040625
8.950000	1	0.040750
8.966667	1	0.041000
8.983333	1	0.040500
9.000000	1	0.039875
9.016667	1	0.039375
9.033333	1	0.038875
9.050000	1	0.038375
9.066667	1	0.038125
9.083333	1	0.038250
9.100000	1	0.038125
9.116667	1	0.038000
9.133333	1	0.037750
9.150000	1	0.037625
9.166667	1	0.037250
9.183333	1	0.036875
9.200000	1	0.037125
9.216667	1	0.036750
9.233333	1	0.037000
9.250000	1	0.037500
9.266667	1	0.038125
9.283333	1	0.038625
9.300000	1	0.039375
9.316667	1	0.039625
9.333333	1	0.040000
9.350000	1	0.041375
9.366667	1	0.042500
9.383333	1	0.042875
9.400000	1	0.043625
9.416667	1	0.044875
9.433333	1	0.047250
9.450000	1	0.050250
9.466667	1	0.053500
9.483333	1	0.056875
9.500000	1	0.061000
9.516667	1	0.066625
9.533333	1	0.072250
9.550000	1	0.079125
9.566667	1	0.087000
9.583333	1	0.095875
9.600000	1	0.105125
9.616667	1	0.116875
9.633333	1	0.129375
9.650000	1	0.143625
9.666667	1	0.158875
9.683333	1	0.176750
9.700000	1	0.195875
9.716667	1	0.217250
9.733333	1	0.239875
9.750000	1	0.262875
9.766667	1	0.284750
9.783333	1	0.304875
9.800000	1	0.322000
9.816667	1	0.335875
9.833333	1	0.343375
9.850000	1	0.343375
9.866667	1	0.333375
9.883333	1	0.311125
9.900000	1	0.275500
9.916667	1	0.233000
9.933333	1	0.204375
9.950000	1	0.228000
9.966667	1	0.356250
9.983333	1	0.652750
10.000000	1	1.183250
10.016667	1	2.007375
10.033333	1	3.173250
10.050000	1	4.714375
10.066667	1	6.647000
10.083333	1	8.978000
10.100000	1	11.699000
10.116667	1	14.785250
10.133333	1	18.200125
10.150000	1	21.882625
10.166667	1	25.752875
10.183333	1	29.705750
10.200000	1	33.605750
10.216667	1	37.289875
10.233333	1	40.568375
10.250000	1	43.243125
10.266667	1	45.133000
10.283333	1	46.103875
10.300000	1	46.091875
10.316667	1	45.119750
10.333333	1	43.296000
10.350000	1	40.793000
10.366667	1	37.818125
10.383333	1	34.585875
10.400000	1	31.282375
10.416667	1	28.057000
10.433333	1	25.017500
10.450000	1	22.230500
10.466667	1	19.722125
10.483333	1	17.495500
10.500000	1	15.538000
10.516667	1	13.826250
10.533333	1	12.333125
10.550000	1	11.030375
10.566667	1	9.892500
10.583333	1	8.894875
10.600000	1	8.017625
10.616667	1	7.245375
10.633333	1	6.563500
10.650000	1	5.961500
10.666667	1	5.431625
10.683333	1	4.965250
10.700000	1	4.554750
10.716667	1	4.192875
10.733333	1	3.874250
10.750000	1	3.592750
10.766667	1	3.343500
10.783333	1	3.123125
10.800000	1	2.927000
10.816667	1	2.751875
10.833333	1	2.594250
10.850000	1	2.451500
10.866667	1	2.322500
10.883333	1	2.205000
10.900000	1	2.098625
10.916667	1	2.001250
10.933333	1	1.912250
10.950000	1	1.830750
10.966667	1	1.757125
10.983333	1	1.688750
11.000000	1	1.626250
11.016667	1	1.569250
11.033333	1	1.516625
11.050000	1	1.467500
11.066667	1	1.422375
11.083333	1	1.381375
11.100000	1	1.344125
11.116667	1	1.308875
11.133333	1	1.276500
11.150000	1	1.245875
11.166667	1	1.218250
11.183333	1	1.192125
11.200000	1	1.168500
11.216667	1	1.146000
11.233333	1	1.126250
11.250000	1	1.106125
11.266667	1	1.087125
11.283333	1	1.070250
11.300000	1	1.053875
11.316667	1	1.038750
11.333333	1	1.024875
11.350000	1	1.011875
11.366667	1	0.999250
11.383333	1	0.987625
11.400000	1	0.976500
11.416667	1	0.967500
11.433333	1	0.959125
11.450000	1	0.951500
11.466667	1	0.946125
11.483333	1	0.941625
11.500000	1	0.937625
11.516667	1	0.934875
11.533333	1	0.933125
11.550000	1	0.933125
11.566667	1	0.933125
11.583333	1	0.934250
11.600000	1	0.936625
11.616667	1	0.938875
11.633333	1	0.940375
11.650000	1	0.943000
11.666667	1	0.946125
11.683333	1	0.948750
11.700000	1	0.951000
11.716667	1	0.952750
11.733333	1	0.954125
11.750000	1	0.955125
11.766667	1	0.956500
11.783333	1	0.958000
11.800000	1	0.958500
11.816667	1	0.959250
11.833333	1	0.960625
11.850000	1	0.962625
11.866667	1	0.966125
11.883333	1	0.970375
11.900000	1	0.975750
11.916667	1	0.982375
11.933333	1	0.991000
11.950000	1	1.001000
11.966667	1	1.013250
11.983333	1	1.027250
12.000000	1	1.044125
12.016667	1	1.063125
12.033333	1	1.085375
12.050000	1	1.111375
12.066667	1	1.141125
12.083333	1	1.176375
12.100000	1	1.218250
12.116667	1	1.268375
12.133333	1	1.328875
12.150000	1	1.402250
12.166667	1	1.490125
12.183333	1	1.596125
12.200000	1	1.721625
12.216667	1	1.869375
12.233333	1	2.040000
12.250000	1	2.236250
12.266667	1	2.457500
12.283333	1	2.707125
12.300000	1	2.987500
12.316667	1	3.299500
12.333333	1	3.647000
12.350000	1	4.030750
12.366667	1	4.454875
12.383333	1	4.921875
12.400000	1	5.433625
12.416667	1	5.988000
12.433333	1	6.581250
12.450000	1	7.208125
12.466667	1	7.857500
12.483333	1	8.513875
12.500000	1	9.157750
12.516667	1	9.766875
12.533333	1	10.316625
12.550000	1	10.785375
12.566667	1	11.157500
12.583333	1	11.425375
12.600000	1	11.591000
12.616667	1	11.661000
12.633333	1	11.647375
12.650000	1	11.563250
12.666667	1	11.423875
12.683333	1	11.240375
12.700000	1	11.024625
12.716667	1	10.785000
12.733333	1	10.531125
12.750000	1	10.268875
12.766667	1	10.004500
12.783333	1	9.740750
12.800000	1	9.481875
12.816667	1	9.229625
12.833333	1	8.985000
12.850000	1	8.748625
12.866667	1	8.520125
12.883333	1	8.300250
12.900000	1	8.087500
12.916667	1	7.880125
12.933333	1	7.678000
12.950000	1	7.479375
12.966667	1	7.282125
12.983333	1	7.086000
13.000000	1	6.888875
13.016667	1	6.691000
13.033333	1	6.488250
13.050000	1	6.281875
13.066667	1	6.068500
13.083333	1	5.845750
13.100000	1	5.610625
13.116667	1	5.362375
13.133333	1	5.097750
13.150000	1	4.814375
13.166667	1	4.510750
13.183333	1	4.183250
13.200000	1	3.833750
13.216667	1	3.466625
13.233333	1	3.090625
13.250000	1	2.723875
13.266667	1	2.385875
13.283333	1	2.091500
13.300000	1	1.848250
13.316667	1	1.652625
13.333333	1	1.497750
13.350000	1	1.374125
13.366667	1	1.276000
13.383333	1	1.196500
13.400000	1	1.130250
13.416667	1	1.075500
13.433333	1	1.029125
13.450000	1	0.989500
13.466667	1	0.955750
13.483333	1	0.926875
13.500000	1	0.901375
13.516667	1	0.880125
13.533333	1	0.861750
13.550000	1	0.847500
13.566667	1	0.835125
13.583333	1	0.825875
13.600000	1	0.819125
13.616667	1	0.815125
13.633333	1	0.811500
13.650000	1	0.810125
13.666667	1	0.808750
13.683333	1	0.807375
13.700000	1	0.805625
13.716667	1	0.803375
13.733333	1	0.800250
13.750000	1	0.796000
13.766667	1	0.790000
13.783333	1	0.782375
13.800000	1	0.774125
13.816667	1	0.764375
13.833333	1	0.753500
13.850000	1	0.741250
13.866667	1	0.728250
13.883333	1	0.714500
13.900000	1	0.700000
13.916667	1	0.685125
13.933333	1	0.669750
13.950000	1	0.655125
13.966667	1	0.640750
13.983333	1	0.626250
14.000000	1	0.614000
14.016667	1	0.601500
14.033333	1	0.590375
14.050000	1	0.579750
14.066667	1	0.570000
14.083333	1	0.561625
14.100000	1	0.553500
14.116667	1	0.547500
14.133333	1	0.542250
14.150000	1	0.538875
14.166667	1	0.536875
14.183333	1	0.536500
14.200000	1	0.538250
14.216667	1	0.542500
14.233333	1	0.549375
14.250000	1	0.560000
14.266667	1	0.573750
14.283333	1	0.592250
14.300000	1	0.615750
14.316667	1	0.645000
14.333333	1	0.681500
14.350000	1	0.725875
14.366667	1	0.779375
14.383333	1	0.844500
14.400000	1	0.920375
14.416667	1	1.011500
14.433333	1	1.117375
14.450000	1	1.240875
14.466667	1	1.383000
14.483333	1	1.547250
14.500000	1	1.735500
14.516667	1	1.951875
14.533333	1	2.200375
14.550000	1	2.485875
14.566667	1	2.814125
14.583333	1	3.194250
14.600000	1	3.637250
14.616667	1	4.158625
14.633333	1	4.776125
14.650000	1	5.515250
14.666667	1	6.404875
14.683333	1	7.476500
14.700000	1	8.766875
14.716667	1	10.311875
14.733333	1	12.143125
14.750000	1	14.287250
14.766667	1	16.758875
14.783333	1	19.552125
14.800000	1	22.643375
14.816667	1	25.990500
14.833333	1	29.524875
14.850000	1	33.157125
14.866667	1	36.776875
14.883333	1	40.261625
14.900000	1	43.487000
14.916667	1	46.332000
14.933333	1	48.695125
14.950000	1	50.492500
14.966667	1	51.671750
14.983333	1	52.209625
15.000000	1	52.113875
15.016667	1	51.417625
15.033333	1	50.176625
15.050000	1	48.461500
15.066667	1	46.354750
15.083333	1	43.944125
15.100000	1	41.319250
15.116667	1	38.562500
15.133333	1	35.748125
15.150000	1	32.937625
15.166667	1	30.185500
15.183333	1	27.533125
15.200000	1	25.010375
15.216667	1	22.635625
15.233333	1	20.422625
15.250000	1	18.376750
15.266667	1	16.498500
15.283333	1	14.784500
15.300000	1	13.230250
15.316667	1	11.828750
15.333333	1	10.568875
15.350000	1	9.442500
15.366667	1	8.439250
15.383333	1	7.548625
15.400000	1	6.761000
15.416667	1	6.065250
15.433333	1	5.453000
15.450000	1	4.916375
15.466667	1	4.446625
15.483333	1	4.037625
15.500000	1	3.683500
15.516667	1	3.378125
15.533333	1	3.115375
15.550000	1	2.891500
15.566667	1	2.699500
15.583333	1	2.536750
15.600000	1	2.397875
15.616667	1	2.278625
15.633333	1	2.174625
15.650000	1	2.083375
15.666667	1	2.002375
15.683333	1	1.928250
15.700000	1	1.858375
15.716667	1	1.792625
15.733333	1	1.729125
15.750000	1	1.668000
15.766667	1	1.608750
15.783333	1	1.551375
15.800000	1	1.495500
15.816667	1	1.441000
15.833333	1	1.389625
15.850000	1	1.340000
15.866667	1	1.293250
15.883333	1	1.248125
15.900000	1	1.205750
15.916667	1	1.165625
15.933333	1	1.129000
15.950000	1	1.094250
15.966667	1	1.062750
15.983333	1	1.033375
16.000000	1	1.007125
16.016667	1	0.983625
16.033333	1	0.961875
16.050000	1	0.941875
16.066667	1	0.925000
16.083333	1	0.911250
16.100000	1	0.899000
16.116667	1	0.889500
16.133333	1	0.882125
16.150000	1	0.876125
16.166667	1	0.871375
16.183333	1	0.868000
16.200000	1	0.864750
16.216667	1	0.862375
16.233333	1	0.860750
16.250000	1	0.858500
16.266667	1	0.855500
16.283333	1	0.852750
16.300000	1	0.849000
16.316667	1	0.844625
16.333333	1	0.839625
16.350000	1	0.833750
16.366667	1	0.828000
16.383333	1	0.821750
16.400000	1	0.815125
16.416667	1	0.808125
16.433333	1	0.802125
16.450000	1	0.795625
16.466667	1	0.790250
16.483333	1	0.785625
16.500000	1	0.781500
16.516667	1	0.778000
16.533333	1	0.776000
16.550000	1	0.774125
16.566667	1	0.774500
16.583333	1	0.774625
16.600000	1	0.776375
16.616667	1	0.778750
16.633333	1	0.782250
16.650000	1	0.786375
16.666667	1	0.790375
16.683333	1	0.796000
16.700000	1	0.801500
16.716667	1	0.808000
16.733333	1	0.814250
16.750000	1	0.820250
16.766667	1	0.826125
16.783333	1	0.831250
16.800000	1	0.836000
16.816667	1	0.840125
16.833333	1	0.843750
16.850000	1	0.845875
16.866667	1	0.848000
16.883333	1	0.848875
16.900000	1	0.849250
16.916667	1	0.848750
16.933333	1	0.848125
16.950000	1	0.847750
16.966667	1	0.847250
16.983333	1	0.847000
17.000000	1	0.847250
17.016667	1	0.847875
17.033333	1	0.849625
17.050000	1	0.852000
17.066667	1	0.853750
17.083333	1	0.855125
17.100000	1	0.856250
17.116667	1	0.858125
17.133333	1	0.859375
17.150000	1	0.858875
17.166667	1	0.857375
17.183333	1	0.854750
17.200000	1	0.851625
17.216667	1	0.846500
17.233333	1	0.841500
17.250000	1	0.835750
17.266667	1	0.828875
17.283333	1	0.821000
17.300000	1	0.813000
17.316667	1	0.804750
17.333333	1	0.796750
17.350000	1	0.788875
17.366667	1	0.781500
17.383333	1	0.774375
17.400000	1	0.767625
17.416667	1	0.761000
17.433333	1	0.756250
17.450000	1	0.751875
17.466667	1	0.749125
17.483333	1	0.748000
17.500000	1	0.747875
17.516667	1	0.748875
17.533333	1	0.751000
17.550000	1	0.755500
17.566667	1	0.761125
17.583333	1	0.768500
17.600000	1	0.778125
17.616667	1	0.789500
17.633333	1	0.801875
17.650000	1	0.815375
17.666667	1	0.830250
17.683333	1	0.846125
17.700000	1	0.862250
17.716667	1	0.878875
17.733333	1	0.896125
17.750000	1	0.913125
17.766667	1	0.929750
17.783333	1	0.947250
17.800000	1	0.961875
17.816667	1	0.975250
17.833333	1	0.986875
17.850000	1	0.997375
17.866667	1	1.005625
17.883333	1	1.011500
17.900000	1	1.015875
17.916667	1	1.017500
17.933333	1	1.016250
17.950000	1	1.013000
17.966667	1	1.008125
17.983333	1	1.000750
18.000000	1	0.992000
18.016667	1	0.981125
18.033333	1	0.968625
18.050000	1	0.954750
18.066667	1	0.940250
18.083333	1	0.923875
18.100000	1	0.907875
18.116667	1	0.891500
18.133333	1	0.876250
18.150000	1	0.859375
18.166667	1	0.843500
18.183333	1	0.827875
18.200000	1	0.812625
18.216667	1	0.799000
18.233333	1	0.785250
18.250000	1	0.773000
18.266667	1	0.760625
18.283333	1	0.749875
18.300000	1	0.740000
18.316667	1	0.731000
18.333333	1	0.723500
18.350000	1	0.717250
18.366667	1	0.712250
18.383333	1	0.708250
18.400000	1	0.705000
18.416667	1	0.703125
18.433333	1	0.701000
18.450000	1	0.699625
18.466667	1	0.699875
18.483333	1	0.699000
18.500000	1	0.699000
18.516667	1	0.699000
18.533333	1	0.699875
18.550000	1	0.701000
18.566667	1	0.701750
18.583333	1	0.703375
18.600000	1	0.706000
18.616667	1	0.708125
18.633333	1	0.711250
18.650000	1	0.714375
18.666667	1	0.718000
18.683333	1	0.722500
18.700000	1	0.727250
18.716667	1	0.732375
18.733333	1	0.738125
18.750000	1	0.745250
18.766667	1	0.752750
18.783333	1	0.760250
18.800000	1	0.769125
18.816667	1	0.778625
18.833333	1	0.789375
18.850000	1	0.800000
18.866667	1	0.812125
18.883333	1	0.824375
18.900000	1	0.838375
18.916667	1	0.853750
18.933333	1	0.871375
18.950000	1	0.890875
18.966667	1	0.912250
18.983333	1	0.936500
19.000000	1	0.963750
19.016667	1	0.993625
19.033333	1	1.026250
19.050000	1	1.061000
19.066667	1	1.098125
19.083333	1	1.137375
19.100000	1	1.178375
19.116667	1	1.219500
19.133333	1	1.260375
19.150000	1	1.300875
19.166667	1	1.340125
19.183333	1	1.377125
19.200000	1	1.410125
19.216667	1	1.438500
19.233333	1	1.462625
19.250000	1	1.481125
19.266667	1	1.493250
19.283333	1	1.498875
19.300000	1	1.498875
19.316667	1	1.492875
19.333333	1	1.480875
19.350000	1	1.461750
19.366667	1	1.437750
19.383333	1	1.408875
19.400000	1	1.375625
19.416667	1	1.338125
19.433333	1	1.297875
19.450000	1	1.255875
19.466667	1	1.212625
19.483333	1	1.168625
19.500000	1	1.124375
19.516667	1	1.079875
19.533333	1	1.037625
19.550000	1	0.995875
19.566667	1	0.956000
19.583333	1	0.917875
19.600000	1	0.882250
19.616667	1	0.849625
19.633333	1	0.819875
19.650000	1	0.794000
19.666667	1	0.770625
19.683333	1	0.751000
19.700000	1	0.735000
19.716667	1	0.722875
19.733333	1	0.714125
19.750000	1	0.710125
19.766667	1	0.710500
19.783333	1	0.714250
19.800000	1	0.722625
19.816667	1	0.734750
19.833333	1	0.750750
19.850000	1	0.769875
19.866667	1	0.791625
19.883333	1	0.817500
19.900000	1	0.845250
19.916667	1	0.874125
19.933333	1	0.904750
19.950000	1	0.935750
19.966667	1	0.967250
19.983333	1	0.997875
20.000000	1	1.028625
20.016667	1	1.058875
20.033333	1	1.088625
20.050000	1	1.117375
20.066667	1	1.144750
20.083333	1	1.172500
20.100000	1	1.200875
20.116667	1	1.230000
20.133333	1	1.260125
20.150000	1	1.293125
20.166667	1	1.330125
20.183333	1	1.372125
20.200000	1	1.420250
20.216667	1	1.475625
20.233333	1	1.541000
20.250000	1	1.616125
20.266667	1	1.702500
20.283333	1	1.800375
20.300000	1	1.911000
20.316667	1	2.034125
20.333333	1	2.169750
20.350000	1	2.314750
20.366667	1	2.469125
20.383333	1	2.629750
20.400000	1	2.793250
20.416667	1	2.956125
20.433333	1	3.114125
20.450000	1	3.264500
20.466667	1	3.402875
20.483333	1	3.526625
20.500000	1	3.630000
20.516667	1	3.713750
20.533333	1	3.774000
20.550000	1	3.809750
20.566667	1	3.822125
20.583333	1	3.811375
20.600000	1	3.778625
20.616667	1	3.727125
20.633333	1	3.659000
20.650000	1	3.577750
20.666667	1	3.486000
20.683333	1	3.389500
20.700000	1	3.289875
20.716667	1	3.191875
20.733333	1	3.097125
20.750000	1	3.008625
20.766667	1	2.927875
20.783333	1	2.856875
20.800000	1	2.795375
20.816667	1	2.743750
20.833333	1	2.701250
20.850000	1	2.666500
20.866667	1	2.638000
20.883333	1	2.613375
20.900000	1	2.590750
20.916667	1	2.567875
20.933333	1	2.542375
20.950000	1	2.512750
20.966667	1	2.476875
20.983333	1	2.434500
21.000000	1	2.383625
21.016667	1	2.324375
21.033333	1	2.257000
21.050000	1	2.182750
21.066667	1	2.102125
21.083333	1	2.015250
21.100000	1	1.924875
21.116667	1	1.831500
21.133333	1	1.736500
21.150000	1	1.641625
21.166667	1	1.548000
21.183333	1	1.456250
21.200000	1	1.366875
21.216667	1	1.281500
21.233333	1	1.200375
21.250000	1	1.124625
21.266667	1	1.053125
21.283333	1	0.987000
21.300000	1	0.925750
21.316667	1	0.870125
21.333333	1	0.818875
21.350000	1	0.772750
21.366667	1	0.730625
21.383333	1	0.693000
21.400000	1	0.659625
21.416667	1	0.629375
21.433333	1	0.602500
21.450000	1	0.579125
21.466667	1	0.558500
21.483333	1	0.539750
21.500000	1	0.524000
21.516667	1	0.510500
21.533333	1	0.498500
21.550000	1	0.488500
21.566667	1	0.480500
21.583333	1	0.472875
21.600000	1	0.466500
21.616667	1	0.461375
21.633333	1	0.457875
21.650000	1	0.454750
21.666667	1	0.452625
21.683333	1	0.452000
21.700000	1	0.452500
21.716667	1	0.454250
21.733333	1	0.456500
21.750000	1	0.460125
21.766667	1	0.465250
21.783333	1	0.471250
21.800000	1	0.478625
21.816667	1	0.486375
21.833333	1	0.496500
21.850000	1	0.507125
21.866667	1	0.519000
21.883333	1	0.532000
21.900000	1	0.545000
21.916667	1	0.559250
21.933333	1	0.572875
21.950000	1	0.586000
21.966667	1	0.599125
21.983333	1	0.610750
22.000000	1	0.621875
22.016667	1	0.630875
22.033333	1	0.639500
22.050000	1	0.645500
22.066667	1	0.649750
22.083333	1	0.652625
22.100000	1	0.653125
22.116667	1	0.651875
22.133333	1	0.649750
22.150000	1	0.645250
22.166667	1	0.639500
22.183333	1	0.631500
22.200000	1	0.623250
22.216667	1	0.613875
22.233333	1	0.603875
22.250000	1	0.594375
22.266667	1	0.583625
22.283333	1	0.573625
22.300000	1	0.564500
22.316667	1	0.555625
22.333333	1	0.546875
22.350000	1	0.538875
22.366667	1	0.531750
22.383333	1	0.525375
22.400000	1	0.519250
22.416667	1	0.515375
22.433333	1	0.511125
22.450000	1	0.508000
22.466667	1	0.505625
22.483333	1	0.504750
22.500000	1	0.504125
22.516667	1	0.502875
22.533333	1	0.502750
22.550000	1	0.503375
22.566667	1	0.504125
22.583333	1	0.505000
22.600000	1	0.505875
22.616667	1	0.507375
22.633333	1	0.508000
22.650000	1	0.508625
22.666667	1	0.509375
22.683333	1	0.509250
22.700000	1	0.509000
22.716667	1	0.508750
22.733333	1	0.508500
22.750000	1	0.506875
22.766667	1	0.505000
22.783333	1	0.502250
22.800000	1	0.499125
22.816667	1	0.495500
22.833333	1	0.491250
22.850000	1	0.486875
22.866667	1	0.481875
22.883333	1	0.476625
22.900000	1	0.471375
22.916667	1	0.465625
22.933333	1	0.459875
22.950000	1	0.454625
22.966667	1	0.448750
22.983333	1	0.442875
23.000000	1	0.437750
23.016667	1	0.433250
23.033333	1	0.429125
23.050000	1	0.426000
23.066667	1	0.423375
23.083333	1	0.422000
23.100000	1	0.422500
23.116667	1	0.423750
23.133333	1	0.426000
23.150000	1	0.429125
23.166667	1	0.434000
23.183333	1	0.440750
23.200000	1	0.448000
23.216667	1	0.457750
23.233333	1	0.469250
23.250000	1	0.482750
23.266667	1	0.498750
23.283333	1	0.516500
23.300000	1	0.537125
23.316667	1	0.559875
23.333333	1	0.586625
23.350000	1	0.615875
23.366667	1	0.648875
23.383333	1	0.685625
23.400000	1	0.726375
23.416667	1	0.771625
23.433333	1	0.822500
23.450000	1	0.879250
23.466667	1	0.943875
23.483333	1	1.015250
23.500000	1	1.095875
23.516667	1	1.186750
23.533333	1	1.289000
23.550000	1	1.403750
23.566667	1	1.533125
23.583333	1	1.678250
23.600000	1	1.840250
23.616667	1	2.020500
23.633333	1	2.220250
23.650000	1	2.439125
23.666667	1	2.678375
23.683333	1	2.936875
23.700000	1	3.213625
23.716667	1	3.508000
23.733333	1	3.815500
23.750000	1	4.133750
23.766667	1	4.458375
23.783333	1	4.785625
23.800000	1	5.109750
23.816667	1	5.424000
23.833333	1	5.723750
23.850000	1	6.002625
23.866667	1	6.255125
23.883333	1	6.476500
23.900000	1	6.662625
23.916667	1	6.809125
23.933333	1	6.912750
23.950000	1	6.973625
23.966667	1	6.990750
23.983333	1	6.964375
24.000000	1	6.895250
24.016667	1	6.787125
24.033333	1	6.642000
24.050000	1	6.464750
24.066667	1	6.258250
24.083333	1	6.027750
24.100000	1	5.777875
24.116667	1	5.513250
24.133333	1	5.238000
24.150000	1	4.956500
24.166667	1	4.674625
24.183333	1	4.393375
24.200000	1	4.117625
24.216667	1	3.849500
24.233333	1	3.592500
24.250000	1	3.346750
24.266667	1	3.113875
24.283333	1	2.894125
24.300000	1	2.688375
24.316667	1	2.497500
24.333333	1	2.320875
24.350000	1	2.158125
24.366667	1	2.008500
24.383333	1	1.872125
24.400000	1	1.748250
24.416667	1	1.635750
24.433333	1	1.533125
24.450000	1	1.439375
24.466667	1	1.355125
24.483333	1	1.278125
24.500000	1	1.208375
24.516667	1	1.144375
24.533333	1	1.086500
24.550000	1	1.032750
24.566667	1	0.982625
24.583333	1	0.936625
24.600000	1	0.893750
24.616667	1	0.853750
24.633333	1	0.815750
24.650000	1	0.780125
24.666667	1	0.746625
24.683333	1	0.715000
24.700000	1	0.685250
24.716667	1	0.656000
24.733333	1	0.628000
24.750000	1	0.602000
24.766667	1	0.577000
24.783333	1	0.552875
24.800000	1	0.530125
24.816667	1	0.509000
24.833333	1	0.488625
24.850000	1	0.469625
24.866667	1	0.451625
24.883333	1	0.434875
24.900000	1	0.419625
24.916667	1	0.405375
24.933333	1	0.392875
24.950000	1	0.381500
24.966667	1	0.370125
24.983333	1	0.360250
25.000000	1	0.351000
25.016667	1	0.343125
25.033333	1	0.336125
25.050000	1	0.330125
25.066667	1	0.325375
25.083333	1	0.320625
25.100000	1	0.317375
25.116667	1	0.315000
25.133333	1	0.312375
25.150000	1	0.311375
25.166667	1	0.310750
25.183333	1	0.311500
25.200000	1	0.311125
25.216667	1	0.312500
25.233333	1	0.313625
25.250000	1	0.315625
25.266667	1	0.317750
25.283333	1	0.320125
25.300000	1	0.322375
25.316667	1	0.325000
25.333333	1	0.327500
25.350000	1	0.330125
25.366667	1	0.332875
25.383333	1	0.335250
25.400000	1	0.337500
25.416667	1	0.339625
25.433333	1	0.341250
25.450000	1	0.343000
25.466667	1	0.345000
25.483333	1	0.345875
25.500000	1	0.347125
25.516667	1	0.347500
25.533333	1	0.347750
25.550000	1	0.347625
25.566667	1	0.347125
25.583333	1	0.347000
25.600000	1	0.346500
25.616667	1	0.346125
25.633333	1	0.344500
25.650000	1	0.342000
25.666667	1	0.340000
25.683333	1	0.337000
25.700000	1	0.335250
25.716667	1	0.332875
25.733333	1	0.329375
25.750000	1	0.326125
25.766667	1	0.323625
25.783333	1	0.319875
25.800000	1	0.315750
25.816667	1	0.311625
25.833333	1	0.307125
25.850000	1	0.302250
25.866667	1	0.297125
25.883333	1	0.292375
25.900000	1	0.286750
25.916667	1	0.280875
25.933333	1	0.275000
25.950000	1	0.268500
25.966667	1	0.262250
25.983333	1	0.256125
26.000000	1	0.250125
26.016667	1	0.243250
26.033333	1	0.236375
26.050000	1	0.230000
26.066667	1	0.223500
26.083333	1	0.216875
26.100000	1	0.211250
26.116667	1	0.205000
26.133333	1	0.199750
26.150000	1	0.194875
26.166667	1	0.191000
26.183333	1	0.187000
26.200000	1	0.183750
26.216667	1	0.180625
26.233333	1	0.179375
26.250000	1	0.178125
26.266667	1	0.177250
26.283333	1	0.177625
26.300000	1	0.178125
26.316667	1	0.179375
26.333333	1	0.181625
26.350000	1	0.183500
26.366667	1	0.185750
26.383333	1	0.187875
26.400000	1	0.190000
26.416667	1	0.192375
26.433333	1	0.195250
26.450000	1	0.197500
26.466667	1	0.199750
26.483333	1	0.202750
26.500000	1	0.204500
26.516667	1	0.206250
26.533333	1	0.208125
26.550000	1	0.209250
26.566667	1	0.210750
26.583333	1	0.211250
26.600000	1	0.211625
26.616667	1	0.211750
26.633333	1	0.211875
26.650000	1	0.211875
26.666667	1	0.212500
26.683333	1	0.213000
26.700000	1	0.213250
26.716667	1	0.213125
26.733333	1	0.213625
26.750000	1	0.214125
26.766667	1	0.214500
26.783333	1	0.215125
26.800000	1	0.215750
26.816667	1	0.217125
26.833333	1	0.218500
26.850000	1	0.220250
26.866667	1	0.222250
26.883333	1	0.224625
26.900000	1	0.226750
26.916667	1	0.229875
26.933333	1	0.233375
26.950000	1	0.236125
26.966667	1	0.240375
26.983333	1	0.244625
27.000000	1	0.249750
27.016667	1	0.255125
27.033333	1	0.261125
27.050000	1	0.267750
27.066667	1	0.274875
27.083333	1	0.281750
27.100000	1	0.290375
27.116667	1	0.298125
27.133333	1	0.307375
27.150000	1	0.317875
27.166667	1	0.328375
27.183333	1	0.339375
27.200000	1	0.351125
27.216667	1	0.363750
27.233333	1	0.378000
27.250000	1	0.392375
27.266667	1	0.407500
27.283333	1	0.423750
27.300000	1	0.441000
27.316667	1	0.459000
27.333333	1	0.478625
27.350000	1	0.499500
27.366667	1	0.521750
27.383333	1	0.545125
27.400000	1	0.570875
27.416667	1	0.598750
27.433333	1	0.628875
27.450000	1	0.661500
27.466667	1	0.697000
27.483333	1	0.735750
27.500000	1	0.778250
27.516667	1	0.825500
27.533333	1	0.877000
27.550000	1	0.933625
27.566667	1	0.995500
27.583333	1	1.063375
27.600000	1	1.138250
27.616667	1	1.219500
27.633333	1	1.308500
27.650000	1	1.405250
27.666667	1	1.509000
27.683333	1	1.620500
27.700000	1	1.739375
27.716667	1	1.864250
27.733333	1	1.996375
27.750000	1	2.133625
27.766667	1	2.275750
27.783333	1	2.421500
27.800000	1	2.569125
27.816667	1	2.718250
27.833333	1	2.865250
27.850000	1	3.009625
27.866667	1	3.149625
27.883333	1	3.283250
27.900000	1	3.407750
27.916667	1	3.522000
27.933333	1	3.624250
27.950000	1	3.711375
27.966667	1	3.783500
27.983333	1	3.838500
28.000000	1	3.875750
28.016667	1	3.894875
28.033333	1	3.894375
28.050000	1	3.875625
28.066667	1	3.837500
28.083333	1	3.781875
28.100000	1	3.708500
28.116667	1	3.618375
28.133333	1	3.513500
28.150000	1	3.396875
28.166667	1	3.268375
28.183333	1	3.130375
28.200000	1	2.985375
28.216667	1	2.834125
28.233333	1	2.679875
28.250000	1	2.523625
28.266667	1	2.367125
28.283333	1	2.211000
28.300000	1	2.057750
28.316667	1	1.908750
28.333333	1	1.764000
28.350000	1	1.625125
28.366667	1	1.492250
28.383333	1	1.366500
28.400000	1	1.247000
28.416667	1	1.134500
28.433333	1	1.029625
28.450000	1	0.930750
28.466667	1	0.838750
28.483333	1	0.751875
28.500000	1	0.670625
28.516667	1	0.594625
28.533333	1	0.523875
28.550000	1	0.458125
28.566667	1	0.396500
28.583333	1	0.338750
28.600000	1	0.284250
28.616667	1	0.233000
28.633333	1	0.184250
28.650000	1	0.138000
28.666667	1	0.094125
28.683333	1	0.052375
28.700000	1	0.013125
28.716667	1	-0.024375
28.733333	1	-0.059250
28.750000	1	-0.091750
28.766667	1	-0.122125
28.783333	1	-0.150125
28.800000	1	-0.176000
28.816667	1	-0.199750
28.833333	1	-0.220375
28.850000	1	-0.238375
28.866667	1	-0.254000
28.883333	1	-0.267375
28.900000	1	-0.277250
28.916667	1	-0.285125
28.933333	1	-0.289750
28.950000	1	-0.291250
28.966667	1	-0.290125
28.983333	1	-0.286375
29.000000	1	-0.280125
29.016667	1	-0.271375
29.033333	1	-0.260000
29.050000	1	-0.246125
29.066667	1	-0.229750
29.083333	1	-0.211750
29.100000	1	-0.191750
29.116667	1	-0.169875
29.133333	1	-0.146500
29.150000	1	-0.121625
29.166667	1	-0.095625
29.183333	1	-0.068125
29.200000	1	-0.041000
29.216667	1	-0.013125
29.233333	1	0.014875
29.250000	1	0.042500
29.266667	1	0.070500
29.283333	1	0.098375
29.300000	1	0.125250
29.316667	1	0.152250
29.333333	1	0.178625
29.350000	1	0.205000
29.366667	1	0.229750
29.383333	1	0.253875
29.400000	1	0.277000
29.416667	1	0.298375
29.433333	1	0.318750
29.450000	1	0.339000
29.466667	1	0.357250
29.483333	1	0.374500
29.500000	1	0.390125
29.516667	1	0.403750
29.533333	1	0.416750
29.550000	1	0.428125
29.566667	1	0.438875
29.583333	1	0.448000
29.600000	1	0.455875
29.616667	1	0.462375
29.633333	1	0.467625
29.650000	1	0.472250
29.666667	1	0.475375
29.683333	1	0.477250
29.700000	1	0.479000
29.716667	1	0.478750
29.733333	1	0.478375
29.750000	1	0.476625
29.766667	1	0.474125
29.783333	1	0.471875
29.800000	1	0.469125
29.816667	1	0.465000
29.833333	1	0.460500
29.850000	1	0.456500
29.866667	1	0.451375
29.883333	1	0.446000
29.900000	1	0.441000
29.916667	1	0.435500
29.933333	1	0.430250
29.950000	1	0.425375
29.966667	1	0.420375
29.983333	1	0.414875
30.000000	1	0.410875
30.016667	1	0.407125
30.033333	1	0.402375
30.050000	1	0.398625
30.066667	1	0.395125
30.083333	1	0.392125
30.100000	1	0.388625
30.116667	1	0.385500
30.133333	1	0.382375
30.150000	1	0.380250
30.166667	1	0.377625
30.183333	1	0.375500
30.200000	1	0.373250
30.216667	1	0.372000
30.233333	1	0.371000
30.250000	1	0.370375
30.266667	1	0.369750
30.283333	1	0.369625
30.300000	1	0.369250
30.316667	1	0.369375
30.333333	1	0.369625
30.350000	1	0.370375
30.366667	1	0.371250
30.383333	1	0.372375
30.400000	1	0.374875
30.416667	1	0.377375
30.433333	1	0.380500
30.450000	1	0.383750
30.466667	1	0.387625
30.483333	1	0.391250
30.500000	1	0.395625
30.516667	1	0.400625
30.533333	1	0.406750
30.550000	1	0.412250
30.566667	1	0.418250
30.583333	1	0.425125
30.600000	1	0.432375
30.616667	1	0.439125
30.633333	1	0.446000
30.650000	1	0.452125
30.666667	1	0.459125
30.683333	1	0.465000
30.700000	1	0.470875
30.716667	1	0.476125
30.733333	1	0.480500
30.750000	1	0.484375
30.766667	1	0.487000
30.783333	1	0.488750
30.800000	1	0.489625
30.816667	1	0.489875
30.833333	1	0.488875
30.850000	1	0.486500
30.866667	1	0.483375
30.883333	1	0.478625
30.900000	1	0.473500
30.916667	1	0.467500
30.933333	1	0.460750
30.950000	1	0.453000
30.966667	1	0.445375
30.983333	1	0.436375
31.000000	1	0.426500
31.016667	1	0.416375
31.033333	1	0.406125
31.050000	1	0.395125
31.066667	1	0.384375
31.083333	1	0.373750
31.100000	1	0.363375
31.116667	1	0.352750
31.133333	1	0.342875
31.150000	1	0.333250
31.166667	1	0.323875
31.183333	1	0.314625
31.200000	1	0.306000
31.216667	1	0.297750
31.233333	1	0.289500
31.250000	1	0.282250
31.266667	1	0.275750
31.283333	1	0.269750
31.300000	1	0.263750
31.316667	1	0.258875
31.333333	1	0.254250
31.350000	1	0.250000
31.366667	1	0.246625
31.383333	1	0.243875
31.400000	1	0.241625
31.416667	1	0.239750
31.433333	1	0.237625
31.450000	1	0.236750
31.466667	1	0.235625
31.483333	1	0.235625
31.500000	1	0.235375
31.516667	1	0.235500
31.533333	1	0.235250
31.550000	1	0.235625
31.566667	1	0.236250
31.583333	1	0.237500
31.600000	1	0.239125
31.616667	1	0.240875
31.633333	1	0.242250
31.650000	1	0.244500
31.666667	1	0.247125
31.683333	1	0.250125
31.700000	1	0.253250
31.716667	1	0.256125
31.733333	1	0.259875
31.750000	1	0.263500
31.766667	1	0.268125
31.783333	1	0.271750
31.800000	1	0.276125
31.816667	1	0.280875
31.833333	1	0.285000
31.850000	1	0.289125
31.866667	1	0.293750
31.883333	1	0.297750
31.900000	1	0.301750
31.916667	1	0.305250
31.933333	1	0.308500
31.950000	1	0.311375
31.966667	1	0.314375
31.983333	1	0.315625
32.000000	1	0.317125
32.016667	1	0.317125
32.033333	1	0.317875
32.050000	1	0.317250
32.066667	1	0.316000
32.083333	1	0.315125
32.100000	1	0.312625
32.116667	1	0.310000
32.133333	1	0.306125
32.150000	1	0.302250
32.166667	1	0.297375
32.183333	1	0.292250
32.200000	1	0.286000
32.216667	1	0.280000
32.233333	1	0.272750
32.250000	1	0.265625
32.266667	1	0.257875
32.283333	1	0.250375
32.300000	1	0.242125
32.316667	1	0.233750
32.333333	1	0.225625
32.350000	1	0.217375
32.366667	1	0.209750
32.383333	1	0.201750
32.400000	1	0.193750
32.416667	1	0.186625
32.433333	1	0.178875
32.450000	1	0.171125
32.466667	1	0.164750
32.483333	1	0.157750
32.500000	1	0.151500
32.516667	1	0.145375
32.533333	1	0.140250
32.550000	1	0.135000
32.566667	1	0.129875
32.583333	1	0.125125
32.600000	1	0.120875
32.616667	1	0.117375
32.633333	1	0.113250
32.650000	1	0.109125
32.666667	1	0.105500
32.683333	1	0.102625
32.700000	1	0.098875
32.716667	1	0.095875
32.733333	1	0.091875
32.750000	1	0.088750
32.766667	1	0.085750
32.783333	1	0.082875
32.800000	1	0.080500
32.816667	1	0.078125
32.833333	1	0.075750
32.850000	1	0.072750
32.866667	1	0.071000
32.883333	1	0.068375
32.900000	1	0.065500
32.916667	1	0.063750
32.933333	1	0.061250
32.950000	1	0.059375
32.966667	1	0.056875
32.983333	1	0.055625
33.000000	1	0.053625
33.016667	1	0.052125
33.033333	1	0.050000
33.050000	1	0.048500
33.066667	1	0.047500
33.083333	1	0.046500
33.100000	1	0.045250
33.116667	1	0.044250
33.133333	1	0.043750
33.150000	1	0.042875
33.166667	1	0.042250
33.183333	1	0.042250
33.200000	1	0.042125
33.216667	1	0.041625
33.233333	1	0.041750
33.250000	1	0.040625
33.266667	1	0.040250
33.283333	1	0.040000
33.300000	1	0.040250
33.316667	1	0.040750
33.333333	1	0.041000
33.350000	1	0.040625
33.366667	1	0.040875
33.383333	1	0.040500
33.400000	1	0.040250
33.416667	1	0.040750
33.433333	1	0.041000
33.450000	1	0.041250
33.466667	1	0.041625
33.483333	1	0.041125
33.500000	1	0.041625
33.516667	1	0.041625
33.533333	1	0.041875
33.550000	1	0.042125
33.566667	1	0.042500
33.583333	1	0.042750
33.600000	1	0.043500
33.616667	1	0.044750
33.633333	1	0.045500
33.650000	1	0.046000
33.666667	1	0.046000
33.683333	1	0.047125
33.700000	1	0.047625
33.716667	1	0.048375
33.733333	1	0.049125
33.750000	1	0.050000
33.766667	1	0.050375
33.783333	1	0.051750
33.800000	1	0.052375
33.816667	1	0.053500
33.833333	1	0.053875
33.850000	1	0.054750
33.866667	1	0.056500
33.883333	1	0.057750
33.900000	1	0.058750
33.916667	1	0.059750
33.933333	1	0.061750
33.950000	1	0.062875
33.966667	1	0.063750
33.983333	1	0.064875
34.000000	1	0.066375
34.016667	1	0.068125
34.033333	1	0.070250
34.050000	1	0.071750
34.066667	1	0.073500
34.083333	1	0.075250
34.100000	1	0.077250
34.116667	1	0.078625
34.133333	1	0.080750
34.150000	1	0.082625
34.166667	1	0.085000
34.183333	1	0.086500
34.200000	1	0.088250
34.216667	1	0.090125
34.233333	1	0.092375
34.250000	1	0.094375
34.266667	1	0.096500
34.283333	1	0.098375
34.300000	1	0.100000
34.316667	1	0.101750
34.333333	1	0.103375
34.350000	1	0.105125
34.366667	1	0.106875
34.383333	1	0.108375
34.400000	1	0.109375
34.416667	1	0.110375
34.433333	1	0.111500
34.450000	1	0.112625
34.466667	1	0.113750
34.483333	1	0.114750
34.500000	1	0.116125
34.516667	1	0.117125
34.533333	1	0.119000
34.550000	1	0.120500
34.566667	1	0.121375
34.583333	1	0.122750
34.600000	1	0.123750
34.616667	1	0.123875
34.633333	1	0.124875
34.650000	1	0.125625
34.666667	1	0.127250
34.683333	1	0.128375
34.700000	1	0.129000
34.716667	1	0.129500
34.733333	1	0.130000
34.750000	1	0.131750
34.766667	1	0.133500
34.783333	1	0.135250
34.800000	1	0.137375
34.816667	1	0.138625
34.833333	1	0.140125
34.850000	1	0.141750
34.866667	1	0.143500
34.883333	1	0.145500
34.900000	1	0.148125
34.916667	1	0.150500
34.933333	1	0.152875
34.950000	1	0.155750
34.966667	1	0.157875
34.983333	1	0.160500
35.000000	1	0.162625
35.016667	1	0.165875
35.033333	1	0.168875
35.050000	1	0.171750
35.066667	1	0.174500
35.083333	1	0.177625
35.100000	1	0.180250
35.116667	1	0.183125
35.133333	1	0.186875
35.150000	1	0.190125
35.166667	1	0.193875
35.183333	1	0.197375
35.200000	1	0.200125
35.216667	1	0.202750
35.233333	1	0.206250
35.250000	1	0.209250
35.266667	1	0.212375
35.283333	1	0.215875
35.300000	1	0.219375
35.316667	1	0.221625
35.333333	1	0.224875
35.350000	1	0.227750
35.366667	1	0.231000
35.383333	1	0.233000
35.400000	1	0.235125
35.416667	1	0.236625
35.433333	1	0.238750
35.450000	1	0.240875
35.466667	1	0.242250
35.483333	1	0.242250
35.500000	1	0.243375
35.516667	1	0.244000
35.533333	1	0.244625
35.550000	1	0.245375
35.566667	1	0.246250
35.583333	1	0.246500
35.600000	1	0.246500
35.616667	1	0.246375
35.633333	1	0.246125
35.650000	1	0.246125
35.666667	1	0.246000
35.683333	1	0.245125
35.700000	1	0.244375
35.716667	1	0.243750
35.733333	1	0.242750
35.750000	1	0.242500
35.766667	1	0.241125
35.783333	1	0.239625
35.800000	1	0.238375
35.816667	1	0.237375
35.833333	1	0.235875
35.850000	1	0.233875
35.866667	1	0.231875
35.883333	1	0.229875
35.900000	1	0.228000
35.916667	1	0.226000
35.933333	1	0.223250
35.950000	1	0.221500
35.966667	1	0.219000
35.983333	1	0.216250
36.000000	1	0.213375
36.016667	1	0.210875
36.033333	1	0.207500
36.050000	1	0.204875
36.066667	1	0.202750
36.083333	1	0.200375
36.100000	1	0.197500
36.116667	1	0.195000
36.133333	1	0.192750
36.150000	1	0.190125
36.166667	1	0.187875
36.183333	1	0.185125
36.200000	1	0.181875
36.216667	1	0.179250
36.233333	1	0.176000
36.250000	1	0.173750
36.266667	1	0.171250
36.283333	1	0.168750
36.300000	1	0.167000
36.316667	1	0.165625
36.333333	1	0.162875
36.350000	1	0.160500
36.366667	1	0.158625
36.383333	1	0.156375
36.400000	1	0.153500
36.416667	1	0.151375
36.433333	1	0.149125
36.450000	1	0.147625
36.466667	1	0.146000
36.483333	1	0.143875
36.500000	1	0.142625
36.516667	1	0.141000
36.533333	1	0.139500
36.550000	1	0.137500
36.566667	1	0.135000
36.583333	1	0.132875
36.600000	1	0.131375
36.616667	1	0.128750
36.633333	1	0.126000
36.650000	1	0.123875
36.666667	1	0.122125
36.683333	1	0.120125
36.700000	1	0.117750
36.716667	1	0.115000
36.733333	1	0.113125
36.750000	1	0.110125
36.766667	1	0.107125
36.783333	1	0.104125
36.800000	1	0.102250
36.816667	1	0.099625
36.833333	1	0.096750
36.850000	1	0.094250
36.866667	1	0.091750
36.883333	1	0.089125
36.900000	1	0.087000
36.916667	1	0.084375
36.933333	1	0.082250
36.950000	1	0.080250
36.966667	1	0.077875
36.983333	1	0.075750
37.000000	1	0.074000
37.016667	1	0.072125
37.033333	1	0.070375
37.050000	1	0.068375
37.066667	1	0.066500
37.083333	1	0.065375
37.100000	1	0.064500
37.116667	1	0.062625
37.133333	1	0.061625
37.150000	1	0.061000
37.166667	1	0.059750
37.183333	1	0.058500
37.200000	1	0.057375
37.216667	1	0.056625
37.233333	1	0.056500
37.250000	1	0.055875
37.266667	1	0.055250
37.283333	1	0.054750
37.300000	1	0.053875
37.316667	1	0.053750
37.333333	1	0.053750
37.350000	1	0.053625
37.366667	1	0.052875
37.383333	1	0.052625
37.400000	1	0.052500
37.416667	1	0.051875
37.433333	1	0.051750
37.450000	1	0.051625
37.466667	1	0.052000
37.483333	1	0.052500
37.500000	1	0.053375
37.516667	1	0.052875
37.533333	1	0.053125
37.550000	1	0.053500
37.566667	1	0.053875
37.583333	1	0.053125
37.600000	1	0.053500
37.616667	1	0.053750
37.633333	1	0.054625
37.650000	1	0.054750
37.666667	1	0.055375
37.683333	1	0.056250
37.700000	1	0.057000
37.716667	1	0.057125
37.733333	1	0.057875
37.750000	1	0.058500
37.766667	1	0.059875
37.783333	1	0.061250
37.800000	1	0.062500
37.816667	1	0.063500
37.833333	1	0.064875
37.850000	1	0.066250
37.866667	1	0.067500
37.883333	1	0.069250
37.900000	1	0.070125
37.916667	1	0.071625
37.933333	1	0.072875
37.950000	1	0.074750
37.966667	1	0.076000
37.983333	1	0.077500
38.000000	1	0.078625
38.016667	1	0.080750
38.033333	1	0.082250
38.050000	1	0.084000
38.066667	1	0.085625
38.083333	1	0.087500
38.100000	1	0.089375
38.116667	1	0.091000
38.133333	1	0.091875
38.150000	1	0.092750
38.166667	1	0.093875
38.183333	1	0.094250
38.200000	1	0.095125
38.216667	1	0.096250
38.233333	1	0.097125
38.250000	1	0.097250
38.266667	1	0.097750
38.283333	1	0.098000
38.300000	1	0.098125
38.316667	1	0.098125
38.333333	1	0.098250
38.350000	1	0.099250
38.366667	1	0.100000
38.383333	1	0.100125
38.400000	1	0.100000
38.416667	1	0.100500
38.433333	1	0.100125
38.450000	1	0.099875
38.466667	1	0.099375
38.483333	1	0.099625
38.500000	1	0.099375
38.516667	1	0.099750
38.533333	1	0.099750
38.550000	1	0.099125
38.566667	1	0.099375
38.583333	1	0.099375
38.600000	1	0.099250
38.616667	1	0.099000
38.633333	1	0.099375
38.650000	1	0.099250
38.666667	1	0.098875
38.683333	1	0.098750
38.700000	1	0.099375
38.716667	1	0.098625
38.733333	1	0.098375
38.750000	1	0.098375
38.766667	1	0.097625
38.783333	1	0.097375
38.800000	1	0.097250
38.816667	1	0.096875
38.833333	1	0.097250
38.850000	1	0.097000
38.866667	1	0.096875
38.883333	1	0.096500
38.900000	1	0.095875
38.916667	1	0.095125
38.933333	1	0.094500
38.950000	1	0.093875
38.966667	1	0.093125
38.983333	1	0.092125
39.000000	1	0.091000
39.016667	1	0.089750
39.033333	1	0.088875
39.050000	1	0.088375
39.066667	1	0.087750
39.083333	1	0.087125
39.100000	1	0.085750
39.116667	1	0.084875
39.133333	1	0.083875
39.150000	1	0.083250
39.166667	1	0.082875
39.183333	1	0.082125
39.200000	1	0.081750
39.216667	1	0.081625
39.233333	1	0.081375
39.250000	1	0.081250
39.266667	1	0.081000
39.283333	1	0.081000
39.300000	1	0.081000
39.316667	1	0.081500
39.333333	1	0.081500
39.350000	1	0.081875
39.366667	1	0.081500
39.383333	1	0.082250
39.400000	1	0.082750
39.416667	1	0.083500
39.433333	1	0.084500
39.450000	1	0.085125
39.466667	1	0.086000
39.483333	1	0.086875
39.500000	1	0.088000
39.516667	1	0.088500
39.533333	1	0.089875
39.550000	1	0.090750
39.566667	1	0.092500
39.583333	1	0.093625
39.600000	1	0.094750
39.616667	1	0.096000
39.633333	1	0.097000
39.650000	1	0.098500
39.666667	1	0.099875
39.683333	1	0.100750
39.700000	1	0.102500
39.716667	1	0.103875
39.733333	1	0.105000
39.750000	1	0.106250
39.766667	1	0.107750
39.783333	1	0.109250
39.800000	1	0.110875
39.816667	1	0.112500
39.833333	1	0.113875
39.850000	1	0.115750
39.866667	1	0.117625
39.883333	1	0.119375
39.900000	1	0.121125
39.916667	1	0.123000
39.933333	1	0.124125
39.950000	1	0.125125
39.966667	1	0.127000
39.983333	1	0.129000
40.000000	1	0.130625
