File Path	chrom://990-75db15j/XVault/Ultimate_3000/1256/20230531_CMO_stabTest _FP08_FP09.seq/858.smp/RI_1.channel/RI_1.chm
Channel	RI_1

Injection Information:
Data Vault	XVault
Injection	FP09__6_s4
Injection Number	71
Position	BC10
Comment	
Processing Method	
Instrument Method	run_25B_method
Type	Unknown
Status	Finished
Injection Date	03.06.2023
Injection Time	13:32:35
Injection Volume (µl)	20.000
Dilution Factor	1.0000
Weight	1.0000

Chromatogram Data Information:
Time Min. (min)	0.000000
Time Max. (min)	40.000000
Data Points	2401
Detector	RI
Generating Data System	Chromeleon 7.2.5.9507
Exporting Data System	Chromeleon 7.2.5.0
Operator	Instrument Controller
Signal Quantity	Refractive 
Signal Unit	µRIU
Signal Min.	-0.395125
Signal Max.	57.531250
Channel	RI_1
Driver Name	RID520Driver.dll
Channel Type	Evaluation
Min. Step (s)	1
Max. Step (s)	1
Average Step (s)	1

Signal Parameter Information:
Signal Info	

Chromatogram Data:
Time (min)	Step (s)	Value (µRIU)
0.000000	n.a.	-0.054125
0.016667	1	-0.055500
0.033333	1	-0.055875
0.050000	1	-0.056500
0.066667	1	-0.056875
0.083333	1	-0.057250
0.100000	1	-0.057875
0.116667	1	-0.057625
0.133333	1	-0.058000
0.150000	1	-0.058375
0.166667	1	-0.058875
0.183333	1	-0.059000
0.200000	1	-0.059125
0.216667	1	-0.059625
0.233333	1	-0.059500
0.250000	1	-0.059125
0.266667	1	-0.059250
0.283333	1	-0.059750
0.300000	1	-0.062250
0.316667	1	-0.065500
0.333333	1	-0.068000
0.350000	1	-0.067875
0.366667	1	-0.064500
0.383333	1	-0.060500
0.400000	1	-0.056750
0.416667	1	-0.053500
0.433333	1	-0.050750
0.450000	1	-0.048875
0.466667	1	-0.047125
0.483333	1	-0.046375
0.500000	1	-0.047375
0.516667	1	-0.049500
0.533333	1	-0.052000
0.550000	1	-0.053000
0.566667	1	-0.054750
0.583333	1	-0.055875
0.600000	1	-0.057125
0.616667	1	-0.058125
0.633333	1	-0.058375
0.650000	1	-0.058625
0.666667	1	-0.059000
0.683333	1	-0.059000
0.700000	1	-0.059000
0.716667	1	-0.059000
0.733333	1	-0.059375
0.750000	1	-0.058875
0.766667	1	-0.058875
0.783333	1	-0.058250
0.800000	1	-0.057750
0.816667	1	-0.058000
0.833333	1	-0.057250
0.850000	1	-0.057250
0.866667	1	-0.057000
0.883333	1	-0.056375
0.900000	1	-0.055625
0.916667	1	-0.055375
0.933333	1	-0.054875
0.950000	1	-0.055000
0.966667	1	-0.054750
0.983333	1	-0.054375
1.000000	1	-0.053625
1.016667	1	-0.053375
1.033333	1	-0.053000
1.050000	1	-0.052750
1.066667	1	-0.053000
1.083333	1	-0.052875
1.100000	1	-0.052750
1.116667	1	-0.053000
1.133333	1	-0.053875
1.150000	1	-0.054625
1.166667	1	-0.054875
1.183333	1	-0.055625
1.200000	1	-0.056250
1.216667	1	-0.056875
1.233333	1	-0.057750
1.250000	1	-0.058500
1.266667	1	-0.058625
1.283333	1	-0.059875
1.300000	1	-0.060750
1.316667	1	-0.061875
1.333333	1	-0.063250
1.350000	1	-0.064000
1.366667	1	-0.064875
1.383333	1	-0.065625
1.400000	1	-0.066000
1.416667	1	-0.066875
1.433333	1	-0.067625
1.450000	1	-0.067750
1.466667	1	-0.068500
1.483333	1	-0.069250
1.500000	1	-0.069375
1.516667	1	-0.070000
1.533333	1	-0.070875
1.550000	1	-0.071625
1.566667	1	-0.072250
1.583333	1	-0.072500
1.600000	1	-0.073125
1.616667	1	-0.073500
1.633333	1	-0.074000
1.650000	1	-0.073875
1.666667	1	-0.073750
1.683333	1	-0.073750
1.700000	1	-0.073750
1.716667	1	-0.073750
1.733333	1	-0.074000
1.750000	1	-0.074375
1.766667	1	-0.074750
1.783333	1	-0.074750
1.800000	1	-0.074125
1.816667	1	-0.074500
1.833333	1	-0.073875
1.850000	1	-0.073000
1.866667	1	-0.072500
1.883333	1	-0.071625
1.900000	1	-0.071125
1.916667	1	-0.070500
1.933333	1	-0.069625
1.950000	1	-0.069125
1.966667	1	-0.068125
1.983333	1	-0.067625
2.000000	1	-0.067375
2.016667	1	-0.066250
2.033333	1	-0.064875
2.050000	1	-0.063875
2.066667	1	-0.062875
2.083333	1	-0.061125
2.100000	1	-0.060125
2.116667	1	-0.059500
2.133333	1	-0.058000
2.150000	1	-0.056375
2.166667	1	-0.055125
2.183333	1	-0.053625
2.200000	1	-0.051625
2.216667	1	-0.050000
2.233333	1	-0.048500
2.250000	1	-0.046750
2.266667	1	-0.044500
2.283333	1	-0.043750
2.300000	1	-0.042125
2.316667	1	-0.040500
2.333333	1	-0.038875
2.350000	1	-0.037375
2.366667	1	-0.035375
2.383333	1	-0.033625
2.400000	1	-0.031750
2.416667	1	-0.029875
2.433333	1	-0.028625
2.450000	1	-0.027000
2.466667	1	-0.025125
2.483333	1	-0.023750
2.500000	1	-0.022625
2.516667	1	-0.021250
2.533333	1	-0.019875
2.550000	1	-0.018500
2.566667	1	-0.017000
2.583333	1	-0.016000
2.600000	1	-0.014375
2.616667	1	-0.013375
2.633333	1	-0.011625
2.650000	1	-0.010375
2.666667	1	-0.008875
2.683333	1	-0.008125
2.700000	1	-0.007375
2.716667	1	-0.007000
2.733333	1	-0.006125
2.750000	1	-0.005625
2.766667	1	-0.005250
2.783333	1	-0.004875
2.800000	1	-0.004875
2.816667	1	-0.005125
2.833333	1	-0.004875
2.850000	1	-0.004250
2.866667	1	-0.003750
2.883333	1	-0.004375
2.900000	1	-0.004375
2.916667	1	-0.004125
2.933333	1	-0.004625
2.950000	1	-0.004000
2.966667	1	-0.004250
2.983333	1	-0.004625
3.000000	1	-0.004875
3.016667	1	-0.005875
3.033333	1	-0.006125
3.050000	1	-0.006250
3.066667	1	-0.006875
3.083333	1	-0.008125
3.100000	1	-0.008375
3.116667	1	-0.009375
3.133333	1	-0.009875
3.150000	1	-0.010750
3.166667	1	-0.011125
3.183333	1	-0.012375
3.200000	1	-0.013625
3.216667	1	-0.014875
3.233333	1	-0.014875
3.250000	1	-0.015000
3.266667	1	-0.015500
3.283333	1	-0.016750
3.300000	1	-0.017625
3.316667	1	-0.018875
3.333333	1	-0.019125
3.350000	1	-0.019500
3.366667	1	-0.019625
3.383333	1	-0.020500
3.400000	1	-0.020875
3.416667	1	-0.020625
3.433333	1	-0.020625
3.450000	1	-0.020625
3.466667	1	-0.020875
3.483333	1	-0.021375
3.500000	1	-0.021250
3.516667	1	-0.022125
3.533333	1	-0.022750
3.550000	1	-0.023125
3.566667	1	-0.023625
3.583333	1	-0.024375
3.600000	1	-0.025000
3.616667	1	-0.025250
3.633333	1	-0.025250
3.650000	1	-0.025500
3.666667	1	-0.026000
3.683333	1	-0.026125
3.700000	1	-0.027250
3.716667	1	-0.027500
3.733333	1	-0.028000
3.750000	1	-0.028000
3.766667	1	-0.028125
3.783333	1	-0.028250
3.800000	1	-0.028500
3.816667	1	-0.028625
3.833333	1	-0.029125
3.850000	1	-0.030000
3.866667	1	-0.030000
3.883333	1	-0.030625
3.900000	1	-0.030750
3.916667	1	-0.032000
3.933333	1	-0.032125
3.950000	1	-0.032375
3.966667	1	-0.032375
3.983333	1	-0.032375
4.000000	1	-0.032125
4.016667	1	-0.032375
4.033333	1	-0.033125
4.050000	1	-0.033625
4.066667	1	-0.034375
4.083333	1	-0.034750
4.100000	1	-0.035250
4.116667	1	-0.035875
4.133333	1	-0.036500
4.150000	1	-0.037375
4.166667	1	-0.038000
4.183333	1	-0.038375
4.200000	1	-0.039250
4.216667	1	-0.039500
4.233333	1	-0.040500
4.250000	1	-0.041250
4.266667	1	-0.041625
4.283333	1	-0.042375
4.300000	1	-0.042500
4.316667	1	-0.042750
4.333333	1	-0.043125
4.350000	1	-0.043500
4.366667	1	-0.043625
4.383333	1	-0.043500
4.400000	1	-0.043750
4.416667	1	-0.043500
4.433333	1	-0.043250
4.450000	1	-0.043500
4.466667	1	-0.043750
4.483333	1	-0.043500
4.500000	1	-0.043500
4.516667	1	-0.043125
4.533333	1	-0.042500
4.550000	1	-0.042000
4.566667	1	-0.041375
4.583333	1	-0.040625
4.600000	1	-0.039500
4.616667	1	-0.038625
4.633333	1	-0.037250
4.650000	1	-0.036000
4.666667	1	-0.034500
4.683333	1	-0.033500
4.700000	1	-0.031750
4.716667	1	-0.030375
4.733333	1	-0.028125
4.750000	1	-0.025750
4.766667	1	-0.023500
4.783333	1	-0.021250
4.800000	1	-0.017875
4.816667	1	-0.015125
4.833333	1	-0.012250
4.850000	1	-0.010125
4.866667	1	-0.007250
4.883333	1	-0.004625
4.900000	1	-0.002000
4.916667	1	0.001000
4.933333	1	0.004125
4.950000	1	0.007125
4.966667	1	0.009750
4.983333	1	0.012750
5.000000	1	0.015500
5.016667	1	0.018500
5.033333	1	0.021250
5.050000	1	0.023000
5.066667	1	0.024875
5.083333	1	0.027500
5.100000	1	0.029250
5.116667	1	0.030750
5.133333	1	0.032000
5.150000	1	0.033875
5.166667	1	0.035000
5.183333	1	0.036125
5.200000	1	0.036625
5.216667	1	0.037000
5.233333	1	0.037000
5.250000	1	0.037625
5.266667	1	0.037875
5.283333	1	0.037750
5.300000	1	0.037000
5.316667	1	0.036625
5.333333	1	0.035375
5.350000	1	0.035125
5.366667	1	0.033625
5.383333	1	0.032750
5.400000	1	0.032000
5.416667	1	0.030500
5.433333	1	0.029625
5.450000	1	0.028000
5.466667	1	0.027125
5.483333	1	0.025500
5.500000	1	0.023875
5.516667	1	0.022000
5.533333	1	0.021250
5.550000	1	0.020125
5.566667	1	0.018750
5.583333	1	0.017375
5.600000	1	0.016250
5.616667	1	0.015375
5.633333	1	0.014375
5.650000	1	0.013250
5.666667	1	0.012125
5.683333	1	0.010625
5.700000	1	0.010125
5.716667	1	0.010000
5.733333	1	0.009375
5.750000	1	0.009500
5.766667	1	0.009250
5.783333	1	0.009500
5.800000	1	0.009000
5.816667	1	0.008750
5.833333	1	0.008375
5.850000	1	0.008125
5.866667	1	0.008250
5.883333	1	0.008500
5.900000	1	0.008875
5.916667	1	0.008875
5.933333	1	0.009500
5.950000	1	0.009625
5.966667	1	0.010000
5.983333	1	0.011000
6.000000	1	0.011125
6.016667	1	0.011625
6.033333	1	0.013000
6.050000	1	0.013875
6.066667	1	0.013875
6.083333	1	0.014875
6.100000	1	0.016000
6.116667	1	0.017000
6.133333	1	0.018000
6.150000	1	0.019625
6.166667	1	0.021125
6.183333	1	0.022125
6.200000	1	0.023875
6.216667	1	0.025250
6.233333	1	0.027375
6.250000	1	0.029250
6.266667	1	0.031375
6.283333	1	0.033125
6.300000	1	0.034875
6.316667	1	0.037250
6.333333	1	0.040000
6.350000	1	0.042375
6.366667	1	0.044500
6.383333	1	0.046750
6.400000	1	0.049750
6.416667	1	0.051625
6.433333	1	0.053625
6.450000	1	0.055625
6.466667	1	0.058250
6.483333	1	0.060500
6.500000	1	0.063250
6.516667	1	0.065250
6.533333	1	0.067000
6.550000	1	0.069375
6.566667	1	0.070375
6.583333	1	0.072000
6.600000	1	0.073125
6.616667	1	0.073875
6.633333	1	0.075000
6.650000	1	0.075625
6.666667	1	0.075875
6.683333	1	0.075750
6.700000	1	0.075625
6.716667	1	0.074875
6.733333	1	0.074750
6.750000	1	0.074375
6.766667	1	0.074000
6.783333	1	0.072500
6.800000	1	0.070875
6.816667	1	0.069250
6.833333	1	0.068125
6.850000	1	0.066125
6.866667	1	0.065000
6.883333	1	0.062625
6.900000	1	0.060500
6.916667	1	0.058125
6.933333	1	0.056500
6.950000	1	0.054250
6.966667	1	0.052375
6.983333	1	0.049375
7.000000	1	0.046250
7.016667	1	0.043250
7.033333	1	0.040750
7.050000	1	0.037375
7.066667	1	0.035000
7.083333	1	0.032750
7.100000	1	0.030375
7.116667	1	0.027625
7.133333	1	0.025125
7.150000	1	0.022625
7.166667	1	0.020375
7.183333	1	0.018625
7.200000	1	0.016250
7.216667	1	0.014000
7.233333	1	0.012250
7.250000	1	0.010625
7.266667	1	0.009250
7.283333	1	0.007750
7.300000	1	0.006750
7.316667	1	0.005750
7.333333	1	0.004875
7.350000	1	0.004000
7.366667	1	0.003000
7.383333	1	0.002875
7.400000	1	0.002375
7.416667	1	0.002125
7.433333	1	0.001375
7.450000	1	0.000750
7.466667	1	0.000875
7.483333	1	0.001375
7.500000	1	0.001250
7.516667	1	0.000750
7.533333	1	0.001125
7.550000	1	0.000750
7.566667	1	0.000625
7.583333	1	0.000250
7.600000	1	0.000000
7.616667	1	-0.000250
7.633333	1	-0.000375
7.650000	1	-0.000750
7.666667	1	-0.000875
7.683333	1	-0.001250
7.700000	1	-0.001375
7.716667	1	-0.001000
7.733333	1	-0.000625
7.750000	1	-0.000750
7.766667	1	-0.001250
7.783333	1	-0.001625
7.800000	1	-0.002250
7.816667	1	-0.002375
7.833333	1	-0.002625
7.850000	1	-0.002750
7.866667	1	-0.003000
7.883333	1	-0.002875
7.900000	1	-0.003500
7.916667	1	-0.003500
7.933333	1	-0.004375
7.950000	1	-0.004125
7.966667	1	-0.004125
7.983333	1	-0.004000
8.000000	1	-0.003750
8.016667	1	-0.004250
8.033333	1	-0.004125
8.050000	1	-0.003875
8.066667	1	-0.003375
8.083333	1	-0.002625
8.100000	1	-0.002125
8.116667	1	-0.001750
8.133333	1	-0.000875
8.150000	1	0.000500
8.166667	1	0.001875
8.183333	1	0.002625
8.200000	1	0.003250
8.216667	1	0.004375
8.233333	1	0.006500
8.250000	1	0.007250
8.266667	1	0.008000
8.283333	1	0.008875
8.300000	1	0.010500
8.316667	1	0.011625
8.333333	1	0.012500
8.350000	1	0.014125
8.366667	1	0.015500
8.383333	1	0.016625
8.400000	1	0.017750
8.416667	1	0.019000
8.433333	1	0.020250
8.450000	1	0.021250
8.466667	1	0.022625
8.483333	1	0.023375
8.500000	1	0.024875
8.516667	1	0.026250
8.533333	1	0.028000
8.550000	1	0.029125
8.566667	1	0.030000
8.583333	1	0.031125
8.600000	1	0.032250
8.616667	1	0.034000
8.633333	1	0.034750
8.650000	1	0.035500
8.666667	1	0.036250
8.683333	1	0.037875
8.700000	1	0.038875
8.716667	1	0.040000
8.733333	1	0.040500
8.750000	1	0.041875
8.766667	1	0.043000
8.783333	1	0.043250
8.800000	1	0.043500
8.816667	1	0.044125
8.833333	1	0.044375
8.850000	1	0.044875
8.866667	1	0.044750
8.883333	1	0.045625
8.900000	1	0.046375
8.916667	1	0.046625
8.933333	1	0.047500
8.950000	1	0.047000
8.966667	1	0.047125
8.983333	1	0.047125
9.000000	1	0.046875
9.016667	1	0.046875
9.033333	1	0.046625
9.050000	1	0.046500
9.066667	1	0.046375
9.083333	1	0.046500
9.100000	1	0.046000
9.116667	1	0.045500
9.133333	1	0.045750
9.150000	1	0.045875
9.166667	1	0.046000
9.183333	1	0.046250
9.200000	1	0.046750
9.216667	1	0.047125
9.233333	1	0.047500
9.250000	1	0.048000
9.266667	1	0.048125
9.283333	1	0.048250
9.300000	1	0.048625
9.316667	1	0.048750
9.333333	1	0.049000
9.350000	1	0.049500
9.366667	1	0.050250
9.383333	1	0.050375
9.400000	1	0.051375
9.416667	1	0.052750
9.433333	1	0.054000
9.450000	1	0.055875
9.466667	1	0.058000
9.483333	1	0.061000
9.500000	1	0.064750
9.516667	1	0.069125
9.533333	1	0.075250
9.550000	1	0.081625
9.566667	1	0.089125
9.583333	1	0.097500
9.600000	1	0.107125
9.616667	1	0.117750
9.633333	1	0.130375
9.650000	1	0.145375
9.666667	1	0.161375
9.683333	1	0.179500
9.700000	1	0.200375
9.716667	1	0.222875
9.733333	1	0.246500
9.750000	1	0.270250
9.766667	1	0.294250
9.783333	1	0.316250
9.800000	1	0.334750
9.816667	1	0.349125
9.833333	1	0.357875
9.850000	1	0.359500
9.866667	1	0.350375
9.883333	1	0.329375
9.900000	1	0.295500
9.916667	1	0.257250
9.933333	1	0.238750
9.950000	1	0.278500
9.966667	1	0.434250
9.983333	1	0.769625
10.000000	1	1.351125
10.016667	1	2.237875
10.033333	1	3.475250
10.050000	1	5.093250
10.066667	1	7.108250
10.083333	1	9.525125
10.100000	1	12.334375
10.116667	1	15.509750
10.133333	1	19.010625
10.150000	1	22.777125
10.166667	1	26.725500
10.183333	1	30.748750
10.200000	1	34.710250
10.216667	1	38.442750
10.233333	1	41.757000
10.250000	1	44.454125
10.266667	1	46.353875
10.283333	1	47.323375
10.300000	1	47.298875
10.316667	1	46.304875
10.333333	1	44.447875
10.350000	1	41.898875
10.366667	1	38.865250
10.383333	1	35.561000
10.400000	1	32.178125
10.416667	1	28.871000
10.433333	1	25.749000
10.450000	1	22.884375
10.466667	1	20.304500
10.483333	1	18.015625
10.500000	1	16.004250
10.516667	1	14.247250
10.533333	1	12.716000
10.550000	1	11.382000
10.566667	1	10.217125
10.583333	1	9.196500
10.600000	1	8.298500
10.616667	1	7.506375
10.633333	1	6.805500
10.650000	1	6.186625
10.666667	1	5.639875
10.683333	1	5.158000
10.700000	1	4.732750
10.716667	1	4.357625
10.733333	1	4.027750
10.750000	1	3.736375
10.766667	1	3.479500
10.783333	1	3.251875
10.800000	1	3.049750
10.816667	1	2.868250
10.833333	1	2.705125
10.850000	1	2.558500
10.866667	1	2.424750
10.883333	1	2.304000
10.900000	1	2.194250
10.916667	1	2.094250
10.933333	1	2.002500
10.950000	1	1.918125
10.966667	1	1.841000
10.983333	1	1.770250
11.000000	1	1.706250
11.016667	1	1.646750
11.033333	1	1.592500
11.050000	1	1.543125
11.066667	1	1.496875
11.083333	1	1.454125
11.100000	1	1.414625
11.116667	1	1.378750
11.133333	1	1.345875
11.150000	1	1.314375
11.166667	1	1.285250
11.183333	1	1.258000
11.200000	1	1.232750
11.216667	1	1.209625
11.233333	1	1.188375
11.250000	1	1.167375
11.266667	1	1.147875
11.283333	1	1.130000
11.300000	1	1.113125
11.316667	1	1.097000
11.333333	1	1.081125
11.350000	1	1.067125
11.366667	1	1.054000
11.383333	1	1.041625
11.400000	1	1.029875
11.416667	1	1.019500
11.433333	1	1.010125
11.450000	1	1.002125
11.466667	1	0.995625
11.483333	1	0.989375
11.500000	1	0.984750
11.516667	1	0.981500
11.533333	1	0.979000
11.550000	1	0.977875
11.566667	1	0.977250
11.583333	1	0.977500
11.600000	1	0.977750
11.616667	1	0.979375
11.633333	1	0.980750
11.650000	1	0.981875
11.666667	1	0.983375
11.683333	1	0.985500
11.700000	1	0.987500
11.716667	1	0.988750
11.733333	1	0.990375
11.750000	1	0.991375
11.766667	1	0.991875
11.783333	1	0.992125
11.800000	1	0.993875
11.816667	1	0.995250
11.833333	1	0.996625
11.850000	1	0.999125
11.866667	1	1.003000
11.883333	1	1.008375
11.900000	1	1.015500
11.916667	1	1.023500
11.933333	1	1.033875
11.950000	1	1.046750
11.966667	1	1.061625
11.983333	1	1.078875
12.000000	1	1.098750
12.016667	1	1.122125
12.033333	1	1.148125
12.050000	1	1.177125
12.066667	1	1.210625
12.083333	1	1.249000
12.100000	1	1.293875
12.116667	1	1.347250
12.133333	1	1.410750
12.150000	1	1.486875
12.166667	1	1.578625
12.183333	1	1.687750
12.200000	1	1.816250
12.216667	1	1.966625
12.233333	1	2.140250
12.250000	1	2.338875
12.266667	1	2.565125
12.283333	1	2.818500
12.300000	1	3.103000
12.316667	1	3.420875
12.333333	1	3.774625
12.350000	1	4.166000
12.366667	1	4.599750
12.383333	1	5.077625
12.400000	1	5.601125
12.416667	1	6.168250
12.433333	1	6.775500
12.450000	1	7.415000
12.466667	1	8.075500
12.483333	1	8.742375
12.500000	1	9.394125
12.516667	1	10.008250
12.533333	1	10.560875
12.550000	1	11.029750
12.566667	1	11.400625
12.583333	1	11.667250
12.600000	1	11.829500
12.616667	1	11.897125
12.633333	1	11.881250
12.650000	1	11.795750
12.666667	1	11.655500
12.683333	1	11.472250
12.700000	1	11.258750
12.716667	1	11.022875
12.733333	1	10.774625
12.750000	1	10.519250
12.766667	1	10.261875
12.783333	1	10.006875
12.800000	1	9.756000
12.816667	1	9.511625
12.833333	1	9.274250
12.850000	1	9.046000
12.866667	1	8.825125
12.883333	1	8.611750
12.900000	1	8.405000
12.916667	1	8.204375
12.933333	1	8.010000
12.950000	1	7.818000
12.966667	1	7.629000
12.983333	1	7.440875
13.000000	1	7.251625
13.016667	1	7.061750
13.033333	1	6.869125
13.050000	1	6.672000
13.066667	1	6.468625
13.083333	1	6.257250
13.100000	1	6.035750
13.116667	1	5.802125
13.133333	1	5.555000
13.150000	1	5.292000
13.166667	1	5.010625
13.183333	1	4.707500
13.200000	1	4.382125
13.216667	1	4.033375
13.233333	1	3.663875
13.250000	1	3.282000
13.266667	1	2.902250
13.283333	1	2.543375
13.300000	1	2.225125
13.316667	1	1.956875
13.333333	1	1.738750
13.350000	1	1.564500
13.366667	1	1.426375
13.383333	1	1.315625
13.400000	1	1.226250
13.416667	1	1.152750
13.433333	1	1.091250
13.450000	1	1.039125
13.466667	1	0.995875
13.483333	1	0.958375
13.500000	1	0.926750
13.516667	1	0.899375
13.533333	1	0.876125
13.550000	1	0.857125
13.566667	1	0.840750
13.583333	1	0.828750
13.600000	1	0.818750
13.616667	1	0.810750
13.633333	1	0.805000
13.650000	1	0.801250
13.666667	1	0.798000
13.683333	1	0.795125
13.700000	1	0.792625
13.716667	1	0.789375
13.733333	1	0.785125
13.750000	1	0.780000
13.766667	1	0.773625
13.783333	1	0.765750
13.800000	1	0.756250
13.816667	1	0.745375
13.833333	1	0.734375
13.850000	1	0.722500
13.866667	1	0.710000
13.883333	1	0.696500
13.900000	1	0.683125
13.916667	1	0.669500
13.933333	1	0.655250
13.950000	1	0.641625
13.966667	1	0.628000
13.983333	1	0.616125
14.000000	1	0.603625
14.016667	1	0.593500
14.033333	1	0.583500
14.050000	1	0.574875
14.066667	1	0.567250
14.083333	1	0.561375
14.100000	1	0.556375
14.116667	1	0.553125
14.133333	1	0.550375
14.150000	1	0.550625
14.166667	1	0.551875
14.183333	1	0.555125
14.200000	1	0.560625
14.216667	1	0.568500
14.233333	1	0.579625
14.250000	1	0.594375
14.266667	1	0.613000
14.283333	1	0.636375
14.300000	1	0.665375
14.316667	1	0.701250
14.333333	1	0.745375
14.350000	1	0.798000
14.366667	1	0.861500
14.383333	1	0.936250
14.400000	1	1.024125
14.416667	1	1.127500
14.433333	1	1.247625
14.450000	1	1.387125
14.466667	1	1.547750
14.483333	1	1.733250
14.500000	1	1.945250
14.516667	1	2.188000
14.533333	1	2.465625
14.550000	1	2.784875
14.566667	1	3.152250
14.583333	1	3.577875
14.600000	1	4.073125
14.616667	1	4.657500
14.633333	1	5.350375
14.650000	1	6.179375
14.666667	1	7.177000
14.683333	1	8.380750
14.700000	1	9.828625
14.716667	1	11.560125
14.733333	1	13.610000
14.750000	1	16.004750
14.766667	1	18.757875
14.783333	1	21.859750
14.800000	1	25.283125
14.816667	1	28.976250
14.833333	1	32.864000
14.850000	1	36.847750
14.866667	1	40.806750
14.883333	1	44.609625
14.900000	1	48.118250
14.916667	1	51.203500
14.933333	1	53.758625
14.950000	1	55.697125
14.966667	1	56.962500
14.983333	1	57.531250
15.000000	1	57.412750
15.016667	1	56.643250
15.033333	1	55.282000
15.050000	1	53.405000
15.066667	1	51.101375
15.083333	1	48.466875
15.100000	1	45.599875
15.116667	1	42.588750
15.133333	1	39.512000
15.150000	1	36.435750
15.166667	1	33.416500
15.183333	1	30.500875
15.200000	1	27.722625
15.216667	1	25.104875
15.233333	1	22.660750
15.250000	1	20.398500
15.266667	1	18.319500
15.283333	1	16.421750
15.300000	1	14.699125
15.316667	1	13.144375
15.333333	1	11.746875
15.350000	1	10.496500
15.366667	1	9.382375
15.383333	1	8.393250
15.400000	1	7.517000
15.416667	1	6.743625
15.433333	1	6.062875
15.450000	1	5.465250
15.466667	1	4.942500
15.483333	1	4.487500
15.500000	1	4.092375
15.516667	1	3.750125
15.533333	1	3.455875
15.550000	1	3.204250
15.566667	1	2.988875
15.583333	1	2.805000
15.600000	1	2.647000
15.616667	1	2.510875
15.633333	1	2.393125
15.650000	1	2.289500
15.666667	1	2.197375
15.683333	1	2.113000
15.700000	1	2.034750
15.716667	1	1.960500
15.733333	1	1.889875
15.750000	1	1.822000
15.766667	1	1.756625
15.783333	1	1.693500
15.800000	1	1.632750
15.816667	1	1.574375
15.833333	1	1.518500
15.850000	1	1.465250
15.866667	1	1.414500
15.883333	1	1.366750
15.900000	1	1.322125
15.916667	1	1.280500
15.933333	1	1.241250
15.950000	1	1.204750
15.966667	1	1.171250
15.983333	1	1.140625
16.000000	1	1.112625
16.016667	1	1.087625
16.033333	1	1.065000
16.050000	1	1.044500
16.066667	1	1.027125
16.083333	1	1.012000
16.100000	1	0.999250
16.116667	1	0.989375
16.133333	1	0.981875
16.150000	1	0.976000
16.166667	1	0.971125
16.183333	1	0.967625
16.200000	1	0.965000
16.216667	1	0.963125
16.233333	1	0.961625
16.250000	1	0.959125
16.266667	1	0.956250
16.283333	1	0.952500
16.300000	1	0.948250
16.316667	1	0.942875
16.333333	1	0.936875
16.350000	1	0.930500
16.366667	1	0.923250
16.383333	1	0.915375
16.400000	1	0.908250
16.416667	1	0.901000
16.433333	1	0.894250
16.450000	1	0.886750
16.466667	1	0.880000
16.483333	1	0.874125
16.500000	1	0.869000
16.516667	1	0.864125
16.533333	1	0.861000
16.550000	1	0.858625
16.566667	1	0.857625
16.583333	1	0.857250
16.600000	1	0.857250
16.616667	1	0.858375
16.633333	1	0.860625
16.650000	1	0.863250
16.666667	1	0.866000
16.683333	1	0.869375
16.700000	1	0.873125
16.716667	1	0.877500
16.733333	1	0.882000
16.750000	1	0.885625
16.766667	1	0.889750
16.783333	1	0.894125
16.800000	1	0.897250
16.816667	1	0.900125
16.833333	1	0.901500
16.850000	1	0.901125
16.866667	1	0.900000
16.883333	1	0.898625
16.900000	1	0.896125
16.916667	1	0.894750
16.933333	1	0.892375
16.950000	1	0.890375
16.966667	1	0.889000
16.983333	1	0.886625
17.000000	1	0.886125
17.016667	1	0.885500
17.033333	1	0.885000
17.050000	1	0.885000
17.066667	1	0.885500
17.083333	1	0.885875
17.100000	1	0.885625
17.116667	1	0.885125
17.133333	1	0.883750
17.150000	1	0.882125
17.166667	1	0.879375
17.183333	1	0.875500
17.200000	1	0.870125
17.216667	1	0.864125
17.233333	1	0.857250
17.250000	1	0.850250
17.266667	1	0.842500
17.283333	1	0.833625
17.300000	1	0.824375
17.316667	1	0.814750
17.333333	1	0.805625
17.350000	1	0.796625
17.366667	1	0.788125
17.383333	1	0.780500
17.400000	1	0.773625
17.416667	1	0.767750
17.433333	1	0.762000
17.450000	1	0.757500
17.466667	1	0.754750
17.483333	1	0.753625
17.500000	1	0.753625
17.516667	1	0.755000
17.533333	1	0.758375
17.550000	1	0.763250
17.566667	1	0.770375
17.583333	1	0.779250
17.600000	1	0.789750
17.616667	1	0.802500
17.633333	1	0.815875
17.650000	1	0.830125
17.666667	1	0.845875
17.683333	1	0.862875
17.700000	1	0.879625
17.716667	1	0.897500
17.733333	1	0.915500
17.750000	1	0.933625
17.766667	1	0.951375
17.783333	1	0.969125
17.800000	1	0.985625
17.816667	1	1.000875
17.833333	1	1.013625
17.850000	1	1.024625
17.866667	1	1.034000
17.883333	1	1.041625
17.900000	1	1.047125
17.916667	1	1.049500
17.933333	1	1.050000
17.950000	1	1.048625
17.966667	1	1.043625
17.983333	1	1.037125
18.000000	1	1.029250
18.016667	1	1.019125
18.033333	1	1.007750
18.050000	1	0.994625
18.066667	1	0.981125
18.083333	1	0.966250
18.100000	1	0.950625
18.116667	1	0.935250
18.133333	1	0.919875
18.150000	1	0.905250
18.166667	1	0.889875
18.183333	1	0.875000
18.200000	1	0.860750
18.216667	1	0.847125
18.233333	1	0.833250
18.250000	1	0.820875
18.266667	1	0.809125
18.283333	1	0.799000
18.300000	1	0.789000
18.316667	1	0.780750
18.333333	1	0.773500
18.350000	1	0.767625
18.366667	1	0.763125
18.383333	1	0.759750
18.400000	1	0.756625
18.416667	1	0.754250
18.433333	1	0.752500
18.450000	1	0.751125
18.466667	1	0.749750
18.483333	1	0.749625
18.500000	1	0.749750
18.516667	1	0.749625
18.533333	1	0.750375
18.550000	1	0.750875
18.566667	1	0.751625
18.583333	1	0.752500
18.600000	1	0.754125
18.616667	1	0.755750
18.633333	1	0.757625
18.650000	1	0.760000
18.666667	1	0.763500
18.683333	1	0.768000
18.700000	1	0.772250
18.716667	1	0.777125
18.733333	1	0.783125
18.750000	1	0.788625
18.766667	1	0.795000
18.783333	1	0.802125
18.800000	1	0.809500
18.816667	1	0.818000
18.833333	1	0.827250
18.850000	1	0.838125
18.866667	1	0.849000
18.883333	1	0.862000
18.900000	1	0.876000
18.916667	1	0.890625
18.933333	1	0.908250
18.950000	1	0.928000
18.966667	1	0.949750
18.983333	1	0.975500
19.000000	1	1.003375
19.016667	1	1.033875
19.033333	1	1.067375
19.050000	1	1.104125
19.066667	1	1.142375
19.083333	1	1.182750
19.100000	1	1.224500
19.116667	1	1.267625
19.133333	1	1.310000
19.150000	1	1.351500
19.166667	1	1.391875
19.183333	1	1.428750
19.200000	1	1.462750
19.216667	1	1.492375
19.233333	1	1.516250
19.250000	1	1.535000
19.266667	1	1.547125
19.283333	1	1.552500
19.300000	1	1.551750
19.316667	1	1.543875
19.333333	1	1.529875
19.350000	1	1.510250
19.366667	1	1.484875
19.383333	1	1.454375
19.400000	1	1.419250
19.416667	1	1.380000
19.433333	1	1.338375
19.450000	1	1.293500
19.466667	1	1.248000
19.483333	1	1.202000
19.500000	1	1.155500
19.516667	1	1.109625
19.533333	1	1.064875
19.550000	1	1.021375
19.566667	1	0.979625
19.583333	1	0.940500
19.600000	1	0.903500
19.616667	1	0.869875
19.633333	1	0.838375
19.650000	1	0.810250
19.666667	1	0.785875
19.683333	1	0.764875
19.700000	1	0.747875
19.716667	1	0.734500
19.733333	1	0.724375
19.750000	1	0.718750
19.766667	1	0.717000
19.783333	1	0.719625
19.800000	1	0.726500
19.816667	1	0.736500
19.833333	1	0.750375
19.850000	1	0.767250
19.866667	1	0.787500
19.883333	1	0.809875
19.900000	1	0.834625
19.916667	1	0.860250
19.933333	1	0.887125
19.950000	1	0.914750
19.966667	1	0.943125
19.983333	1	0.970125
20.000000	1	0.996250
20.016667	1	1.022000
20.033333	1	1.046000
20.050000	1	1.069625
20.066667	1	1.092500
20.083333	1	1.114750
20.100000	1	1.136375
20.116667	1	1.158500
20.133333	1	1.181250
20.150000	1	1.206750
20.166667	1	1.234875
20.183333	1	1.267000
20.200000	1	1.304000
20.216667	1	1.347500
20.233333	1	1.397875
20.250000	1	1.456375
20.266667	1	1.524750
20.283333	1	1.602375
20.300000	1	1.689375
20.316667	1	1.786875
20.333333	1	1.892250
20.350000	1	2.006625
20.366667	1	2.127500
20.383333	1	2.252625
20.400000	1	2.380500
20.416667	1	2.507375
20.433333	1	2.630250
20.450000	1	2.746500
20.466667	1	2.853250
20.483333	1	2.947375
20.500000	1	3.027125
20.516667	1	3.090250
20.533333	1	3.135500
20.550000	1	3.163000
20.566667	1	3.172125
20.583333	1	3.164000
20.600000	1	3.140375
20.616667	1	3.102625
20.633333	1	3.052375
20.650000	1	2.994125
20.666667	1	2.929875
20.683333	1	2.862375
20.700000	1	2.796375
20.716667	1	2.732000
20.733333	1	2.673000
20.750000	1	2.620250
20.766667	1	2.575750
20.783333	1	2.540125
20.800000	1	2.513625
20.816667	1	2.494250
20.833333	1	2.483250
20.850000	1	2.477125
20.866667	1	2.475500
20.883333	1	2.475750
20.900000	1	2.475875
20.916667	1	2.474750
20.933333	1	2.468125
20.950000	1	2.455750
20.966667	1	2.434500
20.983333	1	2.404125
21.000000	1	2.365000
21.016667	1	2.315625
21.033333	1	2.257125
21.050000	1	2.189875
21.066667	1	2.115125
21.083333	1	2.034750
21.100000	1	1.949500
21.116667	1	1.860250
21.133333	1	1.769125
21.150000	1	1.676625
21.166667	1	1.585250
21.183333	1	1.495125
21.200000	1	1.407625
21.216667	1	1.323500
21.233333	1	1.243250
21.250000	1	1.167125
21.266667	1	1.096000
21.283333	1	1.029750
21.300000	1	0.969375
21.316667	1	0.913250
21.333333	1	0.862000
21.350000	1	0.814375
21.366667	1	0.771250
21.383333	1	0.732500
21.400000	1	0.697625
21.416667	1	0.666375
21.433333	1	0.637375
21.450000	1	0.611625
21.466667	1	0.589125
21.483333	1	0.568375
21.500000	1	0.550000
21.516667	1	0.534625
21.533333	1	0.520000
21.550000	1	0.507750
21.566667	1	0.496125
21.583333	1	0.485750
21.600000	1	0.476500
21.616667	1	0.468500
21.633333	1	0.461250
21.650000	1	0.455500
21.666667	1	0.449625
21.683333	1	0.445125
21.700000	1	0.441500
21.716667	1	0.438875
21.733333	1	0.437750
21.750000	1	0.437125
21.766667	1	0.437500
21.783333	1	0.439625
21.800000	1	0.442625
21.816667	1	0.446750
21.833333	1	0.451750
21.850000	1	0.458375
21.866667	1	0.465375
21.883333	1	0.473375
21.900000	1	0.482500
21.916667	1	0.491625
21.933333	1	0.501000
21.950000	1	0.510875
21.966667	1	0.520375
21.983333	1	0.528875
22.000000	1	0.536875
22.016667	1	0.543625
22.033333	1	0.549750
22.050000	1	0.554250
22.066667	1	0.557000
22.083333	1	0.558875
22.100000	1	0.559375
22.116667	1	0.558125
22.133333	1	0.555875
22.150000	1	0.552250
22.166667	1	0.547625
22.183333	1	0.542125
22.200000	1	0.535375
22.216667	1	0.528500
22.233333	1	0.521250
22.250000	1	0.514625
22.266667	1	0.507250
22.283333	1	0.501125
22.300000	1	0.495000
22.316667	1	0.489750
22.333333	1	0.485625
22.350000	1	0.482125
22.366667	1	0.478875
22.383333	1	0.476625
22.400000	1	0.475500
22.416667	1	0.475000
22.433333	1	0.474750
22.450000	1	0.475500
22.466667	1	0.477500
22.483333	1	0.479875
22.500000	1	0.482500
22.516667	1	0.486000
22.533333	1	0.490000
22.550000	1	0.494000
22.566667	1	0.497375
22.583333	1	0.501375
22.600000	1	0.504875
22.616667	1	0.507875
22.633333	1	0.510875
22.650000	1	0.513875
22.666667	1	0.516375
22.683333	1	0.518625
22.700000	1	0.520625
22.716667	1	0.522125
22.733333	1	0.522875
22.750000	1	0.522750
22.766667	1	0.522125
22.783333	1	0.520250
22.800000	1	0.518125
22.816667	1	0.515375
22.833333	1	0.512125
22.850000	1	0.507750
22.866667	1	0.502750
22.883333	1	0.497875
22.900000	1	0.492500
22.916667	1	0.486750
22.933333	1	0.480750
22.950000	1	0.474875
22.966667	1	0.468875
22.983333	1	0.462625
23.000000	1	0.456625
23.016667	1	0.451750
23.033333	1	0.447750
23.050000	1	0.443750
23.066667	1	0.440625
23.083333	1	0.438375
23.100000	1	0.437875
23.116667	1	0.437750
23.133333	1	0.438750
23.150000	1	0.442375
23.166667	1	0.447125
23.183333	1	0.452250
23.200000	1	0.459125
23.216667	1	0.467750
23.233333	1	0.478875
23.250000	1	0.491875
23.266667	1	0.507125
23.283333	1	0.525000
23.300000	1	0.545375
23.316667	1	0.567625
23.333333	1	0.592750
23.350000	1	0.621000
23.366667	1	0.652375
23.383333	1	0.687000
23.400000	1	0.726375
23.416667	1	0.769625
23.433333	1	0.818000
23.450000	1	0.872500
23.466667	1	0.933375
23.483333	1	1.001000
23.500000	1	1.077125
23.516667	1	1.162500
23.533333	1	1.258375
23.550000	1	1.366750
23.566667	1	1.487875
23.583333	1	1.624125
23.600000	1	1.775500
23.616667	1	1.944250
23.633333	1	2.131250
23.650000	1	2.335875
23.666667	1	2.559000
23.683333	1	2.799500
23.700000	1	3.056625
23.716667	1	3.328875
23.733333	1	3.613750
23.750000	1	3.907750
23.766667	1	4.208000
23.783333	1	4.508750
23.800000	1	4.805875
23.816667	1	5.094375
23.833333	1	5.367500
23.850000	1	5.620875
23.866667	1	5.850250
23.883333	1	6.049125
23.900000	1	6.215375
23.916667	1	6.345250
23.933333	1	6.436375
23.950000	1	6.488000
23.966667	1	6.498625
23.983333	1	6.468750
24.000000	1	6.400000
24.016667	1	6.294750
24.033333	1	6.156750
24.050000	1	5.988500
24.066667	1	5.795125
24.083333	1	5.579750
24.100000	1	5.347375
24.116667	1	5.101875
24.133333	1	4.847500
24.150000	1	4.588250
24.166667	1	4.328500
24.183333	1	4.070875
24.200000	1	3.817375
24.216667	1	3.571875
24.233333	1	3.335125
24.250000	1	3.109875
24.266667	1	2.896625
24.283333	1	2.695750
24.300000	1	2.508125
24.316667	1	2.334875
24.333333	1	2.174250
24.350000	1	2.025875
24.366667	1	1.889750
24.383333	1	1.766000
24.400000	1	1.654125
24.416667	1	1.551125
24.433333	1	1.457875
24.450000	1	1.373500
24.466667	1	1.297125
24.483333	1	1.227250
24.500000	1	1.163625
24.516667	1	1.105250
24.533333	1	1.051125
24.550000	1	1.001125
24.566667	1	0.954750
24.583333	1	0.911750
24.600000	1	0.871250
24.616667	1	0.833250
24.633333	1	0.796875
24.650000	1	0.762875
24.666667	1	0.730625
24.683333	1	0.699250
24.700000	1	0.669000
24.716667	1	0.640000
24.733333	1	0.611875
24.750000	1	0.585750
24.766667	1	0.560000
24.783333	1	0.535500
24.800000	1	0.512500
24.816667	1	0.490250
24.833333	1	0.469875
24.850000	1	0.449250
24.866667	1	0.430500
24.883333	1	0.413375
24.900000	1	0.397000
24.916667	1	0.382625
24.933333	1	0.368375
24.950000	1	0.355375
24.966667	1	0.343875
24.983333	1	0.332750
25.000000	1	0.323375
25.016667	1	0.314625
25.033333	1	0.307250
25.050000	1	0.301125
25.066667	1	0.296000
25.083333	1	0.291750
25.100000	1	0.288000
25.116667	1	0.285250
25.133333	1	0.283250
25.150000	1	0.281750
25.166667	1	0.280625
25.183333	1	0.280125
25.200000	1	0.280625
25.216667	1	0.281750
25.233333	1	0.283625
25.250000	1	0.285375
25.266667	1	0.287750
25.283333	1	0.290125
25.300000	1	0.292500
25.316667	1	0.295625
25.333333	1	0.298750
25.350000	1	0.301750
25.366667	1	0.305250
25.383333	1	0.308500
25.400000	1	0.312000
25.416667	1	0.314250
25.433333	1	0.316875
25.450000	1	0.319750
25.466667	1	0.321750
25.483333	1	0.323375
25.500000	1	0.324875
25.516667	1	0.325875
25.533333	1	0.327000
25.550000	1	0.327625
25.566667	1	0.328500
25.583333	1	0.328250
25.600000	1	0.327375
25.616667	1	0.326750
25.633333	1	0.326500
25.650000	1	0.325625
25.666667	1	0.323500
25.683333	1	0.322250
25.700000	1	0.320000
25.716667	1	0.317875
25.733333	1	0.315000
25.750000	1	0.312375
25.766667	1	0.309125
25.783333	1	0.305750
25.800000	1	0.301500
25.816667	1	0.296375
25.833333	1	0.291250
25.850000	1	0.286250
25.866667	1	0.280875
25.883333	1	0.275500
25.900000	1	0.269625
25.916667	1	0.263500
25.933333	1	0.256500
25.950000	1	0.250000
25.966667	1	0.243750
25.983333	1	0.236250
26.000000	1	0.229250
26.016667	1	0.221375
26.033333	1	0.213750
26.050000	1	0.206625
26.066667	1	0.198750
26.083333	1	0.191750
26.100000	1	0.184750
26.116667	1	0.177875
26.133333	1	0.171625
26.150000	1	0.165750
26.166667	1	0.160000
26.183333	1	0.155875
26.200000	1	0.151625
26.216667	1	0.147875
26.233333	1	0.145125
26.250000	1	0.143375
26.266667	1	0.141875
26.283333	1	0.141000
26.300000	1	0.140375
26.316667	1	0.139500
26.333333	1	0.139250
26.350000	1	0.139625
26.366667	1	0.140500
26.383333	1	0.140750
26.400000	1	0.141625
26.416667	1	0.143750
26.433333	1	0.145375
26.450000	1	0.147125
26.466667	1	0.148750
26.483333	1	0.149875
26.500000	1	0.151750
26.516667	1	0.152750
26.533333	1	0.153625
26.550000	1	0.153875
26.566667	1	0.153875
26.583333	1	0.154625
26.600000	1	0.154625
26.616667	1	0.154250
26.633333	1	0.154250
26.650000	1	0.154000
26.666667	1	0.153625
26.683333	1	0.153375
26.700000	1	0.153000
26.716667	1	0.152375
26.733333	1	0.152125
26.750000	1	0.152250
26.766667	1	0.152125
26.783333	1	0.152875
26.800000	1	0.153750
26.816667	1	0.154500
26.833333	1	0.156250
26.850000	1	0.157250
26.866667	1	0.159250
26.883333	1	0.162125
26.900000	1	0.164500
26.916667	1	0.167625
26.933333	1	0.170875
26.950000	1	0.174875
26.966667	1	0.178875
26.983333	1	0.183500
27.000000	1	0.188250
27.016667	1	0.193750
27.033333	1	0.199750
27.050000	1	0.206625
27.066667	1	0.214125
27.083333	1	0.222750
27.100000	1	0.231375
27.116667	1	0.240000
27.133333	1	0.250125
27.150000	1	0.260625
27.166667	1	0.271250
27.183333	1	0.284000
27.200000	1	0.297250
27.216667	1	0.311250
27.233333	1	0.326500
27.250000	1	0.342250
27.266667	1	0.358625
27.283333	1	0.375875
27.300000	1	0.394250
27.316667	1	0.414000
27.333333	1	0.435750
27.350000	1	0.458750
27.366667	1	0.482625
27.383333	1	0.508250
27.400000	1	0.536125
27.416667	1	0.566125
27.433333	1	0.598250
27.450000	1	0.632875
27.466667	1	0.671875
27.483333	1	0.713000
27.500000	1	0.758625
27.516667	1	0.808625
27.533333	1	0.864000
27.550000	1	0.923875
27.566667	1	0.990125
27.583333	1	1.062250
27.600000	1	1.141625
27.616667	1	1.228250
27.633333	1	1.321500
27.650000	1	1.422500
27.666667	1	1.531500
27.683333	1	1.648250
27.700000	1	1.773375
27.716667	1	1.904500
27.733333	1	2.042000
27.750000	1	2.185500
27.766667	1	2.334125
27.783333	1	2.485875
27.800000	1	2.639000
27.816667	1	2.792625
27.833333	1	2.945625
27.850000	1	3.094125
27.866667	1	3.238750
27.883333	1	3.376625
27.900000	1	3.504875
27.916667	1	3.622750
27.933333	1	3.726625
27.950000	1	3.816750
27.966667	1	3.890250
27.983333	1	3.946250
28.000000	1	3.983875
28.016667	1	4.002625
28.033333	1	4.001750
28.050000	1	3.982000
28.066667	1	3.941625
28.083333	1	3.882750
28.100000	1	3.806750
28.116667	1	3.713500
28.133333	1	3.605500
28.150000	1	3.483750
28.166667	1	3.351375
28.183333	1	3.208250
28.200000	1	3.057750
28.216667	1	2.901250
28.233333	1	2.741250
28.250000	1	2.578125
28.266667	1	2.415125
28.283333	1	2.253625
28.300000	1	2.094000
28.316667	1	1.938875
28.333333	1	1.788500
28.350000	1	1.643875
28.366667	1	1.505500
28.383333	1	1.374250
28.400000	1	1.250250
28.416667	1	1.132875
28.433333	1	1.022500
28.450000	1	0.919125
28.466667	1	0.822875
28.483333	1	0.732125
28.500000	1	0.646875
28.516667	1	0.567250
28.533333	1	0.492750
28.550000	1	0.423375
28.566667	1	0.357750
28.583333	1	0.296250
28.600000	1	0.238125
28.616667	1	0.183500
28.633333	1	0.131250
28.650000	1	0.081500
28.666667	1	0.034500
28.683333	1	-0.009875
28.700000	1	-0.052375
28.716667	1	-0.093125
28.733333	1	-0.131250
28.750000	1	-0.167625
28.766667	1	-0.200875
28.783333	1	-0.231875
28.800000	1	-0.261000
28.816667	1	-0.287000
28.833333	1	-0.310750
28.850000	1	-0.331750
28.866667	1	-0.349875
28.883333	1	-0.365375
28.900000	1	-0.377500
28.916667	1	-0.386375
28.933333	1	-0.392000
28.950000	1	-0.394625
28.966667	1	-0.395125
28.983333	1	-0.391375
29.000000	1	-0.385000
29.016667	1	-0.375625
29.033333	1	-0.363000
29.050000	1	-0.348875
29.066667	1	-0.331375
29.083333	1	-0.312000
29.100000	1	-0.290625
29.116667	1	-0.267500
29.133333	1	-0.242500
29.150000	1	-0.215750
29.166667	1	-0.188875
29.183333	1	-0.159875
29.200000	1	-0.130375
29.216667	1	-0.100250
29.233333	1	-0.069750
29.250000	1	-0.038750
29.266667	1	-0.008250
29.283333	1	0.021375
29.300000	1	0.051750
29.316667	1	0.081000
29.333333	1	0.109375
29.350000	1	0.137500
29.366667	1	0.165000
29.383333	1	0.191125
29.400000	1	0.216500
29.416667	1	0.240375
29.433333	1	0.263000
29.450000	1	0.284625
29.466667	1	0.304875
29.483333	1	0.323625
29.500000	1	0.340750
29.516667	1	0.356750
29.533333	1	0.370750
29.550000	1	0.382875
29.566667	1	0.394125
29.583333	1	0.404125
29.600000	1	0.412750
29.616667	1	0.419625
29.633333	1	0.425125
29.650000	1	0.429125
29.666667	1	0.432500
29.683333	1	0.434625
29.700000	1	0.435000
29.716667	1	0.434625
29.733333	1	0.433625
29.750000	1	0.431250
29.766667	1	0.429625
29.783333	1	0.425500
29.800000	1	0.421625
29.816667	1	0.417375
29.833333	1	0.412625
29.850000	1	0.408000
29.866667	1	0.402625
29.883333	1	0.396500
29.900000	1	0.390125
29.916667	1	0.383500
29.933333	1	0.377125
29.950000	1	0.370875
29.966667	1	0.364875
29.983333	1	0.359375
30.000000	1	0.353750
30.016667	1	0.348250
30.033333	1	0.342625
30.050000	1	0.337125
30.066667	1	0.331875
30.083333	1	0.326750
30.100000	1	0.322000
30.116667	1	0.317375
30.133333	1	0.312875
30.150000	1	0.308875
30.166667	1	0.305250
30.183333	1	0.301375
30.200000	1	0.297625
30.216667	1	0.294250
30.233333	1	0.292000
30.250000	1	0.288500
30.266667	1	0.285625
30.283333	1	0.282500
30.300000	1	0.280125
30.316667	1	0.277500
30.333333	1	0.275125
30.350000	1	0.273500
30.366667	1	0.272000
30.383333	1	0.270875
30.400000	1	0.269750
30.416667	1	0.269125
30.433333	1	0.269375
30.450000	1	0.268875
30.466667	1	0.268750
30.483333	1	0.269375
30.500000	1	0.270625
30.516667	1	0.273000
30.533333	1	0.274500
30.550000	1	0.276625
30.566667	1	0.279375
30.583333	1	0.281625
30.600000	1	0.284375
30.616667	1	0.287375
30.633333	1	0.290250
30.650000	1	0.293000
30.666667	1	0.295375
30.683333	1	0.297375
30.700000	1	0.298625
30.716667	1	0.300375
30.733333	1	0.302250
30.750000	1	0.302375
30.766667	1	0.302250
30.783333	1	0.301875
30.800000	1	0.300500
30.816667	1	0.298625
30.833333	1	0.296500
30.850000	1	0.293250
30.866667	1	0.290250
30.883333	1	0.286500
30.900000	1	0.281500
30.916667	1	0.276375
30.933333	1	0.271375
30.950000	1	0.265375
30.966667	1	0.259000
30.983333	1	0.252875
31.000000	1	0.246625
31.016667	1	0.240250
31.033333	1	0.233250
31.050000	1	0.226875
31.066667	1	0.220250
31.083333	1	0.213250
31.100000	1	0.206500
31.116667	1	0.200500
31.133333	1	0.194500
31.150000	1	0.188125
31.166667	1	0.182000
31.183333	1	0.176375
31.200000	1	0.171000
31.216667	1	0.167000
31.233333	1	0.162625
31.250000	1	0.158625
31.266667	1	0.155375
31.283333	1	0.152000
31.300000	1	0.149250
31.316667	1	0.146875
31.333333	1	0.144875
31.350000	1	0.143250
31.366667	1	0.141625
31.383333	1	0.141625
31.400000	1	0.141375
31.416667	1	0.141625
31.433333	1	0.142500
31.450000	1	0.142750
31.466667	1	0.142875
31.483333	1	0.144500
31.500000	1	0.145875
31.516667	1	0.147500
31.533333	1	0.150250
31.550000	1	0.152875
31.566667	1	0.155625
31.583333	1	0.158250
31.600000	1	0.161625
31.616667	1	0.165000
31.633333	1	0.169375
31.650000	1	0.173375
31.666667	1	0.177625
31.683333	1	0.182250
31.700000	1	0.187500
31.716667	1	0.192625
31.733333	1	0.197625
31.750000	1	0.202750
31.766667	1	0.208875
31.783333	1	0.214375
31.800000	1	0.220125
31.816667	1	0.225625
31.833333	1	0.231375
31.850000	1	0.237000
31.866667	1	0.242500
31.883333	1	0.248250
31.900000	1	0.252875
31.916667	1	0.257750
31.933333	1	0.262000
31.950000	1	0.265375
31.966667	1	0.268250
31.983333	1	0.270875
32.000000	1	0.272875
32.016667	1	0.274250
32.033333	1	0.274875
32.050000	1	0.275125
32.066667	1	0.274375
32.083333	1	0.272500
32.100000	1	0.270750
32.116667	1	0.267625
32.133333	1	0.264750
32.150000	1	0.260625
32.166667	1	0.255875
32.183333	1	0.250750
32.200000	1	0.245250
32.216667	1	0.239250
32.233333	1	0.232250
32.250000	1	0.225375
32.266667	1	0.218250
32.283333	1	0.210500
32.300000	1	0.203750
32.316667	1	0.196500
32.333333	1	0.188750
32.350000	1	0.180875
32.366667	1	0.173500
32.383333	1	0.166625
32.400000	1	0.159875
32.416667	1	0.153125
32.433333	1	0.146000
32.450000	1	0.139375
32.466667	1	0.132875
32.483333	1	0.127375
32.500000	1	0.121625
32.516667	1	0.115500
32.533333	1	0.110000
32.550000	1	0.104625
32.566667	1	0.099250
32.583333	1	0.095000
32.600000	1	0.090375
32.616667	1	0.086500
32.633333	1	0.082750
32.650000	1	0.078125
32.666667	1	0.073625
32.683333	1	0.069375
32.700000	1	0.065250
32.716667	1	0.061875
32.733333	1	0.057625
32.750000	1	0.054500
32.766667	1	0.050500
32.783333	1	0.046625
32.800000	1	0.043250
32.816667	1	0.039875
32.833333	1	0.035250
32.850000	1	0.031625
32.866667	1	0.027750
32.883333	1	0.024250
32.900000	1	0.020375
32.916667	1	0.017000
32.933333	1	0.013500
32.950000	1	0.010000
32.966667	1	0.006750
32.983333	1	0.003000
33.000000	1	-0.000125
33.016667	1	-0.002875
33.033333	1	-0.006500
33.050000	1	-0.010250
33.066667	1	-0.013000
33.083333	1	-0.015750
33.100000	1	-0.018875
33.116667	1	-0.021875
33.133333	1	-0.024000
33.150000	1	-0.025875
33.166667	1	-0.029000
33.183333	1	-0.031000
33.200000	1	-0.032625
33.216667	1	-0.034500
33.233333	1	-0.036625
33.250000	1	-0.038250
33.266667	1	-0.039750
33.283333	1	-0.041750
33.300000	1	-0.043750
33.316667	1	-0.045375
33.333333	1	-0.046875
33.350000	1	-0.047250
33.366667	1	-0.048250
33.383333	1	-0.049500
33.400000	1	-0.050375
33.416667	1	-0.051375
33.433333	1	-0.052375
33.450000	1	-0.052875
33.466667	1	-0.053500
33.483333	1	-0.053500
33.500000	1	-0.054250
33.516667	1	-0.054500
33.533333	1	-0.054250
33.550000	1	-0.054375
33.566667	1	-0.054750
33.583333	1	-0.054750
33.600000	1	-0.054500
33.616667	1	-0.054375
33.633333	1	-0.054250
33.650000	1	-0.053875
33.666667	1	-0.053375
33.683333	1	-0.053000
33.700000	1	-0.052000
33.716667	1	-0.051500
33.733333	1	-0.050375
33.750000	1	-0.049875
33.766667	1	-0.048875
33.783333	1	-0.048375
33.800000	1	-0.046750
33.816667	1	-0.045375
33.833333	1	-0.044375
33.850000	1	-0.042750
33.866667	1	-0.041375
33.883333	1	-0.039375
33.900000	1	-0.037500
33.916667	1	-0.035000
33.933333	1	-0.032875
33.950000	1	-0.030750
33.966667	1	-0.027875
33.983333	1	-0.026250
34.000000	1	-0.023500
34.016667	1	-0.021000
34.033333	1	-0.018250
34.050000	1	-0.015875
34.066667	1	-0.013125
34.083333	1	-0.010250
34.100000	1	-0.007125
34.116667	1	-0.004250
34.133333	1	-0.001000
34.150000	1	0.002250
34.166667	1	0.005000
34.183333	1	0.007750
34.200000	1	0.011125
34.216667	1	0.013875
34.233333	1	0.017250
34.250000	1	0.020500
34.266667	1	0.023625
34.283333	1	0.026625
34.300000	1	0.029500
34.316667	1	0.032125
34.333333	1	0.035000
34.350000	1	0.038500
34.366667	1	0.041125
34.383333	1	0.042875
34.400000	1	0.045125
34.416667	1	0.047250
34.433333	1	0.049000
34.450000	1	0.050875
34.466667	1	0.053250
34.483333	1	0.054625
34.500000	1	0.055625
34.516667	1	0.056875
34.533333	1	0.058250
34.550000	1	0.059250
34.566667	1	0.060500
34.583333	1	0.061625
34.600000	1	0.062875
34.616667	1	0.062875
34.633333	1	0.064250
34.650000	1	0.064875
34.666667	1	0.065125
34.683333	1	0.066000
34.700000	1	0.067500
34.716667	1	0.068750
34.733333	1	0.069750
34.750000	1	0.071000
34.766667	1	0.071875
34.783333	1	0.072500
34.800000	1	0.072750
34.816667	1	0.074500
34.833333	1	0.075875
34.850000	1	0.077000
34.866667	1	0.078875
34.883333	1	0.080125
34.900000	1	0.081375
34.916667	1	0.083250
34.933333	1	0.085125
34.950000	1	0.087750
34.966667	1	0.089750
34.983333	1	0.092375
35.000000	1	0.094375
35.016667	1	0.096250
35.033333	1	0.098500
35.050000	1	0.100250
35.066667	1	0.102500
35.083333	1	0.105000
35.100000	1	0.107750
35.116667	1	0.110125
35.133333	1	0.113000
35.150000	1	0.116000
35.166667	1	0.119375
35.183333	1	0.121500
35.200000	1	0.124625
35.216667	1	0.127625
35.233333	1	0.130125
35.250000	1	0.133125
35.266667	1	0.135875
35.283333	1	0.137875
35.300000	1	0.140875
35.316667	1	0.143375
35.333333	1	0.146500
35.350000	1	0.148500
35.366667	1	0.149875
35.383333	1	0.151375
35.400000	1	0.153125
35.416667	1	0.155000
35.433333	1	0.156250
35.450000	1	0.157375
35.466667	1	0.158625
35.483333	1	0.158375
35.500000	1	0.158625
35.516667	1	0.158750
35.533333	1	0.158625
35.550000	1	0.159000
35.566667	1	0.158875
35.583333	1	0.158250
35.600000	1	0.157000
35.616667	1	0.156375
35.633333	1	0.155500
35.650000	1	0.154500
35.666667	1	0.153000
35.683333	1	0.152125
35.700000	1	0.150875
35.716667	1	0.149375
35.733333	1	0.147750
35.750000	1	0.146250
35.766667	1	0.144875
35.783333	1	0.143625
35.800000	1	0.141750
35.816667	1	0.139625
35.833333	1	0.137625
35.850000	1	0.135500
35.866667	1	0.133750
35.883333	1	0.131750
35.900000	1	0.130000
35.916667	1	0.128000
35.933333	1	0.125875
35.950000	1	0.123500
35.966667	1	0.120875
35.983333	1	0.119250
36.000000	1	0.117625
36.016667	1	0.115625
36.033333	1	0.114250
36.050000	1	0.112125
36.066667	1	0.110625
36.083333	1	0.108375
36.100000	1	0.106500
36.116667	1	0.104625
36.133333	1	0.103000
36.150000	1	0.101125
36.166667	1	0.099375
36.183333	1	0.097625
36.200000	1	0.095250
36.216667	1	0.093250
36.233333	1	0.091500
36.250000	1	0.090500
36.266667	1	0.088250
36.283333	1	0.087375
36.300000	1	0.085875
36.316667	1	0.084375
36.333333	1	0.082875
36.350000	1	0.080875
36.366667	1	0.079750
36.383333	1	0.078250
36.400000	1	0.077000
36.416667	1	0.075625
36.433333	1	0.074750
36.450000	1	0.073625
36.466667	1	0.071750
36.483333	1	0.069875
36.500000	1	0.069125
36.516667	1	0.068000
36.533333	1	0.066750
36.550000	1	0.064750
36.566667	1	0.063250
36.583333	1	0.061750
36.600000	1	0.059875
36.616667	1	0.057875
36.633333	1	0.055375
36.650000	1	0.052625
36.666667	1	0.050250
36.683333	1	0.047375
36.700000	1	0.044125
36.716667	1	0.040875
36.733333	1	0.037500
36.750000	1	0.034375
36.766667	1	0.031125
36.783333	1	0.028000
36.800000	1	0.024750
36.816667	1	0.021125
36.833333	1	0.017000
36.850000	1	0.013750
36.866667	1	0.009625
36.883333	1	0.006375
36.900000	1	0.002500
36.916667	1	-0.000375
36.933333	1	-0.003875
36.950000	1	-0.007125
36.966667	1	-0.010500
36.983333	1	-0.014250
37.000000	1	-0.018375
37.016667	1	-0.021625
37.033333	1	-0.024500
37.050000	1	-0.027500
37.066667	1	-0.030250
37.083333	1	-0.033500
37.100000	1	-0.036500
37.116667	1	-0.039250
37.133333	1	-0.042125
37.150000	1	-0.044500
37.166667	1	-0.046375
37.183333	1	-0.048750
37.200000	1	-0.050500
37.216667	1	-0.051875
37.233333	1	-0.053250
37.250000	1	-0.054875
37.266667	1	-0.055375
37.283333	1	-0.056875
37.300000	1	-0.056875
37.316667	1	-0.057125
37.333333	1	-0.057000
37.350000	1	-0.057125
37.366667	1	-0.057250
37.383333	1	-0.057500
37.400000	1	-0.058125
37.416667	1	-0.058500
37.433333	1	-0.057750
37.450000	1	-0.056500
37.466667	1	-0.056125
37.483333	1	-0.055250
37.500000	1	-0.054375
37.516667	1	-0.054000
37.533333	1	-0.053375
37.550000	1	-0.052875
37.566667	1	-0.051875
37.583333	1	-0.051000
37.600000	1	-0.050625
37.616667	1	-0.049125
37.633333	1	-0.047875
37.650000	1	-0.046875
37.666667	1	-0.045750
37.683333	1	-0.044500
37.700000	1	-0.043500
37.716667	1	-0.041750
37.733333	1	-0.040000
37.750000	1	-0.038750
37.766667	1	-0.038250
37.783333	1	-0.036875
37.800000	1	-0.035375
37.816667	1	-0.033375
37.833333	1	-0.032125
37.850000	1	-0.030750
37.866667	1	-0.029250
37.883333	1	-0.027875
37.900000	1	-0.025625
37.916667	1	-0.024625
37.933333	1	-0.023500
37.950000	1	-0.022625
37.966667	1	-0.021375
37.983333	1	-0.020250
38.000000	1	-0.018625
38.016667	1	-0.018000
38.033333	1	-0.016500
38.050000	1	-0.015750
38.066667	1	-0.014750
38.083333	1	-0.013375
38.100000	1	-0.012750
38.116667	1	-0.012375
38.133333	1	-0.012125
38.150000	1	-0.012375
38.166667	1	-0.012000
38.183333	1	-0.011750
38.200000	1	-0.012250
38.216667	1	-0.011875
38.233333	1	-0.012125
38.250000	1	-0.012000
38.266667	1	-0.012125
38.283333	1	-0.012250
38.300000	1	-0.012750
38.316667	1	-0.013000
38.333333	1	-0.013625
38.350000	1	-0.014250
38.366667	1	-0.015000
38.383333	1	-0.015625
38.400000	1	-0.016000
38.416667	1	-0.016625
38.433333	1	-0.017000
38.450000	1	-0.017250
38.466667	1	-0.017250
38.483333	1	-0.017375
38.500000	1	-0.018000
38.516667	1	-0.018875
38.533333	1	-0.019375
38.550000	1	-0.019625
38.566667	1	-0.019875
38.583333	1	-0.020250
38.600000	1	-0.020500
38.616667	1	-0.021250
38.633333	1	-0.021875
38.650000	1	-0.022375
38.666667	1	-0.022500
38.683333	1	-0.022250
38.700000	1	-0.022250
38.716667	1	-0.022500
38.733333	1	-0.022875
38.750000	1	-0.023250
38.766667	1	-0.023250
38.783333	1	-0.023125
38.800000	1	-0.023250
38.816667	1	-0.023625
38.833333	1	-0.023500
38.850000	1	-0.023625
38.866667	1	-0.023625
38.883333	1	-0.023875
38.900000	1	-0.024125
38.916667	1	-0.024500
38.933333	1	-0.024875
38.950000	1	-0.025000
38.966667	1	-0.025625
38.983333	1	-0.026500
39.000000	1	-0.027625
39.016667	1	-0.026875
39.033333	1	-0.026875
39.050000	1	-0.027375
39.066667	1	-0.027375
39.083333	1	-0.027500
39.100000	1	-0.027375
39.116667	1	-0.027250
39.133333	1	-0.027875
39.150000	1	-0.028250
39.166667	1	-0.028500
39.183333	1	-0.028875
39.200000	1	-0.029250
39.216667	1	-0.029000
39.233333	1	-0.028875
39.250000	1	-0.028250
39.266667	1	-0.028250
39.283333	1	-0.027625
39.300000	1	-0.026625
39.316667	1	-0.026500
39.333333	1	-0.025875
39.350000	1	-0.026000
39.366667	1	-0.025125
39.383333	1	-0.024750
39.400000	1	-0.024250
39.416667	1	-0.023750
39.433333	1	-0.022875
39.450000	1	-0.021500
39.466667	1	-0.020250
39.483333	1	-0.019125
39.500000	1	-0.017625
39.516667	1	-0.017125
39.533333	1	-0.015750
39.550000	1	-0.015000
39.566667	1	-0.013625
39.583333	1	-0.011750
39.600000	1	-0.010125
39.616667	1	-0.008875
39.633333	1	-0.007375
39.650000	1	-0.005750
39.666667	1	-0.004125
39.683333	1	-0.001875
39.700000	1	-0.000375
39.716667	1	0.001000
39.733333	1	0.002375
39.750000	1	0.003875
39.766667	1	0.005375
39.783333	1	0.006375
39.800000	1	0.007125
39.816667	1	0.007875
39.833333	1	0.009250
39.850000	1	0.010125
39.866667	1	0.010750
39.883333	1	0.011750
39.900000	1	0.012500
39.916667	1	0.013125
39.933333	1	0.013250
39.950000	1	0.013500
39.966667	1	0.013375
39.983333	1	0.013500
40.000000	1	0.014250
