File Path	chrom://990-75db15j/XVault/Ultimate_3000/1256/20230531_CMO_stabTest _FP08_FP09.seq/437.smp/RI_1.channel/RI_1.chm
Channel	RI_1

Injection Information:
Data Vault	XVault
Injection	FP09__6_s3
Injection Number	70
Position	BC9
Comment	
Processing Method	
Instrument Method	run_25B_method
Type	Unknown
Status	Finished
Injection Date	03.06.2023
Injection Time	12:51:36
Injection Volume (µl)	20.000
Dilution Factor	1.0000
Weight	1.0000

Chromatogram Data Information:
Time Min. (min)	0.000000
Time Max. (min)	40.000000
Data Points	2401
Detector	RI
Generating Data System	Chromeleon 7.2.5.9507
Exporting Data System	Chromeleon 7.2.5.0
Operator	Instrument Controller
Signal Quantity	Refractive 
Signal Unit	µRIU
Signal Min.	-0.438500
Signal Max.	58.378000
Channel	RI_1
Driver Name	RID520Driver.dll
Channel Type	Evaluation
Min. Step (s)	1
Max. Step (s)	1
Average Step (s)	1

Signal Parameter Information:
Signal Info	

Chromatogram Data:
Time (min)	Step (s)	Value (µRIU)
0.000000	n.a.	0.002500
0.016667	1	0.002625
0.033333	1	0.002875
0.050000	1	0.002875
0.066667	1	0.002375
0.083333	1	0.001750
0.100000	1	0.001125
0.116667	1	0.000750
0.133333	1	0.001125
0.150000	1	0.001250
0.166667	1	0.000750
0.183333	1	0.000000
0.200000	1	0.000375
0.216667	1	0.000375
0.233333	1	0.000250
0.250000	1	0.000250
0.266667	1	0.000750
0.283333	1	0.000750
0.300000	1	-0.001125
0.316667	1	-0.004250
0.333333	1	-0.007250
0.350000	1	-0.007875
0.366667	1	-0.004625
0.383333	1	-0.000500
0.400000	1	0.003375
0.416667	1	0.006750
0.433333	1	0.009625
0.450000	1	0.012000
0.466667	1	0.013875
0.483333	1	0.014375
0.500000	1	0.013375
0.516667	1	0.011375
0.533333	1	0.008875
0.550000	1	0.007750
0.566667	1	0.005750
0.583333	1	0.003875
0.600000	1	0.002500
0.616667	1	0.001500
0.633333	1	0.001250
0.650000	1	0.000750
0.666667	1	0.000750
0.683333	1	0.000250
0.700000	1	0.000000
0.716667	1	-0.001000
0.733333	1	-0.002000
0.750000	1	-0.002250
0.766667	1	-0.002375
0.783333	1	-0.002875
0.800000	1	-0.003875
0.816667	1	-0.004250
0.833333	1	-0.004875
0.850000	1	-0.005750
0.866667	1	-0.006500
0.883333	1	-0.007125
0.900000	1	-0.007750
0.916667	1	-0.008125
0.933333	1	-0.009500
0.950000	1	-0.010625
0.966667	1	-0.012125
0.983333	1	-0.013250
1.000000	1	-0.013750
1.016667	1	-0.015750
1.033333	1	-0.017250
1.050000	1	-0.019375
1.066667	1	-0.020250
1.083333	1	-0.021625
1.100000	1	-0.023000
1.116667	1	-0.024375
1.133333	1	-0.025875
1.150000	1	-0.027750
1.166667	1	-0.029750
1.183333	1	-0.030875
1.200000	1	-0.032250
1.216667	1	-0.033500
1.233333	1	-0.034625
1.250000	1	-0.035750
1.266667	1	-0.036750
1.283333	1	-0.038375
1.300000	1	-0.040250
1.316667	1	-0.041500
1.333333	1	-0.042500
1.350000	1	-0.043375
1.366667	1	-0.045125
1.383333	1	-0.046125
1.400000	1	-0.047000
1.416667	1	-0.048000
1.433333	1	-0.048875
1.450000	1	-0.049750
1.466667	1	-0.050250
1.483333	1	-0.050875
1.500000	1	-0.051750
1.516667	1	-0.052500
1.533333	1	-0.053500
1.550000	1	-0.054375
1.566667	1	-0.054750
1.583333	1	-0.055375
1.600000	1	-0.055125
1.616667	1	-0.055000
1.633333	1	-0.055625
1.650000	1	-0.055250
1.666667	1	-0.054750
1.683333	1	-0.054500
1.700000	1	-0.053875
1.716667	1	-0.053625
1.733333	1	-0.053500
1.750000	1	-0.053750
1.766667	1	-0.052750
1.783333	1	-0.051875
1.800000	1	-0.051000
1.816667	1	-0.050125
1.833333	1	-0.048750
1.850000	1	-0.048250
1.866667	1	-0.047250
1.883333	1	-0.046000
1.900000	1	-0.045000
1.916667	1	-0.044250
1.933333	1	-0.043500
1.950000	1	-0.042500
1.966667	1	-0.041375
1.983333	1	-0.040500
2.000000	1	-0.040625
2.016667	1	-0.039375
2.033333	1	-0.038875
2.050000	1	-0.037750
2.066667	1	-0.037375
2.083333	1	-0.037125
2.100000	1	-0.036500
2.116667	1	-0.036875
2.133333	1	-0.036500
2.150000	1	-0.036250
2.166667	1	-0.036375
2.183333	1	-0.035500
2.200000	1	-0.034875
2.216667	1	-0.034750
2.233333	1	-0.034375
2.250000	1	-0.033875
2.266667	1	-0.033875
2.283333	1	-0.033500
2.300000	1	-0.032750
2.316667	1	-0.032500
2.333333	1	-0.031625
2.350000	1	-0.031750
2.366667	1	-0.031375
2.383333	1	-0.031125
2.400000	1	-0.031250
2.416667	1	-0.030000
2.433333	1	-0.029750
2.450000	1	-0.028625
2.466667	1	-0.028125
2.483333	1	-0.028000
2.500000	1	-0.027000
2.516667	1	-0.026500
2.533333	1	-0.025375
2.550000	1	-0.024500
2.566667	1	-0.023875
2.583333	1	-0.023125
2.600000	1	-0.022625
2.616667	1	-0.022000
2.633333	1	-0.021375
2.650000	1	-0.021125
2.666667	1	-0.021500
2.683333	1	-0.021000
2.700000	1	-0.020750
2.716667	1	-0.020875
2.733333	1	-0.021000
2.750000	1	-0.020625
2.766667	1	-0.020750
2.783333	1	-0.020250
2.800000	1	-0.020750
2.816667	1	-0.020375
2.833333	1	-0.020625
2.850000	1	-0.020625
2.866667	1	-0.020125
2.883333	1	-0.020375
2.900000	1	-0.021125
2.916667	1	-0.021125
2.933333	1	-0.021875
2.950000	1	-0.022500
2.966667	1	-0.022875
2.983333	1	-0.022500
3.000000	1	-0.023125
3.016667	1	-0.022875
3.033333	1	-0.022625
3.050000	1	-0.023000
3.066667	1	-0.022750
3.083333	1	-0.023625
3.100000	1	-0.023750
3.116667	1	-0.024250
3.133333	1	-0.024375
3.150000	1	-0.024125
3.166667	1	-0.024750
3.183333	1	-0.025375
3.200000	1	-0.026000
3.216667	1	-0.026500
3.233333	1	-0.027000
3.250000	1	-0.027500
3.266667	1	-0.027625
3.283333	1	-0.027750
3.300000	1	-0.028250
3.316667	1	-0.029250
3.333333	1	-0.030125
3.350000	1	-0.031000
3.366667	1	-0.031750
3.383333	1	-0.032125
3.400000	1	-0.032375
3.416667	1	-0.032750
3.433333	1	-0.032750
3.450000	1	-0.033000
3.466667	1	-0.033500
3.483333	1	-0.034125
3.500000	1	-0.035000
3.516667	1	-0.035625
3.533333	1	-0.036750
3.550000	1	-0.036750
3.566667	1	-0.037000
3.583333	1	-0.038125
3.600000	1	-0.038625
3.616667	1	-0.038125
3.633333	1	-0.037625
3.650000	1	-0.038500
3.666667	1	-0.039375
3.683333	1	-0.039625
3.700000	1	-0.039500
3.716667	1	-0.040000
3.733333	1	-0.040000
3.750000	1	-0.040625
3.766667	1	-0.041000
3.783333	1	-0.042000
3.800000	1	-0.041625
3.816667	1	-0.042375
3.833333	1	-0.042250
3.850000	1	-0.042750
3.866667	1	-0.043750
3.883333	1	-0.045000
3.900000	1	-0.045750
3.916667	1	-0.046625
3.933333	1	-0.047500
3.950000	1	-0.048500
3.966667	1	-0.049000
3.983333	1	-0.049750
4.000000	1	-0.050125
4.016667	1	-0.050625
4.033333	1	-0.051250
4.050000	1	-0.051625
4.066667	1	-0.052500
4.083333	1	-0.052750
4.100000	1	-0.052875
4.116667	1	-0.052750
4.133333	1	-0.053125
4.150000	1	-0.053250
4.166667	1	-0.053375
4.183333	1	-0.053875
4.200000	1	-0.053125
4.216667	1	-0.052250
4.233333	1	-0.052000
4.250000	1	-0.051750
4.266667	1	-0.051375
4.283333	1	-0.051125
4.300000	1	-0.051125
4.316667	1	-0.050125
4.333333	1	-0.049250
4.350000	1	-0.048250
4.366667	1	-0.047250
4.383333	1	-0.046125
4.400000	1	-0.045125
4.416667	1	-0.044250
4.433333	1	-0.043000
4.450000	1	-0.041500
4.466667	1	-0.039750
4.483333	1	-0.038000
4.500000	1	-0.036375
4.516667	1	-0.035000
4.533333	1	-0.032875
4.550000	1	-0.030750
4.566667	1	-0.028500
4.583333	1	-0.026000
4.600000	1	-0.023500
4.616667	1	-0.021250
4.633333	1	-0.019250
4.650000	1	-0.017375
4.666667	1	-0.014250
4.683333	1	-0.012125
4.700000	1	-0.009625
4.716667	1	-0.007125
4.733333	1	-0.004375
4.750000	1	-0.001500
4.766667	1	0.001375
4.783333	1	0.004750
4.800000	1	0.007375
4.816667	1	0.010500
4.833333	1	0.013250
4.850000	1	0.016000
4.866667	1	0.019000
4.883333	1	0.022125
4.900000	1	0.025625
4.916667	1	0.029125
4.933333	1	0.032625
4.950000	1	0.036000
4.966667	1	0.039250
4.983333	1	0.042750
5.000000	1	0.046125
5.016667	1	0.049000
5.033333	1	0.052375
5.050000	1	0.056000
5.066667	1	0.058750
5.083333	1	0.061500
5.100000	1	0.063875
5.116667	1	0.067125
5.133333	1	0.069250
5.150000	1	0.071875
5.166667	1	0.074375
5.183333	1	0.076125
5.200000	1	0.078250
5.216667	1	0.079875
5.233333	1	0.080875
5.250000	1	0.081250
5.266667	1	0.082625
5.283333	1	0.083250
5.300000	1	0.084000
5.316667	1	0.084500
5.333333	1	0.084625
5.350000	1	0.084250
5.366667	1	0.084375
5.383333	1	0.084000
5.400000	1	0.083750
5.416667	1	0.083000
5.433333	1	0.081375
5.450000	1	0.080000
5.466667	1	0.078375
5.483333	1	0.076875
5.500000	1	0.075625
5.516667	1	0.074250
5.533333	1	0.072625
5.550000	1	0.070875
5.566667	1	0.068875
5.583333	1	0.067500
5.600000	1	0.065875
5.616667	1	0.064250
5.633333	1	0.062625
5.650000	1	0.060750
5.666667	1	0.058750
5.683333	1	0.057000
5.700000	1	0.055625
5.716667	1	0.055250
5.733333	1	0.054000
5.750000	1	0.052375
5.766667	1	0.051500
5.783333	1	0.051000
5.800000	1	0.050250
5.816667	1	0.049625
5.833333	1	0.049000
5.850000	1	0.048125
5.866667	1	0.047875
5.883333	1	0.047125
5.900000	1	0.046625
5.916667	1	0.046625
5.933333	1	0.047250
5.950000	1	0.047500
5.966667	1	0.047750
5.983333	1	0.048375
6.000000	1	0.049125
6.016667	1	0.049250
6.033333	1	0.050125
6.050000	1	0.050500
6.066667	1	0.051500
6.083333	1	0.052500
6.100000	1	0.053250
6.116667	1	0.053875
6.133333	1	0.055875
6.150000	1	0.057250
6.166667	1	0.058750
6.183333	1	0.060750
6.200000	1	0.061625
6.216667	1	0.063625
6.233333	1	0.065250
6.250000	1	0.067375
6.266667	1	0.069375
6.283333	1	0.071625
6.300000	1	0.073000
6.316667	1	0.075500
6.333333	1	0.077375
6.350000	1	0.079750
6.366667	1	0.082125
6.383333	1	0.083875
6.400000	1	0.086500
6.416667	1	0.089000
6.433333	1	0.091750
6.450000	1	0.093250
6.466667	1	0.095250
6.483333	1	0.096875
6.500000	1	0.098500
6.516667	1	0.099500
6.533333	1	0.100750
6.550000	1	0.101250
6.566667	1	0.102875
6.583333	1	0.104000
6.600000	1	0.105250
6.616667	1	0.106375
6.633333	1	0.106875
6.650000	1	0.107125
6.666667	1	0.106500
6.683333	1	0.106000
6.700000	1	0.105000
6.716667	1	0.104125
6.733333	1	0.103000
6.750000	1	0.102125
6.766667	1	0.100375
6.783333	1	0.098125
6.800000	1	0.096875
6.816667	1	0.094500
6.833333	1	0.092750
6.850000	1	0.090750
6.866667	1	0.088375
6.883333	1	0.085875
6.900000	1	0.083125
6.916667	1	0.080000
6.933333	1	0.077375
6.950000	1	0.074750
6.966667	1	0.071125
6.983333	1	0.068000
7.000000	1	0.064375
7.016667	1	0.061000
7.033333	1	0.057125
7.050000	1	0.053625
7.066667	1	0.050375
7.083333	1	0.046500
7.100000	1	0.043000
7.116667	1	0.039375
7.133333	1	0.035625
7.150000	1	0.032250
7.166667	1	0.028500
7.183333	1	0.026000
7.200000	1	0.022750
7.216667	1	0.019750
7.233333	1	0.017625
7.250000	1	0.014875
7.266667	1	0.012000
7.283333	1	0.008750
7.300000	1	0.006875
7.316667	1	0.004750
7.333333	1	0.002500
7.350000	1	0.000500
7.366667	1	-0.000125
7.383333	1	-0.001250
7.400000	1	-0.002875
7.416667	1	-0.004375
7.433333	1	-0.006250
7.450000	1	-0.007125
7.466667	1	-0.007625
7.483333	1	-0.008250
7.500000	1	-0.009000
7.516667	1	-0.009875
7.533333	1	-0.010250
7.550000	1	-0.011000
7.566667	1	-0.011125
7.583333	1	-0.011375
7.600000	1	-0.011875
7.616667	1	-0.012125
7.633333	1	-0.012000
7.650000	1	-0.011625
7.666667	1	-0.012250
7.683333	1	-0.012750
7.700000	1	-0.012125
7.716667	1	-0.012000
7.733333	1	-0.011500
7.750000	1	-0.011125
7.766667	1	-0.010125
7.783333	1	-0.009750
7.800000	1	-0.009250
7.816667	1	-0.008500
7.833333	1	-0.007750
7.850000	1	-0.006125
7.866667	1	-0.005250
7.883333	1	-0.004375
7.900000	1	-0.003250
7.916667	1	-0.002000
7.933333	1	-0.000125
7.950000	1	0.001250
7.966667	1	0.003125
7.983333	1	0.005125
8.000000	1	0.006875
8.016667	1	0.008375
8.033333	1	0.010125
8.050000	1	0.012125
8.066667	1	0.014375
8.083333	1	0.016750
8.100000	1	0.018875
8.116667	1	0.021125
8.133333	1	0.023500
8.150000	1	0.025500
8.166667	1	0.027500
8.183333	1	0.030000
8.200000	1	0.031750
8.216667	1	0.033625
8.233333	1	0.035500
8.250000	1	0.036375
8.266667	1	0.038250
8.283333	1	0.040625
8.300000	1	0.042375
8.316667	1	0.043750
8.333333	1	0.045500
8.350000	1	0.047500
8.366667	1	0.049000
8.383333	1	0.050875
8.400000	1	0.052875
8.416667	1	0.053875
8.433333	1	0.055375
8.450000	1	0.057250
8.466667	1	0.059000
8.483333	1	0.060875
8.500000	1	0.062875
8.516667	1	0.064875
8.533333	1	0.066625
8.550000	1	0.068500
8.566667	1	0.070375
8.583333	1	0.072375
8.600000	1	0.073875
8.616667	1	0.075250
8.633333	1	0.076750
8.650000	1	0.078000
8.666667	1	0.079625
8.683333	1	0.081500
8.700000	1	0.082000
8.716667	1	0.082875
8.733333	1	0.084000
8.750000	1	0.084500
8.766667	1	0.085250
8.783333	1	0.085750
8.800000	1	0.086750
8.816667	1	0.087875
8.833333	1	0.088750
8.850000	1	0.088875
8.866667	1	0.088875
8.883333	1	0.088875
8.900000	1	0.089125
8.916667	1	0.089250
8.933333	1	0.088500
8.950000	1	0.087875
8.966667	1	0.087250
8.983333	1	0.086875
9.000000	1	0.087125
9.016667	1	0.086250
9.033333	1	0.085250
9.050000	1	0.084125
9.066667	1	0.083250
9.083333	1	0.082625
9.100000	1	0.081875
9.116667	1	0.081500
9.133333	1	0.080875
9.150000	1	0.080000
9.166667	1	0.079750
9.183333	1	0.078875
9.200000	1	0.077625
9.216667	1	0.076250
9.233333	1	0.075500
9.250000	1	0.075000
9.266667	1	0.074375
9.283333	1	0.073875
9.300000	1	0.073375
9.316667	1	0.073500
9.333333	1	0.073250
9.350000	1	0.073500
9.366667	1	0.073500
9.383333	1	0.073375
9.400000	1	0.073750
9.416667	1	0.074250
9.433333	1	0.075125
9.450000	1	0.076875
9.466667	1	0.080000
9.483333	1	0.082875
9.500000	1	0.086625
9.516667	1	0.091250
9.533333	1	0.097875
9.550000	1	0.104750
9.566667	1	0.112000
9.583333	1	0.120125
9.600000	1	0.131125
9.616667	1	0.142500
9.633333	1	0.155875
9.650000	1	0.170625
9.666667	1	0.187000
9.683333	1	0.207000
9.700000	1	0.227625
9.716667	1	0.250500
9.733333	1	0.274625
9.750000	1	0.299375
9.766667	1	0.322875
9.783333	1	0.344750
9.800000	1	0.362875
9.816667	1	0.377875
9.833333	1	0.387500
9.850000	1	0.390000
9.866667	1	0.383000
9.883333	1	0.363250
9.900000	1	0.331625
9.916667	1	0.294625
9.933333	1	0.273375
9.950000	1	0.305250
9.966667	1	0.443625
9.983333	1	0.753500
10.000000	1	1.299125
10.016667	1	2.139250
10.033333	1	3.321750
10.050000	1	4.877750
10.066667	1	6.824625
10.083333	1	9.168375
10.100000	1	11.897625
10.116667	1	14.990125
10.133333	1	18.404750
10.150000	1	22.081500
10.166667	1	25.939625
10.183333	1	29.870375
10.200000	1	33.737500
10.216667	1	37.376625
10.233333	1	40.599875
10.250000	1	43.210250
10.266667	1	45.031500
10.283333	1	45.935125
10.300000	1	45.863500
10.316667	1	44.845875
10.333333	1	42.993625
10.350000	1	40.477750
10.366667	1	37.505000
10.383333	1	34.285000
10.400000	1	31.001500
10.416667	1	27.800875
10.433333	1	24.787875
10.450000	1	22.027250
10.466667	1	19.545125
10.483333	1	17.344000
10.500000	1	15.408625
10.516667	1	13.717375
10.533333	1	12.241625
10.550000	1	10.955125
10.566667	1	9.830375
10.583333	1	8.844750
10.600000	1	7.977500
10.616667	1	7.212875
10.633333	1	6.538250
10.650000	1	5.943375
10.666667	1	5.418625
10.683333	1	4.956125
10.700000	1	4.549000
10.716667	1	4.190125
10.733333	1	3.874750
10.750000	1	3.596000
10.766667	1	3.350125
10.783333	1	3.131500
10.800000	1	2.936875
10.816667	1	2.761875
10.833333	1	2.605125
10.850000	1	2.463750
10.866667	1	2.336000
10.883333	1	2.219625
10.900000	1	2.114125
10.916667	1	2.017500
10.933333	1	1.929125
10.950000	1	1.847875
10.966667	1	1.773750
10.983333	1	1.705625
11.000000	1	1.642375
11.016667	1	1.585500
11.033333	1	1.532750
11.050000	1	1.484625
11.066667	1	1.440125
11.083333	1	1.399375
11.100000	1	1.361125
11.116667	1	1.325875
11.133333	1	1.293125
11.150000	1	1.263250
11.166667	1	1.234875
11.183333	1	1.208500
11.200000	1	1.184125
11.216667	1	1.161250
11.233333	1	1.140000
11.250000	1	1.119750
11.266667	1	1.101125
11.283333	1	1.083500
11.300000	1	1.066750
11.316667	1	1.051625
11.333333	1	1.036875
11.350000	1	1.023000
11.366667	1	1.010125
11.383333	1	0.998125
11.400000	1	0.987750
11.416667	1	0.977500
11.433333	1	0.968125
11.450000	1	0.960250
11.466667	1	0.954125
11.483333	1	0.948750
11.500000	1	0.944750
11.516667	1	0.942500
11.533333	1	0.940625
11.550000	1	0.938625
11.566667	1	0.938375
11.583333	1	0.938875
11.600000	1	0.940500
11.616667	1	0.942375
11.633333	1	0.943625
11.650000	1	0.946000
11.666667	1	0.949000
11.683333	1	0.951250
11.700000	1	0.953375
11.716667	1	0.955000
11.733333	1	0.955875
11.750000	1	0.956875
11.766667	1	0.958250
11.783333	1	0.959250
11.800000	1	0.960625
11.816667	1	0.962000
11.833333	1	0.964375
11.850000	1	0.967750
11.866667	1	0.971250
11.883333	1	0.976750
11.900000	1	0.982875
11.916667	1	0.991500
11.933333	1	1.001750
11.950000	1	1.013750
11.966667	1	1.028250
11.983333	1	1.045250
12.000000	1	1.065250
12.016667	1	1.087000
12.033333	1	1.113125
12.050000	1	1.142375
12.066667	1	1.175375
12.083333	1	1.213875
12.100000	1	1.258500
12.116667	1	1.311250
12.133333	1	1.374500
12.150000	1	1.449625
12.166667	1	1.540500
12.183333	1	1.648875
12.200000	1	1.777125
12.216667	1	1.926500
12.233333	1	2.099375
12.250000	1	2.296625
12.266667	1	2.521000
12.283333	1	2.773500
12.300000	1	3.055875
12.316667	1	3.370125
12.333333	1	3.719125
12.350000	1	4.106125
12.366667	1	4.534000
12.383333	1	5.004375
12.400000	1	5.519500
12.416667	1	6.077250
12.433333	1	6.674250
12.450000	1	7.303625
12.466667	1	7.954500
12.483333	1	8.611250
12.500000	1	9.253000
12.516667	1	9.858000
12.533333	1	10.401875
12.550000	1	10.863875
12.566667	1	11.229375
12.583333	1	11.491875
12.600000	1	11.652500
12.616667	1	11.718875
12.633333	1	11.704250
12.650000	1	11.621250
12.666667	1	11.482375
12.683333	1	11.301250
12.700000	1	11.089750
12.716667	1	10.855750
12.733333	1	10.607375
12.750000	1	10.352250
12.766667	1	10.093500
12.783333	1	9.836750
12.800000	1	9.584125
12.816667	1	9.338000
12.833333	1	9.098750
12.850000	1	8.868250
12.866667	1	8.645625
12.883333	1	8.430875
12.900000	1	8.222750
12.916667	1	8.020500
12.933333	1	7.823875
12.950000	1	7.630250
12.966667	1	7.438500
12.983333	1	7.247125
13.000000	1	7.055250
13.016667	1	6.861375
13.033333	1	6.663875
13.050000	1	6.462500
13.066667	1	6.252625
13.083333	1	6.034750
13.100000	1	5.805625
13.116667	1	5.564125
13.133333	1	5.307625
13.150000	1	5.033000
13.166667	1	4.738250
13.183333	1	4.421375
13.200000	1	4.081500
13.216667	1	3.720125
13.233333	1	3.344000
13.250000	1	2.966125
13.266667	1	2.607125
13.283333	1	2.284750
13.300000	1	2.011000
13.316667	1	1.788000
13.333333	1	1.609625
13.350000	1	1.468375
13.366667	1	1.355875
13.383333	1	1.264375
13.400000	1	1.190375
13.416667	1	1.128375
13.433333	1	1.076250
13.450000	1	1.032250
13.466667	1	0.994625
13.483333	1	0.961875
13.500000	1	0.933625
13.516667	1	0.909625
13.533333	1	0.889250
13.550000	1	0.872250
13.566667	1	0.858000
13.583333	1	0.846500
13.600000	1	0.838125
13.616667	1	0.831875
13.633333	1	0.827000
13.650000	1	0.823125
13.666667	1	0.820125
13.683333	1	0.817500
13.700000	1	0.815000
13.716667	1	0.811125
13.733333	1	0.806500
13.750000	1	0.801125
13.766667	1	0.794500
13.783333	1	0.786250
13.800000	1	0.776625
13.816667	1	0.765875
13.833333	1	0.753375
13.850000	1	0.741375
13.866667	1	0.727125
13.883333	1	0.713750
13.900000	1	0.699000
13.916667	1	0.683875
13.933333	1	0.669125
13.950000	1	0.654875
13.966667	1	0.641000
13.983333	1	0.627875
14.000000	1	0.615375
14.016667	1	0.603250
14.033333	1	0.592750
14.050000	1	0.582500
14.066667	1	0.573875
14.083333	1	0.566750
14.100000	1	0.560625
14.116667	1	0.555500
14.133333	1	0.552750
14.150000	1	0.550125
14.166667	1	0.550000
14.183333	1	0.551625
14.200000	1	0.555625
14.216667	1	0.562375
14.233333	1	0.571125
14.250000	1	0.584250
14.266667	1	0.601625
14.283333	1	0.622875
14.300000	1	0.650250
14.316667	1	0.684375
14.333333	1	0.726375
14.350000	1	0.777500
14.366667	1	0.839625
14.383333	1	0.913375
14.400000	1	1.001125
14.416667	1	1.103875
14.433333	1	1.223625
14.450000	1	1.362625
14.466667	1	1.523500
14.483333	1	1.708625
14.500000	1	1.920625
14.516667	1	2.164000
14.533333	1	2.443250
14.550000	1	2.763500
14.566667	1	3.131500
14.583333	1	3.557375
14.600000	1	4.053750
14.616667	1	4.637875
14.633333	1	5.331375
14.650000	1	6.160875
14.666667	1	7.158250
14.683333	1	8.360750
14.700000	1	9.806500
14.716667	1	11.536500
14.733333	1	13.585500
14.750000	1	15.982000
14.766667	1	18.741375
14.783333	1	21.857250
14.800000	1	25.304625
14.816667	1	29.033500
14.833333	1	32.970500
14.850000	1	37.016000
14.866667	1	41.049375
14.883333	1	44.937250
14.900000	1	48.539375
14.916667	1	51.722625
14.933333	1	54.372750
14.950000	1	56.398750
14.966667	1	57.742875
14.983333	1	58.378000
15.000000	1	58.313625
15.016667	1	57.584250
15.033333	1	56.248875
15.050000	1	54.383125
15.066667	1	52.076500
15.083333	1	49.423000
15.100000	1	46.521000
15.116667	1	43.463250
15.133333	1	40.330375
15.150000	1	37.193250
15.166667	1	34.112125
15.183333	1	31.137875
15.200000	1	28.301750
15.216667	1	25.628375
15.233333	1	23.131750
15.250000	1	20.818750
15.266667	1	18.693000
15.283333	1	16.750500
15.300000	1	14.987250
15.316667	1	13.395000
15.333333	1	11.965000
15.350000	1	10.685125
15.366667	1	9.544125
15.383333	1	8.532250
15.400000	1	7.636625
15.416667	1	6.846125
15.433333	1	6.149625
15.450000	1	5.539250
15.466667	1	5.006125
15.483333	1	4.541750
15.500000	1	4.139875
15.516667	1	3.792625
15.533333	1	3.493625
15.550000	1	3.237000
15.566667	1	3.018125
15.583333	1	2.830625
15.600000	1	2.670125
15.616667	1	2.531875
15.633333	1	2.411625
15.650000	1	2.305625
15.666667	1	2.211750
15.683333	1	2.126625
15.700000	1	2.047625
15.716667	1	1.973125
15.733333	1	1.902625
15.750000	1	1.835125
15.766667	1	1.769250
15.783333	1	1.707125
15.800000	1	1.647750
15.816667	1	1.588875
15.833333	1	1.533250
15.850000	1	1.480375
15.866667	1	1.430125
15.883333	1	1.382250
15.900000	1	1.337250
15.916667	1	1.295750
15.933333	1	1.256625
15.950000	1	1.220500
15.966667	1	1.186625
15.983333	1	1.155750
16.000000	1	1.126875
16.016667	1	1.101500
16.033333	1	1.078375
16.050000	1	1.058125
16.066667	1	1.040000
16.083333	1	1.024750
16.100000	1	1.011875
16.116667	1	1.001000
16.133333	1	0.992000
16.150000	1	0.984750
16.166667	1	0.979500
16.183333	1	0.975125
16.200000	1	0.971500
16.216667	1	0.967750
16.233333	1	0.964500
16.250000	1	0.960625
16.266667	1	0.956625
16.283333	1	0.951250
16.300000	1	0.945375
16.316667	1	0.938875
16.333333	1	0.931750
16.350000	1	0.923625
16.366667	1	0.914875
16.383333	1	0.906000
16.400000	1	0.897000
16.416667	1	0.889125
16.433333	1	0.879875
16.450000	1	0.871250
16.466667	1	0.863625
16.483333	1	0.856375
16.500000	1	0.850250
16.516667	1	0.845125
16.533333	1	0.840750
16.550000	1	0.837625
16.566667	1	0.834875
16.583333	1	0.833750
16.600000	1	0.833875
16.616667	1	0.834625
16.633333	1	0.836375
16.650000	1	0.838625
16.666667	1	0.841875
16.683333	1	0.845125
16.700000	1	0.849625
16.716667	1	0.854625
16.733333	1	0.859625
16.750000	1	0.864750
16.766667	1	0.870500
16.783333	1	0.875125
16.800000	1	0.879625
16.816667	1	0.883375
16.833333	1	0.886250
16.850000	1	0.887875
16.866667	1	0.889000
16.883333	1	0.889000
16.900000	1	0.889125
16.916667	1	0.889250
16.933333	1	0.888625
16.950000	1	0.888250
16.966667	1	0.887750
16.983333	1	0.887750
17.000000	1	0.887625
17.016667	1	0.888500
17.033333	1	0.889375
17.050000	1	0.890875
17.066667	1	0.892375
17.083333	1	0.893625
17.100000	1	0.894500
17.116667	1	0.895375
17.133333	1	0.895625
17.150000	1	0.894250
17.166667	1	0.891375
17.183333	1	0.887250
17.200000	1	0.881750
17.216667	1	0.876250
17.233333	1	0.869750
17.250000	1	0.862250
17.266667	1	0.853125
17.283333	1	0.843625
17.300000	1	0.832500
17.316667	1	0.822250
17.333333	1	0.812000
17.350000	1	0.802250
17.366667	1	0.791750
17.383333	1	0.783000
17.400000	1	0.774875
17.416667	1	0.766750
17.433333	1	0.759625
17.450000	1	0.753500
17.466667	1	0.749000
17.483333	1	0.745625
17.500000	1	0.743375
17.516667	1	0.743375
17.533333	1	0.744875
17.550000	1	0.748000
17.566667	1	0.752375
17.583333	1	0.758625
17.600000	1	0.767250
17.616667	1	0.776875
17.633333	1	0.787750
17.650000	1	0.800000
17.666667	1	0.813375
17.683333	1	0.827125
17.700000	1	0.843125
17.716667	1	0.860000
17.733333	1	0.876625
17.750000	1	0.892875
17.766667	1	0.909500
17.783333	1	0.925375
17.800000	1	0.940375
17.816667	1	0.953875
17.833333	1	0.965875
17.850000	1	0.976250
17.866667	1	0.985000
17.883333	1	0.992250
17.900000	1	0.997125
17.916667	1	0.998625
17.933333	1	0.999250
17.950000	1	0.996875
17.966667	1	0.993250
17.983333	1	0.987625
18.000000	1	0.980375
18.016667	1	0.970875
18.033333	1	0.959750
18.050000	1	0.947125
18.066667	1	0.934375
18.083333	1	0.920500
18.100000	1	0.906750
18.116667	1	0.892500
18.133333	1	0.878250
18.150000	1	0.863750
18.166667	1	0.849625
18.183333	1	0.836000
18.200000	1	0.822875
18.216667	1	0.811125
18.233333	1	0.799000
18.250000	1	0.787250
18.266667	1	0.777250
18.283333	1	0.767375
18.300000	1	0.759125
18.316667	1	0.752250
18.333333	1	0.746000
18.350000	1	0.740500
18.366667	1	0.736250
18.383333	1	0.732750
18.400000	1	0.730250
18.416667	1	0.728750
18.433333	1	0.727750
18.450000	1	0.727500
18.466667	1	0.727000
18.483333	1	0.726500
18.500000	1	0.727125
18.516667	1	0.727875
18.533333	1	0.729750
18.550000	1	0.730875
18.566667	1	0.733000
18.583333	1	0.734625
18.600000	1	0.736875
18.616667	1	0.739625
18.633333	1	0.742500
18.650000	1	0.746125
18.666667	1	0.749750
18.683333	1	0.753625
18.700000	1	0.758500
18.716667	1	0.763125
18.733333	1	0.768750
18.750000	1	0.775500
18.766667	1	0.782625
18.783333	1	0.789625
18.800000	1	0.797250
18.816667	1	0.805750
18.833333	1	0.815625
18.850000	1	0.825625
18.866667	1	0.836625
18.883333	1	0.848250
18.900000	1	0.861750
18.916667	1	0.876250
18.933333	1	0.893000
18.950000	1	0.911500
18.966667	1	0.932625
18.983333	1	0.956250
19.000000	1	0.982125
19.016667	1	1.010625
19.033333	1	1.041750
19.050000	1	1.076000
19.066667	1	1.113000
19.083333	1	1.152000
19.100000	1	1.191250
19.116667	1	1.231625
19.133333	1	1.272125
19.150000	1	1.311750
19.166667	1	1.350250
19.183333	1	1.385750
19.200000	1	1.418500
19.216667	1	1.446625
19.233333	1	1.469875
19.250000	1	1.487875
19.266667	1	1.499250
19.283333	1	1.505125
19.300000	1	1.504250
19.316667	1	1.497500
19.333333	1	1.484000
19.350000	1	1.465000
19.366667	1	1.439875
19.383333	1	1.409875
19.400000	1	1.375500
19.416667	1	1.337875
19.433333	1	1.297500
19.450000	1	1.255000
19.466667	1	1.211250
19.483333	1	1.166375
19.500000	1	1.121625
19.516667	1	1.077625
19.533333	1	1.034125
19.550000	1	0.992625
19.566667	1	0.953000
19.583333	1	0.914875
19.600000	1	0.880000
19.616667	1	0.847500
19.633333	1	0.817750
19.650000	1	0.791000
19.666667	1	0.767875
19.683333	1	0.748625
19.700000	1	0.731750
19.716667	1	0.719125
19.733333	1	0.710375
19.750000	1	0.705500
19.766667	1	0.704375
19.783333	1	0.706875
19.800000	1	0.713875
19.816667	1	0.724250
19.833333	1	0.737625
19.850000	1	0.753500
19.866667	1	0.772375
19.883333	1	0.793750
19.900000	1	0.817375
19.916667	1	0.842500
19.933333	1	0.868625
19.950000	1	0.895250
19.966667	1	0.921625
19.983333	1	0.946750
20.000000	1	0.971125
20.016667	1	0.994750
20.033333	1	1.017000
20.050000	1	1.037750
20.066667	1	1.058375
20.083333	1	1.078375
20.100000	1	1.097250
20.116667	1	1.116250
20.133333	1	1.135375
20.150000	1	1.155875
20.166667	1	1.178625
20.183333	1	1.203500
20.200000	1	1.232250
20.216667	1	1.265375
20.233333	1	1.304000
20.250000	1	1.348875
20.266667	1	1.401250
20.283333	1	1.461000
20.300000	1	1.528750
20.316667	1	1.604000
20.333333	1	1.687375
20.350000	1	1.776125
20.366667	1	1.870375
20.383333	1	1.968250
20.400000	1	2.068250
20.416667	1	2.167750
20.433333	1	2.263875
20.450000	1	2.355500
20.466667	1	2.439250
20.483333	1	2.513000
20.500000	1	2.574875
20.516667	1	2.624500
20.533333	1	2.659375
20.550000	1	2.680375
20.566667	1	2.687125
20.583333	1	2.680125
20.600000	1	2.661250
20.616667	1	2.632000
20.633333	1	2.594000
20.650000	1	2.550375
20.666667	1	2.501250
20.683333	1	2.451625
20.700000	1	2.402500
20.716667	1	2.357500
20.733333	1	2.316375
20.750000	1	2.282000
20.766667	1	2.256250
20.783333	1	2.237875
20.800000	1	2.227625
20.816667	1	2.224625
20.833333	1	2.228125
20.850000	1	2.237250
20.866667	1	2.248750
20.883333	1	2.261125
20.900000	1	2.273000
20.916667	1	2.282000
20.933333	1	2.285750
20.950000	1	2.282625
20.966667	1	2.270000
20.983333	1	2.248125
21.000000	1	2.216500
21.016667	1	2.174375
21.033333	1	2.122375
21.050000	1	2.061000
21.066667	1	1.992750
21.083333	1	1.917250
21.100000	1	1.836250
21.116667	1	1.752000
21.133333	1	1.664500
21.150000	1	1.576875
21.166667	1	1.488750
21.183333	1	1.401875
21.200000	1	1.317125
21.216667	1	1.236625
21.233333	1	1.159250
21.250000	1	1.086125
21.266667	1	1.017750
21.283333	1	0.953750
21.300000	1	0.894750
21.316667	1	0.841125
21.333333	1	0.790750
21.350000	1	0.747000
21.366667	1	0.706750
21.383333	1	0.670375
21.400000	1	0.637375
21.416667	1	0.607500
21.433333	1	0.582000
21.450000	1	0.559000
21.466667	1	0.538375
21.483333	1	0.519875
21.500000	1	0.504000
21.516667	1	0.490125
21.533333	1	0.477750
21.550000	1	0.467375
21.566667	1	0.457625
21.583333	1	0.449000
21.600000	1	0.442000
21.616667	1	0.435625
21.633333	1	0.429875
21.650000	1	0.425375
21.666667	1	0.421625
21.683333	1	0.418750
21.700000	1	0.416375
21.716667	1	0.415125
21.733333	1	0.414375
21.750000	1	0.415000
21.766667	1	0.416875
21.783333	1	0.419875
21.800000	1	0.422875
21.816667	1	0.427375
21.833333	1	0.432750
21.850000	1	0.439375
21.866667	1	0.446250
21.883333	1	0.454500
21.900000	1	0.462750
21.916667	1	0.471750
21.933333	1	0.480500
21.950000	1	0.490125
21.966667	1	0.498750
21.983333	1	0.507375
22.000000	1	0.514500
22.016667	1	0.521500
22.033333	1	0.528000
22.050000	1	0.532375
22.066667	1	0.535125
22.083333	1	0.537000
22.100000	1	0.537625
22.116667	1	0.538000
22.133333	1	0.536250
22.150000	1	0.533625
22.166667	1	0.530000
22.183333	1	0.525250
22.200000	1	0.520125
22.216667	1	0.514625
22.233333	1	0.509250
22.250000	1	0.503375
22.266667	1	0.498000
22.283333	1	0.492500
22.300000	1	0.487750
22.316667	1	0.483375
22.333333	1	0.479625
22.350000	1	0.476375
22.366667	1	0.473750
22.383333	1	0.472500
22.400000	1	0.471875
22.416667	1	0.471875
22.433333	1	0.472250
22.450000	1	0.473000
22.466667	1	0.475000
22.483333	1	0.477750
22.500000	1	0.480375
22.516667	1	0.484375
22.533333	1	0.487875
22.550000	1	0.491500
22.566667	1	0.495375
22.583333	1	0.499000
22.600000	1	0.502625
22.616667	1	0.507000
22.633333	1	0.510250
22.650000	1	0.512375
22.666667	1	0.515250
22.683333	1	0.517500
22.700000	1	0.519000
22.716667	1	0.520250
22.733333	1	0.521500
22.750000	1	0.521500
22.766667	1	0.520750
22.783333	1	0.519625
22.800000	1	0.517500
22.816667	1	0.515500
22.833333	1	0.512750
22.850000	1	0.509250
22.866667	1	0.505125
22.883333	1	0.500250
22.900000	1	0.495625
22.916667	1	0.490875
22.933333	1	0.486125
22.950000	1	0.480625
22.966667	1	0.475375
22.983333	1	0.470250
23.000000	1	0.464875
23.016667	1	0.459875
23.033333	1	0.455625
23.050000	1	0.452125
23.066667	1	0.449250
23.083333	1	0.446750
23.100000	1	0.445375
23.116667	1	0.445500
23.133333	1	0.447000
23.150000	1	0.449500
23.166667	1	0.453000
23.183333	1	0.456875
23.200000	1	0.463125
23.216667	1	0.470625
23.233333	1	0.480000
23.250000	1	0.491625
23.266667	1	0.505000
23.283333	1	0.519750
23.300000	1	0.536625
23.316667	1	0.555875
23.333333	1	0.578375
23.350000	1	0.602250
23.366667	1	0.629875
23.383333	1	0.660125
23.400000	1	0.694250
23.416667	1	0.731875
23.433333	1	0.774125
23.450000	1	0.822000
23.466667	1	0.875250
23.483333	1	0.934625
23.500000	1	1.001625
23.516667	1	1.076250
23.533333	1	1.160875
23.550000	1	1.255875
23.566667	1	1.362625
23.583333	1	1.482125
23.600000	1	1.615875
23.616667	1	1.765500
23.633333	1	1.930000
23.650000	1	2.112000
23.666667	1	2.309500
23.683333	1	2.523000
23.700000	1	2.752250
23.716667	1	2.994250
23.733333	1	3.249750
23.750000	1	3.513375
23.766667	1	3.783500
23.783333	1	4.053875
23.800000	1	4.321375
23.816667	1	4.581375
23.833333	1	4.829875
23.850000	1	5.060250
23.866667	1	5.268375
23.883333	1	5.451500
23.900000	1	5.604625
23.916667	1	5.724875
23.933333	1	5.811000
23.950000	1	5.859750
23.966667	1	5.872250
23.983333	1	5.848000
24.000000	1	5.789500
24.016667	1	5.696625
24.033333	1	5.574000
24.050000	1	5.424625
24.066667	1	5.250875
24.083333	1	5.057000
24.100000	1	4.847000
24.116667	1	4.625000
24.133333	1	4.395375
24.150000	1	4.160500
24.166667	1	3.923500
24.183333	1	3.688625
24.200000	1	3.458375
24.216667	1	3.235000
24.233333	1	3.019750
24.250000	1	2.814375
24.266667	1	2.620375
24.283333	1	2.438125
24.300000	1	2.267500
24.316667	1	2.108875
24.333333	1	1.962375
24.350000	1	1.827500
24.366667	1	1.704750
24.383333	1	1.592625
24.400000	1	1.490625
24.416667	1	1.398750
24.433333	1	1.314625
24.450000	1	1.238375
24.466667	1	1.169625
24.483333	1	1.106875
24.500000	1	1.049500
24.516667	1	0.997375
24.533333	1	0.949875
24.550000	1	0.905500
24.566667	1	0.864250
24.583333	1	0.825250
24.600000	1	0.788875
24.616667	1	0.755125
24.633333	1	0.723000
24.650000	1	0.691750
24.666667	1	0.663000
24.683333	1	0.635625
24.700000	1	0.608375
24.716667	1	0.582875
24.733333	1	0.557625
24.750000	1	0.533750
24.766667	1	0.510875
24.783333	1	0.488875
24.800000	1	0.467875
24.816667	1	0.448375
24.833333	1	0.429250
24.850000	1	0.411875
24.866667	1	0.394625
24.883333	1	0.378625
24.900000	1	0.364750
24.916667	1	0.351375
24.933333	1	0.338625
24.950000	1	0.327625
24.966667	1	0.317500
24.983333	1	0.308625
25.000000	1	0.300500
25.016667	1	0.293000
25.033333	1	0.286625
25.050000	1	0.281875
25.066667	1	0.277625
25.083333	1	0.273750
25.100000	1	0.271000
25.116667	1	0.268875
25.133333	1	0.267375
25.150000	1	0.266250
25.166667	1	0.265875
25.183333	1	0.266625
25.200000	1	0.267625
25.216667	1	0.268750
25.233333	1	0.270125
25.250000	1	0.272625
25.266667	1	0.275375
25.283333	1	0.278000
25.300000	1	0.280625
25.316667	1	0.283750
25.333333	1	0.287000
25.350000	1	0.290000
25.366667	1	0.292875
25.383333	1	0.296500
25.400000	1	0.299250
25.416667	1	0.302625
25.433333	1	0.305375
25.450000	1	0.308625
25.466667	1	0.311875
25.483333	1	0.314625
25.500000	1	0.317125
25.516667	1	0.318875
25.533333	1	0.320500
25.550000	1	0.322250
25.566667	1	0.323125
25.583333	1	0.323375
25.600000	1	0.324125
25.616667	1	0.325000
25.633333	1	0.325250
25.650000	1	0.324750
25.666667	1	0.324625
25.683333	1	0.324375
25.700000	1	0.323625
25.716667	1	0.321625
25.733333	1	0.320250
25.750000	1	0.317750
25.766667	1	0.315500
25.783333	1	0.312625
25.800000	1	0.310000
25.816667	1	0.306500
25.833333	1	0.303500
25.850000	1	0.299875
25.866667	1	0.295250
25.883333	1	0.290500
25.900000	1	0.285875
25.916667	1	0.280750
25.933333	1	0.274500
25.950000	1	0.268125
25.966667	1	0.262000
25.983333	1	0.255125
26.000000	1	0.248125
26.016667	1	0.241500
26.033333	1	0.234375
26.050000	1	0.227375
26.066667	1	0.220750
26.083333	1	0.213125
26.100000	1	0.206750
26.116667	1	0.200750
26.133333	1	0.194375
26.150000	1	0.188750
26.166667	1	0.182875
26.183333	1	0.178750
26.200000	1	0.175250
26.216667	1	0.172375
26.233333	1	0.169250
26.250000	1	0.167250
26.266667	1	0.165750
26.283333	1	0.164375
26.300000	1	0.164000
26.316667	1	0.164250
26.333333	1	0.164625
26.350000	1	0.165750
26.366667	1	0.166625
26.383333	1	0.167500
26.400000	1	0.169000
26.416667	1	0.170500
26.433333	1	0.172125
26.450000	1	0.173625
26.466667	1	0.175250
26.483333	1	0.176000
26.500000	1	0.177375
26.516667	1	0.178250
26.533333	1	0.179375
26.550000	1	0.179625
26.566667	1	0.179375
26.583333	1	0.179875
26.600000	1	0.179000
26.616667	1	0.178500
26.633333	1	0.177375
26.650000	1	0.176625
26.666667	1	0.177500
26.683333	1	0.176625
26.700000	1	0.176125
26.716667	1	0.175375
26.733333	1	0.175125
26.750000	1	0.175625
26.766667	1	0.175125
26.783333	1	0.175000
26.800000	1	0.175875
26.816667	1	0.176750
26.833333	1	0.178250
26.850000	1	0.180375
26.866667	1	0.182500
26.883333	1	0.185250
26.900000	1	0.187500
26.916667	1	0.191250
26.933333	1	0.194125
26.950000	1	0.198250
26.966667	1	0.202750
26.983333	1	0.207250
27.000000	1	0.212625
27.016667	1	0.218250
27.033333	1	0.224250
27.050000	1	0.230875
27.066667	1	0.237625
27.083333	1	0.245500
27.100000	1	0.254000
27.116667	1	0.263125
27.133333	1	0.272875
27.150000	1	0.283125
27.166667	1	0.293625
27.183333	1	0.305375
27.200000	1	0.317500
27.216667	1	0.331250
27.233333	1	0.345000
27.250000	1	0.359375
27.266667	1	0.375000
27.283333	1	0.391500
27.300000	1	0.409500
27.316667	1	0.427375
27.333333	1	0.447375
27.350000	1	0.468125
27.366667	1	0.490750
27.383333	1	0.515375
27.400000	1	0.542125
27.416667	1	0.569750
27.433333	1	0.599875
27.450000	1	0.631875
27.466667	1	0.667625
27.483333	1	0.706625
27.500000	1	0.749375
27.516667	1	0.796125
27.533333	1	0.847125
27.550000	1	0.903750
27.566667	1	0.965625
27.583333	1	1.034375
27.600000	1	1.108125
27.616667	1	1.189500
27.633333	1	1.277875
27.650000	1	1.373375
27.666667	1	1.476750
27.683333	1	1.588000
27.700000	1	1.706625
27.716667	1	1.831500
27.733333	1	1.963500
27.750000	1	2.100000
27.766667	1	2.241750
27.783333	1	2.387000
27.800000	1	2.534375
27.816667	1	2.682625
27.833333	1	2.829250
27.850000	1	2.973625
27.866667	1	3.113625
27.883333	1	3.247000
27.900000	1	3.371375
27.916667	1	3.485500
27.933333	1	3.587000
27.950000	1	3.674625
27.966667	1	3.746875
27.983333	1	3.802625
28.000000	1	3.840500
28.016667	1	3.859375
28.033333	1	3.859500
28.050000	1	3.841000
28.066667	1	3.803500
28.083333	1	3.747875
28.100000	1	3.674500
28.116667	1	3.585375
28.133333	1	3.481500
28.150000	1	3.364625
28.166667	1	3.236000
28.183333	1	3.098625
28.200000	1	2.953125
28.216667	1	2.802125
28.233333	1	2.647000
28.250000	1	2.490125
28.266667	1	2.332375
28.283333	1	2.175500
28.300000	1	2.021125
28.316667	1	1.870625
28.333333	1	1.724375
28.350000	1	1.583875
28.366667	1	1.449500
28.383333	1	1.321750
28.400000	1	1.201125
28.416667	1	1.086000
28.433333	1	0.978500
28.450000	1	0.877000
28.466667	1	0.782500
28.483333	1	0.693125
28.500000	1	0.609125
28.516667	1	0.531000
28.533333	1	0.457750
28.550000	1	0.388500
28.566667	1	0.323625
28.583333	1	0.261875
28.600000	1	0.203500
28.616667	1	0.148375
28.633333	1	0.096250
28.650000	1	0.046250
28.666667	1	-0.001125
28.683333	1	-0.046750
28.700000	1	-0.090625
28.716667	1	-0.131625
28.733333	1	-0.170375
28.750000	1	-0.207000
28.766667	1	-0.241375
28.783333	1	-0.273500
28.800000	1	-0.302750
28.816667	1	-0.329875
28.833333	1	-0.354000
28.850000	1	-0.375625
28.866667	1	-0.394125
28.883333	1	-0.409750
28.900000	1	-0.421625
28.916667	1	-0.430625
28.933333	1	-0.436000
28.950000	1	-0.438500
28.966667	1	-0.437125
28.983333	1	-0.432250
29.000000	1	-0.425000
29.016667	1	-0.414625
29.033333	1	-0.401000
29.050000	1	-0.385000
29.066667	1	-0.365875
29.083333	1	-0.344000
29.100000	1	-0.320500
29.116667	1	-0.295625
29.133333	1	-0.269375
29.150000	1	-0.240750
29.166667	1	-0.210500
29.183333	1	-0.179875
29.200000	1	-0.148500
29.216667	1	-0.116125
29.233333	1	-0.083375
29.250000	1	-0.051125
29.266667	1	-0.019250
29.283333	1	0.012125
29.300000	1	0.043625
29.316667	1	0.075000
29.333333	1	0.105750
29.350000	1	0.135125
29.366667	1	0.163250
29.383333	1	0.190500
29.400000	1	0.216250
29.416667	1	0.240875
29.433333	1	0.264375
29.450000	1	0.286500
29.466667	1	0.306500
29.483333	1	0.325625
29.500000	1	0.342750
29.516667	1	0.358625
29.533333	1	0.373125
29.550000	1	0.386000
29.566667	1	0.397500
29.583333	1	0.408375
29.600000	1	0.417000
29.616667	1	0.424750
29.633333	1	0.430500
29.650000	1	0.435000
29.666667	1	0.437500
29.683333	1	0.439750
29.700000	1	0.440500
29.716667	1	0.441375
29.733333	1	0.440125
29.750000	1	0.438125
29.766667	1	0.435125
29.783333	1	0.432375
29.800000	1	0.429250
29.816667	1	0.424625
29.833333	1	0.419375
29.850000	1	0.414125
29.866667	1	0.408750
29.883333	1	0.403250
29.900000	1	0.397750
29.916667	1	0.391250
29.933333	1	0.385000
29.950000	1	0.379250
29.966667	1	0.373250
29.983333	1	0.367250
30.000000	1	0.361000
30.016667	1	0.356000
30.033333	1	0.350750
30.050000	1	0.345625
30.066667	1	0.340875
30.083333	1	0.336250
30.100000	1	0.332500
30.116667	1	0.328375
30.133333	1	0.324500
30.150000	1	0.321000
30.166667	1	0.316750
30.183333	1	0.313625
30.200000	1	0.311000
30.216667	1	0.308750
30.233333	1	0.306750
30.250000	1	0.304875
30.266667	1	0.302625
30.283333	1	0.300875
30.300000	1	0.299500
30.316667	1	0.298125
30.333333	1	0.297250
30.350000	1	0.296375
30.366667	1	0.295375
30.383333	1	0.295500
30.400000	1	0.295750
30.416667	1	0.295750
30.433333	1	0.297125
30.450000	1	0.299375
30.466667	1	0.301875
30.483333	1	0.304000
30.500000	1	0.306500
30.516667	1	0.309375
30.533333	1	0.313250
30.550000	1	0.317750
30.566667	1	0.321625
30.583333	1	0.325125
30.600000	1	0.329625
30.616667	1	0.334000
30.633333	1	0.339125
30.650000	1	0.342750
30.666667	1	0.346875
30.683333	1	0.350500
30.700000	1	0.354375
30.716667	1	0.357125
30.733333	1	0.359875
30.750000	1	0.361375
30.766667	1	0.361875
30.783333	1	0.362250
30.800000	1	0.361875
30.816667	1	0.360750
30.833333	1	0.358125
30.850000	1	0.355250
30.866667	1	0.351500
30.883333	1	0.347375
30.900000	1	0.342000
30.916667	1	0.336125
30.933333	1	0.329125
30.950000	1	0.321625
30.966667	1	0.313750
30.983333	1	0.306000
31.000000	1	0.298125
31.016667	1	0.290250
31.033333	1	0.281500
31.050000	1	0.272500
31.066667	1	0.263500
31.083333	1	0.254500
31.100000	1	0.245875
31.116667	1	0.237500
31.133333	1	0.229250
31.150000	1	0.221500
31.166667	1	0.214375
31.183333	1	0.207125
31.200000	1	0.200500
31.216667	1	0.194500
31.233333	1	0.188625
31.250000	1	0.183500
31.266667	1	0.178625
31.283333	1	0.174250
31.300000	1	0.171125
31.316667	1	0.167125
31.333333	1	0.164125
31.350000	1	0.161500
31.366667	1	0.159375
31.383333	1	0.157750
31.400000	1	0.156750
31.416667	1	0.156750
31.433333	1	0.156625
31.450000	1	0.156750
31.466667	1	0.156750
31.483333	1	0.157875
31.500000	1	0.159375
31.516667	1	0.161125
31.533333	1	0.162250
31.550000	1	0.163750
31.566667	1	0.166250
31.583333	1	0.169500
31.600000	1	0.172750
31.616667	1	0.176500
31.633333	1	0.180000
31.650000	1	0.183500
31.666667	1	0.187500
31.683333	1	0.191875
31.700000	1	0.197125
31.716667	1	0.201875
31.733333	1	0.207375
31.750000	1	0.213000
31.766667	1	0.218375
31.783333	1	0.223875
31.800000	1	0.229750
31.816667	1	0.235125
31.833333	1	0.241125
31.850000	1	0.246375
31.866667	1	0.251375
31.883333	1	0.256375
31.900000	1	0.260875
31.916667	1	0.265125
31.933333	1	0.269500
31.950000	1	0.273000
31.966667	1	0.276750
31.983333	1	0.279250
32.000000	1	0.281250
32.016667	1	0.282375
32.033333	1	0.283375
32.050000	1	0.283375
32.066667	1	0.282500
32.083333	1	0.280625
32.100000	1	0.278500
32.116667	1	0.275500
32.133333	1	0.272125
32.150000	1	0.268000
32.166667	1	0.263000
32.183333	1	0.257750
32.200000	1	0.252250
32.216667	1	0.246375
32.233333	1	0.239625
32.250000	1	0.232250
32.266667	1	0.225500
32.283333	1	0.217500
32.300000	1	0.209625
32.316667	1	0.202125
32.333333	1	0.194375
32.350000	1	0.186875
32.366667	1	0.178875
32.383333	1	0.171500
32.400000	1	0.164250
32.416667	1	0.157625
32.433333	1	0.150250
32.450000	1	0.143000
32.466667	1	0.136625
32.483333	1	0.129875
32.500000	1	0.123375
32.516667	1	0.118000
32.533333	1	0.112625
32.550000	1	0.106375
32.566667	1	0.100875
32.583333	1	0.096625
32.600000	1	0.091500
32.616667	1	0.087125
32.633333	1	0.083000
32.650000	1	0.078375
32.666667	1	0.073750
32.683333	1	0.069375
32.700000	1	0.065000
32.716667	1	0.061000
32.733333	1	0.056875
32.750000	1	0.052750
32.766667	1	0.049250
32.783333	1	0.045250
32.800000	1	0.041500
32.816667	1	0.037875
32.833333	1	0.033875
32.850000	1	0.030000
32.866667	1	0.026750
32.883333	1	0.023625
32.900000	1	0.020750
32.916667	1	0.017625
32.933333	1	0.015125
32.950000	1	0.012250
32.966667	1	0.009625
32.983333	1	0.006750
33.000000	1	0.003750
33.016667	1	0.001750
33.033333	1	-0.000125
33.050000	1	-0.002375
33.066667	1	-0.004250
33.083333	1	-0.005250
33.100000	1	-0.006750
33.116667	1	-0.007750
33.133333	1	-0.009250
33.150000	1	-0.010375
33.166667	1	-0.012000
33.183333	1	-0.013250
33.200000	1	-0.014625
33.216667	1	-0.015750
33.233333	1	-0.016125
33.250000	1	-0.017375
33.266667	1	-0.017625
33.283333	1	-0.018375
33.300000	1	-0.019125
33.316667	1	-0.020000
33.333333	1	-0.020750
33.350000	1	-0.021375
33.366667	1	-0.022125
33.383333	1	-0.022375
33.400000	1	-0.022750
33.416667	1	-0.023250
33.433333	1	-0.023750
33.450000	1	-0.024625
33.466667	1	-0.024375
33.483333	1	-0.024750
33.500000	1	-0.024625
33.516667	1	-0.024875
33.533333	1	-0.024625
33.550000	1	-0.025000
33.566667	1	-0.025000
33.583333	1	-0.024875
33.600000	1	-0.024875
33.616667	1	-0.024625
33.633333	1	-0.024875
33.650000	1	-0.024750
33.666667	1	-0.024125
33.683333	1	-0.023625
33.700000	1	-0.023250
33.716667	1	-0.022875
33.733333	1	-0.022500
33.750000	1	-0.022000
33.766667	1	-0.021250
33.783333	1	-0.020500
33.800000	1	-0.019375
33.816667	1	-0.017875
33.833333	1	-0.016375
33.850000	1	-0.014875
33.866667	1	-0.013375
33.883333	1	-0.011750
33.900000	1	-0.010000
33.916667	1	-0.008250
33.933333	1	-0.006250
33.950000	1	-0.004500
33.966667	1	-0.002750
33.983333	1	-0.000625
34.000000	1	0.001375
34.016667	1	0.003625
34.033333	1	0.005500
34.050000	1	0.007750
34.066667	1	0.010500
34.083333	1	0.012875
34.100000	1	0.015250
34.116667	1	0.017750
34.133333	1	0.020375
34.150000	1	0.023000
34.166667	1	0.025500
34.183333	1	0.028125
34.200000	1	0.030500
34.216667	1	0.032625
34.233333	1	0.034375
34.250000	1	0.036375
34.266667	1	0.038125
34.283333	1	0.039750
34.300000	1	0.041625
34.316667	1	0.043250
34.333333	1	0.044750
34.350000	1	0.045750
34.366667	1	0.047500
34.383333	1	0.049375
34.400000	1	0.050000
34.416667	1	0.051125
34.433333	1	0.052000
34.450000	1	0.052500
34.466667	1	0.052875
34.483333	1	0.053875
34.500000	1	0.054625
34.516667	1	0.055125
34.533333	1	0.055500
34.550000	1	0.055875
34.566667	1	0.056125
34.583333	1	0.056000
34.600000	1	0.056625
34.616667	1	0.057250
34.633333	1	0.057375
34.650000	1	0.058250
34.666667	1	0.058250
34.683333	1	0.058500
34.700000	1	0.059500
34.716667	1	0.060750
34.733333	1	0.061625
34.750000	1	0.063000
34.766667	1	0.063750
34.783333	1	0.064625
34.800000	1	0.066250
34.816667	1	0.067625
34.833333	1	0.069125
34.850000	1	0.070750
34.866667	1	0.072875
34.883333	1	0.074875
34.900000	1	0.077000
34.916667	1	0.079375
34.933333	1	0.081625
34.950000	1	0.084000
34.966667	1	0.086500
34.983333	1	0.089000
35.000000	1	0.091500
35.016667	1	0.094250
35.033333	1	0.097750
35.050000	1	0.100375
35.066667	1	0.103625
35.083333	1	0.106750
35.100000	1	0.110375
35.116667	1	0.113000
35.133333	1	0.116000
35.150000	1	0.119250
35.166667	1	0.122125
35.183333	1	0.125250
35.200000	1	0.127625
35.216667	1	0.130875
35.233333	1	0.133375
35.250000	1	0.136125
35.266667	1	0.138000
35.283333	1	0.140875
35.300000	1	0.143750
35.316667	1	0.146875
35.333333	1	0.148875
35.350000	1	0.150750
35.366667	1	0.152375
35.383333	1	0.154125
35.400000	1	0.155625
35.416667	1	0.156750
35.433333	1	0.158125
35.450000	1	0.158375
35.466667	1	0.158750
35.483333	1	0.159000
35.500000	1	0.159250
35.516667	1	0.159250
35.533333	1	0.159125
35.550000	1	0.158000
35.566667	1	0.157500
35.583333	1	0.156750
35.600000	1	0.155500
35.616667	1	0.154000
35.633333	1	0.153000
35.650000	1	0.151750
35.666667	1	0.150500
35.683333	1	0.149000
35.700000	1	0.147500
35.716667	1	0.145625
35.733333	1	0.143875
35.750000	1	0.142000
35.766667	1	0.140375
35.783333	1	0.139375
35.800000	1	0.138250
35.816667	1	0.137000
35.833333	1	0.135625
35.850000	1	0.133750
35.866667	1	0.132625
35.883333	1	0.131000
35.900000	1	0.130000
35.916667	1	0.128750
35.933333	1	0.128125
35.950000	1	0.127250
35.966667	1	0.126500
35.983333	1	0.125375
36.000000	1	0.124250
36.016667	1	0.123000
36.033333	1	0.121875
36.050000	1	0.121125
36.066667	1	0.120750
36.083333	1	0.120125
36.100000	1	0.119375
36.116667	1	0.118625
36.133333	1	0.118000
36.150000	1	0.117000
36.166667	1	0.116375
36.183333	1	0.115625
36.200000	1	0.114750
36.216667	1	0.113875
36.233333	1	0.113625
36.250000	1	0.112625
36.266667	1	0.111750
36.283333	1	0.111500
36.300000	1	0.110875
36.316667	1	0.110375
36.333333	1	0.109375
36.350000	1	0.108500
36.366667	1	0.107625
36.383333	1	0.107500
36.400000	1	0.107250
36.416667	1	0.106375
36.433333	1	0.105375
36.450000	1	0.103875
36.466667	1	0.102500
36.483333	1	0.101750
36.500000	1	0.101375
36.516667	1	0.100000
36.533333	1	0.099000
36.550000	1	0.098000
36.566667	1	0.096875
36.583333	1	0.095000
36.600000	1	0.093125
36.616667	1	0.091625
36.633333	1	0.089250
36.650000	1	0.087000
36.666667	1	0.085000
36.683333	1	0.082500
36.700000	1	0.080125
36.716667	1	0.078125
36.733333	1	0.075500
36.750000	1	0.073000
36.766667	1	0.069875
36.783333	1	0.066750
36.800000	1	0.063375
36.816667	1	0.059750
36.833333	1	0.056125
36.850000	1	0.053000
36.866667	1	0.050375
36.883333	1	0.047125
36.900000	1	0.043750
36.916667	1	0.040000
36.933333	1	0.035875
36.950000	1	0.032500
36.966667	1	0.029250
36.983333	1	0.025250
37.000000	1	0.021875
37.016667	1	0.018500
37.033333	1	0.015375
37.050000	1	0.012875
37.066667	1	0.010250
37.083333	1	0.006875
37.100000	1	0.003625
37.116667	1	0.000750
37.133333	1	-0.001000
37.150000	1	-0.003750
37.166667	1	-0.006000
37.183333	1	-0.008625
37.200000	1	-0.011250
37.216667	1	-0.013250
37.233333	1	-0.016000
37.250000	1	-0.018125
37.266667	1	-0.020125
37.283333	1	-0.021250
37.300000	1	-0.022625
37.316667	1	-0.024375
37.333333	1	-0.026000
37.350000	1	-0.026750
37.366667	1	-0.027875
37.383333	1	-0.028625
37.400000	1	-0.029875
37.416667	1	-0.030000
37.433333	1	-0.031000
37.450000	1	-0.031750
37.466667	1	-0.031750
37.483333	1	-0.032750
37.500000	1	-0.033375
37.516667	1	-0.034000
37.533333	1	-0.034375
37.550000	1	-0.034625
37.566667	1	-0.035000
37.583333	1	-0.035875
37.600000	1	-0.036125
37.616667	1	-0.036375
37.633333	1	-0.037000
37.650000	1	-0.037000
37.666667	1	-0.036875
37.683333	1	-0.036625
37.700000	1	-0.036250
37.716667	1	-0.035250
37.733333	1	-0.035125
37.750000	1	-0.034375
37.766667	1	-0.033875
37.783333	1	-0.032750
37.800000	1	-0.031875
37.816667	1	-0.030750
37.833333	1	-0.029375
37.850000	1	-0.028375
37.866667	1	-0.027250
37.883333	1	-0.025625
37.900000	1	-0.024250
37.916667	1	-0.022500
37.933333	1	-0.020500
37.950000	1	-0.018500
37.966667	1	-0.016625
37.983333	1	-0.015875
38.000000	1	-0.014250
38.016667	1	-0.012500
38.033333	1	-0.010375
38.050000	1	-0.008625
38.066667	1	-0.007125
38.083333	1	-0.005375
38.100000	1	-0.004250
38.116667	1	-0.003125
38.133333	1	-0.001875
38.150000	1	-0.001250
38.166667	1	-0.000250
38.183333	1	0.000500
38.200000	1	0.001625
38.216667	1	0.002125
38.233333	1	0.002875
38.250000	1	0.002625
38.266667	1	0.003625
38.283333	1	0.004750
38.300000	1	0.004875
38.316667	1	0.005500
38.333333	1	0.006125
38.350000	1	0.006375
38.366667	1	0.006875
38.383333	1	0.007000
38.400000	1	0.007375
38.416667	1	0.007875
38.433333	1	0.007875
38.450000	1	0.008125
38.466667	1	0.008750
38.483333	1	0.009125
38.500000	1	0.009625
38.516667	1	0.009750
38.533333	1	0.009875
38.550000	1	0.010250
38.566667	1	0.010125
38.583333	1	0.009750
38.600000	1	0.009875
38.616667	1	0.009875
38.633333	1	0.010000
38.650000	1	0.010000
38.666667	1	0.009375
38.683333	1	0.008625
38.700000	1	0.008500
38.716667	1	0.008125
38.733333	1	0.007500
38.750000	1	0.006375
38.766667	1	0.004875
38.783333	1	0.004250
38.800000	1	0.003500
38.816667	1	0.002375
38.833333	1	0.001500
38.850000	1	0.000625
38.866667	1	0.000000
38.883333	1	-0.001250
38.900000	1	-0.002500
38.916667	1	-0.004125
38.933333	1	-0.005250
38.950000	1	-0.006250
38.966667	1	-0.007750
38.983333	1	-0.009625
39.000000	1	-0.010500
39.016667	1	-0.011625
39.033333	1	-0.012250
39.050000	1	-0.013500
39.066667	1	-0.015000
39.083333	1	-0.016000
39.100000	1	-0.017000
39.116667	1	-0.017500
39.133333	1	-0.018500
39.150000	1	-0.020250
39.166667	1	-0.021125
39.183333	1	-0.022000
39.200000	1	-0.022875
39.216667	1	-0.024750
39.233333	1	-0.025125
39.250000	1	-0.025375
39.266667	1	-0.025125
39.283333	1	-0.026250
39.300000	1	-0.027000
39.316667	1	-0.027625
39.333333	1	-0.028500
39.350000	1	-0.028750
39.366667	1	-0.029750
39.383333	1	-0.030125
39.400000	1	-0.030000
39.416667	1	-0.030375
39.433333	1	-0.029750
39.450000	1	-0.029875
39.466667	1	-0.029875
39.483333	1	-0.029250
39.500000	1	-0.028625
39.516667	1	-0.027750
39.533333	1	-0.026875
39.550000	1	-0.025875
39.566667	1	-0.026000
39.583333	1	-0.025125
39.600000	1	-0.024250
39.616667	1	-0.022750
39.633333	1	-0.020750
39.650000	1	-0.019250
39.666667	1	-0.017375
39.683333	1	-0.015750
39.700000	1	-0.014000
39.716667	1	-0.012125
39.733333	1	-0.010875
39.750000	1	-0.009250
39.766667	1	-0.007500
39.783333	1	-0.005625
39.800000	1	-0.003625
39.816667	1	-0.002375
39.833333	1	-0.000250
39.850000	1	0.001625
39.866667	1	0.003250
39.883333	1	0.005000
39.900000	1	0.006875
39.916667	1	0.008125
39.933333	1	0.009125
39.950000	1	0.010750
39.966667	1	0.011875
39.983333	1	0.012875
40.000000	1	0.014375
