File Path	chrom://990-75db15j/XVault/Ultimate_3000/1256/20230531_CMO_stabTest _FP08_FP09.seq/543.smp/RI_1.channel/RI_1.chm
Channel	RI_1

Injection Information:
Data Vault	XVault
Injection	Btet_S01
Injection Number	6
Position	BB2
Comment	
Processing Method	
Instrument Method	run_25B_method
Type	Unknown
Status	Finished
Injection Date	01.06.2023
Injection Time	16:09:38
Injection Volume (µl)	20.000
Dilution Factor	1.0000
Weight	1.0000

Chromatogram Data Information:
Time Min. (min)	0.000000
Time Max. (min)	40.000000
Data Points	2401
Detector	RI
Generating Data System	Chromeleon 7.2.5.9507
Exporting Data System	Chromeleon 7.2.5.0
Operator	Instrument Controller
Signal Quantity	Refractive 
Signal Unit	µRIU
Signal Min.	-0.652875
Signal Max.	86.229375
Channel	RI_1
Driver Name	RID520Driver.dll
Channel Type	Evaluation
Min. Step (s)	1
Max. Step (s)	1
Average Step (s)	1

Signal Parameter Information:
Signal Info	

Chromatogram Data:
Time (min)	Step (s)	Value (µRIU)
0.000000	n.a.	-0.015125
0.016667	1	-0.017125
0.033333	1	-0.019250
0.050000	1	-0.021000
0.066667	1	-0.022375
0.083333	1	-0.023375
0.100000	1	-0.024375
0.116667	1	-0.026000
0.133333	1	-0.027500
0.150000	1	-0.029125
0.166667	1	-0.030250
0.183333	1	-0.031250
0.200000	1	-0.032375
0.216667	1	-0.034125
0.233333	1	-0.035250
0.250000	1	-0.036250
0.266667	1	-0.037375
0.283333	1	-0.038000
0.300000	1	-0.040250
0.316667	1	-0.045375
0.333333	1	-0.051250
0.350000	1	-0.054250
0.366667	1	-0.053500
0.383333	1	-0.050500
0.400000	1	-0.047500
0.416667	1	-0.045250
0.433333	1	-0.042500
0.450000	1	-0.040250
0.466667	1	-0.038500
0.483333	1	-0.037125
0.500000	1	-0.036875
0.516667	1	-0.038000
0.533333	1	-0.040250
0.550000	1	-0.042125
0.566667	1	-0.044125
0.583333	1	-0.046000
0.600000	1	-0.047375
0.616667	1	-0.048125
0.633333	1	-0.049875
0.650000	1	-0.050125
0.666667	1	-0.051000
0.683333	1	-0.051875
0.700000	1	-0.052000
0.716667	1	-0.052875
0.733333	1	-0.053000
0.750000	1	-0.052875
0.766667	1	-0.053250
0.783333	1	-0.054125
0.800000	1	-0.055375
0.816667	1	-0.055500
0.833333	1	-0.055875
0.850000	1	-0.055875
0.866667	1	-0.056250
0.883333	1	-0.056375
0.900000	1	-0.056625
0.916667	1	-0.056625
0.933333	1	-0.056875
0.950000	1	-0.057125
0.966667	1	-0.056375
0.983333	1	-0.056750
1.000000	1	-0.057375
1.016667	1	-0.057750
1.033333	1	-0.057250
1.050000	1	-0.057750
1.066667	1	-0.058250
1.083333	1	-0.058375
1.100000	1	-0.058875
1.116667	1	-0.060000
1.133333	1	-0.060875
1.150000	1	-0.062250
1.166667	1	-0.063500
1.183333	1	-0.064125
1.200000	1	-0.065750
1.216667	1	-0.066750
1.233333	1	-0.067625
1.250000	1	-0.069000
1.266667	1	-0.070250
1.283333	1	-0.072000
1.300000	1	-0.072750
1.316667	1	-0.073625
1.333333	1	-0.075375
1.350000	1	-0.075875
1.366667	1	-0.076875
1.383333	1	-0.077500
1.400000	1	-0.078375
1.416667	1	-0.078875
1.433333	1	-0.078875
1.450000	1	-0.079625
1.466667	1	-0.079875
1.483333	1	-0.079500
1.500000	1	-0.079500
1.516667	1	-0.079750
1.533333	1	-0.079500
1.550000	1	-0.079500
1.566667	1	-0.079375
1.583333	1	-0.078125
1.600000	1	-0.077625
1.616667	1	-0.077000
1.633333	1	-0.077000
1.650000	1	-0.076625
1.666667	1	-0.075750
1.683333	1	-0.074625
1.700000	1	-0.073750
1.716667	1	-0.073000
1.733333	1	-0.072875
1.750000	1	-0.072000
1.766667	1	-0.071125
1.783333	1	-0.071250
1.800000	1	-0.069625
1.816667	1	-0.069375
1.833333	1	-0.068250
1.850000	1	-0.067625
1.866667	1	-0.066875
1.883333	1	-0.067125
1.900000	1	-0.067125
1.916667	1	-0.066500
1.933333	1	-0.066750
1.950000	1	-0.067500
1.966667	1	-0.067500
1.983333	1	-0.067625
2.000000	1	-0.068000
2.016667	1	-0.068125
2.033333	1	-0.068500
2.050000	1	-0.068500
2.066667	1	-0.068500
2.083333	1	-0.068750
2.100000	1	-0.069750
2.116667	1	-0.070375
2.133333	1	-0.070875
2.150000	1	-0.071250
2.166667	1	-0.072125
2.183333	1	-0.073125
2.200000	1	-0.073500
2.216667	1	-0.073000
2.233333	1	-0.072750
2.250000	1	-0.072625
2.266667	1	-0.072250
2.283333	1	-0.072250
2.300000	1	-0.071875
2.316667	1	-0.071500
2.333333	1	-0.071000
2.350000	1	-0.069875
2.366667	1	-0.069125
2.383333	1	-0.067875
2.400000	1	-0.067125
2.416667	1	-0.066000
2.433333	1	-0.064500
2.450000	1	-0.063250
2.466667	1	-0.061875
2.483333	1	-0.060500
2.500000	1	-0.059125
2.516667	1	-0.057625
2.533333	1	-0.056125
2.550000	1	-0.054750
2.566667	1	-0.053375
2.583333	1	-0.051250
2.600000	1	-0.049375
2.616667	1	-0.048000
2.633333	1	-0.046000
2.650000	1	-0.044375
2.666667	1	-0.042750
2.683333	1	-0.042000
2.700000	1	-0.040125
2.716667	1	-0.038750
2.733333	1	-0.036750
2.750000	1	-0.035250
2.766667	1	-0.033750
2.783333	1	-0.032250
2.800000	1	-0.030500
2.816667	1	-0.029625
2.833333	1	-0.028500
2.850000	1	-0.027000
2.866667	1	-0.025000
2.883333	1	-0.024500
2.900000	1	-0.023875
2.916667	1	-0.022625
2.933333	1	-0.021875
2.950000	1	-0.020500
2.966667	1	-0.019750
2.983333	1	-0.018500
3.000000	1	-0.017375
3.016667	1	-0.016625
3.033333	1	-0.015250
3.050000	1	-0.014125
3.066667	1	-0.013125
3.083333	1	-0.012375
3.100000	1	-0.011875
3.116667	1	-0.011375
3.133333	1	-0.009500
3.150000	1	-0.009375
3.166667	1	-0.008500
3.183333	1	-0.007625
3.200000	1	-0.007125
3.216667	1	-0.006875
3.233333	1	-0.006375
3.250000	1	-0.006125
3.266667	1	-0.006375
3.283333	1	-0.005875
3.300000	1	-0.005000
3.316667	1	-0.005250
3.333333	1	-0.004875
3.350000	1	-0.005875
3.366667	1	-0.006250
3.383333	1	-0.006250
3.400000	1	-0.006500
3.416667	1	-0.006125
3.433333	1	-0.006750
3.450000	1	-0.007125
3.466667	1	-0.008250
3.483333	1	-0.009500
3.500000	1	-0.010500
3.516667	1	-0.011500
3.533333	1	-0.013000
3.550000	1	-0.013625
3.566667	1	-0.014250
3.583333	1	-0.016125
3.600000	1	-0.017500
3.616667	1	-0.018250
3.633333	1	-0.020125
3.650000	1	-0.021500
3.666667	1	-0.022625
3.683333	1	-0.023250
3.700000	1	-0.024250
3.716667	1	-0.025875
3.733333	1	-0.027500
3.750000	1	-0.028125
3.766667	1	-0.028625
3.783333	1	-0.029875
3.800000	1	-0.031250
3.816667	1	-0.032625
3.833333	1	-0.032625
3.850000	1	-0.033500
3.866667	1	-0.034750
3.883333	1	-0.034750
3.900000	1	-0.035750
3.916667	1	-0.036500
3.933333	1	-0.038125
3.950000	1	-0.038750
3.966667	1	-0.039750
3.983333	1	-0.040125
4.000000	1	-0.041625
4.016667	1	-0.042125
4.033333	1	-0.043250
4.050000	1	-0.044250
4.066667	1	-0.045375
4.083333	1	-0.046500
4.100000	1	-0.047375
4.116667	1	-0.048375
4.133333	1	-0.049750
4.150000	1	-0.050250
4.166667	1	-0.050625
4.183333	1	-0.052250
4.200000	1	-0.053625
4.216667	1	-0.054750
4.233333	1	-0.056000
4.250000	1	-0.057125
4.266667	1	-0.058375
4.283333	1	-0.059750
4.300000	1	-0.060875
4.316667	1	-0.062625
4.333333	1	-0.064500
4.350000	1	-0.066000
4.366667	1	-0.067125
4.383333	1	-0.068375
4.400000	1	-0.068750
4.416667	1	-0.069625
4.433333	1	-0.070625
4.450000	1	-0.071875
4.466667	1	-0.072750
4.483333	1	-0.073875
4.500000	1	-0.073875
4.516667	1	-0.075250
4.533333	1	-0.075250
4.550000	1	-0.076250
4.566667	1	-0.076375
4.583333	1	-0.076625
4.600000	1	-0.076750
4.616667	1	-0.077000
4.633333	1	-0.077000
4.650000	1	-0.076500
4.666667	1	-0.076125
4.683333	1	-0.075750
4.700000	1	-0.075625
4.716667	1	-0.074875
4.733333	1	-0.075000
4.750000	1	-0.074250
4.766667	1	-0.073000
4.783333	1	-0.072000
4.800000	1	-0.070750
4.816667	1	-0.070250
4.833333	1	-0.069125
4.850000	1	-0.068000
4.866667	1	-0.067125
4.883333	1	-0.065500
4.900000	1	-0.063750
4.916667	1	-0.061375
4.933333	1	-0.059875
4.950000	1	-0.057500
4.966667	1	-0.054750
4.983333	1	-0.052500
5.000000	1	-0.050625
5.016667	1	-0.048625
5.033333	1	-0.045750
5.050000	1	-0.043250
5.066667	1	-0.040500
5.083333	1	-0.037250
5.100000	1	-0.034125
5.116667	1	-0.030875
5.133333	1	-0.027750
5.150000	1	-0.024750
5.166667	1	-0.021625
5.183333	1	-0.017125
5.200000	1	-0.013875
5.216667	1	-0.011000
5.233333	1	-0.007375
5.250000	1	-0.004000
5.266667	1	-0.000125
5.283333	1	0.003125
5.300000	1	0.007000
5.316667	1	0.010625
5.333333	1	0.014500
5.350000	1	0.018750
5.366667	1	0.022625
5.383333	1	0.025875
5.400000	1	0.030125
5.416667	1	0.034375
5.433333	1	0.037625
5.450000	1	0.041625
5.466667	1	0.045250
5.483333	1	0.048875
5.500000	1	0.052750
5.516667	1	0.055750
5.533333	1	0.058875
5.550000	1	0.062000
5.566667	1	0.064875
5.583333	1	0.067625
5.600000	1	0.069375
5.616667	1	0.071750
5.633333	1	0.073625
5.650000	1	0.075750
5.666667	1	0.077125
5.683333	1	0.078375
5.700000	1	0.079375
5.716667	1	0.080250
5.733333	1	0.080375
5.750000	1	0.080750
5.766667	1	0.081625
5.783333	1	0.082000
5.800000	1	0.083125
5.816667	1	0.084250
5.833333	1	0.084125
5.850000	1	0.083625
5.866667	1	0.082125
5.883333	1	0.082000
5.900000	1	0.080750
5.916667	1	0.079125
5.933333	1	0.078250
5.950000	1	0.077750
5.966667	1	0.077000
5.983333	1	0.076000
6.000000	1	0.075500
6.016667	1	0.073875
6.033333	1	0.072375
6.050000	1	0.070500
6.066667	1	0.069750
6.083333	1	0.068375
6.100000	1	0.067500
6.116667	1	0.067750
6.133333	1	0.066750
6.150000	1	0.065125
6.166667	1	0.064125
6.183333	1	0.063875
6.200000	1	0.063250
6.216667	1	0.061625
6.233333	1	0.061000
6.250000	1	0.060625
6.266667	1	0.060000
6.283333	1	0.058625
6.300000	1	0.058250
6.316667	1	0.058500
6.333333	1	0.058500
6.350000	1	0.058625
6.366667	1	0.058375
6.383333	1	0.058000
6.400000	1	0.058000
6.416667	1	0.059375
6.433333	1	0.060000
6.450000	1	0.060125
6.466667	1	0.060250
6.483333	1	0.060125
6.500000	1	0.060625
6.516667	1	0.060875
6.533333	1	0.061125
6.550000	1	0.061875
6.566667	1	0.062625
6.583333	1	0.063375
6.600000	1	0.064875
6.616667	1	0.065125
6.633333	1	0.065750
6.650000	1	0.067250
6.666667	1	0.068000
6.683333	1	0.069500
6.700000	1	0.070125
6.716667	1	0.071375
6.733333	1	0.072375
6.750000	1	0.073375
6.766667	1	0.074750
6.783333	1	0.076125
6.800000	1	0.077750
6.816667	1	0.078625
6.833333	1	0.079500
6.850000	1	0.080250
6.866667	1	0.081375
6.883333	1	0.082625
6.900000	1	0.084000
6.916667	1	0.085250
6.933333	1	0.085375
6.950000	1	0.086250
6.966667	1	0.087500
6.983333	1	0.088500
7.000000	1	0.088875
7.016667	1	0.088875
7.033333	1	0.088625
7.050000	1	0.088750
7.066667	1	0.089125
7.083333	1	0.088875
7.100000	1	0.088875
7.116667	1	0.088875
7.133333	1	0.088375
7.150000	1	0.087875
7.166667	1	0.087625
7.183333	1	0.086125
7.200000	1	0.084250
7.216667	1	0.083250
7.233333	1	0.081875
7.250000	1	0.079625
7.266667	1	0.078000
7.283333	1	0.076625
7.300000	1	0.074875
7.316667	1	0.073000
7.333333	1	0.070750
7.350000	1	0.069375
7.366667	1	0.067375
7.383333	1	0.064875
7.400000	1	0.062875
7.416667	1	0.059500
7.433333	1	0.057750
7.450000	1	0.056250
7.466667	1	0.054375
7.483333	1	0.051750
7.500000	1	0.048750
7.516667	1	0.045625
7.533333	1	0.043000
7.550000	1	0.039000
7.566667	1	0.034500
7.583333	1	0.030250
7.600000	1	0.027000
7.616667	1	0.023125
7.633333	1	0.019875
7.650000	1	0.016625
7.666667	1	0.012875
7.683333	1	0.009000
7.700000	1	0.005125
7.716667	1	0.002375
7.733333	1	-0.001375
7.750000	1	-0.004750
7.766667	1	-0.008250
7.783333	1	-0.011500
7.800000	1	-0.014875
7.816667	1	-0.017750
7.833333	1	-0.021625
7.850000	1	-0.024250
7.866667	1	-0.027625
7.883333	1	-0.030500
7.900000	1	-0.032750
7.916667	1	-0.035375
7.933333	1	-0.037625
7.950000	1	-0.040625
7.966667	1	-0.042500
7.983333	1	-0.044250
8.000000	1	-0.045875
8.016667	1	-0.047500
8.033333	1	-0.049375
8.050000	1	-0.051125
8.066667	1	-0.052625
8.083333	1	-0.053750
8.100000	1	-0.054000
8.116667	1	-0.055500
8.133333	1	-0.056500
8.150000	1	-0.057125
8.166667	1	-0.057250
8.183333	1	-0.057625
8.200000	1	-0.058750
8.216667	1	-0.059625
8.233333	1	-0.061000
8.250000	1	-0.061750
8.266667	1	-0.061750
8.283333	1	-0.061875
8.300000	1	-0.062500
8.316667	1	-0.062500
8.333333	1	-0.062875
8.350000	1	-0.063250
8.366667	1	-0.064000
8.383333	1	-0.064375
8.400000	1	-0.064500
8.416667	1	-0.064875
8.433333	1	-0.064500
8.450000	1	-0.064250
8.466667	1	-0.063875
8.483333	1	-0.063125
8.500000	1	-0.062875
8.516667	1	-0.062125
8.533333	1	-0.061125
8.550000	1	-0.060500
8.566667	1	-0.060500
8.583333	1	-0.059125
8.600000	1	-0.057625
8.616667	1	-0.056500
8.633333	1	-0.056125
8.650000	1	-0.055250
8.666667	1	-0.053875
8.683333	1	-0.052750
8.700000	1	-0.051375
8.716667	1	-0.050250
8.733333	1	-0.049500
8.750000	1	-0.048625
8.766667	1	-0.047625
8.783333	1	-0.046500
8.800000	1	-0.045375
8.816667	1	-0.044625
8.833333	1	-0.043625
8.850000	1	-0.042625
8.866667	1	-0.041500
8.883333	1	-0.040875
8.900000	1	-0.040125
8.916667	1	-0.038625
8.933333	1	-0.037000
8.950000	1	-0.036250
8.966667	1	-0.034625
8.983333	1	-0.033750
9.000000	1	-0.032625
9.016667	1	-0.031375
9.033333	1	-0.030125
9.050000	1	-0.028875
9.066667	1	-0.027500
9.083333	1	-0.026625
9.100000	1	-0.024625
9.116667	1	-0.023500
9.133333	1	-0.021875
9.150000	1	-0.020000
9.166667	1	-0.018125
9.183333	1	-0.016500
9.200000	1	-0.014500
9.216667	1	-0.011750
9.233333	1	-0.008500
9.250000	1	-0.005125
9.266667	1	-0.002250
9.283333	1	0.001875
9.300000	1	0.006375
9.316667	1	0.010875
9.333333	1	0.015875
9.350000	1	0.020750
9.366667	1	0.026625
9.383333	1	0.033250
9.400000	1	0.039625
9.416667	1	0.046625
9.433333	1	0.054000
9.450000	1	0.062000
9.466667	1	0.071000
9.483333	1	0.079875
9.500000	1	0.089250
9.516667	1	0.100375
9.533333	1	0.112750
9.550000	1	0.125625
9.566667	1	0.140250
9.583333	1	0.156500
9.600000	1	0.175000
9.616667	1	0.196375
9.633333	1	0.220750
9.650000	1	0.248000
9.666667	1	0.279875
9.683333	1	0.318125
9.700000	1	0.364125
9.716667	1	0.419750
9.733333	1	0.483750
9.750000	1	0.555250
9.766667	1	0.630750
9.783333	1	0.707375
9.800000	1	0.778000
9.816667	1	0.841250
9.833333	1	0.893125
9.850000	1	0.932625
9.866667	1	0.961750
9.883333	1	0.983750
9.900000	1	1.006375
9.916667	1	1.044625
9.933333	1	1.124375
9.950000	1	1.288125
9.966667	1	1.588500
9.983333	1	2.087375
10.000000	1	2.845500
10.016667	1	3.919375
10.033333	1	5.357750
10.050000	1	7.193875
10.066667	1	9.447000
10.083333	1	12.126875
10.100000	1	15.231750
10.116667	1	18.747000
10.133333	1	22.643375
10.150000	1	26.876625
10.166667	1	31.384500
10.183333	1	36.080000
10.200000	1	40.850500
10.216667	1	45.551250
10.233333	1	49.997625
10.250000	1	53.962250
10.266667	1	57.191750
10.283333	1	59.430000
10.300000	1	60.454875
10.316667	1	60.130125
10.333333	1	58.442750
10.350000	1	55.514625
10.366667	1	51.586625
10.383333	1	46.984750
10.400000	1	42.056625
10.416667	1	37.124375
10.433333	1	32.441125
10.450000	1	28.177625
10.466667	1	24.413750
10.483333	1	21.163625
10.500000	1	18.396125
10.516667	1	16.058125
10.533333	1	14.085000
10.550000	1	12.414500
10.566667	1	10.992625
10.583333	1	9.773375
10.600000	1	8.721125
10.616667	1	7.810125
10.633333	1	7.019875
10.650000	1	6.336125
10.666667	1	5.746000
10.683333	1	5.239875
10.700000	1	4.806250
10.716667	1	4.435875
10.733333	1	4.118125
10.750000	1	3.844500
10.766667	1	3.606500
10.783333	1	3.398500
10.800000	1	3.213375
10.816667	1	3.047375
10.833333	1	2.897750
10.850000	1	2.761375
10.866667	1	2.636375
10.883333	1	2.521250
10.900000	1	2.415000
10.916667	1	2.316625
10.933333	1	2.226625
10.950000	1	2.142625
10.966667	1	2.065125
10.983333	1	1.993875
11.000000	1	1.928250
11.016667	1	1.867500
11.033333	1	1.810750
11.050000	1	1.758250
11.066667	1	1.708875
11.083333	1	1.663125
11.100000	1	1.621625
11.116667	1	1.583250
11.133333	1	1.546750
11.150000	1	1.513250
11.166667	1	1.481750
11.183333	1	1.453750
11.200000	1	1.427625
11.216667	1	1.403375
11.233333	1	1.380750
11.250000	1	1.360000
11.266667	1	1.340750
11.283333	1	1.322375
11.300000	1	1.305625
11.316667	1	1.290000
11.333333	1	1.273500
11.350000	1	1.259125
11.366667	1	1.244125
11.383333	1	1.229875
11.400000	1	1.216500
11.416667	1	1.203875
11.433333	1	1.192375
11.450000	1	1.182125
11.466667	1	1.172125
11.483333	1	1.164125
11.500000	1	1.156625
11.516667	1	1.150250
11.533333	1	1.145375
11.550000	1	1.140875
11.566667	1	1.138000
11.583333	1	1.135500
11.600000	1	1.133625
11.616667	1	1.132250
11.633333	1	1.131125
11.650000	1	1.130125
11.666667	1	1.130250
11.683333	1	1.130000
11.700000	1	1.130250
11.716667	1	1.130750
11.733333	1	1.130750
11.750000	1	1.130625
11.766667	1	1.130625
11.783333	1	1.131625
11.800000	1	1.132750
11.816667	1	1.134750
11.833333	1	1.138375
11.850000	1	1.144000
11.866667	1	1.152125
11.883333	1	1.162375
11.900000	1	1.176000
11.916667	1	1.193125
11.933333	1	1.214250
11.950000	1	1.239250
11.966667	1	1.269375
11.983333	1	1.303375
12.000000	1	1.342875
12.016667	1	1.386625
12.033333	1	1.434500
12.050000	1	1.487750
12.066667	1	1.545375
12.083333	1	1.607750
12.100000	1	1.676375
12.116667	1	1.752750
12.133333	1	1.838625
12.150000	1	1.936250
12.166667	1	2.048125
12.183333	1	2.175625
12.200000	1	2.321875
12.216667	1	2.489125
12.233333	1	2.679750
12.250000	1	2.894250
12.266667	1	3.135125
12.283333	1	3.403750
12.300000	1	3.702875
12.316667	1	4.034625
12.333333	1	4.402250
12.350000	1	4.809125
12.366667	1	5.259625
12.383333	1	5.757500
12.400000	1	6.305125
12.416667	1	6.902875
12.433333	1	7.548625
12.450000	1	8.237125
12.466667	1	8.957750
12.483333	1	9.699625
12.500000	1	10.445750
12.516667	1	11.176750
12.533333	1	11.873875
12.550000	1	12.517500
12.566667	1	13.089375
12.583333	1	13.571250
12.600000	1	13.947750
12.616667	1	14.206125
12.633333	1	14.341375
12.650000	1	14.358000
12.666667	1	14.268500
12.683333	1	14.092875
12.700000	1	13.852375
12.716667	1	13.566875
12.733333	1	13.254000
12.750000	1	12.925875
12.766667	1	12.592750
12.783333	1	12.261250
12.800000	1	11.935125
12.816667	1	11.618250
12.833333	1	11.312250
12.850000	1	11.018375
12.866667	1	10.736625
12.883333	1	10.465875
12.900000	1	10.205375
12.916667	1	9.955250
12.933333	1	9.714125
12.950000	1	9.480000
12.966667	1	9.252250
12.983333	1	9.029125
13.000000	1	8.807000
13.016667	1	8.585875
13.033333	1	8.363125
13.050000	1	8.137000
13.066667	1	7.905375
13.083333	1	7.666250
13.100000	1	7.418875
13.116667	1	7.160875
13.133333	1	6.889750
13.150000	1	6.602625
13.166667	1	6.297875
13.183333	1	5.973625
13.200000	1	5.625750
13.216667	1	5.253000
13.233333	1	4.852875
13.250000	1	4.426625
13.266667	1	3.981250
13.283333	1	3.531500
13.300000	1	3.100875
13.316667	1	2.711750
13.333333	1	2.380750
13.350000	1	2.110250
13.366667	1	1.893375
13.383333	1	1.722625
13.400000	1	1.586000
13.416667	1	1.477000
13.433333	1	1.388625
13.450000	1	1.315500
13.466667	1	1.254500
13.483333	1	1.203750
13.500000	1	1.161875
13.516667	1	1.127250
13.533333	1	1.098875
13.550000	1	1.075375
13.566667	1	1.057000
13.583333	1	1.043250
13.600000	1	1.032250
13.616667	1	1.024625
13.633333	1	1.018875
13.650000	1	1.013750
13.666667	1	1.010000
13.683333	1	1.005375
13.700000	1	0.999625
13.716667	1	0.992625
13.733333	1	0.984125
13.750000	1	0.973500
13.766667	1	0.961000
13.783333	1	0.946375
13.800000	1	0.931125
13.816667	1	0.914125
13.833333	1	0.897375
13.850000	1	0.879125
13.866667	1	0.861125
13.883333	1	0.843125
13.900000	1	0.824500
13.916667	1	0.806625
13.933333	1	0.789875
13.950000	1	0.773875
13.966667	1	0.759250
13.983333	1	0.745500
14.000000	1	0.733125
14.016667	1	0.723000
14.033333	1	0.715250
14.050000	1	0.709500
14.066667	1	0.706375
14.083333	1	0.705625
14.100000	1	0.708000
14.116667	1	0.713500
14.133333	1	0.722125
14.150000	1	0.735000
14.166667	1	0.751750
14.183333	1	0.772750
14.200000	1	0.799875
14.216667	1	0.832875
14.233333	1	0.873875
14.250000	1	0.922375
14.266667	1	0.981125
14.283333	1	1.050750
14.300000	1	1.133625
14.316667	1	1.229875
14.333333	1	1.343000
14.350000	1	1.473375
14.366667	1	1.625000
14.383333	1	1.799125
14.400000	1	1.997750
14.416667	1	2.223000
14.433333	1	2.476875
14.450000	1	2.762875
14.466667	1	3.084375
14.483333	1	3.443500
14.500000	1	3.843875
14.516667	1	4.290625
14.533333	1	4.789125
14.550000	1	5.346625
14.566667	1	5.971500
14.583333	1	6.675500
14.600000	1	7.474875
14.616667	1	8.392750
14.633333	1	9.458375
14.650000	1	10.708875
14.666667	1	12.189125
14.683333	1	13.951750
14.700000	1	16.052000
14.716667	1	18.544625
14.733333	1	21.482000
14.750000	1	24.906625
14.766667	1	28.843125
14.783333	1	33.287125
14.800000	1	38.206625
14.816667	1	43.536750
14.833333	1	49.176125
14.850000	1	54.986125
14.866667	1	60.798625
14.883333	1	66.423750
14.900000	1	71.661750
14.916667	1	76.319750
14.933333	1	80.224125
14.950000	1	83.235250
14.966667	1	85.253375
14.983333	1	86.229375
15.000000	1	86.161125
15.016667	1	85.091625
15.033333	1	83.097875
15.050000	1	80.282875
15.066667	1	76.771750
15.083333	1	72.704375
15.100000	1	68.223750
15.116667	1	63.470875
15.133333	1	58.580625
15.150000	1	53.669875
15.166667	1	48.841375
15.183333	1	44.180125
15.200000	1	39.745250
15.216667	1	35.580250
15.233333	1	31.710875
15.250000	1	28.152250
15.266667	1	24.908500
15.283333	1	21.976625
15.300000	1	19.347500
15.316667	1	17.006375
15.333333	1	14.935750
15.350000	1	13.114375
15.366667	1	11.521500
15.383333	1	10.136375
15.400000	1	8.936250
15.416667	1	7.900375
15.433333	1	7.008000
15.450000	1	6.241875
15.466667	1	5.587625
15.483333	1	5.031875
15.500000	1	4.559500
15.516667	1	4.161250
15.533333	1	3.826500
15.550000	1	3.545750
15.566667	1	3.310875
15.583333	1	3.114625
15.600000	1	2.950250
15.616667	1	2.810875
15.633333	1	2.691125
15.650000	1	2.586750
15.666667	1	2.493875
15.683333	1	2.409625
15.700000	1	2.330375
15.716667	1	2.256125
15.733333	1	2.185625
15.750000	1	2.118250
15.766667	1	2.053375
15.783333	1	1.990875
15.800000	1	1.932125
15.816667	1	1.875375
15.833333	1	1.821125
15.850000	1	1.769625
15.866667	1	1.720125
15.883333	1	1.673125
15.900000	1	1.629000
15.916667	1	1.586625
15.933333	1	1.546875
15.950000	1	1.509000
15.966667	1	1.474000
15.983333	1	1.442250
16.000000	1	1.411375
16.016667	1	1.383500
16.033333	1	1.358750
16.050000	1	1.337625
16.066667	1	1.319875
16.083333	1	1.305000
16.100000	1	1.293125
16.116667	1	1.283500
16.133333	1	1.276625
16.150000	1	1.271500
16.166667	1	1.267250
16.183333	1	1.264500
16.200000	1	1.261625
16.216667	1	1.258875
16.233333	1	1.253750
16.250000	1	1.247750
16.266667	1	1.240250
16.283333	1	1.230875
16.300000	1	1.220375
16.316667	1	1.207500
16.333333	1	1.194250
16.350000	1	1.179875
16.366667	1	1.165250
16.383333	1	1.150375
16.400000	1	1.136500
16.416667	1	1.122750
16.433333	1	1.109875
16.450000	1	1.098000
16.466667	1	1.087375
16.483333	1	1.078375
16.500000	1	1.070500
16.516667	1	1.064750
16.533333	1	1.060125
16.550000	1	1.056500
16.566667	1	1.054375
16.583333	1	1.053750
16.600000	1	1.053875
16.616667	1	1.055375
16.633333	1	1.057625
16.650000	1	1.061000
16.666667	1	1.064000
16.683333	1	1.068750
16.700000	1	1.073750
16.716667	1	1.079625
16.733333	1	1.085250
16.750000	1	1.091000
16.766667	1	1.096250
16.783333	1	1.101625
16.800000	1	1.105500
16.816667	1	1.109000
16.833333	1	1.111375
16.850000	1	1.113125
16.866667	1	1.113125
16.883333	1	1.112625
16.900000	1	1.111250
16.916667	1	1.108500
16.933333	1	1.105625
16.950000	1	1.103375
16.966667	1	1.101250
16.983333	1	1.099250
17.000000	1	1.098250
17.016667	1	1.098125
17.033333	1	1.098750
17.050000	1	1.100125
17.066667	1	1.100625
17.083333	1	1.101750
17.100000	1	1.103500
17.116667	1	1.104500
17.133333	1	1.105500
17.150000	1	1.104625
17.166667	1	1.103375
17.183333	1	1.100250
17.200000	1	1.095625
17.216667	1	1.089125
17.233333	1	1.081000
17.250000	1	1.072250
17.266667	1	1.061250
17.283333	1	1.049750
17.300000	1	1.037500
17.316667	1	1.024375
17.333333	1	1.011250
17.350000	1	0.997750
17.366667	1	0.984625
17.383333	1	0.971500
17.400000	1	0.959875
17.416667	1	0.948500
17.433333	1	0.938375
17.450000	1	0.929500
17.466667	1	0.921750
17.483333	1	0.915750
17.500000	1	0.911750
17.516667	1	0.909500
17.533333	1	0.910000
17.550000	1	0.911750
17.566667	1	0.915875
17.583333	1	0.922500
17.600000	1	0.930125
17.616667	1	0.940250
17.633333	1	0.952000
17.650000	1	0.965375
17.666667	1	0.979375
17.683333	1	0.995500
17.700000	1	1.012625
17.716667	1	1.031250
17.733333	1	1.049375
17.750000	1	1.068375
17.766667	1	1.087875
17.783333	1	1.107125
17.800000	1	1.125125
17.816667	1	1.143125
17.833333	1	1.159625
17.850000	1	1.174500
17.866667	1	1.187625
17.883333	1	1.199375
17.900000	1	1.208000
17.916667	1	1.215125
17.933333	1	1.219750
17.950000	1	1.222000
17.966667	1	1.221125
17.983333	1	1.218500
18.000000	1	1.213875
18.016667	1	1.206625
18.033333	1	1.197875
18.050000	1	1.186875
18.066667	1	1.175125
18.083333	1	1.161625
18.100000	1	1.146750
18.116667	1	1.132750
18.133333	1	1.117625
18.150000	1	1.102250
18.166667	1	1.085625
18.183333	1	1.069625
18.200000	1	1.053000
18.216667	1	1.036625
18.233333	1	1.022000
18.250000	1	1.006625
18.266667	1	0.993625
18.283333	1	0.979750
18.300000	1	0.967625
18.316667	1	0.957250
18.333333	1	0.948125
18.350000	1	0.939625
18.366667	1	0.932500
18.383333	1	0.925875
18.400000	1	0.920375
18.416667	1	0.915375
18.433333	1	0.911500
18.450000	1	0.908250
18.466667	1	0.905875
18.483333	1	0.903250
18.500000	1	0.902000
18.516667	1	0.901750
18.533333	1	0.901625
18.550000	1	0.902375
18.566667	1	0.903500
18.583333	1	0.904875
18.600000	1	0.906750
18.616667	1	0.909250
18.633333	1	0.911625
18.650000	1	0.914000
18.666667	1	0.917125
18.683333	1	0.921375
18.700000	1	0.926875
18.716667	1	0.933000
18.733333	1	0.939625
18.750000	1	0.947500
18.766667	1	0.955625
18.783333	1	0.964750
18.800000	1	0.974250
18.816667	1	0.984500
18.833333	1	0.995000
18.850000	1	1.006750
18.866667	1	1.019500
18.883333	1	1.032750
18.900000	1	1.047750
18.916667	1	1.064250
18.933333	1	1.081625
18.950000	1	1.101000
18.966667	1	1.123625
18.983333	1	1.148375
19.000000	1	1.175875
19.016667	1	1.206375
19.033333	1	1.240750
19.050000	1	1.278375
19.066667	1	1.319250
19.083333	1	1.363250
19.100000	1	1.410875
19.116667	1	1.459875
19.133333	1	1.511000
19.150000	1	1.563000
19.166667	1	1.614250
19.183333	1	1.665000
19.200000	1	1.712625
19.216667	1	1.757875
19.233333	1	1.798250
19.250000	1	1.833000
19.266667	1	1.860750
19.283333	1	1.882000
19.300000	1	1.895750
19.316667	1	1.901750
19.333333	1	1.900250
19.350000	1	1.891125
19.366667	1	1.873875
19.383333	1	1.849125
19.400000	1	1.818250
19.416667	1	1.782000
19.433333	1	1.741000
19.450000	1	1.695375
19.466667	1	1.647000
19.483333	1	1.597875
19.500000	1	1.546625
19.516667	1	1.495375
19.533333	1	1.444875
19.550000	1	1.396125
19.566667	1	1.349375
19.583333	1	1.305500
19.600000	1	1.265375
19.616667	1	1.229500
19.633333	1	1.197250
19.650000	1	1.170125
19.666667	1	1.148375
19.683333	1	1.132500
19.700000	1	1.122000
19.716667	1	1.117875
19.733333	1	1.120250
19.750000	1	1.128250
19.766667	1	1.142625
19.783333	1	1.161875
19.800000	1	1.186625
19.816667	1	1.216500
19.833333	1	1.250250
19.850000	1	1.286500
19.866667	1	1.325875
19.883333	1	1.365375
19.900000	1	1.404750
19.916667	1	1.442750
19.933333	1	1.478500
19.950000	1	1.510875
19.966667	1	1.539000
19.983333	1	1.562000
20.000000	1	1.579750
20.016667	1	1.592375
20.033333	1	1.599375
20.050000	1	1.601750
20.066667	1	1.599250
20.083333	1	1.592875
20.100000	1	1.582625
20.116667	1	1.569750
20.133333	1	1.555000
20.150000	1	1.539750
20.166667	1	1.523500
20.183333	1	1.508250
20.200000	1	1.494125
20.216667	1	1.482250
20.233333	1	1.472750
20.250000	1	1.467125
20.266667	1	1.464750
20.283333	1	1.466375
20.300000	1	1.471375
20.316667	1	1.480250
20.333333	1	1.493000
20.350000	1	1.508000
20.366667	1	1.525875
20.383333	1	1.544375
20.400000	1	1.564250
20.416667	1	1.583625
20.433333	1	1.602750
20.450000	1	1.619000
20.466667	1	1.632875
20.483333	1	1.643125
20.500000	1	1.649875
20.516667	1	1.651625
20.533333	1	1.649375
20.550000	1	1.642250
20.566667	1	1.631500
20.583333	1	1.616625
20.600000	1	1.598250
20.616667	1	1.577625
20.633333	1	1.556500
20.650000	1	1.534250
20.666667	1	1.512000
20.683333	1	1.492250
20.700000	1	1.475875
20.716667	1	1.463500
20.733333	1	1.456500
20.750000	1	1.454625
20.766667	1	1.459250
20.783333	1	1.471625
20.800000	1	1.491125
20.816667	1	1.517875
20.833333	1	1.552000
20.850000	1	1.592125
20.866667	1	1.636875
20.883333	1	1.684625
20.900000	1	1.734500
20.916667	1	1.784625
20.933333	1	1.832250
20.950000	1	1.875250
20.966667	1	1.912625
20.983333	1	1.942250
21.000000	1	1.962750
21.016667	1	1.972750
21.033333	1	1.972375
21.050000	1	1.961375
21.066667	1	1.939250
21.083333	1	1.906750
21.100000	1	1.864375
21.116667	1	1.814250
21.133333	1	1.757000
21.150000	1	1.693250
21.166667	1	1.625250
21.183333	1	1.555125
21.200000	1	1.482000
21.216667	1	1.409375
21.233333	1	1.336875
21.250000	1	1.267375
21.266667	1	1.199750
21.283333	1	1.135375
21.300000	1	1.075000
21.316667	1	1.019125
21.333333	1	0.966250
21.350000	1	0.918625
21.366667	1	0.874000
21.383333	1	0.833125
21.400000	1	0.796750
21.416667	1	0.764625
21.433333	1	0.735125
21.450000	1	0.709625
21.466667	1	0.686125
21.483333	1	0.666375
21.500000	1	0.648750
21.516667	1	0.633625
21.533333	1	0.620125
21.550000	1	0.609125
21.566667	1	0.598875
21.583333	1	0.590000
21.600000	1	0.581750
21.616667	1	0.575000
21.633333	1	0.569625
21.650000	1	0.563750
21.666667	1	0.559500
21.683333	1	0.555000
21.700000	1	0.551375
21.716667	1	0.548500
21.733333	1	0.545625
21.750000	1	0.542875
21.766667	1	0.541125
21.783333	1	0.539625
21.800000	1	0.538250
21.816667	1	0.537375
21.833333	1	0.537125
21.850000	1	0.537125
21.866667	1	0.539000
21.883333	1	0.540500
21.900000	1	0.542375
21.916667	1	0.545000
21.933333	1	0.548375
21.950000	1	0.551625
21.966667	1	0.554125
21.983333	1	0.557250
22.000000	1	0.560625
22.016667	1	0.563125
22.033333	1	0.566000
22.050000	1	0.568250
22.066667	1	0.570250
22.083333	1	0.571875
22.100000	1	0.572625
22.116667	1	0.573125
22.133333	1	0.573375
22.150000	1	0.572875
22.166667	1	0.572375
22.183333	1	0.570625
22.200000	1	0.568500
22.216667	1	0.567875
22.233333	1	0.566375
22.250000	1	0.565875
22.266667	1	0.565000
22.283333	1	0.565125
22.300000	1	0.564625
22.316667	1	0.565125
22.333333	1	0.565875
22.350000	1	0.567250
22.366667	1	0.569500
22.383333	1	0.572625
22.400000	1	0.576250
22.416667	1	0.579625
22.433333	1	0.585250
22.450000	1	0.591125
22.466667	1	0.596750
22.483333	1	0.602875
22.500000	1	0.609750
22.516667	1	0.615375
22.533333	1	0.622250
22.550000	1	0.628750
22.566667	1	0.635500
22.583333	1	0.642125
22.600000	1	0.648250
22.616667	1	0.653250
22.633333	1	0.658500
22.650000	1	0.663750
22.666667	1	0.668125
22.683333	1	0.672250
22.700000	1	0.674625
22.716667	1	0.676875
22.733333	1	0.678000
22.750000	1	0.678250
22.766667	1	0.677750
22.783333	1	0.676750
22.800000	1	0.674750
22.816667	1	0.671625
22.833333	1	0.667375
22.850000	1	0.662250
22.866667	1	0.656875
22.883333	1	0.651250
22.900000	1	0.645125
22.916667	1	0.639250
22.933333	1	0.632000
22.950000	1	0.624875
22.966667	1	0.617875
22.983333	1	0.611250
23.000000	1	0.605625
23.016667	1	0.599875
23.033333	1	0.594500
23.050000	1	0.590875
23.066667	1	0.587125
23.083333	1	0.585250
23.100000	1	0.584375
23.116667	1	0.584750
23.133333	1	0.585875
23.150000	1	0.589250
23.166667	1	0.593625
23.183333	1	0.599250
23.200000	1	0.607250
23.216667	1	0.617375
23.233333	1	0.629875
23.250000	1	0.644000
23.266667	1	0.661000
23.283333	1	0.679250
23.300000	1	0.700250
23.316667	1	0.723500
23.333333	1	0.749375
23.350000	1	0.778875
23.366667	1	0.810625
23.383333	1	0.844875
23.400000	1	0.883500
23.416667	1	0.925625
23.433333	1	0.971250
23.450000	1	1.021875
23.466667	1	1.076375
23.483333	1	1.136500
23.500000	1	1.202125
23.516667	1	1.275125
23.533333	1	1.355000
23.550000	1	1.443625
23.566667	1	1.541500
23.583333	1	1.650500
23.600000	1	1.771500
23.616667	1	1.904875
23.633333	1	2.053125
23.650000	1	2.215375
23.666667	1	2.392625
23.683333	1	2.585250
23.700000	1	2.792875
23.716667	1	3.015500
23.733333	1	3.251125
23.750000	1	3.498000
23.766667	1	3.753750
23.783333	1	4.015125
23.800000	1	4.277750
23.816667	1	4.536750
23.833333	1	4.788875
23.850000	1	5.029625
23.866667	1	5.253500
23.883333	1	5.455375
23.900000	1	5.632375
23.916667	1	5.779250
23.933333	1	5.894000
23.950000	1	5.973625
23.966667	1	6.016500
23.983333	1	6.021875
24.000000	1	5.990250
24.016667	1	5.923125
24.033333	1	5.821500
24.050000	1	5.688750
24.066667	1	5.528625
24.083333	1	5.344125
24.100000	1	5.139000
24.116667	1	4.917375
24.133333	1	4.683250
24.150000	1	4.440750
24.166667	1	4.193750
24.183333	1	3.946125
24.200000	1	3.700750
24.216667	1	3.460750
24.233333	1	3.228000
24.250000	1	3.005375
24.266667	1	2.794500
24.283333	1	2.596875
24.300000	1	2.411625
24.316667	1	2.240000
24.333333	1	2.081250
24.350000	1	1.936625
24.366667	1	1.804875
24.383333	1	1.686875
24.400000	1	1.580125
24.416667	1	1.484875
24.433333	1	1.400625
24.450000	1	1.326125
24.466667	1	1.259500
24.483333	1	1.201000
24.500000	1	1.149625
24.516667	1	1.103625
24.533333	1	1.063000
24.550000	1	1.027000
24.566667	1	0.994125
24.583333	1	0.964875
24.600000	1	0.937500
24.616667	1	0.912375
24.633333	1	0.889000
24.650000	1	0.866500
24.666667	1	0.844000
24.683333	1	0.822625
24.700000	1	0.802125
24.716667	1	0.780750
24.733333	1	0.760125
24.750000	1	0.740125
24.766667	1	0.719125
24.783333	1	0.697750
24.800000	1	0.676625
24.816667	1	0.655875
24.833333	1	0.635375
24.850000	1	0.615250
24.866667	1	0.595375
24.883333	1	0.576375
24.900000	1	0.558125
24.916667	1	0.539750
24.933333	1	0.522250
24.950000	1	0.505750
24.966667	1	0.490000
24.983333	1	0.474875
25.000000	1	0.460750
25.016667	1	0.447500
25.033333	1	0.436125
25.050000	1	0.426000
25.066667	1	0.416500
25.083333	1	0.408125
25.100000	1	0.400125
25.116667	1	0.393375
25.133333	1	0.388000
25.150000	1	0.383500
25.166667	1	0.379500
25.183333	1	0.376125
25.200000	1	0.373625
25.216667	1	0.372000
25.233333	1	0.371500
25.250000	1	0.371750
25.266667	1	0.372375
25.283333	1	0.373125
25.300000	1	0.374500
25.316667	1	0.376500
25.333333	1	0.378625
25.350000	1	0.380375
25.366667	1	0.383500
25.383333	1	0.385750
25.400000	1	0.388625
25.416667	1	0.391250
25.433333	1	0.393875
25.450000	1	0.397125
25.466667	1	0.399375
25.483333	1	0.402500
25.500000	1	0.405250
25.516667	1	0.407500
25.533333	1	0.408750
25.550000	1	0.410000
25.566667	1	0.410875
25.583333	1	0.411875
25.600000	1	0.412000
25.616667	1	0.412750
25.633333	1	0.413000
25.650000	1	0.412625
25.666667	1	0.412750
25.683333	1	0.411625
25.700000	1	0.410625
25.716667	1	0.409250
25.733333	1	0.407375
25.750000	1	0.405375
25.766667	1	0.402625
25.783333	1	0.400250
25.800000	1	0.397500
25.816667	1	0.394125
25.833333	1	0.390625
25.850000	1	0.387125
25.866667	1	0.382500
25.883333	1	0.377375
25.900000	1	0.372125
25.916667	1	0.365875
25.933333	1	0.359625
25.950000	1	0.352625
25.966667	1	0.344500
25.983333	1	0.335250
26.000000	1	0.326125
26.016667	1	0.315750
26.033333	1	0.303625
26.050000	1	0.291625
26.066667	1	0.279500
26.083333	1	0.267125
26.100000	1	0.253875
26.116667	1	0.239375
26.133333	1	0.223750
26.150000	1	0.208625
26.166667	1	0.193000
26.183333	1	0.177500
26.200000	1	0.162375
26.216667	1	0.148625
26.233333	1	0.133875
26.250000	1	0.119875
26.266667	1	0.105625
26.283333	1	0.093250
26.300000	1	0.081250
26.316667	1	0.070125
26.333333	1	0.059875
26.350000	1	0.050875
26.366667	1	0.043375
26.383333	1	0.036875
26.400000	1	0.031500
26.416667	1	0.027000
26.433333	1	0.023375
26.450000	1	0.021625
26.466667	1	0.020375
26.483333	1	0.019875
26.500000	1	0.020125
26.516667	1	0.020125
26.533333	1	0.020875
26.550000	1	0.022125
26.566667	1	0.023500
26.583333	1	0.025125
26.600000	1	0.026500
26.616667	1	0.027625
26.633333	1	0.028875
26.650000	1	0.030375
26.666667	1	0.031750
26.683333	1	0.032250
26.700000	1	0.032875
26.716667	1	0.033125
26.733333	1	0.033375
26.750000	1	0.033375
26.766667	1	0.032875
26.783333	1	0.032750
26.800000	1	0.033250
26.816667	1	0.033875
26.833333	1	0.033750
26.850000	1	0.034250
26.866667	1	0.035250
26.883333	1	0.036625
26.900000	1	0.038625
26.916667	1	0.041500
26.933333	1	0.044250
26.950000	1	0.048250
26.966667	1	0.052750
26.983333	1	0.057250
27.000000	1	0.063125
27.016667	1	0.069625
27.033333	1	0.076750
27.050000	1	0.084375
27.066667	1	0.093375
27.083333	1	0.103250
27.100000	1	0.113875
27.116667	1	0.125000
27.133333	1	0.137375
27.150000	1	0.150500
27.166667	1	0.164000
27.183333	1	0.178250
27.200000	1	0.194500
27.216667	1	0.211000
27.233333	1	0.228625
27.250000	1	0.246625
27.266667	1	0.266250
27.283333	1	0.286250
27.300000	1	0.307500
27.316667	1	0.330125
27.333333	1	0.353500
27.350000	1	0.377625
27.366667	1	0.402875
27.383333	1	0.430125
27.400000	1	0.458875
27.416667	1	0.489875
27.433333	1	0.521500
27.450000	1	0.555000
27.466667	1	0.590375
27.483333	1	0.628375
27.500000	1	0.669375
27.516667	1	0.713000
27.533333	1	0.759875
27.550000	1	0.809625
27.566667	1	0.864125
27.583333	1	0.923375
27.600000	1	0.988000
27.616667	1	1.058125
27.633333	1	1.134375
27.650000	1	1.217500
27.666667	1	1.307250
27.683333	1	1.404375
27.700000	1	1.508500
27.716667	1	1.621125
27.733333	1	1.741375
27.750000	1	1.869125
27.766667	1	2.003875
27.783333	1	2.144625
27.800000	1	2.291250
27.816667	1	2.443125
27.833333	1	2.598750
27.850000	1	2.757500
27.866667	1	2.917375
27.883333	1	3.076750
27.900000	1	3.233375
27.916667	1	3.386125
27.933333	1	3.532125
27.950000	1	3.669375
27.966667	1	3.795625
27.983333	1	3.909875
28.000000	1	4.009875
28.016667	1	4.093500
28.033333	1	4.159625
28.050000	1	4.206750
28.066667	1	4.233375
28.083333	1	4.239750
28.100000	1	4.225625
28.116667	1	4.190500
28.133333	1	4.136125
28.150000	1	4.061000
28.166667	1	3.967500
28.183333	1	3.856500
28.200000	1	3.729625
28.216667	1	3.589125
28.233333	1	3.437375
28.250000	1	3.275375
28.266667	1	3.104625
28.283333	1	2.928625
28.300000	1	2.749250
28.316667	1	2.567875
28.333333	1	2.387750
28.350000	1	2.209750
28.366667	1	2.035750
28.383333	1	1.866625
28.400000	1	1.703875
28.416667	1	1.548125
28.433333	1	1.400875
28.450000	1	1.260250
28.466667	1	1.128375
28.483333	1	1.005500
28.500000	1	0.889375
28.516667	1	0.781625
28.533333	1	0.681625
28.550000	1	0.588500
28.566667	1	0.501750
28.583333	1	0.421000
28.600000	1	0.345875
28.616667	1	0.275500
28.633333	1	0.210250
28.650000	1	0.148250
28.666667	1	0.090000
28.683333	1	0.034375
28.700000	1	-0.019250
28.716667	1	-0.070750
28.733333	1	-0.120625
28.750000	1	-0.167625
28.766667	1	-0.212750
28.783333	1	-0.256750
28.800000	1	-0.298750
28.816667	1	-0.339250
28.833333	1	-0.377875
28.850000	1	-0.414250
28.866667	1	-0.448625
28.883333	1	-0.480875
28.900000	1	-0.511500
28.916667	1	-0.539125
28.933333	1	-0.564625
28.950000	1	-0.586375
28.966667	1	-0.605750
28.983333	1	-0.621750
29.000000	1	-0.634625
29.016667	1	-0.644000
29.033333	1	-0.650500
29.050000	1	-0.652875
29.066667	1	-0.651250
29.083333	1	-0.646000
29.100000	1	-0.637375
29.116667	1	-0.625875
29.133333	1	-0.610625
29.150000	1	-0.592250
29.166667	1	-0.570250
29.183333	1	-0.546000
29.200000	1	-0.518250
29.216667	1	-0.488875
29.233333	1	-0.457000
29.250000	1	-0.422875
29.266667	1	-0.387125
29.283333	1	-0.349500
29.300000	1	-0.311875
29.316667	1	-0.273250
29.333333	1	-0.233125
29.350000	1	-0.193625
29.366667	1	-0.153125
29.383333	1	-0.112625
29.400000	1	-0.073000
29.416667	1	-0.034500
29.433333	1	0.004500
29.450000	1	0.043625
29.466667	1	0.081125
29.483333	1	0.117125
29.500000	1	0.152250
29.516667	1	0.186500
29.533333	1	0.219125
29.550000	1	0.250500
29.566667	1	0.280375
29.583333	1	0.308500
29.600000	1	0.335375
29.616667	1	0.361250
29.633333	1	0.384375
29.650000	1	0.406625
29.666667	1	0.428000
29.683333	1	0.447250
29.700000	1	0.464625
29.716667	1	0.480625
29.733333	1	0.494875
29.750000	1	0.507500
29.766667	1	0.518875
29.783333	1	0.528625
29.800000	1	0.537125
29.816667	1	0.544625
29.833333	1	0.550125
29.850000	1	0.554500
29.866667	1	0.558625
29.883333	1	0.560750
29.900000	1	0.561625
29.916667	1	0.562625
29.933333	1	0.562625
29.950000	1	0.561125
29.966667	1	0.559125
29.983333	1	0.557125
30.000000	1	0.554375
30.016667	1	0.551750
30.033333	1	0.548750
30.050000	1	0.544875
30.066667	1	0.541375
30.083333	1	0.537375
30.100000	1	0.533500
30.116667	1	0.529625
30.133333	1	0.525000
30.150000	1	0.521250
30.166667	1	0.516500
30.183333	1	0.512625
30.200000	1	0.509250
30.216667	1	0.505625
30.233333	1	0.501500
30.250000	1	0.497250
30.266667	1	0.493875
30.283333	1	0.490625
30.300000	1	0.486875
30.316667	1	0.483500
30.333333	1	0.479625
30.350000	1	0.477125
30.366667	1	0.473875
30.383333	1	0.472125
30.400000	1	0.468875
30.416667	1	0.466500
30.433333	1	0.464000
30.450000	1	0.461875
30.466667	1	0.459500
30.483333	1	0.458125
30.500000	1	0.457250
30.516667	1	0.456750
30.533333	1	0.456250
30.550000	1	0.456750
30.566667	1	0.457250
30.583333	1	0.458375
30.600000	1	0.460000
30.616667	1	0.462000
30.633333	1	0.464625
30.650000	1	0.468125
30.666667	1	0.472625
30.683333	1	0.476500
30.700000	1	0.480750
30.716667	1	0.485500
30.733333	1	0.490250
30.750000	1	0.496000
30.766667	1	0.501250
30.783333	1	0.506500
30.800000	1	0.511875
30.816667	1	0.517625
30.833333	1	0.522375
30.850000	1	0.526375
30.866667	1	0.531125
30.883333	1	0.535375
30.900000	1	0.538625
30.916667	1	0.540875
30.933333	1	0.542625
30.950000	1	0.543625
30.966667	1	0.543250
30.983333	1	0.542625
31.000000	1	0.540875
31.016667	1	0.537875
31.033333	1	0.533875
31.050000	1	0.529250
31.066667	1	0.523625
31.083333	1	0.517625
31.100000	1	0.510750
31.116667	1	0.502875
31.133333	1	0.494375
31.150000	1	0.485125
31.166667	1	0.476375
31.183333	1	0.467000
31.200000	1	0.457125
31.216667	1	0.447125
31.233333	1	0.437000
31.250000	1	0.427125
31.266667	1	0.417250
31.283333	1	0.408250
31.300000	1	0.399250
31.316667	1	0.391000
31.333333	1	0.382375
31.350000	1	0.374125
31.366667	1	0.367250
31.383333	1	0.360500
31.400000	1	0.354375
31.416667	1	0.348625
31.433333	1	0.342875
31.450000	1	0.337875
31.466667	1	0.333625
31.483333	1	0.329500
31.500000	1	0.326750
31.516667	1	0.324375
31.533333	1	0.321875
31.550000	1	0.320375
31.566667	1	0.319125
31.583333	1	0.319000
31.600000	1	0.318375
31.616667	1	0.318500
31.633333	1	0.319125
31.650000	1	0.320000
31.666667	1	0.321750
31.683333	1	0.323125
31.700000	1	0.324750
31.716667	1	0.327375
31.733333	1	0.330750
31.750000	1	0.334125
31.766667	1	0.337750
31.783333	1	0.341625
31.800000	1	0.345000
31.816667	1	0.349250
31.833333	1	0.353875
31.850000	1	0.359000
31.866667	1	0.364000
31.883333	1	0.368375
31.900000	1	0.374125
31.916667	1	0.379375
31.933333	1	0.384375
31.950000	1	0.389750
31.966667	1	0.395125
31.983333	1	0.401125
32.000000	1	0.406875
32.016667	1	0.411375
32.033333	1	0.416750
32.050000	1	0.420875
32.066667	1	0.425125
32.083333	1	0.428875
32.100000	1	0.432875
32.116667	1	0.435500
32.133333	1	0.438250
32.150000	1	0.440375
32.166667	1	0.442125
32.183333	1	0.442750
32.200000	1	0.443125
32.216667	1	0.442625
32.233333	1	0.441750
32.250000	1	0.439875
32.266667	1	0.437750
32.283333	1	0.434375
32.300000	1	0.431500
32.316667	1	0.427625
32.333333	1	0.423375
32.350000	1	0.418250
32.366667	1	0.412500
32.383333	1	0.406750
32.400000	1	0.400375
32.416667	1	0.393000
32.433333	1	0.385875
32.450000	1	0.378875
32.466667	1	0.371250
32.483333	1	0.363500
32.500000	1	0.355750
32.516667	1	0.348000
32.533333	1	0.339875
32.550000	1	0.331875
32.566667	1	0.323250
32.583333	1	0.315125
32.600000	1	0.307250
32.616667	1	0.299250
32.633333	1	0.290875
32.650000	1	0.282000
32.666667	1	0.273500
32.683333	1	0.265625
32.700000	1	0.257625
32.716667	1	0.249500
32.733333	1	0.240875
32.750000	1	0.233375
32.766667	1	0.225875
32.783333	1	0.218250
32.800000	1	0.211125
32.816667	1	0.204125
32.833333	1	0.197500
32.850000	1	0.190375
32.866667	1	0.183625
32.883333	1	0.177250
32.900000	1	0.172125
32.916667	1	0.166250
32.933333	1	0.161125
32.950000	1	0.155875
32.966667	1	0.151500
32.983333	1	0.146750
33.000000	1	0.142500
33.016667	1	0.138625
33.033333	1	0.134750
33.050000	1	0.131000
33.066667	1	0.128250
33.083333	1	0.126500
33.100000	1	0.124000
33.116667	1	0.121375
33.133333	1	0.119750
33.150000	1	0.118125
33.166667	1	0.116500
33.183333	1	0.115375
33.200000	1	0.115250
33.216667	1	0.113625
33.233333	1	0.111750
33.250000	1	0.111375
33.266667	1	0.110500
33.283333	1	0.110250
33.300000	1	0.110000
33.316667	1	0.109250
33.333333	1	0.109500
33.350000	1	0.110125
33.366667	1	0.110000
33.383333	1	0.110500
33.400000	1	0.111375
33.416667	1	0.111000
33.433333	1	0.110625
33.450000	1	0.111000
33.466667	1	0.109750
33.483333	1	0.110125
33.500000	1	0.110250
33.516667	1	0.110375
33.533333	1	0.110500
33.550000	1	0.110250
33.566667	1	0.110625
33.583333	1	0.110250
33.600000	1	0.109875
33.616667	1	0.109250
33.633333	1	0.108125
33.650000	1	0.107125
33.666667	1	0.106500
33.683333	1	0.105500
33.700000	1	0.104750
33.716667	1	0.104500
33.733333	1	0.104500
33.750000	1	0.104250
33.766667	1	0.103375
33.783333	1	0.102250
33.800000	1	0.101125
33.816667	1	0.100375
33.833333	1	0.099375
33.850000	1	0.098750
33.866667	1	0.098500
33.883333	1	0.098125
33.900000	1	0.098000
33.916667	1	0.097125
33.933333	1	0.096250
33.950000	1	0.095750
33.966667	1	0.096000
33.983333	1	0.095625
34.000000	1	0.095250
34.016667	1	0.094250
34.033333	1	0.094125
34.050000	1	0.093500
34.066667	1	0.093750
34.083333	1	0.093625
34.100000	1	0.093000
34.116667	1	0.093625
34.133333	1	0.093750
34.150000	1	0.094125
34.166667	1	0.094250
34.183333	1	0.094500
34.200000	1	0.095000
34.216667	1	0.095875
34.233333	1	0.096875
34.250000	1	0.098250
34.266667	1	0.099000
34.283333	1	0.099500
34.300000	1	0.100875
34.316667	1	0.102000
34.333333	1	0.103250
34.350000	1	0.104250
34.366667	1	0.105875
34.383333	1	0.107375
34.400000	1	0.108250
34.416667	1	0.109500
34.433333	1	0.110250
34.450000	1	0.111125
34.466667	1	0.111750
34.483333	1	0.112000
34.500000	1	0.113000
34.516667	1	0.113375
34.533333	1	0.114750
34.550000	1	0.115500
34.566667	1	0.116125
34.583333	1	0.116625
34.600000	1	0.116750
34.616667	1	0.116750
34.633333	1	0.117375
34.650000	1	0.117500
34.666667	1	0.118125
34.683333	1	0.118375
34.700000	1	0.118125
34.716667	1	0.118000
34.733333	1	0.118000
34.750000	1	0.117875
34.766667	1	0.117875
34.783333	1	0.117750
34.800000	1	0.117750
34.816667	1	0.117875
34.833333	1	0.117500
34.850000	1	0.117375
34.866667	1	0.118000
34.883333	1	0.118750
34.900000	1	0.119500
34.916667	1	0.120750
34.933333	1	0.121625
34.950000	1	0.122375
34.966667	1	0.123625
34.983333	1	0.124500
35.000000	1	0.125375
35.016667	1	0.127000
35.033333	1	0.128875
35.050000	1	0.131125
35.066667	1	0.132750
35.083333	1	0.135250
35.100000	1	0.137625
35.116667	1	0.139500
35.133333	1	0.141625
35.150000	1	0.144750
35.166667	1	0.148000
35.183333	1	0.151000
35.200000	1	0.154250
35.216667	1	0.157875
35.233333	1	0.160625
35.250000	1	0.163625
35.266667	1	0.167000
35.283333	1	0.171000
35.300000	1	0.174375
35.316667	1	0.178000
35.333333	1	0.181750
35.350000	1	0.185625
35.366667	1	0.188625
35.383333	1	0.192625
35.400000	1	0.195750
35.416667	1	0.199250
35.433333	1	0.201375
35.450000	1	0.204375
35.466667	1	0.208125
35.483333	1	0.211000
35.500000	1	0.213750
35.516667	1	0.216250
35.533333	1	0.218625
35.550000	1	0.220500
35.566667	1	0.222875
35.583333	1	0.224625
35.600000	1	0.226125
35.616667	1	0.228250
35.633333	1	0.229875
35.650000	1	0.230750
35.666667	1	0.232375
35.683333	1	0.234250
35.700000	1	0.235750
35.716667	1	0.236500
35.733333	1	0.237125
35.750000	1	0.237500
35.766667	1	0.238000
35.783333	1	0.238250
35.800000	1	0.238250
35.816667	1	0.238500
35.833333	1	0.239125
35.850000	1	0.239000
35.866667	1	0.239125
35.883333	1	0.239000
35.900000	1	0.239000
35.916667	1	0.239750
35.933333	1	0.240250
35.950000	1	0.240125
35.966667	1	0.240750
35.983333	1	0.240375
36.000000	1	0.240375
36.016667	1	0.240750
36.033333	1	0.241625
36.050000	1	0.242500
36.066667	1	0.243625
36.083333	1	0.244000
36.100000	1	0.244625
36.116667	1	0.244750
36.133333	1	0.244625
36.150000	1	0.244750
36.166667	1	0.245250
36.183333	1	0.244875
36.200000	1	0.245000
36.216667	1	0.244625
36.233333	1	0.244500
36.250000	1	0.243875
36.266667	1	0.243250
36.283333	1	0.243000
36.300000	1	0.242125
36.316667	1	0.241750
36.333333	1	0.240875
36.350000	1	0.239875
36.366667	1	0.239375
36.383333	1	0.237250
36.400000	1	0.235875
36.416667	1	0.234125
36.433333	1	0.232250
36.450000	1	0.230625
36.466667	1	0.228375
36.483333	1	0.226625
36.500000	1	0.224875
36.516667	1	0.223375
36.533333	1	0.220750
36.550000	1	0.217625
36.566667	1	0.215125
36.583333	1	0.212375
36.600000	1	0.210250
36.616667	1	0.208000
36.633333	1	0.205500
36.650000	1	0.202125
36.666667	1	0.199375
36.683333	1	0.196875
36.700000	1	0.194375
36.716667	1	0.191500
36.733333	1	0.188625
36.750000	1	0.185250
36.766667	1	0.182250
36.783333	1	0.179250
36.800000	1	0.176000
36.816667	1	0.172375
36.833333	1	0.168875
36.850000	1	0.166125
36.866667	1	0.163125
36.883333	1	0.160500
36.900000	1	0.156875
36.916667	1	0.153375
36.933333	1	0.149500
36.950000	1	0.145625
36.966667	1	0.142250
36.983333	1	0.138500
37.000000	1	0.134875
37.016667	1	0.131125
37.033333	1	0.127125
37.050000	1	0.124000
37.066667	1	0.120500
37.083333	1	0.117625
37.100000	1	0.113750
37.116667	1	0.110625
37.133333	1	0.107625
37.150000	1	0.104500
37.166667	1	0.101250
37.183333	1	0.097500
37.200000	1	0.093875
37.216667	1	0.090750
37.233333	1	0.087375
37.250000	1	0.084000
37.266667	1	0.081000
37.283333	1	0.077500
37.300000	1	0.074875
37.316667	1	0.072250
37.333333	1	0.070125
37.350000	1	0.067500
37.366667	1	0.065000
37.383333	1	0.061875
37.400000	1	0.059250
37.416667	1	0.056500
37.433333	1	0.053875
37.450000	1	0.051875
37.466667	1	0.050250
37.483333	1	0.048375
37.500000	1	0.047625
37.516667	1	0.046625
37.533333	1	0.045500
37.550000	1	0.044000
37.566667	1	0.043375
37.583333	1	0.042500
37.600000	1	0.041750
37.616667	1	0.041125
37.633333	1	0.040500
37.650000	1	0.039625
37.666667	1	0.039375
37.683333	1	0.039500
37.700000	1	0.039000
37.716667	1	0.038500
37.733333	1	0.038250
37.750000	1	0.038125
37.766667	1	0.037500
37.783333	1	0.037125
37.800000	1	0.037625
37.816667	1	0.037750
37.833333	1	0.038125
37.850000	1	0.038250
37.866667	1	0.038125
37.883333	1	0.038375
37.900000	1	0.039250
37.916667	1	0.039625
37.933333	1	0.039875
37.950000	1	0.041000
37.966667	1	0.041250
37.983333	1	0.042625
38.000000	1	0.043375
38.016667	1	0.044625
38.033333	1	0.045500
38.050000	1	0.046125
38.066667	1	0.047375
38.083333	1	0.048750
38.100000	1	0.049500
38.116667	1	0.050875
38.133333	1	0.052625
38.150000	1	0.053625
38.166667	1	0.054250
38.183333	1	0.055000
38.200000	1	0.055375
38.216667	1	0.056000
38.233333	1	0.056500
38.250000	1	0.057500
38.266667	1	0.057500
38.283333	1	0.058500
38.300000	1	0.059750
38.316667	1	0.060875
38.333333	1	0.061750
38.350000	1	0.061125
38.366667	1	0.061375
38.383333	1	0.061625
38.400000	1	0.062000
38.416667	1	0.062125
38.433333	1	0.062750
38.450000	1	0.063250
38.466667	1	0.063625
38.483333	1	0.064000
38.500000	1	0.063750
38.516667	1	0.063125
38.533333	1	0.062750
38.550000	1	0.062250
38.566667	1	0.061750
38.583333	1	0.061625
38.600000	1	0.060375
38.616667	1	0.060250
38.633333	1	0.060000
38.650000	1	0.059125
38.666667	1	0.058625
38.683333	1	0.058125
38.700000	1	0.057875
38.716667	1	0.056750
38.733333	1	0.056250
38.750000	1	0.055250
38.766667	1	0.054375
38.783333	1	0.053125
38.800000	1	0.052250
38.816667	1	0.052750
38.833333	1	0.051875
38.850000	1	0.051250
38.866667	1	0.051250
38.883333	1	0.050625
38.900000	1	0.049750
38.916667	1	0.049375
38.933333	1	0.049500
38.950000	1	0.049375
38.966667	1	0.049375
38.983333	1	0.049375
39.000000	1	0.048875
39.016667	1	0.048875
39.033333	1	0.048750
39.050000	1	0.048875
39.066667	1	0.048625
39.083333	1	0.049250
39.100000	1	0.049500
39.116667	1	0.049125
39.133333	1	0.049125
39.150000	1	0.049625
39.166667	1	0.050000
39.183333	1	0.050250
39.200000	1	0.050000
39.216667	1	0.049750
39.233333	1	0.049875
39.250000	1	0.051250
39.266667	1	0.051625
39.283333	1	0.051875
39.300000	1	0.052500
39.316667	1	0.052000
39.333333	1	0.052375
39.350000	1	0.052500
39.366667	1	0.052500
39.383333	1	0.052125
39.400000	1	0.053250
39.416667	1	0.053375
39.433333	1	0.053500
39.450000	1	0.053500
39.466667	1	0.054125
39.483333	1	0.054375
39.500000	1	0.054250
39.516667	1	0.054125
39.533333	1	0.054625
39.550000	1	0.054875
39.566667	1	0.054750
39.583333	1	0.055250
39.600000	1	0.055875
39.616667	1	0.057125
39.633333	1	0.058250
39.650000	1	0.058125
39.666667	1	0.058375
39.683333	1	0.059875
39.700000	1	0.060500
39.716667	1	0.061250
39.733333	1	0.061625
39.750000	1	0.062375
39.766667	1	0.063125
39.783333	1	0.064875
39.800000	1	0.065250
39.816667	1	0.066125
39.833333	1	0.066375
39.850000	1	0.066875
39.866667	1	0.067375
39.883333	1	0.068250
39.900000	1	0.068875
39.916667	1	0.069500
39.933333	1	0.070000
39.950000	1	0.070000
39.966667	1	0.070750
39.983333	1	0.071750
40.000000	1	0.073125
