File Path	chrom://marshall/Chromeleon7/HPLC_Ultimate_3000/Users/markusar/20221226.seq/582.smp/RI_1.channel/RI_1.chm
Channel	RI_1

Injection Information:
Data Vault	Chromeleon7
Injection	ca1.1
Injection Number	26
Position	RD2
Comment	
Processing Method	
Instrument Method	std_method
Type	Unknown
Status	Finished
Injection Date	27.12.2022
Injection Time	09:14:52
Injection Volume (µl)	20.000
Dilution Factor	1.0000
Weight	1.0000

Chromatogram Data Information:
Time Min. (min)	0.000000
Time Max. (min)	40.000000
Data Points	2401
Detector	RI
Generating Data System	Chromeleon 7.2.5.9507
Exporting Data System	Chromeleon 7.2.5.0
Operator	Instrument Controller
Signal Quantity	Refractive 
Signal Unit	µRIU
Signal Min.	-0.307750
Signal Max.	94.922625
Channel	RI_1
Driver Name	RID520Driver.dll
Channel Type	Evaluation
Min. Step (s)	1
Max. Step (s)	1
Average Step (s)	1

Signal Parameter Information:
Signal Info	

Chromatogram Data:
Time (min)	Step (s)	Value (µRIU)
0.000000	n.a.	0.102750
0.016667	1	0.102750
0.033333	1	0.101750
0.050000	1	0.101375
0.066667	1	0.100375
0.083333	1	0.100375
0.100000	1	0.099625
0.116667	1	0.099250
0.133333	1	0.097875
0.150000	1	0.097000
0.166667	1	0.095875
0.183333	1	0.095375
0.200000	1	0.093500
0.216667	1	0.091500
0.233333	1	0.090375
0.250000	1	0.088625
0.266667	1	0.086375
0.283333	1	0.083625
0.300000	1	0.078750
0.316667	1	0.073250
0.333333	1	0.070000
0.350000	1	0.070875
0.366667	1	0.073750
0.383333	1	0.076250
0.400000	1	0.077125
0.416667	1	0.077375
0.433333	1	0.077125
0.450000	1	0.076625
0.466667	1	0.075750
0.483333	1	0.071875
0.500000	1	0.066750
0.516667	1	0.061625
0.533333	1	0.056750
0.550000	1	0.053500
0.566667	1	0.050375
0.583333	1	0.047625
0.600000	1	0.045375
0.616667	1	0.042625
0.633333	1	0.040500
0.650000	1	0.038750
0.666667	1	0.036750
0.683333	1	0.034875
0.700000	1	0.032875
0.716667	1	0.030750
0.733333	1	0.029625
0.750000	1	0.028875
0.766667	1	0.027125
0.783333	1	0.025750
0.800000	1	0.023750
0.816667	1	0.022250
0.833333	1	0.021250
0.850000	1	0.020625
0.866667	1	0.019375
0.883333	1	0.018000
0.900000	1	0.016375
0.916667	1	0.014875
0.933333	1	0.012875
0.950000	1	0.011375
0.966667	1	0.010250
0.983333	1	0.009000
1.000000	1	0.007250
1.016667	1	0.006375
1.033333	1	0.004500
1.050000	1	0.002750
1.066667	1	0.001625
1.083333	1	0.000125
1.100000	1	-0.001875
1.116667	1	-0.003125
1.133333	1	-0.005500
1.150000	1	-0.007375
1.166667	1	-0.009000
1.183333	1	-0.010250
1.200000	1	-0.011750
1.216667	1	-0.013375
1.233333	1	-0.015375
1.250000	1	-0.017500
1.266667	1	-0.019375
1.283333	1	-0.021750
1.300000	1	-0.024250
1.316667	1	-0.026000
1.333333	1	-0.028125
1.350000	1	-0.030375
1.366667	1	-0.033000
1.383333	1	-0.036000
1.400000	1	-0.037750
1.416667	1	-0.040250
1.433333	1	-0.042000
1.450000	1	-0.044500
1.466667	1	-0.047375
1.483333	1	-0.049125
1.500000	1	-0.052125
1.516667	1	-0.054625
1.533333	1	-0.057125
1.550000	1	-0.059500
1.566667	1	-0.061750
1.583333	1	-0.064125
1.600000	1	-0.066125
1.616667	1	-0.067750
1.633333	1	-0.070375
1.650000	1	-0.073000
1.666667	1	-0.075125
1.683333	1	-0.077750
1.700000	1	-0.079875
1.716667	1	-0.081625
1.733333	1	-0.084000
1.750000	1	-0.085625
1.766667	1	-0.087500
1.783333	1	-0.090125
1.800000	1	-0.092500
1.816667	1	-0.094000
1.833333	1	-0.096000
1.850000	1	-0.097750
1.866667	1	-0.099500
1.883333	1	-0.101125
1.900000	1	-0.102750
1.916667	1	-0.104500
1.933333	1	-0.106000
1.950000	1	-0.108125
1.966667	1	-0.110250
1.983333	1	-0.111500
2.000000	1	-0.112750
2.016667	1	-0.114000
2.033333	1	-0.116250
2.050000	1	-0.117875
2.066667	1	-0.119250
2.083333	1	-0.121125
2.100000	1	-0.122375
2.116667	1	-0.123500
2.133333	1	-0.124875
2.150000	1	-0.126375
2.166667	1	-0.128000
2.183333	1	-0.129375
2.200000	1	-0.130625
2.216667	1	-0.132375
2.233333	1	-0.134250
2.250000	1	-0.134625
2.266667	1	-0.135375
2.283333	1	-0.137000
2.300000	1	-0.138125
2.316667	1	-0.138875
2.333333	1	-0.139750
2.350000	1	-0.140375
2.366667	1	-0.140625
2.383333	1	-0.142250
2.400000	1	-0.143125
2.416667	1	-0.143500
2.433333	1	-0.144250
2.450000	1	-0.144625
2.466667	1	-0.145500
2.483333	1	-0.145750
2.500000	1	-0.146375
2.516667	1	-0.146375
2.533333	1	-0.146625
2.550000	1	-0.146750
2.566667	1	-0.146625
2.583333	1	-0.146625
2.600000	1	-0.146625
2.616667	1	-0.146125
2.633333	1	-0.145875
2.650000	1	-0.145375
2.666667	1	-0.145250
2.683333	1	-0.144750
2.700000	1	-0.144375
2.716667	1	-0.143125
2.733333	1	-0.142750
2.750000	1	-0.141375
2.766667	1	-0.139875
2.783333	1	-0.139000
2.800000	1	-0.138000
2.816667	1	-0.137000
2.833333	1	-0.135125
2.850000	1	-0.133625
2.866667	1	-0.132875
2.883333	1	-0.131250
2.900000	1	-0.129500
2.916667	1	-0.128000
2.933333	1	-0.126125
2.950000	1	-0.124125
2.966667	1	-0.122625
2.983333	1	-0.121250
3.000000	1	-0.119125
3.016667	1	-0.116875
3.033333	1	-0.115125
3.050000	1	-0.113375
3.066667	1	-0.110875
3.083333	1	-0.108500
3.100000	1	-0.106000
3.116667	1	-0.104375
3.133333	1	-0.101875
3.150000	1	-0.099625
3.166667	1	-0.097375
3.183333	1	-0.095625
3.200000	1	-0.093250
3.216667	1	-0.090250
3.233333	1	-0.088125
3.250000	1	-0.086000
3.266667	1	-0.084125
3.283333	1	-0.081875
3.300000	1	-0.079375
3.316667	1	-0.076875
3.333333	1	-0.074750
3.350000	1	-0.072250
3.366667	1	-0.070125
3.383333	1	-0.068125
3.400000	1	-0.065375
3.416667	1	-0.063000
3.433333	1	-0.060750
3.450000	1	-0.058000
3.466667	1	-0.056750
3.483333	1	-0.055000
3.500000	1	-0.052625
3.516667	1	-0.049750
3.533333	1	-0.047375
3.550000	1	-0.045250
3.566667	1	-0.042875
3.583333	1	-0.041000
3.600000	1	-0.038625
3.616667	1	-0.036750
3.633333	1	-0.035250
3.650000	1	-0.033125
3.666667	1	-0.031625
3.683333	1	-0.030375
3.700000	1	-0.028625
3.716667	1	-0.026875
3.733333	1	-0.025750
3.750000	1	-0.024125
3.766667	1	-0.022125
3.783333	1	-0.020500
3.800000	1	-0.018875
3.816667	1	-0.018125
3.833333	1	-0.017250
3.850000	1	-0.016125
3.866667	1	-0.015000
3.883333	1	-0.014500
3.900000	1	-0.014625
3.916667	1	-0.014000
3.933333	1	-0.013125
3.950000	1	-0.013000
3.966667	1	-0.012500
3.983333	1	-0.013000
4.000000	1	-0.012625
4.016667	1	-0.012375
4.033333	1	-0.012500
4.050000	1	-0.012625
4.066667	1	-0.013500
4.083333	1	-0.014000
4.100000	1	-0.014000
4.116667	1	-0.014250
4.133333	1	-0.015125
4.150000	1	-0.015500
4.166667	1	-0.015250
4.183333	1	-0.016125
4.200000	1	-0.016125
4.216667	1	-0.016500
4.233333	1	-0.016500
4.250000	1	-0.017375
4.266667	1	-0.018000
4.283333	1	-0.018750
4.300000	1	-0.019000
4.316667	1	-0.019375
4.333333	1	-0.019500
4.350000	1	-0.019875
4.366667	1	-0.020375
4.383333	1	-0.020875
4.400000	1	-0.021375
4.416667	1	-0.021500
4.433333	1	-0.021750
4.450000	1	-0.022000
4.466667	1	-0.022125
4.483333	1	-0.022500
4.500000	1	-0.023000
4.516667	1	-0.023250
4.533333	1	-0.022875
4.550000	1	-0.022875
4.566667	1	-0.022750
4.583333	1	-0.022125
4.600000	1	-0.022625
4.616667	1	-0.022125
4.633333	1	-0.022125
4.650000	1	-0.022375
4.666667	1	-0.023125
4.683333	1	-0.023125
4.700000	1	-0.022750
4.716667	1	-0.022625
4.733333	1	-0.021875
4.750000	1	-0.021625
4.766667	1	-0.021125
4.783333	1	-0.020875
4.800000	1	-0.021125
4.816667	1	-0.021875
4.833333	1	-0.022000
4.850000	1	-0.021875
4.866667	1	-0.022250
4.883333	1	-0.021750
4.900000	1	-0.021375
4.916667	1	-0.021375
4.933333	1	-0.021375
4.950000	1	-0.021625
4.966667	1	-0.021125
4.983333	1	-0.020625
5.000000	1	-0.020875
5.016667	1	-0.020875
5.033333	1	-0.020625
5.050000	1	-0.020500
5.066667	1	-0.020250
5.083333	1	-0.020625
5.100000	1	-0.020500
5.116667	1	-0.020000
5.133333	1	-0.020000
5.150000	1	-0.019250
5.166667	1	-0.018875
5.183333	1	-0.017750
5.200000	1	-0.017250
5.216667	1	-0.016500
5.233333	1	-0.016000
5.250000	1	-0.015875
5.266667	1	-0.015125
5.283333	1	-0.014125
5.300000	1	-0.013250
5.316667	1	-0.012500
5.333333	1	-0.011500
5.350000	1	-0.010375
5.366667	1	-0.009500
5.383333	1	-0.008250
5.400000	1	-0.007625
5.416667	1	-0.006875
5.433333	1	-0.006375
5.450000	1	-0.005500
5.466667	1	-0.004125
5.483333	1	-0.003000
5.500000	1	-0.002000
5.516667	1	-0.001250
5.533333	1	-0.000750
5.550000	1	0.000000
5.566667	1	0.001625
5.583333	1	0.002625
5.600000	1	0.004000
5.616667	1	0.004875
5.633333	1	0.006125
5.650000	1	0.007250
5.666667	1	0.008625
5.683333	1	0.009750
5.700000	1	0.011125
5.716667	1	0.012000
5.733333	1	0.013750
5.750000	1	0.014875
5.766667	1	0.016750
5.783333	1	0.018375
5.800000	1	0.019500
5.816667	1	0.021375
5.833333	1	0.022750
5.850000	1	0.024375
5.866667	1	0.026125
5.883333	1	0.028250
5.900000	1	0.030000
5.916667	1	0.031875
5.933333	1	0.033750
5.950000	1	0.035250
5.966667	1	0.038000
5.983333	1	0.039375
6.000000	1	0.040750
6.016667	1	0.043250
6.033333	1	0.044875
6.050000	1	0.046375
6.066667	1	0.048500
6.083333	1	0.050250
6.100000	1	0.051875
6.116667	1	0.053750
6.133333	1	0.055000
6.150000	1	0.056250
6.166667	1	0.057875
6.183333	1	0.059125
6.200000	1	0.061375
6.216667	1	0.062000
6.233333	1	0.063625
6.250000	1	0.064250
6.266667	1	0.065875
6.283333	1	0.066625
6.300000	1	0.067750
6.316667	1	0.067875
6.333333	1	0.068250
6.350000	1	0.069250
6.366667	1	0.069750
6.383333	1	0.070000
6.400000	1	0.070625
6.416667	1	0.071125
6.433333	1	0.071625
6.450000	1	0.071750
6.466667	1	0.072125
6.483333	1	0.072375
6.500000	1	0.072875
6.516667	1	0.073125
6.533333	1	0.073375
6.550000	1	0.073250
6.566667	1	0.073375
6.583333	1	0.073125
6.600000	1	0.072875
6.616667	1	0.073250
6.633333	1	0.073750
6.650000	1	0.073750
6.666667	1	0.074250
6.683333	1	0.074500
6.700000	1	0.073750
6.716667	1	0.073750
6.733333	1	0.074500
6.750000	1	0.074250
6.766667	1	0.074500
6.783333	1	0.074625
6.800000	1	0.074625
6.816667	1	0.075000
6.833333	1	0.074875
6.850000	1	0.074375
6.866667	1	0.074500
6.883333	1	0.074750
6.900000	1	0.075625
6.916667	1	0.076250
6.933333	1	0.076250
6.950000	1	0.076625
6.966667	1	0.076500
6.983333	1	0.076125
7.000000	1	0.076875
7.016667	1	0.077625
7.033333	1	0.078250
7.050000	1	0.079125
7.066667	1	0.080125
7.083333	1	0.080625
7.100000	1	0.081750
7.116667	1	0.082500
7.133333	1	0.083875
7.150000	1	0.084375
7.166667	1	0.084875
7.183333	1	0.086375
7.200000	1	0.087000
7.216667	1	0.088250
7.233333	1	0.089000
7.250000	1	0.090500
7.266667	1	0.092250
7.283333	1	0.093750
7.300000	1	0.095000
7.316667	1	0.096625
7.333333	1	0.098000
7.350000	1	0.099625
7.366667	1	0.101000
7.383333	1	0.103000
7.400000	1	0.103875
7.416667	1	0.104875
7.433333	1	0.106500
7.450000	1	0.107375
7.466667	1	0.108250
7.483333	1	0.109250
7.500000	1	0.110500
7.516667	1	0.112125
7.533333	1	0.113375
7.550000	1	0.114500
7.566667	1	0.115375
7.583333	1	0.115750
7.600000	1	0.116500
7.616667	1	0.117000
7.633333	1	0.117625
7.650000	1	0.118000
7.666667	1	0.118875
7.683333	1	0.118625
7.700000	1	0.118375
7.716667	1	0.118125
7.733333	1	0.118250
7.750000	1	0.118250
7.766667	1	0.117625
7.783333	1	0.116000
7.800000	1	0.115375
7.816667	1	0.113875
7.833333	1	0.112750
7.850000	1	0.111250
7.866667	1	0.109625
7.883333	1	0.107750
7.900000	1	0.106375
7.916667	1	0.103500
7.933333	1	0.101500
7.950000	1	0.099250
7.966667	1	0.097375
7.983333	1	0.095375
8.000000	1	0.092750
8.016667	1	0.090250
8.033333	1	0.087625
8.050000	1	0.084750
8.066667	1	0.082250
8.083333	1	0.080500
8.100000	1	0.077625
8.116667	1	0.075250
8.133333	1	0.072125
8.150000	1	0.069250
8.166667	1	0.066000
8.183333	1	0.063500
8.200000	1	0.060625
8.216667	1	0.057500
8.233333	1	0.054500
8.250000	1	0.052375
8.266667	1	0.049625
8.283333	1	0.046750
8.300000	1	0.043875
8.316667	1	0.041625
8.333333	1	0.039375
8.350000	1	0.037125
8.366667	1	0.034750
8.383333	1	0.032500
8.400000	1	0.030750
8.416667	1	0.029000
8.433333	1	0.027375
8.450000	1	0.025625
8.466667	1	0.024625
8.483333	1	0.023625
8.500000	1	0.022375
8.516667	1	0.021125
8.533333	1	0.019875
8.550000	1	0.019000
8.566667	1	0.018625
8.583333	1	0.018375
8.600000	1	0.017500
8.616667	1	0.016500
8.633333	1	0.016375
8.650000	1	0.016625
8.666667	1	0.017000
8.683333	1	0.017375
8.700000	1	0.017875
8.716667	1	0.018750
8.733333	1	0.019125
8.750000	1	0.020625
8.766667	1	0.021625
8.783333	1	0.022250
8.800000	1	0.023250
8.816667	1	0.025250
8.833333	1	0.026375
8.850000	1	0.027875
8.866667	1	0.028750
8.883333	1	0.030750
8.900000	1	0.032375
8.916667	1	0.034375
8.933333	1	0.035750
8.950000	1	0.037250
8.966667	1	0.038375
8.983333	1	0.040625
9.000000	1	0.042500
9.016667	1	0.044750
9.033333	1	0.046875
9.050000	1	0.048500
9.066667	1	0.051000
9.083333	1	0.053500
9.100000	1	0.055875
9.116667	1	0.058625
9.133333	1	0.061500
9.150000	1	0.063625
9.166667	1	0.066000
9.183333	1	0.069125
9.200000	1	0.071625
9.216667	1	0.074250
9.233333	1	0.078000
9.250000	1	0.080000
9.266667	1	0.082875
9.283333	1	0.086250
9.300000	1	0.089500
9.316667	1	0.093250
9.333333	1	0.096500
9.350000	1	0.100125
9.366667	1	0.104000
9.383333	1	0.107750
9.400000	1	0.112000
9.416667	1	0.117125
9.433333	1	0.122000
9.450000	1	0.128125
9.466667	1	0.134250
9.483333	1	0.142125
9.500000	1	0.149875
9.516667	1	0.159000
9.533333	1	0.168875
9.550000	1	0.181500
9.566667	1	0.194875
9.583333	1	0.210125
9.600000	1	0.228125
9.616667	1	0.248125
9.633333	1	0.270750
9.650000	1	0.296250
9.666667	1	0.323625
9.683333	1	0.354125
9.700000	1	0.387625
9.716667	1	0.425500
9.733333	1	0.467125
9.750000	1	0.513125
9.766667	1	0.563625
9.783333	1	0.617875
9.800000	1	0.668500
9.816667	1	0.706375
9.833333	1	0.718000
9.850000	1	0.694000
9.866667	1	0.635750
9.883333	1	0.562125
9.900000	1	0.512500
9.916667	1	0.539250
9.933333	1	0.701125
9.950000	1	1.053875
9.966667	1	1.648375
9.983333	1	2.523000
10.000000	1	3.712125
10.016667	1	5.243375
10.033333	1	7.139125
10.050000	1	9.414625
10.066667	1	12.078625
10.083333	1	15.137000
10.100000	1	18.586125
10.116667	1	22.413875
10.133333	1	26.595750
10.150000	1	31.094375
10.166667	1	35.867250
10.183333	1	40.865625
10.200000	1	46.031125
10.216667	1	51.307000
10.233333	1	56.634875
10.250000	1	61.949000
10.266667	1	67.182625
10.283333	1	72.263125
10.300000	1	77.102000
10.316667	1	81.595125
10.333333	1	85.626625
10.350000	1	89.072625
10.366667	1	91.815625
10.383333	1	93.752000
10.400000	1	94.804875
10.416667	1	94.922625
10.433333	1	94.079375
10.450000	1	92.280750
10.466667	1	89.549875
10.483333	1	85.936375
10.500000	1	81.508125
10.516667	1	76.353375
10.533333	1	70.579750
10.550000	1	64.318625
10.566667	1	57.744250
10.583333	1	51.078125
10.600000	1	44.575625
10.616667	1	38.501000
10.633333	1	33.068750
10.650000	1	28.397500
10.666667	1	24.501000
10.683333	1	21.323500
10.700000	1	18.769750
10.716667	1	16.736625
10.733333	1	15.124500
10.750000	1	13.846875
10.766667	1	12.832625
10.783333	1	12.023125
10.800000	1	11.371625
10.816667	1	10.840000
10.833333	1	10.399250
10.850000	1	10.026625
10.866667	1	9.701875
10.883333	1	9.410125
10.900000	1	9.138875
10.916667	1	8.875500
10.933333	1	8.613500
10.950000	1	8.345625
10.966667	1	8.067625
10.983333	1	7.776375
11.000000	1	7.470375
11.016667	1	7.150500
11.033333	1	6.820125
11.050000	1	6.484000
11.066667	1	6.147000
11.083333	1	5.815125
11.100000	1	5.495250
11.116667	1	5.194500
11.133333	1	4.917125
11.150000	1	4.666250
11.166667	1	4.442875
11.183333	1	4.246500
11.200000	1	4.076500
11.216667	1	3.930750
11.233333	1	3.806625
11.250000	1	3.702000
11.266667	1	3.614250
11.283333	1	3.541875
11.300000	1	3.483625
11.316667	1	3.437375
11.333333	1	3.402375
11.350000	1	3.376750
11.366667	1	3.359625
11.383333	1	3.349125
11.400000	1	3.344750
11.416667	1	3.344125
11.433333	1	3.346000
11.450000	1	3.346875
11.466667	1	3.344875
11.483333	1	3.338625
11.500000	1	3.326875
11.516667	1	3.308375
11.533333	1	3.282625
11.550000	1	3.249750
11.566667	1	3.212000
11.583333	1	3.169750
11.600000	1	3.123625
11.616667	1	3.075375
11.633333	1	3.025000
11.650000	1	2.973750
11.666667	1	2.922250
11.683333	1	2.870250
11.700000	1	2.819500
11.716667	1	2.770000
11.733333	1	2.721875
11.750000	1	2.675500
11.766667	1	2.631750
11.783333	1	2.591000
11.800000	1	2.553250
11.816667	1	2.517250
11.833333	1	2.484250
11.850000	1	2.453750
11.866667	1	2.424750
11.883333	1	2.397875
11.900000	1	2.372125
11.916667	1	2.345500
11.933333	1	2.319000
11.950000	1	2.292250
11.966667	1	2.264125
11.983333	1	2.235250
12.000000	1	2.204875
12.016667	1	2.174250
12.033333	1	2.143625
12.050000	1	2.114000
12.066667	1	2.087875
12.083333	1	2.065250
12.100000	1	2.049375
12.116667	1	2.041000
12.133333	1	2.042125
12.150000	1	2.054625
12.166667	1	2.081125
12.183333	1	2.122500
12.200000	1	2.180000
12.216667	1	2.256250
12.233333	1	2.353000
12.250000	1	2.473000
12.266667	1	2.619875
12.283333	1	2.795750
12.300000	1	3.003250
12.316667	1	3.245250
12.333333	1	3.523375
12.350000	1	3.836375
12.366667	1	4.185875
12.383333	1	4.570125
12.400000	1	4.988250
12.416667	1	5.437000
12.433333	1	5.914875
12.450000	1	6.420375
12.466667	1	6.951500
12.483333	1	7.507500
12.500000	1	8.086625
12.516667	1	8.685875
12.533333	1	9.302375
12.550000	1	9.931500
12.566667	1	10.568625
12.583333	1	11.208875
12.600000	1	11.844875
12.616667	1	12.470625
12.633333	1	13.079375
12.650000	1	13.664250
12.666667	1	14.219000
12.683333	1	14.738500
12.700000	1	15.216750
12.716667	1	15.647875
12.733333	1	16.028500
12.750000	1	16.355250
12.766667	1	16.627125
12.783333	1	16.843500
12.800000	1	17.005500
12.816667	1	17.115250
12.833333	1	17.176625
12.850000	1	17.193875
12.866667	1	17.170375
12.883333	1	17.111625
12.900000	1	17.021375
12.916667	1	16.903750
12.933333	1	16.763625
12.950000	1	16.602250
12.966667	1	16.421125
12.983333	1	16.222125
13.000000	1	16.006250
13.016667	1	15.774875
13.033333	1	15.528875
13.050000	1	15.270625
13.066667	1	15.001500
13.083333	1	14.724250
13.100000	1	14.439875
13.116667	1	14.153000
13.133333	1	13.865375
13.150000	1	13.579000
13.166667	1	13.295375
13.183333	1	13.016375
13.200000	1	12.743750
13.216667	1	12.479500
13.233333	1	12.222625
13.250000	1	11.975750
13.266667	1	11.736875
13.283333	1	11.506375
13.300000	1	11.283625
13.316667	1	11.067750
13.333333	1	10.857625
13.350000	1	10.654625
13.366667	1	10.456500
13.383333	1	10.262375
13.400000	1	10.071625
13.416667	1	9.882625
13.433333	1	9.695875
13.450000	1	9.509125
13.466667	1	9.320875
13.483333	1	9.129125
13.500000	1	8.930250
13.516667	1	8.722375
13.533333	1	8.502500
13.550000	1	8.268875
13.566667	1	8.021000
13.583333	1	7.756250
13.600000	1	7.476125
13.616667	1	7.180000
13.633333	1	6.868125
13.650000	1	6.543500
13.666667	1	6.211375
13.683333	1	5.879875
13.700000	1	5.560500
13.716667	1	5.262250
13.733333	1	4.996625
13.750000	1	4.768750
13.766667	1	4.579125
13.783333	1	4.426625
13.800000	1	4.304375
13.816667	1	4.206375
13.833333	1	4.126875
13.850000	1	4.062000
13.866667	1	4.007500
13.883333	1	3.961500
13.900000	1	3.920875
13.916667	1	3.884500
13.933333	1	3.850625
13.950000	1	3.819000
13.966667	1	3.787500
13.983333	1	3.756000
14.000000	1	3.723875
14.016667	1	3.691875
14.033333	1	3.659000
14.050000	1	3.626125
14.066667	1	3.593875
14.083333	1	3.563250
14.100000	1	3.535625
14.116667	1	3.512875
14.133333	1	3.496625
14.150000	1	3.487125
14.166667	1	3.488000
14.183333	1	3.499875
14.200000	1	3.524750
14.216667	1	3.562750
14.233333	1	3.613250
14.250000	1	3.678500
14.266667	1	3.756375
14.283333	1	3.847500
14.300000	1	3.950625
14.316667	1	4.063750
14.333333	1	4.184375
14.350000	1	4.312250
14.366667	1	4.445125
14.383333	1	4.579875
14.400000	1	4.714000
14.416667	1	4.845500
14.433333	1	4.971500
14.450000	1	5.090625
14.466667	1	5.202250
14.483333	1	5.306375
14.500000	1	5.404125
14.516667	1	5.499125
14.533333	1	5.597250
14.550000	1	5.703625
14.566667	1	5.828250
14.583333	1	5.977750
14.600000	1	6.160500
14.616667	1	6.384625
14.633333	1	6.656625
14.650000	1	6.981250
14.666667	1	7.359125
14.683333	1	7.789625
14.700000	1	8.268750
14.716667	1	8.791250
14.733333	1	9.351875
14.750000	1	9.942875
14.766667	1	10.560750
14.783333	1	11.200875
14.800000	1	11.861625
14.816667	1	12.542125
14.833333	1	13.244000
14.850000	1	13.967375
14.866667	1	14.710375
14.883333	1	15.468625
14.900000	1	16.233750
14.916667	1	16.995625
14.933333	1	17.741625
14.950000	1	18.455500
14.966667	1	19.120625
14.983333	1	19.720125
15.000000	1	20.240125
15.016667	1	20.666375
15.033333	1	20.987875
15.050000	1	21.194125
15.066667	1	21.277875
15.083333	1	21.234000
15.100000	1	21.061250
15.116667	1	20.759125
15.133333	1	20.330875
15.150000	1	19.781750
15.166667	1	19.120125
15.183333	1	18.357875
15.200000	1	17.509625
15.216667	1	16.589375
15.233333	1	15.613500
15.250000	1	14.598625
15.266667	1	13.563000
15.283333	1	12.525375
15.300000	1	11.508625
15.316667	1	10.535375
15.333333	1	9.622625
15.350000	1	8.780875
15.366667	1	8.013375
15.383333	1	7.320500
15.400000	1	6.699125
15.416667	1	6.143500
15.433333	1	5.649875
15.450000	1	5.214750
15.466667	1	4.832000
15.483333	1	4.497500
15.500000	1	4.206750
15.516667	1	3.955625
15.533333	1	3.740875
15.550000	1	3.558625
15.566667	1	3.406250
15.583333	1	3.281250
15.600000	1	3.180500
15.616667	1	3.102875
15.633333	1	3.045125
15.650000	1	3.004750
15.666667	1	2.981250
15.683333	1	2.970625
15.700000	1	2.971625
15.716667	1	2.982625
15.733333	1	3.001000
15.750000	1	3.025625
15.766667	1	3.055125
15.783333	1	3.089875
15.800000	1	3.128625
15.816667	1	3.172000
15.833333	1	3.220750
15.850000	1	3.275500
15.866667	1	3.339000
15.883333	1	3.411625
15.900000	1	3.494625
15.916667	1	3.590250
15.933333	1	3.698250
15.950000	1	3.817500
15.966667	1	3.946625
15.983333	1	4.085500
16.000000	1	4.230500
16.016667	1	4.379500
16.033333	1	4.529250
16.050000	1	4.678125
16.066667	1	4.824875
16.083333	1	4.968500
16.100000	1	5.108375
16.116667	1	5.245375
16.133333	1	5.379500
16.150000	1	5.510750
16.166667	1	5.639625
16.183333	1	5.766125
16.200000	1	5.888875
16.216667	1	6.008375
16.233333	1	6.120375
16.250000	1	6.224000
16.266667	1	6.316750
16.283333	1	6.395000
16.300000	1	6.458625
16.316667	1	6.504875
16.333333	1	6.531875
16.350000	1	6.538375
16.366667	1	6.523125
16.383333	1	6.483625
16.400000	1	6.420250
16.416667	1	6.331750
16.433333	1	6.219250
16.450000	1	6.081750
16.466667	1	5.922000
16.483333	1	5.740125
16.500000	1	5.538625
16.516667	1	5.320875
16.533333	1	5.090125
16.550000	1	4.851000
16.566667	1	4.606625
16.583333	1	4.361250
16.600000	1	4.118750
16.616667	1	3.882125
16.633333	1	3.654750
16.650000	1	3.438375
16.666667	1	3.235125
16.683333	1	3.047250
16.700000	1	2.874125
16.716667	1	2.717250
16.733333	1	2.575625
16.750000	1	2.448500
16.766667	1	2.335625
16.783333	1	2.236250
16.800000	1	2.149125
16.816667	1	2.072375
16.833333	1	2.004750
16.850000	1	1.944625
16.866667	1	1.892125
16.883333	1	1.845375
16.900000	1	1.804250
16.916667	1	1.767000
16.933333	1	1.733250
16.950000	1	1.702125
16.966667	1	1.672625
16.983333	1	1.646125
17.000000	1	1.621000
17.016667	1	1.597000
17.033333	1	1.573625
17.050000	1	1.553000
17.066667	1	1.532125
17.083333	1	1.512875
17.100000	1	1.494750
17.116667	1	1.478000
17.133333	1	1.461250
17.150000	1	1.445875
17.166667	1	1.431000
17.183333	1	1.417250
17.200000	1	1.403500
17.216667	1	1.390875
17.233333	1	1.378500
17.250000	1	1.366500
17.266667	1	1.355375
17.283333	1	1.344625
17.300000	1	1.334750
17.316667	1	1.325000
17.333333	1	1.315375
17.350000	1	1.306500
17.366667	1	1.297625
17.383333	1	1.288750
17.400000	1	1.280000
17.416667	1	1.272125
17.433333	1	1.265000
17.450000	1	1.258625
17.466667	1	1.252250
17.483333	1	1.247375
17.500000	1	1.243125
17.516667	1	1.240875
17.533333	1	1.240250
17.550000	1	1.240000
17.566667	1	1.241875
17.583333	1	1.245125
17.600000	1	1.249875
17.616667	1	1.256875
17.633333	1	1.265500
17.650000	1	1.275875
17.666667	1	1.287125
17.683333	1	1.300750
17.700000	1	1.316000
17.716667	1	1.332375
17.733333	1	1.350375
17.750000	1	1.369375
17.766667	1	1.389375
17.783333	1	1.410750
17.800000	1	1.433375
17.816667	1	1.456500
17.833333	1	1.480875
17.850000	1	1.504500
17.866667	1	1.529000
17.883333	1	1.553500
17.900000	1	1.578000
17.916667	1	1.601500
17.933333	1	1.624000
17.950000	1	1.645375
17.966667	1	1.665250
17.983333	1	1.684625
18.000000	1	1.702750
18.016667	1	1.718000
18.033333	1	1.732000
18.050000	1	1.743750
18.066667	1	1.753625
18.083333	1	1.760625
18.100000	1	1.765500
18.116667	1	1.768625
18.133333	1	1.768875
18.150000	1	1.767250
18.166667	1	1.762750
18.183333	1	1.757000
18.200000	1	1.748250
18.216667	1	1.737250
18.233333	1	1.724500
18.250000	1	1.709750
18.266667	1	1.693750
18.283333	1	1.676250
18.300000	1	1.658375
18.316667	1	1.638625
18.333333	1	1.617250
18.350000	1	1.595250
18.366667	1	1.573125
18.383333	1	1.549750
18.400000	1	1.526750
18.416667	1	1.503125
18.433333	1	1.479875
18.450000	1	1.456000
18.466667	1	1.432625
18.483333	1	1.409250
18.500000	1	1.386375
18.516667	1	1.363875
18.533333	1	1.341375
18.550000	1	1.319875
18.566667	1	1.298875
18.583333	1	1.277250
18.600000	1	1.256625
18.616667	1	1.237000
18.633333	1	1.217875
18.650000	1	1.199500
18.666667	1	1.181500
18.683333	1	1.164250
18.700000	1	1.147750
18.716667	1	1.130875
18.733333	1	1.115000
18.750000	1	1.100250
18.766667	1	1.086625
18.783333	1	1.072500
18.800000	1	1.060000
18.816667	1	1.048500
18.833333	1	1.037875
18.850000	1	1.029375
18.866667	1	1.022125
18.883333	1	1.017250
18.900000	1	1.014125
18.916667	1	1.012250
18.933333	1	1.012750
18.950000	1	1.015250
18.966667	1	1.020000
18.983333	1	1.026500
19.000000	1	1.035625
19.016667	1	1.046875
19.033333	1	1.059000
19.050000	1	1.073875
19.066667	1	1.089625
19.083333	1	1.107625
19.100000	1	1.127375
19.116667	1	1.148125
19.133333	1	1.170250
19.150000	1	1.193500
19.166667	1	1.218000
19.183333	1	1.243875
19.200000	1	1.270750
19.216667	1	1.298250
19.233333	1	1.326375
19.250000	1	1.355750
19.266667	1	1.385500
19.283333	1	1.415375
19.300000	1	1.444375
19.316667	1	1.473375
19.333333	1	1.500750
19.350000	1	1.527375
19.366667	1	1.553250
19.383333	1	1.576500
19.400000	1	1.598125
19.416667	1	1.617250
19.433333	1	1.634375
19.450000	1	1.648750
19.466667	1	1.660875
19.483333	1	1.669500
19.500000	1	1.674625
19.516667	1	1.676750
19.533333	1	1.674875
19.550000	1	1.668875
19.566667	1	1.659875
19.583333	1	1.647500
19.600000	1	1.630750
19.616667	1	1.613000
19.633333	1	1.590625
19.650000	1	1.566625
19.666667	1	1.540250
19.683333	1	1.511875
19.700000	1	1.482375
19.716667	1	1.451750
19.733333	1	1.420375
19.750000	1	1.389750
19.766667	1	1.358750
19.783333	1	1.328375
19.800000	1	1.299500
19.816667	1	1.271875
19.833333	1	1.245125
19.850000	1	1.220875
19.866667	1	1.199375
19.883333	1	1.180250
19.900000	1	1.164250
19.916667	1	1.150875
19.933333	1	1.140375
19.950000	1	1.133750
19.966667	1	1.130000
19.983333	1	1.129750
20.000000	1	1.133125
20.016667	1	1.139875
20.033333	1	1.150000
20.050000	1	1.163375
20.066667	1	1.179875
20.083333	1	1.199875
20.100000	1	1.222000
20.116667	1	1.247750
20.133333	1	1.276000
20.150000	1	1.306875
20.166667	1	1.339750
20.183333	1	1.374500
20.200000	1	1.410500
20.216667	1	1.447500
20.233333	1	1.484250
20.250000	1	1.520250
20.266667	1	1.555875
20.283333	1	1.589125
20.300000	1	1.620875
20.316667	1	1.651375
20.333333	1	1.681000
20.350000	1	1.709125
20.366667	1	1.737000
20.383333	1	1.764250
20.400000	1	1.791500
20.416667	1	1.819375
20.433333	1	1.849375
20.450000	1	1.880500
20.466667	1	1.913500
20.483333	1	1.947625
20.500000	1	1.983500
20.516667	1	2.021375
20.533333	1	2.060375
20.550000	1	2.101250
20.566667	1	2.143875
20.583333	1	2.186250
20.600000	1	2.229500
20.616667	1	2.272625
20.633333	1	2.316250
20.650000	1	2.357750
20.666667	1	2.398250
20.683333	1	2.435125
20.700000	1	2.468625
20.716667	1	2.498375
20.733333	1	2.524000
20.750000	1	2.543625
20.766667	1	2.557000
20.783333	1	2.563375
20.800000	1	2.563875
20.816667	1	2.558375
20.833333	1	2.546625
20.850000	1	2.529125
20.866667	1	2.507625
20.883333	1	2.482000
20.900000	1	2.454375
20.916667	1	2.425000
20.933333	1	2.395125
20.950000	1	2.365375
20.966667	1	2.337875
20.983333	1	2.312125
21.000000	1	2.288000
21.016667	1	2.266250
21.033333	1	2.246375
21.050000	1	2.229500
21.066667	1	2.213250
21.083333	1	2.198250
21.100000	1	2.184125
21.116667	1	2.169625
21.133333	1	2.154500
21.150000	1	2.137375
21.166667	1	2.118125
21.183333	1	2.096375
21.200000	1	2.071250
21.216667	1	2.042125
21.233333	1	2.008750
21.250000	1	1.970375
21.266667	1	1.926375
21.283333	1	1.877875
21.300000	1	1.825125
21.316667	1	1.767500
21.333333	1	1.706625
21.350000	1	1.641875
21.366667	1	1.574625
21.383333	1	1.505000
21.400000	1	1.434875
21.416667	1	1.364625
21.433333	1	1.295375
21.450000	1	1.227375
21.466667	1	1.161375
21.483333	1	1.097875
21.500000	1	1.038000
21.516667	1	0.981875
21.533333	1	0.929000
21.550000	1	0.880125
21.566667	1	0.835625
21.583333	1	0.795000
21.600000	1	0.758875
21.616667	1	0.726000
21.633333	1	0.696500
21.650000	1	0.670750
21.666667	1	0.649125
21.683333	1	0.630625
21.700000	1	0.615000
21.716667	1	0.602000
21.733333	1	0.590875
21.750000	1	0.581875
21.766667	1	0.575000
21.783333	1	0.569000
21.800000	1	0.565625
21.816667	1	0.562625
21.833333	1	0.561875
21.850000	1	0.561750
21.866667	1	0.562500
21.883333	1	0.564250
21.900000	1	0.567625
21.916667	1	0.571625
21.933333	1	0.575125
21.950000	1	0.579750
21.966667	1	0.585375
21.983333	1	0.591375
22.000000	1	0.597750
22.016667	1	0.604000
22.033333	1	0.611250
22.050000	1	0.619125
22.066667	1	0.626875
22.083333	1	0.634500
22.100000	1	0.642125
22.116667	1	0.649625
22.133333	1	0.656875
22.150000	1	0.663500
22.166667	1	0.669625
22.183333	1	0.675625
22.200000	1	0.681000
22.216667	1	0.685250
22.233333	1	0.688500
22.250000	1	0.691000
22.266667	1	0.691125
22.283333	1	0.690750
22.300000	1	0.689500
22.316667	1	0.685500
22.333333	1	0.680625
22.350000	1	0.674875
22.366667	1	0.667875
22.383333	1	0.660125
22.400000	1	0.651625
22.416667	1	0.642250
22.433333	1	0.632500
22.450000	1	0.622375
22.466667	1	0.612000
22.483333	1	0.601500
22.500000	1	0.591250
22.516667	1	0.581875
22.533333	1	0.572125
22.550000	1	0.563750
22.566667	1	0.555500
22.583333	1	0.548250
22.600000	1	0.542000
22.616667	1	0.537250
22.633333	1	0.533125
22.650000	1	0.529875
22.666667	1	0.526750
22.683333	1	0.524625
22.700000	1	0.523500
22.716667	1	0.523750
22.733333	1	0.523625
22.750000	1	0.525000
22.766667	1	0.526125
22.783333	1	0.527000
22.800000	1	0.529000
22.816667	1	0.530625
22.833333	1	0.532375
22.850000	1	0.534750
22.866667	1	0.536000
22.883333	1	0.537250
22.900000	1	0.538375
22.916667	1	0.539125
22.933333	1	0.539125
22.950000	1	0.538750
22.966667	1	0.538000
22.983333	1	0.536000
23.000000	1	0.534375
23.016667	1	0.531375
23.033333	1	0.528250
23.050000	1	0.524625
23.066667	1	0.520000
23.083333	1	0.514750
23.100000	1	0.509000
23.116667	1	0.502375
23.133333	1	0.495875
23.150000	1	0.488875
23.166667	1	0.481625
23.183333	1	0.473375
23.200000	1	0.464375
23.216667	1	0.456375
23.233333	1	0.447500
23.250000	1	0.438375
23.266667	1	0.428875
23.283333	1	0.419750
23.300000	1	0.411375
23.316667	1	0.403000
23.333333	1	0.394375
23.350000	1	0.385750
23.366667	1	0.378375
23.383333	1	0.371000
23.400000	1	0.364625
23.416667	1	0.359125
23.433333	1	0.354750
23.450000	1	0.351000
23.466667	1	0.348875
23.483333	1	0.348250
23.500000	1	0.348125
23.516667	1	0.350250
23.533333	1	0.354000
23.550000	1	0.358500
23.566667	1	0.365000
23.583333	1	0.373250
23.600000	1	0.381875
23.616667	1	0.393250
23.633333	1	0.404875
23.650000	1	0.419000
23.666667	1	0.434250
23.683333	1	0.450500
23.700000	1	0.467375
23.716667	1	0.485375
23.733333	1	0.504250
23.750000	1	0.523750
23.766667	1	0.544000
23.783333	1	0.565125
23.800000	1	0.587500
23.816667	1	0.610375
23.833333	1	0.634750
23.850000	1	0.659000
23.866667	1	0.684125
23.883333	1	0.710875
23.900000	1	0.737750
23.916667	1	0.765875
23.933333	1	0.793250
23.950000	1	0.822125
23.966667	1	0.851125
23.983333	1	0.879875
24.000000	1	0.908875
24.016667	1	0.936500
24.033333	1	0.963500
24.050000	1	0.989750
24.066667	1	1.014250
24.083333	1	1.036500
24.100000	1	1.057625
24.116667	1	1.077000
24.133333	1	1.093000
24.150000	1	1.106500
24.166667	1	1.117000
24.183333	1	1.124250
24.200000	1	1.128500
24.216667	1	1.129625
24.233333	1	1.127250
24.250000	1	1.120500
24.266667	1	1.110750
24.283333	1	1.096625
24.300000	1	1.079500
24.316667	1	1.060250
24.333333	1	1.037500
24.350000	1	1.012875
24.366667	1	0.986125
24.383333	1	0.958125
24.400000	1	0.928750
24.416667	1	0.900125
24.433333	1	0.870625
24.450000	1	0.841125
24.466667	1	0.812375
24.483333	1	0.785500
24.500000	1	0.760125
24.516667	1	0.736000
24.533333	1	0.714125
24.550000	1	0.694250
24.566667	1	0.676750
24.583333	1	0.662125
24.600000	1	0.648750
24.616667	1	0.637875
24.633333	1	0.629250
24.650000	1	0.622375
24.666667	1	0.616875
24.683333	1	0.612625
24.700000	1	0.609750
24.716667	1	0.608375
24.733333	1	0.607000
24.750000	1	0.606750
24.766667	1	0.607125
24.783333	1	0.606625
24.800000	1	0.606500
24.816667	1	0.605750
24.833333	1	0.604875
24.850000	1	0.602875
24.866667	1	0.599875
24.883333	1	0.595750
24.900000	1	0.591000
24.916667	1	0.584250
24.933333	1	0.576625
24.950000	1	0.567875
24.966667	1	0.557500
24.983333	1	0.546375
25.000000	1	0.534375
25.016667	1	0.520375
25.033333	1	0.505500
25.050000	1	0.490375
25.066667	1	0.474125
25.083333	1	0.457250
25.100000	1	0.439750
25.116667	1	0.422625
25.133333	1	0.404375
25.150000	1	0.387250
25.166667	1	0.369250
25.183333	1	0.352125
25.200000	1	0.335000
25.216667	1	0.319125
25.233333	1	0.303875
25.250000	1	0.289625
25.266667	1	0.275625
25.283333	1	0.262750
25.300000	1	0.250500
25.316667	1	0.240125
25.333333	1	0.231250
25.350000	1	0.223250
25.366667	1	0.216375
25.383333	1	0.209500
25.400000	1	0.204625
25.416667	1	0.200250
25.433333	1	0.196875
25.450000	1	0.193875
25.466667	1	0.192875
25.483333	1	0.191750
25.500000	1	0.191875
25.516667	1	0.192500
25.533333	1	0.193875
25.550000	1	0.196000
25.566667	1	0.199125
25.583333	1	0.201500
25.600000	1	0.205000
25.616667	1	0.209000
25.633333	1	0.212625
25.650000	1	0.216750
25.666667	1	0.220125
25.683333	1	0.224375
25.700000	1	0.229000
25.716667	1	0.233000
25.733333	1	0.236875
25.750000	1	0.241250
25.766667	1	0.245125
25.783333	1	0.249250
25.800000	1	0.252125
25.816667	1	0.255000
25.833333	1	0.257250
25.850000	1	0.260000
25.866667	1	0.261750
25.883333	1	0.264000
25.900000	1	0.265500
25.916667	1	0.266625
25.933333	1	0.267125
25.950000	1	0.267125
25.966667	1	0.266750
25.983333	1	0.266875
26.000000	1	0.266875
26.016667	1	0.266500
26.033333	1	0.266125
26.050000	1	0.264625
26.066667	1	0.263375
26.083333	1	0.262125
26.100000	1	0.261625
26.116667	1	0.261000
26.133333	1	0.260250
26.150000	1	0.259125
26.166667	1	0.258750
26.183333	1	0.257625
26.200000	1	0.258375
26.216667	1	0.258875
26.233333	1	0.259625
26.250000	1	0.260375
26.266667	1	0.261375
26.283333	1	0.262500
26.300000	1	0.264375
26.316667	1	0.266250
26.333333	1	0.267875
26.350000	1	0.269875
26.366667	1	0.271375
26.383333	1	0.273500
26.400000	1	0.275625
26.416667	1	0.278250
26.433333	1	0.280750
26.450000	1	0.283250
26.466667	1	0.285375
26.483333	1	0.287500
26.500000	1	0.290125
26.516667	1	0.292000
26.533333	1	0.293375
26.550000	1	0.295000
26.566667	1	0.297000
26.583333	1	0.298500
26.600000	1	0.299750
26.616667	1	0.301250
26.633333	1	0.301750
26.650000	1	0.302875
26.666667	1	0.303375
26.683333	1	0.303375
26.700000	1	0.303375
26.716667	1	0.302375
26.733333	1	0.300625
26.750000	1	0.299875
26.766667	1	0.298000
26.783333	1	0.295625
26.800000	1	0.292875
26.816667	1	0.289375
26.833333	1	0.285875
26.850000	1	0.281625
26.866667	1	0.277250
26.883333	1	0.272000
26.900000	1	0.266875
26.916667	1	0.261500
26.933333	1	0.255250
26.950000	1	0.248250
26.966667	1	0.240750
26.983333	1	0.233125
27.000000	1	0.225625
27.016667	1	0.217000
27.033333	1	0.208625
27.050000	1	0.200250
27.066667	1	0.191750
27.083333	1	0.182625
27.100000	1	0.173500
27.116667	1	0.164625
27.133333	1	0.155000
27.150000	1	0.146000
27.166667	1	0.136875
27.183333	1	0.127750
27.200000	1	0.119250
27.216667	1	0.111000
27.233333	1	0.102875
27.250000	1	0.095375
27.266667	1	0.087625
27.283333	1	0.080250
27.300000	1	0.073875
27.316667	1	0.068000
27.333333	1	0.063875
27.350000	1	0.059750
27.366667	1	0.056125
27.383333	1	0.054125
27.400000	1	0.053375
27.416667	1	0.054000
27.433333	1	0.056125
27.450000	1	0.060000
27.466667	1	0.066125
27.483333	1	0.074375
27.500000	1	0.084875
27.516667	1	0.098250
27.533333	1	0.114625
27.550000	1	0.133750
27.566667	1	0.156125
27.583333	1	0.181750
27.600000	1	0.210625
27.616667	1	0.243125
27.633333	1	0.278625
27.650000	1	0.317125
27.666667	1	0.358500
27.683333	1	0.403250
27.700000	1	0.451125
27.716667	1	0.501000
27.733333	1	0.554500
27.750000	1	0.609500
27.766667	1	0.667250
27.783333	1	0.725750
27.800000	1	0.787500
27.816667	1	0.850125
27.833333	1	0.914000
27.850000	1	0.979750
27.866667	1	1.046375
27.883333	1	1.114875
27.900000	1	1.184750
27.916667	1	1.256250
27.933333	1	1.328500
27.950000	1	1.402375
27.966667	1	1.476625
27.983333	1	1.552375
28.000000	1	1.628625
28.016667	1	1.705875
28.033333	1	1.783750
28.050000	1	1.861375
28.066667	1	1.939125
28.083333	1	2.016500
28.100000	1	2.092875
28.116667	1	2.168625
28.133333	1	2.242250
28.150000	1	2.313875
28.166667	1	2.383125
28.183333	1	2.449125
28.200000	1	2.512125
28.216667	1	2.570750
28.233333	1	2.625375
28.250000	1	2.676125
28.266667	1	2.721625
28.283333	1	2.760500
28.300000	1	2.793875
28.316667	1	2.821875
28.333333	1	2.843625
28.350000	1	2.858250
28.366667	1	2.865500
28.383333	1	2.865375
28.400000	1	2.857375
28.416667	1	2.841375
28.433333	1	2.815500
28.450000	1	2.781750
28.466667	1	2.740125
28.483333	1	2.688875
28.500000	1	2.629750
28.516667	1	2.562375
28.533333	1	2.486750
28.550000	1	2.403875
28.566667	1	2.314000
28.583333	1	2.218250
28.600000	1	2.117750
28.616667	1	2.012375
28.633333	1	1.902875
28.650000	1	1.791250
28.666667	1	1.677750
28.683333	1	1.563625
28.700000	1	1.450625
28.716667	1	1.338625
28.733333	1	1.229500
28.750000	1	1.123125
28.766667	1	1.021000
28.783333	1	0.923250
28.800000	1	0.830500
28.816667	1	0.743125
28.833333	1	0.661125
28.850000	1	0.585000
28.866667	1	0.515000
28.883333	1	0.451125
28.900000	1	0.392875
28.916667	1	0.339125
28.933333	1	0.291000
28.950000	1	0.247000
28.966667	1	0.208375
28.983333	1	0.174250
29.000000	1	0.144125
29.016667	1	0.117000
29.033333	1	0.093750
29.050000	1	0.073125
29.066667	1	0.055625
29.083333	1	0.040125
29.100000	1	0.027375
29.116667	1	0.016875
29.133333	1	0.007750
29.150000	1	0.000375
29.166667	1	-0.005750
29.183333	1	-0.010500
29.200000	1	-0.013500
29.216667	1	-0.016625
29.233333	1	-0.018625
29.250000	1	-0.018625
29.266667	1	-0.017375
29.283333	1	-0.015625
29.300000	1	-0.013500
29.316667	1	-0.010250
29.333333	1	-0.006250
29.350000	1	-0.001250
29.366667	1	0.003750
29.383333	1	0.009250
29.400000	1	0.016000
29.416667	1	0.023375
29.433333	1	0.031000
29.450000	1	0.038750
29.466667	1	0.046875
29.483333	1	0.055750
29.500000	1	0.065375
29.516667	1	0.074750
29.533333	1	0.084750
29.550000	1	0.094750
29.566667	1	0.105000
29.583333	1	0.114625
29.600000	1	0.125125
29.616667	1	0.135000
29.633333	1	0.145875
29.650000	1	0.156125
29.666667	1	0.166750
29.683333	1	0.176375
29.700000	1	0.185875
29.716667	1	0.195875
29.733333	1	0.206125
29.750000	1	0.215625
29.766667	1	0.224500
29.783333	1	0.233750
29.800000	1	0.241625
29.816667	1	0.249500
29.833333	1	0.257500
29.850000	1	0.265375
29.866667	1	0.272375
29.883333	1	0.278875
29.900000	1	0.285000
29.916667	1	0.291000
29.933333	1	0.296625
29.950000	1	0.301500
29.966667	1	0.305875
29.983333	1	0.310375
30.000000	1	0.312750
30.016667	1	0.315125
30.033333	1	0.318250
30.050000	1	0.320125
30.066667	1	0.321875
30.083333	1	0.322875
30.100000	1	0.323625
30.116667	1	0.324000
30.133333	1	0.324375
30.150000	1	0.323500
30.166667	1	0.322375
30.183333	1	0.321125
30.200000	1	0.319250
30.216667	1	0.316875
30.233333	1	0.314500
30.250000	1	0.312500
30.266667	1	0.309375
30.283333	1	0.306500
30.300000	1	0.303250
30.316667	1	0.300500
30.333333	1	0.296875
30.350000	1	0.293000
30.366667	1	0.289500
30.383333	1	0.285625
30.400000	1	0.282000
30.416667	1	0.279000
30.433333	1	0.275750
30.450000	1	0.272250
30.466667	1	0.269000
30.483333	1	0.265875
30.500000	1	0.263375
30.516667	1	0.260875
30.533333	1	0.259875
30.550000	1	0.257625
30.566667	1	0.256375
30.583333	1	0.254125
30.600000	1	0.252375
30.616667	1	0.251875
30.633333	1	0.250375
30.650000	1	0.250125
30.666667	1	0.250125
30.683333	1	0.250125
30.700000	1	0.250625
30.716667	1	0.251125
30.733333	1	0.252000
30.750000	1	0.253250
30.766667	1	0.254375
30.783333	1	0.256500
30.800000	1	0.258000
30.816667	1	0.259750
30.833333	1	0.261500
30.850000	1	0.263500
30.866667	1	0.265625
30.883333	1	0.267750
30.900000	1	0.270375
30.916667	1	0.273250
30.933333	1	0.276375
30.950000	1	0.278750
30.966667	1	0.281875
30.983333	1	0.284875
31.000000	1	0.287375
31.016667	1	0.290375
31.033333	1	0.293625
31.050000	1	0.296875
31.066667	1	0.300625
31.083333	1	0.303375
31.100000	1	0.306000
31.116667	1	0.308000
31.133333	1	0.310375
31.150000	1	0.313250
31.166667	1	0.314750
31.183333	1	0.316250
31.200000	1	0.317375
31.216667	1	0.318375
31.233333	1	0.319250
31.250000	1	0.319625
31.266667	1	0.320000
31.283333	1	0.319125
31.300000	1	0.318625
31.316667	1	0.317125
31.333333	1	0.315125
31.350000	1	0.313000
31.366667	1	0.310750
31.383333	1	0.307875
31.400000	1	0.304750
31.416667	1	0.300875
31.433333	1	0.297125
31.450000	1	0.293125
31.466667	1	0.289375
31.483333	1	0.284875
31.500000	1	0.280250
31.516667	1	0.275750
31.533333	1	0.270875
31.550000	1	0.265875
31.566667	1	0.261500
31.583333	1	0.257250
31.600000	1	0.252500
31.616667	1	0.248250
31.633333	1	0.244125
31.650000	1	0.240250
31.666667	1	0.237000
31.683333	1	0.233875
31.700000	1	0.231750
31.716667	1	0.230125
31.733333	1	0.228250
31.750000	1	0.226500
31.766667	1	0.225625
31.783333	1	0.225250
31.800000	1	0.225500
31.816667	1	0.226125
31.833333	1	0.227625
31.850000	1	0.229000
31.866667	1	0.231250
31.883333	1	0.233625
31.900000	1	0.236000
31.916667	1	0.239000
31.933333	1	0.242000
31.950000	1	0.246000
31.966667	1	0.250000
31.983333	1	0.254500
32.000000	1	0.258625
32.016667	1	0.262875
32.033333	1	0.267500
32.050000	1	0.272375
32.066667	1	0.276875
32.083333	1	0.282250
32.100000	1	0.287625
32.116667	1	0.293625
32.133333	1	0.298500
32.150000	1	0.303875
32.166667	1	0.309250
32.183333	1	0.314875
32.200000	1	0.319625
32.216667	1	0.324375
32.233333	1	0.329625
32.250000	1	0.334750
32.266667	1	0.339500
32.283333	1	0.343875
32.300000	1	0.348125
32.316667	1	0.351250
32.333333	1	0.354500
32.350000	1	0.358000
32.366667	1	0.361250
32.383333	1	0.364000
32.400000	1	0.366500
32.416667	1	0.367625
32.433333	1	0.368375
32.450000	1	0.369750
32.466667	1	0.370250
32.483333	1	0.370250
32.500000	1	0.370000
32.516667	1	0.369000
32.533333	1	0.367000
32.550000	1	0.364000
32.566667	1	0.361125
32.583333	1	0.357625
32.600000	1	0.353750
32.616667	1	0.348875
32.633333	1	0.343000
32.650000	1	0.337000
32.666667	1	0.330625
32.683333	1	0.323000
32.700000	1	0.314875
32.716667	1	0.305875
32.733333	1	0.296250
32.750000	1	0.286000
32.766667	1	0.275125
32.783333	1	0.263625
32.800000	1	0.252125
32.816667	1	0.240750
32.833333	1	0.228125
32.850000	1	0.215750
32.866667	1	0.202750
32.883333	1	0.189125
32.900000	1	0.175250
32.916667	1	0.161500
32.933333	1	0.147250
32.950000	1	0.132375
32.966667	1	0.118375
32.983333	1	0.104125
33.000000	1	0.089625
33.016667	1	0.075500
33.033333	1	0.061125
33.050000	1	0.047875
33.066667	1	0.033750
33.083333	1	0.020375
33.100000	1	0.007250
33.116667	1	-0.006125
33.133333	1	-0.018375
33.150000	1	-0.031375
33.166667	1	-0.044125
33.183333	1	-0.056250
33.200000	1	-0.067500
33.216667	1	-0.079500
33.233333	1	-0.089750
33.250000	1	-0.100000
33.266667	1	-0.110375
33.283333	1	-0.119875
33.300000	1	-0.128750
33.316667	1	-0.137375
33.333333	1	-0.146000
33.350000	1	-0.154375
33.366667	1	-0.161625
33.383333	1	-0.168000
33.400000	1	-0.174750
33.416667	1	-0.181250
33.433333	1	-0.187375
33.450000	1	-0.192875
33.466667	1	-0.198750
33.483333	1	-0.203375
33.500000	1	-0.208250
33.516667	1	-0.212625
33.533333	1	-0.216750
33.550000	1	-0.220750
33.566667	1	-0.223750
33.583333	1	-0.226125
33.600000	1	-0.229000
33.616667	1	-0.231750
33.633333	1	-0.235000
33.650000	1	-0.237250
33.666667	1	-0.238875
33.683333	1	-0.241000
33.700000	1	-0.242875
33.716667	1	-0.244500
33.733333	1	-0.245875
33.750000	1	-0.246875
33.766667	1	-0.247625
33.783333	1	-0.249125
33.800000	1	-0.250250
33.816667	1	-0.250875
33.833333	1	-0.252250
33.850000	1	-0.252750
33.866667	1	-0.253000
33.883333	1	-0.254125
33.900000	1	-0.254750
33.916667	1	-0.255000
33.933333	1	-0.255375
33.950000	1	-0.255875
33.966667	1	-0.255875
33.983333	1	-0.255750
34.000000	1	-0.256500
34.016667	1	-0.256750
34.033333	1	-0.256625
34.050000	1	-0.256000
34.066667	1	-0.255500
34.083333	1	-0.255875
34.100000	1	-0.256000
34.116667	1	-0.256000
34.133333	1	-0.255000
34.150000	1	-0.254250
34.166667	1	-0.253625
34.183333	1	-0.253250
34.200000	1	-0.252500
34.216667	1	-0.251500
34.233333	1	-0.250500
34.250000	1	-0.249625
34.266667	1	-0.249000
34.283333	1	-0.247875
34.300000	1	-0.246625
34.316667	1	-0.245625
34.333333	1	-0.244375
34.350000	1	-0.243000
34.366667	1	-0.241875
34.383333	1	-0.241125
34.400000	1	-0.239750
34.416667	1	-0.237875
34.433333	1	-0.236125
34.450000	1	-0.234250
34.466667	1	-0.232500
34.483333	1	-0.230875
34.500000	1	-0.229375
34.516667	1	-0.227625
34.533333	1	-0.225875
34.550000	1	-0.223750
34.566667	1	-0.222250
34.583333	1	-0.220625
34.600000	1	-0.218625
34.616667	1	-0.216875
34.633333	1	-0.214125
34.650000	1	-0.212375
34.666667	1	-0.210500
34.683333	1	-0.208750
34.700000	1	-0.207375
34.716667	1	-0.205125
34.733333	1	-0.203750
34.750000	1	-0.202375
34.766667	1	-0.201000
34.783333	1	-0.199500
34.800000	1	-0.198125
34.816667	1	-0.196625
34.833333	1	-0.195875
34.850000	1	-0.195375
34.866667	1	-0.194375
34.883333	1	-0.193500
34.900000	1	-0.192875
34.916667	1	-0.191750
34.933333	1	-0.191375
34.950000	1	-0.190750
34.966667	1	-0.190750
34.983333	1	-0.191000
35.000000	1	-0.191375
35.016667	1	-0.191625
35.033333	1	-0.192250
35.050000	1	-0.192375
35.066667	1	-0.192625
35.083333	1	-0.193500
35.100000	1	-0.194250
35.116667	1	-0.194625
35.133333	1	-0.195375
35.150000	1	-0.196500
35.166667	1	-0.197250
35.183333	1	-0.198250
35.200000	1	-0.199750
35.216667	1	-0.199625
35.233333	1	-0.200375
35.250000	1	-0.200500
35.266667	1	-0.201125
35.283333	1	-0.201375
35.300000	1	-0.202375
35.316667	1	-0.202750
35.333333	1	-0.203250
35.350000	1	-0.203750
35.366667	1	-0.204250
35.383333	1	-0.204375
35.400000	1	-0.204750
35.416667	1	-0.204375
35.433333	1	-0.204250
35.450000	1	-0.203750
35.466667	1	-0.203375
35.483333	1	-0.203125
35.500000	1	-0.203000
35.516667	1	-0.202000
35.533333	1	-0.201125
35.550000	1	-0.200125
35.566667	1	-0.199625
35.583333	1	-0.198875
35.600000	1	-0.197750
35.616667	1	-0.196375
35.633333	1	-0.195125
35.650000	1	-0.194125
35.666667	1	-0.192750
35.683333	1	-0.190750
35.700000	1	-0.189375
35.716667	1	-0.187625
35.733333	1	-0.186125
35.750000	1	-0.184625
35.766667	1	-0.182750
35.783333	1	-0.181250
35.800000	1	-0.178875
35.816667	1	-0.177250
35.833333	1	-0.175250
35.850000	1	-0.172375
35.866667	1	-0.170125
35.883333	1	-0.168750
35.900000	1	-0.166375
35.916667	1	-0.164375
35.933333	1	-0.161625
35.950000	1	-0.159000
35.966667	1	-0.156875
35.983333	1	-0.154000
36.000000	1	-0.152250
36.016667	1	-0.149375
36.033333	1	-0.146750
36.050000	1	-0.144500
36.066667	1	-0.141250
36.083333	1	-0.137750
36.100000	1	-0.134875
36.116667	1	-0.132250
36.133333	1	-0.130000
36.150000	1	-0.126500
36.166667	1	-0.124250
36.183333	1	-0.120750
36.200000	1	-0.117500
36.216667	1	-0.114375
36.233333	1	-0.111000
36.250000	1	-0.108125
36.266667	1	-0.105375
36.283333	1	-0.101875
36.300000	1	-0.098250
36.316667	1	-0.094125
36.333333	1	-0.091125
36.350000	1	-0.088375
36.366667	1	-0.084250
36.383333	1	-0.080875
36.400000	1	-0.077500
36.416667	1	-0.074125
36.433333	1	-0.070000
36.450000	1	-0.066875
36.466667	1	-0.063500
36.483333	1	-0.059750
36.500000	1	-0.055875
36.516667	1	-0.053250
36.533333	1	-0.050125
36.550000	1	-0.047500
36.566667	1	-0.044625
36.583333	1	-0.041750
36.600000	1	-0.038875
36.616667	1	-0.036500
36.633333	1	-0.033875
36.650000	1	-0.032125
36.666667	1	-0.030000
36.683333	1	-0.028500
36.700000	1	-0.027250
36.716667	1	-0.025750
36.733333	1	-0.025250
36.750000	1	-0.024625
36.766667	1	-0.023750
36.783333	1	-0.024000
36.800000	1	-0.023875
36.816667	1	-0.023750
36.833333	1	-0.024500
36.850000	1	-0.025250
36.866667	1	-0.026125
36.883333	1	-0.027500
36.900000	1	-0.029125
36.916667	1	-0.030750
36.933333	1	-0.032125
36.950000	1	-0.034125
36.966667	1	-0.035500
36.983333	1	-0.038000
37.000000	1	-0.040875
37.016667	1	-0.043750
37.033333	1	-0.046875
37.050000	1	-0.050250
37.066667	1	-0.053375
37.083333	1	-0.057125
37.100000	1	-0.061250
37.116667	1	-0.064625
37.133333	1	-0.068125
37.150000	1	-0.072375
37.166667	1	-0.076375
37.183333	1	-0.080375
37.200000	1	-0.084875
37.216667	1	-0.089250
37.233333	1	-0.093750
37.250000	1	-0.098500
37.266667	1	-0.102875
37.283333	1	-0.108000
37.300000	1	-0.113625
37.316667	1	-0.118625
37.333333	1	-0.123625
37.350000	1	-0.128625
37.366667	1	-0.134250
37.383333	1	-0.139625
37.400000	1	-0.144250
37.416667	1	-0.149375
37.433333	1	-0.154500
37.450000	1	-0.160000
37.466667	1	-0.165500
37.483333	1	-0.171125
37.500000	1	-0.177000
37.516667	1	-0.183125
37.533333	1	-0.188625
37.550000	1	-0.194500
37.566667	1	-0.200000
37.583333	1	-0.205000
37.600000	1	-0.210250
37.616667	1	-0.215500
37.633333	1	-0.220750
37.650000	1	-0.225500
37.666667	1	-0.230625
37.683333	1	-0.235000
37.700000	1	-0.239125
37.716667	1	-0.243750
37.733333	1	-0.249125
37.750000	1	-0.253375
37.766667	1	-0.257375
37.783333	1	-0.260625
37.800000	1	-0.264375
37.816667	1	-0.268625
37.833333	1	-0.271500
37.850000	1	-0.275000
37.866667	1	-0.278125
37.883333	1	-0.281375
37.900000	1	-0.284125
37.916667	1	-0.286625
37.933333	1	-0.289125
37.950000	1	-0.291250
37.966667	1	-0.293000
37.983333	1	-0.295125
38.000000	1	-0.296500
38.016667	1	-0.297750
38.033333	1	-0.299250
38.050000	1	-0.301250
38.066667	1	-0.302375
38.083333	1	-0.302875
38.100000	1	-0.304250
38.116667	1	-0.304875
38.133333	1	-0.305375
38.150000	1	-0.305625
38.166667	1	-0.306000
38.183333	1	-0.306625
38.200000	1	-0.306750
38.216667	1	-0.306750
38.233333	1	-0.307125
38.250000	1	-0.307125
38.266667	1	-0.307625
38.283333	1	-0.307625
38.300000	1	-0.307750
38.316667	1	-0.307625
38.333333	1	-0.307000
38.350000	1	-0.306000
38.366667	1	-0.305625
38.383333	1	-0.305125
38.400000	1	-0.303875
38.416667	1	-0.303000
38.433333	1	-0.302500
38.450000	1	-0.301250
38.466667	1	-0.300375
38.483333	1	-0.299625
38.500000	1	-0.298500
38.516667	1	-0.297250
38.533333	1	-0.296625
38.550000	1	-0.295750
38.566667	1	-0.295500
38.583333	1	-0.294875
38.600000	1	-0.293500
38.616667	1	-0.292250
38.633333	1	-0.290125
38.650000	1	-0.289250
38.666667	1	-0.288500
38.683333	1	-0.287750
38.700000	1	-0.286500
38.716667	1	-0.285750
38.733333	1	-0.285500
38.750000	1	-0.284625
38.766667	1	-0.283375
38.783333	1	-0.282125
38.800000	1	-0.281875
38.816667	1	-0.280875
38.833333	1	-0.280000
38.850000	1	-0.280000
38.866667	1	-0.278875
38.883333	1	-0.278500
38.900000	1	-0.277500
38.916667	1	-0.276875
38.933333	1	-0.276750
38.950000	1	-0.275875
38.966667	1	-0.275000
38.983333	1	-0.274250
39.000000	1	-0.274125
39.016667	1	-0.273500
39.033333	1	-0.272625
39.050000	1	-0.271750
39.066667	1	-0.271375
39.083333	1	-0.270875
39.100000	1	-0.270375
39.116667	1	-0.270125
39.133333	1	-0.269875
39.150000	1	-0.270000
39.166667	1	-0.269750
39.183333	1	-0.269875
39.200000	1	-0.269375
39.216667	1	-0.269375
39.233333	1	-0.268750
39.250000	1	-0.269125
39.266667	1	-0.268750
39.283333	1	-0.268500
39.300000	1	-0.268500
39.316667	1	-0.268125
39.333333	1	-0.267875
39.350000	1	-0.268250
39.366667	1	-0.268250
39.383333	1	-0.268625
39.400000	1	-0.267750
39.416667	1	-0.268250
39.433333	1	-0.268125
39.450000	1	-0.267625
39.466667	1	-0.267375
39.483333	1	-0.266875
39.500000	1	-0.266500
39.516667	1	-0.265500
39.533333	1	-0.265625
39.550000	1	-0.265125
39.566667	1	-0.264875
39.583333	1	-0.264500
39.600000	1	-0.264250
39.616667	1	-0.262875
39.633333	1	-0.262000
39.650000	1	-0.261125
39.666667	1	-0.260750
39.683333	1	-0.260250
39.700000	1	-0.260000
39.716667	1	-0.259875
39.733333	1	-0.259250
39.750000	1	-0.258250
39.766667	1	-0.257500
39.783333	1	-0.257000
39.800000	1	-0.256125
39.816667	1	-0.254750
39.833333	1	-0.253875
39.850000	1	-0.252750
39.866667	1	-0.252000
39.883333	1	-0.251250
39.900000	1	-0.250250
39.916667	1	-0.248250
39.933333	1	-0.247125
39.950000	1	-0.246500
39.966667	1	-0.245375
39.983333	1	-0.244125
40.000000	1	-0.242875
