File Path	chrom://marshall/Chromeleon7/HPLC_Ultimate_3000/Users/markusar/20221226.seq/526.smp/RI_1.channel/RI_1.chm
Channel	RI_1

Injection Information:
Data Vault	Chromeleon7
Injection	ca1.3
Injection Number	28
Position	RD4
Comment	
Processing Method	
Instrument Method	std_method
Type	Unknown
Status	Finished
Injection Date	27.12.2022
Injection Time	10:36:48
Injection Volume (µl)	20.000
Dilution Factor	1.0000
Weight	1.0000

Chromatogram Data Information:
Time Min. (min)	0.000000
Time Max. (min)	40.000000
Data Points	2401
Detector	RI
Generating Data System	Chromeleon 7.2.5.9507
Exporting Data System	Chromeleon 7.2.5.0
Operator	Instrument Controller
Signal Quantity	Refractive 
Signal Unit	µRIU
Signal Min.	-0.858125
Signal Max.	103.061625
Channel	RI_1
Driver Name	RID520Driver.dll
Channel Type	Evaluation
Min. Step (s)	1
Max. Step (s)	1
Average Step (s)	1

Signal Parameter Information:
Signal Info	

Chromatogram Data:
Time (min)	Step (s)	Value (µRIU)
0.000000	n.a.	0.074250
0.016667	1	0.073875
0.033333	1	0.073750
0.050000	1	0.073625
0.066667	1	0.072875
0.083333	1	0.072375
0.100000	1	0.072125
0.116667	1	0.071875
0.133333	1	0.070250
0.150000	1	0.069250
0.166667	1	0.068625
0.183333	1	0.067875
0.200000	1	0.066750
0.216667	1	0.065250
0.233333	1	0.064875
0.250000	1	0.063000
0.266667	1	0.061250
0.283333	1	0.058250
0.300000	1	0.053875
0.316667	1	0.050125
0.333333	1	0.049375
0.350000	1	0.051625
0.366667	1	0.055500
0.383333	1	0.057625
0.400000	1	0.057875
0.416667	1	0.058500
0.433333	1	0.059000
0.450000	1	0.059000
0.466667	1	0.057625
0.483333	1	0.055250
0.500000	1	0.050750
0.516667	1	0.046125
0.533333	1	0.042375
0.550000	1	0.040125
0.566667	1	0.038125
0.583333	1	0.035625
0.600000	1	0.033875
0.616667	1	0.032750
0.633333	1	0.031000
0.650000	1	0.029625
0.666667	1	0.028500
0.683333	1	0.027875
0.700000	1	0.026750
0.716667	1	0.025625
0.733333	1	0.025375
0.750000	1	0.024750
0.766667	1	0.024000
0.783333	1	0.023875
0.800000	1	0.023750
0.816667	1	0.023500
0.833333	1	0.022625
0.850000	1	0.022125
0.866667	1	0.022250
0.883333	1	0.022250
0.900000	1	0.021875
0.916667	1	0.021750
0.933333	1	0.021125
0.950000	1	0.021375
0.966667	1	0.021250
0.983333	1	0.021375
1.000000	1	0.021250
1.016667	1	0.021000
1.033333	1	0.021500
1.050000	1	0.021000
1.066667	1	0.020125
1.083333	1	0.020250
1.100000	1	0.019750
1.116667	1	0.019000
1.133333	1	0.018375
1.150000	1	0.017875
1.166667	1	0.017250
1.183333	1	0.017000
1.200000	1	0.016375
1.216667	1	0.014750
1.233333	1	0.013500
1.250000	1	0.012625
1.266667	1	0.011875
1.283333	1	0.010125
1.300000	1	0.008750
1.316667	1	0.007500
1.333333	1	0.004750
1.350000	1	0.003000
1.366667	1	0.001375
1.383333	1	0.000000
1.400000	1	-0.001250
1.416667	1	-0.003500
1.433333	1	-0.006250
1.450000	1	-0.008125
1.466667	1	-0.011125
1.483333	1	-0.013500
1.500000	1	-0.016250
1.516667	1	-0.018250
1.533333	1	-0.020250
1.550000	1	-0.021875
1.566667	1	-0.024875
1.583333	1	-0.026875
1.600000	1	-0.029625
1.616667	1	-0.032500
1.633333	1	-0.035000
1.650000	1	-0.037625
1.666667	1	-0.040625
1.683333	1	-0.043250
1.700000	1	-0.045250
1.716667	1	-0.048375
1.733333	1	-0.051000
1.750000	1	-0.053750
1.766667	1	-0.056000
1.783333	1	-0.058500
1.800000	1	-0.061125
1.816667	1	-0.064125
1.833333	1	-0.066875
1.850000	1	-0.069875
1.866667	1	-0.072625
1.883333	1	-0.075125
1.900000	1	-0.077750
1.916667	1	-0.079875
1.933333	1	-0.082375
1.950000	1	-0.085125
1.966667	1	-0.087625
1.983333	1	-0.090375
2.000000	1	-0.092500
2.016667	1	-0.094750
2.033333	1	-0.097125
2.050000	1	-0.099250
2.066667	1	-0.102375
2.083333	1	-0.104875
2.100000	1	-0.107000
2.116667	1	-0.109500
2.133333	1	-0.111250
2.150000	1	-0.112875
2.166667	1	-0.114000
2.183333	1	-0.115625
2.200000	1	-0.117000
2.216667	1	-0.118000
2.233333	1	-0.119500
2.250000	1	-0.120875
2.266667	1	-0.121500
2.283333	1	-0.121875
2.300000	1	-0.122875
2.316667	1	-0.123375
2.333333	1	-0.124125
2.350000	1	-0.124125
2.366667	1	-0.124500
2.383333	1	-0.125250
2.400000	1	-0.125500
2.416667	1	-0.125875
2.433333	1	-0.125875
2.450000	1	-0.126375
2.466667	1	-0.126125
2.483333	1	-0.126500
2.500000	1	-0.126250
2.516667	1	-0.125250
2.533333	1	-0.124500
2.550000	1	-0.124250
2.566667	1	-0.124125
2.583333	1	-0.124125
2.600000	1	-0.122625
2.616667	1	-0.121375
2.633333	1	-0.121250
2.650000	1	-0.121375
2.666667	1	-0.120625
2.683333	1	-0.120250
2.700000	1	-0.119500
2.716667	1	-0.119375
2.733333	1	-0.118500
2.750000	1	-0.117875
2.766667	1	-0.117625
2.783333	1	-0.117750
2.800000	1	-0.117125
2.816667	1	-0.116375
2.833333	1	-0.115500
2.850000	1	-0.114750
2.866667	1	-0.114125
2.883333	1	-0.113375
2.900000	1	-0.112750
2.916667	1	-0.112375
2.933333	1	-0.112000
2.950000	1	-0.111250
2.966667	1	-0.110750
2.983333	1	-0.110500
3.000000	1	-0.110250
3.016667	1	-0.110000
3.033333	1	-0.109000
3.050000	1	-0.108250
3.066667	1	-0.108000
3.083333	1	-0.107250
3.100000	1	-0.106875
3.116667	1	-0.105750
3.133333	1	-0.105625
3.150000	1	-0.105125
3.166667	1	-0.104625
3.183333	1	-0.104250
3.200000	1	-0.104125
3.216667	1	-0.103625
3.233333	1	-0.103125
3.250000	1	-0.101375
3.266667	1	-0.100625
3.283333	1	-0.099750
3.300000	1	-0.098875
3.316667	1	-0.098375
3.333333	1	-0.097250
3.350000	1	-0.096375
3.366667	1	-0.095125
3.383333	1	-0.094000
3.400000	1	-0.093500
3.416667	1	-0.092375
3.433333	1	-0.090500
3.450000	1	-0.089750
3.466667	1	-0.088625
3.483333	1	-0.087375
3.500000	1	-0.085625
3.516667	1	-0.084250
3.533333	1	-0.082125
3.550000	1	-0.080875
3.566667	1	-0.079875
3.583333	1	-0.078500
3.600000	1	-0.077375
3.616667	1	-0.076125
3.633333	1	-0.074750
3.650000	1	-0.074125
3.666667	1	-0.073125
3.683333	1	-0.072250
3.700000	1	-0.070625
3.716667	1	-0.069375
3.733333	1	-0.068500
3.750000	1	-0.067250
3.766667	1	-0.065875
3.783333	1	-0.065750
3.800000	1	-0.064750
3.816667	1	-0.064000
3.833333	1	-0.063125
3.850000	1	-0.062875
3.866667	1	-0.062250
3.883333	1	-0.061875
3.900000	1	-0.061250
3.916667	1	-0.061125
3.933333	1	-0.061250
3.950000	1	-0.061250
3.966667	1	-0.060875
3.983333	1	-0.060875
4.000000	1	-0.060625
4.016667	1	-0.061125
4.033333	1	-0.061125
4.050000	1	-0.061000
4.066667	1	-0.061625
4.083333	1	-0.061500
4.100000	1	-0.061500
4.116667	1	-0.061500
4.133333	1	-0.061750
4.150000	1	-0.062000
4.166667	1	-0.062000
4.183333	1	-0.062625
4.200000	1	-0.063000
4.216667	1	-0.063750
4.233333	1	-0.064000
4.250000	1	-0.064000
4.266667	1	-0.064250
4.283333	1	-0.064125
4.300000	1	-0.064500
4.316667	1	-0.064500
4.333333	1	-0.064625
4.350000	1	-0.065125
4.366667	1	-0.066000
4.383333	1	-0.065875
4.400000	1	-0.066125
4.416667	1	-0.066375
4.433333	1	-0.066750
4.450000	1	-0.066750
4.466667	1	-0.067500
4.483333	1	-0.068500
4.500000	1	-0.069125
4.516667	1	-0.069625
4.533333	1	-0.070125
4.550000	1	-0.071375
4.566667	1	-0.072000
4.583333	1	-0.072875
4.600000	1	-0.073750
4.616667	1	-0.074875
4.633333	1	-0.075000
4.650000	1	-0.075375
4.666667	1	-0.075750
4.683333	1	-0.076750
4.700000	1	-0.078125
4.716667	1	-0.078875
4.733333	1	-0.080250
4.750000	1	-0.081125
4.766667	1	-0.081250
4.783333	1	-0.082000
4.800000	1	-0.083125
4.816667	1	-0.084000
4.833333	1	-0.084875
4.850000	1	-0.085875
4.866667	1	-0.086375
4.883333	1	-0.086875
4.900000	1	-0.087875
4.916667	1	-0.088375
4.933333	1	-0.088750
4.950000	1	-0.089375
4.966667	1	-0.089375
4.983333	1	-0.089375
5.000000	1	-0.089875
5.016667	1	-0.089875
5.033333	1	-0.090500
5.050000	1	-0.090500
5.066667	1	-0.090875
5.083333	1	-0.090875
5.100000	1	-0.090125
5.116667	1	-0.089250
5.133333	1	-0.089375
5.150000	1	-0.089375
5.166667	1	-0.089250
5.183333	1	-0.088625
5.200000	1	-0.087750
5.216667	1	-0.086625
5.233333	1	-0.085875
5.250000	1	-0.085125
5.266667	1	-0.084375
5.283333	1	-0.083250
5.300000	1	-0.082375
5.316667	1	-0.080625
5.333333	1	-0.080000
5.350000	1	-0.078750
5.366667	1	-0.077375
5.383333	1	-0.076000
5.400000	1	-0.074750
5.416667	1	-0.073500
5.433333	1	-0.072625
5.450000	1	-0.071000
5.466667	1	-0.069375
5.483333	1	-0.067750
5.500000	1	-0.066625
5.516667	1	-0.064750
5.533333	1	-0.062750
5.550000	1	-0.060375
5.566667	1	-0.058875
5.583333	1	-0.057625
5.600000	1	-0.056625
5.616667	1	-0.054625
5.633333	1	-0.052875
5.650000	1	-0.051000
5.666667	1	-0.049625
5.683333	1	-0.047625
5.700000	1	-0.047500
5.716667	1	-0.045750
5.733333	1	-0.045250
5.750000	1	-0.043000
5.766667	1	-0.042125
5.783333	1	-0.040500
5.800000	1	-0.039125
5.816667	1	-0.037750
5.833333	1	-0.035750
5.850000	1	-0.034250
5.866667	1	-0.033000
5.883333	1	-0.032250
5.900000	1	-0.031250
5.916667	1	-0.030125
5.933333	1	-0.028500
5.950000	1	-0.027625
5.966667	1	-0.026375
5.983333	1	-0.025875
6.000000	1	-0.025125
6.016667	1	-0.023500
6.033333	1	-0.022500
6.050000	1	-0.022000
6.066667	1	-0.021000
6.083333	1	-0.019750
6.100000	1	-0.019125
6.116667	1	-0.017250
6.133333	1	-0.016750
6.150000	1	-0.016000
6.166667	1	-0.015000
6.183333	1	-0.014500
6.200000	1	-0.013375
6.216667	1	-0.012625
6.233333	1	-0.012500
6.250000	1	-0.011625
6.266667	1	-0.011500
6.283333	1	-0.011250
6.300000	1	-0.010375
6.316667	1	-0.009750
6.333333	1	-0.009500
6.350000	1	-0.009875
6.366667	1	-0.009625
6.383333	1	-0.010000
6.400000	1	-0.010500
6.416667	1	-0.010250
6.433333	1	-0.010500
6.450000	1	-0.010375
6.466667	1	-0.010750
6.483333	1	-0.010875
6.500000	1	-0.011375
6.516667	1	-0.012125
6.533333	1	-0.012750
6.550000	1	-0.013250
6.566667	1	-0.013750
6.583333	1	-0.014125
6.600000	1	-0.015000
6.616667	1	-0.015375
6.633333	1	-0.015750
6.650000	1	-0.017250
6.666667	1	-0.017625
6.683333	1	-0.018000
6.700000	1	-0.019250
6.716667	1	-0.020125
6.733333	1	-0.020375
6.750000	1	-0.021250
6.766667	1	-0.021750
6.783333	1	-0.022875
6.800000	1	-0.024000
6.816667	1	-0.024500
6.833333	1	-0.024250
6.850000	1	-0.024375
6.866667	1	-0.024625
6.883333	1	-0.025250
6.900000	1	-0.025000
6.916667	1	-0.025000
6.933333	1	-0.025125
6.950000	1	-0.026000
6.966667	1	-0.025750
6.983333	1	-0.025125
7.000000	1	-0.025750
7.016667	1	-0.025500
7.033333	1	-0.025375
7.050000	1	-0.025125
7.066667	1	-0.025250
7.083333	1	-0.025250
7.100000	1	-0.025125
7.116667	1	-0.024875
7.133333	1	-0.024750
7.150000	1	-0.024375
7.166667	1	-0.023125
7.183333	1	-0.022375
7.200000	1	-0.021625
7.216667	1	-0.020375
7.233333	1	-0.019875
7.250000	1	-0.019375
7.266667	1	-0.018000
7.283333	1	-0.016375
7.300000	1	-0.016000
7.316667	1	-0.014625
7.333333	1	-0.013625
7.350000	1	-0.012250
7.366667	1	-0.011250
7.383333	1	-0.010625
7.400000	1	-0.009750
7.416667	1	-0.008125
7.433333	1	-0.007250
7.450000	1	-0.006375
7.466667	1	-0.005375
7.483333	1	-0.004250
7.500000	1	-0.003000
7.516667	1	-0.002125
7.533333	1	-0.001000
7.550000	1	-0.000375
7.566667	1	0.000250
7.583333	1	0.000875
7.600000	1	0.002250
7.616667	1	0.002750
7.633333	1	0.002875
7.650000	1	0.003250
7.666667	1	0.003125
7.683333	1	0.003750
7.700000	1	0.003375
7.716667	1	0.003250
7.733333	1	0.003375
7.750000	1	0.003375
7.766667	1	0.003875
7.783333	1	0.002875
7.800000	1	0.002000
7.816667	1	0.000875
7.833333	1	0.000625
7.850000	1	0.000000
7.866667	1	-0.001750
7.883333	1	-0.002875
7.900000	1	-0.004125
7.916667	1	-0.005250
7.933333	1	-0.006125
7.950000	1	-0.007750
7.966667	1	-0.008375
7.983333	1	-0.010250
8.000000	1	-0.012375
8.016667	1	-0.013250
8.033333	1	-0.015250
8.050000	1	-0.017875
8.066667	1	-0.019625
8.083333	1	-0.022000
8.100000	1	-0.023625
8.116667	1	-0.025250
8.133333	1	-0.027375
8.150000	1	-0.029125
8.166667	1	-0.030750
8.183333	1	-0.033250
8.200000	1	-0.035125
8.216667	1	-0.037625
8.233333	1	-0.039875
8.250000	1	-0.041000
8.266667	1	-0.043625
8.283333	1	-0.045500
8.300000	1	-0.047750
8.316667	1	-0.049375
8.333333	1	-0.050875
8.350000	1	-0.052750
8.366667	1	-0.054625
8.383333	1	-0.056000
8.400000	1	-0.058250
8.416667	1	-0.059625
8.433333	1	-0.061375
8.450000	1	-0.063500
8.466667	1	-0.064875
8.483333	1	-0.066500
8.500000	1	-0.067375
8.516667	1	-0.068750
8.533333	1	-0.070125
8.550000	1	-0.071125
8.566667	1	-0.072000
8.583333	1	-0.072875
8.600000	1	-0.074500
8.616667	1	-0.075125
8.633333	1	-0.075000
8.650000	1	-0.075750
8.666667	1	-0.075750
8.683333	1	-0.076375
8.700000	1	-0.076500
8.716667	1	-0.076750
8.733333	1	-0.076750
8.750000	1	-0.076375
8.766667	1	-0.076375
8.783333	1	-0.076625
8.800000	1	-0.076000
8.816667	1	-0.074750
8.833333	1	-0.074125
8.850000	1	-0.073750
8.866667	1	-0.073250
8.883333	1	-0.072625
8.900000	1	-0.071750
8.916667	1	-0.070375
8.933333	1	-0.069375
8.950000	1	-0.068125
8.966667	1	-0.067750
8.983333	1	-0.065750
9.000000	1	-0.064500
9.016667	1	-0.062875
9.033333	1	-0.061625
9.050000	1	-0.060125
9.066667	1	-0.058750
9.083333	1	-0.056875
9.100000	1	-0.055250
9.116667	1	-0.053125
9.133333	1	-0.051375
9.150000	1	-0.049375
9.166667	1	-0.047500
9.183333	1	-0.046250
9.200000	1	-0.044625
9.216667	1	-0.042125
9.233333	1	-0.039875
9.250000	1	-0.037875
9.266667	1	-0.035375
9.283333	1	-0.032875
9.300000	1	-0.029625
9.316667	1	-0.026875
9.333333	1	-0.023500
9.350000	1	-0.019875
9.366667	1	-0.016375
9.383333	1	-0.012125
9.400000	1	-0.007875
9.416667	1	-0.003375
9.433333	1	0.002375
9.450000	1	0.008250
9.466667	1	0.015125
9.483333	1	0.023875
9.500000	1	0.032750
9.516667	1	0.043125
9.533333	1	0.054250
9.550000	1	0.066875
9.566667	1	0.081500
9.583333	1	0.098125
9.600000	1	0.117875
9.616667	1	0.139125
9.633333	1	0.163125
9.650000	1	0.190250
9.666667	1	0.219000
9.683333	1	0.251375
9.700000	1	0.286500
9.716667	1	0.325625
9.733333	1	0.368250
9.750000	1	0.415375
9.766667	1	0.466875
9.783333	1	0.519000
9.800000	1	0.563750
9.816667	1	0.589750
9.833333	1	0.584625
9.850000	1	0.541500
9.866667	1	0.467375
9.883333	1	0.389625
9.900000	1	0.353250
9.916667	1	0.414625
9.933333	1	0.633000
9.950000	1	1.063000
9.966667	1	1.751625
9.983333	1	2.739250
10.000000	1	4.059750
10.016667	1	5.741125
10.033333	1	7.806875
10.050000	1	10.272750
10.066667	1	13.150250
10.083333	1	16.445000
10.100000	1	20.153125
10.116667	1	24.259000
10.133333	1	28.735500
10.150000	1	33.545750
10.166667	1	38.644375
10.183333	1	43.979000
10.200000	1	49.490375
10.216667	1	55.121500
10.233333	1	60.811000
10.250000	1	66.490625
10.266667	1	72.096125
10.283333	1	77.552250
10.300000	1	82.770875
10.316667	1	87.646000
10.333333	1	92.057250
10.350000	1	95.878750
10.366667	1	98.987375
10.383333	1	101.272000
10.400000	1	102.649375
10.416667	1	103.061625
10.433333	1	102.479500
10.450000	1	100.904000
10.466667	1	98.356500
10.483333	1	94.882875
10.500000	1	90.547375
10.516667	1	85.428625
10.533333	1	79.622875
10.550000	1	73.236625
10.566667	1	66.405125
10.583333	1	59.308000
10.600000	1	52.181750
10.616667	1	45.311625
10.633333	1	38.984500
10.650000	1	33.408625
10.666667	1	28.675625
10.683333	1	24.773375
10.700000	1	21.620250
10.716667	1	19.106000
10.733333	1	17.116875
10.750000	1	15.548125
10.766667	1	14.311500
10.783333	1	13.330625
10.800000	1	12.545625
10.816667	1	11.907250
10.833333	1	11.376250
10.850000	1	10.923375
10.866667	1	10.528000
10.883333	1	10.171500
10.900000	1	9.840000
10.916667	1	9.523750
10.933333	1	9.213000
10.950000	1	8.901625
10.966667	1	8.585125
10.983333	1	8.261250
11.000000	1	7.928125
11.016667	1	7.585375
11.033333	1	7.235500
11.050000	1	6.881000
11.066667	1	6.526000
11.083333	1	6.174875
11.100000	1	5.834125
11.116667	1	5.511125
11.133333	1	5.210625
11.150000	1	4.936000
11.166667	1	4.690875
11.183333	1	4.476125
11.200000	1	4.290000
11.216667	1	4.131250
11.233333	1	3.996750
11.250000	1	3.884625
11.266667	1	3.791500
11.283333	1	3.715125
11.300000	1	3.653375
11.316667	1	3.605500
11.333333	1	3.569000
11.350000	1	3.542625
11.366667	1	3.525500
11.383333	1	3.515125
11.400000	1	3.509875
11.416667	1	3.507625
11.433333	1	3.506500
11.450000	1	3.503000
11.466667	1	3.496000
11.483333	1	3.484250
11.500000	1	3.465250
11.516667	1	3.438625
11.533333	1	3.404500
11.550000	1	3.363750
11.566667	1	3.316750
11.583333	1	3.264625
11.600000	1	3.209375
11.616667	1	3.151875
11.633333	1	3.092000
11.650000	1	3.032375
11.666667	1	2.973375
11.683333	1	2.913250
11.700000	1	2.854250
11.716667	1	2.797500
11.733333	1	2.743250
11.750000	1	2.692250
11.766667	1	2.643625
11.783333	1	2.598500
11.800000	1	2.556500
11.816667	1	2.517500
11.833333	1	2.480625
11.850000	1	2.446500
11.866667	1	2.415625
11.883333	1	2.386500
11.900000	1	2.358500
11.916667	1	2.332125
11.933333	1	2.305625
11.950000	1	2.279250
11.966667	1	2.253625
11.983333	1	2.226875
12.000000	1	2.199625
12.016667	1	2.171750
12.033333	1	2.144250
12.050000	1	2.118500
12.066667	1	2.095250
12.083333	1	2.076000
12.100000	1	2.062125
12.116667	1	2.056000
12.133333	1	2.060625
12.150000	1	2.076375
12.166667	1	2.104750
12.183333	1	2.148625
12.200000	1	2.208500
12.216667	1	2.287375
12.233333	1	2.388000
12.250000	1	2.512500
12.266667	1	2.664625
12.283333	1	2.847500
12.300000	1	3.062250
12.316667	1	3.312500
12.333333	1	3.599875
12.350000	1	3.924500
12.366667	1	4.285250
12.383333	1	4.681500
12.400000	1	5.111625
12.416667	1	5.573000
12.433333	1	6.064250
12.450000	1	6.584250
12.466667	1	7.132125
12.483333	1	7.705000
12.500000	1	8.301375
12.516667	1	8.917875
12.533333	1	9.550750
12.550000	1	10.195750
12.566667	1	10.847000
12.583333	1	11.498875
12.600000	1	12.144625
12.616667	1	12.776500
12.633333	1	13.389125
12.650000	1	13.975500
12.666667	1	14.529750
12.683333	1	15.045375
12.700000	1	15.517500
12.716667	1	15.942125
12.733333	1	16.315625
12.750000	1	16.636000
12.766667	1	16.902625
12.783333	1	17.115500
12.800000	1	17.275750
12.816667	1	17.388000
12.833333	1	17.453375
12.850000	1	17.477875
12.866667	1	17.463750
12.883333	1	17.415375
12.900000	1	17.337500
12.916667	1	17.232500
12.933333	1	17.103500
12.950000	1	16.953125
12.966667	1	16.782500
12.983333	1	16.591875
13.000000	1	16.383375
13.016667	1	16.157500
13.033333	1	15.916000
13.050000	1	15.660000
13.066667	1	15.392750
13.083333	1	15.116375
13.100000	1	14.834250
13.116667	1	14.547875
13.133333	1	14.260625
13.150000	1	13.975625
13.166667	1	13.694875
13.183333	1	13.420875
13.200000	1	13.155250
13.216667	1	12.898750
13.233333	1	12.652375
13.250000	1	12.414875
13.266667	1	12.187500
13.283333	1	11.969500
13.300000	1	11.759875
13.316667	1	11.557875
13.333333	1	11.362125
13.350000	1	11.173750
13.366667	1	10.991250
13.383333	1	10.812750
13.400000	1	10.638000
13.416667	1	10.465750
13.433333	1	10.295125
13.450000	1	10.125000
13.466667	1	9.952000
13.483333	1	9.774625
13.500000	1	9.590250
13.516667	1	9.396875
13.533333	1	9.192000
13.550000	1	8.973250
13.566667	1	8.739375
13.583333	1	8.488625
13.600000	1	8.223875
13.616667	1	7.943375
13.633333	1	7.648000
13.650000	1	7.337500
13.666667	1	7.011500
13.683333	1	6.671750
13.700000	1	6.319875
13.716667	1	5.963375
13.733333	1	5.612625
13.750000	1	5.282000
13.766667	1	4.983375
13.783333	1	4.725250
13.800000	1	4.510250
13.816667	1	4.336875
13.833333	1	4.198375
13.850000	1	4.089875
13.866667	1	4.002125
13.883333	1	3.932000
13.900000	1	3.874875
13.916667	1	3.827500
13.933333	1	3.787625
13.950000	1	3.752750
13.966667	1	3.720500
13.983333	1	3.690000
14.000000	1	3.661250
14.016667	1	3.631875
14.033333	1	3.603125
14.050000	1	3.574250
14.066667	1	3.546250
14.083333	1	3.519875
14.100000	1	3.496125
14.116667	1	3.475250
14.133333	1	3.460875
14.150000	1	3.454375
14.166667	1	3.456500
14.183333	1	3.469250
14.200000	1	3.494750
14.216667	1	3.533875
14.233333	1	3.587125
14.250000	1	3.654750
14.266667	1	3.738375
14.283333	1	3.837125
14.300000	1	3.949500
14.316667	1	4.073500
14.333333	1	4.208625
14.350000	1	4.352250
14.366667	1	4.503250
14.383333	1	4.659375
14.400000	1	4.817500
14.416667	1	4.975875
14.433333	1	5.132625
14.450000	1	5.284500
14.466667	1	5.432125
14.483333	1	5.573000
14.500000	1	5.708875
14.516667	1	5.842125
14.533333	1	5.976750
14.550000	1	6.118875
14.566667	1	6.274625
14.583333	1	6.452000
14.600000	1	6.657125
14.616667	1	6.898500
14.633333	1	7.181750
14.650000	1	7.510500
14.666667	1	7.886750
14.683333	1	8.310250
14.700000	1	8.777500
14.716667	1	9.284625
14.733333	1	9.826375
14.750000	1	10.398000
14.766667	1	10.996375
14.783333	1	11.617625
14.800000	1	12.260500
14.816667	1	12.924750
14.833333	1	13.611750
14.850000	1	14.320375
14.866667	1	15.047625
14.883333	1	15.788750
14.900000	1	16.535625
14.916667	1	17.277250
14.933333	1	17.999000
14.950000	1	18.686375
14.966667	1	19.323000
14.983333	1	19.893500
15.000000	1	20.382250
15.016667	1	20.780750
15.033333	1	21.075875
15.050000	1	21.259625
15.066667	1	21.324875
15.083333	1	21.267000
15.100000	1	21.084875
15.116667	1	20.780750
15.133333	1	20.356375
15.150000	1	19.819500
15.166667	1	19.179125
15.183333	1	18.447375
15.200000	1	17.636500
15.216667	1	16.763500
15.233333	1	15.843500
15.250000	1	14.891125
15.266667	1	13.921875
15.283333	1	12.949875
15.300000	1	11.989500
15.316667	1	11.050750
15.333333	1	10.142750
15.350000	1	9.272625
15.366667	1	8.448000
15.383333	1	7.677875
15.400000	1	6.972625
15.416667	1	6.340625
15.433333	1	5.784875
15.450000	1	5.303500
15.466667	1	4.889125
15.483333	1	4.534125
15.500000	1	4.231250
15.516667	1	3.974375
15.533333	1	3.757625
15.550000	1	3.576000
15.566667	1	3.426000
15.583333	1	3.304250
15.600000	1	3.207875
15.616667	1	3.135625
15.633333	1	3.083625
15.650000	1	3.049500
15.666667	1	3.031375
15.683333	1	3.025875
15.700000	1	3.031500
15.716667	1	3.047000
15.733333	1	3.070125
15.750000	1	3.098750
15.766667	1	3.131625
15.783333	1	3.169625
15.800000	1	3.210875
15.816667	1	3.254750
15.833333	1	3.302750
15.850000	1	3.354750
15.866667	1	3.412375
15.883333	1	3.475250
15.900000	1	3.545250
15.916667	1	3.623125
15.933333	1	3.707625
15.950000	1	3.798875
15.966667	1	3.895750
15.983333	1	3.997000
16.000000	1	4.100250
16.016667	1	4.203875
16.033333	1	4.306250
16.050000	1	4.405000
16.066667	1	4.500000
16.083333	1	4.590125
16.100000	1	4.674500
16.116667	1	4.754500
16.133333	1	4.829875
16.150000	1	4.900000
16.166667	1	4.965125
16.183333	1	5.025500
16.200000	1	5.080625
16.216667	1	5.129125
16.233333	1	5.170375
16.250000	1	5.204125
16.266667	1	5.227250
16.283333	1	5.241750
16.300000	1	5.244750
16.316667	1	5.236125
16.333333	1	5.214250
16.350000	1	5.179000
16.366667	1	5.129625
16.383333	1	5.067500
16.400000	1	4.990250
16.416667	1	4.898250
16.433333	1	4.791125
16.450000	1	4.670375
16.466667	1	4.535250
16.483333	1	4.388500
16.500000	1	4.230375
16.516667	1	4.062625
16.533333	1	3.889125
16.550000	1	3.712000
16.566667	1	3.533750
16.583333	1	3.356375
16.600000	1	3.183000
16.616667	1	3.015750
16.633333	1	2.855500
16.650000	1	2.704750
16.666667	1	2.564625
16.683333	1	2.435500
16.700000	1	2.317875
16.716667	1	2.211500
16.733333	1	2.116125
16.750000	1	2.031500
16.766667	1	1.957000
16.783333	1	1.892125
16.800000	1	1.834375
16.816667	1	1.783500
16.833333	1	1.739000
16.850000	1	1.699750
16.866667	1	1.664625
16.883333	1	1.634500
16.900000	1	1.607625
16.916667	1	1.582750
16.933333	1	1.559250
16.950000	1	1.537500
16.966667	1	1.516500
16.983333	1	1.496625
17.000000	1	1.477375
17.016667	1	1.458375
17.033333	1	1.439875
17.050000	1	1.422875
17.066667	1	1.406375
17.083333	1	1.390750
17.100000	1	1.376000
17.116667	1	1.361500
17.133333	1	1.347875
17.150000	1	1.334750
17.166667	1	1.321750
17.183333	1	1.309625
17.200000	1	1.298750
17.216667	1	1.288375
17.233333	1	1.277500
17.250000	1	1.267250
17.266667	1	1.257875
17.283333	1	1.247750
17.300000	1	1.239125
17.316667	1	1.230625
17.333333	1	1.221750
17.350000	1	1.213125
17.366667	1	1.205375
17.383333	1	1.197875
17.400000	1	1.191250
17.416667	1	1.184000
17.433333	1	1.177625
17.450000	1	1.172250
17.466667	1	1.167875
17.483333	1	1.164250
17.500000	1	1.162000
17.516667	1	1.160500
17.533333	1	1.160625
17.550000	1	1.161750
17.566667	1	1.165000
17.583333	1	1.169875
17.600000	1	1.176375
17.616667	1	1.185125
17.633333	1	1.195125
17.650000	1	1.207500
17.666667	1	1.221625
17.683333	1	1.236750
17.700000	1	1.253500
17.716667	1	1.272000
17.733333	1	1.291625
17.750000	1	1.312875
17.766667	1	1.335250
17.783333	1	1.358250
17.800000	1	1.382500
17.816667	1	1.407625
17.833333	1	1.433500
17.850000	1	1.459625
17.866667	1	1.486500
17.883333	1	1.512875
17.900000	1	1.539250
17.916667	1	1.565000
17.933333	1	1.589875
17.950000	1	1.613750
17.966667	1	1.635875
17.983333	1	1.655750
18.000000	1	1.674250
18.016667	1	1.691125
18.033333	1	1.705375
18.050000	1	1.717625
18.066667	1	1.727750
18.083333	1	1.735875
18.100000	1	1.741000
18.116667	1	1.742750
18.133333	1	1.742375
18.150000	1	1.739875
18.166667	1	1.735625
18.183333	1	1.727625
18.200000	1	1.717500
18.216667	1	1.705625
18.233333	1	1.691000
18.250000	1	1.674750
18.266667	1	1.657000
18.283333	1	1.637125
18.300000	1	1.615750
18.316667	1	1.593625
18.333333	1	1.570000
18.350000	1	1.545750
18.366667	1	1.521000
18.383333	1	1.495500
18.400000	1	1.470375
18.416667	1	1.444500
18.433333	1	1.418250
18.450000	1	1.392750
18.466667	1	1.367250
18.483333	1	1.341750
18.500000	1	1.317250
18.516667	1	1.292625
18.533333	1	1.268125
18.550000	1	1.245000
18.566667	1	1.221875
18.583333	1	1.199750
18.600000	1	1.177750
18.616667	1	1.156875
18.633333	1	1.136500
18.650000	1	1.117375
18.666667	1	1.099000
18.683333	1	1.081000
18.700000	1	1.063875
18.716667	1	1.046250
18.733333	1	1.030250
18.750000	1	1.014625
18.766667	1	1.000000
18.783333	1	0.986625
18.800000	1	0.974500
18.816667	1	0.963125
18.833333	1	0.952875
18.850000	1	0.944125
18.866667	1	0.937000
18.883333	1	0.932250
18.900000	1	0.929375
18.916667	1	0.928375
18.933333	1	0.929250
18.950000	1	0.932625
18.966667	1	0.938500
18.983333	1	0.945750
19.000000	1	0.955375
19.016667	1	0.967375
19.033333	1	0.981125
19.050000	1	0.997250
19.066667	1	1.015125
19.083333	1	1.035375
19.100000	1	1.056625
19.116667	1	1.078625
19.133333	1	1.102250
19.150000	1	1.127125
19.166667	1	1.153875
19.183333	1	1.181875
19.200000	1	1.210500
19.216667	1	1.240375
19.233333	1	1.271500
19.250000	1	1.302375
19.266667	1	1.334000
19.283333	1	1.365375
19.300000	1	1.396750
19.316667	1	1.427500
19.333333	1	1.458375
19.350000	1	1.486875
19.366667	1	1.514125
19.383333	1	1.539375
19.400000	1	1.562125
19.416667	1	1.582000
19.433333	1	1.600875
19.450000	1	1.616250
19.466667	1	1.628500
19.483333	1	1.637625
19.500000	1	1.642500
19.516667	1	1.642750
19.533333	1	1.639250
19.550000	1	1.632375
19.566667	1	1.621500
19.583333	1	1.607250
19.600000	1	1.589500
19.616667	1	1.567250
19.633333	1	1.541875
19.650000	1	1.514000
19.666667	1	1.483625
19.683333	1	1.451500
19.700000	1	1.418625
19.716667	1	1.384125
19.733333	1	1.349125
19.750000	1	1.313625
19.766667	1	1.278750
19.783333	1	1.243625
19.800000	1	1.211000
19.816667	1	1.179375
19.833333	1	1.149875
19.850000	1	1.122125
19.866667	1	1.098000
19.883333	1	1.077250
19.900000	1	1.059625
19.916667	1	1.045000
19.933333	1	1.034000
19.950000	1	1.026875
19.966667	1	1.024000
19.983333	1	1.026000
20.000000	1	1.031375
20.016667	1	1.041000
20.033333	1	1.054750
20.050000	1	1.073375
20.066667	1	1.096875
20.083333	1	1.125125
20.100000	1	1.158500
20.116667	1	1.196750
20.133333	1	1.240125
20.150000	1	1.287125
20.166667	1	1.338250
20.183333	1	1.393250
20.200000	1	1.451750
20.216667	1	1.512375
20.233333	1	1.574375
20.250000	1	1.637500
20.266667	1	1.699875
20.283333	1	1.763375
20.300000	1	1.825000
20.316667	1	1.886250
20.333333	1	1.947750
20.350000	1	2.008250
20.366667	1	2.069375
20.383333	1	2.131875
20.400000	1	2.195500
20.416667	1	2.261625
20.433333	1	2.329750
20.450000	1	2.401000
20.466667	1	2.475375
20.483333	1	2.552750
20.500000	1	2.632375
20.516667	1	2.713500
20.533333	1	2.796125
20.550000	1	2.879125
20.566667	1	2.962500
20.583333	1	3.045375
20.600000	1	3.126750
20.616667	1	3.206375
20.633333	1	3.280750
20.650000	1	3.351500
20.666667	1	3.417125
20.683333	1	3.475125
20.700000	1	3.524750
20.716667	1	3.565750
20.733333	1	3.596250
20.750000	1	3.615250
20.766667	1	3.622125
20.783333	1	3.616250
20.800000	1	3.597750
20.816667	1	3.567875
20.833333	1	3.526000
20.850000	1	3.473625
20.866667	1	3.412625
20.883333	1	3.343500
20.900000	1	3.269125
20.916667	1	3.191375
20.933333	1	3.110875
20.950000	1	3.030500
20.966667	1	2.951625
20.983333	1	2.875375
21.000000	1	2.800875
21.016667	1	2.730750
21.033333	1	2.665500
21.050000	1	2.604375
21.066667	1	2.548125
21.083333	1	2.495625
21.100000	1	2.446000
21.116667	1	2.398750
21.133333	1	2.353875
21.150000	1	2.309625
21.166667	1	2.264000
21.183333	1	2.218000
21.200000	1	2.170375
21.216667	1	2.120125
21.233333	1	2.066000
21.250000	1	2.007875
21.266667	1	1.945875
21.283333	1	1.879625
21.300000	1	1.809000
21.316667	1	1.735125
21.333333	1	1.659000
21.350000	1	1.579000
21.366667	1	1.496250
21.383333	1	1.413000
21.400000	1	1.330000
21.416667	1	1.247250
21.433333	1	1.165875
21.450000	1	1.087125
21.466667	1	1.011375
21.483333	1	0.938750
21.500000	1	0.870375
21.516667	1	0.806250
21.533333	1	0.746875
21.550000	1	0.692750
21.566667	1	0.643250
21.583333	1	0.599000
21.600000	1	0.559375
21.616667	1	0.524875
21.633333	1	0.495625
21.650000	1	0.469875
21.666667	1	0.448875
21.683333	1	0.431625
21.700000	1	0.419125
21.716667	1	0.408500
21.733333	1	0.401375
21.750000	1	0.397500
21.766667	1	0.396125
21.783333	1	0.397000
21.800000	1	0.399250
21.816667	1	0.404875
21.833333	1	0.411000
21.850000	1	0.419875
21.866667	1	0.429625
21.883333	1	0.441000
21.900000	1	0.453375
21.916667	1	0.467625
21.933333	1	0.482125
21.950000	1	0.498250
21.966667	1	0.515750
21.983333	1	0.533500
22.000000	1	0.552375
22.016667	1	0.572250
22.033333	1	0.592375
22.050000	1	0.612750
22.066667	1	0.632500
22.083333	1	0.653000
22.100000	1	0.673125
22.116667	1	0.691500
22.133333	1	0.710250
22.150000	1	0.727625
22.166667	1	0.743000
22.183333	1	0.756625
22.200000	1	0.768375
22.216667	1	0.778000
22.233333	1	0.784625
22.250000	1	0.789375
22.266667	1	0.791125
22.283333	1	0.789625
22.300000	1	0.785250
22.316667	1	0.777750
22.333333	1	0.767250
22.350000	1	0.754375
22.366667	1	0.738000
22.383333	1	0.720125
22.400000	1	0.699750
22.416667	1	0.677750
22.433333	1	0.653750
22.450000	1	0.628875
22.466667	1	0.604125
22.483333	1	0.578125
22.500000	1	0.552375
22.516667	1	0.527375
22.533333	1	0.502750
22.550000	1	0.480000
22.566667	1	0.457750
22.583333	1	0.437875
22.600000	1	0.418750
22.616667	1	0.402875
22.633333	1	0.387750
22.650000	1	0.374625
22.666667	1	0.363125
22.683333	1	0.353375
22.700000	1	0.343625
22.716667	1	0.336500
22.733333	1	0.330500
22.750000	1	0.325500
22.766667	1	0.321375
22.783333	1	0.318500
22.800000	1	0.316000
22.816667	1	0.313375
22.833333	1	0.312250
22.850000	1	0.310875
22.866667	1	0.308875
22.883333	1	0.308000
22.900000	1	0.306125
22.916667	1	0.304125
22.933333	1	0.302125
22.950000	1	0.299125
22.966667	1	0.296250
22.983333	1	0.292875
23.000000	1	0.288750
23.016667	1	0.284625
23.033333	1	0.279250
23.050000	1	0.273875
23.066667	1	0.266625
23.083333	1	0.260000
23.100000	1	0.252500
23.116667	1	0.245000
23.133333	1	0.237125
23.150000	1	0.228500
23.166667	1	0.219250
23.183333	1	0.209375
23.200000	1	0.199375
23.216667	1	0.189500
23.233333	1	0.179250
23.250000	1	0.168875
23.266667	1	0.159500
23.283333	1	0.149375
23.300000	1	0.139375
23.316667	1	0.129625
23.333333	1	0.121000
23.350000	1	0.112750
23.366667	1	0.105250
23.383333	1	0.097875
23.400000	1	0.092125
23.416667	1	0.087625
23.433333	1	0.084250
23.450000	1	0.081875
23.466667	1	0.081500
23.483333	1	0.083125
23.500000	1	0.086375
23.516667	1	0.091500
23.533333	1	0.098750
23.550000	1	0.108000
23.566667	1	0.119500
23.583333	1	0.133375
23.600000	1	0.149125
23.616667	1	0.166500
23.633333	1	0.186500
23.650000	1	0.207625
23.666667	1	0.230500
23.683333	1	0.255625
23.700000	1	0.281875
23.716667	1	0.308750
23.733333	1	0.337750
23.750000	1	0.368250
23.766667	1	0.399625
23.783333	1	0.431750
23.800000	1	0.464625
23.816667	1	0.499125
23.833333	1	0.535625
23.850000	1	0.573250
23.866667	1	0.612000
23.883333	1	0.651000
23.900000	1	0.692000
23.916667	1	0.734125
23.933333	1	0.777125
23.950000	1	0.819625
23.966667	1	0.862000
23.983333	1	0.905000
24.000000	1	0.947000
24.016667	1	0.989125
24.033333	1	1.029375
24.050000	1	1.067750
24.066667	1	1.103875
24.083333	1	1.138375
24.100000	1	1.169375
24.116667	1	1.197125
24.133333	1	1.221250
24.150000	1	1.240500
24.166667	1	1.255375
24.183333	1	1.265875
24.200000	1	1.271000
24.216667	1	1.271625
24.233333	1	1.267125
24.250000	1	1.257625
24.266667	1	1.242500
24.283333	1	1.222625
24.300000	1	1.198125
24.316667	1	1.168875
24.333333	1	1.135875
24.350000	1	1.099375
24.366667	1	1.060875
24.383333	1	1.020250
24.400000	1	0.977875
24.416667	1	0.934375
24.433333	1	0.890875
24.450000	1	0.847250
24.466667	1	0.804250
24.483333	1	0.763500
24.500000	1	0.723875
24.516667	1	0.686750
24.533333	1	0.653125
24.550000	1	0.621750
24.566667	1	0.592375
24.583333	1	0.566625
24.600000	1	0.544500
24.616667	1	0.524250
24.633333	1	0.507000
24.650000	1	0.492250
24.666667	1	0.479000
24.683333	1	0.468500
24.700000	1	0.459750
24.716667	1	0.451750
24.733333	1	0.445000
24.750000	1	0.439000
24.766667	1	0.433875
24.783333	1	0.428875
24.800000	1	0.424125
24.816667	1	0.418750
24.833333	1	0.412875
24.850000	1	0.406375
24.866667	1	0.399500
24.883333	1	0.392000
24.900000	1	0.382250
24.916667	1	0.371375
24.933333	1	0.359625
24.950000	1	0.346750
24.966667	1	0.332500
24.983333	1	0.317000
25.000000	1	0.299875
25.016667	1	0.282250
25.033333	1	0.262750
25.050000	1	0.242875
25.066667	1	0.222750
25.083333	1	0.201125
25.100000	1	0.180000
25.116667	1	0.157500
25.133333	1	0.135125
25.150000	1	0.113250
25.166667	1	0.092000
25.183333	1	0.071125
25.200000	1	0.051000
25.216667	1	0.032250
25.233333	1	0.014250
25.250000	1	-0.003250
25.266667	1	-0.019250
25.283333	1	-0.034250
25.300000	1	-0.047750
25.316667	1	-0.060250
25.333333	1	-0.071125
25.350000	1	-0.081000
25.366667	1	-0.089250
25.383333	1	-0.096500
25.400000	1	-0.102250
25.416667	1	-0.106875
25.433333	1	-0.110625
25.450000	1	-0.113250
25.466667	1	-0.114875
25.483333	1	-0.115875
25.500000	1	-0.115250
25.516667	1	-0.114000
25.533333	1	-0.112500
25.550000	1	-0.109625
25.566667	1	-0.107000
25.583333	1	-0.103625
25.600000	1	-0.099750
25.616667	1	-0.095500
25.633333	1	-0.090500
25.650000	1	-0.085375
25.666667	1	-0.080375
25.683333	1	-0.076375
25.700000	1	-0.072250
25.716667	1	-0.067125
25.733333	1	-0.062500
25.750000	1	-0.057625
25.766667	1	-0.052250
25.783333	1	-0.047625
25.800000	1	-0.043750
25.816667	1	-0.040125
25.833333	1	-0.036625
25.850000	1	-0.033625
25.866667	1	-0.031375
25.883333	1	-0.028875
25.900000	1	-0.026875
25.916667	1	-0.024500
25.933333	1	-0.023750
25.950000	1	-0.023625
25.966667	1	-0.023250
25.983333	1	-0.022500
26.000000	1	-0.022250
26.016667	1	-0.021875
26.033333	1	-0.021875
26.050000	1	-0.022000
26.066667	1	-0.022250
26.083333	1	-0.022875
26.100000	1	-0.023125
26.116667	1	-0.023750
26.133333	1	-0.024250
26.150000	1	-0.023750
26.166667	1	-0.023500
26.183333	1	-0.022500
26.200000	1	-0.022000
26.216667	1	-0.021000
26.233333	1	-0.019875
26.250000	1	-0.018500
26.266667	1	-0.016375
26.283333	1	-0.014750
26.300000	1	-0.012875
26.316667	1	-0.010875
26.333333	1	-0.008250
26.350000	1	-0.005500
26.366667	1	-0.003000
26.383333	1	-0.000750
26.400000	1	0.001375
26.416667	1	0.004250
26.433333	1	0.006125
26.450000	1	0.008125
26.466667	1	0.010625
26.483333	1	0.013125
26.500000	1	0.015125
26.516667	1	0.016875
26.533333	1	0.019000
26.550000	1	0.020750
26.566667	1	0.022375
26.583333	1	0.024000
26.600000	1	0.024750
26.616667	1	0.025125
26.633333	1	0.025375
26.650000	1	0.024625
26.666667	1	0.024250
26.683333	1	0.023875
26.700000	1	0.023000
26.716667	1	0.021750
26.733333	1	0.019125
26.750000	1	0.016500
26.766667	1	0.014250
26.783333	1	0.010750
26.800000	1	0.007000
26.816667	1	0.002500
26.833333	1	-0.002125
26.850000	1	-0.007875
26.866667	1	-0.013750
26.883333	1	-0.020250
26.900000	1	-0.027250
26.916667	1	-0.034875
26.933333	1	-0.043000
26.950000	1	-0.051000
26.966667	1	-0.059875
26.983333	1	-0.069625
27.000000	1	-0.079000
27.016667	1	-0.089125
27.033333	1	-0.099625
27.050000	1	-0.110250
27.066667	1	-0.120750
27.083333	1	-0.132000
27.100000	1	-0.142500
27.116667	1	-0.154000
27.133333	1	-0.164875
27.150000	1	-0.175500
27.166667	1	-0.186500
27.183333	1	-0.197375
27.200000	1	-0.208250
27.216667	1	-0.218625
27.233333	1	-0.228750
27.250000	1	-0.238625
27.266667	1	-0.248000
27.283333	1	-0.256375
27.300000	1	-0.263750
27.316667	1	-0.271500
27.333333	1	-0.277625
27.350000	1	-0.282750
27.366667	1	-0.287875
27.383333	1	-0.291000
27.400000	1	-0.292875
27.416667	1	-0.293250
27.433333	1	-0.292500
27.450000	1	-0.289250
27.466667	1	-0.284250
27.483333	1	-0.276125
27.500000	1	-0.265750
27.516667	1	-0.252625
27.533333	1	-0.236250
27.550000	1	-0.217250
27.566667	1	-0.194250
27.583333	1	-0.168250
27.600000	1	-0.139250
27.616667	1	-0.105750
27.633333	1	-0.068250
27.650000	1	-0.028125
27.666667	1	0.015375
27.683333	1	0.062500
27.700000	1	0.113000
27.716667	1	0.166375
27.733333	1	0.223000
27.750000	1	0.282500
27.766667	1	0.344250
27.783333	1	0.408625
27.800000	1	0.474750
27.816667	1	0.542875
27.833333	1	0.612625
27.850000	1	0.684250
27.866667	1	0.757750
27.883333	1	0.832875
27.900000	1	0.910125
27.916667	1	0.988000
27.933333	1	1.067500
27.950000	1	1.148750
27.966667	1	1.231625
27.983333	1	1.315625
28.000000	1	1.400625
28.016667	1	1.486125
28.033333	1	1.572625
28.050000	1	1.659375
28.066667	1	1.745375
28.083333	1	1.832000
28.100000	1	1.917625
28.116667	1	2.001750
28.133333	1	2.083375
28.150000	1	2.162875
28.166667	1	2.239750
28.183333	1	2.313875
28.200000	1	2.383875
28.216667	1	2.449500
28.233333	1	2.510750
28.250000	1	2.566875
28.266667	1	2.618125
28.283333	1	2.663500
28.300000	1	2.702125
28.316667	1	2.734625
28.333333	1	2.760250
28.350000	1	2.777625
28.366667	1	2.787125
28.383333	1	2.787875
28.400000	1	2.780750
28.416667	1	2.765375
28.433333	1	2.740500
28.450000	1	2.706000
28.466667	1	2.661500
28.483333	1	2.607125
28.500000	1	2.544750
28.516667	1	2.472500
28.533333	1	2.391750
28.550000	1	2.302500
28.566667	1	2.204500
28.583333	1	2.099875
28.600000	1	1.989625
28.616667	1	1.873000
28.633333	1	1.753125
28.650000	1	1.629625
28.666667	1	1.504000
28.683333	1	1.377125
28.700000	1	1.249875
28.716667	1	1.124875
28.733333	1	1.002375
28.750000	1	0.884000
28.766667	1	0.769625
28.783333	1	0.660000
28.800000	1	0.556500
28.816667	1	0.458000
28.833333	1	0.366375
28.850000	1	0.281125
28.866667	1	0.201750
28.883333	1	0.129875
28.900000	1	0.064125
28.916667	1	0.004375
28.933333	1	-0.049375
28.950000	1	-0.097625
28.966667	1	-0.139875
28.983333	1	-0.177125
29.000000	1	-0.209875
29.016667	1	-0.239250
29.033333	1	-0.264500
29.050000	1	-0.286500
29.066667	1	-0.305000
29.083333	1	-0.321000
29.100000	1	-0.334000
29.116667	1	-0.344875
29.133333	1	-0.354250
29.150000	1	-0.361125
29.166667	1	-0.366500
29.183333	1	-0.370375
29.200000	1	-0.373125
29.216667	1	-0.373875
29.233333	1	-0.373875
29.250000	1	-0.372750
29.266667	1	-0.370625
29.283333	1	-0.368125
29.300000	1	-0.364875
29.316667	1	-0.360500
29.333333	1	-0.355500
29.350000	1	-0.349875
29.366667	1	-0.343000
29.383333	1	-0.336125
29.400000	1	-0.328750
29.416667	1	-0.321250
29.433333	1	-0.313125
29.450000	1	-0.304375
29.466667	1	-0.295375
29.483333	1	-0.285625
29.500000	1	-0.276125
29.516667	1	-0.266500
29.533333	1	-0.256375
29.550000	1	-0.246375
29.566667	1	-0.236375
29.583333	1	-0.225750
29.600000	1	-0.214875
29.616667	1	-0.204500
29.633333	1	-0.194000
29.650000	1	-0.183625
29.666667	1	-0.173500
29.683333	1	-0.164000
29.700000	1	-0.154375
29.716667	1	-0.144250
29.733333	1	-0.134500
29.750000	1	-0.125125
29.766667	1	-0.116625
29.783333	1	-0.108500
29.800000	1	-0.099750
29.816667	1	-0.091125
29.833333	1	-0.083250
29.850000	1	-0.076500
29.866667	1	-0.069750
29.883333	1	-0.064375
29.900000	1	-0.058500
29.916667	1	-0.052625
29.933333	1	-0.047375
29.950000	1	-0.043000
29.966667	1	-0.039125
29.983333	1	-0.036125
30.000000	1	-0.033000
30.016667	1	-0.030750
30.033333	1	-0.029000
30.050000	1	-0.027125
30.066667	1	-0.026375
30.083333	1	-0.026125
30.100000	1	-0.026375
30.116667	1	-0.027125
30.133333	1	-0.028125
30.150000	1	-0.030375
30.166667	1	-0.032125
30.183333	1	-0.034375
30.200000	1	-0.037875
30.216667	1	-0.041500
30.233333	1	-0.045250
30.250000	1	-0.050125
30.266667	1	-0.054250
30.283333	1	-0.058500
30.300000	1	-0.063125
30.316667	1	-0.068375
30.333333	1	-0.073500
30.350000	1	-0.077875
30.366667	1	-0.083625
30.383333	1	-0.088750
30.400000	1	-0.094375
30.416667	1	-0.099750
30.433333	1	-0.104125
30.450000	1	-0.108375
30.466667	1	-0.112375
30.483333	1	-0.116750
30.500000	1	-0.120250
30.516667	1	-0.123875
30.533333	1	-0.126750
30.550000	1	-0.128875
30.566667	1	-0.131500
30.583333	1	-0.133750
30.600000	1	-0.134500
30.616667	1	-0.134875
30.633333	1	-0.134750
30.650000	1	-0.134375
30.666667	1	-0.133875
30.683333	1	-0.131625
30.700000	1	-0.129875
30.716667	1	-0.127500
30.733333	1	-0.124500
30.750000	1	-0.121375
30.766667	1	-0.117375
30.783333	1	-0.113250
30.800000	1	-0.108750
30.816667	1	-0.103625
30.833333	1	-0.098375
30.850000	1	-0.092625
30.866667	1	-0.086250
30.883333	1	-0.079625
30.900000	1	-0.072750
30.916667	1	-0.064875
30.933333	1	-0.057125
30.950000	1	-0.048875
30.966667	1	-0.040500
30.983333	1	-0.032375
31.000000	1	-0.024125
31.016667	1	-0.015875
31.033333	1	-0.007750
31.050000	1	0.000625
31.066667	1	0.008625
31.083333	1	0.016625
31.100000	1	0.024500
31.116667	1	0.032250
31.133333	1	0.039375
31.150000	1	0.046375
31.166667	1	0.052500
31.183333	1	0.058375
31.200000	1	0.064000
31.216667	1	0.069250
31.233333	1	0.073000
31.250000	1	0.075375
31.266667	1	0.077375
31.283333	1	0.078625
31.300000	1	0.078750
31.316667	1	0.078250
31.333333	1	0.076500
31.350000	1	0.074000
31.366667	1	0.070500
31.383333	1	0.065625
31.400000	1	0.060375
31.416667	1	0.054125
31.433333	1	0.047250
31.450000	1	0.039750
31.466667	1	0.031250
31.483333	1	0.022625
31.500000	1	0.013250
31.516667	1	0.003875
31.533333	1	-0.006375
31.550000	1	-0.016875
31.566667	1	-0.027250
31.583333	1	-0.037625
31.600000	1	-0.047250
31.616667	1	-0.057750
31.633333	1	-0.068375
31.650000	1	-0.078250
31.666667	1	-0.087875
31.683333	1	-0.096625
31.700000	1	-0.104375
31.716667	1	-0.112375
31.733333	1	-0.118500
31.750000	1	-0.124625
31.766667	1	-0.130375
31.783333	1	-0.135875
31.800000	1	-0.139875
31.816667	1	-0.143125
31.833333	1	-0.145875
31.850000	1	-0.147750
31.866667	1	-0.148875
31.883333	1	-0.149000
31.900000	1	-0.149000
31.916667	1	-0.148500
31.933333	1	-0.147500
31.950000	1	-0.145750
31.966667	1	-0.143375
31.983333	1	-0.140750
32.000000	1	-0.136875
32.016667	1	-0.132875
32.033333	1	-0.128125
32.050000	1	-0.123500
32.066667	1	-0.119125
32.083333	1	-0.113500
32.100000	1	-0.108125
32.116667	1	-0.102750
32.133333	1	-0.097500
32.150000	1	-0.091375
32.166667	1	-0.085125
32.183333	1	-0.079000
32.200000	1	-0.073250
32.216667	1	-0.066375
32.233333	1	-0.059875
32.250000	1	-0.053500
32.266667	1	-0.047375
32.283333	1	-0.041625
32.300000	1	-0.036625
32.316667	1	-0.031375
32.333333	1	-0.026500
32.350000	1	-0.021500
32.366667	1	-0.017500
32.383333	1	-0.014000
32.400000	1	-0.010375
32.416667	1	-0.007500
32.433333	1	-0.005000
32.450000	1	-0.003000
32.466667	1	-0.002250
32.483333	1	-0.001625
32.500000	1	-0.001625
32.516667	1	-0.002250
32.533333	1	-0.003375
32.550000	1	-0.005000
32.566667	1	-0.007875
32.583333	1	-0.011750
32.600000	1	-0.016000
32.616667	1	-0.020625
32.633333	1	-0.026125
32.650000	1	-0.033000
32.666667	1	-0.039875
32.683333	1	-0.047250
32.700000	1	-0.055625
32.716667	1	-0.064625
32.733333	1	-0.074875
32.750000	1	-0.085250
32.766667	1	-0.096125
32.783333	1	-0.107750
32.800000	1	-0.119875
32.816667	1	-0.132875
32.833333	1	-0.146125
32.850000	1	-0.159625
32.866667	1	-0.173875
32.883333	1	-0.187625
32.900000	1	-0.202625
32.916667	1	-0.217000
32.933333	1	-0.231375
32.950000	1	-0.246375
32.966667	1	-0.261625
32.983333	1	-0.276750
33.000000	1	-0.291625
33.016667	1	-0.307125
33.033333	1	-0.322875
33.050000	1	-0.337875
33.066667	1	-0.352750
33.083333	1	-0.367125
33.100000	1	-0.381000
33.116667	1	-0.395125
33.133333	1	-0.409875
33.150000	1	-0.423750
33.166667	1	-0.436750
33.183333	1	-0.450000
33.200000	1	-0.462250
33.216667	1	-0.474750
33.233333	1	-0.486250
33.250000	1	-0.497625
33.266667	1	-0.508125
33.283333	1	-0.518875
33.300000	1	-0.528500
33.316667	1	-0.537875
33.333333	1	-0.546875
33.350000	1	-0.554875
33.366667	1	-0.562875
33.383333	1	-0.570875
33.400000	1	-0.578375
33.416667	1	-0.585500
33.433333	1	-0.591750
33.450000	1	-0.597500
33.466667	1	-0.603375
33.483333	1	-0.608875
33.500000	1	-0.613750
33.516667	1	-0.618500
33.533333	1	-0.622625
33.550000	1	-0.627250
33.566667	1	-0.631625
33.583333	1	-0.635125
33.600000	1	-0.639125
33.616667	1	-0.641500
33.633333	1	-0.644625
33.650000	1	-0.646875
33.666667	1	-0.649000
33.683333	1	-0.651000
33.700000	1	-0.652750
33.716667	1	-0.654250
33.733333	1	-0.655875
33.750000	1	-0.657750
33.766667	1	-0.659250
33.783333	1	-0.661500
33.800000	1	-0.662625
33.816667	1	-0.663625
33.833333	1	-0.664625
33.850000	1	-0.665125
33.866667	1	-0.665875
33.883333	1	-0.666625
33.900000	1	-0.667500
33.916667	1	-0.667500
33.933333	1	-0.667750
33.950000	1	-0.667875
33.966667	1	-0.667875
33.983333	1	-0.668000
34.000000	1	-0.668250
34.016667	1	-0.669000
34.033333	1	-0.669125
34.050000	1	-0.668750
34.066667	1	-0.668750
34.083333	1	-0.667875
34.100000	1	-0.667375
34.116667	1	-0.666750
34.133333	1	-0.665625
34.150000	1	-0.665250
34.166667	1	-0.664375
34.183333	1	-0.663750
34.200000	1	-0.662875
34.216667	1	-0.662125
34.233333	1	-0.661500
34.250000	1	-0.660375
34.266667	1	-0.658875
34.283333	1	-0.658000
34.300000	1	-0.656750
34.316667	1	-0.656000
34.333333	1	-0.654625
34.350000	1	-0.653250
34.366667	1	-0.652125
34.383333	1	-0.650750
34.400000	1	-0.649500
34.416667	1	-0.648125
34.433333	1	-0.647375
34.450000	1	-0.645875
34.466667	1	-0.643875
34.483333	1	-0.642000
34.500000	1	-0.641250
34.516667	1	-0.640250
34.533333	1	-0.639750
34.550000	1	-0.638625
34.566667	1	-0.637125
34.583333	1	-0.636375
34.600000	1	-0.635000
34.616667	1	-0.634250
34.633333	1	-0.633375
34.650000	1	-0.632875
34.666667	1	-0.632250
34.683333	1	-0.631500
34.700000	1	-0.630625
34.716667	1	-0.630500
34.733333	1	-0.630625
34.750000	1	-0.630250
34.766667	1	-0.630000
34.783333	1	-0.629750
34.800000	1	-0.630625
34.816667	1	-0.630875
34.833333	1	-0.631000
34.850000	1	-0.631750
34.866667	1	-0.632625
34.883333	1	-0.633250
34.900000	1	-0.633750
34.916667	1	-0.634875
34.933333	1	-0.636750
34.950000	1	-0.638500
34.966667	1	-0.640125
34.983333	1	-0.642000
35.000000	1	-0.644375
35.016667	1	-0.646250
35.033333	1	-0.648875
35.050000	1	-0.650375
35.066667	1	-0.653125
35.083333	1	-0.655625
35.100000	1	-0.657875
35.116667	1	-0.660625
35.133333	1	-0.663875
35.150000	1	-0.666750
35.166667	1	-0.669250
35.183333	1	-0.671125
35.200000	1	-0.673875
35.216667	1	-0.676375
35.233333	1	-0.679000
35.250000	1	-0.681250
35.266667	1	-0.683750
35.283333	1	-0.685875
35.300000	1	-0.687875
35.316667	1	-0.690250
35.333333	1	-0.692000
35.350000	1	-0.693000
35.366667	1	-0.694000
35.383333	1	-0.695125
35.400000	1	-0.696625
35.416667	1	-0.697500
35.433333	1	-0.698000
35.450000	1	-0.699000
35.466667	1	-0.699625
35.483333	1	-0.699750
35.500000	1	-0.699625
35.516667	1	-0.698500
35.533333	1	-0.698625
35.550000	1	-0.698500
35.566667	1	-0.697875
35.583333	1	-0.697375
35.600000	1	-0.696250
35.616667	1	-0.694875
35.633333	1	-0.693125
35.650000	1	-0.692250
35.666667	1	-0.690875
35.683333	1	-0.688625
35.700000	1	-0.686500
35.716667	1	-0.684375
35.733333	1	-0.682375
35.750000	1	-0.681125
35.766667	1	-0.678125
35.783333	1	-0.675375
35.800000	1	-0.673375
35.816667	1	-0.670625
35.833333	1	-0.668500
35.850000	1	-0.665750
35.866667	1	-0.662375
35.883333	1	-0.659250
35.900000	1	-0.656750
35.916667	1	-0.653625
35.933333	1	-0.650625
35.950000	1	-0.648125
35.966667	1	-0.645000
35.983333	1	-0.642500
36.000000	1	-0.639625
36.016667	1	-0.636500
36.033333	1	-0.633500
36.050000	1	-0.630500
36.066667	1	-0.628125
36.083333	1	-0.625000
36.100000	1	-0.622000
36.116667	1	-0.618875
36.133333	1	-0.615750
36.150000	1	-0.612625
36.166667	1	-0.609125
36.183333	1	-0.605750
36.200000	1	-0.602250
36.216667	1	-0.599125
36.233333	1	-0.596250
36.250000	1	-0.593000
36.266667	1	-0.589500
36.283333	1	-0.586375
36.300000	1	-0.582625
36.316667	1	-0.579375
36.333333	1	-0.576125
36.350000	1	-0.573000
36.366667	1	-0.569000
36.383333	1	-0.565375
36.400000	1	-0.561750
36.416667	1	-0.558250
36.433333	1	-0.554625
36.450000	1	-0.551625
36.466667	1	-0.548875
36.483333	1	-0.545500
36.500000	1	-0.542500
36.516667	1	-0.539250
36.533333	1	-0.536000
36.550000	1	-0.532500
36.566667	1	-0.530000
36.583333	1	-0.527125
36.600000	1	-0.524625
36.616667	1	-0.522000
36.633333	1	-0.519875
36.650000	1	-0.517375
36.666667	1	-0.515250
36.683333	1	-0.513375
36.700000	1	-0.511375
36.716667	1	-0.510250
36.733333	1	-0.509250
36.750000	1	-0.507875
36.766667	1	-0.507250
36.783333	1	-0.506750
36.800000	1	-0.506500
36.816667	1	-0.506125
36.833333	1	-0.506125
36.850000	1	-0.506750
36.866667	1	-0.506875
36.883333	1	-0.507500
36.900000	1	-0.508375
36.916667	1	-0.510500
36.933333	1	-0.512125
36.950000	1	-0.514250
36.966667	1	-0.516500
36.983333	1	-0.519000
37.000000	1	-0.521125
37.016667	1	-0.524250
37.033333	1	-0.527500
37.050000	1	-0.530375
37.066667	1	-0.533625
37.083333	1	-0.537375
37.100000	1	-0.541750
37.116667	1	-0.545625
37.133333	1	-0.550375
37.150000	1	-0.554625
37.166667	1	-0.559625
37.183333	1	-0.564500
37.200000	1	-0.569625
37.216667	1	-0.575375
37.233333	1	-0.580875
37.250000	1	-0.586500
37.266667	1	-0.591875
37.283333	1	-0.598375
37.300000	1	-0.604375
37.316667	1	-0.611500
37.333333	1	-0.617875
37.350000	1	-0.624000
37.366667	1	-0.630875
37.383333	1	-0.637375
37.400000	1	-0.644125
37.416667	1	-0.650500
37.433333	1	-0.656250
37.450000	1	-0.663375
37.466667	1	-0.670375
37.483333	1	-0.677500
37.500000	1	-0.684875
37.516667	1	-0.691500
37.533333	1	-0.697500
37.550000	1	-0.704375
37.566667	1	-0.711250
37.583333	1	-0.717000
37.600000	1	-0.723000
37.616667	1	-0.729125
37.633333	1	-0.735250
37.650000	1	-0.741250
37.666667	1	-0.747625
37.683333	1	-0.753250
37.700000	1	-0.757875
37.716667	1	-0.763250
37.733333	1	-0.768875
37.750000	1	-0.773625
37.766667	1	-0.777625
37.783333	1	-0.781750
37.800000	1	-0.785750
37.816667	1	-0.790000
37.833333	1	-0.793125
37.850000	1	-0.796250
37.866667	1	-0.798875
37.883333	1	-0.801375
37.900000	1	-0.804375
37.916667	1	-0.806625
37.933333	1	-0.808875
37.950000	1	-0.811250
37.966667	1	-0.813500
37.983333	1	-0.815125
38.000000	1	-0.816250
38.016667	1	-0.817500
38.033333	1	-0.818250
38.050000	1	-0.819000
38.066667	1	-0.820000
38.083333	1	-0.820250
38.100000	1	-0.821000
38.116667	1	-0.821750
38.133333	1	-0.821750
38.150000	1	-0.821250
38.166667	1	-0.821500
38.183333	1	-0.821375
38.200000	1	-0.821375
38.216667	1	-0.821250
38.233333	1	-0.820250
38.250000	1	-0.819625
38.266667	1	-0.819125
38.283333	1	-0.818625
38.300000	1	-0.818500
38.316667	1	-0.817500
38.333333	1	-0.817000
38.350000	1	-0.816750
38.366667	1	-0.816500
38.383333	1	-0.816125
38.400000	1	-0.815125
38.416667	1	-0.814500
38.433333	1	-0.814000
38.450000	1	-0.813375
38.466667	1	-0.813125
38.483333	1	-0.813000
38.500000	1	-0.812375
38.516667	1	-0.812250
38.533333	1	-0.812000
38.550000	1	-0.812125
38.566667	1	-0.812250
38.583333	1	-0.812750
38.600000	1	-0.812250
38.616667	1	-0.813000
38.633333	1	-0.813250
38.650000	1	-0.813500
38.666667	1	-0.814250
38.683333	1	-0.815125
38.700000	1	-0.815125
38.716667	1	-0.816000
38.733333	1	-0.816500
38.750000	1	-0.817375
38.766667	1	-0.818125
38.783333	1	-0.819375
38.800000	1	-0.819875
38.816667	1	-0.820250
38.833333	1	-0.821125
38.850000	1	-0.822250
38.866667	1	-0.823500
38.883333	1	-0.824250
38.900000	1	-0.825500
38.916667	1	-0.827125
38.933333	1	-0.828500
38.950000	1	-0.830000
38.966667	1	-0.831000
38.983333	1	-0.832000
39.000000	1	-0.833500
39.016667	1	-0.834500
39.033333	1	-0.835500
39.050000	1	-0.836250
39.066667	1	-0.837875
39.083333	1	-0.839000
39.100000	1	-0.840750
39.116667	1	-0.842000
39.133333	1	-0.842125
39.150000	1	-0.843500
39.166667	1	-0.844750
39.183333	1	-0.845250
39.200000	1	-0.846375
39.216667	1	-0.847250
39.233333	1	-0.848375
39.250000	1	-0.849250
39.266667	1	-0.849750
39.283333	1	-0.850250
39.300000	1	-0.851500
39.316667	1	-0.852500
39.333333	1	-0.853375
39.350000	1	-0.854250
39.366667	1	-0.854375
39.383333	1	-0.854750
39.400000	1	-0.855875
39.416667	1	-0.856375
39.433333	1	-0.856500
39.450000	1	-0.856250
39.466667	1	-0.857125
39.483333	1	-0.857875
39.500000	1	-0.857500
39.516667	1	-0.857500
39.533333	1	-0.857750
39.550000	1	-0.858000
39.566667	1	-0.858125
39.583333	1	-0.858000
39.600000	1	-0.858000
39.616667	1	-0.857750
39.633333	1	-0.857250
39.650000	1	-0.857250
39.666667	1	-0.857250
39.683333	1	-0.857000
39.700000	1	-0.856125
39.716667	1	-0.855625
39.733333	1	-0.854500
39.750000	1	-0.853750
39.766667	1	-0.853250
39.783333	1	-0.852375
39.800000	1	-0.851500
39.816667	1	-0.850625
39.833333	1	-0.850000
39.850000	1	-0.848625
39.866667	1	-0.847000
39.883333	1	-0.844750
39.900000	1	-0.844000
39.916667	1	-0.842125
39.933333	1	-0.839875
39.950000	1	-0.838000
39.966667	1	-0.836125
39.983333	1	-0.834125
40.000000	1	-0.832000
