File Path	chrom://marshall/Chromeleon7/HPLC_Ultimate_3000/Users/markusar/20221226.seq/175.smp/RI_1.channel/RI_1.chm
Channel	RI_1

Injection Information:
Data Vault	Chromeleon7
Injection	ca2.1
Injection Number	30
Position	RD6
Comment	
Processing Method	
Instrument Method	std_method
Type	Unknown
Status	Finished
Injection Date	27.12.2022
Injection Time	11:58:45
Injection Volume (µl)	20.000
Dilution Factor	1.0000
Weight	1.0000

Chromatogram Data Information:
Time Min. (min)	0.000000
Time Max. (min)	40.000000
Data Points	2401
Detector	RI
Generating Data System	Chromeleon 7.2.5.9507
Exporting Data System	Chromeleon 7.2.5.0
Operator	Instrument Controller
Signal Quantity	Refractive 
Signal Unit	µRIU
Signal Min.	-0.319500
Signal Max.	101.084375
Channel	RI_1
Driver Name	RID520Driver.dll
Channel Type	Evaluation
Min. Step (s)	1
Max. Step (s)	1
Average Step (s)	1

Signal Parameter Information:
Signal Info	

Chromatogram Data:
Time (min)	Step (s)	Value (µRIU)
0.000000	n.a.	0.121375
0.016667	1	0.120750
0.033333	1	0.120125
0.050000	1	0.119250
0.066667	1	0.119125
0.083333	1	0.118500
0.100000	1	0.117750
0.116667	1	0.116375
0.133333	1	0.115625
0.150000	1	0.114750
0.166667	1	0.113250
0.183333	1	0.111625
0.200000	1	0.110250
0.216667	1	0.109250
0.233333	1	0.108000
0.250000	1	0.105875
0.266667	1	0.103000
0.283333	1	0.099875
0.300000	1	0.094625
0.316667	1	0.090000
0.333333	1	0.087375
0.350000	1	0.088375
0.366667	1	0.089875
0.383333	1	0.091875
0.400000	1	0.091750
0.416667	1	0.091125
0.433333	1	0.090125
0.450000	1	0.088875
0.466667	1	0.087125
0.483333	1	0.083375
0.500000	1	0.077125
0.516667	1	0.071000
0.533333	1	0.065375
0.550000	1	0.060250
0.566667	1	0.057125
0.583333	1	0.052875
0.600000	1	0.049750
0.616667	1	0.046500
0.633333	1	0.042625
0.650000	1	0.039125
0.666667	1	0.036625
0.683333	1	0.033625
0.700000	1	0.031250
0.716667	1	0.028750
0.733333	1	0.026250
0.750000	1	0.024000
0.766667	1	0.021625
0.783333	1	0.019125
0.800000	1	0.017500
0.816667	1	0.015375
0.833333	1	0.013375
0.850000	1	0.011250
0.866667	1	0.009250
0.883333	1	0.007000
0.900000	1	0.004750
0.916667	1	0.002750
0.933333	1	0.001375
0.950000	1	0.000000
0.966667	1	-0.001625
0.983333	1	-0.003125
1.000000	1	-0.004500
1.016667	1	-0.005875
1.033333	1	-0.007000
1.050000	1	-0.008875
1.066667	1	-0.010125
1.083333	1	-0.011125
1.100000	1	-0.012375
1.116667	1	-0.013250
1.133333	1	-0.014375
1.150000	1	-0.014875
1.166667	1	-0.015875
1.183333	1	-0.017125
1.200000	1	-0.018000
1.216667	1	-0.018625
1.233333	1	-0.019750
1.250000	1	-0.020250
1.266667	1	-0.021000
1.283333	1	-0.021750
1.300000	1	-0.022000
1.316667	1	-0.022500
1.333333	1	-0.023500
1.350000	1	-0.024375
1.366667	1	-0.024750
1.383333	1	-0.025500
1.400000	1	-0.025875
1.416667	1	-0.026375
1.433333	1	-0.026000
1.450000	1	-0.026125
1.466667	1	-0.026250
1.483333	1	-0.026750
1.500000	1	-0.027375
1.516667	1	-0.027750
1.533333	1	-0.027375
1.550000	1	-0.027875
1.566667	1	-0.028250
1.583333	1	-0.028875
1.600000	1	-0.030000
1.616667	1	-0.030500
1.633333	1	-0.031250
1.650000	1	-0.032125
1.666667	1	-0.032625
1.683333	1	-0.034125
1.700000	1	-0.035000
1.716667	1	-0.036125
1.733333	1	-0.036875
1.750000	1	-0.037875
1.766667	1	-0.039250
1.783333	1	-0.041125
1.800000	1	-0.043000
1.816667	1	-0.044250
1.833333	1	-0.045625
1.850000	1	-0.048000
1.866667	1	-0.050000
1.883333	1	-0.051875
1.900000	1	-0.053750
1.916667	1	-0.056500
1.933333	1	-0.058375
1.950000	1	-0.061125
1.966667	1	-0.063125
1.983333	1	-0.065625
2.000000	1	-0.068000
2.016667	1	-0.070625
2.033333	1	-0.073125
2.050000	1	-0.075500
2.066667	1	-0.078000
2.083333	1	-0.079250
2.100000	1	-0.081500
2.116667	1	-0.083375
2.133333	1	-0.085125
2.150000	1	-0.086875
2.166667	1	-0.088375
2.183333	1	-0.090250
2.200000	1	-0.091375
2.216667	1	-0.093750
2.233333	1	-0.095375
2.250000	1	-0.097250
2.266667	1	-0.098250
2.283333	1	-0.099625
2.300000	1	-0.100750
2.316667	1	-0.102125
2.333333	1	-0.102875
2.350000	1	-0.104000
2.366667	1	-0.105375
2.383333	1	-0.105750
2.400000	1	-0.107250
2.416667	1	-0.108500
2.433333	1	-0.109125
2.450000	1	-0.110125
2.466667	1	-0.110500
2.483333	1	-0.111500
2.500000	1	-0.112625
2.516667	1	-0.112875
2.533333	1	-0.114375
2.550000	1	-0.114875
2.566667	1	-0.114750
2.583333	1	-0.115375
2.600000	1	-0.115625
2.616667	1	-0.115875
2.633333	1	-0.115375
2.650000	1	-0.115500
2.666667	1	-0.116000
2.683333	1	-0.115625
2.700000	1	-0.115625
2.716667	1	-0.116000
2.733333	1	-0.114875
2.750000	1	-0.114375
2.766667	1	-0.113250
2.783333	1	-0.113125
2.800000	1	-0.112500
2.816667	1	-0.111625
2.833333	1	-0.111000
2.850000	1	-0.110125
2.866667	1	-0.109375
2.883333	1	-0.108625
2.900000	1	-0.107250
2.916667	1	-0.106250
2.933333	1	-0.105000
2.950000	1	-0.104000
2.966667	1	-0.102125
2.983333	1	-0.100750
3.000000	1	-0.099125
3.016667	1	-0.097750
3.033333	1	-0.096750
3.050000	1	-0.095875
3.066667	1	-0.094375
3.083333	1	-0.092375
3.100000	1	-0.091500
3.116667	1	-0.089250
3.133333	1	-0.087250
3.150000	1	-0.085375
3.166667	1	-0.083000
3.183333	1	-0.081375
3.200000	1	-0.079875
3.216667	1	-0.078250
3.233333	1	-0.076500
3.250000	1	-0.074250
3.266667	1	-0.071875
3.283333	1	-0.070375
3.300000	1	-0.068750
3.316667	1	-0.067125
3.333333	1	-0.064625
3.350000	1	-0.062250
3.366667	1	-0.060375
3.383333	1	-0.058125
3.400000	1	-0.056375
3.416667	1	-0.054750
3.433333	1	-0.053125
3.450000	1	-0.051375
3.466667	1	-0.049500
3.483333	1	-0.048375
3.500000	1	-0.047000
3.516667	1	-0.045625
3.533333	1	-0.043875
3.550000	1	-0.042375
3.566667	1	-0.040750
3.583333	1	-0.039250
3.600000	1	-0.037750
3.616667	1	-0.036750
3.633333	1	-0.036000
3.650000	1	-0.034500
3.666667	1	-0.031875
3.683333	1	-0.031000
3.700000	1	-0.030375
3.716667	1	-0.029000
3.733333	1	-0.027750
3.750000	1	-0.026875
3.766667	1	-0.026500
3.783333	1	-0.026250
3.800000	1	-0.025375
3.816667	1	-0.025125
3.833333	1	-0.025625
3.850000	1	-0.025375
3.866667	1	-0.025500
3.883333	1	-0.025875
3.900000	1	-0.026750
3.916667	1	-0.027125
3.933333	1	-0.027375
3.950000	1	-0.027500
3.966667	1	-0.027625
3.983333	1	-0.029000
4.000000	1	-0.029250
4.016667	1	-0.029750
4.033333	1	-0.030750
4.050000	1	-0.031750
4.066667	1	-0.032625
4.083333	1	-0.034000
4.100000	1	-0.035000
4.116667	1	-0.036625
4.133333	1	-0.038125
4.150000	1	-0.039750
4.166667	1	-0.042000
4.183333	1	-0.043750
4.200000	1	-0.044750
4.216667	1	-0.046250
4.233333	1	-0.047375
4.250000	1	-0.049000
4.266667	1	-0.050500
4.283333	1	-0.052500
4.300000	1	-0.054500
4.316667	1	-0.055750
4.333333	1	-0.056625
4.350000	1	-0.058250
4.366667	1	-0.060500
4.383333	1	-0.061750
4.400000	1	-0.063375
4.416667	1	-0.065500
4.433333	1	-0.066625
4.450000	1	-0.068000
4.466667	1	-0.069750
4.483333	1	-0.071125
4.500000	1	-0.071625
4.516667	1	-0.071750
4.533333	1	-0.072750
4.550000	1	-0.073000
4.566667	1	-0.073750
4.583333	1	-0.074625
4.600000	1	-0.075250
4.616667	1	-0.075875
4.633333	1	-0.076875
4.650000	1	-0.077125
4.666667	1	-0.076750
4.683333	1	-0.076625
4.700000	1	-0.076250
4.716667	1	-0.076000
4.733333	1	-0.075375
4.750000	1	-0.074750
4.766667	1	-0.074750
4.783333	1	-0.074000
4.800000	1	-0.073375
4.816667	1	-0.072125
4.833333	1	-0.071750
4.850000	1	-0.071500
4.866667	1	-0.071250
4.883333	1	-0.070250
4.900000	1	-0.068750
4.916667	1	-0.067125
4.933333	1	-0.066500
4.950000	1	-0.066125
4.966667	1	-0.064500
4.983333	1	-0.063625
5.000000	1	-0.062375
5.016667	1	-0.061625
5.033333	1	-0.060625
5.050000	1	-0.060000
5.066667	1	-0.058375
5.083333	1	-0.057625
5.100000	1	-0.056750
5.116667	1	-0.055250
5.133333	1	-0.053875
5.150000	1	-0.052625
5.166667	1	-0.051250
5.183333	1	-0.050250
5.200000	1	-0.049125
5.216667	1	-0.047625
5.233333	1	-0.046625
5.250000	1	-0.045750
5.266667	1	-0.044000
5.283333	1	-0.042250
5.300000	1	-0.040875
5.316667	1	-0.039875
5.333333	1	-0.038500
5.350000	1	-0.036750
5.366667	1	-0.035500
5.383333	1	-0.034125
5.400000	1	-0.032625
5.416667	1	-0.031000
5.433333	1	-0.029750
5.450000	1	-0.028375
5.466667	1	-0.027000
5.483333	1	-0.025375
5.500000	1	-0.023625
5.516667	1	-0.022250
5.533333	1	-0.021125
5.550000	1	-0.018375
5.566667	1	-0.016875
5.583333	1	-0.015375
5.600000	1	-0.013750
5.616667	1	-0.012125
5.633333	1	-0.010750
5.650000	1	-0.009000
5.666667	1	-0.007750
5.683333	1	-0.006000
5.700000	1	-0.003750
5.716667	1	-0.002000
5.733333	1	-0.000625
5.750000	1	0.000875
5.766667	1	0.003000
5.783333	1	0.004500
5.800000	1	0.006875
5.816667	1	0.008125
5.833333	1	0.009250
5.850000	1	0.010875
5.866667	1	0.012375
5.883333	1	0.013750
5.900000	1	0.015875
5.916667	1	0.017375
5.933333	1	0.018625
5.950000	1	0.019625
5.966667	1	0.021000
5.983333	1	0.022000
6.000000	1	0.022750
6.016667	1	0.023875
6.033333	1	0.024375
6.050000	1	0.026125
6.066667	1	0.026625
6.083333	1	0.027375
6.100000	1	0.028000
6.116667	1	0.028625
6.133333	1	0.029500
6.150000	1	0.030375
6.166667	1	0.031125
6.183333	1	0.031250
6.200000	1	0.031250
6.216667	1	0.031250
6.233333	1	0.031625
6.250000	1	0.031000
6.266667	1	0.030875
6.283333	1	0.031000
6.300000	1	0.030500
6.316667	1	0.030500
6.333333	1	0.030375
6.350000	1	0.030375
6.366667	1	0.029500
6.383333	1	0.028875
6.400000	1	0.028125
6.416667	1	0.027750
6.433333	1	0.027375
6.450000	1	0.026875
6.466667	1	0.025750
6.483333	1	0.025000
6.500000	1	0.024375
6.516667	1	0.023500
6.533333	1	0.022125
6.550000	1	0.021000
6.566667	1	0.020125
6.583333	1	0.019625
6.600000	1	0.018500
6.616667	1	0.018500
6.633333	1	0.017375
6.650000	1	0.016375
6.666667	1	0.016125
6.683333	1	0.015250
6.700000	1	0.014500
6.716667	1	0.014250
6.733333	1	0.013250
6.750000	1	0.012625
6.766667	1	0.012750
6.783333	1	0.011500
6.800000	1	0.010750
6.816667	1	0.010375
6.833333	1	0.010250
6.850000	1	0.010500
6.866667	1	0.009875
6.883333	1	0.009500
6.900000	1	0.009750
6.916667	1	0.010125
6.933333	1	0.009875
6.950000	1	0.010125
6.966667	1	0.010125
6.983333	1	0.009750
7.000000	1	0.010000
7.016667	1	0.010875
7.033333	1	0.011000
7.050000	1	0.011000
7.066667	1	0.010625
7.083333	1	0.011250
7.100000	1	0.012125
7.116667	1	0.013125
7.133333	1	0.014375
7.150000	1	0.015250
7.166667	1	0.016375
7.183333	1	0.017000
7.200000	1	0.017250
7.216667	1	0.018375
7.233333	1	0.019250
7.250000	1	0.019750
7.266667	1	0.020250
7.283333	1	0.021000
7.300000	1	0.021375
7.316667	1	0.022500
7.333333	1	0.023625
7.350000	1	0.024625
7.366667	1	0.025000
7.383333	1	0.026125
7.400000	1	0.026125
7.416667	1	0.027000
7.433333	1	0.027375
7.450000	1	0.028125
7.466667	1	0.028750
7.483333	1	0.029375
7.500000	1	0.028875
7.516667	1	0.028750
7.533333	1	0.028750
7.550000	1	0.029125
7.566667	1	0.029625
7.583333	1	0.029750
7.600000	1	0.029750
7.616667	1	0.030000
7.633333	1	0.030125
7.650000	1	0.029250
7.666667	1	0.029125
7.683333	1	0.029125
7.700000	1	0.028625
7.716667	1	0.027750
7.733333	1	0.026875
7.750000	1	0.027000
7.766667	1	0.026125
7.783333	1	0.025125
7.800000	1	0.024250
7.816667	1	0.023500
7.833333	1	0.022875
7.850000	1	0.021750
7.866667	1	0.020875
7.883333	1	0.019375
7.900000	1	0.018125
7.916667	1	0.017375
7.933333	1	0.016250
7.950000	1	0.015250
7.966667	1	0.014125
7.983333	1	0.012250
8.000000	1	0.011500
8.016667	1	0.009750
8.033333	1	0.008500
8.050000	1	0.008000
8.066667	1	0.006375
8.083333	1	0.005250
8.100000	1	0.004125
8.116667	1	0.002750
8.133333	1	0.002125
8.150000	1	0.001000
8.166667	1	0.000250
8.183333	1	-0.000500
8.200000	1	-0.001750
8.216667	1	-0.002500
8.233333	1	-0.003000
8.250000	1	-0.003125
8.266667	1	-0.003875
8.283333	1	-0.004500
8.300000	1	-0.004875
8.316667	1	-0.005250
8.333333	1	-0.005375
8.350000	1	-0.005125
8.366667	1	-0.005625
8.383333	1	-0.006125
8.400000	1	-0.006375
8.416667	1	-0.006250
8.433333	1	-0.005750
8.450000	1	-0.005625
8.466667	1	-0.005625
8.483333	1	-0.005750
8.500000	1	-0.005250
8.516667	1	-0.004750
8.533333	1	-0.005000
8.550000	1	-0.004875
8.566667	1	-0.004375
8.583333	1	-0.003875
8.600000	1	-0.003375
8.616667	1	-0.002875
8.633333	1	-0.002500
8.650000	1	-0.002250
8.666667	1	-0.001875
8.683333	1	-0.001500
8.700000	1	-0.001000
8.716667	1	-0.000625
8.733333	1	0.000000
8.750000	1	0.000125
8.766667	1	0.000875
8.783333	1	0.001250
8.800000	1	0.002000
8.816667	1	0.002625
8.833333	1	0.003750
8.850000	1	0.005250
8.866667	1	0.006000
8.883333	1	0.006500
8.900000	1	0.006750
8.916667	1	0.007750
8.933333	1	0.008750
8.950000	1	0.009750
8.966667	1	0.010500
8.983333	1	0.011250
9.000000	1	0.012125
9.016667	1	0.013000
9.033333	1	0.014250
9.050000	1	0.015875
9.066667	1	0.017250
9.083333	1	0.018125
9.100000	1	0.019750
9.116667	1	0.021250
9.133333	1	0.022375
9.150000	1	0.024375
9.166667	1	0.025500
9.183333	1	0.027125
9.200000	1	0.029125
9.216667	1	0.031250
9.233333	1	0.033250
9.250000	1	0.036000
9.266667	1	0.037750
9.283333	1	0.040000
9.300000	1	0.043000
9.316667	1	0.046500
9.333333	1	0.049625
9.350000	1	0.052375
9.366667	1	0.055875
9.383333	1	0.060500
9.400000	1	0.064750
9.416667	1	0.068750
9.433333	1	0.075000
9.450000	1	0.080875
9.466667	1	0.087625
9.483333	1	0.095125
9.500000	1	0.103500
9.516667	1	0.113500
9.533333	1	0.124750
9.550000	1	0.137500
9.566667	1	0.152250
9.583333	1	0.169125
9.600000	1	0.188000
9.616667	1	0.209500
9.633333	1	0.233125
9.650000	1	0.260000
9.666667	1	0.290125
9.683333	1	0.324000
9.700000	1	0.359500
9.716667	1	0.399750
9.733333	1	0.443875
9.750000	1	0.492875
9.766667	1	0.546125
9.783333	1	0.601500
9.800000	1	0.652250
9.816667	1	0.688000
9.833333	1	0.694250
9.850000	1	0.664375
9.866667	1	0.602000
9.883333	1	0.530500
9.900000	1	0.493000
9.916667	1	0.543000
9.933333	1	0.738875
9.950000	1	1.136875
9.966667	1	1.785375
9.983333	1	2.724250
10.000000	1	3.988000
10.016667	1	5.605750
10.033333	1	7.601750
10.050000	1	9.991500
10.066667	1	12.787500
10.083333	1	15.994625
10.100000	1	19.611500
10.116667	1	23.623375
10.133333	1	28.004875
10.150000	1	32.717625
10.166667	1	37.714875
10.183333	1	42.941250
10.200000	1	48.345250
10.216667	1	53.868500
10.233333	1	59.453375
10.250000	1	65.030125
10.266667	1	70.537625
10.283333	1	75.900625
10.300000	1	81.032250
10.316667	1	85.827000
10.333333	1	90.168875
10.350000	1	93.934625
10.366667	1	97.004000
10.383333	1	99.269875
10.400000	1	100.649125
10.416667	1	101.084375
10.433333	1	100.546375
10.450000	1	99.037000
10.466667	1	96.578125
10.483333	1	93.214375
10.500000	1	89.008250
10.516667	1	84.039875
10.533333	1	78.402125
10.550000	1	72.202250
10.566667	1	65.576875
10.583333	1	58.698750
10.600000	1	51.787875
10.616667	1	45.114250
10.633333	1	38.947125
10.650000	1	33.491625
10.666667	1	28.837625
10.683333	1	24.983500
10.700000	1	21.855500
10.716667	1	19.351750
10.733333	1	17.364125
10.750000	1	15.791750
10.766667	1	14.549000
10.783333	1	13.561375
10.800000	1	12.769500
10.816667	1	12.124750
10.833333	1	11.589500
10.850000	1	11.134250
10.866667	1	10.735875
10.883333	1	10.378125
10.900000	1	10.045625
10.916667	1	9.729000
10.933333	1	9.418625
10.950000	1	9.108500
10.966667	1	8.793125
10.983333	1	8.469375
11.000000	1	8.136000
11.016667	1	7.793375
11.033333	1	7.443000
11.050000	1	7.087000
11.066667	1	6.729750
11.083333	1	6.376375
11.100000	1	6.032500
11.116667	1	5.704500
11.133333	1	5.398125
11.150000	1	5.118500
11.166667	1	4.868000
11.183333	1	4.647125
11.200000	1	4.455875
11.216667	1	4.291000
11.233333	1	4.151625
11.250000	1	4.034000
11.266667	1	3.936625
11.283333	1	3.856250
11.300000	1	3.791250
11.316667	1	3.739750
11.333333	1	3.700250
11.350000	1	3.670875
11.366667	1	3.650625
11.383333	1	3.638000
11.400000	1	3.630750
11.416667	1	3.627250
11.433333	1	3.624625
11.450000	1	3.620625
11.466667	1	3.613500
11.483333	1	3.601875
11.500000	1	3.582375
11.516667	1	3.556625
11.533333	1	3.523125
11.550000	1	3.483000
11.566667	1	3.436375
11.583333	1	3.384750
11.600000	1	3.329125
11.616667	1	3.271250
11.633333	1	3.212125
11.650000	1	3.151625
11.666667	1	3.091250
11.683333	1	3.030750
11.700000	1	2.971125
11.716667	1	2.913125
11.733333	1	2.858250
11.750000	1	2.805625
11.766667	1	2.756000
11.783333	1	2.709625
11.800000	1	2.666500
11.816667	1	2.626125
11.833333	1	2.589000
11.850000	1	2.554625
11.866667	1	2.522750
11.883333	1	2.492250
11.900000	1	2.463750
11.916667	1	2.436625
11.933333	1	2.411000
11.950000	1	2.384875
11.966667	1	2.357875
11.983333	1	2.330750
12.000000	1	2.303625
12.016667	1	2.276250
12.033333	1	2.249250
12.050000	1	2.223875
12.066667	1	2.200750
12.083333	1	2.181000
12.100000	1	2.166750
12.116667	1	2.160000
12.133333	1	2.163250
12.150000	1	2.179125
12.166667	1	2.207625
12.183333	1	2.250125
12.200000	1	2.309500
12.216667	1	2.387125
12.233333	1	2.486500
12.250000	1	2.610250
12.266667	1	2.760875
12.283333	1	2.942000
12.300000	1	3.155625
12.316667	1	3.405125
12.333333	1	3.691000
12.350000	1	4.014375
12.366667	1	4.375500
12.383333	1	4.773000
12.400000	1	5.205250
12.416667	1	5.670000
12.433333	1	6.165500
12.450000	1	6.690125
12.466667	1	7.242125
12.483333	1	7.820250
12.500000	1	8.421750
12.516667	1	9.042625
12.533333	1	9.681125
12.550000	1	10.333000
12.566667	1	10.991250
12.583333	1	11.650750
12.600000	1	12.305000
12.616667	1	12.946375
12.633333	1	13.568000
12.650000	1	14.164250
12.666667	1	14.728250
12.683333	1	15.253875
12.700000	1	15.735875
12.716667	1	16.169875
12.733333	1	16.551625
12.750000	1	16.878875
12.766667	1	17.151375
12.783333	1	17.369375
12.800000	1	17.534500
12.816667	1	17.648000
12.833333	1	17.714625
12.850000	1	17.738125
12.866667	1	17.722875
12.883333	1	17.672500
12.900000	1	17.591625
12.916667	1	17.483625
12.933333	1	17.352125
12.950000	1	17.199375
12.966667	1	17.026250
12.983333	1	16.834250
13.000000	1	16.623875
13.016667	1	16.395625
13.033333	1	16.151625
13.050000	1	15.893875
13.066667	1	15.625375
13.083333	1	15.347875
13.100000	1	15.064125
13.116667	1	14.775625
13.133333	1	14.486750
13.150000	1	14.200375
13.166667	1	13.918375
13.183333	1	13.642250
13.200000	1	13.374250
13.216667	1	13.114500
13.233333	1	12.864875
13.250000	1	12.625375
13.266667	1	12.395625
13.283333	1	12.175375
13.300000	1	11.964000
13.316667	1	11.760250
13.333333	1	11.563375
13.350000	1	11.372500
13.366667	1	11.187875
13.383333	1	11.007875
13.400000	1	10.830750
13.416667	1	10.657250
13.433333	1	10.485375
13.450000	1	10.312875
13.466667	1	10.139375
13.483333	1	9.961625
13.500000	1	9.777125
13.516667	1	9.583500
13.533333	1	9.378250
13.550000	1	9.159375
13.566667	1	8.925125
13.583333	1	8.675375
13.600000	1	8.409875
13.616667	1	8.129125
13.633333	1	7.833500
13.650000	1	7.522000
13.666667	1	7.195875
13.683333	1	6.854750
13.700000	1	6.502625
13.716667	1	6.145875
13.733333	1	5.797125
13.750000	1	5.469000
13.766667	1	5.174250
13.783333	1	4.921750
13.800000	1	4.712375
13.816667	1	4.542875
13.833333	1	4.408125
13.850000	1	4.301500
13.866667	1	4.215750
13.883333	1	4.146625
13.900000	1	4.090000
13.916667	1	4.042625
13.933333	1	4.002625
13.950000	1	3.967500
13.966667	1	3.935625
13.983333	1	3.905500
14.000000	1	3.876750
14.016667	1	3.848625
14.033333	1	3.820250
14.050000	1	3.792250
14.066667	1	3.764125
14.083333	1	3.738000
14.100000	1	3.713625
14.116667	1	3.693625
14.133333	1	3.679125
14.150000	1	3.671000
14.166667	1	3.672125
14.183333	1	3.683500
14.200000	1	3.706500
14.216667	1	3.742625
14.233333	1	3.793500
14.250000	1	3.859625
14.266667	1	3.940500
14.283333	1	4.035500
14.300000	1	4.144125
14.316667	1	4.264375
14.333333	1	4.396125
14.350000	1	4.536875
14.366667	1	4.684250
14.383333	1	4.835875
14.400000	1	4.989625
14.416667	1	5.144375
14.433333	1	5.296875
14.450000	1	5.445625
14.466667	1	5.589250
14.483333	1	5.727250
14.500000	1	5.860750
14.516667	1	5.992750
14.533333	1	6.127250
14.550000	1	6.270250
14.566667	1	6.430000
14.583333	1	6.614375
14.600000	1	6.832125
14.616667	1	7.092375
14.633333	1	7.401500
14.650000	1	7.763375
14.666667	1	8.182500
14.683333	1	8.658125
14.700000	1	9.185625
14.716667	1	9.761125
14.733333	1	10.378375
14.750000	1	11.031625
14.766667	1	11.715750
14.783333	1	12.426875
14.800000	1	13.162375
14.816667	1	13.922375
14.833333	1	14.706875
14.850000	1	15.515750
14.866667	1	16.346250
14.883333	1	17.193250
14.900000	1	18.047500
14.916667	1	18.896500
14.933333	1	19.725250
14.950000	1	20.517750
14.966667	1	21.255625
14.983333	1	21.920750
15.000000	1	22.499000
15.016667	1	22.975125
15.033333	1	23.337000
15.050000	1	23.575375
15.066667	1	23.681875
15.083333	1	23.650750
15.100000	1	23.480125
15.116667	1	23.170500
15.133333	1	22.727000
15.150000	1	22.155375
15.166667	1	21.465000
15.183333	1	20.669500
15.200000	1	19.782500
15.216667	1	18.820750
15.233333	1	17.801875
15.250000	1	16.743125
15.266667	1	15.662125
15.283333	1	14.574500
15.300000	1	13.495875
15.316667	1	12.440125
15.333333	1	11.418625
15.350000	1	10.439125
15.366667	1	9.513125
15.383333	1	8.651750
15.400000	1	7.866250
15.416667	1	7.163250
15.433333	1	6.544500
15.450000	1	6.006125
15.466667	1	5.540000
15.483333	1	5.137500
15.500000	1	4.792125
15.516667	1	4.496125
15.533333	1	4.244250
15.550000	1	4.031750
15.566667	1	3.854000
15.583333	1	3.707875
15.600000	1	3.589875
15.616667	1	3.496625
15.633333	1	3.427250
15.650000	1	3.377250
15.666667	1	3.344625
15.683333	1	3.327750
15.700000	1	3.323500
15.716667	1	3.328875
15.733333	1	3.343750
15.750000	1	3.365875
15.766667	1	3.394125
15.783333	1	3.427000
15.800000	1	3.466125
15.816667	1	3.510250
15.833333	1	3.560250
15.850000	1	3.617625
15.866667	1	3.683750
15.883333	1	3.760375
15.900000	1	3.848625
15.916667	1	3.949000
15.933333	1	4.062750
15.950000	1	4.189250
15.966667	1	4.325625
15.983333	1	4.472000
16.000000	1	4.625625
16.016667	1	4.783125
16.033333	1	4.943000
16.050000	1	5.102375
16.066667	1	5.259750
16.083333	1	5.414500
16.100000	1	5.566500
16.116667	1	5.715875
16.133333	1	5.861875
16.150000	1	6.005750
16.166667	1	6.146750
16.183333	1	6.284875
16.200000	1	6.419625
16.216667	1	6.548750
16.233333	1	6.670000
16.250000	1	6.782250
16.266667	1	6.880875
16.283333	1	6.965125
16.300000	1	7.031375
16.316667	1	7.078500
16.333333	1	7.104750
16.350000	1	7.108125
16.366667	1	7.088375
16.383333	1	7.042625
16.400000	1	6.971875
16.416667	1	6.874375
16.433333	1	6.750125
16.450000	1	6.599625
16.466667	1	6.424125
16.483333	1	6.225250
16.500000	1	6.005625
16.516667	1	5.768250
16.533333	1	5.517000
16.550000	1	5.256500
16.566667	1	4.991500
16.583333	1	4.725250
16.600000	1	4.462000
16.616667	1	4.205750
16.633333	1	3.958875
16.650000	1	3.725000
16.666667	1	3.505125
16.683333	1	3.300875
16.700000	1	3.113750
16.716667	1	2.943000
16.733333	1	2.788750
16.750000	1	2.650625
16.766667	1	2.527375
16.783333	1	2.417875
16.800000	1	2.321625
16.816667	1	2.237625
16.833333	1	2.163500
16.850000	1	2.097750
16.866667	1	2.039500
16.883333	1	1.988125
16.900000	1	1.942000
16.916667	1	1.900750
16.933333	1	1.863000
16.950000	1	1.828500
16.966667	1	1.796875
16.983333	1	1.767250
17.000000	1	1.739750
17.016667	1	1.714250
17.033333	1	1.690250
17.050000	1	1.667500
17.066667	1	1.645250
17.083333	1	1.625375
17.100000	1	1.606625
17.116667	1	1.588500
17.133333	1	1.571000
17.150000	1	1.555250
17.166667	1	1.540250
17.183333	1	1.525625
17.200000	1	1.512125
17.216667	1	1.498625
17.233333	1	1.486750
17.250000	1	1.475750
17.266667	1	1.465000
17.283333	1	1.454250
17.300000	1	1.443750
17.316667	1	1.433875
17.333333	1	1.424875
17.350000	1	1.416000
17.366667	1	1.407125
17.383333	1	1.398875
17.400000	1	1.390750
17.416667	1	1.383375
17.433333	1	1.376875
17.450000	1	1.371125
17.466667	1	1.366250
17.483333	1	1.362125
17.500000	1	1.359125
17.516667	1	1.357500
17.533333	1	1.357000
17.550000	1	1.358250
17.566667	1	1.362000
17.583333	1	1.366625
17.600000	1	1.372750
17.616667	1	1.380875
17.633333	1	1.391125
17.650000	1	1.402750
17.666667	1	1.416375
17.683333	1	1.431500
17.700000	1	1.448125
17.716667	1	1.466750
17.733333	1	1.485875
17.750000	1	1.506750
17.766667	1	1.528500
17.783333	1	1.551875
17.800000	1	1.576625
17.816667	1	1.602000
17.833333	1	1.627750
17.850000	1	1.654625
17.866667	1	1.681125
17.883333	1	1.707875
17.900000	1	1.734375
17.916667	1	1.760125
17.933333	1	1.784500
17.950000	1	1.807625
17.966667	1	1.829625
17.983333	1	1.850500
18.000000	1	1.869375
18.016667	1	1.886625
18.033333	1	1.901500
18.050000	1	1.913875
18.066667	1	1.924125
18.083333	1	1.931875
18.100000	1	1.937250
18.116667	1	1.939875
18.133333	1	1.939625
18.150000	1	1.936375
18.166667	1	1.931500
18.183333	1	1.924625
18.200000	1	1.913875
18.216667	1	1.901125
18.233333	1	1.886375
18.250000	1	1.870875
18.266667	1	1.852625
18.283333	1	1.832625
18.300000	1	1.812000
18.316667	1	1.789500
18.333333	1	1.766125
18.350000	1	1.741625
18.366667	1	1.716875
18.383333	1	1.691375
18.400000	1	1.665500
18.416667	1	1.638875
18.433333	1	1.613750
18.450000	1	1.588250
18.466667	1	1.563500
18.483333	1	1.539000
18.500000	1	1.514250
18.516667	1	1.489500
18.533333	1	1.465750
18.550000	1	1.441875
18.566667	1	1.419625
18.583333	1	1.397875
18.600000	1	1.376750
18.616667	1	1.356375
18.633333	1	1.336375
18.650000	1	1.317250
18.666667	1	1.299250
18.683333	1	1.281000
18.700000	1	1.264375
18.716667	1	1.248000
18.733333	1	1.231500
18.750000	1	1.216375
18.766667	1	1.202000
18.783333	1	1.188625
18.800000	1	1.175875
18.816667	1	1.164125
18.833333	1	1.154000
18.850000	1	1.145000
18.866667	1	1.137875
18.883333	1	1.132875
18.900000	1	1.129250
18.916667	1	1.127250
18.933333	1	1.127625
18.950000	1	1.130250
18.966667	1	1.135000
18.983333	1	1.141375
19.000000	1	1.150125
19.016667	1	1.161250
19.033333	1	1.173875
19.050000	1	1.188625
19.066667	1	1.205375
19.083333	1	1.224000
19.100000	1	1.243875
19.116667	1	1.265500
19.133333	1	1.288750
19.150000	1	1.312750
19.166667	1	1.337250
19.183333	1	1.364250
19.200000	1	1.392375
19.216667	1	1.421125
19.233333	1	1.449875
19.250000	1	1.480250
19.266667	1	1.510250
19.283333	1	1.540625
19.300000	1	1.570250
19.316667	1	1.599750
19.333333	1	1.628500
19.350000	1	1.656250
19.366667	1	1.682375
19.383333	1	1.707000
19.400000	1	1.730000
19.416667	1	1.750125
19.433333	1	1.767875
19.450000	1	1.783125
19.466667	1	1.794625
19.483333	1	1.803000
19.500000	1	1.807875
19.516667	1	1.808875
19.533333	1	1.805750
19.550000	1	1.799000
19.566667	1	1.789125
19.583333	1	1.774625
19.600000	1	1.756750
19.616667	1	1.735750
19.633333	1	1.711375
19.650000	1	1.683375
19.666667	1	1.653250
19.683333	1	1.622625
19.700000	1	1.589250
19.716667	1	1.555625
19.733333	1	1.521000
19.750000	1	1.487125
19.766667	1	1.452625
19.783333	1	1.419625
19.800000	1	1.387250
19.816667	1	1.356000
19.833333	1	1.327250
19.850000	1	1.300125
19.866667	1	1.276250
19.883333	1	1.255500
19.900000	1	1.237875
19.916667	1	1.223750
19.933333	1	1.213375
19.950000	1	1.206375
19.966667	1	1.202750
19.983333	1	1.203000
20.000000	1	1.207625
20.016667	1	1.215625
20.033333	1	1.227000
20.050000	1	1.241625
20.066667	1	1.260000
20.083333	1	1.281625
20.100000	1	1.306875
20.116667	1	1.334875
20.133333	1	1.365750
20.150000	1	1.399250
20.166667	1	1.435625
20.183333	1	1.473375
20.200000	1	1.512375
20.216667	1	1.552000
20.233333	1	1.591625
20.250000	1	1.631625
20.266667	1	1.670125
20.283333	1	1.707125
20.300000	1	1.743125
20.316667	1	1.777125
20.333333	1	1.810375
20.350000	1	1.843000
20.366667	1	1.874000
20.383333	1	1.905375
20.400000	1	1.937125
20.416667	1	1.969625
20.433333	1	2.003375
20.450000	1	2.039000
20.466667	1	2.076375
20.483333	1	2.116000
20.500000	1	2.156875
20.516667	1	2.199125
20.533333	1	2.243250
20.550000	1	2.288625
20.566667	1	2.336125
20.583333	1	2.384875
20.600000	1	2.433375
20.616667	1	2.481875
20.633333	1	2.529250
20.650000	1	2.575875
20.666667	1	2.621125
20.683333	1	2.663250
20.700000	1	2.701375
20.716667	1	2.735750
20.733333	1	2.765000
20.750000	1	2.787375
20.766667	1	2.803625
20.783333	1	2.812875
20.800000	1	2.815500
20.816667	1	2.811500
20.833333	1	2.801250
20.850000	1	2.784750
20.866667	1	2.763750
20.883333	1	2.738750
20.900000	1	2.711375
20.916667	1	2.683000
20.933333	1	2.653750
20.950000	1	2.624625
20.966667	1	2.597000
20.983333	1	2.571250
21.000000	1	2.547500
21.016667	1	2.525750
21.033333	1	2.506875
21.050000	1	2.490250
21.066667	1	2.474375
21.083333	1	2.459375
21.100000	1	2.444625
21.116667	1	2.429875
21.133333	1	2.413375
21.150000	1	2.395500
21.166667	1	2.374250
21.183333	1	2.349250
21.200000	1	2.320750
21.216667	1	2.286375
21.233333	1	2.247500
21.250000	1	2.202250
21.266667	1	2.151000
21.283333	1	2.094500
21.300000	1	2.032125
21.316667	1	1.965875
21.333333	1	1.894375
21.350000	1	1.819625
21.366667	1	1.742375
21.383333	1	1.662125
21.400000	1	1.581000
21.416667	1	1.500000
21.433333	1	1.420125
21.450000	1	1.341875
21.466667	1	1.266000
21.483333	1	1.193875
21.500000	1	1.124625
21.516667	1	1.060500
21.533333	1	0.999500
21.550000	1	0.943500
21.566667	1	0.892625
21.583333	1	0.846000
21.600000	1	0.803750
21.616667	1	0.765500
21.633333	1	0.731750
21.650000	1	0.702250
21.666667	1	0.676000
21.683333	1	0.653500
21.700000	1	0.635000
21.716667	1	0.618250
21.733333	1	0.605000
21.750000	1	0.593375
21.766667	1	0.584750
21.783333	1	0.578250
21.800000	1	0.573250
21.816667	1	0.569375
21.833333	1	0.566875
21.850000	1	0.565875
21.866667	1	0.566375
21.883333	1	0.567500
21.900000	1	0.570000
21.916667	1	0.573000
21.933333	1	0.577375
21.950000	1	0.583000
21.966667	1	0.588375
21.983333	1	0.595000
22.000000	1	0.602250
22.016667	1	0.609875
22.033333	1	0.618375
22.050000	1	0.627250
22.066667	1	0.636250
22.083333	1	0.645125
22.100000	1	0.653875
22.116667	1	0.661750
22.133333	1	0.670250
22.150000	1	0.678000
22.166667	1	0.685625
22.183333	1	0.692125
22.200000	1	0.698375
22.216667	1	0.702625
22.233333	1	0.706375
22.250000	1	0.709250
22.266667	1	0.710250
22.283333	1	0.709625
22.300000	1	0.707250
22.316667	1	0.703750
22.333333	1	0.698750
22.350000	1	0.692500
22.366667	1	0.684750
22.383333	1	0.676250
22.400000	1	0.667000
22.416667	1	0.657250
22.433333	1	0.646375
22.450000	1	0.634375
22.466667	1	0.623250
22.483333	1	0.612000
22.500000	1	0.601750
22.516667	1	0.592000
22.533333	1	0.582375
22.550000	1	0.573000
22.566667	1	0.565000
22.583333	1	0.557875
22.600000	1	0.552125
22.616667	1	0.547250
22.633333	1	0.543250
22.650000	1	0.540375
22.666667	1	0.538375
22.683333	1	0.537125
22.700000	1	0.536875
22.716667	1	0.536625
22.733333	1	0.538125
22.750000	1	0.540125
22.766667	1	0.542500
22.783333	1	0.545125
22.800000	1	0.548250
22.816667	1	0.550375
22.833333	1	0.553375
22.850000	1	0.555875
22.866667	1	0.558000
22.883333	1	0.560375
22.900000	1	0.562250
22.916667	1	0.563500
22.933333	1	0.564250
22.950000	1	0.564125
22.966667	1	0.563500
22.983333	1	0.562125
23.000000	1	0.560250
23.016667	1	0.557625
23.033333	1	0.554750
23.050000	1	0.551000
23.066667	1	0.545375
23.083333	1	0.539500
23.100000	1	0.533875
23.116667	1	0.527375
23.133333	1	0.519750
23.150000	1	0.512125
23.166667	1	0.503750
23.183333	1	0.494750
23.200000	1	0.485500
23.216667	1	0.476375
23.233333	1	0.467000
23.250000	1	0.457125
23.266667	1	0.447625
23.283333	1	0.437875
23.300000	1	0.428375
23.316667	1	0.420125
23.333333	1	0.411500
23.350000	1	0.403250
23.366667	1	0.395500
23.383333	1	0.388625
23.400000	1	0.382625
23.416667	1	0.377500
23.433333	1	0.374000
23.450000	1	0.371375
23.466667	1	0.370250
23.483333	1	0.370000
23.500000	1	0.371500
23.516667	1	0.375250
23.533333	1	0.380500
23.550000	1	0.387500
23.566667	1	0.396125
23.583333	1	0.406500
23.600000	1	0.418500
23.616667	1	0.432250
23.633333	1	0.447000
23.650000	1	0.463250
23.666667	1	0.481000
23.683333	1	0.500125
23.700000	1	0.520375
23.716667	1	0.541500
23.733333	1	0.563875
23.750000	1	0.586750
23.766667	1	0.611125
23.783333	1	0.636375
23.800000	1	0.662625
23.816667	1	0.689875
23.833333	1	0.718375
23.850000	1	0.747125
23.866667	1	0.776875
23.883333	1	0.808125
23.900000	1	0.840000
23.916667	1	0.872250
23.933333	1	0.905750
23.950000	1	0.939000
23.966667	1	0.973875
23.983333	1	1.007500
24.000000	1	1.041000
24.016667	1	1.073875
24.033333	1	1.105625
24.050000	1	1.135250
24.066667	1	1.164000
24.083333	1	1.190625
24.100000	1	1.215625
24.116667	1	1.237750
24.133333	1	1.256375
24.150000	1	1.271875
24.166667	1	1.284250
24.183333	1	1.293250
24.200000	1	1.297500
24.216667	1	1.297625
24.233333	1	1.294375
24.250000	1	1.286750
24.266667	1	1.275250
24.283333	1	1.259500
24.300000	1	1.240125
24.316667	1	1.217125
24.333333	1	1.191375
24.350000	1	1.163000
24.366667	1	1.132750
24.383333	1	1.100125
24.400000	1	1.066875
24.416667	1	1.032375
24.433333	1	0.998125
24.450000	1	0.964250
24.466667	1	0.931000
24.483333	1	0.899750
24.500000	1	0.869625
24.516667	1	0.841750
24.533333	1	0.816375
24.550000	1	0.792750
24.566667	1	0.771750
24.583333	1	0.752625
24.600000	1	0.736375
24.616667	1	0.722875
24.633333	1	0.711375
24.650000	1	0.702500
24.666667	1	0.695250
24.683333	1	0.689625
24.700000	1	0.685375
24.716667	1	0.681625
24.733333	1	0.679500
24.750000	1	0.677750
24.766667	1	0.676500
24.783333	1	0.674875
24.800000	1	0.673125
24.816667	1	0.671500
24.833333	1	0.669375
24.850000	1	0.665500
24.866667	1	0.660875
24.883333	1	0.655250
24.900000	1	0.648750
24.916667	1	0.640250
24.933333	1	0.631375
24.950000	1	0.620250
24.966667	1	0.608000
24.983333	1	0.594875
25.000000	1	0.579875
25.016667	1	0.563875
25.033333	1	0.546625
25.050000	1	0.528875
25.066667	1	0.509875
25.083333	1	0.489875
25.100000	1	0.469875
25.116667	1	0.449625
25.133333	1	0.429000
25.150000	1	0.408500
25.166667	1	0.388875
25.183333	1	0.369375
25.200000	1	0.350125
25.216667	1	0.331750
25.233333	1	0.314000
25.250000	1	0.296875
25.266667	1	0.281375
25.283333	1	0.267375
25.300000	1	0.253875
25.316667	1	0.241500
25.333333	1	0.230625
25.350000	1	0.221250
25.366667	1	0.213500
25.383333	1	0.205875
25.400000	1	0.200125
25.416667	1	0.195750
25.433333	1	0.192625
25.450000	1	0.189625
25.466667	1	0.187750
25.483333	1	0.186000
25.500000	1	0.186375
25.516667	1	0.187000
25.533333	1	0.188875
25.550000	1	0.190875
25.566667	1	0.193250
25.583333	1	0.196250
25.600000	1	0.199625
25.616667	1	0.203125
25.633333	1	0.207750
25.650000	1	0.212875
25.666667	1	0.217625
25.683333	1	0.222000
25.700000	1	0.226625
25.716667	1	0.231500
25.733333	1	0.236250
25.750000	1	0.241250
25.766667	1	0.246500
25.783333	1	0.250625
25.800000	1	0.254750
25.816667	1	0.258500
25.833333	1	0.261875
25.850000	1	0.265125
25.866667	1	0.268625
25.883333	1	0.271375
25.900000	1	0.273875
25.916667	1	0.276375
25.933333	1	0.278250
25.950000	1	0.279625
25.966667	1	0.280625
25.983333	1	0.280750
26.000000	1	0.281375
26.016667	1	0.282000
26.033333	1	0.282500
26.050000	1	0.282750
26.066667	1	0.283500
26.083333	1	0.283375
26.100000	1	0.283375
26.116667	1	0.283000
26.133333	1	0.283750
26.150000	1	0.284250
26.166667	1	0.285125
26.183333	1	0.286750
26.200000	1	0.288125
26.216667	1	0.288750
26.233333	1	0.290750
26.250000	1	0.292500
26.266667	1	0.294750
26.283333	1	0.297750
26.300000	1	0.300500
26.316667	1	0.303000
26.333333	1	0.305125
26.350000	1	0.308000
26.366667	1	0.310625
26.383333	1	0.313750
26.400000	1	0.317125
26.416667	1	0.320500
26.433333	1	0.323625
26.450000	1	0.327125
26.466667	1	0.330375
26.483333	1	0.333125
26.500000	1	0.336375
26.516667	1	0.340000
26.533333	1	0.342750
26.550000	1	0.345625
26.566667	1	0.348500
26.583333	1	0.350625
26.600000	1	0.352000
26.616667	1	0.353125
26.633333	1	0.354250
26.650000	1	0.354875
26.666667	1	0.355750
26.683333	1	0.356250
26.700000	1	0.356625
26.716667	1	0.356125
26.733333	1	0.354625
26.750000	1	0.352625
26.766667	1	0.350625
26.783333	1	0.348375
26.800000	1	0.344875
26.816667	1	0.341625
26.833333	1	0.337875
26.850000	1	0.333125
26.866667	1	0.327875
26.883333	1	0.322375
26.900000	1	0.315375
26.916667	1	0.308625
26.933333	1	0.301875
26.950000	1	0.294875
26.966667	1	0.286875
26.983333	1	0.278875
27.000000	1	0.270000
27.016667	1	0.260125
27.033333	1	0.250000
27.050000	1	0.239750
27.066667	1	0.229625
27.083333	1	0.219125
27.100000	1	0.208375
27.116667	1	0.197500
27.133333	1	0.186875
27.150000	1	0.175500
27.166667	1	0.164875
27.183333	1	0.154375
27.200000	1	0.143875
27.216667	1	0.133500
27.233333	1	0.123625
27.250000	1	0.113750
27.266667	1	0.103875
27.283333	1	0.095500
27.300000	1	0.087250
27.316667	1	0.079000
27.333333	1	0.071875
27.350000	1	0.065625
27.366667	1	0.061000
27.383333	1	0.058250
27.400000	1	0.055625
27.416667	1	0.054500
27.433333	1	0.054125
27.450000	1	0.056625
27.466667	1	0.060375
27.483333	1	0.067500
27.500000	1	0.077500
27.516667	1	0.090250
27.533333	1	0.105125
27.550000	1	0.123375
27.566667	1	0.145000
27.583333	1	0.169375
27.600000	1	0.197750
27.616667	1	0.229875
27.633333	1	0.265500
27.650000	1	0.305125
27.666667	1	0.347750
27.683333	1	0.393625
27.700000	1	0.442750
27.716667	1	0.495125
27.733333	1	0.550750
27.750000	1	0.609000
27.766667	1	0.669375
27.783333	1	0.732250
27.800000	1	0.797500
27.816667	1	0.864875
27.833333	1	0.933875
27.850000	1	1.004000
27.866667	1	1.076625
27.883333	1	1.151000
27.900000	1	1.227250
27.916667	1	1.304625
27.933333	1	1.383750
27.950000	1	1.464125
27.966667	1	1.545875
27.983333	1	1.629375
28.000000	1	1.713000
28.016667	1	1.798125
28.033333	1	1.883750
28.050000	1	1.968500
28.066667	1	2.054500
28.083333	1	2.140250
28.100000	1	2.224750
28.116667	1	2.307625
28.133333	1	2.389375
28.150000	1	2.468500
28.166667	1	2.545375
28.183333	1	2.618375
28.200000	1	2.688125
28.216667	1	2.753750
28.233333	1	2.814875
28.250000	1	2.871250
28.266667	1	2.922750
28.283333	1	2.967750
28.300000	1	3.007000
28.316667	1	3.039250
28.333333	1	3.064375
28.350000	1	3.082250
28.366667	1	3.092875
28.383333	1	3.095125
28.400000	1	3.088750
28.416667	1	3.073250
28.433333	1	3.049375
28.450000	1	3.015500
28.466667	1	2.972000
28.483333	1	2.918625
28.500000	1	2.856875
28.516667	1	2.785250
28.533333	1	2.705000
28.550000	1	2.616125
28.566667	1	2.519500
28.583333	1	2.416000
28.600000	1	2.306250
28.616667	1	2.190375
28.633333	1	2.069625
28.650000	1	1.946250
28.666667	1	1.821250
28.683333	1	1.694625
28.700000	1	1.568500
28.716667	1	1.443250
28.733333	1	1.320125
28.750000	1	1.200625
28.766667	1	1.085375
28.783333	1	0.974875
28.800000	1	0.869750
28.816667	1	0.769875
28.833333	1	0.676250
28.850000	1	0.589000
28.866667	1	0.508750
28.883333	1	0.434250
28.900000	1	0.366375
28.916667	1	0.304500
28.933333	1	0.249250
28.950000	1	0.198125
28.966667	1	0.153000
28.983333	1	0.112625
29.000000	1	0.077000
29.016667	1	0.045750
29.033333	1	0.017875
29.050000	1	-0.006250
29.066667	1	-0.027625
29.083333	1	-0.046000
29.100000	1	-0.061750
29.116667	1	-0.074750
29.133333	1	-0.086375
29.150000	1	-0.095250
29.166667	1	-0.102625
29.183333	1	-0.108750
29.200000	1	-0.112750
29.216667	1	-0.115625
29.233333	1	-0.117125
29.250000	1	-0.118125
29.266667	1	-0.117500
29.283333	1	-0.116250
29.300000	1	-0.114000
29.316667	1	-0.111125
29.333333	1	-0.106875
29.350000	1	-0.101875
29.366667	1	-0.096125
29.383333	1	-0.089375
29.400000	1	-0.081625
29.416667	1	-0.074625
29.433333	1	-0.066375
29.450000	1	-0.057250
29.466667	1	-0.047125
29.483333	1	-0.037375
29.500000	1	-0.026500
29.516667	1	-0.016000
29.533333	1	-0.005625
29.550000	1	0.005750
29.566667	1	0.017375
29.583333	1	0.029125
29.600000	1	0.040750
29.616667	1	0.052375
29.633333	1	0.064250
29.650000	1	0.076375
29.666667	1	0.087500
29.683333	1	0.099500
29.700000	1	0.110500
29.716667	1	0.122125
29.733333	1	0.133250
29.750000	1	0.143750
29.766667	1	0.154625
29.783333	1	0.164250
29.800000	1	0.173750
29.816667	1	0.183125
29.833333	1	0.192750
29.850000	1	0.201500
29.866667	1	0.209500
29.883333	1	0.217500
29.900000	1	0.224750
29.916667	1	0.232000
29.933333	1	0.238750
29.950000	1	0.244750
29.966667	1	0.249750
29.983333	1	0.255000
30.000000	1	0.259500
30.016667	1	0.264000
30.033333	1	0.267875
30.050000	1	0.270625
30.066667	1	0.274125
30.083333	1	0.277125
30.100000	1	0.278750
30.116667	1	0.280875
30.133333	1	0.281375
30.150000	1	0.281750
30.166667	1	0.281625
30.183333	1	0.281625
30.200000	1	0.281000
30.216667	1	0.280375
30.233333	1	0.279000
30.250000	1	0.277125
30.266667	1	0.275250
30.283333	1	0.273250
30.300000	1	0.271125
30.316667	1	0.268750
30.333333	1	0.266125
30.350000	1	0.263125
30.366667	1	0.260625
30.383333	1	0.257625
30.400000	1	0.255375
30.416667	1	0.252750
30.433333	1	0.250125
30.450000	1	0.247500
30.466667	1	0.244375
30.483333	1	0.241875
30.500000	1	0.239375
30.516667	1	0.238000
30.533333	1	0.235875
30.550000	1	0.234750
30.566667	1	0.234250
30.583333	1	0.233750
30.600000	1	0.233625
30.616667	1	0.234250
30.633333	1	0.235000
30.650000	1	0.235625
30.666667	1	0.236875
30.683333	1	0.239000
30.700000	1	0.241500
30.716667	1	0.243875
30.733333	1	0.247000
30.750000	1	0.249750
30.766667	1	0.252500
30.783333	1	0.256125
30.800000	1	0.260125
30.816667	1	0.264875
30.833333	1	0.270625
30.850000	1	0.275375
30.866667	1	0.279750
30.883333	1	0.284875
30.900000	1	0.290375
30.916667	1	0.296250
30.933333	1	0.302125
30.950000	1	0.308750
30.966667	1	0.315500
30.983333	1	0.322250
31.000000	1	0.328500
31.016667	1	0.334375
31.033333	1	0.340875
31.050000	1	0.347500
31.066667	1	0.353500
31.083333	1	0.359625
31.100000	1	0.364750
31.116667	1	0.370500
31.133333	1	0.375375
31.150000	1	0.379625
31.166667	1	0.383500
31.183333	1	0.387750
31.200000	1	0.390625
31.216667	1	0.392875
31.233333	1	0.395250
31.250000	1	0.396750
31.266667	1	0.397375
31.283333	1	0.397375
31.300000	1	0.397500
31.316667	1	0.396000
31.333333	1	0.393250
31.350000	1	0.390500
31.366667	1	0.387125
31.383333	1	0.383125
31.400000	1	0.378000
31.416667	1	0.372000
31.433333	1	0.365875
31.450000	1	0.359375
31.466667	1	0.351875
31.483333	1	0.344125
31.500000	1	0.336375
31.516667	1	0.328125
31.533333	1	0.319875
31.550000	1	0.311375
31.566667	1	0.302875
31.583333	1	0.295125
31.600000	1	0.287000
31.616667	1	0.279500
31.633333	1	0.271875
31.650000	1	0.265125
31.666667	1	0.257875
31.683333	1	0.251750
31.700000	1	0.245875
31.716667	1	0.240625
31.733333	1	0.235500
31.750000	1	0.232250
31.766667	1	0.229000
31.783333	1	0.225875
31.800000	1	0.224250
31.816667	1	0.222625
31.833333	1	0.221250
31.850000	1	0.221375
31.866667	1	0.222625
31.883333	1	0.224000
31.900000	1	0.225375
31.916667	1	0.227125
31.933333	1	0.229625
31.950000	1	0.232750
31.966667	1	0.237375
31.983333	1	0.241750
32.000000	1	0.245875
32.016667	1	0.251000
32.033333	1	0.256250
32.050000	1	0.262000
32.066667	1	0.267500
32.083333	1	0.273875
32.100000	1	0.280375
32.116667	1	0.286875
32.133333	1	0.293500
32.150000	1	0.300375
32.166667	1	0.306750
32.183333	1	0.313250
32.200000	1	0.319875
32.216667	1	0.327125
32.233333	1	0.333500
32.250000	1	0.340500
32.266667	1	0.347250
32.283333	1	0.353250
32.300000	1	0.359625
32.316667	1	0.365500
32.333333	1	0.370500
32.350000	1	0.375625
32.366667	1	0.380375
32.383333	1	0.384125
32.400000	1	0.387750
32.416667	1	0.391125
32.433333	1	0.394250
32.450000	1	0.396875
32.466667	1	0.398625
32.483333	1	0.399250
32.500000	1	0.399875
32.516667	1	0.400250
32.533333	1	0.399750
32.550000	1	0.398625
32.566667	1	0.396375
32.583333	1	0.393625
32.600000	1	0.390125
32.616667	1	0.385875
32.633333	1	0.381125
32.650000	1	0.375250
32.666667	1	0.369250
32.683333	1	0.362250
32.700000	1	0.354000
32.716667	1	0.345500
32.733333	1	0.336000
32.750000	1	0.326500
32.766667	1	0.315375
32.783333	1	0.304375
32.800000	1	0.292375
32.816667	1	0.280250
32.833333	1	0.267500
32.850000	1	0.254500
32.866667	1	0.241375
32.883333	1	0.227625
32.900000	1	0.212750
32.916667	1	0.198500
32.933333	1	0.184000
32.950000	1	0.169875
32.966667	1	0.155000
32.983333	1	0.140625
33.000000	1	0.125500
33.016667	1	0.110625
33.033333	1	0.095500
33.050000	1	0.081000
33.066667	1	0.066500
33.083333	1	0.052250
33.100000	1	0.038625
33.116667	1	0.024625
33.133333	1	0.011250
33.150000	1	-0.001125
33.166667	1	-0.014500
33.183333	1	-0.027250
33.200000	1	-0.038875
33.216667	1	-0.050500
33.233333	1	-0.061500
33.250000	1	-0.072250
33.266667	1	-0.082375
33.283333	1	-0.092125
33.300000	1	-0.101750
33.316667	1	-0.111125
33.333333	1	-0.119625
33.350000	1	-0.127000
33.366667	1	-0.134875
33.383333	1	-0.141875
33.400000	1	-0.148125
33.416667	1	-0.154500
33.433333	1	-0.160375
33.450000	1	-0.165375
33.466667	1	-0.170625
33.483333	1	-0.176625
33.500000	1	-0.180500
33.516667	1	-0.185000
33.533333	1	-0.188750
33.550000	1	-0.192000
33.566667	1	-0.195250
33.583333	1	-0.198375
33.600000	1	-0.201000
33.616667	1	-0.203875
33.633333	1	-0.206125
33.650000	1	-0.208000
33.666667	1	-0.210125
33.683333	1	-0.212125
33.700000	1	-0.214375
33.716667	1	-0.216500
33.733333	1	-0.218250
33.750000	1	-0.220000
33.766667	1	-0.221625
33.783333	1	-0.222750
33.800000	1	-0.224375
33.816667	1	-0.225375
33.833333	1	-0.227250
33.850000	1	-0.228750
33.866667	1	-0.229625
33.883333	1	-0.230625
33.900000	1	-0.231500
33.916667	1	-0.233000
33.933333	1	-0.233500
33.950000	1	-0.234875
33.966667	1	-0.235250
33.983333	1	-0.236250
34.000000	1	-0.236875
34.016667	1	-0.237625
34.033333	1	-0.238375
34.050000	1	-0.239875
34.066667	1	-0.240375
34.083333	1	-0.241375
34.100000	1	-0.242250
34.116667	1	-0.242625
34.133333	1	-0.243125
34.150000	1	-0.243750
34.166667	1	-0.244375
34.183333	1	-0.244375
34.200000	1	-0.245000
34.216667	1	-0.245250
34.233333	1	-0.245875
34.250000	1	-0.246500
34.266667	1	-0.246375
34.283333	1	-0.246250
34.300000	1	-0.246500
34.316667	1	-0.247125
34.333333	1	-0.246875
34.350000	1	-0.246375
34.366667	1	-0.246125
34.383333	1	-0.246000
34.400000	1	-0.245625
34.416667	1	-0.245375
34.433333	1	-0.244500
34.450000	1	-0.243875
34.466667	1	-0.243625
34.483333	1	-0.242750
34.500000	1	-0.242250
34.516667	1	-0.240875
34.533333	1	-0.240000
34.550000	1	-0.239000
34.566667	1	-0.238000
34.583333	1	-0.237125
34.600000	1	-0.235625
34.616667	1	-0.234375
34.633333	1	-0.233250
34.650000	1	-0.231875
34.666667	1	-0.230375
34.683333	1	-0.229125
34.700000	1	-0.227625
34.716667	1	-0.226500
34.733333	1	-0.225875
34.750000	1	-0.224750
34.766667	1	-0.223750
34.783333	1	-0.223000
34.800000	1	-0.222250
34.816667	1	-0.221250
34.833333	1	-0.220375
34.850000	1	-0.220375
34.866667	1	-0.219750
34.883333	1	-0.219500
34.900000	1	-0.219500
34.916667	1	-0.219750
34.933333	1	-0.219500
34.950000	1	-0.219500
34.966667	1	-0.220125
34.983333	1	-0.220875
35.000000	1	-0.221750
35.016667	1	-0.223500
35.033333	1	-0.224750
35.050000	1	-0.225875
35.066667	1	-0.227375
35.083333	1	-0.228625
35.100000	1	-0.230375
35.116667	1	-0.232000
35.133333	1	-0.233500
35.150000	1	-0.235500
35.166667	1	-0.237500
35.183333	1	-0.239000
35.200000	1	-0.240250
35.216667	1	-0.242250
35.233333	1	-0.243750
35.250000	1	-0.245625
35.266667	1	-0.246875
35.283333	1	-0.248125
35.300000	1	-0.249125
35.316667	1	-0.250875
35.333333	1	-0.252125
35.350000	1	-0.253500
35.366667	1	-0.253500
35.383333	1	-0.253750
35.400000	1	-0.254125
35.416667	1	-0.254250
35.433333	1	-0.254375
35.450000	1	-0.254875
35.466667	1	-0.254500
35.483333	1	-0.254125
35.500000	1	-0.253625
35.516667	1	-0.252000
35.533333	1	-0.251125
35.550000	1	-0.250000
35.566667	1	-0.249000
35.583333	1	-0.247250
35.600000	1	-0.245375
35.616667	1	-0.243125
35.633333	1	-0.240875
35.650000	1	-0.238250
35.666667	1	-0.236125
35.683333	1	-0.233250
35.700000	1	-0.230125
35.716667	1	-0.227625
35.733333	1	-0.225125
35.750000	1	-0.221750
35.766667	1	-0.218500
35.783333	1	-0.214625
35.800000	1	-0.211625
35.816667	1	-0.208500
35.833333	1	-0.204875
35.850000	1	-0.200750
35.866667	1	-0.197125
35.883333	1	-0.193250
35.900000	1	-0.189500
35.916667	1	-0.185500
35.933333	1	-0.181625
35.950000	1	-0.178000
35.966667	1	-0.173875
35.983333	1	-0.169750
36.000000	1	-0.165625
36.016667	1	-0.162125
36.033333	1	-0.158500
36.050000	1	-0.155000
36.066667	1	-0.151625
36.083333	1	-0.148250
36.100000	1	-0.144250
36.116667	1	-0.140625
36.133333	1	-0.136500
36.150000	1	-0.132625
36.166667	1	-0.129000
36.183333	1	-0.125750
36.200000	1	-0.121500
36.216667	1	-0.117500
36.233333	1	-0.113375
36.250000	1	-0.109375
36.266667	1	-0.105125
36.283333	1	-0.100250
36.300000	1	-0.096125
36.316667	1	-0.091625
36.333333	1	-0.087000
36.350000	1	-0.082375
36.366667	1	-0.078125
36.383333	1	-0.073875
36.400000	1	-0.069375
36.416667	1	-0.064375
36.433333	1	-0.060125
36.450000	1	-0.055375
36.466667	1	-0.051125
36.483333	1	-0.045875
36.500000	1	-0.041250
36.516667	1	-0.036750
36.533333	1	-0.031875
36.550000	1	-0.027750
36.566667	1	-0.024375
36.583333	1	-0.020750
36.600000	1	-0.016625
36.616667	1	-0.013000
36.633333	1	-0.009125
36.650000	1	-0.006125
36.666667	1	-0.003625
36.683333	1	-0.001125
36.700000	1	0.000875
36.716667	1	0.002750
36.733333	1	0.004125
36.750000	1	0.005875
36.766667	1	0.007000
36.783333	1	0.007375
36.800000	1	0.007625
36.816667	1	0.007750
36.833333	1	0.007625
36.850000	1	0.007750
36.866667	1	0.006000
36.883333	1	0.004875
36.900000	1	0.003625
36.916667	1	0.002000
36.933333	1	0.000125
36.950000	1	-0.002375
36.966667	1	-0.004750
36.983333	1	-0.007125
37.000000	1	-0.010000
37.016667	1	-0.014000
37.033333	1	-0.017875
37.050000	1	-0.021625
37.066667	1	-0.025500
37.083333	1	-0.029500
37.100000	1	-0.034125
37.116667	1	-0.038875
37.133333	1	-0.043625
37.150000	1	-0.048750
37.166667	1	-0.054500
37.183333	1	-0.060125
37.200000	1	-0.065625
37.216667	1	-0.070875
37.233333	1	-0.077125
37.250000	1	-0.084000
37.266667	1	-0.090625
37.283333	1	-0.097000
37.300000	1	-0.103375
37.316667	1	-0.109875
37.333333	1	-0.117125
37.350000	1	-0.124125
37.366667	1	-0.131000
37.383333	1	-0.138000
37.400000	1	-0.144625
37.416667	1	-0.152375
37.433333	1	-0.159000
37.450000	1	-0.166375
37.466667	1	-0.173000
37.483333	1	-0.180125
37.500000	1	-0.187125
37.516667	1	-0.194625
37.533333	1	-0.201875
37.550000	1	-0.209125
37.566667	1	-0.216000
37.583333	1	-0.223125
37.600000	1	-0.228750
37.616667	1	-0.235125
37.633333	1	-0.241125
37.650000	1	-0.247125
37.666667	1	-0.253375
37.683333	1	-0.259375
37.700000	1	-0.265125
37.716667	1	-0.270250
37.733333	1	-0.275500
37.750000	1	-0.280125
37.766667	1	-0.284750
37.783333	1	-0.288750
37.800000	1	-0.292500
37.816667	1	-0.296375
37.833333	1	-0.300000
37.850000	1	-0.303125
37.866667	1	-0.305625
37.883333	1	-0.308000
37.900000	1	-0.310250
37.916667	1	-0.312250
37.933333	1	-0.314250
37.950000	1	-0.315125
37.966667	1	-0.316750
37.983333	1	-0.317875
38.000000	1	-0.317875
38.016667	1	-0.319000
38.033333	1	-0.319500
38.050000	1	-0.319375
38.066667	1	-0.319375
38.083333	1	-0.319375
38.100000	1	-0.318875
38.116667	1	-0.318125
38.133333	1	-0.317250
38.150000	1	-0.316875
38.166667	1	-0.315750
38.183333	1	-0.314875
38.200000	1	-0.314250
38.216667	1	-0.312625
38.233333	1	-0.311625
38.250000	1	-0.310250
38.266667	1	-0.309250
38.283333	1	-0.307750
38.300000	1	-0.306625
38.316667	1	-0.305875
38.333333	1	-0.304500
38.350000	1	-0.303625
38.366667	1	-0.302375
38.383333	1	-0.301625
38.400000	1	-0.300750
38.416667	1	-0.300000
38.433333	1	-0.299000
38.450000	1	-0.298500
38.466667	1	-0.297250
38.483333	1	-0.297000
38.500000	1	-0.297500
38.516667	1	-0.297000
38.533333	1	-0.296500
38.550000	1	-0.295750
38.566667	1	-0.295250
38.583333	1	-0.294000
38.600000	1	-0.293750
38.616667	1	-0.293375
38.633333	1	-0.293000
38.650000	1	-0.292750
38.666667	1	-0.292750
38.683333	1	-0.292375
38.700000	1	-0.292500
38.716667	1	-0.292250
38.733333	1	-0.291625
38.750000	1	-0.291500
38.766667	1	-0.291750
38.783333	1	-0.292250
38.800000	1	-0.292375
38.816667	1	-0.292625
38.833333	1	-0.293000
38.850000	1	-0.293625
38.866667	1	-0.293750
38.883333	1	-0.293625
38.900000	1	-0.294250
38.916667	1	-0.295250
38.933333	1	-0.295750
38.950000	1	-0.296125
38.966667	1	-0.297000
38.983333	1	-0.297250
39.000000	1	-0.298125
39.016667	1	-0.298750
39.033333	1	-0.299000
39.050000	1	-0.300500
39.066667	1	-0.301375
39.083333	1	-0.302250
39.100000	1	-0.303875
39.116667	1	-0.304125
39.133333	1	-0.305125
39.150000	1	-0.306125
39.166667	1	-0.307250
39.183333	1	-0.308000
39.200000	1	-0.308625
39.216667	1	-0.309750
39.233333	1	-0.310750
39.250000	1	-0.311750
39.266667	1	-0.312500
39.283333	1	-0.312375
39.300000	1	-0.313125
39.316667	1	-0.313750
39.333333	1	-0.314750
39.350000	1	-0.315875
39.366667	1	-0.316125
39.383333	1	-0.316625
39.400000	1	-0.317125
39.416667	1	-0.317375
39.433333	1	-0.317250
39.450000	1	-0.317250
39.466667	1	-0.317500
39.483333	1	-0.318000
39.500000	1	-0.317750
39.516667	1	-0.317625
39.533333	1	-0.317250
39.550000	1	-0.316875
39.566667	1	-0.316875
39.583333	1	-0.316625
39.600000	1	-0.316625
39.616667	1	-0.316375
39.633333	1	-0.315500
39.650000	1	-0.314875
39.666667	1	-0.314875
39.683333	1	-0.314750
39.700000	1	-0.314750
39.716667	1	-0.314375
39.733333	1	-0.313125
39.750000	1	-0.312625
39.766667	1	-0.312125
39.783333	1	-0.311625
39.800000	1	-0.311125
39.816667	1	-0.310875
39.833333	1	-0.309500
39.850000	1	-0.308500
39.866667	1	-0.308250
39.883333	1	-0.307250
39.900000	1	-0.306625
39.916667	1	-0.305125
39.933333	1	-0.304250
39.950000	1	-0.303000
39.966667	1	-0.302000
39.983333	1	-0.300000
40.000000	1	-0.299750
