File Path	chrom://marshall/Chromeleon7/HPLC_Ultimate_3000/Users/markusar/20221226.seq/860.smp/RI_1.channel/RI_1.chm
Channel	RI_1

Injection Information:
Data Vault	Chromeleon7
Injection	ca2.2
Injection Number	31
Position	RD7
Comment	
Processing Method	
Instrument Method	std_method
Type	Unknown
Status	Finished
Injection Date	27.12.2022
Injection Time	12:39:44
Injection Volume (µl)	20.000
Dilution Factor	1.0000
Weight	1.0000

Chromatogram Data Information:
Time Min. (min)	0.000000
Time Max. (min)	40.000000
Data Points	2401
Detector	RI
Generating Data System	Chromeleon 7.2.5.9507
Exporting Data System	Chromeleon 7.2.5.0
Operator	Instrument Controller
Signal Quantity	Refractive 
Signal Unit	µRIU
Signal Min.	-0.212250
Signal Max.	97.275625
Channel	RI_1
Driver Name	RID520Driver.dll
Channel Type	Evaluation
Min. Step (s)	1
Max. Step (s)	1
Average Step (s)	1

Signal Parameter Information:
Signal Info	

Chromatogram Data:
Time (min)	Step (s)	Value (µRIU)
0.000000	n.a.	0.136500
0.016667	1	0.137500
0.033333	1	0.138875
0.050000	1	0.140500
0.066667	1	0.141000
0.083333	1	0.142000
0.100000	1	0.142625
0.116667	1	0.143000
0.133333	1	0.143375
0.150000	1	0.144000
0.166667	1	0.144625
0.183333	1	0.145000
0.200000	1	0.144875
0.216667	1	0.144875
0.233333	1	0.144250
0.250000	1	0.143875
0.266667	1	0.143125
0.283333	1	0.141000
0.300000	1	0.137625
0.316667	1	0.132875
0.333333	1	0.130625
0.350000	1	0.131875
0.366667	1	0.135375
0.383333	1	0.138500
0.400000	1	0.140000
0.416667	1	0.140500
0.433333	1	0.140750
0.450000	1	0.141125
0.466667	1	0.140375
0.483333	1	0.137500
0.500000	1	0.132375
0.516667	1	0.127250
0.533333	1	0.121875
0.550000	1	0.118250
0.566667	1	0.114875
0.583333	1	0.112125
0.600000	1	0.109500
0.616667	1	0.107500
0.633333	1	0.105250
0.650000	1	0.102625
0.666667	1	0.100250
0.683333	1	0.098125
0.700000	1	0.096250
0.716667	1	0.094500
0.733333	1	0.093125
0.750000	1	0.091500
0.766667	1	0.090125
0.783333	1	0.088375
0.800000	1	0.087500
0.816667	1	0.086125
0.833333	1	0.084500
0.850000	1	0.083000
0.866667	1	0.081625
0.883333	1	0.080000
0.900000	1	0.078250
0.916667	1	0.078000
0.933333	1	0.076875
0.950000	1	0.075625
0.966667	1	0.074625
0.983333	1	0.073000
1.000000	1	0.072000
1.016667	1	0.071125
1.033333	1	0.069500
1.050000	1	0.068125
1.066667	1	0.066750
1.083333	1	0.065375
1.100000	1	0.063500
1.116667	1	0.061875
1.133333	1	0.060500
1.150000	1	0.059000
1.166667	1	0.057750
1.183333	1	0.056125
1.200000	1	0.053625
1.216667	1	0.051875
1.233333	1	0.049625
1.250000	1	0.047500
1.266667	1	0.045750
1.283333	1	0.044125
1.300000	1	0.042500
1.316667	1	0.040125
1.333333	1	0.038250
1.350000	1	0.036625
1.366667	1	0.034500
1.383333	1	0.032375
1.400000	1	0.030000
1.416667	1	0.028250
1.433333	1	0.025875
1.450000	1	0.023375
1.466667	1	0.020625
1.483333	1	0.018250
1.500000	1	0.015625
1.516667	1	0.013000
1.533333	1	0.010500
1.550000	1	0.007500
1.566667	1	0.005875
1.583333	1	0.003500
1.600000	1	0.001125
1.616667	1	-0.001875
1.633333	1	-0.004000
1.650000	1	-0.006750
1.666667	1	-0.009625
1.683333	1	-0.012125
1.700000	1	-0.014625
1.716667	1	-0.016625
1.733333	1	-0.018750
1.750000	1	-0.021000
1.766667	1	-0.023250
1.783333	1	-0.025750
1.800000	1	-0.028375
1.816667	1	-0.030500
1.833333	1	-0.032000
1.850000	1	-0.034125
1.866667	1	-0.036000
1.883333	1	-0.038250
1.900000	1	-0.040625
1.916667	1	-0.042250
1.933333	1	-0.044125
1.950000	1	-0.046000
1.966667	1	-0.048000
1.983333	1	-0.049750
2.000000	1	-0.051375
2.016667	1	-0.053750
2.033333	1	-0.056125
2.050000	1	-0.058125
2.066667	1	-0.059500
2.083333	1	-0.061875
2.100000	1	-0.063750
2.116667	1	-0.065000
2.133333	1	-0.066875
2.150000	1	-0.068500
2.166667	1	-0.070250
2.183333	1	-0.072125
2.200000	1	-0.074000
2.216667	1	-0.075250
2.233333	1	-0.077000
2.250000	1	-0.078125
2.266667	1	-0.080000
2.283333	1	-0.081875
2.300000	1	-0.083125
2.316667	1	-0.085000
2.333333	1	-0.086375
2.350000	1	-0.087000
2.366667	1	-0.088250
2.383333	1	-0.089250
2.400000	1	-0.091000
2.416667	1	-0.092500
2.433333	1	-0.093750
2.450000	1	-0.094500
2.466667	1	-0.095000
2.483333	1	-0.095750
2.500000	1	-0.096375
2.516667	1	-0.097000
2.533333	1	-0.097500
2.550000	1	-0.097750
2.566667	1	-0.098000
2.583333	1	-0.098625
2.600000	1	-0.098625
2.616667	1	-0.099125
2.633333	1	-0.099000
2.650000	1	-0.099000
2.666667	1	-0.099000
2.683333	1	-0.099500
2.700000	1	-0.099000
2.716667	1	-0.099000
2.733333	1	-0.098875
2.750000	1	-0.098250
2.766667	1	-0.097875
2.783333	1	-0.097000
2.800000	1	-0.096375
2.816667	1	-0.096000
2.833333	1	-0.095625
2.850000	1	-0.095000
2.866667	1	-0.094000
2.883333	1	-0.093625
2.900000	1	-0.092750
2.916667	1	-0.091875
2.933333	1	-0.091625
2.950000	1	-0.091250
2.966667	1	-0.090375
2.983333	1	-0.089375
3.000000	1	-0.088500
3.016667	1	-0.088000
3.033333	1	-0.087375
3.050000	1	-0.085875
3.066667	1	-0.084625
3.083333	1	-0.082500
3.100000	1	-0.081250
3.116667	1	-0.080000
3.133333	1	-0.078750
3.150000	1	-0.077250
3.166667	1	-0.076125
3.183333	1	-0.075250
3.200000	1	-0.074250
3.216667	1	-0.072375
3.233333	1	-0.070750
3.250000	1	-0.068875
3.266667	1	-0.066625
3.283333	1	-0.065000
3.300000	1	-0.063625
3.316667	1	-0.061625
3.333333	1	-0.060375
3.350000	1	-0.058375
3.366667	1	-0.056375
3.383333	1	-0.054500
3.400000	1	-0.052000
3.416667	1	-0.050000
3.433333	1	-0.047875
3.450000	1	-0.045750
3.466667	1	-0.043000
3.483333	1	-0.040875
3.500000	1	-0.038500
3.516667	1	-0.036750
3.533333	1	-0.034375
3.550000	1	-0.032625
3.566667	1	-0.029875
3.583333	1	-0.028000
3.600000	1	-0.025375
3.616667	1	-0.022750
3.633333	1	-0.021000
3.650000	1	-0.019500
3.666667	1	-0.017000
3.683333	1	-0.015500
3.700000	1	-0.013500
3.716667	1	-0.011125
3.733333	1	-0.009125
3.750000	1	-0.007125
3.766667	1	-0.005375
3.783333	1	-0.003500
3.800000	1	-0.002000
3.816667	1	-0.000875
3.833333	1	0.000375
3.850000	1	0.001375
3.866667	1	0.002750
3.883333	1	0.004625
3.900000	1	0.005750
3.916667	1	0.006500
3.933333	1	0.007125
3.950000	1	0.008250
3.966667	1	0.008750
3.983333	1	0.009500
4.000000	1	0.009875
4.016667	1	0.010375
4.033333	1	0.010875
4.050000	1	0.010750
4.066667	1	0.011625
4.083333	1	0.011750
4.100000	1	0.011625
4.116667	1	0.012000
4.133333	1	0.011750
4.150000	1	0.011750
4.166667	1	0.011875
4.183333	1	0.011625
4.200000	1	0.011125
4.216667	1	0.011125
4.233333	1	0.010750
4.250000	1	0.010250
4.266667	1	0.009500
4.283333	1	0.008625
4.300000	1	0.008000
4.316667	1	0.007625
4.333333	1	0.007375
4.350000	1	0.005875
4.366667	1	0.005500
4.383333	1	0.004500
4.400000	1	0.004250
4.416667	1	0.003250
4.433333	1	0.002125
4.450000	1	0.001250
4.466667	1	0.000750
4.483333	1	0.000125
4.500000	1	-0.000250
4.516667	1	-0.000750
4.533333	1	-0.002125
4.550000	1	-0.003375
4.566667	1	-0.004375
4.583333	1	-0.004750
4.600000	1	-0.005500
4.616667	1	-0.006875
4.633333	1	-0.007250
4.650000	1	-0.007625
4.666667	1	-0.008375
4.683333	1	-0.008875
4.700000	1	-0.010625
4.716667	1	-0.011250
4.733333	1	-0.012375
4.750000	1	-0.012500
4.766667	1	-0.013625
4.783333	1	-0.014625
4.800000	1	-0.015500
4.816667	1	-0.016250
4.833333	1	-0.016375
4.850000	1	-0.017750
4.866667	1	-0.018750
4.883333	1	-0.019625
4.900000	1	-0.019500
4.916667	1	-0.020625
4.933333	1	-0.020750
4.950000	1	-0.021125
4.966667	1	-0.021750
4.983333	1	-0.022375
5.000000	1	-0.022625
5.016667	1	-0.022875
5.033333	1	-0.023500
5.050000	1	-0.023375
5.066667	1	-0.023375
5.083333	1	-0.023625
5.100000	1	-0.023500
5.116667	1	-0.023125
5.133333	1	-0.023000
5.150000	1	-0.023375
5.166667	1	-0.023125
5.183333	1	-0.022500
5.200000	1	-0.022000
5.216667	1	-0.021625
5.233333	1	-0.021250
5.250000	1	-0.020000
5.266667	1	-0.019875
5.283333	1	-0.018750
5.300000	1	-0.017125
5.316667	1	-0.016500
5.333333	1	-0.015625
5.350000	1	-0.015250
5.366667	1	-0.014000
5.383333	1	-0.013250
5.400000	1	-0.011875
5.416667	1	-0.010750
5.433333	1	-0.009875
5.450000	1	-0.008375
5.466667	1	-0.006375
5.483333	1	-0.004875
5.500000	1	-0.003125
5.516667	1	-0.001625
5.533333	1	0.000250
5.550000	1	0.001500
5.566667	1	0.003000
5.583333	1	0.004750
5.600000	1	0.006875
5.616667	1	0.008500
5.633333	1	0.010500
5.650000	1	0.012500
5.666667	1	0.014250
5.683333	1	0.017125
5.700000	1	0.019375
5.716667	1	0.021125
5.733333	1	0.023000
5.750000	1	0.025250
5.766667	1	0.027375
5.783333	1	0.029875
5.800000	1	0.032375
5.816667	1	0.035000
5.833333	1	0.037000
5.850000	1	0.038750
5.866667	1	0.041125
5.883333	1	0.043250
5.900000	1	0.045625
5.916667	1	0.048375
5.933333	1	0.049875
5.950000	1	0.051750
5.966667	1	0.054000
5.983333	1	0.056125
6.000000	1	0.057625
6.016667	1	0.059125
6.033333	1	0.060625
6.050000	1	0.061875
6.066667	1	0.063500
6.083333	1	0.065375
6.100000	1	0.066500
6.116667	1	0.068000
6.133333	1	0.069375
6.150000	1	0.070875
6.166667	1	0.071875
6.183333	1	0.073250
6.200000	1	0.075125
6.216667	1	0.076750
6.233333	1	0.077250
6.250000	1	0.079000
6.266667	1	0.080625
6.283333	1	0.081500
6.300000	1	0.083125
6.316667	1	0.085000
6.333333	1	0.086000
6.350000	1	0.087125
6.366667	1	0.088500
6.383333	1	0.090125
6.400000	1	0.091125
6.416667	1	0.092375
6.433333	1	0.093125
6.450000	1	0.094125
6.466667	1	0.095125
6.483333	1	0.095750
6.500000	1	0.097125
6.516667	1	0.097875
6.533333	1	0.098625
6.550000	1	0.099500
6.566667	1	0.100375
6.583333	1	0.101125
6.600000	1	0.101375
6.616667	1	0.102125
6.633333	1	0.103000
6.650000	1	0.103625
6.666667	1	0.104000
6.683333	1	0.104500
6.700000	1	0.104875
6.716667	1	0.105750
6.733333	1	0.105875
6.750000	1	0.106250
6.766667	1	0.106875
6.783333	1	0.107500
6.800000	1	0.106625
6.816667	1	0.107125
6.833333	1	0.107125
6.850000	1	0.107875
6.866667	1	0.108375
6.883333	1	0.108375
6.900000	1	0.108375
6.916667	1	0.109125
6.933333	1	0.109250
6.950000	1	0.109250
6.966667	1	0.109250
6.983333	1	0.110000
7.000000	1	0.110125
7.016667	1	0.110250
7.033333	1	0.110125
7.050000	1	0.111625
7.066667	1	0.111750
7.083333	1	0.111875
7.100000	1	0.112125
7.116667	1	0.112875
7.133333	1	0.113000
7.150000	1	0.113875
7.166667	1	0.114625
7.183333	1	0.114500
7.200000	1	0.114625
7.216667	1	0.115750
7.233333	1	0.116250
7.250000	1	0.117375
7.266667	1	0.118375
7.283333	1	0.118500
7.300000	1	0.118875
7.316667	1	0.120125
7.333333	1	0.121000
7.350000	1	0.121125
7.366667	1	0.121875
7.383333	1	0.122625
7.400000	1	0.123000
7.416667	1	0.123125
7.433333	1	0.123375
7.450000	1	0.124000
7.466667	1	0.124250
7.483333	1	0.124750
7.500000	1	0.125250
7.516667	1	0.125250
7.533333	1	0.125250
7.550000	1	0.125375
7.566667	1	0.125250
7.583333	1	0.125000
7.600000	1	0.124625
7.616667	1	0.124000
7.633333	1	0.123375
7.650000	1	0.123125
7.666667	1	0.123250
7.683333	1	0.122375
7.700000	1	0.121875
7.716667	1	0.120875
7.733333	1	0.120500
7.750000	1	0.120000
7.766667	1	0.119625
7.783333	1	0.118500
7.800000	1	0.118000
7.816667	1	0.117250
7.833333	1	0.116125
7.850000	1	0.115000
7.866667	1	0.113875
7.883333	1	0.113125
7.900000	1	0.111750
7.916667	1	0.110375
7.933333	1	0.109125
7.950000	1	0.107750
7.966667	1	0.106750
7.983333	1	0.105125
8.000000	1	0.104125
8.016667	1	0.102375
8.033333	1	0.101250
8.050000	1	0.099125
8.066667	1	0.097125
8.083333	1	0.095250
8.100000	1	0.093500
8.116667	1	0.092000
8.133333	1	0.089875
8.150000	1	0.088375
8.166667	1	0.086750
8.183333	1	0.085250
8.200000	1	0.082250
8.216667	1	0.080250
8.233333	1	0.078125
8.250000	1	0.076250
8.266667	1	0.074375
8.283333	1	0.072750
8.300000	1	0.070750
8.316667	1	0.069125
8.333333	1	0.067250
8.350000	1	0.065375
8.366667	1	0.063625
8.383333	1	0.061875
8.400000	1	0.060125
8.416667	1	0.058625
8.433333	1	0.057875
8.450000	1	0.057250
8.466667	1	0.054750
8.483333	1	0.053375
8.500000	1	0.052500
8.516667	1	0.051125
8.533333	1	0.049125
8.550000	1	0.047750
8.566667	1	0.047625
8.583333	1	0.046875
8.600000	1	0.046375
8.616667	1	0.046125
8.633333	1	0.045625
8.650000	1	0.045250
8.666667	1	0.044875
8.683333	1	0.043750
8.700000	1	0.043500
8.716667	1	0.043875
8.733333	1	0.043500
8.750000	1	0.043500
8.766667	1	0.044125
8.783333	1	0.044125
8.800000	1	0.044250
8.816667	1	0.045125
8.833333	1	0.045875
8.850000	1	0.046875
8.866667	1	0.047000
8.883333	1	0.047000
8.900000	1	0.048000
8.916667	1	0.049500
8.933333	1	0.050625
8.950000	1	0.051250
8.966667	1	0.052375
8.983333	1	0.053500
9.000000	1	0.054750
9.016667	1	0.056000
9.033333	1	0.057000
9.050000	1	0.058500
9.066667	1	0.060125
9.083333	1	0.061500
9.100000	1	0.062875
9.116667	1	0.064375
9.133333	1	0.066625
9.150000	1	0.068500
9.166667	1	0.070500
9.183333	1	0.072750
9.200000	1	0.074750
9.216667	1	0.077250
9.233333	1	0.080000
9.250000	1	0.082500
9.266667	1	0.085375
9.283333	1	0.088125
9.300000	1	0.091500
9.316667	1	0.094750
9.333333	1	0.098125
9.350000	1	0.102000
9.366667	1	0.106250
9.383333	1	0.110375
9.400000	1	0.115375
9.416667	1	0.120875
9.433333	1	0.126500
9.450000	1	0.132875
9.466667	1	0.139625
9.483333	1	0.146500
9.500000	1	0.154750
9.516667	1	0.164625
9.533333	1	0.175500
9.550000	1	0.188000
9.566667	1	0.202250
9.583333	1	0.218000
9.600000	1	0.236500
9.616667	1	0.257000
9.633333	1	0.280000
9.650000	1	0.305875
9.666667	1	0.333875
9.683333	1	0.364750
9.700000	1	0.399125
9.716667	1	0.436500
9.733333	1	0.478500
9.750000	1	0.525125
9.766667	1	0.576250
9.783333	1	0.630875
9.800000	1	0.683125
9.816667	1	0.722750
9.833333	1	0.738125
9.850000	1	0.717875
9.866667	1	0.662750
9.883333	1	0.589625
9.900000	1	0.537625
9.916667	1	0.555875
9.933333	1	0.704625
9.950000	1	1.038500
9.966667	1	1.609375
9.983333	1	2.458500
10.000000	1	3.621500
10.016667	1	5.126000
10.033333	1	6.997625
10.050000	1	9.251750
10.066667	1	11.899875
10.083333	1	14.948000
10.100000	1	18.395000
10.116667	1	22.227125
10.133333	1	26.420750
10.150000	1	30.941375
10.166667	1	35.745875
10.183333	1	40.778375
10.200000	1	45.989250
10.216667	1	51.324625
10.233333	1	56.726500
10.250000	1	62.130375
10.266667	1	67.472000
10.283333	1	72.681375
10.300000	1	77.672875
10.316667	1	82.343750
10.333333	1	86.580125
10.350000	1	90.259625
10.366667	1	93.262750
10.383333	1	95.482875
10.400000	1	96.840000
10.416667	1	97.275625
10.433333	1	96.760500
10.450000	1	95.295250
10.466667	1	92.900875
10.483333	1	89.618875
10.500000	1	85.511125
10.516667	1	80.657750
10.533333	1	75.152000
10.550000	1	69.103750
10.566667	1	62.654500
10.583333	1	55.988875
10.600000	1	49.329250
10.616667	1	42.938250
10.633333	1	37.065000
10.650000	1	31.890375
10.666667	1	27.488125
10.683333	1	23.845125
10.700000	1	20.888125
10.716667	1	18.518000
10.733333	1	16.632625
10.750000	1	15.137500
10.766667	1	13.952875
10.783333	1	13.010500
10.800000	1	12.254375
10.816667	1	11.638750
10.833333	1	11.129625
10.850000	1	10.698625
10.866667	1	10.323375
10.883333	1	9.988875
10.900000	1	9.679375
10.916667	1	9.385000
10.933333	1	9.096250
10.950000	1	8.806625
10.966667	1	8.511125
10.983333	1	8.206625
11.000000	1	7.890500
11.016667	1	7.563625
11.033333	1	7.227375
11.050000	1	6.884375
11.066667	1	6.538750
11.083333	1	6.196375
11.100000	1	5.863750
11.116667	1	5.546875
11.133333	1	5.250750
11.150000	1	4.980625
11.166667	1	4.738375
11.183333	1	4.524000
11.200000	1	4.338250
11.216667	1	4.178250
11.233333	1	4.042750
11.250000	1	3.928250
11.266667	1	3.832625
11.283333	1	3.753375
11.300000	1	3.689250
11.316667	1	3.638000
11.333333	1	3.599125
11.350000	1	3.570125
11.366667	1	3.550000
11.383333	1	3.537125
11.400000	1	3.529625
11.416667	1	3.526625
11.433333	1	3.524000
11.450000	1	3.521125
11.466667	1	3.514625
11.483333	1	3.503500
11.500000	1	3.486375
11.516667	1	3.461875
11.533333	1	3.430625
11.550000	1	3.391875
11.566667	1	3.347875
11.583333	1	3.298875
11.600000	1	3.245000
11.616667	1	3.189250
11.633333	1	3.131375
11.650000	1	3.072125
11.666667	1	3.012375
11.683333	1	2.953250
11.700000	1	2.895125
11.716667	1	2.839125
11.733333	1	2.784375
11.750000	1	2.733125
11.766667	1	2.684500
11.783333	1	2.639125
11.800000	1	2.596875
11.816667	1	2.557500
11.833333	1	2.521750
11.850000	1	2.488750
11.866667	1	2.458000
11.883333	1	2.429000
11.900000	1	2.402500
11.916667	1	2.376500
11.933333	1	2.351625
11.950000	1	2.327375
11.966667	1	2.302000
11.983333	1	2.276875
12.000000	1	2.251625
12.016667	1	2.226625
12.033333	1	2.202750
12.050000	1	2.179875
12.066667	1	2.159750
12.083333	1	2.142875
12.100000	1	2.132250
12.116667	1	2.128875
12.133333	1	2.134625
12.150000	1	2.150625
12.166667	1	2.179375
12.183333	1	2.222500
12.200000	1	2.281250
12.216667	1	2.357625
12.233333	1	2.454750
12.250000	1	2.574375
12.266667	1	2.720375
12.283333	1	2.895000
12.300000	1	3.101750
12.316667	1	3.342375
12.333333	1	3.617500
12.350000	1	3.928375
12.366667	1	4.275625
12.383333	1	4.658000
12.400000	1	5.074250
12.416667	1	5.521375
12.433333	1	5.997750
12.450000	1	6.502750
12.466667	1	7.034250
12.483333	1	7.590500
12.500000	1	8.169375
12.516667	1	8.769250
12.533333	1	9.386750
12.550000	1	10.016875
12.566667	1	10.655250
12.583333	1	11.295500
12.600000	1	11.931500
12.616667	1	12.557000
12.633333	1	13.165250
12.650000	1	13.749125
12.666667	1	14.302875
12.683333	1	14.820125
12.700000	1	15.294500
12.716667	1	15.723000
12.733333	1	16.101500
12.750000	1	16.426375
12.766667	1	16.696000
12.783333	1	16.911500
12.800000	1	17.073500
12.816667	1	17.183875
12.833333	1	17.247625
12.850000	1	17.267625
12.866667	1	17.248750
12.883333	1	17.195750
12.900000	1	17.112625
12.916667	1	17.003375
12.933333	1	16.870625
12.950000	1	16.717500
12.966667	1	16.546125
12.983333	1	16.356000
13.000000	1	16.149000
13.016667	1	15.924750
13.033333	1	15.685250
13.050000	1	15.432375
13.066667	1	15.168125
13.083333	1	14.895375
13.100000	1	14.614750
13.116667	1	14.329875
13.133333	1	14.043875
13.150000	1	13.759750
13.166667	1	13.479250
13.183333	1	13.204125
13.200000	1	12.936125
13.216667	1	12.676125
13.233333	1	12.424750
13.250000	1	12.182375
13.266667	1	11.950000
13.283333	1	11.726125
13.300000	1	11.509875
13.316667	1	11.300625
13.333333	1	11.097250
13.350000	1	10.900000
13.366667	1	10.707375
13.383333	1	10.519250
13.400000	1	10.333875
13.416667	1	10.150750
13.433333	1	9.969000
13.450000	1	9.786875
13.466667	1	9.603000
13.483333	1	9.415000
13.500000	1	9.219500
13.516667	1	9.015250
13.533333	1	8.798875
13.550000	1	8.568250
13.566667	1	8.321125
13.583333	1	8.058625
13.600000	1	7.779750
13.616667	1	7.484125
13.633333	1	7.172375
13.650000	1	6.846000
13.666667	1	6.506125
13.683333	1	6.156000
13.700000	1	5.803875
13.716667	1	5.462250
13.733333	1	5.146625
13.750000	1	4.868625
13.766667	1	4.633375
13.783333	1	4.441750
13.800000	1	4.287625
13.816667	1	4.165125
13.833333	1	4.067125
13.850000	1	3.989125
13.866667	1	3.925375
13.883333	1	3.873375
13.900000	1	3.829750
13.916667	1	3.792250
13.933333	1	3.760000
13.950000	1	3.731125
13.966667	1	3.705000
13.983333	1	3.679500
14.000000	1	3.653500
14.016667	1	3.627750
14.033333	1	3.602250
14.050000	1	3.577000
14.066667	1	3.552375
14.083333	1	3.528875
14.100000	1	3.508000
14.116667	1	3.491500
14.133333	1	3.480250
14.150000	1	3.477625
14.166667	1	3.484125
14.183333	1	3.502875
14.200000	1	3.533625
14.216667	1	3.578875
14.233333	1	3.638125
14.250000	1	3.713000
14.266667	1	3.802125
14.283333	1	3.906000
14.300000	1	4.023875
14.316667	1	4.153875
14.333333	1	4.294875
14.350000	1	4.444000
14.366667	1	4.600125
14.383333	1	4.760750
14.400000	1	4.922500
14.416667	1	5.085375
14.433333	1	5.244875
14.450000	1	5.399125
14.466667	1	5.548750
14.483333	1	5.691250
14.500000	1	5.826625
14.516667	1	5.957750
14.533333	1	6.087125
14.550000	1	6.220375
14.566667	1	6.363500
14.583333	1	6.524125
14.600000	1	6.710125
14.616667	1	6.926875
14.633333	1	7.182875
14.650000	1	7.483000
14.666667	1	7.828750
14.683333	1	8.220875
14.700000	1	8.656125
14.716667	1	9.131375
14.733333	1	9.641375
14.750000	1	10.182000
14.766667	1	10.748000
14.783333	1	11.336375
14.800000	1	11.945125
14.816667	1	12.574750
14.833333	1	13.225375
14.850000	1	13.896875
14.866667	1	14.588875
14.883333	1	15.295625
14.900000	1	16.010875
14.916667	1	16.724125
14.933333	1	17.423750
14.950000	1	18.095375
14.966667	1	18.723125
14.983333	1	19.291625
15.000000	1	19.786750
15.016667	1	20.197250
15.033333	1	20.511125
15.050000	1	20.719375
15.066667	1	20.815125
15.083333	1	20.793250
15.100000	1	20.651625
15.116667	1	20.389625
15.133333	1	20.009125
15.150000	1	19.517250
15.166667	1	18.921750
15.183333	1	18.234125
15.200000	1	17.465750
15.216667	1	16.631375
15.233333	1	15.745750
15.250000	1	14.824000
15.266667	1	13.881375
15.283333	1	12.931375
15.300000	1	11.988000
15.316667	1	11.062625
15.333333	1	10.164625
15.350000	1	9.302375
15.366667	1	8.486250
15.383333	1	7.728750
15.400000	1	7.039375
15.416667	1	6.424625
15.433333	1	5.887625
15.450000	1	5.421375
15.466667	1	5.019000
15.483333	1	4.673000
15.500000	1	4.376875
15.516667	1	4.123750
15.533333	1	3.908875
15.550000	1	3.727500
15.566667	1	3.577250
15.583333	1	3.454375
15.600000	1	3.357125
15.616667	1	3.282000
15.633333	1	3.226250
15.650000	1	3.188500
15.666667	1	3.166750
15.683333	1	3.158375
15.700000	1	3.161750
15.716667	1	3.174625
15.733333	1	3.195500
15.750000	1	3.221625
15.766667	1	3.253125
15.783333	1	3.288000
15.800000	1	3.326125
15.816667	1	3.368625
15.833333	1	3.413750
15.850000	1	3.462625
15.866667	1	3.516250
15.883333	1	3.576250
15.900000	1	3.643375
15.916667	1	3.717375
15.933333	1	3.799000
15.950000	1	3.887750
15.966667	1	3.982000
15.983333	1	4.082000
16.000000	1	4.184500
16.016667	1	4.288875
16.033333	1	4.391750
16.050000	1	4.493000
16.066667	1	4.590250
16.083333	1	4.682500
16.100000	1	4.770125
16.116667	1	4.853500
16.133333	1	4.932500
16.150000	1	5.006500
16.166667	1	5.075625
16.183333	1	5.140625
16.200000	1	5.200875
16.216667	1	5.255625
16.233333	1	5.304250
16.250000	1	5.344875
16.266667	1	5.376375
16.283333	1	5.398500
16.300000	1	5.409750
16.316667	1	5.409750
16.333333	1	5.397375
16.350000	1	5.371000
16.366667	1	5.330625
16.383333	1	5.275500
16.400000	1	5.205875
16.416667	1	5.121625
16.433333	1	5.021750
16.450000	1	4.907125
16.466667	1	4.778375
16.483333	1	4.635875
16.500000	1	4.481375
16.516667	1	4.317875
16.533333	1	4.146875
16.550000	1	3.970875
16.566667	1	3.792125
16.583333	1	3.613125
16.600000	1	3.437625
16.616667	1	3.266625
16.633333	1	3.103375
16.650000	1	2.948125
16.666667	1	2.803250
16.683333	1	2.668625
16.700000	1	2.546625
16.716667	1	2.435250
16.733333	1	2.335500
16.750000	1	2.246500
16.766667	1	2.167000
16.783333	1	2.097375
16.800000	1	2.036500
16.816667	1	1.982625
16.833333	1	1.935125
16.850000	1	1.893250
16.866667	1	1.856375
16.883333	1	1.823500
16.900000	1	1.794000
16.916667	1	1.767250
16.933333	1	1.742625
16.950000	1	1.719250
16.966667	1	1.697375
16.983333	1	1.675875
17.000000	1	1.656000
17.016667	1	1.636625
17.033333	1	1.618250
17.050000	1	1.600875
17.066667	1	1.583250
17.083333	1	1.567375
17.100000	1	1.551750
17.116667	1	1.537375
17.133333	1	1.523750
17.150000	1	1.509375
17.166667	1	1.497625
17.183333	1	1.485750
17.200000	1	1.474875
17.216667	1	1.463500
17.233333	1	1.453125
17.250000	1	1.443125
17.266667	1	1.433875
17.283333	1	1.424625
17.300000	1	1.415500
17.316667	1	1.406875
17.333333	1	1.398750
17.350000	1	1.391375
17.366667	1	1.383500
17.383333	1	1.376125
17.400000	1	1.369125
17.416667	1	1.362250
17.433333	1	1.356625
17.450000	1	1.351375
17.466667	1	1.347250
17.483333	1	1.344000
17.500000	1	1.341750
17.516667	1	1.340625
17.533333	1	1.340125
17.550000	1	1.341750
17.566667	1	1.345375
17.583333	1	1.349875
17.600000	1	1.356500
17.616667	1	1.364625
17.633333	1	1.374250
17.650000	1	1.386000
17.666667	1	1.399750
17.683333	1	1.414750
17.700000	1	1.430875
17.716667	1	1.448125
17.733333	1	1.467500
17.750000	1	1.488125
17.766667	1	1.510500
17.783333	1	1.533125
17.800000	1	1.557625
17.816667	1	1.582000
17.833333	1	1.606875
17.850000	1	1.632875
17.866667	1	1.658750
17.883333	1	1.685125
17.900000	1	1.711250
17.916667	1	1.735875
17.933333	1	1.760375
17.950000	1	1.784250
17.966667	1	1.806125
17.983333	1	1.826875
18.000000	1	1.846000
18.016667	1	1.862500
18.033333	1	1.877625
18.050000	1	1.890250
18.066667	1	1.900375
18.083333	1	1.908250
18.100000	1	1.913500
18.116667	1	1.916750
18.133333	1	1.916875
18.150000	1	1.914625
18.166667	1	1.910500
18.183333	1	1.903875
18.200000	1	1.894000
18.216667	1	1.882875
18.233333	1	1.870125
18.250000	1	1.854375
18.266667	1	1.837125
18.283333	1	1.818875
18.300000	1	1.798750
18.316667	1	1.777500
18.333333	1	1.754625
18.350000	1	1.731875
18.366667	1	1.708500
18.383333	1	1.684500
18.400000	1	1.660125
18.416667	1	1.634875
18.433333	1	1.610000
18.450000	1	1.585875
18.466667	1	1.561750
18.483333	1	1.537750
18.500000	1	1.514625
18.516667	1	1.492000
18.533333	1	1.469250
18.550000	1	1.446250
18.566667	1	1.425125
18.583333	1	1.404000
18.600000	1	1.383375
18.616667	1	1.363500
18.633333	1	1.344250
18.650000	1	1.325500
18.666667	1	1.307500
18.683333	1	1.290750
18.700000	1	1.274500
18.716667	1	1.258375
18.733333	1	1.242875
18.750000	1	1.228125
18.766667	1	1.214750
18.783333	1	1.201375
18.800000	1	1.189000
18.816667	1	1.178125
18.833333	1	1.168500
18.850000	1	1.159625
18.866667	1	1.153000
18.883333	1	1.148500
18.900000	1	1.145500
18.916667	1	1.143875
18.933333	1	1.144500
18.950000	1	1.147375
18.966667	1	1.151875
18.983333	1	1.158500
19.000000	1	1.167375
19.016667	1	1.179000
19.033333	1	1.192000
19.050000	1	1.206500
19.066667	1	1.223125
19.083333	1	1.241375
19.100000	1	1.261625
19.116667	1	1.282750
19.133333	1	1.305000
19.150000	1	1.328875
19.166667	1	1.354125
19.183333	1	1.380625
19.200000	1	1.408125
19.216667	1	1.436250
19.233333	1	1.465500
19.250000	1	1.495500
19.266667	1	1.526125
19.283333	1	1.556125
19.300000	1	1.586000
19.316667	1	1.614875
19.333333	1	1.643750
19.350000	1	1.671000
19.366667	1	1.697375
19.383333	1	1.722375
19.400000	1	1.745125
19.416667	1	1.766250
19.433333	1	1.784875
19.450000	1	1.800000
19.466667	1	1.812625
19.483333	1	1.821750
19.500000	1	1.827500
19.516667	1	1.830000
19.533333	1	1.827875
19.550000	1	1.822250
19.566667	1	1.813000
19.583333	1	1.799750
19.600000	1	1.782750
19.616667	1	1.763000
19.633333	1	1.740625
19.650000	1	1.714875
19.666667	1	1.686500
19.683333	1	1.657250
19.700000	1	1.626250
19.716667	1	1.594000
19.733333	1	1.560750
19.750000	1	1.527750
19.766667	1	1.494500
19.783333	1	1.462500
19.800000	1	1.430875
19.816667	1	1.400625
19.833333	1	1.373000
19.850000	1	1.346750
19.866667	1	1.323125
19.883333	1	1.302125
19.900000	1	1.284125
19.916667	1	1.269375
19.933333	1	1.258625
19.950000	1	1.250750
19.966667	1	1.246375
19.983333	1	1.245250
20.000000	1	1.248625
20.016667	1	1.257125
20.033333	1	1.269750
20.050000	1	1.286125
20.066667	1	1.307250
20.083333	1	1.332000
20.100000	1	1.361500
20.116667	1	1.395500
20.133333	1	1.434000
20.150000	1	1.477125
20.166667	1	1.523500
20.183333	1	1.573750
20.200000	1	1.627750
20.216667	1	1.683500
20.233333	1	1.741000
20.250000	1	1.799500
20.266667	1	1.859000
20.283333	1	1.917375
20.300000	1	1.974500
20.316667	1	2.031875
20.333333	1	2.088750
20.350000	1	2.145125
20.366667	1	2.201000
20.383333	1	2.258500
20.400000	1	2.317000
20.416667	1	2.377375
20.433333	1	2.439375
20.450000	1	2.504125
20.466667	1	2.571125
20.483333	1	2.641250
20.500000	1	2.713375
20.516667	1	2.787750
20.533333	1	2.863750
20.550000	1	2.941750
20.566667	1	3.019375
20.583333	1	3.097000
20.600000	1	3.173250
20.616667	1	3.247125
20.633333	1	3.319625
20.650000	1	3.387875
20.666667	1	3.451000
20.683333	1	3.509125
20.700000	1	3.560375
20.716667	1	3.602625
20.733333	1	3.636250
20.750000	1	3.660125
20.766667	1	3.672250
20.783333	1	3.673875
20.800000	1	3.663500
20.816667	1	3.642000
20.833333	1	3.609625
20.850000	1	3.567250
20.866667	1	3.515750
20.883333	1	3.457000
20.900000	1	3.393250
20.916667	1	3.325125
20.933333	1	3.255000
20.950000	1	3.184125
20.966667	1	3.114250
20.983333	1	3.046250
21.000000	1	2.980500
21.016667	1	2.919375
21.033333	1	2.862125
21.050000	1	2.808500
21.066667	1	2.758625
21.083333	1	2.712125
21.100000	1	2.668875
21.116667	1	2.627500
21.133333	1	2.587750
21.150000	1	2.548000
21.166667	1	2.508750
21.183333	1	2.467500
21.200000	1	2.424625
21.216667	1	2.379125
21.233333	1	2.329625
21.250000	1	2.276625
21.266667	1	2.218750
21.283333	1	2.157000
21.300000	1	2.090750
21.316667	1	2.021000
21.333333	1	1.947625
21.350000	1	1.870625
21.366667	1	1.792625
21.383333	1	1.712625
21.400000	1	1.631750
21.416667	1	1.551000
21.433333	1	1.471625
21.450000	1	1.394250
21.466667	1	1.319875
21.483333	1	1.248875
21.500000	1	1.181375
21.516667	1	1.118500
21.533333	1	1.060000
21.550000	1	1.005750
21.566667	1	0.956875
21.583333	1	0.912875
21.600000	1	0.874125
21.616667	1	0.839625
21.633333	1	0.809625
21.650000	1	0.784625
21.666667	1	0.763125
21.683333	1	0.745375
21.700000	1	0.730875
21.716667	1	0.720125
21.733333	1	0.712125
21.750000	1	0.706375
21.766667	1	0.703125
21.783333	1	0.702125
21.800000	1	0.704000
21.816667	1	0.707500
21.833333	1	0.712000
21.850000	1	0.717250
21.866667	1	0.724750
21.883333	1	0.734000
21.900000	1	0.744375
21.916667	1	0.755750
21.933333	1	0.768750
21.950000	1	0.781875
21.966667	1	0.796125
21.983333	1	0.811125
22.000000	1	0.827375
22.016667	1	0.843875
22.033333	1	0.861750
22.050000	1	0.879375
22.066667	1	0.896875
22.083333	1	0.914125
22.100000	1	0.931625
22.116667	1	0.948625
22.133333	1	0.964250
22.150000	1	0.979250
22.166667	1	0.993500
22.183333	1	1.005250
22.200000	1	1.015750
22.216667	1	1.024625
22.233333	1	1.031625
22.250000	1	1.035375
22.266667	1	1.037750
22.283333	1	1.037375
22.300000	1	1.033875
22.316667	1	1.027875
22.333333	1	1.019125
22.350000	1	1.008500
22.366667	1	0.994375
22.383333	1	0.978500
22.400000	1	0.961375
22.416667	1	0.941625
22.433333	1	0.920375
22.450000	1	0.898375
22.466667	1	0.875875
22.483333	1	0.852500
22.500000	1	0.829375
22.516667	1	0.806875
22.533333	1	0.785125
22.550000	1	0.764500
22.566667	1	0.745250
22.583333	1	0.726875
22.600000	1	0.709875
22.616667	1	0.695000
22.633333	1	0.681375
22.650000	1	0.669875
22.666667	1	0.659000
22.683333	1	0.650625
22.700000	1	0.643375
22.716667	1	0.637500
22.733333	1	0.633125
22.750000	1	0.630125
22.766667	1	0.628000
22.783333	1	0.626375
22.800000	1	0.625625
22.816667	1	0.625375
22.833333	1	0.626000
22.850000	1	0.626125
22.866667	1	0.627125
22.883333	1	0.627750
22.900000	1	0.628250
22.916667	1	0.628625
22.933333	1	0.629125
22.950000	1	0.628375
22.966667	1	0.627625
22.983333	1	0.626750
23.000000	1	0.625375
23.016667	1	0.623000
23.033333	1	0.620250
23.050000	1	0.616625
23.066667	1	0.612500
23.083333	1	0.608000
23.100000	1	0.602750
23.116667	1	0.597125
23.133333	1	0.591125
23.150000	1	0.584375
23.166667	1	0.577250
23.183333	1	0.569875
23.200000	1	0.561500
23.216667	1	0.552750
23.233333	1	0.543875
23.250000	1	0.534500
23.266667	1	0.525250
23.283333	1	0.516125
23.300000	1	0.507250
23.316667	1	0.497875
23.333333	1	0.489375
23.350000	1	0.480375
23.366667	1	0.472125
23.383333	1	0.465250
23.400000	1	0.459125
23.416667	1	0.453625
23.433333	1	0.449125
23.450000	1	0.445500
23.466667	1	0.443375
23.483333	1	0.442500
23.500000	1	0.443125
23.516667	1	0.445750
23.533333	1	0.450500
23.550000	1	0.456625
23.566667	1	0.465125
23.583333	1	0.475625
23.600000	1	0.488625
23.616667	1	0.503125
23.633333	1	0.518875
23.650000	1	0.536500
23.666667	1	0.556000
23.683333	1	0.577125
23.700000	1	0.599125
23.716667	1	0.622625
23.733333	1	0.647875
23.750000	1	0.673500
23.766667	1	0.700875
23.783333	1	0.729250
23.800000	1	0.759000
23.816667	1	0.790250
23.833333	1	0.822250
23.850000	1	0.855125
23.866667	1	0.889750
23.883333	1	0.926125
23.900000	1	0.962625
23.916667	1	1.000125
23.933333	1	1.038875
23.950000	1	1.077875
23.966667	1	1.118125
23.983333	1	1.157625
24.000000	1	1.197625
24.016667	1	1.236875
24.033333	1	1.274750
24.050000	1	1.310000
24.066667	1	1.344750
24.083333	1	1.377375
24.100000	1	1.407375
24.116667	1	1.434000
24.133333	1	1.457125
24.150000	1	1.476625
24.166667	1	1.493375
24.183333	1	1.505250
24.200000	1	1.512750
24.216667	1	1.515750
24.233333	1	1.514000
24.250000	1	1.506500
24.266667	1	1.494875
24.283333	1	1.478875
24.300000	1	1.457500
24.316667	1	1.432625
24.333333	1	1.404125
24.350000	1	1.372250
24.366667	1	1.337625
24.383333	1	1.300625
24.400000	1	1.262625
24.416667	1	1.223875
24.433333	1	1.184250
24.450000	1	1.143875
24.466667	1	1.105375
24.483333	1	1.068000
24.500000	1	1.032125
24.516667	1	0.998625
24.533333	1	0.967125
24.550000	1	0.938375
24.566667	1	0.912625
24.583333	1	0.889625
24.600000	1	0.869125
24.616667	1	0.851250
24.633333	1	0.835875
24.650000	1	0.823375
24.666667	1	0.812875
24.683333	1	0.804500
24.700000	1	0.797875
24.716667	1	0.791875
24.733333	1	0.787500
24.750000	1	0.783875
24.766667	1	0.780375
24.783333	1	0.777625
24.800000	1	0.774875
24.816667	1	0.771750
24.833333	1	0.768625
24.850000	1	0.765000
24.866667	1	0.759625
24.883333	1	0.754250
24.900000	1	0.747250
24.916667	1	0.738625
24.933333	1	0.729125
24.950000	1	0.718250
24.966667	1	0.706250
24.983333	1	0.692625
25.000000	1	0.677875
25.016667	1	0.662250
25.033333	1	0.645125
25.050000	1	0.627875
25.066667	1	0.609500
25.083333	1	0.590625
25.100000	1	0.570750
25.116667	1	0.550750
25.133333	1	0.530625
25.150000	1	0.510500
25.166667	1	0.490500
25.183333	1	0.471000
25.200000	1	0.452250
25.216667	1	0.434000
25.233333	1	0.416875
25.250000	1	0.400500
25.266667	1	0.384500
25.283333	1	0.370125
25.300000	1	0.356250
25.316667	1	0.343500
25.333333	1	0.332250
25.350000	1	0.321875
25.366667	1	0.313375
25.383333	1	0.305750
25.400000	1	0.299250
25.416667	1	0.294125
25.433333	1	0.289500
25.450000	1	0.286375
25.466667	1	0.283625
25.483333	1	0.282000
25.500000	1	0.281875
25.516667	1	0.281875
25.533333	1	0.282625
25.550000	1	0.284000
25.566667	1	0.286375
25.583333	1	0.289125
25.600000	1	0.291625
25.616667	1	0.295375
25.633333	1	0.299125
25.650000	1	0.303000
25.666667	1	0.307500
25.683333	1	0.311250
25.700000	1	0.315375
25.716667	1	0.319875
25.733333	1	0.324375
25.750000	1	0.328875
25.766667	1	0.333125
25.783333	1	0.337250
25.800000	1	0.341250
25.816667	1	0.344125
25.833333	1	0.347375
25.850000	1	0.350125
25.866667	1	0.353000
25.883333	1	0.355125
25.900000	1	0.357125
25.916667	1	0.358875
25.933333	1	0.359875
25.950000	1	0.360500
25.966667	1	0.361750
25.983333	1	0.361875
26.000000	1	0.362250
26.016667	1	0.362500
26.033333	1	0.362250
26.050000	1	0.361250
26.066667	1	0.360875
26.083333	1	0.360375
26.100000	1	0.360375
26.116667	1	0.359625
26.133333	1	0.358750
26.150000	1	0.358500
26.166667	1	0.358000
26.183333	1	0.358500
26.200000	1	0.359000
26.216667	1	0.359875
26.233333	1	0.360250
26.250000	1	0.361375
26.266667	1	0.362750
26.283333	1	0.364000
26.300000	1	0.365375
26.316667	1	0.366625
26.333333	1	0.368625
26.350000	1	0.370500
26.366667	1	0.372625
26.383333	1	0.374875
26.400000	1	0.377500
26.416667	1	0.379875
26.433333	1	0.382875
26.450000	1	0.385125
26.466667	1	0.387625
26.483333	1	0.390375
26.500000	1	0.393000
26.516667	1	0.395125
26.533333	1	0.397500
26.550000	1	0.399750
26.566667	1	0.402500
26.583333	1	0.404375
26.600000	1	0.405125
26.616667	1	0.406250
26.633333	1	0.406875
26.650000	1	0.407125
26.666667	1	0.407125
26.683333	1	0.407000
26.700000	1	0.406500
26.716667	1	0.405375
26.733333	1	0.404500
26.750000	1	0.402750
26.766667	1	0.400250
26.783333	1	0.397750
26.800000	1	0.395000
26.816667	1	0.391375
26.833333	1	0.386875
26.850000	1	0.381875
26.866667	1	0.376875
26.883333	1	0.370625
26.900000	1	0.363750
26.916667	1	0.356500
26.933333	1	0.349125
26.950000	1	0.341125
26.966667	1	0.333000
26.983333	1	0.324375
27.000000	1	0.314875
27.016667	1	0.305125
27.033333	1	0.294750
27.050000	1	0.284750
27.066667	1	0.274625
27.083333	1	0.263625
27.100000	1	0.252750
27.116667	1	0.241375
27.133333	1	0.230500
27.150000	1	0.220000
27.166667	1	0.209875
27.183333	1	0.199250
27.200000	1	0.188750
27.216667	1	0.179250
27.233333	1	0.170250
27.250000	1	0.160250
27.266667	1	0.151000
27.283333	1	0.142875
27.300000	1	0.135500
27.316667	1	0.128500
27.333333	1	0.122375
27.350000	1	0.116875
27.366667	1	0.112625
27.383333	1	0.109500
27.400000	1	0.108500
27.416667	1	0.108250
27.433333	1	0.109750
27.450000	1	0.112125
27.466667	1	0.116625
27.483333	1	0.124125
27.500000	1	0.134125
27.516667	1	0.147000
27.533333	1	0.162250
27.550000	1	0.179875
27.566667	1	0.201250
27.583333	1	0.226125
27.600000	1	0.253875
27.616667	1	0.285125
27.633333	1	0.319625
27.650000	1	0.358250
27.666667	1	0.399875
27.683333	1	0.445000
27.700000	1	0.493375
27.716667	1	0.544375
27.733333	1	0.598125
27.750000	1	0.653500
27.766667	1	0.712250
27.783333	1	0.773375
27.800000	1	0.835125
27.816667	1	0.899375
27.833333	1	0.965625
27.850000	1	1.034000
27.866667	1	1.103500
27.883333	1	1.174875
27.900000	1	1.247625
27.916667	1	1.321500
27.933333	1	1.397000
27.950000	1	1.474625
27.966667	1	1.553250
27.983333	1	1.631875
28.000000	1	1.712750
28.016667	1	1.794000
28.033333	1	1.876250
28.050000	1	1.958625
28.066667	1	2.041000
28.083333	1	2.122750
28.100000	1	2.203875
28.116667	1	2.284000
28.133333	1	2.362250
28.150000	1	2.439000
28.166667	1	2.512875
28.183333	1	2.583625
28.200000	1	2.651125
28.216667	1	2.715125
28.233333	1	2.773875
28.250000	1	2.829375
28.266667	1	2.879125
28.283333	1	2.922750
28.300000	1	2.961500
28.316667	1	2.993375
28.333333	1	3.018500
28.350000	1	3.036625
28.366667	1	3.047500
28.383333	1	3.050375
28.400000	1	3.044750
28.416667	1	3.030750
28.433333	1	3.007750
28.450000	1	2.976250
28.466667	1	2.935375
28.483333	1	2.885500
28.500000	1	2.827250
28.516667	1	2.759250
28.533333	1	2.683500
28.550000	1	2.599500
28.566667	1	2.508125
28.583333	1	2.409750
28.600000	1	2.305625
28.616667	1	2.196875
28.633333	1	2.083750
28.650000	1	1.967625
28.666667	1	1.848750
28.683333	1	1.729250
28.700000	1	1.610000
28.716667	1	1.492375
28.733333	1	1.377000
28.750000	1	1.265000
28.766667	1	1.156875
28.783333	1	1.052500
28.800000	1	0.954125
28.816667	1	0.861750
28.833333	1	0.775250
28.850000	1	0.694125
28.866667	1	0.620000
28.883333	1	0.552250
28.900000	1	0.490375
28.916667	1	0.434750
28.933333	1	0.385000
28.950000	1	0.340000
28.966667	1	0.299875
28.983333	1	0.263875
29.000000	1	0.233500
29.016667	1	0.206500
29.033333	1	0.183250
29.050000	1	0.163125
29.066667	1	0.146625
29.083333	1	0.132250
29.100000	1	0.120750
29.116667	1	0.110500
29.133333	1	0.103125
29.150000	1	0.097125
29.166667	1	0.092500
29.183333	1	0.089625
29.200000	1	0.086875
29.216667	1	0.085875
29.233333	1	0.085875
29.250000	1	0.086875
29.266667	1	0.089125
29.283333	1	0.092125
29.300000	1	0.096125
29.316667	1	0.100625
29.333333	1	0.105375
29.350000	1	0.110750
29.366667	1	0.116750
29.383333	1	0.123250
29.400000	1	0.130375
29.416667	1	0.137750
29.433333	1	0.144875
29.450000	1	0.152625
29.466667	1	0.161125
29.483333	1	0.170125
29.500000	1	0.178375
29.516667	1	0.187500
29.533333	1	0.196500
29.550000	1	0.205750
29.566667	1	0.216000
29.583333	1	0.225625
29.600000	1	0.235250
29.616667	1	0.245375
29.633333	1	0.254750
29.650000	1	0.264250
29.666667	1	0.273500
29.683333	1	0.282375
29.700000	1	0.291750
29.716667	1	0.300750
29.733333	1	0.309875
29.750000	1	0.318250
29.766667	1	0.326875
29.783333	1	0.334375
29.800000	1	0.342125
29.816667	1	0.349375
29.833333	1	0.356750
29.850000	1	0.363250
29.866667	1	0.369625
29.883333	1	0.375250
29.900000	1	0.381125
29.916667	1	0.386875
29.933333	1	0.392125
29.950000	1	0.396500
29.966667	1	0.400875
29.983333	1	0.404750
30.000000	1	0.407625
30.016667	1	0.410250
30.033333	1	0.412875
30.050000	1	0.415250
30.066667	1	0.417000
30.083333	1	0.417625
30.100000	1	0.418000
30.116667	1	0.418750
30.133333	1	0.419125
30.150000	1	0.418500
30.166667	1	0.417250
30.183333	1	0.416500
30.200000	1	0.414625
30.216667	1	0.413000
30.233333	1	0.410875
30.250000	1	0.408250
30.266667	1	0.405250
30.283333	1	0.403000
30.300000	1	0.400000
30.316667	1	0.397125
30.333333	1	0.394125
30.350000	1	0.391000
30.366667	1	0.388125
30.383333	1	0.385625
30.400000	1	0.383250
30.416667	1	0.380750
30.433333	1	0.377500
30.450000	1	0.375250
30.466667	1	0.373250
30.483333	1	0.371750
30.500000	1	0.370375
30.516667	1	0.369625
30.533333	1	0.369375
30.550000	1	0.368750
30.566667	1	0.368875
30.583333	1	0.369500
30.600000	1	0.371500
30.616667	1	0.373875
30.633333	1	0.375875
30.650000	1	0.377750
30.666667	1	0.381375
30.683333	1	0.385125
30.700000	1	0.389750
30.716667	1	0.394250
30.733333	1	0.399250
30.750000	1	0.405250
30.766667	1	0.411000
30.783333	1	0.417250
30.800000	1	0.424375
30.816667	1	0.430875
30.833333	1	0.438375
30.850000	1	0.446750
30.866667	1	0.454500
30.883333	1	0.462250
30.900000	1	0.470875
30.916667	1	0.479875
30.933333	1	0.488750
30.950000	1	0.498250
30.966667	1	0.507250
30.983333	1	0.516500
31.000000	1	0.525625
31.016667	1	0.535375
31.033333	1	0.544625
31.050000	1	0.552875
31.066667	1	0.561750
31.083333	1	0.570125
31.100000	1	0.578375
31.116667	1	0.586250
31.133333	1	0.593500
31.150000	1	0.600000
31.166667	1	0.605500
31.183333	1	0.610750
31.200000	1	0.615750
31.216667	1	0.619750
31.233333	1	0.622875
31.250000	1	0.624750
31.266667	1	0.626500
31.283333	1	0.626500
31.300000	1	0.626250
31.316667	1	0.624625
31.333333	1	0.621250
31.350000	1	0.617125
31.366667	1	0.612500
31.383333	1	0.606750
31.400000	1	0.600000
31.416667	1	0.591875
31.433333	1	0.583000
31.450000	1	0.573500
31.466667	1	0.563000
31.483333	1	0.552875
31.500000	1	0.541375
31.516667	1	0.530125
31.533333	1	0.518500
31.550000	1	0.506250
31.566667	1	0.493875
31.583333	1	0.481875
31.600000	1	0.469375
31.616667	1	0.457625
31.633333	1	0.446000
31.650000	1	0.435500
31.666667	1	0.424750
31.683333	1	0.415000
31.700000	1	0.405375
31.716667	1	0.396500
31.733333	1	0.388125
31.750000	1	0.380625
31.766667	1	0.373625
31.783333	1	0.367875
31.800000	1	0.362750
31.816667	1	0.358500
31.833333	1	0.355500
31.850000	1	0.352625
31.866667	1	0.350250
31.883333	1	0.348750
31.900000	1	0.347750
31.916667	1	0.347125
31.933333	1	0.347625
31.950000	1	0.348875
31.966667	1	0.350375
31.983333	1	0.352125
32.000000	1	0.355125
32.016667	1	0.358000
32.033333	1	0.361625
32.050000	1	0.364625
32.066667	1	0.369000
32.083333	1	0.373125
32.100000	1	0.377875
32.116667	1	0.383000
32.133333	1	0.387375
32.150000	1	0.392125
32.166667	1	0.396875
32.183333	1	0.401625
32.200000	1	0.406250
32.216667	1	0.411375
32.233333	1	0.416125
32.250000	1	0.420875
32.266667	1	0.425875
32.283333	1	0.430250
32.300000	1	0.434375
32.316667	1	0.438875
32.333333	1	0.443000
32.350000	1	0.446625
32.366667	1	0.449625
32.383333	1	0.452500
32.400000	1	0.455125
32.416667	1	0.456875
32.433333	1	0.458500
32.450000	1	0.459375
32.466667	1	0.460500
32.483333	1	0.460750
32.500000	1	0.460000
32.516667	1	0.459375
32.533333	1	0.457250
32.550000	1	0.455000
32.566667	1	0.452125
32.583333	1	0.448750
32.600000	1	0.445250
32.616667	1	0.440750
32.633333	1	0.436000
32.650000	1	0.430250
32.666667	1	0.423500
32.683333	1	0.416750
32.700000	1	0.409250
32.716667	1	0.400875
32.733333	1	0.392250
32.750000	1	0.382500
32.766667	1	0.372125
32.783333	1	0.361625
32.800000	1	0.350875
32.816667	1	0.339500
32.833333	1	0.328250
32.850000	1	0.315625
32.866667	1	0.303500
32.883333	1	0.290875
32.900000	1	0.277625
32.916667	1	0.263750
32.933333	1	0.250750
32.950000	1	0.237500
32.966667	1	0.224125
32.983333	1	0.211250
33.000000	1	0.198625
33.016667	1	0.185375
33.033333	1	0.171750
33.050000	1	0.158250
33.066667	1	0.145125
33.083333	1	0.132625
33.100000	1	0.120250
33.116667	1	0.107875
33.133333	1	0.095250
33.150000	1	0.083625
33.166667	1	0.072375
33.183333	1	0.061625
33.200000	1	0.050625
33.216667	1	0.039875
33.233333	1	0.030000
33.250000	1	0.020250
33.266667	1	0.011250
33.283333	1	0.002500
33.300000	1	-0.005625
33.316667	1	-0.013500
33.333333	1	-0.021000
33.350000	1	-0.028875
33.366667	1	-0.036000
33.383333	1	-0.042625
33.400000	1	-0.049000
33.416667	1	-0.055000
33.433333	1	-0.059625
33.450000	1	-0.064500
33.466667	1	-0.068875
33.483333	1	-0.073375
33.500000	1	-0.076625
33.516667	1	-0.080125
33.533333	1	-0.083750
33.550000	1	-0.087000
33.566667	1	-0.089875
33.583333	1	-0.092750
33.600000	1	-0.095125
33.616667	1	-0.096875
33.633333	1	-0.098625
33.650000	1	-0.100375
33.666667	1	-0.102625
33.683333	1	-0.104125
33.700000	1	-0.105375
33.716667	1	-0.107000
33.733333	1	-0.108625
33.750000	1	-0.109750
33.766667	1	-0.110625
33.783333	1	-0.111125
33.800000	1	-0.111625
33.816667	1	-0.112250
33.833333	1	-0.113500
33.850000	1	-0.113625
33.866667	1	-0.114375
33.883333	1	-0.114875
33.900000	1	-0.115000
33.916667	1	-0.116000
33.933333	1	-0.116000
33.950000	1	-0.117000
33.966667	1	-0.116875
33.983333	1	-0.117375
34.000000	1	-0.117250
34.016667	1	-0.117125
34.033333	1	-0.117500
34.050000	1	-0.117250
34.066667	1	-0.116750
34.083333	1	-0.116500
34.100000	1	-0.116500
34.116667	1	-0.116000
34.133333	1	-0.116000
34.150000	1	-0.115000
34.166667	1	-0.114500
34.183333	1	-0.113875
34.200000	1	-0.113500
34.216667	1	-0.112625
34.233333	1	-0.111500
34.250000	1	-0.110500
34.266667	1	-0.109750
34.283333	1	-0.108625
34.300000	1	-0.108625
34.316667	1	-0.107500
34.333333	1	-0.106500
34.350000	1	-0.105875
34.366667	1	-0.104750
34.383333	1	-0.103625
34.400000	1	-0.103250
34.416667	1	-0.102250
34.433333	1	-0.100375
34.450000	1	-0.098750
34.466667	1	-0.097375
34.483333	1	-0.096375
34.500000	1	-0.095250
34.516667	1	-0.094000
34.533333	1	-0.092750
34.550000	1	-0.091625
34.566667	1	-0.089750
34.583333	1	-0.088375
34.600000	1	-0.087375
34.616667	1	-0.086000
34.633333	1	-0.084750
34.650000	1	-0.083625
34.666667	1	-0.082000
34.683333	1	-0.081125
34.700000	1	-0.080125
34.716667	1	-0.079250
34.733333	1	-0.077625
34.750000	1	-0.076750
34.766667	1	-0.076125
34.783333	1	-0.075875
34.800000	1	-0.075625
34.816667	1	-0.075125
34.833333	1	-0.074875
34.850000	1	-0.074125
34.866667	1	-0.073625
34.883333	1	-0.073750
34.900000	1	-0.074250
34.916667	1	-0.075000
34.933333	1	-0.075875
34.950000	1	-0.077250
34.966667	1	-0.078000
34.983333	1	-0.078500
35.000000	1	-0.079750
35.016667	1	-0.081500
35.033333	1	-0.082500
35.050000	1	-0.084000
35.066667	1	-0.086125
35.083333	1	-0.087625
35.100000	1	-0.089500
35.116667	1	-0.090625
35.133333	1	-0.092375
35.150000	1	-0.094250
35.166667	1	-0.096125
35.183333	1	-0.098500
35.200000	1	-0.100375
35.216667	1	-0.102125
35.233333	1	-0.103625
35.250000	1	-0.104500
35.266667	1	-0.106875
35.283333	1	-0.108875
35.300000	1	-0.110250
35.316667	1	-0.111875
35.333333	1	-0.113625
35.350000	1	-0.114750
35.366667	1	-0.116125
35.383333	1	-0.117750
35.400000	1	-0.119000
35.416667	1	-0.119125
35.433333	1	-0.119000
35.450000	1	-0.119250
35.466667	1	-0.119625
35.483333	1	-0.119875
35.500000	1	-0.119750
35.516667	1	-0.118625
35.533333	1	-0.117750
35.550000	1	-0.117125
35.566667	1	-0.116750
35.583333	1	-0.115375
35.600000	1	-0.113625
35.616667	1	-0.112000
35.633333	1	-0.109875
35.650000	1	-0.108250
35.666667	1	-0.106125
35.683333	1	-0.103625
35.700000	1	-0.101750
35.716667	1	-0.099500
35.733333	1	-0.096375
35.750000	1	-0.093500
35.766667	1	-0.090500
35.783333	1	-0.087250
35.800000	1	-0.084000
35.816667	1	-0.080000
35.833333	1	-0.077125
35.850000	1	-0.073500
35.866667	1	-0.069750
35.883333	1	-0.066125
35.900000	1	-0.062250
35.916667	1	-0.058625
35.933333	1	-0.055000
35.950000	1	-0.051000
35.966667	1	-0.047500
35.983333	1	-0.043500
36.000000	1	-0.040250
36.016667	1	-0.036875
36.033333	1	-0.032875
36.050000	1	-0.029250
36.066667	1	-0.025875
36.083333	1	-0.021375
36.100000	1	-0.017250
36.116667	1	-0.013875
36.133333	1	-0.010000
36.150000	1	-0.006875
36.166667	1	-0.003250
36.183333	1	0.000375
36.200000	1	0.004625
36.216667	1	0.008500
36.233333	1	0.012375
36.250000	1	0.016375
36.266667	1	0.020125
36.283333	1	0.023250
36.300000	1	0.027125
36.316667	1	0.030625
36.333333	1	0.034000
36.350000	1	0.037750
36.366667	1	0.041500
36.383333	1	0.045250
36.400000	1	0.049000
36.416667	1	0.052500
36.433333	1	0.056375
36.450000	1	0.060000
36.466667	1	0.063125
36.483333	1	0.066125
36.500000	1	0.069500
36.516667	1	0.072625
36.533333	1	0.076125
36.550000	1	0.078625
36.566667	1	0.081500
36.583333	1	0.084625
36.600000	1	0.087250
36.616667	1	0.089250
36.633333	1	0.091875
36.650000	1	0.094875
36.666667	1	0.096500
36.683333	1	0.098500
36.700000	1	0.099875
36.716667	1	0.101000
36.733333	1	0.102000
36.750000	1	0.102750
36.766667	1	0.103000
36.783333	1	0.103000
36.800000	1	0.103125
36.816667	1	0.103375
36.833333	1	0.103875
36.850000	1	0.103625
36.866667	1	0.103000
36.883333	1	0.102000
36.900000	1	0.101125
36.916667	1	0.100125
36.933333	1	0.098625
36.950000	1	0.097250
36.966667	1	0.094750
36.983333	1	0.092500
37.000000	1	0.090250
37.016667	1	0.087750
37.033333	1	0.084750
37.050000	1	0.082000
37.066667	1	0.079250
37.083333	1	0.076000
37.100000	1	0.071875
37.116667	1	0.068625
37.133333	1	0.065250
37.150000	1	0.061750
37.166667	1	0.057875
37.183333	1	0.054250
37.200000	1	0.049625
37.216667	1	0.044875
37.233333	1	0.039875
37.250000	1	0.035125
37.266667	1	0.030125
37.283333	1	0.025625
37.300000	1	0.020625
37.316667	1	0.016000
37.333333	1	0.011250
37.350000	1	0.006375
37.366667	1	0.000750
37.383333	1	-0.004375
37.400000	1	-0.009125
37.416667	1	-0.014125
37.433333	1	-0.019625
37.450000	1	-0.025000
37.466667	1	-0.030125
37.483333	1	-0.035125
37.500000	1	-0.040750
37.516667	1	-0.046750
37.533333	1	-0.052875
37.550000	1	-0.058125
37.566667	1	-0.062875
37.583333	1	-0.068000
37.600000	1	-0.073250
37.616667	1	-0.079000
37.633333	1	-0.084125
37.650000	1	-0.089625
37.666667	1	-0.094625
37.683333	1	-0.099375
37.700000	1	-0.104375
37.716667	1	-0.109500
37.733333	1	-0.113875
37.750000	1	-0.118875
37.766667	1	-0.123250
37.783333	1	-0.127875
37.800000	1	-0.132250
37.816667	1	-0.136500
37.833333	1	-0.140250
37.850000	1	-0.143750
37.866667	1	-0.147250
37.883333	1	-0.151250
37.900000	1	-0.155000
37.916667	1	-0.157750
37.933333	1	-0.160875
37.950000	1	-0.164125
37.966667	1	-0.166750
37.983333	1	-0.169375
38.000000	1	-0.172875
38.016667	1	-0.175625
38.033333	1	-0.177750
38.050000	1	-0.179250
38.066667	1	-0.181125
38.083333	1	-0.183250
38.100000	1	-0.185250
38.116667	1	-0.187375
38.133333	1	-0.189125
38.150000	1	-0.191000
38.166667	1	-0.192250
38.183333	1	-0.193750
38.200000	1	-0.194625
38.216667	1	-0.196375
38.233333	1	-0.197000
38.250000	1	-0.198125
38.266667	1	-0.200000
38.283333	1	-0.201500
38.300000	1	-0.202625
38.316667	1	-0.202875
38.333333	1	-0.203500
38.350000	1	-0.205000
38.366667	1	-0.205500
38.383333	1	-0.206125
38.400000	1	-0.206750
38.416667	1	-0.208125
38.433333	1	-0.208875
38.450000	1	-0.209375
38.466667	1	-0.210000
38.483333	1	-0.210375
38.500000	1	-0.211250
38.516667	1	-0.211125
38.533333	1	-0.211625
38.550000	1	-0.211625
38.566667	1	-0.211250
38.583333	1	-0.210875
38.600000	1	-0.211250
38.616667	1	-0.211375
38.633333	1	-0.212000
38.650000	1	-0.212250
38.666667	1	-0.212250
38.683333	1	-0.211500
38.700000	1	-0.210750
38.716667	1	-0.210875
38.733333	1	-0.210875
38.750000	1	-0.210500
38.766667	1	-0.210250
38.783333	1	-0.210250
38.800000	1	-0.209500
38.816667	1	-0.209750
38.833333	1	-0.209000
38.850000	1	-0.208375
38.866667	1	-0.207625
38.883333	1	-0.207750
38.900000	1	-0.207375
38.916667	1	-0.206625
38.933333	1	-0.205875
38.950000	1	-0.205500
38.966667	1	-0.204750
38.983333	1	-0.204250
39.000000	1	-0.203875
39.016667	1	-0.203375
39.033333	1	-0.202875
39.050000	1	-0.202875
39.066667	1	-0.202125
39.083333	1	-0.201000
39.100000	1	-0.200750
39.116667	1	-0.200250
39.133333	1	-0.199875
39.150000	1	-0.199000
39.166667	1	-0.198500
39.183333	1	-0.197000
39.200000	1	-0.197000
39.216667	1	-0.196500
39.233333	1	-0.195625
39.250000	1	-0.194125
39.266667	1	-0.193125
39.283333	1	-0.192125
39.300000	1	-0.191125
39.316667	1	-0.190250
39.333333	1	-0.190000
39.350000	1	-0.188375
39.366667	1	-0.187125
39.383333	1	-0.185875
39.400000	1	-0.184125
39.416667	1	-0.183375
39.433333	1	-0.182875
39.450000	1	-0.182000
39.466667	1	-0.180250
39.483333	1	-0.178500
39.500000	1	-0.177625
39.516667	1	-0.176375
39.533333	1	-0.174625
39.550000	1	-0.173375
39.566667	1	-0.172375
39.583333	1	-0.170625
39.600000	1	-0.169125
39.616667	1	-0.167875
39.633333	1	-0.166125
39.650000	1	-0.164500
39.666667	1	-0.163000
39.683333	1	-0.161625
39.700000	1	-0.160625
39.716667	1	-0.159875
39.733333	1	-0.158250
39.750000	1	-0.156875
39.766667	1	-0.156125
39.783333	1	-0.155250
39.800000	1	-0.153750
39.816667	1	-0.153000
39.833333	1	-0.152250
39.850000	1	-0.151750
39.866667	1	-0.150250
39.883333	1	-0.148750
39.900000	1	-0.148000
39.916667	1	-0.147250
39.933333	1	-0.146500
39.950000	1	-0.145125
39.966667	1	-0.144000
39.983333	1	-0.142875
40.000000	1	-0.141250
