File Path	chrom://marshall/Chromeleon7/HPLC_Ultimate_3000/Users/markusar/20230531_CMO_stabTest _FP08_FP09.seq/386.smp/RI_1.channel/RI_1.chm
Channel	RI_1

Injection Information:
Data Vault	Chromeleon7
Injection	FP09__8_s4
Injection Number	80
Position	BE7
Comment	
Processing Method	
Instrument Method	run_25B_method
Type	Unknown
Status	Finished
Injection Date	03.06.2023
Injection Time	20:37:16
Injection Volume (µl)	20.000
Dilution Factor	1.0000
Weight	1.0000

Chromatogram Data Information:
Time Min. (min)	0.000000
Time Max. (min)	40.000000
Data Points	2401
Detector	RI
Generating Data System	Chromeleon 7.2.5.9507
Exporting Data System	Chromeleon 7.2.5.0
Operator	Instrument Controller
Signal Quantity	Refractive 
Signal Unit	µRIU
Signal Min.	-0.740375
Signal Max.	51.204125
Channel	RI_1
Driver Name	RID520Driver.dll
Channel Type	Evaluation
Min. Step (s)	1
Max. Step (s)	1
Average Step (s)	1

Signal Parameter Information:
Signal Info	

Chromatogram Data:
Time (min)	Step (s)	Value (µRIU)
0.000000	n.a.	-0.027375
0.016667	1	-0.028000
0.033333	1	-0.028250
0.050000	1	-0.028750
0.066667	1	-0.029250
0.083333	1	-0.029250
0.100000	1	-0.030000
0.116667	1	-0.030500
0.133333	1	-0.030000
0.150000	1	-0.031125
0.166667	1	-0.031625
0.183333	1	-0.032375
0.200000	1	-0.032625
0.216667	1	-0.033500
0.233333	1	-0.033750
0.250000	1	-0.033750
0.266667	1	-0.034500
0.283333	1	-0.035500
0.300000	1	-0.038000
0.316667	1	-0.042125
0.333333	1	-0.045750
0.350000	1	-0.047250
0.366667	1	-0.044625
0.383333	1	-0.040750
0.400000	1	-0.037500
0.416667	1	-0.034500
0.433333	1	-0.032375
0.450000	1	-0.030750
0.466667	1	-0.029500
0.483333	1	-0.029250
0.500000	1	-0.030375
0.516667	1	-0.032375
0.533333	1	-0.034750
0.550000	1	-0.037125
0.566667	1	-0.039125
0.583333	1	-0.041000
0.600000	1	-0.042625
0.616667	1	-0.043875
0.633333	1	-0.044750
0.650000	1	-0.046000
0.666667	1	-0.047125
0.683333	1	-0.047125
0.700000	1	-0.047000
0.716667	1	-0.047625
0.733333	1	-0.048375
0.750000	1	-0.048750
0.766667	1	-0.048625
0.783333	1	-0.048875
0.800000	1	-0.048875
0.816667	1	-0.048625
0.833333	1	-0.048125
0.850000	1	-0.048625
0.866667	1	-0.048125
0.883333	1	-0.048000
0.900000	1	-0.047875
0.916667	1	-0.047625
0.933333	1	-0.047750
0.950000	1	-0.047000
0.966667	1	-0.046750
0.983333	1	-0.047000
1.000000	1	-0.046125
1.016667	1	-0.046500
1.033333	1	-0.045750
1.050000	1	-0.045750
1.066667	1	-0.045375
1.083333	1	-0.045250
1.100000	1	-0.043500
1.116667	1	-0.042875
1.133333	1	-0.043000
1.150000	1	-0.043000
1.166667	1	-0.043000
1.183333	1	-0.043250
1.200000	1	-0.044000
1.216667	1	-0.044125
1.233333	1	-0.044250
1.250000	1	-0.044625
1.266667	1	-0.044875
1.283333	1	-0.044375
1.300000	1	-0.044250
1.316667	1	-0.044000
1.333333	1	-0.044250
1.350000	1	-0.044625
1.366667	1	-0.044625
1.383333	1	-0.044500
1.400000	1	-0.044250
1.416667	1	-0.044875
1.433333	1	-0.045625
1.450000	1	-0.045500
1.466667	1	-0.045750
1.483333	1	-0.046000
1.500000	1	-0.045750
1.516667	1	-0.046250
1.533333	1	-0.046125
1.550000	1	-0.046875
1.566667	1	-0.047875
1.583333	1	-0.047750
1.600000	1	-0.048125
1.616667	1	-0.048875
1.633333	1	-0.049250
1.650000	1	-0.049500
1.666667	1	-0.050750
1.683333	1	-0.051375
1.700000	1	-0.051250
1.716667	1	-0.051875
1.733333	1	-0.051875
1.750000	1	-0.052250
1.766667	1	-0.052875
1.783333	1	-0.053250
1.800000	1	-0.054375
1.816667	1	-0.054875
1.833333	1	-0.056125
1.850000	1	-0.056500
1.866667	1	-0.056875
1.883333	1	-0.057250
1.900000	1	-0.058125
1.916667	1	-0.058625
1.933333	1	-0.059375
1.950000	1	-0.059500
1.966667	1	-0.060125
1.983333	1	-0.060875
2.000000	1	-0.061875
2.016667	1	-0.062125
2.033333	1	-0.062375
2.050000	1	-0.062250
2.066667	1	-0.062625
2.083333	1	-0.063000
2.100000	1	-0.063500
2.116667	1	-0.064000
2.133333	1	-0.064500
2.150000	1	-0.064500
2.166667	1	-0.065000
2.183333	1	-0.065250
2.200000	1	-0.065000
2.216667	1	-0.064125
2.233333	1	-0.064250
2.250000	1	-0.063750
2.266667	1	-0.063250
2.283333	1	-0.062625
2.300000	1	-0.062125
2.316667	1	-0.061875
2.333333	1	-0.061500
2.350000	1	-0.060750
2.366667	1	-0.060000
2.383333	1	-0.059750
2.400000	1	-0.059000
2.416667	1	-0.057750
2.433333	1	-0.056500
2.450000	1	-0.055750
2.466667	1	-0.054250
2.483333	1	-0.053000
2.500000	1	-0.051750
2.516667	1	-0.050250
2.533333	1	-0.049375
2.550000	1	-0.048750
2.566667	1	-0.047875
2.583333	1	-0.046750
2.600000	1	-0.045625
2.616667	1	-0.045000
2.633333	1	-0.044250
2.650000	1	-0.042750
2.666667	1	-0.041750
2.683333	1	-0.041000
2.700000	1	-0.040250
2.716667	1	-0.039250
2.733333	1	-0.038000
2.750000	1	-0.037000
2.766667	1	-0.036875
2.783333	1	-0.035750
2.800000	1	-0.034875
2.816667	1	-0.034625
2.833333	1	-0.035000
2.850000	1	-0.034750
2.866667	1	-0.034125
2.883333	1	-0.034000
2.900000	1	-0.033750
2.916667	1	-0.033000
2.933333	1	-0.032875
2.950000	1	-0.032375
2.966667	1	-0.032000
2.983333	1	-0.032000
3.000000	1	-0.031375
3.016667	1	-0.031625
3.033333	1	-0.031375
3.050000	1	-0.031500
3.066667	1	-0.031625
3.083333	1	-0.032125
3.100000	1	-0.032500
3.116667	1	-0.033250
3.133333	1	-0.033500
3.150000	1	-0.034125
3.166667	1	-0.034750
3.183333	1	-0.034625
3.200000	1	-0.034750
3.216667	1	-0.035750
3.233333	1	-0.036000
3.250000	1	-0.036375
3.266667	1	-0.037000
3.283333	1	-0.037500
3.300000	1	-0.038500
3.316667	1	-0.039000
3.333333	1	-0.040250
3.350000	1	-0.040750
3.366667	1	-0.041500
3.383333	1	-0.041500
3.400000	1	-0.042250
3.416667	1	-0.043000
3.433333	1	-0.043500
3.450000	1	-0.044000
3.466667	1	-0.044500
3.483333	1	-0.044500
3.500000	1	-0.045500
3.516667	1	-0.046250
3.533333	1	-0.046625
3.550000	1	-0.047125
3.566667	1	-0.047125
3.583333	1	-0.047750
3.600000	1	-0.048375
3.616667	1	-0.048250
3.633333	1	-0.048000
3.650000	1	-0.047875
3.666667	1	-0.047625
3.683333	1	-0.048375
3.700000	1	-0.048500
3.716667	1	-0.049250
3.733333	1	-0.049500
3.750000	1	-0.049250
3.766667	1	-0.049375
3.783333	1	-0.050000
3.800000	1	-0.050500
3.816667	1	-0.050750
3.833333	1	-0.050250
3.850000	1	-0.050125
3.866667	1	-0.049875
3.883333	1	-0.049750
3.900000	1	-0.049875
3.916667	1	-0.050375
3.933333	1	-0.049625
3.950000	1	-0.049500
3.966667	1	-0.049250
3.983333	1	-0.048500
4.000000	1	-0.048500
4.016667	1	-0.048250
4.033333	1	-0.047750
4.050000	1	-0.047500
4.066667	1	-0.046875
4.083333	1	-0.046500
4.100000	1	-0.047250
4.116667	1	-0.047125
4.133333	1	-0.047125
4.150000	1	-0.047250
4.166667	1	-0.046375
4.183333	1	-0.046125
4.200000	1	-0.045125
4.216667	1	-0.045250
4.233333	1	-0.044875
4.250000	1	-0.045250
4.266667	1	-0.045375
4.283333	1	-0.045125
4.300000	1	-0.044625
4.316667	1	-0.044875
4.333333	1	-0.044375
4.350000	1	-0.044375
4.366667	1	-0.044375
4.383333	1	-0.044375
4.400000	1	-0.043500
4.416667	1	-0.043500
4.433333	1	-0.042750
4.450000	1	-0.041875
4.466667	1	-0.041000
4.483333	1	-0.040375
4.500000	1	-0.039625
4.516667	1	-0.038500
4.533333	1	-0.037250
4.550000	1	-0.035750
4.566667	1	-0.034875
4.583333	1	-0.033875
4.600000	1	-0.033125
4.616667	1	-0.031750
4.633333	1	-0.030375
4.650000	1	-0.028375
4.666667	1	-0.026375
4.683333	1	-0.025000
4.700000	1	-0.023750
4.716667	1	-0.022000
4.733333	1	-0.020625
4.750000	1	-0.018250
4.766667	1	-0.015875
4.783333	1	-0.013750
4.800000	1	-0.011875
4.816667	1	-0.009125
4.833333	1	-0.006500
4.850000	1	-0.003375
4.866667	1	-0.001375
4.883333	1	0.000875
4.900000	1	0.003000
4.916667	1	0.005125
4.933333	1	0.007125
4.950000	1	0.009000
4.966667	1	0.011375
4.983333	1	0.013250
5.000000	1	0.015125
5.016667	1	0.017250
5.033333	1	0.018875
5.050000	1	0.020750
5.066667	1	0.022125
5.083333	1	0.024250
5.100000	1	0.024875
5.116667	1	0.025125
5.133333	1	0.026625
5.150000	1	0.027750
5.166667	1	0.028750
5.183333	1	0.029000
5.200000	1	0.029125
5.216667	1	0.029875
5.233333	1	0.030000
5.250000	1	0.029875
5.266667	1	0.029875
5.283333	1	0.028500
5.300000	1	0.028125
5.316667	1	0.027125
5.333333	1	0.026625
5.350000	1	0.026125
5.366667	1	0.025000
5.383333	1	0.024125
5.400000	1	0.023000
5.416667	1	0.021500
5.433333	1	0.020000
5.450000	1	0.018625
5.466667	1	0.017250
5.483333	1	0.015750
5.500000	1	0.014250
5.516667	1	0.012625
5.533333	1	0.011750
5.550000	1	0.010500
5.566667	1	0.009000
5.583333	1	0.008000
5.600000	1	0.006250
5.616667	1	0.005250
5.633333	1	0.004000
5.650000	1	0.002625
5.666667	1	0.001375
5.683333	1	0.000500
5.700000	1	-0.000250
5.716667	1	-0.001000
5.733333	1	-0.001750
5.750000	1	-0.002625
5.766667	1	-0.002875
5.783333	1	-0.003375
5.800000	1	-0.003875
5.816667	1	-0.004500
5.833333	1	-0.004500
5.850000	1	-0.004500
5.866667	1	-0.004500
5.883333	1	-0.004250
5.900000	1	-0.003875
5.916667	1	-0.003750
5.933333	1	-0.003625
5.950000	1	-0.003375
5.966667	1	-0.002750
5.983333	1	-0.002375
6.000000	1	-0.000500
6.016667	1	0.000250
6.033333	1	0.001125
6.050000	1	0.002500
6.066667	1	0.003875
6.083333	1	0.004625
6.100000	1	0.006125
6.116667	1	0.007750
6.133333	1	0.008500
6.150000	1	0.010375
6.166667	1	0.012625
6.183333	1	0.014625
6.200000	1	0.016875
6.216667	1	0.019000
6.233333	1	0.020625
6.250000	1	0.022500
6.266667	1	0.024125
6.283333	1	0.026375
6.300000	1	0.028750
6.316667	1	0.030625
6.333333	1	0.032625
6.350000	1	0.034750
6.366667	1	0.037000
6.383333	1	0.040125
6.400000	1	0.042250
6.416667	1	0.044500
6.433333	1	0.046500
6.450000	1	0.048250
6.466667	1	0.050375
6.483333	1	0.052125
6.500000	1	0.053875
6.516667	1	0.055625
6.533333	1	0.057125
6.550000	1	0.058500
6.566667	1	0.060375
6.583333	1	0.061500
6.600000	1	0.062750
6.616667	1	0.063750
6.633333	1	0.064500
6.650000	1	0.064750
6.666667	1	0.064750
6.683333	1	0.065375
6.700000	1	0.065000
6.716667	1	0.064750
6.733333	1	0.064000
6.750000	1	0.063750
6.766667	1	0.063375
6.783333	1	0.062500
6.800000	1	0.061500
6.816667	1	0.060750
6.833333	1	0.058500
6.850000	1	0.056500
6.866667	1	0.054250
6.883333	1	0.052750
6.900000	1	0.050250
6.916667	1	0.047875
6.933333	1	0.045000
6.950000	1	0.042625
6.966667	1	0.040250
6.983333	1	0.038000
7.000000	1	0.036250
7.016667	1	0.033750
7.033333	1	0.031000
7.050000	1	0.028000
7.066667	1	0.025000
7.083333	1	0.022125
7.100000	1	0.019125
7.116667	1	0.016375
7.133333	1	0.013750
7.150000	1	0.010875
7.166667	1	0.008250
7.183333	1	0.005750
7.200000	1	0.003500
7.216667	1	0.001625
7.233333	1	-0.000500
7.250000	1	-0.003375
7.266667	1	-0.005500
7.283333	1	-0.007875
7.300000	1	-0.009500
7.316667	1	-0.011625
7.333333	1	-0.013500
7.350000	1	-0.015750
7.366667	1	-0.017750
7.383333	1	-0.019500
7.400000	1	-0.021000
7.416667	1	-0.022750
7.433333	1	-0.025125
7.450000	1	-0.026125
7.466667	1	-0.028000
7.483333	1	-0.029250
7.500000	1	-0.029875
7.516667	1	-0.030375
7.533333	1	-0.031625
7.550000	1	-0.031875
7.566667	1	-0.032875
7.583333	1	-0.033375
7.600000	1	-0.033875
7.616667	1	-0.033875
7.633333	1	-0.034250
7.650000	1	-0.034500
7.666667	1	-0.034500
7.683333	1	-0.034375
7.700000	1	-0.034500
7.716667	1	-0.033875
7.733333	1	-0.032875
7.750000	1	-0.032500
7.766667	1	-0.032375
7.783333	1	-0.031750
7.800000	1	-0.030375
7.816667	1	-0.029250
7.833333	1	-0.028500
7.850000	1	-0.027750
7.866667	1	-0.026875
7.883333	1	-0.025750
7.900000	1	-0.024500
7.916667	1	-0.022875
7.933333	1	-0.021000
7.950000	1	-0.019125
7.966667	1	-0.017625
7.983333	1	-0.016250
8.000000	1	-0.014375
8.016667	1	-0.012875
8.033333	1	-0.011125
8.050000	1	-0.009500
8.066667	1	-0.007375
8.083333	1	-0.006250
8.100000	1	-0.004375
8.116667	1	-0.002000
8.133333	1	-0.000625
8.150000	1	0.001000
8.166667	1	0.002375
8.183333	1	0.004000
8.200000	1	0.005875
8.216667	1	0.007500
8.233333	1	0.008875
8.250000	1	0.010500
8.266667	1	0.011750
8.283333	1	0.013500
8.300000	1	0.014625
8.316667	1	0.016000
8.333333	1	0.017625
8.350000	1	0.019125
8.366667	1	0.020125
8.383333	1	0.020875
8.400000	1	0.021625
8.416667	1	0.022125
8.433333	1	0.023000
8.450000	1	0.024375
8.466667	1	0.025125
8.483333	1	0.025375
8.500000	1	0.026125
8.516667	1	0.026625
8.533333	1	0.027125
8.550000	1	0.027375
8.566667	1	0.028250
8.583333	1	0.028625
8.600000	1	0.028375
8.616667	1	0.028375
8.633333	1	0.028875
8.650000	1	0.028000
8.666667	1	0.028125
8.683333	1	0.027750
8.700000	1	0.027750
8.716667	1	0.027250
8.733333	1	0.026500
8.750000	1	0.025875
8.766667	1	0.025375
8.783333	1	0.024875
8.800000	1	0.024375
8.816667	1	0.023875
8.833333	1	0.023375
8.850000	1	0.022875
8.866667	1	0.021625
8.883333	1	0.020750
8.900000	1	0.020625
8.916667	1	0.019500
8.933333	1	0.019375
8.950000	1	0.018625
8.966667	1	0.018500
8.983333	1	0.017875
9.000000	1	0.017125
9.016667	1	0.016875
9.033333	1	0.016125
9.050000	1	0.015750
9.066667	1	0.015750
9.083333	1	0.015500
9.100000	1	0.014750
9.116667	1	0.014500
9.133333	1	0.014375
9.150000	1	0.014625
9.166667	1	0.014875
9.183333	1	0.015125
9.200000	1	0.015000
9.216667	1	0.014875
9.233333	1	0.014500
9.250000	1	0.015000
9.266667	1	0.015375
9.283333	1	0.015625
9.300000	1	0.016500
9.316667	1	0.017625
9.333333	1	0.018500
9.350000	1	0.018250
9.366667	1	0.018875
9.383333	1	0.019125
9.400000	1	0.020375
9.416667	1	0.021375
9.433333	1	0.022625
9.450000	1	0.024125
9.466667	1	0.025625
9.483333	1	0.027625
9.500000	1	0.030125
9.516667	1	0.033875
9.533333	1	0.037500
9.550000	1	0.041875
9.566667	1	0.047375
9.583333	1	0.054250
9.600000	1	0.062000
9.616667	1	0.070875
9.633333	1	0.081750
9.650000	1	0.094250
9.666667	1	0.107750
9.683333	1	0.124000
9.700000	1	0.141750
9.716667	1	0.161500
9.733333	1	0.183125
9.750000	1	0.205500
9.766667	1	0.228250
9.783333	1	0.249250
9.800000	1	0.267750
9.816667	1	0.282500
9.833333	1	0.293000
9.850000	1	0.296625
9.866667	1	0.291875
9.883333	1	0.276000
9.900000	1	0.245625
9.916667	1	0.204875
9.933333	1	0.170750
9.950000	1	0.174250
9.966667	1	0.263375
9.983333	1	0.498000
10.000000	1	0.944625
10.016667	1	1.662375
10.033333	1	2.701875
10.050000	1	4.096875
10.066667	1	5.867000
10.083333	1	8.020250
10.100000	1	10.548125
10.116667	1	13.429000
10.133333	1	16.624500
10.150000	1	20.076500
10.166667	1	23.707125
10.183333	1	27.411750
10.200000	1	31.058750
10.216667	1	34.491875
10.233333	1	37.531625
10.250000	1	39.992750
10.266667	1	41.713625
10.283333	1	42.576750
10.300000	1	42.533250
10.316667	1	41.614250
10.333333	1	39.925375
10.350000	1	37.627875
10.366667	1	34.910875
10.383333	1	31.963375
10.400000	1	28.956875
10.416667	1	26.023375
10.433333	1	23.257250
10.450000	1	20.717375
10.466667	1	18.428750
10.483333	1	16.392500
10.500000	1	14.596375
10.516667	1	13.019750
10.533333	1	11.639750
10.550000	1	10.431625
10.566667	1	9.372125
10.583333	1	8.440375
10.600000	1	7.618875
10.616667	1	6.892875
10.633333	1	6.251250
10.650000	1	5.684875
10.666667	1	5.184250
10.683333	1	4.742875
10.700000	1	4.353750
10.716667	1	4.010625
10.733333	1	3.707250
10.750000	1	3.439000
10.766667	1	3.201500
10.783333	1	2.990125
10.800000	1	2.801625
10.816667	1	2.632000
10.833333	1	2.478875
10.850000	1	2.341375
10.866667	1	2.215750
10.883333	1	2.102500
10.900000	1	1.999000
10.916667	1	1.904000
10.933333	1	1.817625
10.950000	1	1.739125
10.966667	1	1.666250
10.983333	1	1.599875
11.000000	1	1.539125
11.016667	1	1.483625
11.033333	1	1.433250
11.050000	1	1.387000
11.066667	1	1.344250
11.083333	1	1.305625
11.100000	1	1.271000
11.116667	1	1.239000
11.133333	1	1.209125
11.150000	1	1.182250
11.166667	1	1.156875
11.183333	1	1.134000
11.200000	1	1.112750
11.216667	1	1.093500
11.233333	1	1.075500
11.250000	1	1.059250
11.266667	1	1.044125
11.283333	1	1.030125
11.300000	1	1.017000
11.316667	1	1.004250
11.333333	1	0.992125
11.350000	1	0.980625
11.366667	1	0.969125
11.383333	1	0.959125
11.400000	1	0.949250
11.416667	1	0.939500
11.433333	1	0.930875
11.450000	1	0.922375
11.466667	1	0.915250
11.483333	1	0.909375
11.500000	1	0.904625
11.516667	1	0.901000
11.533333	1	0.898250
11.550000	1	0.896000
11.566667	1	0.894750
11.583333	1	0.894000
11.600000	1	0.893625
11.616667	1	0.893750
11.633333	1	0.893625
11.650000	1	0.894125
11.666667	1	0.895250
11.683333	1	0.895750
11.700000	1	0.896750
11.716667	1	0.898000
11.733333	1	0.897875
11.750000	1	0.897875
11.766667	1	0.897750
11.783333	1	0.897500
11.800000	1	0.896625
11.816667	1	0.896875
11.833333	1	0.896875
11.850000	1	0.898000
11.866667	1	0.900125
11.883333	1	0.903000
11.900000	1	0.907250
11.916667	1	0.911750
11.933333	1	0.918625
11.950000	1	0.926875
11.966667	1	0.938250
11.983333	1	0.952000
12.000000	1	0.967750
12.016667	1	0.985500
12.033333	1	1.005750
12.050000	1	1.029750
12.066667	1	1.058000
12.083333	1	1.091625
12.100000	1	1.130875
12.116667	1	1.178125
12.133333	1	1.236000
12.150000	1	1.305875
12.166667	1	1.390250
12.183333	1	1.492000
12.200000	1	1.613500
12.216667	1	1.756375
12.233333	1	1.922500
12.250000	1	2.113500
12.266667	1	2.331000
12.283333	1	2.575875
12.300000	1	2.849750
12.316667	1	3.153000
12.333333	1	3.489625
12.350000	1	3.861125
12.366667	1	4.269875
12.383333	1	4.717000
12.400000	1	5.205500
12.416667	1	5.734000
12.433333	1	6.299500
12.450000	1	6.895875
12.466667	1	7.513375
12.483333	1	8.136250
12.500000	1	8.747375
12.516667	1	9.324375
12.533333	1	9.843875
12.550000	1	10.284750
12.566667	1	10.634625
12.583333	1	10.886250
12.600000	1	11.041125
12.616667	1	11.107500
12.633333	1	11.096000
12.650000	1	11.019250
12.666667	1	10.889750
12.683333	1	10.719000
12.700000	1	10.517250
12.716667	1	10.292875
12.733333	1	10.054625
12.750000	1	9.807875
12.766667	1	9.558125
12.783333	1	9.309125
12.800000	1	9.063625
12.816667	1	8.824125
12.833333	1	8.591750
12.850000	1	8.367750
12.866667	1	8.151625
12.883333	1	7.942375
12.900000	1	7.739250
12.916667	1	7.542250
12.933333	1	7.348000
12.950000	1	7.156250
12.966667	1	6.966625
12.983333	1	6.776750
13.000000	1	6.585500
13.016667	1	6.392500
13.033333	1	6.195500
13.050000	1	5.993750
13.066667	1	5.782875
13.083333	1	5.561875
13.100000	1	5.329375
13.116667	1	5.082625
13.133333	1	4.818875
13.150000	1	4.535875
13.166667	1	4.231125
13.183333	1	3.903875
13.200000	1	3.554875
13.216667	1	3.191250
13.233333	1	2.825000
13.250000	1	2.475000
13.266667	1	2.160000
13.283333	1	1.891625
13.300000	1	1.672250
13.316667	1	1.497250
13.333333	1	1.359000
13.350000	1	1.247625
13.366667	1	1.158500
13.383333	1	1.085000
13.400000	1	1.024125
13.416667	1	0.973000
13.433333	1	0.929000
13.450000	1	0.891500
13.466667	1	0.858500
13.483333	1	0.830250
13.500000	1	0.805125
13.516667	1	0.783500
13.533333	1	0.765125
13.550000	1	0.750375
13.566667	1	0.737500
13.583333	1	0.728000
13.600000	1	0.720375
13.616667	1	0.714750
13.633333	1	0.711000
13.650000	1	0.708875
13.666667	1	0.707500
13.683333	1	0.706000
13.700000	1	0.705000
13.716667	1	0.703125
13.733333	1	0.700500
13.750000	1	0.696250
13.766667	1	0.691625
13.783333	1	0.685875
13.800000	1	0.678750
13.816667	1	0.670250
13.833333	1	0.660625
13.850000	1	0.650250
13.866667	1	0.639500
13.883333	1	0.628375
13.900000	1	0.616000
13.916667	1	0.604500
13.933333	1	0.592500
13.950000	1	0.580250
13.966667	1	0.568375
13.983333	1	0.556750
14.000000	1	0.546125
14.016667	1	0.536875
14.033333	1	0.528625
14.050000	1	0.521500
14.066667	1	0.515125
14.083333	1	0.509875
14.100000	1	0.506000
14.116667	1	0.503125
14.133333	1	0.501000
14.150000	1	0.499625
14.166667	1	0.500375
14.183333	1	0.502625
14.200000	1	0.506875
14.216667	1	0.512500
14.233333	1	0.520750
14.250000	1	0.531875
14.266667	1	0.545375
14.283333	1	0.562500
14.300000	1	0.584500
14.316667	1	0.612000
14.333333	1	0.645500
14.350000	1	0.687000
14.366667	1	0.737000
14.383333	1	0.796750
14.400000	1	0.867500
14.416667	1	0.951750
14.433333	1	1.049750
14.450000	1	1.164625
14.466667	1	1.297375
14.483333	1	1.450625
14.500000	1	1.628250
14.516667	1	1.832375
14.533333	1	2.065750
14.550000	1	2.335125
14.566667	1	2.644875
14.583333	1	3.004500
14.600000	1	3.422000
14.616667	1	3.913000
14.633333	1	4.494750
14.650000	1	5.188250
14.666667	1	6.024000
14.683333	1	7.030375
14.700000	1	8.243875
14.716667	1	9.697500
14.733333	1	11.424750
14.750000	1	13.453750
14.766667	1	15.801875
14.783333	1	18.468875
14.800000	1	21.435750
14.816667	1	24.665125
14.833333	1	28.096500
14.850000	1	31.646250
14.866667	1	35.210375
14.883333	1	38.672500
14.900000	1	41.909500
14.916667	1	44.803625
14.933333	1	47.247500
14.950000	1	49.155000
14.966667	1	50.464125
14.983333	1	51.147125
15.000000	1	51.204125
15.016667	1	50.662875
15.033333	1	49.572750
15.050000	1	48.000250
15.066667	1	46.023500
15.083333	1	43.727625
15.100000	1	41.201500
15.116667	1	38.528125
15.133333	1	35.781375
15.150000	1	33.024250
15.166667	1	30.312500
15.183333	1	27.690875
15.200000	1	25.189875
15.216667	1	22.829000
15.233333	1	20.622250
15.250000	1	18.576125
15.266667	1	16.693750
15.283333	1	14.972500
15.300000	1	13.408625
15.316667	1	11.995500
15.333333	1	10.725000
15.350000	1	9.587250
15.366667	1	8.571750
15.383333	1	7.668750
15.400000	1	6.868500
15.416667	1	6.161000
15.433333	1	5.536500
15.450000	1	4.987875
15.466667	1	4.506750
15.483333	1	4.086750
15.500000	1	3.721875
15.516667	1	3.406625
15.533333	1	3.134750
15.550000	1	2.901000
15.566667	1	2.700625
15.583333	1	2.529625
15.600000	1	2.383000
15.616667	1	2.256500
15.633333	1	2.148000
15.650000	1	2.053125
15.666667	1	1.968125
15.683333	1	1.891375
15.700000	1	1.820250
15.716667	1	1.754000
15.733333	1	1.690625
15.750000	1	1.629375
15.766667	1	1.570250
15.783333	1	1.512750
15.800000	1	1.457750
15.816667	1	1.405125
15.833333	1	1.354250
15.850000	1	1.305875
15.866667	1	1.259375
15.883333	1	1.214875
15.900000	1	1.173375
15.916667	1	1.134000
15.933333	1	1.097000
15.950000	1	1.062125
15.966667	1	1.030125
15.983333	1	1.000000
16.000000	1	0.972375
16.016667	1	0.947375
16.033333	1	0.923750
16.050000	1	0.901250
16.066667	1	0.881500
16.083333	1	0.863625
16.100000	1	0.847750
16.116667	1	0.834250
16.133333	1	0.822125
16.150000	1	0.811875
16.166667	1	0.802875
16.183333	1	0.795250
16.200000	1	0.789125
16.216667	1	0.783250
16.233333	1	0.778375
16.250000	1	0.773250
16.266667	1	0.769125
16.283333	1	0.765375
16.300000	1	0.760875
16.316667	1	0.756875
16.333333	1	0.752250
16.350000	1	0.748500
16.366667	1	0.743875
16.383333	1	0.739375
16.400000	1	0.734750
16.416667	1	0.730750
16.433333	1	0.726500
16.450000	1	0.723375
16.466667	1	0.720375
16.483333	1	0.717875
16.500000	1	0.716000
16.516667	1	0.715250
16.533333	1	0.715250
16.550000	1	0.716125
16.566667	1	0.717000
16.583333	1	0.720375
16.600000	1	0.722625
16.616667	1	0.726375
16.633333	1	0.730500
16.650000	1	0.735500
16.666667	1	0.740250
16.683333	1	0.746250
16.700000	1	0.752750
16.716667	1	0.758750
16.733333	1	0.765125
16.750000	1	0.771000
16.766667	1	0.776875
16.783333	1	0.782125
16.800000	1	0.786875
16.816667	1	0.791000
16.833333	1	0.794000
16.850000	1	0.795375
16.866667	1	0.796750
16.883333	1	0.797125
16.900000	1	0.796750
16.916667	1	0.795625
16.933333	1	0.794125
16.950000	1	0.792750
16.966667	1	0.791375
16.983333	1	0.791000
17.000000	1	0.790375
17.016667	1	0.789875
17.033333	1	0.791250
17.050000	1	0.792250
17.066667	1	0.793500
17.083333	1	0.794750
17.100000	1	0.795000
17.116667	1	0.795375
17.133333	1	0.794750
17.150000	1	0.794375
17.166667	1	0.792500
17.183333	1	0.790000
17.200000	1	0.787250
17.216667	1	0.783375
17.233333	1	0.778375
17.250000	1	0.772875
17.266667	1	0.767250
17.283333	1	0.761500
17.300000	1	0.755250
17.316667	1	0.749875
17.333333	1	0.744875
17.350000	1	0.740375
17.366667	1	0.736375
17.383333	1	0.733000
17.400000	1	0.730375
17.416667	1	0.727750
17.433333	1	0.726125
17.450000	1	0.725500
17.466667	1	0.725250
17.483333	1	0.725375
17.500000	1	0.726375
17.516667	1	0.728000
17.533333	1	0.729375
17.550000	1	0.732125
17.566667	1	0.736125
17.583333	1	0.740750
17.600000	1	0.746000
17.616667	1	0.751625
17.633333	1	0.758875
17.650000	1	0.766375
17.666667	1	0.774875
17.683333	1	0.783625
17.700000	1	0.793250
17.716667	1	0.803875
17.733333	1	0.815375
17.750000	1	0.828500
17.766667	1	0.841250
17.783333	1	0.853875
17.800000	1	0.868125
17.816667	1	0.882625
17.833333	1	0.896250
17.850000	1	0.908875
17.866667	1	0.921000
17.883333	1	0.933000
17.900000	1	0.943750
17.916667	1	0.952375
17.933333	1	0.959375
17.950000	1	0.965000
17.966667	1	0.968750
17.983333	1	0.969500
18.000000	1	0.968000
18.016667	1	0.964000
18.033333	1	0.957750
18.050000	1	0.949750
18.066667	1	0.938375
18.083333	1	0.925500
18.100000	1	0.910750
18.116667	1	0.894875
18.133333	1	0.878125
18.150000	1	0.860250
18.166667	1	0.842500
18.183333	1	0.824375
18.200000	1	0.806375
18.216667	1	0.788750
18.233333	1	0.771000
18.250000	1	0.754000
18.266667	1	0.738000
18.283333	1	0.723500
18.300000	1	0.710750
18.316667	1	0.698875
18.333333	1	0.688250
18.350000	1	0.678500
18.366667	1	0.670875
18.383333	1	0.663125
18.400000	1	0.657500
18.416667	1	0.653125
18.433333	1	0.649375
18.450000	1	0.645875
18.466667	1	0.643500
18.483333	1	0.641875
18.500000	1	0.640375
18.516667	1	0.640000
18.533333	1	0.640125
18.550000	1	0.640875
18.566667	1	0.641375
18.583333	1	0.642125
18.600000	1	0.643000
18.616667	1	0.645250
18.633333	1	0.647125
18.650000	1	0.650250
18.666667	1	0.654000
18.683333	1	0.657375
18.700000	1	0.662125
18.716667	1	0.666375
18.733333	1	0.671875
18.750000	1	0.678750
18.766667	1	0.685500
18.783333	1	0.693000
18.800000	1	0.700750
18.816667	1	0.709625
18.833333	1	0.718750
18.850000	1	0.728750
18.866667	1	0.739875
18.883333	1	0.751625
18.900000	1	0.765000
18.916667	1	0.779375
18.933333	1	0.795375
18.950000	1	0.813875
18.966667	1	0.834000
18.983333	1	0.857125
19.000000	1	0.882500
19.016667	1	0.909750
19.033333	1	0.940250
19.050000	1	0.972875
19.066667	1	1.007875
19.083333	1	1.044875
19.100000	1	1.082875
19.116667	1	1.120750
19.133333	1	1.159000
19.150000	1	1.197125
19.166667	1	1.233625
19.183333	1	1.267125
19.200000	1	1.297750
19.216667	1	1.324375
19.233333	1	1.345750
19.250000	1	1.362125
19.266667	1	1.372625
19.283333	1	1.377625
19.300000	1	1.376500
19.316667	1	1.369250
19.333333	1	1.356750
19.350000	1	1.338625
19.366667	1	1.315375
19.383333	1	1.286875
19.400000	1	1.255125
19.416667	1	1.220250
19.433333	1	1.182750
19.450000	1	1.142750
19.466667	1	1.101500
19.483333	1	1.059875
19.500000	1	1.017750
19.516667	1	0.976375
19.533333	1	0.935625
19.550000	1	0.897625
19.566667	1	0.860625
19.583333	1	0.825375
19.600000	1	0.792625
19.616667	1	0.762250
19.633333	1	0.735125
19.650000	1	0.710500
19.666667	1	0.689125
19.683333	1	0.671250
19.700000	1	0.656250
19.716667	1	0.645000
19.733333	1	0.637375
19.750000	1	0.633625
19.766667	1	0.634125
19.783333	1	0.637625
19.800000	1	0.644500
19.816667	1	0.656125
19.833333	1	0.670500
19.850000	1	0.687875
19.866667	1	0.708625
19.883333	1	0.731375
19.900000	1	0.755875
19.916667	1	0.782625
19.933333	1	0.810500
19.950000	1	0.838625
19.966667	1	0.866750
19.983333	1	0.894375
20.000000	1	0.920750
20.016667	1	0.946875
20.033333	1	0.971625
20.050000	1	0.995625
20.066667	1	1.018250
20.083333	1	1.040250
20.100000	1	1.062375
20.116667	1	1.084250
20.133333	1	1.106750
20.150000	1	1.131250
20.166667	1	1.157500
20.183333	1	1.187000
20.200000	1	1.220875
20.216667	1	1.260500
20.233333	1	1.307500
20.250000	1	1.361500
20.266667	1	1.424125
20.283333	1	1.496125
20.300000	1	1.577625
20.316667	1	1.669125
20.333333	1	1.770500
20.350000	1	1.880375
20.366667	1	1.997375
20.383333	1	2.120500
20.400000	1	2.246875
20.416667	1	2.372875
20.433333	1	2.496125
20.450000	1	2.613500
20.466667	1	2.723000
20.483333	1	2.821000
20.500000	1	2.904250
20.516667	1	2.971500
20.533333	1	3.020625
20.550000	1	3.051500
20.566667	1	3.062375
20.583333	1	3.055750
20.600000	1	3.031125
20.616667	1	2.990750
20.633333	1	2.936000
20.650000	1	2.870500
20.666667	1	2.796250
20.683333	1	2.716500
20.700000	1	2.633875
20.716667	1	2.551125
20.733333	1	2.470500
20.750000	1	2.394250
20.766667	1	2.323250
20.783333	1	2.259000
20.800000	1	2.202250
20.816667	1	2.153000
20.833333	1	2.110625
20.850000	1	2.074250
20.866667	1	2.043125
20.883333	1	2.016250
20.900000	1	1.990500
20.916667	1	1.965375
20.933333	1	1.940125
20.950000	1	1.911250
20.966667	1	1.879375
20.983333	1	1.843000
21.000000	1	1.801125
21.016667	1	1.754500
21.033333	1	1.702000
21.050000	1	1.644000
21.066667	1	1.582625
21.083333	1	1.518000
21.100000	1	1.450875
21.116667	1	1.381500
21.133333	1	1.312000
21.150000	1	1.243125
21.166667	1	1.175000
21.183333	1	1.108625
21.200000	1	1.044500
21.216667	1	0.982500
21.233333	1	0.924000
21.250000	1	0.869375
21.266667	1	0.818625
21.283333	1	0.771250
21.300000	1	0.727750
21.316667	1	0.688500
21.333333	1	0.652625
21.350000	1	0.620125
21.366667	1	0.591000
21.383333	1	0.564750
21.400000	1	0.540875
21.416667	1	0.520750
21.433333	1	0.502625
21.450000	1	0.487375
21.466667	1	0.474125
21.483333	1	0.462500
21.500000	1	0.453125
21.516667	1	0.445250
21.533333	1	0.439750
21.550000	1	0.435375
21.566667	1	0.432125
21.583333	1	0.430500
21.600000	1	0.430875
21.616667	1	0.432750
21.633333	1	0.436625
21.650000	1	0.441500
21.666667	1	0.448375
21.683333	1	0.457625
21.700000	1	0.468500
21.716667	1	0.481625
21.733333	1	0.497875
21.750000	1	0.516750
21.766667	1	0.538875
21.783333	1	0.563750
21.800000	1	0.591500
21.816667	1	0.622875
21.833333	1	0.656875
21.850000	1	0.694500
21.866667	1	0.734000
21.883333	1	0.775500
21.900000	1	0.818625
21.916667	1	0.862375
21.933333	1	0.906750
21.950000	1	0.951000
21.966667	1	0.993250
21.983333	1	1.033625
22.000000	1	1.070625
22.016667	1	1.103125
22.033333	1	1.131125
22.050000	1	1.155125
22.066667	1	1.172625
22.083333	1	1.183625
22.100000	1	1.188625
22.116667	1	1.187375
22.133333	1	1.179875
22.150000	1	1.166750
22.166667	1	1.148000
22.183333	1	1.125250
22.200000	1	1.097375
22.216667	1	1.066250
22.233333	1	1.032625
22.250000	1	0.997000
22.266667	1	0.960000
22.283333	1	0.922375
22.300000	1	0.884875
22.316667	1	0.848125
22.333333	1	0.812375
22.350000	1	0.778000
22.366667	1	0.745000
22.383333	1	0.714125
22.400000	1	0.685625
22.416667	1	0.659375
22.433333	1	0.635125
22.450000	1	0.613500
22.466667	1	0.593875
22.483333	1	0.576250
22.500000	1	0.561000
22.516667	1	0.547750
22.533333	1	0.535875
22.550000	1	0.526125
22.566667	1	0.517375
22.583333	1	0.510000
22.600000	1	0.503000
22.616667	1	0.497625
22.633333	1	0.493000
22.650000	1	0.489625
22.666667	1	0.485750
22.683333	1	0.482375
22.700000	1	0.479875
22.716667	1	0.477500
22.733333	1	0.475375
22.750000	1	0.472375
22.766667	1	0.469875
22.783333	1	0.466750
22.800000	1	0.462875
22.816667	1	0.459250
22.833333	1	0.454625
22.850000	1	0.449875
22.866667	1	0.445375
22.883333	1	0.440500
22.900000	1	0.435375
22.916667	1	0.429875
22.933333	1	0.424875
22.950000	1	0.419750
22.966667	1	0.413500
22.983333	1	0.407875
23.000000	1	0.402875
23.016667	1	0.398250
23.033333	1	0.394000
23.050000	1	0.390500
23.066667	1	0.387500
23.083333	1	0.384500
23.100000	1	0.383000
23.116667	1	0.382375
23.133333	1	0.383000
23.150000	1	0.383750
23.166667	1	0.386000
23.183333	1	0.389125
23.200000	1	0.393750
23.216667	1	0.399875
23.233333	1	0.407000
23.250000	1	0.415875
23.266667	1	0.426500
23.283333	1	0.438500
23.300000	1	0.451625
23.316667	1	0.467750
23.333333	1	0.484375
23.350000	1	0.503625
23.366667	1	0.524750
23.383333	1	0.549000
23.400000	1	0.576125
23.416667	1	0.605500
23.433333	1	0.639000
23.450000	1	0.676125
23.466667	1	0.718000
23.483333	1	0.765125
23.500000	1	0.818500
23.516667	1	0.878000
23.533333	1	0.944875
23.550000	1	1.020875
23.566667	1	1.106500
23.583333	1	1.202125
23.600000	1	1.309625
23.616667	1	1.430125
23.633333	1	1.564000
23.650000	1	1.711000
23.666667	1	1.871500
23.683333	1	2.045125
23.700000	1	2.231500
23.716667	1	2.429875
23.733333	1	2.639000
23.750000	1	2.855500
23.766667	1	3.077375
23.783333	1	3.301500
23.800000	1	3.523625
23.816667	1	3.740250
23.833333	1	3.947625
23.850000	1	4.142375
23.866667	1	4.318500
23.883333	1	4.473625
23.900000	1	4.604875
23.916667	1	4.710000
23.933333	1	4.786500
23.950000	1	4.833375
23.966667	1	4.849875
23.983333	1	4.835250
24.000000	1	4.791000
24.016667	1	4.720000
24.033333	1	4.622625
24.050000	1	4.502500
24.066667	1	4.362625
24.083333	1	4.205625
24.100000	1	4.035250
24.116667	1	3.853875
24.133333	1	3.664500
24.150000	1	3.471000
24.166667	1	3.276125
24.183333	1	3.082000
24.200000	1	2.891250
24.216667	1	2.705750
24.233333	1	2.527875
24.250000	1	2.358875
24.266667	1	2.197750
24.283333	1	2.046875
24.300000	1	1.905500
24.316667	1	1.774125
24.333333	1	1.652500
24.350000	1	1.540875
24.366667	1	1.438875
24.383333	1	1.345500
24.400000	1	1.260875
24.416667	1	1.183500
24.433333	1	1.113125
24.450000	1	1.049625
24.466667	1	0.992000
24.483333	1	0.939500
24.500000	1	0.891125
24.516667	1	0.847125
24.533333	1	0.806125
24.550000	1	0.768625
24.566667	1	0.733000
24.583333	1	0.699750
24.600000	1	0.668250
24.616667	1	0.638625
24.633333	1	0.610125
24.650000	1	0.582875
24.666667	1	0.556750
24.683333	1	0.532375
24.700000	1	0.508500
24.716667	1	0.485000
24.733333	1	0.463500
24.750000	1	0.442250
24.766667	1	0.422250
24.783333	1	0.402375
24.800000	1	0.383375
24.816667	1	0.366250
24.833333	1	0.349375
24.850000	1	0.333250
24.866667	1	0.318750
24.883333	1	0.305000
24.900000	1	0.292500
24.916667	1	0.281375
24.933333	1	0.270500
24.950000	1	0.260500
24.966667	1	0.251625
24.983333	1	0.243750
25.000000	1	0.237375
25.016667	1	0.231500
25.033333	1	0.225875
25.050000	1	0.221750
25.066667	1	0.217875
25.083333	1	0.214750
25.100000	1	0.213500
25.116667	1	0.211500
25.133333	1	0.210500
25.150000	1	0.210250
25.166667	1	0.210500
25.183333	1	0.211125
25.200000	1	0.212500
25.216667	1	0.213750
25.233333	1	0.215250
25.250000	1	0.217625
25.266667	1	0.220500
25.283333	1	0.222875
25.300000	1	0.225500
25.316667	1	0.228250
25.333333	1	0.230625
25.350000	1	0.233625
25.366667	1	0.235625
25.383333	1	0.237750
25.400000	1	0.240125
25.416667	1	0.243000
25.433333	1	0.244875
25.450000	1	0.246875
25.466667	1	0.248625
25.483333	1	0.249625
25.500000	1	0.250500
25.516667	1	0.251375
25.533333	1	0.251250
25.550000	1	0.251000
25.566667	1	0.249750
25.583333	1	0.248625
25.600000	1	0.247750
25.616667	1	0.246500
25.633333	1	0.244875
25.650000	1	0.242875
25.666667	1	0.241125
25.683333	1	0.238000
25.700000	1	0.235375
25.716667	1	0.233000
25.733333	1	0.229375
25.750000	1	0.225625
25.766667	1	0.222250
25.783333	1	0.218625
25.800000	1	0.214000
25.816667	1	0.209125
25.833333	1	0.204500
25.850000	1	0.199750
25.866667	1	0.194625
25.883333	1	0.188875
25.900000	1	0.182750
25.916667	1	0.176375
25.933333	1	0.170500
25.950000	1	0.163875
25.966667	1	0.157250
25.983333	1	0.150375
26.000000	1	0.143250
26.016667	1	0.136125
26.033333	1	0.128875
26.050000	1	0.123500
26.066667	1	0.116500
26.083333	1	0.109875
26.100000	1	0.103750
26.116667	1	0.097875
26.133333	1	0.092000
26.150000	1	0.086875
26.166667	1	0.082500
26.183333	1	0.078875
26.200000	1	0.075250
26.216667	1	0.072375
26.233333	1	0.070750
26.250000	1	0.070375
26.266667	1	0.069250
26.283333	1	0.069000
26.300000	1	0.069500
26.316667	1	0.070000
26.333333	1	0.071750
26.350000	1	0.073000
26.366667	1	0.075125
26.383333	1	0.077500
26.400000	1	0.079625
26.416667	1	0.082250
26.433333	1	0.084625
26.450000	1	0.087250
26.466667	1	0.089375
26.483333	1	0.092125
26.500000	1	0.094750
26.516667	1	0.096750
26.533333	1	0.099000
26.550000	1	0.101125
26.566667	1	0.103375
26.583333	1	0.105250
26.600000	1	0.106125
26.616667	1	0.108000
26.633333	1	0.109875
26.650000	1	0.111500
26.666667	1	0.112750
26.683333	1	0.114250
26.700000	1	0.116250
26.716667	1	0.117625
26.733333	1	0.118875
26.750000	1	0.121125
26.766667	1	0.123250
26.783333	1	0.126125
26.800000	1	0.128375
26.816667	1	0.131000
26.833333	1	0.134125
26.850000	1	0.137625
26.866667	1	0.140750
26.883333	1	0.145125
26.900000	1	0.149125
26.916667	1	0.153375
26.933333	1	0.158500
26.950000	1	0.164000
26.966667	1	0.168875
26.983333	1	0.174625
27.000000	1	0.180250
27.016667	1	0.187250
27.033333	1	0.193750
27.050000	1	0.200750
27.066667	1	0.208750
27.083333	1	0.217000
27.100000	1	0.224750
27.116667	1	0.233500
27.133333	1	0.242750
27.150000	1	0.252500
27.166667	1	0.262875
27.183333	1	0.274000
27.200000	1	0.285250
27.216667	1	0.297500
27.233333	1	0.310250
27.250000	1	0.323125
27.266667	1	0.338125
27.283333	1	0.353125
27.300000	1	0.369500
27.316667	1	0.386125
27.333333	1	0.404000
27.350000	1	0.423500
27.366667	1	0.444125
27.383333	1	0.466125
27.400000	1	0.489375
27.416667	1	0.514875
27.433333	1	0.542875
27.450000	1	0.573000
27.466667	1	0.605250
27.483333	1	0.641000
27.500000	1	0.680375
27.516667	1	0.723875
27.533333	1	0.772375
27.550000	1	0.825375
27.566667	1	0.883000
27.583333	1	0.947000
27.600000	1	1.017250
27.616667	1	1.094250
27.633333	1	1.177875
27.650000	1	1.268625
27.666667	1	1.366000
27.683333	1	1.470250
27.700000	1	1.581875
27.716667	1	1.699250
27.733333	1	1.822875
27.750000	1	1.951500
27.766667	1	2.084375
27.783333	1	2.220500
27.800000	1	2.358375
27.816667	1	2.495625
27.833333	1	2.631625
27.850000	1	2.763875
27.866667	1	2.891250
27.883333	1	3.011750
27.900000	1	3.124000
27.916667	1	3.224875
27.933333	1	3.314500
27.950000	1	3.389750
27.966667	1	3.450625
27.983333	1	3.495000
28.000000	1	3.522500
28.016667	1	3.532750
28.033333	1	3.525250
28.050000	1	3.500250
28.066667	1	3.458000
28.083333	1	3.399125
28.100000	1	3.323750
28.116667	1	3.234500
28.133333	1	3.131875
28.150000	1	3.018375
28.166667	1	2.894000
28.183333	1	2.762125
28.200000	1	2.623500
28.216667	1	2.480875
28.233333	1	2.335250
28.250000	1	2.188500
28.266667	1	2.041125
28.283333	1	1.895625
28.300000	1	1.752875
28.316667	1	1.613625
28.333333	1	1.478750
28.350000	1	1.348250
28.366667	1	1.224250
28.383333	1	1.105375
28.400000	1	0.992875
28.416667	1	0.886250
28.433333	1	0.785625
28.450000	1	0.689250
28.466667	1	0.598125
28.483333	1	0.513000
28.500000	1	0.431250
28.516667	1	0.353500
28.533333	1	0.279250
28.550000	1	0.208750
28.566667	1	0.141500
28.583333	1	0.077000
28.600000	1	0.014875
28.616667	1	-0.045000
28.633333	1	-0.103375
28.650000	1	-0.159500
28.666667	1	-0.213500
28.683333	1	-0.266000
28.700000	1	-0.316500
28.716667	1	-0.364750
28.733333	1	-0.411000
28.750000	1	-0.455625
28.766667	1	-0.497000
28.783333	1	-0.535125
28.800000	1	-0.571250
28.816667	1	-0.604500
28.833333	1	-0.634250
28.850000	1	-0.660500
28.866667	1	-0.683250
28.883333	1	-0.702500
28.900000	1	-0.718000
28.916667	1	-0.729375
28.933333	1	-0.737250
28.950000	1	-0.740375
28.966667	1	-0.739625
28.983333	1	-0.734625
29.000000	1	-0.725750
29.016667	1	-0.713000
29.033333	1	-0.696875
29.050000	1	-0.676750
29.066667	1	-0.653625
29.083333	1	-0.627625
29.100000	1	-0.599125
29.116667	1	-0.568875
29.133333	1	-0.537250
29.150000	1	-0.502750
29.166667	1	-0.466375
29.183333	1	-0.429375
29.200000	1	-0.390875
29.216667	1	-0.352750
29.233333	1	-0.314125
29.250000	1	-0.275125
29.266667	1	-0.235875
29.283333	1	-0.197875
29.300000	1	-0.160375
29.316667	1	-0.123250
29.333333	1	-0.087125
29.350000	1	-0.052250
29.366667	1	-0.018500
29.383333	1	0.013750
29.400000	1	0.045125
29.416667	1	0.074750
29.433333	1	0.102000
29.450000	1	0.128500
29.466667	1	0.153000
29.483333	1	0.176000
29.500000	1	0.197375
29.516667	1	0.217500
29.533333	1	0.235500
29.550000	1	0.251625
29.566667	1	0.266500
29.583333	1	0.279250
29.600000	1	0.290375
29.616667	1	0.300375
29.633333	1	0.308875
29.650000	1	0.316750
29.666667	1	0.323000
29.683333	1	0.327750
29.700000	1	0.331125
29.716667	1	0.333625
29.733333	1	0.335000
29.750000	1	0.335500
29.766667	1	0.335125
29.783333	1	0.334625
29.800000	1	0.333875
29.816667	1	0.332000
29.833333	1	0.330250
29.850000	1	0.327625
29.866667	1	0.324625
29.883333	1	0.321750
29.900000	1	0.317875
29.916667	1	0.314500
29.933333	1	0.311500
29.950000	1	0.308625
29.966667	1	0.305750
29.983333	1	0.303000
30.000000	1	0.300750
30.016667	1	0.299375
30.033333	1	0.298000
30.050000	1	0.296250
30.066667	1	0.294750
30.083333	1	0.293750
30.100000	1	0.293625
30.116667	1	0.293750
30.133333	1	0.294375
30.150000	1	0.295500
30.166667	1	0.297125
30.183333	1	0.299500
30.200000	1	0.302375
30.216667	1	0.306125
30.233333	1	0.310875
30.250000	1	0.316500
30.266667	1	0.321875
30.283333	1	0.328875
30.300000	1	0.336125
30.316667	1	0.344500
30.333333	1	0.354375
30.350000	1	0.365500
30.366667	1	0.377250
30.383333	1	0.390625
30.400000	1	0.405500
30.416667	1	0.422250
30.433333	1	0.439625
30.450000	1	0.459000
30.466667	1	0.479875
30.483333	1	0.501750
30.500000	1	0.524500
30.516667	1	0.548500
30.533333	1	0.573750
30.550000	1	0.599250
30.566667	1	0.625500
30.583333	1	0.652500
30.600000	1	0.680250
30.616667	1	0.707000
30.633333	1	0.733750
30.650000	1	0.759000
30.666667	1	0.783875
30.683333	1	0.806875
30.700000	1	0.828000
30.716667	1	0.846500
30.733333	1	0.863375
30.750000	1	0.876875
30.766667	1	0.888000
30.783333	1	0.896000
30.800000	1	0.900375
30.816667	1	0.902250
30.833333	1	0.900500
30.850000	1	0.894875
30.866667	1	0.885750
30.883333	1	0.873875
30.900000	1	0.859250
30.916667	1	0.841875
30.933333	1	0.822000
30.950000	1	0.799625
30.966667	1	0.775250
30.983333	1	0.749750
31.000000	1	0.722750
31.016667	1	0.694375
31.033333	1	0.665625
31.050000	1	0.636000
31.066667	1	0.606000
31.083333	1	0.576625
31.100000	1	0.547000
31.116667	1	0.518000
31.133333	1	0.489875
31.150000	1	0.462125
31.166667	1	0.435750
31.183333	1	0.410500
31.200000	1	0.386625
31.216667	1	0.364500
31.233333	1	0.343250
31.250000	1	0.323750
31.266667	1	0.304875
31.283333	1	0.287000
31.300000	1	0.270625
31.316667	1	0.255625
31.333333	1	0.242750
31.350000	1	0.230875
31.366667	1	0.219375
31.383333	1	0.209625
31.400000	1	0.200500
31.416667	1	0.192750
31.433333	1	0.186375
31.450000	1	0.179625
31.466667	1	0.173875
31.483333	1	0.169125
31.500000	1	0.164625
31.516667	1	0.160875
31.533333	1	0.157875
31.550000	1	0.156125
31.566667	1	0.155125
31.583333	1	0.154875
31.600000	1	0.154875
31.616667	1	0.155625
31.633333	1	0.155500
31.650000	1	0.156500
31.666667	1	0.157875
31.683333	1	0.159500
31.700000	1	0.161375
31.716667	1	0.164125
31.733333	1	0.166625
31.750000	1	0.169625
31.766667	1	0.173000
31.783333	1	0.177000
31.800000	1	0.180375
31.816667	1	0.184500
31.833333	1	0.188125
31.850000	1	0.191750
31.866667	1	0.194625
31.883333	1	0.198250
31.900000	1	0.201250
31.916667	1	0.204250
31.933333	1	0.207125
31.950000	1	0.209250
31.966667	1	0.211250
31.983333	1	0.212875
32.000000	1	0.214125
32.016667	1	0.214750
32.033333	1	0.214750
32.050000	1	0.214125
32.066667	1	0.212875
32.083333	1	0.210625
32.100000	1	0.208125
32.116667	1	0.204750
32.133333	1	0.200875
32.150000	1	0.196750
32.166667	1	0.192750
32.183333	1	0.188000
32.200000	1	0.183000
32.216667	1	0.177000
32.233333	1	0.170875
32.250000	1	0.164500
32.266667	1	0.158250
32.283333	1	0.152750
32.300000	1	0.145750
32.316667	1	0.139625
32.333333	1	0.133625
32.350000	1	0.127500
32.366667	1	0.121125
32.383333	1	0.116125
32.400000	1	0.110500
32.416667	1	0.105125
32.433333	1	0.100125
32.450000	1	0.095750
32.466667	1	0.091000
32.483333	1	0.086750
32.500000	1	0.082750
32.516667	1	0.078875
32.533333	1	0.075500
32.550000	1	0.072375
32.566667	1	0.069250
32.583333	1	0.066500
32.600000	1	0.063500
32.616667	1	0.059875
32.633333	1	0.056625
32.650000	1	0.053500
32.666667	1	0.050875
32.683333	1	0.047875
32.700000	1	0.044750
32.716667	1	0.041750
32.733333	1	0.038750
32.750000	1	0.035375
32.766667	1	0.032125
32.783333	1	0.028625
32.800000	1	0.025250
32.816667	1	0.022375
32.833333	1	0.019000
32.850000	1	0.015875
32.866667	1	0.012875
32.883333	1	0.009250
32.900000	1	0.005375
32.916667	1	0.002500
32.933333	1	0.000000
32.950000	1	-0.003375
32.966667	1	-0.007250
32.983333	1	-0.009500
33.000000	1	-0.012375
33.016667	1	-0.015000
33.033333	1	-0.018375
33.050000	1	-0.020875
33.066667	1	-0.022875
33.083333	1	-0.025375
33.100000	1	-0.028125
33.116667	1	-0.030000
33.133333	1	-0.032000
33.150000	1	-0.034375
33.166667	1	-0.036000
33.183333	1	-0.038125
33.200000	1	-0.039875
33.216667	1	-0.041625
33.233333	1	-0.043375
33.250000	1	-0.044750
33.266667	1	-0.046625
33.283333	1	-0.047750
33.300000	1	-0.048625
33.316667	1	-0.049750
33.333333	1	-0.050750
33.350000	1	-0.051500
33.366667	1	-0.051500
33.383333	1	-0.052125
33.400000	1	-0.053000
33.416667	1	-0.054750
33.433333	1	-0.055500
33.450000	1	-0.055750
33.466667	1	-0.056500
33.483333	1	-0.056875
33.500000	1	-0.056875
33.516667	1	-0.057000
33.533333	1	-0.057750
33.550000	1	-0.058500
33.566667	1	-0.057375
33.583333	1	-0.057250
33.600000	1	-0.057250
33.616667	1	-0.057125
33.633333	1	-0.056625
33.650000	1	-0.057250
33.666667	1	-0.057000
33.683333	1	-0.056875
33.700000	1	-0.056625
33.716667	1	-0.055875
33.733333	1	-0.055875
33.750000	1	-0.054750
33.766667	1	-0.054250
33.783333	1	-0.052875
33.800000	1	-0.052250
33.816667	1	-0.051625
33.833333	1	-0.050625
33.850000	1	-0.049375
33.866667	1	-0.048500
33.883333	1	-0.048000
33.900000	1	-0.047250
33.916667	1	-0.045500
33.933333	1	-0.044625
33.950000	1	-0.042875
33.966667	1	-0.041375
33.983333	1	-0.039500
34.000000	1	-0.038250
34.016667	1	-0.037250
34.033333	1	-0.035500
34.050000	1	-0.034125
34.066667	1	-0.032250
34.083333	1	-0.029750
34.100000	1	-0.028000
34.116667	1	-0.026375
34.133333	1	-0.024500
34.150000	1	-0.022500
34.166667	1	-0.020250
34.183333	1	-0.018000
34.200000	1	-0.016250
34.216667	1	-0.014125
34.233333	1	-0.011375
34.250000	1	-0.008750
34.266667	1	-0.007125
34.283333	1	-0.005000
34.300000	1	-0.003000
34.316667	1	-0.001250
34.333333	1	0.000375
34.350000	1	0.002125
34.366667	1	0.004000
34.383333	1	0.005500
34.400000	1	0.007375
34.416667	1	0.008500
34.433333	1	0.010375
34.450000	1	0.011875
34.466667	1	0.013000
34.483333	1	0.014500
34.500000	1	0.015500
34.516667	1	0.016750
34.533333	1	0.018125
34.550000	1	0.019750
34.566667	1	0.021125
34.583333	1	0.022125
34.600000	1	0.023000
34.616667	1	0.024375
34.633333	1	0.026125
34.650000	1	0.027000
34.666667	1	0.028250
34.683333	1	0.029125
34.700000	1	0.029625
34.716667	1	0.030875
34.733333	1	0.032125
34.750000	1	0.033250
34.766667	1	0.034625
34.783333	1	0.035500
34.800000	1	0.037000
34.816667	1	0.038625
34.833333	1	0.040625
34.850000	1	0.042250
34.866667	1	0.043875
34.883333	1	0.045625
34.900000	1	0.046875
34.916667	1	0.048500
34.933333	1	0.050875
34.950000	1	0.052500
34.966667	1	0.054625
34.983333	1	0.057500
35.000000	1	0.059500
35.016667	1	0.061625
35.033333	1	0.063000
35.050000	1	0.065375
35.066667	1	0.068000
35.083333	1	0.070625
35.100000	1	0.072625
35.116667	1	0.074500
35.133333	1	0.076625
35.150000	1	0.079625
35.166667	1	0.081875
35.183333	1	0.084125
35.200000	1	0.085875
35.216667	1	0.087625
35.233333	1	0.089750
35.250000	1	0.091500
35.266667	1	0.093875
35.283333	1	0.095250
35.300000	1	0.096750
35.316667	1	0.098500
35.333333	1	0.099625
35.350000	1	0.100750
35.366667	1	0.101125
35.383333	1	0.101625
35.400000	1	0.102500
35.416667	1	0.102500
35.433333	1	0.103250
35.450000	1	0.102625
35.466667	1	0.102250
35.483333	1	0.101875
35.500000	1	0.101500
35.516667	1	0.101500
35.533333	1	0.100875
35.550000	1	0.099875
35.566667	1	0.099500
35.583333	1	0.098250
35.600000	1	0.096375
35.616667	1	0.095500
35.633333	1	0.093625
35.650000	1	0.091750
35.666667	1	0.090375
35.683333	1	0.088750
35.700000	1	0.086625
35.716667	1	0.084375
35.733333	1	0.082625
35.750000	1	0.081125
35.766667	1	0.079750
35.783333	1	0.078375
35.800000	1	0.076625
35.816667	1	0.074375
35.833333	1	0.072750
35.850000	1	0.071000
35.866667	1	0.069000
35.883333	1	0.066750
35.900000	1	0.064750
35.916667	1	0.063125
35.933333	1	0.060750
35.950000	1	0.058625
35.966667	1	0.056625
35.983333	1	0.055125
36.000000	1	0.053375
36.016667	1	0.051875
36.033333	1	0.050500
36.050000	1	0.048500
36.066667	1	0.046625
36.083333	1	0.045000
36.100000	1	0.043375
36.116667	1	0.041250
36.133333	1	0.040625
36.150000	1	0.039625
36.166667	1	0.038125
36.183333	1	0.037000
36.200000	1	0.035625
36.216667	1	0.035000
36.233333	1	0.033375
36.250000	1	0.032000
36.266667	1	0.031250
36.283333	1	0.030500
36.300000	1	0.030000
36.316667	1	0.029375
36.333333	1	0.029000
36.350000	1	0.028000
36.366667	1	0.027250
36.383333	1	0.026625
36.400000	1	0.025875
36.416667	1	0.024625
36.433333	1	0.023750
36.450000	1	0.023125
36.466667	1	0.022750
36.483333	1	0.022625
36.500000	1	0.021500
36.516667	1	0.021125
36.533333	1	0.020250
36.550000	1	0.019875
36.566667	1	0.019125
36.583333	1	0.017750
36.600000	1	0.016875
36.616667	1	0.015875
36.633333	1	0.014500
36.650000	1	0.013000
36.666667	1	0.011125
36.683333	1	0.010875
36.700000	1	0.009375
36.716667	1	0.007500
36.733333	1	0.005375
36.750000	1	0.003750
36.766667	1	0.002125
36.783333	1	0.000000
36.800000	1	-0.002375
36.816667	1	-0.004875
36.833333	1	-0.006250
36.850000	1	-0.008625
36.866667	1	-0.011000
36.883333	1	-0.013250
36.900000	1	-0.014875
36.916667	1	-0.017375
36.933333	1	-0.019125
36.950000	1	-0.021625
36.966667	1	-0.023875
36.983333	1	-0.026750
37.000000	1	-0.029000
37.016667	1	-0.031000
37.033333	1	-0.033250
37.050000	1	-0.035250
37.066667	1	-0.037000
37.083333	1	-0.039000
37.100000	1	-0.041000
37.116667	1	-0.042250
37.133333	1	-0.043625
37.150000	1	-0.045875
37.166667	1	-0.047625
37.183333	1	-0.049125
37.200000	1	-0.050500
37.216667	1	-0.051125
37.233333	1	-0.053000
37.250000	1	-0.053750
37.266667	1	-0.055375
37.283333	1	-0.056250
37.300000	1	-0.057750
37.316667	1	-0.058625
37.333333	1	-0.059375
37.350000	1	-0.059875
37.366667	1	-0.060750
37.383333	1	-0.061625
37.400000	1	-0.062750
37.416667	1	-0.063875
37.433333	1	-0.064375
37.450000	1	-0.064500
37.466667	1	-0.064750
37.483333	1	-0.064875
37.500000	1	-0.065500
37.516667	1	-0.065625
37.533333	1	-0.065875
37.550000	1	-0.066375
37.566667	1	-0.066125
37.583333	1	-0.065625
37.600000	1	-0.065375
37.616667	1	-0.065250
37.633333	1	-0.065125
37.650000	1	-0.065000
37.666667	1	-0.064625
37.683333	1	-0.064250
37.700000	1	-0.063750
37.716667	1	-0.063375
37.733333	1	-0.062750
37.750000	1	-0.062500
37.766667	1	-0.062375
37.783333	1	-0.061125
37.800000	1	-0.060250
37.816667	1	-0.059500
37.833333	1	-0.059125
37.850000	1	-0.058500
37.866667	1	-0.057250
37.883333	1	-0.056500
37.900000	1	-0.055000
37.916667	1	-0.053375
37.933333	1	-0.053000
37.950000	1	-0.052750
37.966667	1	-0.051750
37.983333	1	-0.051125
38.000000	1	-0.051125
38.016667	1	-0.050250
38.033333	1	-0.049250
38.050000	1	-0.048500
38.066667	1	-0.047875
38.083333	1	-0.047250
38.100000	1	-0.046625
38.116667	1	-0.046625
38.133333	1	-0.046000
38.150000	1	-0.045000
38.166667	1	-0.045125
38.183333	1	-0.045750
38.200000	1	-0.046000
38.216667	1	-0.045375
38.233333	1	-0.045875
38.250000	1	-0.046375
38.266667	1	-0.046750
38.283333	1	-0.047125
38.300000	1	-0.047500
38.316667	1	-0.048000
38.333333	1	-0.048500
38.350000	1	-0.049875
38.366667	1	-0.050250
38.383333	1	-0.050625
38.400000	1	-0.051500
38.416667	1	-0.052625
38.433333	1	-0.053375
38.450000	1	-0.055000
38.466667	1	-0.055375
38.483333	1	-0.056750
38.500000	1	-0.057750
38.516667	1	-0.058625
38.533333	1	-0.059250
38.550000	1	-0.060375
38.566667	1	-0.061375
38.583333	1	-0.062125
38.600000	1	-0.062875
38.616667	1	-0.063500
38.633333	1	-0.064500
38.650000	1	-0.065500
38.666667	1	-0.066250
38.683333	1	-0.066875
38.700000	1	-0.067875
38.716667	1	-0.068750
38.733333	1	-0.069000
38.750000	1	-0.069625
38.766667	1	-0.070125
38.783333	1	-0.070375
38.800000	1	-0.070375
38.816667	1	-0.070750
38.833333	1	-0.070500
38.850000	1	-0.070250
38.866667	1	-0.070625
38.883333	1	-0.070250
38.900000	1	-0.070000
38.916667	1	-0.069500
38.933333	1	-0.069500
38.950000	1	-0.068875
38.966667	1	-0.068125
38.983333	1	-0.067125
39.000000	1	-0.066625
39.016667	1	-0.066375
39.033333	1	-0.065250
39.050000	1	-0.064250
39.066667	1	-0.063625
39.083333	1	-0.062625
39.100000	1	-0.061750
39.116667	1	-0.060250
39.133333	1	-0.059375
39.150000	1	-0.058375
39.166667	1	-0.057500
39.183333	1	-0.056625
39.200000	1	-0.055375
39.216667	1	-0.054500
39.233333	1	-0.053625
39.250000	1	-0.051875
39.266667	1	-0.050000
39.283333	1	-0.048375
39.300000	1	-0.047125
39.316667	1	-0.045625
39.333333	1	-0.044625
39.350000	1	-0.043750
39.366667	1	-0.042125
39.383333	1	-0.039750
39.400000	1	-0.039250
39.416667	1	-0.038000
39.433333	1	-0.036625
39.450000	1	-0.035125
39.466667	1	-0.033625
39.483333	1	-0.031750
39.500000	1	-0.030625
39.516667	1	-0.029375
39.533333	1	-0.028125
39.550000	1	-0.026625
39.566667	1	-0.025125
39.583333	1	-0.024000
39.600000	1	-0.023000
39.616667	1	-0.021625
39.633333	1	-0.020625
39.650000	1	-0.019250
39.666667	1	-0.017875
39.683333	1	-0.016750
39.700000	1	-0.015125
39.716667	1	-0.014500
39.733333	1	-0.013375
39.750000	1	-0.012625
39.766667	1	-0.011625
39.783333	1	-0.010625
39.800000	1	-0.010250
39.816667	1	-0.009875
39.833333	1	-0.008875
39.850000	1	-0.008625
39.866667	1	-0.007500
39.883333	1	-0.006875
39.900000	1	-0.006875
39.916667	1	-0.006750
39.933333	1	-0.006625
39.950000	1	-0.007000
39.966667	1	-0.007375
39.983333	1	-0.007250
40.000000	1	-0.007625
