File Path	chrom://marshall/Chromeleon7/HPLC_Ultimate_3000/Users/markusar/20230616_CMO_FP13_14_15.seq/561.smp/RI_1.channel/RI_1.chm
Channel	RI_1

Injection Information:
Data Vault	Chromeleon7
Injection	FP14_8.2_s1
Injection Number	26
Position	BE7
Comment	
Processing Method	
Instrument Method	run_25B_method
Type	Unknown
Status	Finished
Injection Date	17.06.2023
Injection Time	09:32:56
Injection Volume (µl)	20.000
Dilution Factor	1.0000
Weight	1.0000

Chromatogram Data Information:
Time Min. (min)	0.000000
Time Max. (min)	40.000000
Data Points	2401
Detector	RI
Generating Data System	Chromeleon 7.2.5.9507
Exporting Data System	Chromeleon 7.2.5.0
Operator	Instrument Controller
Signal Quantity	Refractive 
Signal Unit	µRIU
Signal Min.	-0.413000
Signal Max.	44.570875
Channel	RI_1
Driver Name	RID520Driver.dll
Channel Type	Evaluation
Min. Step (s)	1
Max. Step (s)	1
Average Step (s)	1

Signal Parameter Information:
Signal Info	

Chromatogram Data:
Time (min)	Step (s)	Value (µRIU)
0.000000	n.a.	0.025250
0.016667	1	0.024125
0.033333	1	0.023125
0.050000	1	0.022375
0.066667	1	0.021000
0.083333	1	0.020000
0.100000	1	0.019000
0.116667	1	0.018000
0.133333	1	0.016625
0.150000	1	0.015750
0.166667	1	0.014875
0.183333	1	0.014125
0.200000	1	0.013125
0.216667	1	0.011875
0.233333	1	0.011000
0.250000	1	0.009625
0.266667	1	0.008500
0.283333	1	0.007000
0.300000	1	0.006000
0.316667	1	0.004500
0.333333	1	0.004250
0.350000	1	0.004125
0.366667	1	0.003000
0.383333	1	0.002000
0.400000	1	0.000750
0.416667	1	-0.001125
0.433333	1	-0.003625
0.450000	1	-0.007125
0.466667	1	-0.009750
0.483333	1	-0.010750
0.500000	1	-0.010500
0.516667	1	-0.008125
0.533333	1	-0.006375
0.550000	1	-0.004875
0.566667	1	-0.002625
0.583333	1	-0.000625
0.600000	1	0.000625
0.616667	1	0.002250
0.633333	1	0.002750
0.650000	1	0.001875
0.666667	1	0.000000
0.683333	1	-0.001875
0.700000	1	-0.004125
0.716667	1	-0.006875
0.733333	1	-0.009000
0.750000	1	-0.010500
0.766667	1	-0.012000
0.783333	1	-0.013000
0.800000	1	-0.014000
0.816667	1	-0.015250
0.833333	1	-0.015750
0.850000	1	-0.016000
0.866667	1	-0.015750
0.883333	1	-0.015875
0.900000	1	-0.016000
0.916667	1	-0.015875
0.933333	1	-0.016125
0.950000	1	-0.016000
0.966667	1	-0.016125
0.983333	1	-0.016625
1.000000	1	-0.016500
1.016667	1	-0.015500
1.033333	1	-0.015375
1.050000	1	-0.015125
1.066667	1	-0.014750
1.083333	1	-0.014375
1.100000	1	-0.014000
1.116667	1	-0.013125
1.133333	1	-0.012875
1.150000	1	-0.011875
1.166667	1	-0.011125
1.183333	1	-0.010625
1.200000	1	-0.010500
1.216667	1	-0.010250
1.233333	1	-0.009750
1.250000	1	-0.009375
1.266667	1	-0.009375
1.283333	1	-0.009250
1.300000	1	-0.008625
1.316667	1	-0.008000
1.333333	1	-0.007375
1.350000	1	-0.007000
1.366667	1	-0.006750
1.383333	1	-0.006625
1.400000	1	-0.006875
1.416667	1	-0.006625
1.433333	1	-0.006375
1.450000	1	-0.006625
1.466667	1	-0.006375
1.483333	1	-0.006375
1.500000	1	-0.007000
1.516667	1	-0.007375
1.533333	1	-0.007500
1.550000	1	-0.007625
1.566667	1	-0.008625
1.583333	1	-0.008500
1.600000	1	-0.009000
1.616667	1	-0.009375
1.633333	1	-0.009125
1.650000	1	-0.009375
1.666667	1	-0.010125
1.683333	1	-0.010625
1.700000	1	-0.010750
1.716667	1	-0.010750
1.733333	1	-0.011250
1.750000	1	-0.011625
1.766667	1	-0.011375
1.783333	1	-0.011250
1.800000	1	-0.011250
1.816667	1	-0.011125
1.833333	1	-0.011875
1.850000	1	-0.012250
1.866667	1	-0.012625
1.883333	1	-0.013000
1.900000	1	-0.012875
1.916667	1	-0.012500
1.933333	1	-0.012125
1.950000	1	-0.011625
1.966667	1	-0.011750
1.983333	1	-0.012125
2.000000	1	-0.012000
2.016667	1	-0.012000
2.033333	1	-0.012000
2.050000	1	-0.012000
2.066667	1	-0.012125
2.083333	1	-0.011750
2.100000	1	-0.011875
2.116667	1	-0.011000
2.133333	1	-0.010375
2.150000	1	-0.010000
2.166667	1	-0.009250
2.183333	1	-0.008625
2.200000	1	-0.007875
2.216667	1	-0.007375
2.233333	1	-0.006625
2.250000	1	-0.006250
2.266667	1	-0.005625
2.283333	1	-0.005250
2.300000	1	-0.004375
2.316667	1	-0.004000
2.333333	1	-0.002875
2.350000	1	-0.002000
2.366667	1	-0.000750
2.383333	1	0.000125
2.400000	1	0.000875
2.416667	1	0.002500
2.433333	1	0.003500
2.450000	1	0.005000
2.466667	1	0.006375
2.483333	1	0.007875
2.500000	1	0.008375
2.516667	1	0.010250
2.533333	1	0.011500
2.550000	1	0.012125
2.566667	1	0.013375
2.583333	1	0.014500
2.600000	1	0.015625
2.616667	1	0.017125
2.633333	1	0.018125
2.650000	1	0.019375
2.666667	1	0.020000
2.683333	1	0.021375
2.700000	1	0.021875
2.716667	1	0.022875
2.733333	1	0.023125
2.750000	1	0.024000
2.766667	1	0.025125
2.783333	1	0.025500
2.800000	1	0.026000
2.816667	1	0.026625
2.833333	1	0.027375
2.850000	1	0.027750
2.866667	1	0.027875
2.883333	1	0.028125
2.900000	1	0.029000
2.916667	1	0.029250
2.933333	1	0.029500
2.950000	1	0.029625
2.966667	1	0.029875
2.983333	1	0.029750
3.000000	1	0.030375
3.016667	1	0.030750
3.033333	1	0.030875
3.050000	1	0.031000
3.066667	1	0.030750
3.083333	1	0.030875
3.100000	1	0.031000
3.116667	1	0.030875
3.133333	1	0.030750
3.150000	1	0.029875
3.166667	1	0.030000
3.183333	1	0.029375
3.200000	1	0.029125
3.216667	1	0.029125
3.233333	1	0.028625
3.250000	1	0.028250
3.266667	1	0.027250
3.283333	1	0.026625
3.300000	1	0.025875
3.316667	1	0.024875
3.333333	1	0.024500
3.350000	1	0.024125
3.366667	1	0.023375
3.383333	1	0.023000
3.400000	1	0.021625
3.416667	1	0.021125
3.433333	1	0.020125
3.450000	1	0.018875
3.466667	1	0.018375
3.483333	1	0.018125
3.500000	1	0.017625
3.516667	1	0.017250
3.533333	1	0.016375
3.550000	1	0.015125
3.566667	1	0.013875
3.583333	1	0.012750
3.600000	1	0.012375
3.616667	1	0.011125
3.633333	1	0.010500
3.650000	1	0.009000
3.666667	1	0.008625
3.683333	1	0.007875
3.700000	1	0.007250
3.716667	1	0.006625
3.733333	1	0.005375
3.750000	1	0.005000
3.766667	1	0.004500
3.783333	1	0.003500
3.800000	1	0.002500
3.816667	1	0.002125
3.833333	1	0.001250
3.850000	1	0.000875
3.866667	1	0.000125
3.883333	1	-0.000375
3.900000	1	-0.001625
3.916667	1	-0.001750
3.933333	1	-0.002500
3.950000	1	-0.003375
3.966667	1	-0.004500
3.983333	1	-0.004500
4.000000	1	-0.005125
4.016667	1	-0.005875
4.033333	1	-0.006125
4.050000	1	-0.006250
4.066667	1	-0.006500
4.083333	1	-0.007000
4.100000	1	-0.008000
4.116667	1	-0.008125
4.133333	1	-0.008250
4.150000	1	-0.008875
4.166667	1	-0.009625
4.183333	1	-0.010125
4.200000	1	-0.010375
4.216667	1	-0.010250
4.233333	1	-0.010750
4.250000	1	-0.010375
4.266667	1	-0.010500
4.283333	1	-0.010375
4.300000	1	-0.010000
4.316667	1	-0.010625
4.333333	1	-0.010625
4.350000	1	-0.011500
4.366667	1	-0.011375
4.383333	1	-0.010750
4.400000	1	-0.010250
4.416667	1	-0.010000
4.433333	1	-0.009500
4.450000	1	-0.009375
4.466667	1	-0.008875
4.483333	1	-0.008125
4.500000	1	-0.007875
4.516667	1	-0.007500
4.533333	1	-0.006500
4.550000	1	-0.007000
4.566667	1	-0.006500
4.583333	1	-0.005750
4.600000	1	-0.004750
4.616667	1	-0.004000
4.633333	1	-0.003000
4.650000	1	-0.002500
4.666667	1	-0.002125
4.683333	1	-0.000500
4.700000	1	0.000500
4.716667	1	0.002250
4.733333	1	0.003500
4.750000	1	0.004125
4.766667	1	0.004500
4.783333	1	0.005625
4.800000	1	0.007000
4.816667	1	0.008000
4.833333	1	0.010125
4.850000	1	0.011375
4.866667	1	0.013000
4.883333	1	0.014250
4.900000	1	0.016000
4.916667	1	0.017625
4.933333	1	0.019125
4.950000	1	0.020500
4.966667	1	0.022125
4.983333	1	0.023625
5.000000	1	0.025625
5.016667	1	0.027000
5.033333	1	0.028875
5.050000	1	0.030875
5.066667	1	0.032875
5.083333	1	0.034625
5.100000	1	0.036500
5.116667	1	0.038750
5.133333	1	0.040625
5.150000	1	0.042750
5.166667	1	0.044375
5.183333	1	0.046625
5.200000	1	0.048625
5.216667	1	0.050250
5.233333	1	0.052375
5.250000	1	0.054625
5.266667	1	0.056750
5.283333	1	0.058750
5.300000	1	0.060750
5.316667	1	0.062875
5.333333	1	0.064250
5.350000	1	0.066250
5.366667	1	0.068250
5.383333	1	0.070125
5.400000	1	0.071750
5.416667	1	0.072875
5.433333	1	0.074000
5.450000	1	0.075875
5.466667	1	0.077625
5.483333	1	0.078750
5.500000	1	0.080500
5.516667	1	0.081500
5.533333	1	0.083125
5.550000	1	0.084375
5.566667	1	0.084875
5.583333	1	0.086250
5.600000	1	0.087125
5.616667	1	0.087750
5.633333	1	0.088500
5.650000	1	0.088875
5.666667	1	0.089125
5.683333	1	0.089750
5.700000	1	0.091500
5.716667	1	0.091750
5.733333	1	0.091750
5.750000	1	0.092125
5.766667	1	0.092500
5.783333	1	0.092500
5.800000	1	0.092500
5.816667	1	0.093000
5.833333	1	0.093250
5.850000	1	0.093625
5.866667	1	0.093125
5.883333	1	0.093125
5.900000	1	0.093500
5.916667	1	0.093125
5.933333	1	0.092375
5.950000	1	0.092750
5.966667	1	0.092625
5.983333	1	0.093000
6.000000	1	0.093000
6.016667	1	0.093375
6.033333	1	0.093750
6.050000	1	0.094125
6.066667	1	0.094125
6.083333	1	0.094250
6.100000	1	0.095250
6.116667	1	0.095125
6.133333	1	0.095375
6.150000	1	0.095750
6.166667	1	0.095750
6.183333	1	0.096000
6.200000	1	0.096250
6.216667	1	0.096500
6.233333	1	0.096000
6.250000	1	0.096500
6.266667	1	0.097125
6.283333	1	0.097875
6.300000	1	0.098500
6.316667	1	0.099125
6.333333	1	0.099500
6.350000	1	0.100000
6.366667	1	0.100125
6.383333	1	0.100375
6.400000	1	0.100875
6.416667	1	0.101375
6.433333	1	0.101625
6.450000	1	0.102250
6.466667	1	0.103250
6.483333	1	0.103000
6.500000	1	0.103375
6.516667	1	0.103500
6.533333	1	0.103750
6.550000	1	0.104875
6.566667	1	0.105875
6.583333	1	0.106625
6.600000	1	0.107375
6.616667	1	0.108500
6.633333	1	0.109000
6.650000	1	0.110750
6.666667	1	0.111375
6.683333	1	0.111875
6.700000	1	0.112500
6.716667	1	0.114125
6.733333	1	0.115375
6.750000	1	0.116000
6.766667	1	0.116125
6.783333	1	0.117375
6.800000	1	0.119000
6.816667	1	0.119750
6.833333	1	0.120500
6.850000	1	0.121625
6.866667	1	0.122625
6.883333	1	0.123500
6.900000	1	0.124250
6.916667	1	0.125000
6.933333	1	0.125250
6.950000	1	0.125250
6.966667	1	0.125625
6.983333	1	0.126250
7.000000	1	0.127000
7.016667	1	0.127375
7.033333	1	0.127750
7.050000	1	0.127500
7.066667	1	0.127500
7.083333	1	0.127125
7.100000	1	0.126875
7.116667	1	0.126875
7.133333	1	0.126625
7.150000	1	0.125875
7.166667	1	0.125250
7.183333	1	0.124875
7.200000	1	0.124125
7.216667	1	0.123250
7.233333	1	0.122375
7.250000	1	0.120500
7.266667	1	0.119125
7.283333	1	0.117250
7.300000	1	0.115375
7.316667	1	0.113875
7.333333	1	0.111375
7.350000	1	0.109125
7.366667	1	0.107750
7.383333	1	0.105750
7.400000	1	0.103500
7.416667	1	0.101000
7.433333	1	0.098750
7.450000	1	0.095750
7.466667	1	0.093500
7.483333	1	0.091250
7.500000	1	0.088250
7.516667	1	0.086125
7.533333	1	0.083125
7.550000	1	0.080500
7.566667	1	0.078875
7.583333	1	0.077000
7.600000	1	0.074500
7.616667	1	0.071750
7.633333	1	0.070125
7.650000	1	0.068000
7.666667	1	0.066250
7.683333	1	0.064625
7.700000	1	0.062875
7.716667	1	0.060625
7.733333	1	0.058375
7.750000	1	0.057000
7.766667	1	0.055500
7.783333	1	0.054375
7.800000	1	0.053125
7.816667	1	0.052125
7.833333	1	0.051375
7.850000	1	0.050250
7.866667	1	0.049125
7.883333	1	0.048625
7.900000	1	0.048500
7.916667	1	0.046875
7.933333	1	0.045875
7.950000	1	0.045750
7.966667	1	0.045750
7.983333	1	0.046125
8.000000	1	0.045625
8.016667	1	0.045125
8.033333	1	0.045375
8.050000	1	0.045750
8.066667	1	0.046250
8.083333	1	0.046000
8.100000	1	0.045875
8.116667	1	0.047000
8.133333	1	0.047500
8.150000	1	0.047375
8.166667	1	0.047625
8.183333	1	0.048250
8.200000	1	0.049125
8.216667	1	0.049625
8.233333	1	0.050125
8.250000	1	0.051000
8.266667	1	0.051375
8.283333	1	0.051625
8.300000	1	0.052625
8.316667	1	0.052375
8.333333	1	0.053250
8.350000	1	0.053750
8.366667	1	0.054375
8.383333	1	0.055250
8.400000	1	0.055875
8.416667	1	0.057375
8.433333	1	0.057500
8.450000	1	0.057875
8.466667	1	0.058500
8.483333	1	0.059500
8.500000	1	0.060000
8.516667	1	0.060375
8.533333	1	0.061750
8.550000	1	0.062000
8.566667	1	0.062250
8.583333	1	0.062125
8.600000	1	0.062500
8.616667	1	0.063000
8.633333	1	0.063750
8.650000	1	0.064000
8.666667	1	0.065250
8.683333	1	0.065750
8.700000	1	0.066250
8.716667	1	0.067125
8.733333	1	0.067875
8.750000	1	0.067875
8.766667	1	0.069125
8.783333	1	0.070000
8.800000	1	0.070625
8.816667	1	0.071500
8.833333	1	0.071750
8.850000	1	0.072375
8.866667	1	0.072625
8.883333	1	0.072750
8.900000	1	0.074250
8.916667	1	0.074250
8.933333	1	0.074375
8.950000	1	0.075000
8.966667	1	0.075000
8.983333	1	0.075875
9.000000	1	0.075500
9.016667	1	0.075500
9.033333	1	0.076500
9.050000	1	0.077000
9.066667	1	0.077375
9.083333	1	0.077250
9.100000	1	0.077625
9.116667	1	0.077750
9.133333	1	0.077875
9.150000	1	0.078625
9.166667	1	0.078875
9.183333	1	0.079875
9.200000	1	0.080250
9.216667	1	0.080875
9.233333	1	0.081125
9.250000	1	0.081625
9.266667	1	0.081750
9.283333	1	0.082250
9.300000	1	0.083250
9.316667	1	0.083750
9.333333	1	0.085375
9.350000	1	0.086250
9.366667	1	0.087750
9.383333	1	0.089500
9.400000	1	0.091250
9.416667	1	0.092875
9.433333	1	0.094625
9.450000	1	0.097250
9.466667	1	0.100125
9.483333	1	0.103500
9.500000	1	0.108250
9.516667	1	0.112750
9.533333	1	0.118125
9.550000	1	0.124125
9.566667	1	0.131750
9.583333	1	0.139875
9.600000	1	0.149000
9.616667	1	0.159000
9.633333	1	0.168500
9.650000	1	0.178750
9.666667	1	0.189125
9.683333	1	0.198750
9.700000	1	0.207750
9.716667	1	0.215750
9.733333	1	0.221375
9.750000	1	0.224500
9.766667	1	0.226500
9.783333	1	0.226875
9.800000	1	0.227000
9.816667	1	0.230250
9.833333	1	0.239000
9.850000	1	0.258500
9.866667	1	0.294000
9.883333	1	0.352375
9.900000	1	0.442500
9.916667	1	0.574125
9.933333	1	0.758625
9.950000	1	1.013250
9.966667	1	1.356875
9.983333	1	1.812875
10.000000	1	2.407000
10.016667	1	3.164125
10.033333	1	4.105750
10.050000	1	5.248375
10.066667	1	6.603625
10.083333	1	8.171625
10.100000	1	9.946625
10.116667	1	11.909500
10.133333	1	14.029875
10.150000	1	16.267000
10.166667	1	18.567000
10.183333	1	20.867750
10.200000	1	23.100750
10.216667	1	25.190875
10.233333	1	27.064375
10.250000	1	28.649875
10.266667	1	29.888250
10.283333	1	30.735000
10.300000	1	31.168375
10.316667	1	31.189125
10.333333	1	30.825000
10.350000	1	30.125875
10.366667	1	29.155125
10.383333	1	27.987375
10.400000	1	26.693375
10.416667	1	25.336625
10.433333	1	23.966625
10.450000	1	22.619625
10.466667	1	21.317500
10.483333	1	20.071625
10.500000	1	18.885000
10.516667	1	17.756875
10.533333	1	16.684625
10.550000	1	15.663750
10.566667	1	14.689375
10.583333	1	13.757375
10.600000	1	12.864875
10.616667	1	12.009375
10.633333	1	11.188625
10.650000	1	10.402750
10.666667	1	9.650875
10.683333	1	8.934500
10.700000	1	8.254750
10.716667	1	7.613125
10.733333	1	7.013125
10.750000	1	6.453750
10.766667	1	5.938125
10.783333	1	5.465875
10.800000	1	5.036750
10.816667	1	4.649250
10.833333	1	4.302625
10.850000	1	3.993625
10.866667	1	3.719750
10.883333	1	3.477000
10.900000	1	3.262375
10.916667	1	3.072500
10.933333	1	2.905250
10.950000	1	2.756250
10.966667	1	2.624125
10.983333	1	2.505625
11.000000	1	2.400250
11.016667	1	2.305375
11.033333	1	2.219000
11.050000	1	2.141125
11.066667	1	2.069500
11.083333	1	2.003875
11.100000	1	1.943375
11.116667	1	1.887250
11.133333	1	1.835250
11.150000	1	1.786375
11.166667	1	1.740375
11.183333	1	1.697000
11.200000	1	1.656375
11.216667	1	1.617875
11.233333	1	1.580750
11.250000	1	1.545625
11.266667	1	1.512375
11.283333	1	1.480875
11.300000	1	1.450500
11.316667	1	1.420750
11.333333	1	1.392625
11.350000	1	1.365375
11.366667	1	1.339500
11.383333	1	1.313875
11.400000	1	1.290250
11.416667	1	1.267875
11.433333	1	1.246750
11.450000	1	1.226000
11.466667	1	1.206500
11.483333	1	1.187625
11.500000	1	1.170500
11.516667	1	1.154000
11.533333	1	1.138875
11.550000	1	1.125125
11.566667	1	1.111875
11.583333	1	1.099125
11.600000	1	1.088750
11.616667	1	1.078500
11.633333	1	1.068375
11.650000	1	1.059500
11.666667	1	1.051375
11.683333	1	1.043875
11.700000	1	1.036875
11.716667	1	1.030500
11.733333	1	1.024250
11.750000	1	1.018375
11.766667	1	1.013000
11.783333	1	1.008375
11.800000	1	1.004375
11.816667	1	1.000500
11.833333	1	0.997500
11.850000	1	0.995250
11.866667	1	0.993875
11.883333	1	0.993625
11.900000	1	0.994625
11.916667	1	0.997125
11.933333	1	1.001250
11.950000	1	1.006625
11.966667	1	1.014375
11.983333	1	1.024250
12.000000	1	1.036000
12.016667	1	1.050000
12.033333	1	1.066750
12.050000	1	1.086000
12.066667	1	1.109625
12.083333	1	1.136625
12.100000	1	1.168000
12.116667	1	1.204000
12.133333	1	1.245000
12.150000	1	1.292500
12.166667	1	1.347500
12.183333	1	1.411625
12.200000	1	1.485125
12.216667	1	1.569125
12.233333	1	1.666625
12.250000	1	1.779000
12.266667	1	1.907000
12.283333	1	2.052250
12.300000	1	2.215500
12.316667	1	2.400625
12.333333	1	2.606500
12.350000	1	2.836375
12.366667	1	3.090750
12.383333	1	3.370500
12.400000	1	3.676375
12.416667	1	4.008125
12.433333	1	4.364125
12.450000	1	4.740125
12.466667	1	5.133125
12.483333	1	5.537875
12.500000	1	5.948000
12.516667	1	6.355750
12.533333	1	6.754625
12.550000	1	7.135875
12.566667	1	7.493375
12.583333	1	7.821500
12.600000	1	8.114500
12.616667	1	8.370625
12.633333	1	8.589250
12.650000	1	8.767750
12.666667	1	8.909250
12.683333	1	9.015000
12.700000	1	9.087375
12.716667	1	9.129000
12.733333	1	9.144250
12.750000	1	9.135875
12.766667	1	9.108500
12.783333	1	9.064625
12.800000	1	9.007375
12.816667	1	8.940000
12.833333	1	8.864250
12.850000	1	8.781500
12.866667	1	8.693250
12.883333	1	8.600875
12.900000	1	8.504875
12.916667	1	8.405750
12.933333	1	8.303750
12.950000	1	8.197875
12.966667	1	8.087750
12.983333	1	7.972750
13.000000	1	7.852625
13.016667	1	7.727125
13.033333	1	7.594250
13.050000	1	7.454875
13.066667	1	7.306875
13.083333	1	7.149000
13.100000	1	6.981750
13.116667	1	6.802875
13.133333	1	6.612000
13.150000	1	6.407125
13.166667	1	6.188500
13.183333	1	5.953875
13.200000	1	5.702750
13.216667	1	5.433875
13.233333	1	5.146125
13.250000	1	4.838250
13.266667	1	4.509125
13.283333	1	4.160125
13.300000	1	3.796250
13.316667	1	3.426500
13.333333	1	3.066375
13.350000	1	2.731000
13.366667	1	2.432250
13.383333	1	2.175750
13.400000	1	1.963250
13.416667	1	1.788500
13.433333	1	1.647000
13.450000	1	1.530875
13.466667	1	1.436000
13.483333	1	1.357125
13.500000	1	1.291375
13.516667	1	1.236375
13.533333	1	1.189375
13.550000	1	1.149750
13.566667	1	1.114500
13.583333	1	1.084625
13.600000	1	1.058250
13.616667	1	1.034750
13.633333	1	1.014250
13.650000	1	0.995750
13.666667	1	0.979375
13.683333	1	0.964500
13.700000	1	0.950250
13.716667	1	0.937625
13.733333	1	0.925250
13.750000	1	0.912875
13.766667	1	0.900750
13.783333	1	0.889000
13.800000	1	0.876750
13.816667	1	0.863875
13.833333	1	0.850875
13.850000	1	0.838375
13.866667	1	0.825625
13.883333	1	0.813125
13.900000	1	0.799625
13.916667	1	0.786750
13.933333	1	0.773625
13.950000	1	0.761000
13.966667	1	0.749625
13.983333	1	0.738250
14.000000	1	0.728125
14.016667	1	0.718625
14.033333	1	0.710625
14.050000	1	0.703875
14.066667	1	0.698125
14.083333	1	0.694375
14.100000	1	0.693500
14.116667	1	0.695250
14.133333	1	0.699875
14.150000	1	0.707625
14.166667	1	0.719625
14.183333	1	0.735125
14.200000	1	0.756125
14.216667	1	0.782375
14.233333	1	0.815125
14.250000	1	0.854375
14.266667	1	0.902125
14.283333	1	0.959750
14.300000	1	1.026625
14.316667	1	1.104750
14.333333	1	1.194625
14.350000	1	1.297375
14.366667	1	1.414375
14.383333	1	1.547875
14.400000	1	1.697875
14.416667	1	1.865750
14.433333	1	2.054000
14.450000	1	2.263750
14.466667	1	2.497125
14.483333	1	2.754875
14.500000	1	3.039750
14.516667	1	3.353375
14.533333	1	3.698875
14.550000	1	4.080625
14.566667	1	4.503500
14.583333	1	4.972625
14.600000	1	5.496125
14.616667	1	6.084875
14.633333	1	6.752750
14.650000	1	7.513000
14.666667	1	8.386625
14.683333	1	9.389750
14.700000	1	10.541125
14.716667	1	11.859500
14.733333	1	13.359250
14.750000	1	15.051875
14.766667	1	16.937500
14.783333	1	19.008750
14.800000	1	21.249250
14.816667	1	23.630500
14.833333	1	26.113875
14.850000	1	28.649500
14.866667	1	31.180000
14.883333	1	33.642875
14.900000	1	35.975125
14.916667	1	38.114750
14.933333	1	40.007750
14.950000	1	41.607000
14.966667	1	42.878875
14.983333	1	43.801125
15.000000	1	44.364125
15.016667	1	44.570875
15.033333	1	44.432875
15.050000	1	43.974125
15.066667	1	43.221875
15.083333	1	42.212500
15.100000	1	40.983750
15.116667	1	39.575250
15.133333	1	38.025000
15.150000	1	36.368875
15.166667	1	34.641500
15.183333	1	32.874000
15.200000	1	31.091250
15.216667	1	29.314125
15.233333	1	27.560000
15.250000	1	25.844250
15.266667	1	24.179000
15.283333	1	22.573125
15.300000	1	21.033375
15.316667	1	19.563875
15.333333	1	18.167750
15.350000	1	16.845375
15.366667	1	15.598625
15.383333	1	14.426000
15.400000	1	13.326500
15.416667	1	12.296375
15.433333	1	11.336250
15.450000	1	10.443250
15.466667	1	9.616250
15.483333	1	8.853250
15.500000	1	8.150875
15.516667	1	7.507875
15.533333	1	6.922000
15.550000	1	6.389875
15.566667	1	5.910125
15.583333	1	5.477500
15.600000	1	5.089125
15.616667	1	4.741250
15.633333	1	4.429625
15.650000	1	4.151125
15.666667	1	3.901625
15.683333	1	3.679375
15.700000	1	3.479500
15.716667	1	3.300625
15.733333	1	3.139875
15.750000	1	2.994500
15.766667	1	2.862250
15.783333	1	2.742000
15.800000	1	2.632375
15.816667	1	2.531250
15.833333	1	2.438750
15.850000	1	2.352375
15.866667	1	2.272875
15.883333	1	2.198000
15.900000	1	2.128875
15.916667	1	2.063625
15.933333	1	2.002250
15.950000	1	1.944125
15.966667	1	1.889875
15.983333	1	1.838125
16.000000	1	1.789500
16.016667	1	1.743500
16.033333	1	1.699375
16.050000	1	1.658875
16.066667	1	1.619875
16.083333	1	1.582750
16.100000	1	1.548125
16.116667	1	1.515750
16.133333	1	1.484625
16.150000	1	1.455625
16.166667	1	1.428625
16.183333	1	1.402750
16.200000	1	1.378125
16.216667	1	1.355125
16.233333	1	1.332875
16.250000	1	1.312250
16.266667	1	1.292500
16.283333	1	1.273375
16.300000	1	1.255125
16.316667	1	1.237625
16.333333	1	1.221250
16.350000	1	1.205375
16.366667	1	1.189625
16.383333	1	1.175000
16.400000	1	1.160750
16.416667	1	1.147000
16.433333	1	1.134375
16.450000	1	1.123000
16.466667	1	1.111750
16.483333	1	1.101750
16.500000	1	1.092000
16.516667	1	1.083000
16.533333	1	1.075000
16.550000	1	1.066500
16.566667	1	1.059625
16.583333	1	1.053125
16.600000	1	1.047250
16.616667	1	1.040875
16.633333	1	1.036250
16.650000	1	1.031750
16.666667	1	1.028125
16.683333	1	1.024625
16.700000	1	1.020875
16.716667	1	1.018125
16.733333	1	1.016125
16.750000	1	1.014250
16.766667	1	1.013000
16.783333	1	1.012875
16.800000	1	1.012375
16.816667	1	1.010875
16.833333	1	1.009875
16.850000	1	1.009375
16.866667	1	1.008625
16.883333	1	1.007250
16.900000	1	1.006750
16.916667	1	1.005750
16.933333	1	1.005000
16.950000	1	1.004375
16.966667	1	1.002750
16.983333	1	1.001375
17.000000	1	1.000125
17.016667	1	0.998875
17.033333	1	0.997500
17.050000	1	0.996375
17.066667	1	0.994750
17.083333	1	0.992875
17.100000	1	0.991625
17.116667	1	0.989875
17.133333	1	0.986250
17.150000	1	0.983625
17.166667	1	0.980250
17.183333	1	0.975500
17.200000	1	0.971500
17.216667	1	0.966250
17.233333	1	0.960500
17.250000	1	0.953625
17.266667	1	0.946750
17.283333	1	0.939875
17.300000	1	0.931500
17.316667	1	0.923125
17.333333	1	0.913750
17.350000	1	0.904625
17.366667	1	0.896125
17.383333	1	0.887125
17.400000	1	0.878250
17.416667	1	0.869625
17.433333	1	0.861250
17.450000	1	0.853250
17.466667	1	0.846000
17.483333	1	0.838875
17.500000	1	0.832750
17.516667	1	0.827125
17.533333	1	0.823000
17.550000	1	0.819125
17.566667	1	0.816875
17.583333	1	0.815875
17.600000	1	0.815375
17.616667	1	0.815750
17.633333	1	0.817625
17.650000	1	0.819750
17.666667	1	0.822625
17.683333	1	0.826750
17.700000	1	0.831875
17.716667	1	0.837750
17.733333	1	0.843625
17.750000	1	0.851000
17.766667	1	0.858250
17.783333	1	0.865500
17.800000	1	0.873250
17.816667	1	0.880875
17.833333	1	0.888625
17.850000	1	0.896625
17.866667	1	0.903250
17.883333	1	0.909375
17.900000	1	0.914500
17.916667	1	0.920125
17.933333	1	0.924500
17.950000	1	0.927375
17.966667	1	0.928125
17.983333	1	0.929625
18.000000	1	0.929875
18.016667	1	0.928750
18.033333	1	0.927000
18.050000	1	0.923000
18.066667	1	0.918875
18.083333	1	0.913625
18.100000	1	0.907375
18.116667	1	0.900500
18.133333	1	0.892875
18.150000	1	0.885375
18.166667	1	0.877250
18.183333	1	0.868000
18.200000	1	0.858250
18.216667	1	0.848375
18.233333	1	0.839375
18.250000	1	0.829625
18.266667	1	0.819500
18.283333	1	0.809500
18.300000	1	0.799500
18.316667	1	0.790125
18.333333	1	0.781000
18.350000	1	0.772250
18.366667	1	0.764125
18.383333	1	0.755750
18.400000	1	0.748625
18.416667	1	0.741500
18.433333	1	0.735125
18.450000	1	0.729000
18.466667	1	0.723125
18.483333	1	0.718000
18.500000	1	0.712750
18.516667	1	0.707375
18.533333	1	0.703375
18.550000	1	0.700375
18.566667	1	0.696500
18.583333	1	0.694000
18.600000	1	0.691000
18.616667	1	0.688875
18.633333	1	0.687500
18.650000	1	0.686000
18.666667	1	0.685125
18.683333	1	0.685625
18.700000	1	0.686250
18.716667	1	0.687500
18.733333	1	0.688250
18.750000	1	0.690000
18.766667	1	0.692500
18.783333	1	0.695500
18.800000	1	0.698000
18.816667	1	0.701625
18.833333	1	0.705875
18.850000	1	0.710625
18.866667	1	0.715750
18.883333	1	0.721250
18.900000	1	0.727625
18.916667	1	0.735250
18.933333	1	0.742875
18.950000	1	0.750875
18.966667	1	0.760750
18.983333	1	0.772250
19.000000	1	0.784500
19.016667	1	0.798500
19.033333	1	0.813500
19.050000	1	0.830125
19.066667	1	0.849000
19.083333	1	0.869625
19.100000	1	0.891750
19.116667	1	0.915625
19.133333	1	0.941000
19.150000	1	0.967875
19.166667	1	0.994875
19.183333	1	1.022500
19.200000	1	1.049875
19.216667	1	1.077625
19.233333	1	1.104875
19.250000	1	1.130875
19.266667	1	1.155125
19.283333	1	1.176875
19.300000	1	1.196625
19.316667	1	1.213250
19.333333	1	1.226000
19.350000	1	1.236125
19.366667	1	1.241750
19.383333	1	1.244500
19.400000	1	1.243125
19.416667	1	1.238000
19.433333	1	1.229875
19.450000	1	1.218125
19.466667	1	1.203500
19.483333	1	1.186500
19.500000	1	1.166875
19.516667	1	1.146000
19.533333	1	1.123375
19.550000	1	1.098875
19.566667	1	1.074500
19.583333	1	1.049750
19.600000	1	1.025375
19.616667	1	1.000625
19.633333	1	0.977500
19.650000	1	0.954000
19.666667	1	0.932000
19.683333	1	0.911625
19.700000	1	0.893625
19.716667	1	0.876125
19.733333	1	0.861625
19.750000	1	0.848625
19.766667	1	0.837750
19.783333	1	0.829375
19.800000	1	0.823500
19.816667	1	0.818000
19.833333	1	0.816000
19.850000	1	0.816375
19.866667	1	0.818500
19.883333	1	0.821000
19.900000	1	0.825375
19.916667	1	0.830750
19.933333	1	0.837250
19.950000	1	0.845000
19.966667	1	0.852750
19.983333	1	0.860625
20.000000	1	0.868875
20.016667	1	0.877125
20.033333	1	0.885875
20.050000	1	0.894125
20.066667	1	0.902375
20.083333	1	0.910750
20.100000	1	0.919250
20.116667	1	0.927750
20.133333	1	0.936250
20.150000	1	0.944875
20.166667	1	0.953250
20.183333	1	0.962500
20.200000	1	0.972500
20.216667	1	0.982875
20.233333	1	0.995125
20.250000	1	1.008125
20.266667	1	1.021000
20.283333	1	1.035000
20.300000	1	1.051125
20.316667	1	1.067625
20.333333	1	1.085625
20.350000	1	1.102000
20.366667	1	1.119750
20.383333	1	1.136625
20.400000	1	1.153250
20.416667	1	1.169375
20.433333	1	1.184250
20.450000	1	1.197625
20.466667	1	1.209250
20.483333	1	1.217625
20.500000	1	1.224250
20.516667	1	1.227500
20.533333	1	1.228875
20.550000	1	1.226250
20.566667	1	1.221500
20.583333	1	1.214500
20.600000	1	1.204625
20.616667	1	1.193375
20.633333	1	1.179250
20.650000	1	1.163500
20.666667	1	1.146625
20.683333	1	1.128875
20.700000	1	1.111000
20.716667	1	1.093625
20.733333	1	1.075375
20.750000	1	1.057625
20.766667	1	1.041250
20.783333	1	1.025875
20.800000	1	1.011750
20.816667	1	0.998875
20.833333	1	0.987375
20.850000	1	0.977250
20.866667	1	0.968750
20.883333	1	0.960500
20.900000	1	0.953000
20.916667	1	0.946125
20.933333	1	0.939250
20.950000	1	0.931875
20.966667	1	0.924500
20.983333	1	0.917250
21.000000	1	0.908500
21.016667	1	0.899000
21.033333	1	0.888000
21.050000	1	0.876250
21.066667	1	0.863250
21.083333	1	0.848875
21.100000	1	0.833625
21.116667	1	0.816750
21.133333	1	0.799875
21.150000	1	0.782000
21.166667	1	0.763375
21.183333	1	0.744750
21.200000	1	0.725125
21.216667	1	0.706375
21.233333	1	0.687250
21.250000	1	0.668500
21.266667	1	0.649750
21.283333	1	0.632000
21.300000	1	0.614750
21.316667	1	0.597750
21.333333	1	0.581625
21.350000	1	0.565625
21.366667	1	0.551375
21.383333	1	0.538000
21.400000	1	0.524625
21.416667	1	0.512750
21.433333	1	0.501375
21.450000	1	0.490375
21.466667	1	0.480375
21.483333	1	0.471750
21.500000	1	0.463500
21.516667	1	0.455875
21.533333	1	0.449250
21.550000	1	0.442875
21.566667	1	0.437125
21.583333	1	0.431625
21.600000	1	0.426875
21.616667	1	0.423125
21.633333	1	0.420000
21.650000	1	0.417250
21.666667	1	0.414625
21.683333	1	0.412000
21.700000	1	0.410000
21.716667	1	0.408375
21.733333	1	0.406625
21.750000	1	0.405500
21.766667	1	0.405125
21.783333	1	0.404375
21.800000	1	0.404375
21.816667	1	0.404875
21.833333	1	0.406125
21.850000	1	0.406625
21.866667	1	0.407750
21.883333	1	0.408750
21.900000	1	0.410750
21.916667	1	0.412625
21.933333	1	0.414625
21.950000	1	0.416000
21.966667	1	0.417250
21.983333	1	0.420000
22.000000	1	0.422375
22.016667	1	0.424125
22.033333	1	0.425500
22.050000	1	0.426625
22.066667	1	0.427500
22.083333	1	0.427875
22.100000	1	0.427875
22.116667	1	0.427625
22.133333	1	0.427000
22.150000	1	0.425750
22.166667	1	0.424875
22.183333	1	0.424250
22.200000	1	0.422250
22.216667	1	0.420000
22.233333	1	0.417875
22.250000	1	0.415750
22.266667	1	0.413750
22.283333	1	0.412000
22.300000	1	0.409750
22.316667	1	0.408250
22.333333	1	0.406625
22.350000	1	0.404500
22.366667	1	0.403000
22.383333	1	0.402125
22.400000	1	0.401750
22.416667	1	0.402000
22.433333	1	0.402375
22.450000	1	0.402500
22.466667	1	0.403000
22.483333	1	0.404125
22.500000	1	0.406000
22.516667	1	0.408000
22.533333	1	0.410250
22.550000	1	0.413250
22.566667	1	0.415875
22.583333	1	0.418250
22.600000	1	0.421500
22.616667	1	0.424500
22.633333	1	0.427250
22.650000	1	0.430250
22.666667	1	0.433000
22.683333	1	0.436125
22.700000	1	0.439625
22.716667	1	0.442500
22.733333	1	0.444750
22.750000	1	0.447125
22.766667	1	0.448750
22.783333	1	0.450250
22.800000	1	0.451375
22.816667	1	0.452875
22.833333	1	0.453625
22.850000	1	0.454750
22.866667	1	0.454875
22.883333	1	0.455250
22.900000	1	0.455625
22.916667	1	0.455125
22.933333	1	0.455375
22.950000	1	0.455250
22.966667	1	0.454750
22.983333	1	0.455000
23.000000	1	0.455250
23.016667	1	0.455375
23.033333	1	0.456625
23.050000	1	0.457625
23.066667	1	0.459625
23.083333	1	0.462250
23.100000	1	0.465500
23.116667	1	0.468875
23.133333	1	0.473500
23.150000	1	0.479125
23.166667	1	0.485750
23.183333	1	0.493500
23.200000	1	0.502125
23.216667	1	0.512375
23.233333	1	0.523250
23.250000	1	0.535500
23.266667	1	0.549750
23.283333	1	0.565625
23.300000	1	0.582750
23.316667	1	0.602250
23.333333	1	0.622500
23.350000	1	0.646000
23.366667	1	0.670375
23.383333	1	0.697500
23.400000	1	0.727125
23.416667	1	0.759125
23.433333	1	0.793875
23.450000	1	0.830625
23.466667	1	0.870125
23.483333	1	0.913125
23.500000	1	0.960250
23.516667	1	1.010500
23.533333	1	1.065875
23.550000	1	1.126250
23.566667	1	1.191500
23.583333	1	1.261875
23.600000	1	1.338500
23.616667	1	1.421250
23.633333	1	1.511625
23.650000	1	1.608000
23.666667	1	1.711125
23.683333	1	1.821000
23.700000	1	1.938125
23.716667	1	2.061625
23.733333	1	2.191625
23.750000	1	2.325500
23.766667	1	2.464250
23.783333	1	2.604750
23.800000	1	2.745750
23.816667	1	2.886375
23.833333	1	3.023750
23.850000	1	3.155875
23.866667	1	3.280750
23.883333	1	3.396625
23.900000	1	3.502375
23.916667	1	3.596000
23.933333	1	3.675375
23.950000	1	3.739750
23.966667	1	3.788375
23.983333	1	3.819875
24.000000	1	3.835125
24.016667	1	3.833625
24.033333	1	3.815500
24.050000	1	3.781750
24.066667	1	3.733250
24.083333	1	3.671125
24.100000	1	3.596875
24.116667	1	3.511750
24.133333	1	3.418000
24.150000	1	3.315875
24.166667	1	3.206750
24.183333	1	3.093375
24.200000	1	2.975875
24.216667	1	2.856250
24.233333	1	2.736000
24.250000	1	2.615000
24.266667	1	2.495625
24.283333	1	2.377875
24.300000	1	2.263125
24.316667	1	2.151000
24.333333	1	2.043125
24.350000	1	1.938625
24.366667	1	1.839500
24.383333	1	1.744250
24.400000	1	1.654375
24.416667	1	1.569375
24.433333	1	1.489750
24.450000	1	1.414625
24.466667	1	1.344750
24.483333	1	1.279875
24.500000	1	1.219125
24.516667	1	1.162875
24.533333	1	1.111125
24.550000	1	1.063250
24.566667	1	1.018750
24.583333	1	0.977500
24.600000	1	0.938750
24.616667	1	0.903750
24.633333	1	0.870750
24.650000	1	0.840375
24.666667	1	0.812625
24.683333	1	0.785750
24.700000	1	0.760875
24.716667	1	0.737875
24.733333	1	0.715625
24.750000	1	0.695625
24.766667	1	0.675250
24.783333	1	0.656250
24.800000	1	0.637250
24.816667	1	0.619375
24.833333	1	0.601875
24.850000	1	0.585750
24.866667	1	0.569750
24.883333	1	0.553750
24.900000	1	0.538500
24.916667	1	0.523875
24.933333	1	0.508875
24.950000	1	0.494750
24.966667	1	0.481375
24.983333	1	0.468125
25.000000	1	0.455625
25.016667	1	0.442750
25.033333	1	0.431375
25.050000	1	0.420125
25.066667	1	0.409500
25.083333	1	0.399375
25.100000	1	0.390000
25.116667	1	0.380375
25.133333	1	0.372500
25.150000	1	0.364500
25.166667	1	0.357125
25.183333	1	0.350750
25.200000	1	0.344250
25.216667	1	0.337875
25.233333	1	0.332625
25.250000	1	0.327875
25.266667	1	0.323750
25.283333	1	0.320375
25.300000	1	0.316250
25.316667	1	0.313000
25.333333	1	0.310000
25.350000	1	0.307750
25.366667	1	0.306000
25.383333	1	0.304125
25.400000	1	0.302750
25.416667	1	0.301000
25.433333	1	0.299750
25.450000	1	0.298500
25.466667	1	0.298500
25.483333	1	0.298250
25.500000	1	0.297125
25.516667	1	0.296875
25.533333	1	0.296375
25.550000	1	0.296750
25.566667	1	0.295875
25.583333	1	0.295500
25.600000	1	0.295375
25.616667	1	0.294875
25.633333	1	0.294750
25.650000	1	0.294125
25.666667	1	0.294250
25.683333	1	0.293750
25.700000	1	0.292875
25.716667	1	0.293125
25.733333	1	0.292500
25.750000	1	0.292250
25.766667	1	0.292375
25.783333	1	0.292000
25.800000	1	0.292000
25.816667	1	0.291500
25.833333	1	0.290375
25.850000	1	0.290625
25.866667	1	0.291125
25.883333	1	0.291250
25.900000	1	0.290625
25.916667	1	0.290375
25.933333	1	0.290000
25.950000	1	0.290500
25.966667	1	0.291125
25.983333	1	0.291125
26.000000	1	0.290875
26.016667	1	0.290625
26.033333	1	0.290500
26.050000	1	0.290750
26.066667	1	0.290625
26.083333	1	0.291500
26.100000	1	0.291250
26.116667	1	0.291000
26.133333	1	0.291250
26.150000	1	0.291625
26.166667	1	0.292000
26.183333	1	0.291875
26.200000	1	0.292000
26.216667	1	0.292750
26.233333	1	0.293125
26.250000	1	0.294000
26.266667	1	0.294375
26.283333	1	0.294875
26.300000	1	0.295125
26.316667	1	0.296500
26.333333	1	0.297625
26.350000	1	0.298375
26.366667	1	0.299250
26.383333	1	0.301125
26.400000	1	0.302250
26.416667	1	0.303250
26.433333	1	0.304875
26.450000	1	0.306750
26.466667	1	0.308250
26.483333	1	0.309250
26.500000	1	0.310125
26.516667	1	0.311500
26.533333	1	0.313125
26.550000	1	0.314000
26.566667	1	0.314875
26.583333	1	0.315250
26.600000	1	0.315625
26.616667	1	0.315750
26.633333	1	0.315875
26.650000	1	0.315875
26.666667	1	0.315375
26.683333	1	0.314750
26.700000	1	0.314125
26.716667	1	0.313125
26.733333	1	0.312250
26.750000	1	0.311000
26.766667	1	0.309375
26.783333	1	0.308500
26.800000	1	0.306500
26.816667	1	0.304125
26.833333	1	0.303000
26.850000	1	0.301875
26.866667	1	0.300250
26.883333	1	0.298750
26.900000	1	0.297500
26.916667	1	0.296250
26.933333	1	0.295500
26.950000	1	0.294625
26.966667	1	0.294375
26.983333	1	0.294125
27.000000	1	0.294375
27.016667	1	0.295125
27.033333	1	0.296625
27.050000	1	0.298000
27.066667	1	0.299500
27.083333	1	0.301625
27.100000	1	0.305375
27.116667	1	0.309000
27.133333	1	0.313625
27.150000	1	0.319000
27.166667	1	0.325125
27.183333	1	0.331375
27.200000	1	0.338250
27.216667	1	0.345750
27.233333	1	0.354625
27.250000	1	0.364625
27.266667	1	0.375000
27.283333	1	0.386250
27.300000	1	0.399000
27.316667	1	0.412750
27.333333	1	0.427125
27.350000	1	0.442250
27.366667	1	0.459000
27.383333	1	0.477000
27.400000	1	0.495375
27.416667	1	0.514750
27.433333	1	0.536250
27.450000	1	0.558125
27.466667	1	0.581500
27.483333	1	0.607000
27.500000	1	0.634000
27.516667	1	0.663125
27.533333	1	0.693125
27.550000	1	0.725875
27.566667	1	0.760875
27.583333	1	0.798500
27.600000	1	0.838500
27.616667	1	0.882000
27.633333	1	0.929125
27.650000	1	0.979500
27.666667	1	1.033500
27.683333	1	1.091500
27.700000	1	1.154375
27.716667	1	1.220500
27.733333	1	1.292000
27.750000	1	1.367375
27.766667	1	1.447500
27.783333	1	1.531500
27.800000	1	1.620875
27.816667	1	1.712750
27.833333	1	1.809375
27.850000	1	1.908625
27.866667	1	2.010125
27.883333	1	2.114375
27.900000	1	2.219500
27.916667	1	2.324375
27.933333	1	2.429000
27.950000	1	2.530375
27.966667	1	2.629125
27.983333	1	2.724250
28.000000	1	2.814125
28.016667	1	2.896875
28.033333	1	2.972625
28.050000	1	3.040000
28.066667	1	3.098375
28.083333	1	3.146125
28.100000	1	3.183250
28.116667	1	3.209750
28.133333	1	3.223750
28.150000	1	3.226500
28.166667	1	3.217125
28.183333	1	3.195250
28.200000	1	3.162500
28.216667	1	3.117875
28.233333	1	3.062750
28.250000	1	2.997750
28.266667	1	2.923875
28.283333	1	2.842000
28.300000	1	2.751750
28.316667	1	2.655250
28.333333	1	2.553375
28.350000	1	2.446000
28.366667	1	2.335625
28.383333	1	2.223500
28.400000	1	2.109250
28.416667	1	1.994250
28.433333	1	1.879250
28.450000	1	1.764625
28.466667	1	1.651125
28.483333	1	1.539250
28.500000	1	1.430000
28.516667	1	1.323625
28.533333	1	1.220125
28.550000	1	1.119750
28.566667	1	1.022500
28.583333	1	0.929125
28.600000	1	0.839750
28.616667	1	0.754250
28.633333	1	0.672250
28.650000	1	0.593875
28.666667	1	0.518500
28.683333	1	0.446375
28.700000	1	0.377750
28.716667	1	0.312500
28.733333	1	0.250000
28.750000	1	0.191250
28.766667	1	0.135625
28.783333	1	0.083250
28.800000	1	0.033500
28.816667	1	-0.013625
28.833333	1	-0.058500
28.850000	1	-0.100625
28.866667	1	-0.139625
28.883333	1	-0.175625
28.900000	1	-0.209875
28.916667	1	-0.240625
28.933333	1	-0.269625
28.950000	1	-0.295750
28.966667	1	-0.319500
28.983333	1	-0.340500
29.000000	1	-0.358125
29.016667	1	-0.373875
29.033333	1	-0.386750
29.050000	1	-0.397000
29.066667	1	-0.405250
29.083333	1	-0.410500
29.100000	1	-0.412625
29.116667	1	-0.413000
29.133333	1	-0.410250
29.150000	1	-0.405875
29.166667	1	-0.399500
29.183333	1	-0.391375
29.200000	1	-0.380625
29.216667	1	-0.367750
29.233333	1	-0.352875
29.250000	1	-0.335875
29.266667	1	-0.317625
29.283333	1	-0.298250
29.300000	1	-0.277250
29.316667	1	-0.255250
29.333333	1	-0.232750
29.350000	1	-0.209000
29.366667	1	-0.184750
29.383333	1	-0.159750
29.400000	1	-0.134125
29.416667	1	-0.108375
29.433333	1	-0.082375
29.450000	1	-0.056250
29.466667	1	-0.029875
29.483333	1	-0.004000
29.500000	1	0.021500
29.516667	1	0.046625
29.533333	1	0.071125
29.550000	1	0.095500
29.566667	1	0.119125
29.583333	1	0.142375
29.600000	1	0.164250
29.616667	1	0.185875
29.633333	1	0.206250
29.650000	1	0.226250
29.666667	1	0.245500
29.683333	1	0.263625
29.700000	1	0.279875
29.716667	1	0.296000
29.733333	1	0.311375
29.750000	1	0.324750
29.766667	1	0.337875
29.783333	1	0.349625
29.800000	1	0.360000
29.816667	1	0.369750
29.833333	1	0.379125
29.850000	1	0.387375
29.866667	1	0.394500
29.883333	1	0.400250
29.900000	1	0.406000
29.916667	1	0.410750
29.933333	1	0.414750
29.950000	1	0.418000
29.966667	1	0.421125
29.983333	1	0.423250
30.000000	1	0.425000
30.016667	1	0.426125
30.033333	1	0.427000
30.050000	1	0.427375
30.066667	1	0.427125
30.083333	1	0.427375
30.100000	1	0.427500
30.116667	1	0.426875
30.133333	1	0.426250
30.150000	1	0.424875
30.166667	1	0.423250
30.183333	1	0.422000
30.200000	1	0.420500
30.216667	1	0.420000
30.233333	1	0.418125
30.250000	1	0.416500
30.266667	1	0.415000
30.283333	1	0.414125
30.300000	1	0.412500
30.316667	1	0.410875
30.333333	1	0.409500
30.350000	1	0.407500
30.366667	1	0.405250
30.383333	1	0.403875
30.400000	1	0.402125
30.416667	1	0.400750
30.433333	1	0.399750
30.450000	1	0.398500
30.466667	1	0.397500
30.483333	1	0.395875
30.500000	1	0.394625
30.516667	1	0.393750
30.533333	1	0.393375
30.550000	1	0.392250
30.566667	1	0.392625
30.583333	1	0.392250
30.600000	1	0.392375
30.616667	1	0.392625
30.633333	1	0.393625
30.650000	1	0.394750
30.666667	1	0.396125
30.683333	1	0.397375
30.700000	1	0.399125
30.716667	1	0.400500
30.733333	1	0.402875
30.750000	1	0.405000
30.766667	1	0.407000
30.783333	1	0.409125
30.800000	1	0.411750
30.816667	1	0.414500
30.833333	1	0.416250
30.850000	1	0.418125
30.866667	1	0.420625
30.883333	1	0.422000
30.900000	1	0.422750
30.916667	1	0.423750
30.933333	1	0.424500
30.950000	1	0.424625
30.966667	1	0.424875
30.983333	1	0.424375
31.000000	1	0.423250
31.016667	1	0.421625
31.033333	1	0.418875
31.050000	1	0.416500
31.066667	1	0.412875
31.083333	1	0.409125
31.100000	1	0.404875
31.116667	1	0.400125
31.133333	1	0.395000
31.150000	1	0.389250
31.166667	1	0.383375
31.183333	1	0.377375
31.200000	1	0.371000
31.216667	1	0.364250
31.233333	1	0.357375
31.250000	1	0.350500
31.266667	1	0.343125
31.283333	1	0.336000
31.300000	1	0.330125
31.316667	1	0.323000
31.333333	1	0.316250
31.350000	1	0.309375
31.366667	1	0.303250
31.383333	1	0.297000
31.400000	1	0.291375
31.416667	1	0.285250
31.433333	1	0.281000
31.450000	1	0.275000
31.466667	1	0.270375
31.483333	1	0.265625
31.500000	1	0.260750
31.516667	1	0.256500
31.533333	1	0.252750
31.550000	1	0.249375
31.566667	1	0.246375
31.583333	1	0.243375
31.600000	1	0.240500
31.616667	1	0.238500
31.633333	1	0.236500
31.650000	1	0.235250
31.666667	1	0.234625
31.683333	1	0.234250
31.700000	1	0.233750
31.716667	1	0.232625
31.733333	1	0.232625
31.750000	1	0.232750
31.766667	1	0.232625
31.783333	1	0.233625
31.800000	1	0.234250
31.816667	1	0.235250
31.833333	1	0.236375
31.850000	1	0.238125
31.866667	1	0.240125
31.883333	1	0.241750
31.900000	1	0.243625
31.916667	1	0.245375
31.933333	1	0.248375
31.950000	1	0.250750
31.966667	1	0.252625
31.983333	1	0.254500
32.000000	1	0.257125
32.016667	1	0.259250
32.033333	1	0.262000
32.050000	1	0.263875
32.066667	1	0.265750
32.083333	1	0.267125
32.100000	1	0.268625
32.116667	1	0.269250
32.133333	1	0.269875
32.150000	1	0.270875
32.166667	1	0.271500
32.183333	1	0.271875
32.200000	1	0.272000
32.216667	1	0.271500
32.233333	1	0.270625
32.250000	1	0.269500
32.266667	1	0.267750
32.283333	1	0.265375
32.300000	1	0.262750
32.316667	1	0.260250
32.333333	1	0.257000
32.350000	1	0.253625
32.366667	1	0.249500
32.383333	1	0.245250
32.400000	1	0.240375
32.416667	1	0.236125
32.433333	1	0.231375
32.450000	1	0.226250
32.466667	1	0.221625
32.483333	1	0.216750
32.500000	1	0.211375
32.516667	1	0.205875
32.533333	1	0.200125
32.550000	1	0.194625
32.566667	1	0.188625
32.583333	1	0.182750
32.600000	1	0.176625
32.616667	1	0.171000
32.633333	1	0.165000
32.650000	1	0.160750
32.666667	1	0.154875
32.683333	1	0.149125
32.700000	1	0.143375
32.716667	1	0.138125
32.733333	1	0.133125
32.750000	1	0.127375
32.766667	1	0.121750
32.783333	1	0.116500
32.800000	1	0.111500
32.816667	1	0.106500
32.833333	1	0.101250
32.850000	1	0.096500
32.866667	1	0.091625
32.883333	1	0.087375
32.900000	1	0.082875
32.916667	1	0.078500
32.933333	1	0.074250
32.950000	1	0.070125
32.966667	1	0.066500
32.983333	1	0.063250
33.000000	1	0.059000
33.016667	1	0.055625
33.033333	1	0.052125
33.050000	1	0.049250
33.066667	1	0.047000
33.083333	1	0.043875
33.100000	1	0.041625
33.116667	1	0.039750
33.133333	1	0.036875
33.150000	1	0.034875
33.166667	1	0.032000
33.183333	1	0.029875
33.200000	1	0.028375
33.216667	1	0.026625
33.233333	1	0.025125
33.250000	1	0.023875
33.266667	1	0.022750
33.283333	1	0.021625
33.300000	1	0.020375
33.316667	1	0.019875
33.333333	1	0.019375
33.350000	1	0.018250
33.366667	1	0.017500
33.383333	1	0.017125
33.400000	1	0.017125
33.416667	1	0.016750
33.433333	1	0.016500
33.450000	1	0.016625
33.466667	1	0.017000
33.483333	1	0.017375
33.500000	1	0.017000
33.516667	1	0.017625
33.533333	1	0.018125
33.550000	1	0.018750
33.566667	1	0.019250
33.583333	1	0.020500
33.600000	1	0.021500
33.616667	1	0.022000
33.633333	1	0.022375
33.650000	1	0.024000
33.666667	1	0.025250
33.683333	1	0.026625
33.700000	1	0.027625
33.716667	1	0.028625
33.733333	1	0.030500
33.750000	1	0.032250
33.766667	1	0.034125
33.783333	1	0.036250
33.800000	1	0.038750
33.816667	1	0.041375
33.833333	1	0.043250
33.850000	1	0.045750
33.866667	1	0.048875
33.883333	1	0.051875
33.900000	1	0.055125
33.916667	1	0.058375
33.933333	1	0.062250
33.950000	1	0.065875
33.966667	1	0.070500
33.983333	1	0.075500
34.000000	1	0.080625
34.016667	1	0.085750
34.033333	1	0.091000
34.050000	1	0.096250
34.066667	1	0.101875
34.083333	1	0.108000
34.100000	1	0.113625
34.116667	1	0.119750
34.133333	1	0.126750
34.150000	1	0.132750
34.166667	1	0.139500
34.183333	1	0.146500
34.200000	1	0.153500
34.216667	1	0.160750
34.233333	1	0.167625
34.250000	1	0.174000
34.266667	1	0.180250
34.283333	1	0.185625
34.300000	1	0.191375
34.316667	1	0.196000
34.333333	1	0.201500
34.350000	1	0.206500
34.366667	1	0.211375
34.383333	1	0.214750
34.400000	1	0.218375
34.416667	1	0.220875
34.433333	1	0.222875
34.450000	1	0.224500
34.466667	1	0.225375
34.483333	1	0.226375
34.500000	1	0.226250
34.516667	1	0.225500
34.533333	1	0.224500
34.550000	1	0.222875
34.566667	1	0.221500
34.583333	1	0.219125
34.600000	1	0.216000
34.616667	1	0.213375
34.633333	1	0.209750
34.650000	1	0.206500
34.666667	1	0.202875
34.683333	1	0.198750
34.700000	1	0.193875
34.716667	1	0.189500
34.733333	1	0.184500
34.750000	1	0.180000
34.766667	1	0.175375
34.783333	1	0.170500
34.800000	1	0.166000
34.816667	1	0.161125
34.833333	1	0.156625
34.850000	1	0.151750
34.866667	1	0.147375
34.883333	1	0.143375
34.900000	1	0.139375
34.916667	1	0.135625
34.933333	1	0.132125
34.950000	1	0.128875
34.966667	1	0.125750
34.983333	1	0.122250
35.000000	1	0.119250
35.016667	1	0.116375
35.033333	1	0.114625
35.050000	1	0.113125
35.066667	1	0.111125
35.083333	1	0.109125
35.100000	1	0.107750
35.116667	1	0.106875
35.133333	1	0.106250
35.150000	1	0.105500
35.166667	1	0.105000
35.183333	1	0.104500
35.200000	1	0.104625
35.216667	1	0.104375
35.233333	1	0.105375
35.250000	1	0.105875
35.266667	1	0.105625
35.283333	1	0.106125
35.300000	1	0.106625
35.316667	1	0.107250
35.333333	1	0.108000
35.350000	1	0.108875
35.366667	1	0.110250
35.383333	1	0.111375
35.400000	1	0.112125
35.416667	1	0.113500
35.433333	1	0.114875
35.450000	1	0.116000
35.466667	1	0.117375
35.483333	1	0.118875
35.500000	1	0.120000
35.516667	1	0.121375
35.533333	1	0.123000
35.550000	1	0.124250
35.566667	1	0.125750
35.583333	1	0.126750
35.600000	1	0.127625
35.616667	1	0.128500
35.633333	1	0.129375
35.650000	1	0.130375
35.666667	1	0.130875
35.683333	1	0.132125
35.700000	1	0.132875
35.716667	1	0.132625
35.733333	1	0.133500
35.750000	1	0.134000
35.766667	1	0.134375
35.783333	1	0.135375
35.800000	1	0.136500
35.816667	1	0.136750
35.833333	1	0.136875
35.850000	1	0.137125
35.866667	1	0.136875
35.883333	1	0.137250
35.900000	1	0.137375
35.916667	1	0.137750
35.933333	1	0.137750
35.950000	1	0.137875
35.966667	1	0.138000
35.983333	1	0.138250
36.000000	1	0.138875
36.016667	1	0.139250
36.033333	1	0.138875
36.050000	1	0.139250
36.066667	1	0.138750
36.083333	1	0.139000
36.100000	1	0.138750
36.116667	1	0.138625
36.133333	1	0.138875
36.150000	1	0.138000
36.166667	1	0.137625
36.183333	1	0.137625
36.200000	1	0.137125
36.216667	1	0.137250
36.233333	1	0.136625
36.250000	1	0.135875
36.266667	1	0.135375
36.283333	1	0.135250
36.300000	1	0.134875
36.316667	1	0.133875
36.333333	1	0.133500
36.350000	1	0.133250
36.366667	1	0.132750
36.383333	1	0.131750
36.400000	1	0.131625
36.416667	1	0.130250
36.433333	1	0.128875
36.450000	1	0.128125
36.466667	1	0.127500
36.483333	1	0.126625
36.500000	1	0.124875
36.516667	1	0.124000
36.533333	1	0.123250
36.550000	1	0.122625
36.566667	1	0.120875
36.583333	1	0.120375
36.600000	1	0.119000
36.616667	1	0.117375
36.633333	1	0.116250
36.650000	1	0.115000
36.666667	1	0.113375
36.683333	1	0.112250
36.700000	1	0.111125
36.716667	1	0.109625
36.733333	1	0.107875
36.750000	1	0.106500
36.766667	1	0.104625
36.783333	1	0.102750
36.800000	1	0.101125
36.816667	1	0.099375
36.833333	1	0.098375
36.850000	1	0.096875
36.866667	1	0.094875
36.883333	1	0.093125
36.900000	1	0.090875
36.916667	1	0.089000
36.933333	1	0.087125
36.950000	1	0.085000
36.966667	1	0.083375
36.983333	1	0.081125
37.000000	1	0.078875
37.016667	1	0.076375
37.033333	1	0.074000
37.050000	1	0.072000
37.066667	1	0.070125
37.083333	1	0.067625
37.100000	1	0.065250
37.116667	1	0.062875
37.133333	1	0.061000
37.150000	1	0.058625
37.166667	1	0.056250
37.183333	1	0.053750
37.200000	1	0.050875
37.216667	1	0.048500
37.233333	1	0.046250
37.250000	1	0.044500
37.266667	1	0.042500
37.283333	1	0.040500
37.300000	1	0.038375
37.316667	1	0.036625
37.333333	1	0.035000
37.350000	1	0.033125
37.366667	1	0.030625
37.383333	1	0.029000
37.400000	1	0.027375
37.416667	1	0.025875
37.433333	1	0.024000
37.450000	1	0.022375
37.466667	1	0.021375
37.483333	1	0.019750
37.500000	1	0.018875
37.516667	1	0.017625
37.533333	1	0.016250
37.550000	1	0.015375
37.566667	1	0.014875
37.583333	1	0.014250
37.600000	1	0.013500
37.616667	1	0.013125
37.633333	1	0.012875
37.650000	1	0.012500
37.666667	1	0.012000
37.683333	1	0.011750
37.700000	1	0.011625
37.716667	1	0.011125
37.733333	1	0.011375
37.750000	1	0.010875
37.766667	1	0.010875
37.783333	1	0.010500
37.800000	1	0.011000
37.816667	1	0.011000
37.833333	1	0.011125
37.850000	1	0.011625
37.866667	1	0.011875
37.883333	1	0.012125
37.900000	1	0.012250
37.916667	1	0.012625
37.933333	1	0.012875
37.950000	1	0.012875
37.966667	1	0.013875
37.983333	1	0.014000
38.000000	1	0.014375
38.016667	1	0.014750
38.033333	1	0.015375
38.050000	1	0.016375
38.066667	1	0.016500
38.083333	1	0.017375
38.100000	1	0.017500
38.116667	1	0.017500
38.133333	1	0.018125
38.150000	1	0.019000
38.166667	1	0.019875
38.183333	1	0.020750
38.200000	1	0.020500
38.216667	1	0.020875
38.233333	1	0.021750
38.250000	1	0.022000
38.266667	1	0.022750
38.283333	1	0.023750
38.300000	1	0.024000
38.316667	1	0.024500
38.333333	1	0.024875
38.350000	1	0.025375
38.366667	1	0.026000
38.383333	1	0.026125
38.400000	1	0.027000
38.416667	1	0.027750
38.433333	1	0.028000
38.450000	1	0.027875
38.466667	1	0.027750
38.483333	1	0.027500
38.500000	1	0.028125
38.516667	1	0.028125
38.533333	1	0.028125
38.550000	1	0.027750
38.566667	1	0.028000
38.583333	1	0.027500
38.600000	1	0.027000
38.616667	1	0.027125
38.633333	1	0.026875
38.650000	1	0.025750
38.666667	1	0.025125
38.683333	1	0.024375
38.700000	1	0.023375
38.716667	1	0.022625
38.733333	1	0.022125
38.750000	1	0.021125
38.766667	1	0.019875
38.783333	1	0.018500
38.800000	1	0.017500
38.816667	1	0.016500
38.833333	1	0.014750
38.850000	1	0.013625
38.866667	1	0.011750
38.883333	1	0.009875
38.900000	1	0.008375
38.916667	1	0.006750
38.933333	1	0.005250
38.950000	1	0.003750
38.966667	1	0.002250
38.983333	1	0.000375
39.000000	1	-0.001000
39.016667	1	-0.002500
39.033333	1	-0.003625
39.050000	1	-0.005875
39.066667	1	-0.007250
39.083333	1	-0.009125
39.100000	1	-0.010500
39.116667	1	-0.011750
39.133333	1	-0.012625
39.150000	1	-0.013875
39.166667	1	-0.015000
39.183333	1	-0.015875
39.200000	1	-0.016750
39.216667	1	-0.017875
39.233333	1	-0.019000
39.250000	1	-0.019500
39.266667	1	-0.020125
39.283333	1	-0.021000
39.300000	1	-0.021125
39.316667	1	-0.021250
39.333333	1	-0.021750
39.350000	1	-0.022250
39.366667	1	-0.022250
39.383333	1	-0.021500
39.400000	1	-0.021625
39.416667	1	-0.021000
39.433333	1	-0.020875
39.450000	1	-0.020375
39.466667	1	-0.019500
39.483333	1	-0.019125
39.500000	1	-0.018625
39.516667	1	-0.018375
39.533333	1	-0.016875
39.550000	1	-0.015875
39.566667	1	-0.015250
39.583333	1	-0.014375
39.600000	1	-0.013375
39.616667	1	-0.011375
39.633333	1	-0.010375
39.650000	1	-0.008625
39.666667	1	-0.007250
39.683333	1	-0.006000
39.700000	1	-0.004625
39.716667	1	-0.003125
39.733333	1	-0.001375
39.750000	1	0.000500
39.766667	1	0.002000
39.783333	1	0.003625
39.800000	1	0.005125
39.816667	1	0.006250
39.833333	1	0.007500
39.850000	1	0.009125
39.866667	1	0.010625
39.883333	1	0.011625
39.900000	1	0.013125
39.916667	1	0.015000
39.933333	1	0.016750
39.950000	1	0.017750
39.966667	1	0.018250
39.983333	1	0.019625
40.000000	1	0.020750
