File Path	chrom://990-75db15j/XVault/Ultimate_3000/1256/20230531_CMO_stabTest _FP08_FP09.seq/749.smp/RI_1.channel/RI_1.chm
Channel	RI_1

Injection Information:
Data Vault	XVault
Injection	FP08_8_s2
Injection Number	46
Position	BA10
Comment	
Processing Method	
Instrument Method	run_25B_method
Type	Unknown
Status	Finished
Injection Date	02.06.2023
Injection Time	20:28:17
Injection Volume (µl)	20.000
Dilution Factor	1.0000
Weight	1.0000

Chromatogram Data Information:
Time Min. (min)	0.000000
Time Max. (min)	40.000000
Data Points	2401
Detector	RI
Generating Data System	Chromeleon 7.2.5.9507
Exporting Data System	Chromeleon 7.2.5.0
Operator	Instrument Controller
Signal Quantity	Refractive 
Signal Unit	µRIU
Signal Min.	-0.784125
Signal Max.	57.216875
Channel	RI_1
Driver Name	RID520Driver.dll
Channel Type	Evaluation
Min. Step (s)	1
Max. Step (s)	1
Average Step (s)	1

Signal Parameter Information:
Signal Info	

Chromatogram Data:
Time (min)	Step (s)	Value (µRIU)
0.000000	n.a.	-0.025500
0.016667	1	-0.026500
0.033333	1	-0.027625
0.050000	1	-0.028625
0.066667	1	-0.028750
0.083333	1	-0.030000
0.100000	1	-0.030500
0.116667	1	-0.031250
0.133333	1	-0.032250
0.150000	1	-0.033125
0.166667	1	-0.034875
0.183333	1	-0.036125
0.200000	1	-0.037000
0.216667	1	-0.038375
0.233333	1	-0.039000
0.250000	1	-0.039125
0.266667	1	-0.040875
0.283333	1	-0.042625
0.300000	1	-0.046750
0.316667	1	-0.051500
0.333333	1	-0.054500
0.350000	1	-0.054500
0.366667	1	-0.052750
0.383333	1	-0.049625
0.400000	1	-0.047000
0.416667	1	-0.045000
0.433333	1	-0.042750
0.450000	1	-0.040500
0.466667	1	-0.039625
0.483333	1	-0.040875
0.500000	1	-0.042875
0.516667	1	-0.045500
0.533333	1	-0.048500
0.550000	1	-0.050875
0.566667	1	-0.053875
0.583333	1	-0.055750
0.600000	1	-0.057250
0.616667	1	-0.058375
0.633333	1	-0.059500
0.650000	1	-0.060750
0.666667	1	-0.062250
0.683333	1	-0.063625
0.700000	1	-0.064875
0.716667	1	-0.066375
0.733333	1	-0.067750
0.750000	1	-0.068625
0.766667	1	-0.069375
0.783333	1	-0.070000
0.800000	1	-0.070875
0.816667	1	-0.072375
0.833333	1	-0.073375
0.850000	1	-0.073750
0.866667	1	-0.074375
0.883333	1	-0.075250
0.900000	1	-0.075750
0.916667	1	-0.076750
0.933333	1	-0.078000
0.950000	1	-0.079000
0.966667	1	-0.080250
0.983333	1	-0.081375
1.000000	1	-0.082125
1.016667	1	-0.082500
1.033333	1	-0.083125
1.050000	1	-0.083250
1.066667	1	-0.084500
1.083333	1	-0.084750
1.100000	1	-0.086375
1.116667	1	-0.087000
1.133333	1	-0.088125
1.150000	1	-0.087875
1.166667	1	-0.088375
1.183333	1	-0.088625
1.200000	1	-0.089000
1.216667	1	-0.089250
1.233333	1	-0.089500
1.250000	1	-0.089500
1.266667	1	-0.089875
1.283333	1	-0.089750
1.300000	1	-0.090125
1.316667	1	-0.090500
1.333333	1	-0.090250
1.350000	1	-0.090000
1.366667	1	-0.089625
1.383333	1	-0.090250
1.400000	1	-0.090250
1.416667	1	-0.089500
1.433333	1	-0.088625
1.450000	1	-0.088000
1.466667	1	-0.087625
1.483333	1	-0.086375
1.500000	1	-0.085000
1.516667	1	-0.084250
1.533333	1	-0.082875
1.550000	1	-0.081625
1.566667	1	-0.081250
1.583333	1	-0.080500
1.600000	1	-0.079875
1.616667	1	-0.078625
1.633333	1	-0.077875
1.650000	1	-0.077000
1.666667	1	-0.076125
1.683333	1	-0.075750
1.700000	1	-0.075625
1.716667	1	-0.075375
1.733333	1	-0.074875
1.750000	1	-0.073875
1.766667	1	-0.072750
1.783333	1	-0.072250
1.800000	1	-0.072125
1.816667	1	-0.071750
1.833333	1	-0.071750
1.850000	1	-0.071625
1.866667	1	-0.070750
1.883333	1	-0.070875
1.900000	1	-0.071250
1.916667	1	-0.071375
1.933333	1	-0.071625
1.950000	1	-0.072125
1.966667	1	-0.072375
1.983333	1	-0.072625
2.000000	1	-0.072500
2.016667	1	-0.072250
2.033333	1	-0.071875
2.050000	1	-0.071625
2.066667	1	-0.071625
2.083333	1	-0.071375
2.100000	1	-0.071000
2.116667	1	-0.070125
2.133333	1	-0.069500
2.150000	1	-0.069250
2.166667	1	-0.068375
2.183333	1	-0.067875
2.200000	1	-0.067000
2.216667	1	-0.066750
2.233333	1	-0.065875
2.250000	1	-0.064625
2.266667	1	-0.063375
2.283333	1	-0.062375
2.300000	1	-0.061750
2.316667	1	-0.060375
2.333333	1	-0.059375
2.350000	1	-0.058250
2.366667	1	-0.056375
2.383333	1	-0.054625
2.400000	1	-0.053125
2.416667	1	-0.052125
2.433333	1	-0.050125
2.450000	1	-0.048250
2.466667	1	-0.046500
2.483333	1	-0.045000
2.500000	1	-0.044125
2.516667	1	-0.041750
2.533333	1	-0.039875
2.550000	1	-0.037750
2.566667	1	-0.036000
2.583333	1	-0.034125
2.600000	1	-0.032875
2.616667	1	-0.031125
2.633333	1	-0.028625
2.650000	1	-0.026625
2.666667	1	-0.024875
2.683333	1	-0.023000
2.700000	1	-0.021125
2.716667	1	-0.019375
2.733333	1	-0.018125
2.750000	1	-0.016375
2.766667	1	-0.015000
2.783333	1	-0.013500
2.800000	1	-0.011875
2.816667	1	-0.010375
2.833333	1	-0.009125
2.850000	1	-0.007750
2.866667	1	-0.006375
2.883333	1	-0.005375
2.900000	1	-0.004125
2.916667	1	-0.003625
2.933333	1	-0.002250
2.950000	1	-0.001625
2.966667	1	-0.001375
2.983333	1	-0.001250
3.000000	1	-0.001125
3.016667	1	-0.001250
3.033333	1	-0.000500
3.050000	1	-0.000500
3.066667	1	-0.000250
3.083333	1	-0.000875
3.100000	1	-0.001875
3.116667	1	-0.001625
3.133333	1	-0.003000
3.150000	1	-0.003875
3.166667	1	-0.005125
3.183333	1	-0.005625
3.200000	1	-0.006750
3.216667	1	-0.007625
3.233333	1	-0.008500
3.250000	1	-0.009875
3.266667	1	-0.010750
3.283333	1	-0.012000
3.300000	1	-0.012875
3.316667	1	-0.013875
3.333333	1	-0.014750
3.350000	1	-0.015875
3.366667	1	-0.016750
3.383333	1	-0.017750
3.400000	1	-0.017500
3.416667	1	-0.017250
3.433333	1	-0.017625
3.450000	1	-0.018625
3.466667	1	-0.019125
3.483333	1	-0.019500
3.500000	1	-0.019500
3.516667	1	-0.020000
3.533333	1	-0.020625
3.550000	1	-0.021375
3.566667	1	-0.022125
3.583333	1	-0.022750
3.600000	1	-0.023250
3.616667	1	-0.024000
3.633333	1	-0.024625
3.650000	1	-0.025250
3.666667	1	-0.026125
3.683333	1	-0.026500
3.700000	1	-0.027000
3.716667	1	-0.027250
3.733333	1	-0.028250
3.750000	1	-0.029000
3.766667	1	-0.029625
3.783333	1	-0.030375
3.800000	1	-0.030875
3.816667	1	-0.031375
3.833333	1	-0.032375
3.850000	1	-0.032750
3.866667	1	-0.033250
3.883333	1	-0.033375
3.900000	1	-0.034125
3.916667	1	-0.035000
3.933333	1	-0.035500
3.950000	1	-0.035250
3.966667	1	-0.035625
3.983333	1	-0.035875
4.000000	1	-0.036250
4.016667	1	-0.036625
4.033333	1	-0.036000
4.050000	1	-0.035750
4.066667	1	-0.036250
4.083333	1	-0.036625
4.100000	1	-0.036750
4.116667	1	-0.036750
4.133333	1	-0.037250
4.150000	1	-0.037500
4.166667	1	-0.037625
4.183333	1	-0.038250
4.200000	1	-0.038125
4.216667	1	-0.038500
4.233333	1	-0.039250
4.250000	1	-0.040000
4.266667	1	-0.040625
4.283333	1	-0.041750
4.300000	1	-0.042250
4.316667	1	-0.042500
4.333333	1	-0.043125
4.350000	1	-0.043125
4.366667	1	-0.043500
4.383333	1	-0.043250
4.400000	1	-0.043125
4.416667	1	-0.043000
4.433333	1	-0.042750
4.450000	1	-0.042125
4.466667	1	-0.042000
4.483333	1	-0.041625
4.500000	1	-0.041250
4.516667	1	-0.040625
4.533333	1	-0.040125
4.550000	1	-0.039125
4.566667	1	-0.037750
4.583333	1	-0.036375
4.600000	1	-0.035250
4.616667	1	-0.033375
4.633333	1	-0.032000
4.650000	1	-0.031250
4.666667	1	-0.030625
4.683333	1	-0.029500
4.700000	1	-0.028375
4.716667	1	-0.027375
4.733333	1	-0.025250
4.750000	1	-0.023750
4.766667	1	-0.022250
4.783333	1	-0.021000
4.800000	1	-0.019125
4.816667	1	-0.017125
4.833333	1	-0.015000
4.850000	1	-0.013750
4.866667	1	-0.012125
4.883333	1	-0.011250
4.900000	1	-0.008875
4.916667	1	-0.006625
4.933333	1	-0.003750
4.950000	1	-0.001500
4.966667	1	0.000125
4.983333	1	0.003000
5.000000	1	0.005250
5.016667	1	0.007250
5.033333	1	0.009500
5.050000	1	0.011250
5.066667	1	0.013875
5.083333	1	0.015750
5.100000	1	0.017875
5.116667	1	0.019875
5.133333	1	0.021250
5.150000	1	0.023375
5.166667	1	0.025750
5.183333	1	0.027500
5.200000	1	0.029000
5.216667	1	0.031125
5.233333	1	0.032375
5.250000	1	0.034000
5.266667	1	0.034375
5.283333	1	0.035500
5.300000	1	0.036500
5.316667	1	0.037750
5.333333	1	0.038125
5.350000	1	0.038750
5.366667	1	0.039625
5.383333	1	0.040250
5.400000	1	0.040250
5.416667	1	0.040000
5.433333	1	0.040250
5.450000	1	0.040250
5.466667	1	0.039875
5.483333	1	0.038875
5.500000	1	0.038125
5.516667	1	0.037625
5.533333	1	0.037000
5.550000	1	0.035375
5.566667	1	0.034750
5.583333	1	0.034125
5.600000	1	0.032625
5.616667	1	0.031375
5.633333	1	0.030875
5.650000	1	0.029625
5.666667	1	0.028500
5.683333	1	0.027125
5.700000	1	0.026125
5.716667	1	0.024875
5.733333	1	0.024000
5.750000	1	0.022875
5.766667	1	0.021875
5.783333	1	0.020500
5.800000	1	0.019750
5.816667	1	0.018750
5.833333	1	0.017625
5.850000	1	0.016375
5.866667	1	0.015250
5.883333	1	0.014250
5.900000	1	0.012250
5.916667	1	0.011125
5.933333	1	0.009875
5.950000	1	0.008875
5.966667	1	0.007250
5.983333	1	0.006000
6.000000	1	0.004375
6.016667	1	0.003375
6.033333	1	0.001375
6.050000	1	0.000250
6.066667	1	-0.000625
6.083333	1	-0.001000
6.100000	1	-0.002375
6.116667	1	-0.003875
6.133333	1	-0.004750
6.150000	1	-0.005375
6.166667	1	-0.005750
6.183333	1	-0.006000
6.200000	1	-0.007000
6.216667	1	-0.007250
6.233333	1	-0.007375
6.250000	1	-0.007625
6.266667	1	-0.008500
6.283333	1	-0.008750
6.300000	1	-0.008125
6.316667	1	-0.007875
6.333333	1	-0.006875
6.350000	1	-0.005375
6.366667	1	-0.004250
6.383333	1	-0.003125
6.400000	1	-0.002000
6.416667	1	-0.000875
6.433333	1	0.000625
6.450000	1	0.002125
6.466667	1	0.003750
6.483333	1	0.005375
6.500000	1	0.007875
6.516667	1	0.010000
6.533333	1	0.012000
6.550000	1	0.014000
6.566667	1	0.016750
6.583333	1	0.019000
6.600000	1	0.021750
6.616667	1	0.024375
6.633333	1	0.026250
6.650000	1	0.028000
6.666667	1	0.030750
6.683333	1	0.032125
6.700000	1	0.032875
6.716667	1	0.034500
6.733333	1	0.035375
6.750000	1	0.036875
6.766667	1	0.037625
6.783333	1	0.038500
6.800000	1	0.038750
6.816667	1	0.039250
6.833333	1	0.039125
6.850000	1	0.039375
6.866667	1	0.039125
6.883333	1	0.038250
6.900000	1	0.036750
6.916667	1	0.035875
6.933333	1	0.034625
6.950000	1	0.033500
6.966667	1	0.032500
6.983333	1	0.030875
7.000000	1	0.029125
7.016667	1	0.027375
7.033333	1	0.025500
7.050000	1	0.023250
7.066667	1	0.020750
7.083333	1	0.018875
7.100000	1	0.017000
7.116667	1	0.014625
7.133333	1	0.012875
7.150000	1	0.010750
7.166667	1	0.008750
7.183333	1	0.006250
7.200000	1	0.004125
7.216667	1	0.001625
7.233333	1	-0.000375
7.250000	1	-0.003250
7.266667	1	-0.005500
7.283333	1	-0.007375
7.300000	1	-0.009500
7.316667	1	-0.012000
7.333333	1	-0.014500
7.350000	1	-0.016375
7.366667	1	-0.018625
7.383333	1	-0.020500
7.400000	1	-0.022250
7.416667	1	-0.024375
7.433333	1	-0.027250
7.450000	1	-0.029000
7.466667	1	-0.030500
7.483333	1	-0.031750
7.500000	1	-0.033250
7.516667	1	-0.035750
7.533333	1	-0.037500
7.550000	1	-0.039125
7.566667	1	-0.041250
7.583333	1	-0.043625
7.600000	1	-0.045125
7.616667	1	-0.047250
7.633333	1	-0.049000
7.650000	1	-0.051000
7.666667	1	-0.052625
7.683333	1	-0.054250
7.700000	1	-0.055750
7.716667	1	-0.057000
7.733333	1	-0.058375
7.750000	1	-0.060125
7.766667	1	-0.061250
7.783333	1	-0.062000
7.800000	1	-0.063750
7.816667	1	-0.065500
7.833333	1	-0.067000
7.850000	1	-0.067875
7.866667	1	-0.068750
7.883333	1	-0.069625
7.900000	1	-0.070500
7.916667	1	-0.071000
7.933333	1	-0.072125
7.950000	1	-0.073625
7.966667	1	-0.073750
7.983333	1	-0.074750
8.000000	1	-0.075625
8.016667	1	-0.076125
8.033333	1	-0.076875
8.050000	1	-0.077000
8.066667	1	-0.077750
8.083333	1	-0.077625
8.100000	1	-0.078250
8.116667	1	-0.078000
8.133333	1	-0.077375
8.150000	1	-0.077625
8.166667	1	-0.078250
8.183333	1	-0.078625
8.200000	1	-0.079000
8.216667	1	-0.079375
8.233333	1	-0.079625
8.250000	1	-0.079750
8.266667	1	-0.079500
8.283333	1	-0.079375
8.300000	1	-0.079625
8.316667	1	-0.079750
8.333333	1	-0.079625
8.350000	1	-0.079125
8.366667	1	-0.079000
8.383333	1	-0.078875
8.400000	1	-0.079625
8.416667	1	-0.080000
8.433333	1	-0.079375
8.450000	1	-0.079625
8.466667	1	-0.078875
8.483333	1	-0.078375
8.500000	1	-0.077875
8.516667	1	-0.077125
8.533333	1	-0.076875
8.550000	1	-0.076000
8.566667	1	-0.075125
8.583333	1	-0.075000
8.600000	1	-0.074875
8.616667	1	-0.074875
8.633333	1	-0.074375
8.650000	1	-0.073625
8.666667	1	-0.072875
8.683333	1	-0.071875
8.700000	1	-0.070625
8.716667	1	-0.070125
8.733333	1	-0.069250
8.750000	1	-0.068250
8.766667	1	-0.067375
8.783333	1	-0.066500
8.800000	1	-0.066250
8.816667	1	-0.065625
8.833333	1	-0.064750
8.850000	1	-0.064625
8.866667	1	-0.063750
8.883333	1	-0.062875
8.900000	1	-0.062625
8.916667	1	-0.062250
8.933333	1	-0.061875
8.950000	1	-0.061750
8.966667	1	-0.061875
8.983333	1	-0.062125
9.000000	1	-0.062500
9.016667	1	-0.063125
9.033333	1	-0.063250
9.050000	1	-0.063625
9.066667	1	-0.063625
9.083333	1	-0.063750
9.100000	1	-0.063875
9.116667	1	-0.063625
9.133333	1	-0.063375
9.150000	1	-0.063500
9.166667	1	-0.063000
9.183333	1	-0.063000
9.200000	1	-0.063375
9.216667	1	-0.063750
9.233333	1	-0.064375
9.250000	1	-0.064875
9.266667	1	-0.064625
9.283333	1	-0.065000
9.300000	1	-0.065500
9.316667	1	-0.064750
9.333333	1	-0.063875
9.350000	1	-0.063875
9.366667	1	-0.063500
9.383333	1	-0.062750
9.400000	1	-0.062500
9.416667	1	-0.062375
9.433333	1	-0.061750
9.450000	1	-0.061000
9.466667	1	-0.059500
9.483333	1	-0.057375
9.500000	1	-0.054750
9.516667	1	-0.052500
9.533333	1	-0.049125
9.550000	1	-0.044250
9.566667	1	-0.039250
9.583333	1	-0.032500
9.600000	1	-0.025250
9.616667	1	-0.016500
9.633333	1	-0.005875
9.650000	1	0.006750
9.666667	1	0.021250
9.683333	1	0.038625
9.700000	1	0.057125
9.716667	1	0.076625
9.733333	1	0.097125
9.750000	1	0.116875
9.766667	1	0.135625
9.783333	1	0.151500
9.800000	1	0.163875
9.816667	1	0.171000
9.833333	1	0.172625
9.850000	1	0.167750
9.866667	1	0.153875
9.883333	1	0.129250
9.900000	1	0.097375
9.916667	1	0.066625
9.933333	1	0.060625
9.950000	1	0.120000
9.966667	1	0.299375
9.983333	1	0.660375
10.000000	1	1.265500
10.016667	1	2.170500
10.033333	1	3.418625
10.050000	1	5.038375
10.066667	1	7.044000
10.083333	1	9.438250
10.100000	1	12.210875
10.116667	1	15.335875
10.133333	1	18.769125
10.150000	1	22.449750
10.166667	1	26.290125
10.183333	1	30.174625
10.200000	1	33.958875
10.216667	1	37.467250
10.233333	1	40.498000
10.250000	1	42.845375
10.266667	1	44.331000
10.283333	1	44.832500
10.300000	1	44.311125
10.316667	1	42.825000
10.333333	1	40.522500
10.350000	1	37.612500
10.366667	1	34.330750
10.383333	1	30.905875
10.400000	1	27.524750
10.416667	1	24.326000
10.433333	1	21.396000
10.450000	1	18.778500
10.466667	1	16.477375
10.483333	1	14.476625
10.500000	1	12.747625
10.516667	1	11.254375
10.533333	1	9.965250
10.550000	1	8.848000
10.566667	1	7.877375
10.583333	1	7.032500
10.600000	1	6.296375
10.616667	1	5.655625
10.633333	1	5.098375
10.650000	1	4.615500
10.666667	1	4.198125
10.683333	1	3.836875
10.700000	1	3.524750
10.716667	1	3.254375
10.733333	1	3.018625
10.750000	1	2.811375
10.766667	1	2.629750
10.783333	1	2.468625
10.800000	1	2.324875
10.816667	1	2.197000
10.833333	1	2.081625
10.850000	1	1.976875
10.866667	1	1.882000
10.883333	1	1.796500
10.900000	1	1.718250
10.916667	1	1.646875
10.933333	1	1.581000
10.950000	1	1.520500
10.966667	1	1.465750
10.983333	1	1.414000
11.000000	1	1.366375
11.016667	1	1.323000
11.033333	1	1.282375
11.050000	1	1.244375
11.066667	1	1.210250
11.083333	1	1.178250
11.100000	1	1.148625
11.116667	1	1.120750
11.133333	1	1.094750
11.150000	1	1.070125
11.166667	1	1.047875
11.183333	1	1.026250
11.200000	1	1.007125
11.216667	1	0.989000
11.233333	1	0.971750
11.250000	1	0.954750
11.266667	1	0.939375
11.283333	1	0.925000
11.300000	1	0.911000
11.316667	1	0.897375
11.333333	1	0.884000
11.350000	1	0.871500
11.366667	1	0.859375
11.383333	1	0.847750
11.400000	1	0.836875
11.416667	1	0.827250
11.433333	1	0.818625
11.450000	1	0.810875
11.466667	1	0.804000
11.483333	1	0.798750
11.500000	1	0.794625
11.516667	1	0.791250
11.533333	1	0.788000
11.550000	1	0.786500
11.566667	1	0.785250
11.583333	1	0.785000
11.600000	1	0.785750
11.616667	1	0.787000
11.633333	1	0.788375
11.650000	1	0.789875
11.666667	1	0.791375
11.683333	1	0.793250
11.700000	1	0.795000
11.716667	1	0.797500
11.733333	1	0.799000
11.750000	1	0.800875
11.766667	1	0.801750
11.783333	1	0.803125
11.800000	1	0.805250
11.816667	1	0.807625
11.833333	1	0.810625
11.850000	1	0.814625
11.866667	1	0.820250
11.883333	1	0.826625
11.900000	1	0.834250
11.916667	1	0.844000
11.933333	1	0.855875
11.950000	1	0.870000
11.966667	1	0.886750
11.983333	1	0.905750
12.000000	1	0.927625
12.016667	1	0.952750
12.033333	1	0.981625
12.050000	1	1.013375
12.066667	1	1.050250
12.083333	1	1.092250
12.100000	1	1.141125
12.116667	1	1.200375
12.133333	1	1.269500
12.150000	1	1.352625
12.166667	1	1.452125
12.183333	1	1.569500
12.200000	1	1.707625
12.216667	1	1.868125
12.233333	1	2.052000
12.250000	1	2.260500
12.266667	1	2.495875
12.283333	1	2.759375
12.300000	1	3.052500
12.316667	1	3.376750
12.333333	1	3.735375
12.350000	1	4.130000
12.366667	1	4.563875
12.383333	1	5.038750
12.400000	1	5.555875
12.416667	1	6.113625
12.433333	1	6.708125
12.450000	1	7.332625
12.466667	1	7.976625
12.483333	1	8.624125
12.500000	1	9.256250
12.516667	1	9.849500
12.533333	1	10.378250
12.550000	1	10.821125
12.566667	1	11.163000
12.583333	1	11.397875
12.600000	1	11.528250
12.616667	1	11.563875
12.633333	1	11.517500
12.650000	1	11.404625
12.666667	1	11.238250
12.683333	1	11.030500
12.700000	1	10.794000
12.716667	1	10.536875
12.733333	1	10.266625
12.750000	1	9.988625
12.766667	1	9.708125
12.783333	1	9.429250
12.800000	1	9.153625
12.816667	1	8.883750
12.833333	1	8.621625
12.850000	1	8.367625
12.866667	1	8.120375
12.883333	1	7.879500
12.900000	1	7.644875
12.916667	1	7.415250
12.933333	1	7.187500
12.950000	1	6.962000
12.966667	1	6.737375
12.983333	1	6.510125
13.000000	1	6.279500
13.016667	1	6.043125
13.033333	1	5.799250
13.050000	1	5.544500
13.066667	1	5.277500
13.083333	1	4.994000
13.100000	1	4.692000
13.116667	1	4.368375
13.133333	1	4.021875
13.150000	1	3.653250
13.166667	1	3.270875
13.183333	1	2.888625
13.200000	1	2.527375
13.216667	1	2.205750
13.233333	1	1.935375
13.250000	1	1.715625
13.266667	1	1.541625
13.283333	1	1.403750
13.300000	1	1.293250
13.316667	1	1.203875
13.333333	1	1.130375
13.350000	1	1.069500
13.366667	1	1.017500
13.383333	1	0.972875
13.400000	1	0.933750
13.416667	1	0.899875
13.433333	1	0.869625
13.450000	1	0.843125
13.466667	1	0.819875
13.483333	1	0.799250
13.500000	1	0.781375
13.516667	1	0.766125
13.533333	1	0.754125
13.550000	1	0.743250
13.566667	1	0.734750
13.583333	1	0.729000
13.600000	1	0.724125
13.616667	1	0.722125
13.633333	1	0.720125
13.650000	1	0.719000
13.666667	1	0.717500
13.683333	1	0.716125
13.700000	1	0.714000
13.716667	1	0.710750
13.733333	1	0.706625
13.750000	1	0.700875
13.766667	1	0.694125
13.783333	1	0.685625
13.800000	1	0.675750
13.816667	1	0.664500
13.833333	1	0.652875
13.850000	1	0.640250
13.866667	1	0.627375
13.883333	1	0.614375
13.900000	1	0.601375
13.916667	1	0.588375
13.933333	1	0.575125
13.950000	1	0.562250
13.966667	1	0.549625
13.983333	1	0.538125
14.000000	1	0.527500
14.016667	1	0.518250
14.033333	1	0.509625
14.050000	1	0.502250
14.066667	1	0.496375
14.083333	1	0.491375
14.100000	1	0.487750
14.116667	1	0.484875
14.133333	1	0.484000
14.150000	1	0.484625
14.166667	1	0.487375
14.183333	1	0.491875
14.200000	1	0.499000
14.216667	1	0.509000
14.233333	1	0.522875
14.250000	1	0.539625
14.266667	1	0.561125
14.283333	1	0.587875
14.300000	1	0.620500
14.316667	1	0.660250
14.333333	1	0.709000
14.350000	1	0.767000
14.366667	1	0.836125
14.383333	1	0.918125
14.400000	1	1.014250
14.416667	1	1.126375
14.433333	1	1.255375
14.450000	1	1.404625
14.466667	1	1.576250
14.483333	1	1.772625
14.500000	1	1.997000
14.516667	1	2.252250
14.533333	1	2.543750
14.550000	1	2.877125
14.566667	1	3.260250
14.583333	1	3.702000
14.600000	1	4.214750
14.616667	1	4.816250
14.633333	1	5.528625
14.650000	1	6.380625
14.666667	1	7.403875
14.683333	1	8.636500
14.700000	1	10.118500
14.716667	1	11.890625
14.733333	1	13.985250
14.750000	1	16.428250
14.766667	1	19.229375
14.783333	1	22.377875
14.800000	1	25.844125
14.816667	1	29.572375
14.833333	1	33.483125
14.850000	1	37.471375
14.866667	1	41.412375
14.883333	1	45.169875
14.900000	1	48.604625
14.916667	1	51.586250
14.933333	1	54.004250
14.950000	1	55.777250
14.966667	1	56.853750
14.983333	1	57.216875
15.000000	1	56.883625
15.016667	1	55.897250
15.033333	1	54.324500
15.050000	1	52.248125
15.066667	1	49.762500
15.083333	1	46.966000
15.100000	1	43.954750
15.116667	1	40.819250
15.133333	1	37.642000
15.150000	1	34.491250
15.166667	1	31.426500
15.183333	1	28.493000
15.200000	1	25.720750
15.216667	1	23.128500
15.233333	1	20.728500
15.250000	1	18.524375
15.266667	1	16.514125
15.283333	1	14.693000
15.300000	1	13.053500
15.316667	1	11.585500
15.333333	1	10.277625
15.350000	1	9.118500
15.366667	1	8.094875
15.383333	1	7.195125
15.400000	1	6.406500
15.416667	1	5.718000
15.433333	1	5.118375
15.450000	1	4.598000
15.466667	1	4.147375
15.483333	1	3.759750
15.500000	1	3.427625
15.516667	1	3.143875
15.533333	1	2.902875
15.550000	1	2.699250
15.566667	1	2.526500
15.583333	1	2.381250
15.600000	1	2.257500
15.616667	1	2.152000
15.633333	1	2.060000
15.650000	1	1.978625
15.666667	1	1.905875
15.683333	1	1.837875
15.700000	1	1.774750
15.716667	1	1.714000
15.733333	1	1.655500
15.750000	1	1.597000
15.766667	1	1.540875
15.783333	1	1.486625
15.800000	1	1.433625
15.816667	1	1.382000
15.833333	1	1.333000
15.850000	1	1.286500
15.866667	1	1.241250
15.883333	1	1.197375
15.900000	1	1.157250
15.916667	1	1.119000
15.933333	1	1.083125
15.950000	1	1.050500
15.966667	1	1.019875
15.983333	1	0.991125
16.000000	1	0.965250
16.016667	1	0.942250
16.033333	1	0.920750
16.050000	1	0.901375
16.066667	1	0.884000
16.083333	1	0.869500
16.100000	1	0.856250
16.116667	1	0.844500
16.133333	1	0.834875
16.150000	1	0.827125
16.166667	1	0.820500
16.183333	1	0.814875
16.200000	1	0.809500
16.216667	1	0.805625
16.233333	1	0.801750
16.250000	1	0.799250
16.266667	1	0.796000
16.283333	1	0.792375
16.300000	1	0.789375
16.316667	1	0.786000
16.333333	1	0.782750
16.350000	1	0.778625
16.366667	1	0.774750
16.383333	1	0.771625
16.400000	1	0.768625
16.416667	1	0.765750
16.433333	1	0.763250
16.450000	1	0.761625
16.466667	1	0.760750
16.483333	1	0.760000
16.500000	1	0.760375
16.516667	1	0.760375
16.533333	1	0.762000
16.550000	1	0.764000
16.566667	1	0.766875
16.583333	1	0.770625
16.600000	1	0.775250
16.616667	1	0.779500
16.633333	1	0.784500
16.650000	1	0.790125
16.666667	1	0.795250
16.683333	1	0.801875
16.700000	1	0.808375
16.716667	1	0.814875
16.733333	1	0.821375
16.750000	1	0.828000
16.766667	1	0.833375
16.783333	1	0.839125
16.800000	1	0.844250
16.816667	1	0.848125
16.833333	1	0.850875
16.850000	1	0.852750
16.866667	1	0.853625
16.883333	1	0.854625
16.900000	1	0.854500
16.916667	1	0.854000
16.933333	1	0.853250
16.950000	1	0.851750
16.966667	1	0.851125
16.983333	1	0.851125
17.000000	1	0.851125
17.016667	1	0.852125
17.033333	1	0.853000
17.050000	1	0.855000
17.066667	1	0.856750
17.083333	1	0.858625
17.100000	1	0.859875
17.116667	1	0.860625
17.133333	1	0.861250
17.150000	1	0.860875
17.166667	1	0.859625
17.183333	1	0.857250
17.200000	1	0.854250
17.216667	1	0.849875
17.233333	1	0.845375
17.250000	1	0.839500
17.266667	1	0.833750
17.283333	1	0.827625
17.300000	1	0.820500
17.316667	1	0.813625
17.333333	1	0.806625
17.350000	1	0.800250
17.366667	1	0.794375
17.383333	1	0.789500
17.400000	1	0.784125
17.416667	1	0.779125
17.433333	1	0.775375
17.450000	1	0.772875
17.466667	1	0.769750
17.483333	1	0.767750
17.500000	1	0.767000
17.516667	1	0.766750
17.533333	1	0.767375
17.550000	1	0.768750
17.566667	1	0.771250
17.583333	1	0.774875
17.600000	1	0.778750
17.616667	1	0.784500
17.633333	1	0.790375
17.650000	1	0.797375
17.666667	1	0.805500
17.683333	1	0.814375
17.700000	1	0.823625
17.716667	1	0.833750
17.733333	1	0.844000
17.750000	1	0.855625
17.766667	1	0.867875
17.783333	1	0.879625
17.800000	1	0.890875
17.816667	1	0.901875
17.833333	1	0.912875
17.850000	1	0.922625
17.866667	1	0.930875
17.883333	1	0.937875
17.900000	1	0.942625
17.916667	1	0.945875
17.933333	1	0.947000
17.950000	1	0.945875
17.966667	1	0.944125
17.983333	1	0.940500
18.000000	1	0.934750
18.016667	1	0.926625
18.033333	1	0.916250
18.050000	1	0.904625
18.066667	1	0.892750
18.083333	1	0.879375
18.100000	1	0.865125
18.116667	1	0.850375
18.133333	1	0.835250
18.150000	1	0.819750
18.166667	1	0.804375
18.183333	1	0.789125
18.200000	1	0.774500
18.216667	1	0.759500
18.233333	1	0.745750
18.250000	1	0.732625
18.266667	1	0.720125
18.283333	1	0.708625
18.300000	1	0.698750
18.316667	1	0.689625
18.333333	1	0.681375
18.350000	1	0.674875
18.366667	1	0.669125
18.383333	1	0.664875
18.400000	1	0.660875
18.416667	1	0.657625
18.433333	1	0.654750
18.450000	1	0.652500
18.466667	1	0.651000
18.483333	1	0.650250
18.500000	1	0.649875
18.516667	1	0.650125
18.533333	1	0.650500
18.550000	1	0.651500
18.566667	1	0.652875
18.583333	1	0.654375
18.600000	1	0.656250
18.616667	1	0.658375
18.633333	1	0.661125
18.650000	1	0.663750
18.666667	1	0.666875
18.683333	1	0.671125
18.700000	1	0.675500
18.716667	1	0.680625
18.733333	1	0.686375
18.750000	1	0.692250
18.766667	1	0.698625
18.783333	1	0.706000
18.800000	1	0.713500
18.816667	1	0.722000
18.833333	1	0.730750
18.850000	1	0.740750
18.866667	1	0.751000
18.883333	1	0.762250
18.900000	1	0.774625
18.916667	1	0.789125
18.933333	1	0.804125
18.950000	1	0.821500
18.966667	1	0.840375
18.983333	1	0.861875
19.000000	1	0.886000
19.016667	1	0.912750
19.033333	1	0.942375
19.050000	1	0.974625
19.066667	1	1.008500
19.083333	1	1.044500
19.100000	1	1.082125
19.116667	1	1.120875
19.133333	1	1.159875
19.150000	1	1.198750
19.166667	1	1.235750
19.183333	1	1.270750
19.200000	1	1.302875
19.216667	1	1.331250
19.233333	1	1.355750
19.250000	1	1.374500
19.266667	1	1.388375
19.283333	1	1.395875
19.300000	1	1.397875
19.316667	1	1.393125
19.333333	1	1.382500
19.350000	1	1.366250
19.366667	1	1.345125
19.383333	1	1.318500
19.400000	1	1.288125
19.416667	1	1.253625
19.433333	1	1.216250
19.450000	1	1.176375
19.466667	1	1.135250
19.483333	1	1.093250
19.500000	1	1.051000
19.516667	1	1.008375
19.533333	1	0.967875
19.550000	1	0.928000
19.566667	1	0.889625
19.583333	1	0.853875
19.600000	1	0.819875
19.616667	1	0.788125
19.633333	1	0.759750
19.650000	1	0.735125
19.666667	1	0.713000
19.683333	1	0.693750
19.700000	1	0.678625
19.716667	1	0.667000
19.733333	1	0.658500
19.750000	1	0.654000
19.766667	1	0.652625
19.783333	1	0.655125
19.800000	1	0.661000
19.816667	1	0.670250
19.833333	1	0.683000
19.850000	1	0.697625
19.866667	1	0.714875
19.883333	1	0.733625
19.900000	1	0.753875
19.916667	1	0.774875
19.933333	1	0.796375
19.950000	1	0.817125
19.966667	1	0.839000
19.983333	1	0.858750
20.000000	1	0.877500
20.016667	1	0.895375
20.033333	1	0.911000
20.050000	1	0.924625
20.066667	1	0.938125
20.083333	1	0.950125
20.100000	1	0.960375
20.116667	1	0.971000
20.133333	1	0.981875
20.150000	1	0.992500
20.166667	1	1.004250
20.183333	1	1.018125
20.200000	1	1.033875
20.216667	1	1.051875
20.233333	1	1.073500
20.250000	1	1.099375
20.266667	1	1.129000
20.283333	1	1.163875
20.300000	1	1.203125
20.316667	1	1.246375
20.333333	1	1.294500
20.350000	1	1.346625
20.366667	1	1.401875
20.383333	1	1.458750
20.400000	1	1.515625
20.416667	1	1.572500
20.433333	1	1.627500
20.450000	1	1.678750
20.466667	1	1.724875
20.483333	1	1.765625
20.500000	1	1.798875
20.516667	1	1.824875
20.533333	1	1.844250
20.550000	1	1.854875
20.566667	1	1.857625
20.583333	1	1.854000
20.600000	1	1.844750
20.616667	1	1.830500
20.633333	1	1.813125
20.650000	1	1.794625
20.666667	1	1.777375
20.683333	1	1.762125
20.700000	1	1.751375
20.716667	1	1.746625
20.733333	1	1.748750
20.750000	1	1.759125
20.766667	1	1.778125
20.783333	1	1.805500
20.800000	1	1.842125
20.816667	1	1.885750
20.833333	1	1.936875
20.850000	1	1.991750
20.866667	1	2.049500
20.883333	1	2.108000
20.900000	1	2.163750
20.916667	1	2.214250
20.933333	1	2.257250
20.950000	1	2.291000
20.966667	1	2.312500
20.983333	1	2.321125
21.000000	1	2.316375
21.016667	1	2.297875
21.033333	1	2.265125
21.050000	1	2.218625
21.066667	1	2.160625
21.083333	1	2.092125
21.100000	1	2.014625
21.116667	1	1.930500
21.133333	1	1.840750
21.150000	1	1.748125
21.166667	1	1.652875
21.183333	1	1.557375
21.200000	1	1.463125
21.216667	1	1.370875
21.233333	1	1.282875
21.250000	1	1.198000
21.266667	1	1.118875
21.283333	1	1.044625
21.300000	1	0.975750
21.316667	1	0.912125
21.333333	1	0.854125
21.350000	1	0.801000
21.366667	1	0.753375
21.383333	1	0.710125
21.400000	1	0.672250
21.416667	1	0.637125
21.433333	1	0.606500
21.450000	1	0.579000
21.466667	1	0.555000
21.483333	1	0.533875
21.500000	1	0.515750
21.516667	1	0.500625
21.533333	1	0.487375
21.550000	1	0.477125
21.566667	1	0.467875
21.583333	1	0.460625
21.600000	1	0.455000
21.616667	1	0.451000
21.633333	1	0.448500
21.650000	1	0.447625
21.666667	1	0.448500
21.683333	1	0.450750
21.700000	1	0.454875
21.716667	1	0.461375
21.733333	1	0.469250
21.750000	1	0.479625
21.766667	1	0.491125
21.783333	1	0.505000
21.800000	1	0.520750
21.816667	1	0.538750
21.833333	1	0.558625
21.850000	1	0.580375
21.866667	1	0.603500
21.883333	1	0.628250
21.900000	1	0.653875
21.916667	1	0.679000
21.933333	1	0.704000
21.950000	1	0.729000
21.966667	1	0.752625
21.983333	1	0.774750
22.000000	1	0.794375
22.016667	1	0.811375
22.033333	1	0.825250
22.050000	1	0.836375
22.066667	1	0.843375
22.083333	1	0.846250
22.100000	1	0.846250
22.116667	1	0.842375
22.133333	1	0.835375
22.150000	1	0.825375
22.166667	1	0.812375
22.183333	1	0.797250
22.200000	1	0.779875
22.216667	1	0.761250
22.233333	1	0.741500
22.250000	1	0.720500
22.266667	1	0.699875
22.283333	1	0.679375
22.300000	1	0.659875
22.316667	1	0.641125
22.333333	1	0.623125
22.350000	1	0.606750
22.366667	1	0.591875
22.383333	1	0.578125
22.400000	1	0.565500
22.416667	1	0.554250
22.433333	1	0.544125
22.450000	1	0.536250
22.466667	1	0.529875
22.483333	1	0.524500
22.500000	1	0.520125
22.516667	1	0.517250
22.533333	1	0.515250
22.550000	1	0.513250
22.566667	1	0.511625
22.583333	1	0.510750
22.600000	1	0.510375
22.616667	1	0.510875
22.633333	1	0.509875
22.650000	1	0.510000
22.666667	1	0.510000
22.683333	1	0.510250
22.700000	1	0.510250
22.716667	1	0.509000
22.733333	1	0.508250
22.750000	1	0.507125
22.766667	1	0.505125
22.783333	1	0.502500
22.800000	1	0.499500
22.816667	1	0.495375
22.833333	1	0.490625
22.850000	1	0.486125
22.866667	1	0.481000
22.883333	1	0.475875
22.900000	1	0.470500
22.916667	1	0.465000
22.933333	1	0.459125
22.950000	1	0.453125
22.966667	1	0.447125
22.983333	1	0.440750
23.000000	1	0.435125
23.016667	1	0.429750
23.033333	1	0.425375
23.050000	1	0.421500
23.066667	1	0.418000
23.083333	1	0.415500
23.100000	1	0.413250
23.116667	1	0.412500
23.133333	1	0.412750
23.150000	1	0.414625
23.166667	1	0.416750
23.183333	1	0.420750
23.200000	1	0.425875
23.216667	1	0.431625
23.233333	1	0.439000
23.250000	1	0.448625
23.266667	1	0.460000
23.283333	1	0.473750
23.300000	1	0.488750
23.316667	1	0.505000
23.333333	1	0.524250
23.350000	1	0.545125
23.366667	1	0.568375
23.383333	1	0.595125
23.400000	1	0.624875
23.416667	1	0.657375
23.433333	1	0.693625
23.450000	1	0.733500
23.466667	1	0.778625
23.483333	1	0.828875
23.500000	1	0.885875
23.516667	1	0.948625
23.533333	1	1.020125
23.550000	1	1.100250
23.566667	1	1.190250
23.583333	1	1.290625
23.600000	1	1.403500
23.616667	1	1.529250
23.633333	1	1.668250
23.650000	1	1.820875
23.666667	1	1.987250
23.683333	1	2.168375
23.700000	1	2.362375
23.716667	1	2.568375
23.733333	1	2.785250
23.750000	1	3.010875
23.766667	1	3.241000
23.783333	1	3.473875
23.800000	1	3.704500
23.816667	1	3.930375
23.833333	1	4.145250
23.850000	1	4.345875
23.866667	1	4.528625
23.883333	1	4.690375
23.900000	1	4.827500
23.916667	1	4.936625
23.933333	1	5.014250
23.950000	1	5.061375
23.966667	1	5.076750
23.983333	1	5.060000
24.000000	1	5.012000
24.016667	1	4.934750
24.033333	1	4.830250
24.050000	1	4.701875
24.066667	1	4.551500
24.083333	1	4.383250
24.100000	1	4.200250
24.116667	1	4.006500
24.133333	1	3.804875
24.150000	1	3.598000
24.166667	1	3.390125
24.183333	1	3.184000
24.200000	1	2.981875
24.216667	1	2.785375
24.233333	1	2.595875
24.250000	1	2.415875
24.266667	1	2.245500
24.283333	1	2.085500
24.300000	1	1.937500
24.316667	1	1.799750
24.333333	1	1.673500
24.350000	1	1.557625
24.366667	1	1.452750
24.383333	1	1.357125
24.400000	1	1.271000
24.416667	1	1.193250
24.433333	1	1.123000
24.450000	1	1.060375
24.466667	1	1.003000
24.483333	1	0.951875
24.500000	1	0.906000
24.516667	1	0.864375
24.533333	1	0.826000
24.550000	1	0.791375
24.566667	1	0.758375
24.583333	1	0.727750
24.600000	1	0.698875
24.616667	1	0.671250
24.633333	1	0.645625
24.650000	1	0.620750
24.666667	1	0.597125
24.683333	1	0.574125
24.700000	1	0.551875
24.716667	1	0.529875
24.733333	1	0.508500
24.750000	1	0.487250
24.766667	1	0.467375
24.783333	1	0.447375
24.800000	1	0.428875
24.816667	1	0.410875
24.833333	1	0.393250
24.850000	1	0.376125
24.866667	1	0.359875
24.883333	1	0.344500
24.900000	1	0.329375
24.916667	1	0.316375
24.933333	1	0.304625
24.950000	1	0.292625
24.966667	1	0.281750
24.983333	1	0.271875
25.000000	1	0.262750
25.016667	1	0.254375
25.033333	1	0.246750
25.050000	1	0.240500
25.066667	1	0.235125
25.083333	1	0.230500
25.100000	1	0.226500
25.116667	1	0.223500
25.133333	1	0.221125
25.150000	1	0.219125
25.166667	1	0.217500
25.183333	1	0.216875
25.200000	1	0.217125
25.216667	1	0.218000
25.233333	1	0.219375
25.250000	1	0.220875
25.266667	1	0.222125
25.283333	1	0.224625
25.300000	1	0.226875
25.316667	1	0.229000
25.333333	1	0.231750
25.350000	1	0.234875
25.366667	1	0.237625
25.383333	1	0.240500
25.400000	1	0.242875
25.416667	1	0.245875
25.433333	1	0.248375
25.450000	1	0.250750
25.466667	1	0.253125
25.483333	1	0.255125
25.500000	1	0.257625
25.516667	1	0.259000
25.533333	1	0.260500
25.550000	1	0.261250
25.566667	1	0.261375
25.583333	1	0.261500
25.600000	1	0.262000
25.616667	1	0.261750
25.633333	1	0.262000
25.650000	1	0.261625
25.666667	1	0.260750
25.683333	1	0.260125
25.700000	1	0.258250
25.716667	1	0.257000
25.733333	1	0.254875
25.750000	1	0.253125
25.766667	1	0.251250
25.783333	1	0.248750
25.800000	1	0.246500
25.816667	1	0.244000
25.833333	1	0.240500
25.850000	1	0.236875
25.866667	1	0.233625
25.883333	1	0.229125
25.900000	1	0.224125
25.916667	1	0.219875
25.933333	1	0.214375
25.950000	1	0.209000
25.966667	1	0.203250
25.983333	1	0.197250
26.000000	1	0.191000
26.016667	1	0.184250
26.033333	1	0.178000
26.050000	1	0.171500
26.066667	1	0.164750
26.083333	1	0.157875
26.100000	1	0.152125
26.116667	1	0.146000
26.133333	1	0.140125
26.150000	1	0.134000
26.166667	1	0.128750
26.183333	1	0.123250
26.200000	1	0.118750
26.216667	1	0.115125
26.233333	1	0.112625
26.250000	1	0.110250
26.266667	1	0.108125
26.283333	1	0.107375
26.300000	1	0.107000
26.316667	1	0.106750
26.333333	1	0.106750
26.350000	1	0.108000
26.366667	1	0.109625
26.383333	1	0.111750
26.400000	1	0.114125
26.416667	1	0.116000
26.433333	1	0.119000
26.450000	1	0.121750
26.466667	1	0.125250
26.483333	1	0.128000
26.500000	1	0.130875
26.516667	1	0.133500
26.533333	1	0.136000
26.550000	1	0.138125
26.566667	1	0.140625
26.583333	1	0.142250
26.600000	1	0.143625
26.616667	1	0.145125
26.633333	1	0.146125
26.650000	1	0.147000
26.666667	1	0.147625
26.683333	1	0.148875
26.700000	1	0.149250
26.716667	1	0.149375
26.733333	1	0.149250
26.750000	1	0.149250
26.766667	1	0.149250
26.783333	1	0.150000
26.800000	1	0.150500
26.816667	1	0.151125
26.833333	1	0.151625
26.850000	1	0.153750
26.866667	1	0.154875
26.883333	1	0.155875
26.900000	1	0.157500
26.916667	1	0.159375
26.933333	1	0.162625
26.950000	1	0.164625
26.966667	1	0.167625
26.983333	1	0.170375
27.000000	1	0.173875
27.016667	1	0.178000
27.033333	1	0.182500
27.050000	1	0.187625
27.066667	1	0.193500
27.083333	1	0.199250
27.100000	1	0.206000
27.116667	1	0.212625
27.133333	1	0.219875
27.150000	1	0.227750
27.166667	1	0.237250
27.183333	1	0.246750
27.200000	1	0.256750
27.216667	1	0.267875
27.233333	1	0.279625
27.250000	1	0.292000
27.266667	1	0.305750
27.283333	1	0.319875
27.300000	1	0.335875
27.316667	1	0.352750
27.333333	1	0.369500
27.350000	1	0.388125
27.366667	1	0.408375
27.383333	1	0.429375
27.400000	1	0.451875
27.416667	1	0.476500
27.433333	1	0.503125
27.450000	1	0.531625
27.466667	1	0.562625
27.483333	1	0.596125
27.500000	1	0.632500
27.516667	1	0.672250
27.533333	1	0.715875
27.550000	1	0.764250
27.566667	1	0.817375
27.583333	1	0.874625
27.600000	1	0.937875
27.616667	1	1.006625
27.633333	1	1.082000
27.650000	1	1.163500
27.666667	1	1.251625
27.683333	1	1.347250
27.700000	1	1.449125
27.716667	1	1.557750
27.733333	1	1.673125
27.750000	1	1.793625
27.766667	1	1.919375
27.783333	1	2.049500
27.800000	1	2.181750
27.816667	1	2.317500
27.833333	1	2.453000
27.850000	1	2.587750
27.866667	1	2.719625
27.883333	1	2.847000
27.900000	1	2.967875
27.916667	1	3.081625
27.933333	1	3.185625
27.950000	1	3.277750
27.966667	1	3.357750
27.983333	1	3.422375
28.000000	1	3.471250
28.016667	1	3.504625
28.033333	1	3.520375
28.050000	1	3.519000
28.066667	1	3.500250
28.083333	1	3.464875
28.100000	1	3.412125
28.116667	1	3.343500
28.133333	1	3.259875
28.150000	1	3.161875
28.166667	1	3.052750
28.183333	1	2.933125
28.200000	1	2.804750
28.216667	1	2.668875
28.233333	1	2.527375
28.250000	1	2.381625
28.266667	1	2.234625
28.283333	1	2.086625
28.300000	1	1.939125
28.316667	1	1.793250
28.333333	1	1.651375
28.350000	1	1.513750
28.366667	1	1.381125
28.383333	1	1.254000
28.400000	1	1.132750
28.416667	1	1.016375
28.433333	1	0.906625
28.450000	1	0.801750
28.466667	1	0.702750
28.483333	1	0.609125
28.500000	1	0.520500
28.516667	1	0.436500
28.533333	1	0.356375
28.550000	1	0.280625
28.566667	1	0.208250
28.583333	1	0.139625
28.600000	1	0.073750
28.616667	1	0.010250
28.633333	1	-0.050250
28.650000	1	-0.109125
28.666667	1	-0.166750
28.683333	1	-0.221875
28.700000	1	-0.275000
28.716667	1	-0.327125
28.733333	1	-0.376875
28.750000	1	-0.425125
28.766667	1	-0.471125
28.783333	1	-0.514625
28.800000	1	-0.554625
28.816667	1	-0.592500
28.833333	1	-0.628125
28.850000	1	-0.660250
28.866667	1	-0.689750
28.883333	1	-0.715000
28.900000	1	-0.737250
28.916667	1	-0.755875
28.933333	1	-0.769000
28.950000	1	-0.778250
28.966667	1	-0.783125
28.983333	1	-0.784125
29.000000	1	-0.781375
29.016667	1	-0.774375
29.033333	1	-0.763000
29.050000	1	-0.748000
29.066667	1	-0.729000
29.083333	1	-0.706500
29.100000	1	-0.681375
29.116667	1	-0.653125
29.133333	1	-0.622625
29.150000	1	-0.589125
29.166667	1	-0.553250
29.183333	1	-0.515750
29.200000	1	-0.477750
29.216667	1	-0.438375
29.233333	1	-0.397625
29.250000	1	-0.356500
29.266667	1	-0.314625
29.283333	1	-0.273625
29.300000	1	-0.232625
29.316667	1	-0.192250
29.333333	1	-0.152125
29.350000	1	-0.112875
29.366667	1	-0.074625
29.383333	1	-0.037375
29.400000	1	-0.002000
29.416667	1	0.032125
29.433333	1	0.064750
29.450000	1	0.095750
29.466667	1	0.125500
29.483333	1	0.152375
29.500000	1	0.178625
29.516667	1	0.203125
29.533333	1	0.225250
29.550000	1	0.245750
29.566667	1	0.265125
29.583333	1	0.282250
29.600000	1	0.297875
29.616667	1	0.311875
29.633333	1	0.324875
29.650000	1	0.336000
29.666667	1	0.346125
29.683333	1	0.354250
29.700000	1	0.361500
29.716667	1	0.367125
29.733333	1	0.371375
29.750000	1	0.374750
29.766667	1	0.377375
29.783333	1	0.378875
29.800000	1	0.380250
29.816667	1	0.380375
29.833333	1	0.379375
29.850000	1	0.377875
29.866667	1	0.376125
29.883333	1	0.373750
29.900000	1	0.370875
29.916667	1	0.368375
29.933333	1	0.365625
29.950000	1	0.363500
29.966667	1	0.360750
29.983333	1	0.358000
30.000000	1	0.355375
30.016667	1	0.353000
30.033333	1	0.350875
30.050000	1	0.349250
30.066667	1	0.347625
30.083333	1	0.346375
30.100000	1	0.346250
30.116667	1	0.346250
30.133333	1	0.347000
30.150000	1	0.347750
30.166667	1	0.349250
30.183333	1	0.351375
30.200000	1	0.353875
30.216667	1	0.356875
30.233333	1	0.360750
30.250000	1	0.365750
30.266667	1	0.370500
30.283333	1	0.376750
30.300000	1	0.382750
30.316667	1	0.390375
30.333333	1	0.399125
30.350000	1	0.408250
30.366667	1	0.419250
30.383333	1	0.431375
30.400000	1	0.444375
30.416667	1	0.459250
30.433333	1	0.475000
30.450000	1	0.491875
30.466667	1	0.510125
30.483333	1	0.530125
30.500000	1	0.551875
30.516667	1	0.575375
30.533333	1	0.600000
30.550000	1	0.626750
30.566667	1	0.654625
30.583333	1	0.684125
30.600000	1	0.714500
30.616667	1	0.745875
30.633333	1	0.777250
30.650000	1	0.809625
30.666667	1	0.841375
30.683333	1	0.873000
30.700000	1	0.904000
30.716667	1	0.934000
30.733333	1	0.962250
30.750000	1	0.989000
30.766667	1	1.012750
30.783333	1	1.034625
30.800000	1	1.053375
30.816667	1	1.068625
30.833333	1	1.080750
30.850000	1	1.089625
30.866667	1	1.093875
30.883333	1	1.094750
30.900000	1	1.091625
30.916667	1	1.084250
30.933333	1	1.073500
30.950000	1	1.058875
30.966667	1	1.040625
30.983333	1	1.020125
31.000000	1	0.996500
31.016667	1	0.970500
31.033333	1	0.941875
31.050000	1	0.910500
31.066667	1	0.878375
31.083333	1	0.844875
31.100000	1	0.810125
31.116667	1	0.775000
31.133333	1	0.739000
31.150000	1	0.704500
31.166667	1	0.669375
31.183333	1	0.635500
31.200000	1	0.602625
31.216667	1	0.570625
31.233333	1	0.539375
31.250000	1	0.509625
31.266667	1	0.481500
31.283333	1	0.454500
31.300000	1	0.429000
31.316667	1	0.406000
31.333333	1	0.384375
31.350000	1	0.364125
31.366667	1	0.345375
31.383333	1	0.328250
31.400000	1	0.312625
31.416667	1	0.298500
31.433333	1	0.285875
31.450000	1	0.274875
31.466667	1	0.264500
31.483333	1	0.254875
31.500000	1	0.247250
31.516667	1	0.240125
31.533333	1	0.234375
31.550000	1	0.229375
31.566667	1	0.225375
31.583333	1	0.221625
31.600000	1	0.218500
31.616667	1	0.216125
31.633333	1	0.214625
31.650000	1	0.213000
31.666667	1	0.211875
31.683333	1	0.211625
31.700000	1	0.212250
31.716667	1	0.212750
31.733333	1	0.213625
31.750000	1	0.215000
31.766667	1	0.216625
31.783333	1	0.218750
31.800000	1	0.221750
31.816667	1	0.224625
31.833333	1	0.227625
31.850000	1	0.230375
31.866667	1	0.233250
31.883333	1	0.236875
31.900000	1	0.240250
31.916667	1	0.243750
31.933333	1	0.247750
31.950000	1	0.250375
31.966667	1	0.253375
31.983333	1	0.255875
32.000000	1	0.258375
32.016667	1	0.259875
32.033333	1	0.261250
32.050000	1	0.262125
32.066667	1	0.263000
32.083333	1	0.263375
32.100000	1	0.263625
32.116667	1	0.262375
32.133333	1	0.261125
32.150000	1	0.259750
32.166667	1	0.257250
32.183333	1	0.254875
32.200000	1	0.251625
32.216667	1	0.247875
32.233333	1	0.243500
32.250000	1	0.239750
32.266667	1	0.235250
32.283333	1	0.230875
32.300000	1	0.226000
32.316667	1	0.220250
32.333333	1	0.214750
32.350000	1	0.209250
32.366667	1	0.203875
32.383333	1	0.198500
32.400000	1	0.193500
32.416667	1	0.187625
32.433333	1	0.182000
32.450000	1	0.177000
32.466667	1	0.171750
32.483333	1	0.166500
32.500000	1	0.162000
32.516667	1	0.157250
32.533333	1	0.153000
32.550000	1	0.148250
32.566667	1	0.144125
32.583333	1	0.139250
32.600000	1	0.134750
32.616667	1	0.130750
32.633333	1	0.126000
32.650000	1	0.121625
32.666667	1	0.117125
32.683333	1	0.113000
32.700000	1	0.108375
32.716667	1	0.103750
32.733333	1	0.099750
32.750000	1	0.094625
32.766667	1	0.090875
32.783333	1	0.087125
32.800000	1	0.083000
32.816667	1	0.078250
32.833333	1	0.073125
32.850000	1	0.068875
32.866667	1	0.064625
32.883333	1	0.060250
32.900000	1	0.056750
32.916667	1	0.053000
32.933333	1	0.049875
32.950000	1	0.046500
32.966667	1	0.042875
32.983333	1	0.040125
33.000000	1	0.036875
33.016667	1	0.034250
33.033333	1	0.031750
33.050000	1	0.029500
33.066667	1	0.027250
33.083333	1	0.025750
33.100000	1	0.024000
33.116667	1	0.022000
33.133333	1	0.020875
33.150000	1	0.019000
33.166667	1	0.017875
33.183333	1	0.017125
33.200000	1	0.015875
33.216667	1	0.014375
33.233333	1	0.013125
33.250000	1	0.012500
33.266667	1	0.011125
33.283333	1	0.009625
33.300000	1	0.009375
33.316667	1	0.008750
33.333333	1	0.008125
33.350000	1	0.007875
33.366667	1	0.007125
33.383333	1	0.005750
33.400000	1	0.004875
33.416667	1	0.003750
33.433333	1	0.003250
33.450000	1	0.002250
33.466667	1	0.000875
33.483333	1	-0.000250
33.500000	1	-0.000500
33.516667	1	-0.001625
33.533333	1	-0.002250
33.550000	1	-0.003000
33.566667	1	-0.004125
33.583333	1	-0.004500
33.600000	1	-0.005125
33.616667	1	-0.007250
33.633333	1	-0.007500
33.650000	1	-0.009000
33.666667	1	-0.009625
33.683333	1	-0.010625
33.700000	1	-0.011250
33.716667	1	-0.011500
33.733333	1	-0.012250
33.750000	1	-0.013000
33.766667	1	-0.013750
33.783333	1	-0.014250
33.800000	1	-0.014875
33.816667	1	-0.014625
33.833333	1	-0.014500
33.850000	1	-0.015250
33.866667	1	-0.015125
33.883333	1	-0.015125
33.900000	1	-0.014750
33.916667	1	-0.014375
33.933333	1	-0.013750
33.950000	1	-0.013250
33.966667	1	-0.013000
33.983333	1	-0.012625
34.000000	1	-0.011375
34.016667	1	-0.010375
34.033333	1	-0.009750
34.050000	1	-0.009125
34.066667	1	-0.007625
34.083333	1	-0.006750
34.100000	1	-0.005500
34.116667	1	-0.003750
34.133333	1	-0.002000
34.150000	1	0.000000
34.166667	1	0.001250
34.183333	1	0.002625
34.200000	1	0.004375
34.216667	1	0.006625
34.233333	1	0.007875
34.250000	1	0.010125
34.266667	1	0.011375
34.283333	1	0.012875
34.300000	1	0.014250
34.316667	1	0.016000
34.333333	1	0.017000
34.350000	1	0.017750
34.366667	1	0.018750
34.383333	1	0.020375
34.400000	1	0.021750
34.416667	1	0.023000
34.433333	1	0.024125
34.450000	1	0.025250
34.466667	1	0.026375
34.483333	1	0.027000
34.500000	1	0.027875
34.516667	1	0.028750
34.533333	1	0.029500
34.550000	1	0.030000
34.566667	1	0.030125
34.583333	1	0.031250
34.600000	1	0.031250
34.616667	1	0.031375
34.633333	1	0.032250
34.650000	1	0.032375
34.666667	1	0.032750
34.683333	1	0.033000
34.700000	1	0.032625
34.716667	1	0.032125
34.733333	1	0.032250
34.750000	1	0.032375
34.766667	1	0.032875
34.783333	1	0.033500
34.800000	1	0.034000
34.816667	1	0.034375
34.833333	1	0.034375
34.850000	1	0.034875
34.866667	1	0.034875
34.883333	1	0.035500
34.900000	1	0.036875
34.916667	1	0.038125
34.933333	1	0.039000
34.950000	1	0.040500
34.966667	1	0.042125
34.983333	1	0.043250
35.000000	1	0.043875
35.016667	1	0.045500
35.033333	1	0.047375
35.050000	1	0.049125
35.066667	1	0.051000
35.083333	1	0.053875
35.100000	1	0.056500
35.116667	1	0.059250
35.133333	1	0.061625
35.150000	1	0.064000
35.166667	1	0.067125
35.183333	1	0.070125
35.200000	1	0.072375
35.216667	1	0.075875
35.233333	1	0.078750
35.250000	1	0.082250
35.266667	1	0.085250
35.283333	1	0.088000
35.300000	1	0.091500
35.316667	1	0.095250
35.333333	1	0.098875
35.350000	1	0.101750
35.366667	1	0.104750
35.383333	1	0.107250
35.400000	1	0.110000
35.416667	1	0.112500
35.433333	1	0.115375
35.450000	1	0.117250
35.466667	1	0.120000
35.483333	1	0.122375
35.500000	1	0.124875
35.516667	1	0.127125
35.533333	1	0.129750
35.550000	1	0.131500
35.566667	1	0.133000
35.583333	1	0.134125
35.600000	1	0.135625
35.616667	1	0.136750
35.633333	1	0.137625
35.650000	1	0.138750
35.666667	1	0.139250
35.683333	1	0.139750
35.700000	1	0.140000
35.716667	1	0.140125
35.733333	1	0.140375
35.750000	1	0.140625
35.766667	1	0.140500
35.783333	1	0.140500
35.800000	1	0.139375
35.816667	1	0.138500
35.833333	1	0.138375
35.850000	1	0.138000
35.866667	1	0.136875
35.883333	1	0.136125
35.900000	1	0.135250
35.916667	1	0.134250
35.933333	1	0.133625
35.950000	1	0.132875
35.966667	1	0.131750
35.983333	1	0.130000
36.000000	1	0.129000
36.016667	1	0.127625
36.033333	1	0.126000
36.050000	1	0.124500
36.066667	1	0.123000
36.083333	1	0.121375
36.100000	1	0.120250
36.116667	1	0.118750
36.133333	1	0.117375
36.150000	1	0.115250
36.166667	1	0.113625
36.183333	1	0.111625
36.200000	1	0.109625
36.216667	1	0.107875
36.233333	1	0.105625
36.250000	1	0.104250
36.266667	1	0.102750
36.283333	1	0.100875
36.300000	1	0.099250
36.316667	1	0.097750
36.333333	1	0.095750
36.350000	1	0.094875
36.366667	1	0.093125
36.383333	1	0.091375
36.400000	1	0.089125
36.416667	1	0.087750
36.433333	1	0.085750
36.450000	1	0.084000
36.466667	1	0.082375
36.483333	1	0.081000
36.500000	1	0.079625
36.516667	1	0.078000
36.533333	1	0.075875
36.550000	1	0.074000
36.566667	1	0.072375
36.583333	1	0.069625
36.600000	1	0.067250
36.616667	1	0.065875
36.633333	1	0.063750
36.650000	1	0.061125
36.666667	1	0.058750
36.683333	1	0.056125
36.700000	1	0.053875
36.716667	1	0.050250
36.733333	1	0.048000
36.750000	1	0.044750
36.766667	1	0.042500
36.783333	1	0.039750
36.800000	1	0.036875
36.816667	1	0.033750
36.833333	1	0.030750
36.850000	1	0.028000
36.866667	1	0.025375
36.883333	1	0.022750
36.900000	1	0.020000
36.916667	1	0.018000
36.933333	1	0.015875
36.950000	1	0.013750
36.966667	1	0.011125
36.983333	1	0.008875
37.000000	1	0.007750
37.016667	1	0.005125
37.033333	1	0.003625
37.050000	1	0.002125
37.066667	1	0.001000
37.083333	1	0.000500
37.100000	1	-0.000875
37.116667	1	-0.000750
37.133333	1	-0.001500
37.150000	1	-0.001750
37.166667	1	-0.002000
37.183333	1	-0.002750
37.200000	1	-0.002000
37.216667	1	-0.003000
37.233333	1	-0.003000
37.250000	1	-0.002875
37.266667	1	-0.002500
37.283333	1	-0.002375
37.300000	1	-0.001750
37.316667	1	-0.001250
37.333333	1	-0.001000
37.350000	1	-0.001125
37.366667	1	-0.000750
37.383333	1	-0.000875
37.400000	1	-0.001125
37.416667	1	-0.000375
37.433333	1	-0.000125
37.450000	1	0.000000
37.466667	1	0.000500
37.483333	1	0.000750
37.500000	1	0.001000
37.516667	1	0.000750
37.533333	1	0.000375
37.550000	1	0.000125
37.566667	1	-0.000625
37.583333	1	-0.001125
37.600000	1	-0.001375
37.616667	1	-0.001750
37.633333	1	-0.002750
37.650000	1	-0.003500
37.666667	1	-0.003375
37.683333	1	-0.003500
37.700000	1	-0.003250
37.716667	1	-0.004250
37.733333	1	-0.005250
37.750000	1	-0.005375
37.766667	1	-0.006500
37.783333	1	-0.006875
37.800000	1	-0.007500
37.816667	1	-0.007625
37.833333	1	-0.007625
37.850000	1	-0.007500
37.866667	1	-0.007875
37.883333	1	-0.007375
37.900000	1	-0.007375
37.916667	1	-0.007250
37.933333	1	-0.007375
37.950000	1	-0.007625
37.966667	1	-0.007750
37.983333	1	-0.007750
38.000000	1	-0.007625
38.016667	1	-0.007125
38.033333	1	-0.006500
38.050000	1	-0.006500
38.066667	1	-0.005750
38.083333	1	-0.005625
38.100000	1	-0.005125
38.116667	1	-0.004750
38.133333	1	-0.004500
38.150000	1	-0.004625
38.166667	1	-0.003875
38.183333	1	-0.003375
38.200000	1	-0.003250
38.216667	1	-0.003375
38.233333	1	-0.003375
38.250000	1	-0.003000
38.266667	1	-0.002750
38.283333	1	-0.003125
38.300000	1	-0.003000
38.316667	1	-0.003625
38.333333	1	-0.003625
38.350000	1	-0.003500
38.366667	1	-0.004250
38.383333	1	-0.005250
38.400000	1	-0.005250
38.416667	1	-0.005625
38.433333	1	-0.006125
38.450000	1	-0.006125
38.466667	1	-0.006625
38.483333	1	-0.006750
38.500000	1	-0.007250
38.516667	1	-0.006875
38.533333	1	-0.007250
38.550000	1	-0.008000
38.566667	1	-0.008250
38.583333	1	-0.008750
38.600000	1	-0.009125
38.616667	1	-0.009000
38.633333	1	-0.009250
38.650000	1	-0.009625
38.666667	1	-0.009625
38.683333	1	-0.009750
38.700000	1	-0.009625
38.716667	1	-0.009500
38.733333	1	-0.009375
38.750000	1	-0.010000
38.766667	1	-0.010375
38.783333	1	-0.010000
38.800000	1	-0.009750
38.816667	1	-0.009625
38.833333	1	-0.009500
38.850000	1	-0.010375
38.866667	1	-0.009875
38.883333	1	-0.010125
38.900000	1	-0.010125
38.916667	1	-0.010750
38.933333	1	-0.011375
38.950000	1	-0.011250
38.966667	1	-0.010750
38.983333	1	-0.010625
39.000000	1	-0.010875
39.016667	1	-0.011500
39.033333	1	-0.011750
39.050000	1	-0.011625
39.066667	1	-0.011750
39.083333	1	-0.011875
39.100000	1	-0.011625
39.116667	1	-0.011625
39.133333	1	-0.012375
39.150000	1	-0.012500
39.166667	1	-0.012875
39.183333	1	-0.013375
39.200000	1	-0.013250
39.216667	1	-0.013250
39.233333	1	-0.013625
39.250000	1	-0.013750
39.266667	1	-0.013250
39.283333	1	-0.012625
39.300000	1	-0.011875
39.316667	1	-0.011625
39.333333	1	-0.011625
39.350000	1	-0.011000
39.366667	1	-0.010875
39.383333	1	-0.010125
39.400000	1	-0.009875
39.416667	1	-0.009375
39.433333	1	-0.008500
39.450000	1	-0.007875
39.466667	1	-0.007250
39.483333	1	-0.006250
39.500000	1	-0.005625
39.516667	1	-0.004125
39.533333	1	-0.003000
39.550000	1	-0.002500
39.566667	1	-0.001375
39.583333	1	-0.000625
39.600000	1	0.000500
39.616667	1	0.001500
39.633333	1	0.002750
39.650000	1	0.004000
39.666667	1	0.005125
39.683333	1	0.006375
39.700000	1	0.007500
39.716667	1	0.009000
39.733333	1	0.009750
39.750000	1	0.011000
39.766667	1	0.012000
39.783333	1	0.012875
39.800000	1	0.014125
39.816667	1	0.015000
39.833333	1	0.016125
39.850000	1	0.017000
39.866667	1	0.018000
39.883333	1	0.019375
39.900000	1	0.020000
39.916667	1	0.020375
39.933333	1	0.021625
39.950000	1	0.022375
39.966667	1	0.022750
39.983333	1	0.022750
40.000000	1	0.022750
