File Path	chrom://marshall/Chromeleon7/HPLC_Ultimate_3000/Users/markusar/20230107.seq/801.smp/RI_1.channel/RI_1.chm
Channel	RI_1

Injection Information:
Data Vault	Chromeleon7
Injection	er1.1
Injection Number	2
Position	RA2
Comment	
Processing Method	
Instrument Method	std_method
Type	Unknown
Status	Finished
Injection Date	07.01.2023
Injection Time	16:35:01
Injection Volume (µl)	20.000
Dilution Factor	1.0000
Weight	1.0000

Chromatogram Data Information:
Time Min. (min)	0.000000
Time Max. (min)	40.000000
Data Points	2401
Detector	RI
Generating Data System	Chromeleon 7.2.5.9507
Exporting Data System	Chromeleon 7.2.5.0
Operator	Instrument Controller
Signal Quantity	Refractive 
Signal Unit	µRIU
Signal Min.	-0.018750
Signal Max.	112.676625
Channel	RI_1
Driver Name	RID520Driver.dll
Channel Type	Evaluation
Min. Step (s)	1
Max. Step (s)	1
Average Step (s)	1

Signal Parameter Information:
Signal Info	

Chromatogram Data:
Time (min)	Step (s)	Value (µRIU)
0.000000	n.a.	0.002875
0.016667	1	0.001875
0.033333	1	0.001000
0.050000	1	0.000500
0.066667	1	-0.000125
0.083333	1	-0.001375
0.100000	1	-0.001875
0.116667	1	-0.002625
0.133333	1	-0.003375
0.150000	1	-0.004750
0.166667	1	-0.005375
0.183333	1	-0.005750
0.200000	1	-0.006250
0.216667	1	-0.007500
0.233333	1	-0.008125
0.250000	1	-0.008500
0.266667	1	-0.009125
0.283333	1	-0.010000
0.300000	1	-0.011125
0.316667	1	-0.012125
0.333333	1	-0.013125
0.350000	1	-0.014375
0.366667	1	-0.014875
0.383333	1	-0.015000
0.400000	1	-0.015500
0.416667	1	-0.015375
0.433333	1	-0.016250
0.450000	1	-0.016500
0.466667	1	-0.017250
0.483333	1	-0.017000
0.500000	1	-0.017750
0.516667	1	-0.018250
0.533333	1	-0.018500
0.550000	1	-0.018625
0.566667	1	-0.018750
0.583333	1	-0.018500
0.600000	1	-0.017500
0.616667	1	-0.016875
0.633333	1	-0.015625
0.650000	1	-0.014000
0.666667	1	-0.013000
0.683333	1	-0.012125
0.700000	1	-0.010875
0.716667	1	-0.009500
0.733333	1	-0.009375
0.750000	1	-0.009375
0.766667	1	-0.009750
0.783333	1	-0.010875
0.800000	1	-0.011000
0.816667	1	-0.011625
0.833333	1	-0.013125
0.850000	1	-0.013375
0.866667	1	-0.014125
0.883333	1	-0.014625
0.900000	1	-0.015750
0.916667	1	-0.015750
0.933333	1	-0.015875
0.950000	1	-0.015750
0.966667	1	-0.015750
0.983333	1	-0.015500
1.000000	1	-0.015250
1.016667	1	-0.015125
1.033333	1	-0.014750
1.050000	1	-0.014625
1.066667	1	-0.014250
1.083333	1	-0.014125
1.100000	1	-0.013500
1.116667	1	-0.013250
1.133333	1	-0.013000
1.150000	1	-0.012500
1.166667	1	-0.012375
1.183333	1	-0.012000
1.200000	1	-0.010875
1.216667	1	-0.010875
1.233333	1	-0.010500
1.250000	1	-0.010750
1.266667	1	-0.010000
1.283333	1	-0.009500
1.300000	1	-0.008875
1.316667	1	-0.008625
1.333333	1	-0.008125
1.350000	1	-0.008375
1.366667	1	-0.008250
1.383333	1	-0.007625
1.400000	1	-0.007375
1.416667	1	-0.007750
1.433333	1	-0.008000
1.450000	1	-0.008000
1.466667	1	-0.007875
1.483333	1	-0.008000
1.500000	1	-0.007875
1.516667	1	-0.007750
1.533333	1	-0.008000
1.550000	1	-0.007875
1.566667	1	-0.008625
1.583333	1	-0.009625
1.600000	1	-0.009750
1.616667	1	-0.009375
1.633333	1	-0.009125
1.650000	1	-0.009250
1.666667	1	-0.009500
1.683333	1	-0.010250
1.700000	1	-0.009625
1.716667	1	-0.009750
1.733333	1	-0.009750
1.750000	1	-0.009625
1.766667	1	-0.009125
1.783333	1	-0.010375
1.800000	1	-0.010750
1.816667	1	-0.010625
1.833333	1	-0.010375
1.850000	1	-0.010375
1.866667	1	-0.010875
1.883333	1	-0.010875
1.900000	1	-0.011375
1.916667	1	-0.011500
1.933333	1	-0.011125
1.950000	1	-0.010875
1.966667	1	-0.010875
1.983333	1	-0.011250
2.000000	1	-0.011625
2.016667	1	-0.011875
2.033333	1	-0.011875
2.050000	1	-0.011875
2.066667	1	-0.011500
2.083333	1	-0.011000
2.100000	1	-0.011125
2.116667	1	-0.011500
2.133333	1	-0.011750
2.150000	1	-0.011875
2.166667	1	-0.011000
2.183333	1	-0.010500
2.200000	1	-0.010375
2.216667	1	-0.010125
2.233333	1	-0.010000
2.250000	1	-0.009500
2.266667	1	-0.008875
2.283333	1	-0.008125
2.300000	1	-0.007875
2.316667	1	-0.007625
2.333333	1	-0.007000
2.350000	1	-0.006750
2.366667	1	-0.006625
2.383333	1	-0.006875
2.400000	1	-0.006500
2.416667	1	-0.006000
2.433333	1	-0.006000
2.450000	1	-0.005750
2.466667	1	-0.006125
2.483333	1	-0.006500
2.500000	1	-0.006500
2.516667	1	-0.006750
2.533333	1	-0.006875
2.550000	1	-0.006875
2.566667	1	-0.007500
2.583333	1	-0.008000
2.600000	1	-0.007625
2.616667	1	-0.008375
2.633333	1	-0.008500
2.650000	1	-0.008750
2.666667	1	-0.008625
2.683333	1	-0.009375
2.700000	1	-0.010500
2.716667	1	-0.010875
2.733333	1	-0.011500
2.750000	1	-0.011625
2.766667	1	-0.011375
2.783333	1	-0.011375
2.800000	1	-0.011375
2.816667	1	-0.012125
2.833333	1	-0.011875
2.850000	1	-0.011500
2.866667	1	-0.011500
2.883333	1	-0.011750
2.900000	1	-0.011250
2.916667	1	-0.011000
2.933333	1	-0.012000
2.950000	1	-0.011875
2.966667	1	-0.012000
2.983333	1	-0.012500
3.000000	1	-0.012500
3.016667	1	-0.012000
3.033333	1	-0.012375
3.050000	1	-0.011875
3.066667	1	-0.012125
3.083333	1	-0.011750
3.100000	1	-0.011000
3.116667	1	-0.011125
3.133333	1	-0.011500
3.150000	1	-0.011875
3.166667	1	-0.011375
3.183333	1	-0.011375
3.200000	1	-0.011000
3.216667	1	-0.011250
3.233333	1	-0.011375
3.250000	1	-0.011125
3.266667	1	-0.010250
3.283333	1	-0.010125
3.300000	1	-0.009625
3.316667	1	-0.009000
3.333333	1	-0.008875
3.350000	1	-0.008875
3.366667	1	-0.008250
3.383333	1	-0.007750
3.400000	1	-0.007125
3.416667	1	-0.005875
3.433333	1	-0.005250
3.450000	1	-0.004625
3.466667	1	-0.004625
3.483333	1	-0.003625
3.500000	1	-0.003250
3.516667	1	-0.002500
3.533333	1	-0.002375
3.550000	1	-0.001500
3.566667	1	-0.000750
3.583333	1	-0.000500
3.600000	1	0.000375
3.616667	1	0.000000
3.633333	1	0.000500
3.650000	1	0.000875
3.666667	1	0.000625
3.683333	1	0.000875
3.700000	1	0.001250
3.716667	1	0.001500
3.733333	1	0.002250
3.750000	1	0.002375
3.766667	1	0.003000
3.783333	1	0.002500
3.800000	1	0.002750
3.816667	1	0.003625
3.833333	1	0.004500
3.850000	1	0.004625
3.866667	1	0.005000
3.883333	1	0.004625
3.900000	1	0.005000
3.916667	1	0.005500
3.933333	1	0.005375
3.950000	1	0.005500
3.966667	1	0.005250
3.983333	1	0.005750
4.000000	1	0.006125
4.016667	1	0.006625
4.033333	1	0.006375
4.050000	1	0.006875
4.066667	1	0.006375
4.083333	1	0.005875
4.100000	1	0.005625
4.116667	1	0.006125
4.133333	1	0.006250
4.150000	1	0.005500
4.166667	1	0.005375
4.183333	1	0.004625
4.200000	1	0.004500
4.216667	1	0.003625
4.233333	1	0.003375
4.250000	1	0.003125
4.266667	1	0.002750
4.283333	1	0.002125
4.300000	1	0.001875
4.316667	1	0.001000
4.333333	1	0.000500
4.350000	1	0.000000
4.366667	1	0.000000
4.383333	1	0.000000
4.400000	1	-0.000500
4.416667	1	-0.001375
4.433333	1	-0.001875
4.450000	1	-0.001750
4.466667	1	-0.002500
4.483333	1	-0.002875
4.500000	1	-0.003000
4.516667	1	-0.003125
4.533333	1	-0.003375
4.550000	1	-0.004000
4.566667	1	-0.004000
4.583333	1	-0.004250
4.600000	1	-0.004750
4.616667	1	-0.004375
4.633333	1	-0.004250
4.650000	1	-0.004375
4.666667	1	-0.004250
4.683333	1	-0.004500
4.700000	1	-0.003875
4.716667	1	-0.004625
4.733333	1	-0.004375
4.750000	1	-0.004125
4.766667	1	-0.004000
4.783333	1	-0.003750
4.800000	1	-0.003125
4.816667	1	-0.002000
4.833333	1	-0.001500
4.850000	1	-0.001375
4.866667	1	-0.000500
4.883333	1	0.000000
4.900000	1	0.000125
4.916667	1	0.001375
4.933333	1	0.001500
4.950000	1	0.002375
4.966667	1	0.002750
4.983333	1	0.003750
5.000000	1	0.003875
5.016667	1	0.004375
5.033333	1	0.004250
5.050000	1	0.004375
5.066667	1	0.005000
5.083333	1	0.006000
5.100000	1	0.006250
5.116667	1	0.006750
5.133333	1	0.007125
5.150000	1	0.007000
5.166667	1	0.007625
5.183333	1	0.008500
5.200000	1	0.008375
5.216667	1	0.009375
5.233333	1	0.010000
5.250000	1	0.010750
5.266667	1	0.011125
5.283333	1	0.011875
5.300000	1	0.013000
5.316667	1	0.013125
5.333333	1	0.013750
5.350000	1	0.014000
5.366667	1	0.015000
5.383333	1	0.015875
5.400000	1	0.017000
5.416667	1	0.017000
5.433333	1	0.017500
5.450000	1	0.018500
5.466667	1	0.019000
5.483333	1	0.020875
5.500000	1	0.022125
5.516667	1	0.022375
5.533333	1	0.022625
5.550000	1	0.023500
5.566667	1	0.024375
5.583333	1	0.024875
5.600000	1	0.025750
5.616667	1	0.026750
5.633333	1	0.027625
5.650000	1	0.029000
5.666667	1	0.029875
5.683333	1	0.030375
5.700000	1	0.031000
5.716667	1	0.031750
5.733333	1	0.032375
5.750000	1	0.033000
5.766667	1	0.034125
5.783333	1	0.035250
5.800000	1	0.035625
5.816667	1	0.036000
5.833333	1	0.036375
5.850000	1	0.036875
5.866667	1	0.037250
5.883333	1	0.037750
5.900000	1	0.037250
5.916667	1	0.036750
5.933333	1	0.037000
5.950000	1	0.037125
5.966667	1	0.037375
5.983333	1	0.037875
6.000000	1	0.038250
6.016667	1	0.037875
6.033333	1	0.037750
6.050000	1	0.038125
6.066667	1	0.038000
6.083333	1	0.038000
6.100000	1	0.038500
6.116667	1	0.038875
6.133333	1	0.038875
6.150000	1	0.038625
6.166667	1	0.038125
6.183333	1	0.037875
6.200000	1	0.038375
6.216667	1	0.038250
6.233333	1	0.039125
6.250000	1	0.039125
6.266667	1	0.039000
6.283333	1	0.038750
6.300000	1	0.038500
6.316667	1	0.038750
6.333333	1	0.038750
6.350000	1	0.038250
6.366667	1	0.038375
6.383333	1	0.038250
6.400000	1	0.038000
6.416667	1	0.038000
6.433333	1	0.037750
6.450000	1	0.037375
6.466667	1	0.037375
6.483333	1	0.037875
6.500000	1	0.037875
6.516667	1	0.037250
6.533333	1	0.036625
6.550000	1	0.036500
6.566667	1	0.036000
6.583333	1	0.035625
6.600000	1	0.034625
6.616667	1	0.034375
6.633333	1	0.034125
6.650000	1	0.033750
6.666667	1	0.032750
6.683333	1	0.032625
6.700000	1	0.032375
6.716667	1	0.031625
6.733333	1	0.031000
6.750000	1	0.030125
6.766667	1	0.029125
6.783333	1	0.028250
6.800000	1	0.027625
6.816667	1	0.026375
6.833333	1	0.025375
6.850000	1	0.024000
6.866667	1	0.023750
6.883333	1	0.023500
6.900000	1	0.022125
6.916667	1	0.021250
6.933333	1	0.020000
6.950000	1	0.018875
6.966667	1	0.018625
6.983333	1	0.017875
7.000000	1	0.016750
7.016667	1	0.015500
7.033333	1	0.015125
7.050000	1	0.014375
7.066667	1	0.014000
7.083333	1	0.013250
7.100000	1	0.012375
7.116667	1	0.011625
7.133333	1	0.011000
7.150000	1	0.010750
7.166667	1	0.009750
7.183333	1	0.009750
7.200000	1	0.009000
7.216667	1	0.009125
7.233333	1	0.008125
7.250000	1	0.007875
7.266667	1	0.007875
7.283333	1	0.007250
7.300000	1	0.006750
7.316667	1	0.005875
7.333333	1	0.005500
7.350000	1	0.005750
7.366667	1	0.005375
7.383333	1	0.005625
7.400000	1	0.005625
7.416667	1	0.005250
7.433333	1	0.004750
7.450000	1	0.004250
7.466667	1	0.003750
7.483333	1	0.004000
7.500000	1	0.003750
7.516667	1	0.003125
7.533333	1	0.003000
7.550000	1	0.002750
7.566667	1	0.001875
7.583333	1	0.001875
7.600000	1	0.001750
7.616667	1	0.001875
7.633333	1	0.001250
7.650000	1	0.000500
7.666667	1	0.000625
7.683333	1	0.000375
7.700000	1	0.000250
7.716667	1	0.000625
7.733333	1	0.000250
7.750000	1	0.000375
7.766667	1	0.000500
7.783333	1	0.000375
7.800000	1	0.000625
7.816667	1	0.001000
7.833333	1	0.000750
7.850000	1	0.001125
7.866667	1	0.001000
7.883333	1	0.001125
7.900000	1	0.001250
7.916667	1	0.001000
7.933333	1	0.001375
7.950000	1	0.001375
7.966667	1	0.001000
7.983333	1	0.001500
8.000000	1	0.002250
8.016667	1	0.002125
8.033333	1	0.001875
8.050000	1	0.001875
8.066667	1	0.003000
8.083333	1	0.003000
8.100000	1	0.002500
8.116667	1	0.002875
8.133333	1	0.003625
8.150000	1	0.004000
8.166667	1	0.004375
8.183333	1	0.004500
8.200000	1	0.004500
8.216667	1	0.004375
8.233333	1	0.004500
8.250000	1	0.004250
8.266667	1	0.004375
8.283333	1	0.004375
8.300000	1	0.004375
8.316667	1	0.004500
8.333333	1	0.004625
8.350000	1	0.005000
8.366667	1	0.004625
8.383333	1	0.004500
8.400000	1	0.004125
8.416667	1	0.002625
8.433333	1	0.002625
8.450000	1	0.002250
8.466667	1	0.001875
8.483333	1	0.001000
8.500000	1	0.000500
8.516667	1	0.000500
8.533333	1	0.000875
8.550000	1	0.000000
8.566667	1	-0.000500
8.583333	1	-0.000250
8.600000	1	-0.001000
8.616667	1	-0.000500
8.633333	1	-0.000625
8.650000	1	-0.000375
8.666667	1	-0.000250
8.683333	1	-0.000500
8.700000	1	-0.000875
8.716667	1	-0.000375
8.733333	1	0.000000
8.750000	1	-0.000250
8.766667	1	0.000000
8.783333	1	0.000750
8.800000	1	0.001250
8.816667	1	0.002375
8.833333	1	0.003750
8.850000	1	0.004000
8.866667	1	0.004375
8.883333	1	0.005125
8.900000	1	0.005500
8.916667	1	0.006250
8.933333	1	0.007250
8.950000	1	0.008500
8.966667	1	0.009500
8.983333	1	0.010125
9.000000	1	0.011000
9.016667	1	0.010875
9.033333	1	0.011875
9.050000	1	0.012125
9.066667	1	0.013375
9.083333	1	0.014125
9.100000	1	0.015250
9.116667	1	0.015250
9.133333	1	0.016375
9.150000	1	0.017750
9.166667	1	0.018875
9.183333	1	0.019250
9.200000	1	0.020000
9.216667	1	0.021125
9.233333	1	0.022250
9.250000	1	0.022875
9.266667	1	0.024250
9.283333	1	0.025125
9.300000	1	0.025625
9.316667	1	0.026875
9.333333	1	0.027375
9.350000	1	0.028000
9.366667	1	0.029500
9.383333	1	0.030125
9.400000	1	0.031250
9.416667	1	0.032750
9.433333	1	0.033875
9.450000	1	0.034875
9.466667	1	0.036125
9.483333	1	0.037250
9.500000	1	0.038625
9.516667	1	0.040000
9.533333	1	0.042625
9.550000	1	0.045500
9.566667	1	0.048125
9.583333	1	0.050750
9.600000	1	0.054250
9.616667	1	0.057875
9.633333	1	0.062250
9.650000	1	0.067000
9.666667	1	0.072125
9.683333	1	0.078250
9.700000	1	0.084875
9.716667	1	0.093000
9.733333	1	0.102625
9.750000	1	0.114875
9.766667	1	0.129500
9.783333	1	0.146875
9.800000	1	0.167250
9.816667	1	0.191125
9.833333	1	0.219750
9.850000	1	0.253500
9.866667	1	0.292500
9.883333	1	0.339000
9.900000	1	0.392375
9.916667	1	0.454500
9.933333	1	0.524750
9.950000	1	0.601250
9.966667	1	0.684375
9.983333	1	0.772125
10.000000	1	0.861500
10.016667	1	0.949875
10.033333	1	1.033875
10.050000	1	1.108500
10.066667	1	1.166125
10.083333	1	1.198875
10.100000	1	1.200875
10.116667	1	1.168125
10.133333	1	1.102625
10.150000	1	1.015000
10.166667	1	0.920875
10.183333	1	0.844375
10.200000	1	0.813875
10.216667	1	0.864375
10.233333	1	1.033000
10.250000	1	1.361250
10.266667	1	1.892375
10.283333	1	2.672875
10.300000	1	3.748000
10.316667	1	5.162875
10.333333	1	6.960500
10.350000	1	9.183500
10.366667	1	11.868625
10.383333	1	15.049000
10.400000	1	18.755250
10.416667	1	23.011250
10.433333	1	27.835375
10.450000	1	33.230500
10.466667	1	39.197625
10.483333	1	45.711500
10.500000	1	52.728875
10.516667	1	60.164500
10.533333	1	67.886750
10.550000	1	75.715750
10.566667	1	83.426250
10.583333	1	90.758000
10.600000	1	97.438750
10.616667	1	103.199000
10.633333	1	107.788375
10.650000	1	110.998125
10.666667	1	112.666250
10.683333	1	112.676625
10.700000	1	110.978500
10.716667	1	107.608375
10.733333	1	102.706250
10.750000	1	96.507875
10.766667	1	89.324625
10.783333	1	81.494375
10.800000	1	73.356375
10.816667	1	65.229500
10.833333	1	57.387625
10.850000	1	50.046750
10.866667	1	43.350875
10.883333	1	37.395375
10.900000	1	32.216375
10.916667	1	27.804375
10.933333	1	24.114250
10.950000	1	21.074750
10.966667	1	18.602250
10.983333	1	16.605750
11.000000	1	15.001000
11.016667	1	13.708250
11.033333	1	12.661625
11.050000	1	11.803375
11.066667	1	11.089125
11.083333	1	10.484000
11.100000	1	9.958375
11.116667	1	9.491875
11.133333	1	9.068750
11.150000	1	8.677625
11.166667	1	8.309625
11.183333	1	7.958000
11.200000	1	7.620000
11.216667	1	7.293500
11.233333	1	6.977000
11.250000	1	6.671875
11.266667	1	6.377250
11.283333	1	6.094875
11.300000	1	5.823875
11.316667	1	5.565750
11.333333	1	5.321375
11.350000	1	5.092000
11.366667	1	4.879125
11.383333	1	4.683250
11.400000	1	4.504250
11.416667	1	4.345750
11.433333	1	4.207125
11.450000	1	4.087625
11.466667	1	3.986125
11.483333	1	3.901750
11.500000	1	3.832625
11.516667	1	3.774250
11.533333	1	3.724875
11.550000	1	3.681500
11.566667	1	3.641875
11.583333	1	3.604500
11.600000	1	3.567625
11.616667	1	3.531875
11.633333	1	3.495625
11.650000	1	3.459500
11.666667	1	3.425375
11.683333	1	3.390500
11.700000	1	3.357375
11.716667	1	3.323875
11.733333	1	3.290625
11.750000	1	3.256875
11.766667	1	3.221250
11.783333	1	3.184500
11.800000	1	3.145875
11.816667	1	3.104250
11.833333	1	3.060625
11.850000	1	3.016250
11.866667	1	2.971625
11.883333	1	2.926375
11.900000	1	2.880250
11.916667	1	2.834750
11.933333	1	2.789875
11.950000	1	2.745250
11.966667	1	2.701750
11.983333	1	2.658375
12.000000	1	2.616000
12.016667	1	2.574000
12.033333	1	2.533375
12.050000	1	2.492625
12.066667	1	2.452500
12.083333	1	2.413000
12.100000	1	2.374125
12.116667	1	2.335375
12.133333	1	2.299250
12.150000	1	2.263250
12.166667	1	2.228125
12.183333	1	2.195875
12.200000	1	2.164500
12.216667	1	2.135125
12.233333	1	2.107375
12.250000	1	2.081375
12.266667	1	2.058125
12.283333	1	2.037750
12.300000	1	2.019875
12.316667	1	2.005750
12.333333	1	1.995500
12.350000	1	1.990125
12.366667	1	1.990625
12.383333	1	1.997250
12.400000	1	2.012375
12.416667	1	2.036875
12.433333	1	2.073750
12.450000	1	2.123875
12.466667	1	2.190000
12.483333	1	2.275375
12.500000	1	2.384500
12.516667	1	2.521125
12.533333	1	2.689000
12.550000	1	2.894125
12.566667	1	3.139750
12.583333	1	3.429750
12.600000	1	3.765750
12.616667	1	4.147875
12.633333	1	4.575500
12.650000	1	5.045375
12.666667	1	5.552625
12.683333	1	6.091750
12.700000	1	6.654250
12.716667	1	7.235000
12.733333	1	7.826875
12.750000	1	8.424375
12.766667	1	9.024000
12.783333	1	9.624500
12.800000	1	10.223375
12.816667	1	10.821500
12.833333	1	11.420875
12.850000	1	12.022750
12.866667	1	12.628750
12.883333	1	13.240375
12.900000	1	13.859125
12.916667	1	14.484375
12.933333	1	15.113125
12.950000	1	15.743000
12.966667	1	16.368750
12.983333	1	16.983875
13.000000	1	17.579000
13.016667	1	18.145250
13.033333	1	18.673875
13.050000	1	19.154250
13.066667	1	19.580375
13.083333	1	19.944000
13.100000	1	20.239375
13.116667	1	20.461500
13.133333	1	20.607750
13.150000	1	20.677375
13.166667	1	20.671625
13.183333	1	20.593500
13.200000	1	20.446125
13.216667	1	20.235500
13.233333	1	19.966375
13.250000	1	19.645250
13.266667	1	19.277750
13.283333	1	18.871625
13.300000	1	18.431375
13.316667	1	17.963750
13.333333	1	17.473250
13.350000	1	16.965250
13.366667	1	16.444125
13.383333	1	15.914000
13.400000	1	15.376500
13.416667	1	14.835000
13.433333	1	14.291125
13.450000	1	13.744375
13.466667	1	13.196125
13.483333	1	12.645500
13.500000	1	12.091250
13.516667	1	11.533750
13.533333	1	10.973375
13.550000	1	10.411125
13.566667	1	9.850375
13.583333	1	9.293375
13.600000	1	8.746625
13.616667	1	8.214125
13.633333	1	7.703000
13.650000	1	7.218375
13.666667	1	6.765375
13.683333	1	6.349250
13.700000	1	5.973875
13.716667	1	5.642000
13.733333	1	5.354875
13.750000	1	5.111375
13.766667	1	4.910500
13.783333	1	4.747250
13.800000	1	4.617375
13.816667	1	4.515250
13.833333	1	4.435500
13.850000	1	4.372375
13.866667	1	4.320125
13.883333	1	4.275625
13.900000	1	4.236125
13.916667	1	4.198875
13.933333	1	4.162375
13.950000	1	4.127125
13.966667	1	4.091750
13.983333	1	4.056625
14.000000	1	4.020000
14.016667	1	3.983875
14.033333	1	3.945750
14.050000	1	3.905500
14.066667	1	3.862000
14.083333	1	3.814375
14.100000	1	3.762250
14.116667	1	3.703875
14.133333	1	3.639375
14.150000	1	3.567750
14.166667	1	3.490375
14.183333	1	3.407125
14.200000	1	3.319125
14.216667	1	3.227625
14.233333	1	3.136125
14.250000	1	3.044750
14.266667	1	2.956000
14.283333	1	2.872000
14.300000	1	2.794875
14.316667	1	2.726750
14.333333	1	2.669625
14.350000	1	2.624500
14.366667	1	2.593500
14.383333	1	2.577750
14.400000	1	2.578375
14.416667	1	2.596750
14.433333	1	2.633125
14.450000	1	2.689000
14.466667	1	2.764125
14.483333	1	2.859125
14.500000	1	2.974500
14.516667	1	3.109375
14.533333	1	3.264625
14.550000	1	3.439750
14.566667	1	3.634750
14.583333	1	3.847625
14.600000	1	4.078250
14.616667	1	4.326375
14.633333	1	4.590750
14.650000	1	4.871125
14.666667	1	5.164875
14.683333	1	5.470625
14.700000	1	5.785375
14.716667	1	6.105375
14.733333	1	6.428250
14.750000	1	6.750875
14.766667	1	7.071375
14.783333	1	7.387750
14.800000	1	7.703750
14.816667	1	8.022375
14.833333	1	8.350500
14.850000	1	8.696750
14.866667	1	9.072250
14.883333	1	9.490875
14.900000	1	9.963000
14.916667	1	10.500875
14.933333	1	11.112750
14.950000	1	11.801875
14.966667	1	12.567125
14.983333	1	13.400625
15.000000	1	14.291375
15.016667	1	15.222250
15.033333	1	16.172125
15.050000	1	17.120250
15.066667	1	18.044125
15.083333	1	18.923625
15.100000	1	19.742875
15.116667	1	20.487500
15.133333	1	21.148500
15.150000	1	21.721500
15.166667	1	22.203500
15.183333	1	22.592250
15.200000	1	22.889250
15.216667	1	23.095625
15.233333	1	23.211125
15.250000	1	23.235875
15.266667	1	23.168375
15.283333	1	23.008125
15.300000	1	22.754250
15.316667	1	22.407750
15.333333	1	21.969875
15.350000	1	21.444500
15.366667	1	20.837000
15.383333	1	20.155000
15.400000	1	19.407000
15.416667	1	18.602500
15.433333	1	17.752250
15.450000	1	16.868000
15.466667	1	15.960000
15.483333	1	15.041250
15.500000	1	14.121375
15.516667	1	13.211125
15.533333	1	12.319125
15.550000	1	11.453875
15.566667	1	10.622750
15.583333	1	9.832375
15.600000	1	9.086500
15.616667	1	8.388125
15.633333	1	7.740375
15.650000	1	7.144250
15.666667	1	6.600000
15.683333	1	6.107125
15.700000	1	5.664375
15.716667	1	5.270000
15.733333	1	4.920875
15.750000	1	4.613500
15.766667	1	4.345375
15.783333	1	4.113125
15.800000	1	3.912500
15.816667	1	3.742000
15.833333	1	3.597625
15.850000	1	3.478000
15.866667	1	3.380875
15.883333	1	3.305500
15.900000	1	3.250125
15.916667	1	3.213625
15.933333	1	3.193875
15.950000	1	3.190375
15.966667	1	3.201000
15.983333	1	3.225875
16.000000	1	3.261125
16.016667	1	3.306125
16.033333	1	3.359375
16.050000	1	3.418875
16.066667	1	3.481875
16.083333	1	3.549625
16.100000	1	3.621125
16.116667	1	3.697625
16.133333	1	3.780625
16.150000	1	3.872250
16.166667	1	3.976375
16.183333	1	4.095375
16.200000	1	4.232000
16.216667	1	4.387875
16.233333	1	4.566125
16.250000	1	4.765375
16.266667	1	4.985375
16.283333	1	5.222125
16.300000	1	5.471250
16.316667	1	5.728000
16.333333	1	5.985375
16.350000	1	6.237500
16.366667	1	6.477875
16.383333	1	6.701625
16.400000	1	6.905750
16.416667	1	7.085750
16.433333	1	7.240375
16.450000	1	7.368500
16.466667	1	7.471875
16.483333	1	7.550375
16.500000	1	7.605000
16.516667	1	7.638375
16.533333	1	7.650125
16.550000	1	7.642000
16.566667	1	7.614250
16.583333	1	7.566875
16.600000	1	7.500000
16.616667	1	7.414000
16.633333	1	7.307375
16.650000	1	7.180750
16.666667	1	7.033625
16.683333	1	6.868500
16.700000	1	6.685375
16.716667	1	6.485250
16.733333	1	6.270125
16.750000	1	6.043750
16.766667	1	5.808000
16.783333	1	5.566000
16.800000	1	5.319875
16.816667	1	5.074375
16.833333	1	4.828875
16.850000	1	4.588000
16.866667	1	4.353250
16.883333	1	4.126500
16.900000	1	3.909750
16.916667	1	3.703500
16.933333	1	3.509625
16.950000	1	3.327875
16.966667	1	3.159000
16.983333	1	3.003875
17.000000	1	2.861375
17.016667	1	2.731500
17.033333	1	2.613375
17.050000	1	2.507250
17.066667	1	2.412375
17.083333	1	2.327625
17.100000	1	2.252375
17.116667	1	2.185375
17.133333	1	2.126375
17.150000	1	2.074500
17.166667	1	2.028500
17.183333	1	1.988500
17.200000	1	1.953125
17.216667	1	1.921875
17.233333	1	1.894000
17.250000	1	1.868750
17.266667	1	1.845750
17.283333	1	1.825125
17.300000	1	1.805500
17.316667	1	1.786875
17.333333	1	1.769500
17.350000	1	1.753125
17.366667	1	1.736875
17.383333	1	1.721250
17.400000	1	1.707375
17.416667	1	1.692875
17.433333	1	1.678875
17.450000	1	1.665500
17.466667	1	1.652500
17.483333	1	1.641000
17.500000	1	1.629500
17.516667	1	1.618250
17.533333	1	1.607000
17.550000	1	1.596750
17.566667	1	1.587375
17.583333	1	1.579000
17.600000	1	1.570750
17.616667	1	1.562375
17.633333	1	1.555125
17.650000	1	1.549250
17.666667	1	1.543750
17.683333	1	1.539500
17.700000	1	1.535625
17.716667	1	1.533000
17.733333	1	1.531250
17.750000	1	1.531000
17.766667	1	1.533000
17.783333	1	1.536250
17.800000	1	1.540375
17.816667	1	1.546500
17.833333	1	1.554875
17.850000	1	1.564875
17.866667	1	1.576750
17.883333	1	1.590125
17.900000	1	1.606000
17.916667	1	1.623250
17.933333	1	1.642375
17.950000	1	1.663000
17.966667	1	1.684875
17.983333	1	1.708125
18.000000	1	1.732125
18.016667	1	1.756625
18.033333	1	1.781500
18.050000	1	1.806750
18.066667	1	1.831500
18.083333	1	1.856000
18.100000	1	1.879750
18.116667	1	1.903000
18.133333	1	1.925250
18.150000	1	1.946750
18.166667	1	1.967375
18.183333	1	1.986625
18.200000	1	2.004500
18.216667	1	2.021000
18.233333	1	2.035875
18.250000	1	2.048500
18.266667	1	2.059375
18.283333	1	2.068250
18.300000	1	2.074750
18.316667	1	2.078625
18.333333	1	2.080375
18.350000	1	2.079875
18.366667	1	2.077875
18.383333	1	2.073250
18.400000	1	2.066500
18.416667	1	2.058000
18.433333	1	2.048250
18.450000	1	2.036375
18.466667	1	2.022750
18.483333	1	2.008250
18.500000	1	1.992750
18.516667	1	1.976750
18.533333	1	1.959000
18.550000	1	1.940500
18.566667	1	1.921375
18.583333	1	1.902000
18.600000	1	1.881750
18.616667	1	1.861625
18.633333	1	1.841000
18.650000	1	1.819875
18.666667	1	1.798375
18.683333	1	1.777000
18.700000	1	1.755500
18.716667	1	1.733500
18.733333	1	1.711125
18.750000	1	1.688875
18.766667	1	1.667625
18.783333	1	1.646375
18.800000	1	1.626000
18.816667	1	1.605125
18.833333	1	1.584750
18.850000	1	1.564750
18.866667	1	1.545625
18.883333	1	1.528000
18.900000	1	1.510000
18.916667	1	1.492750
18.933333	1	1.476000
18.950000	1	1.459875
18.966667	1	1.444500
18.983333	1	1.429375
19.000000	1	1.415000
19.016667	1	1.401000
19.033333	1	1.388875
19.050000	1	1.376625
19.066667	1	1.365250
19.083333	1	1.354500
19.100000	1	1.346250
19.116667	1	1.338500
19.133333	1	1.332125
19.150000	1	1.327875
19.166667	1	1.325875
19.183333	1	1.327625
19.200000	1	1.331750
19.216667	1	1.338875
19.233333	1	1.349125
19.250000	1	1.363000
19.266667	1	1.380000
19.283333	1	1.400125
19.300000	1	1.423375
19.316667	1	1.450250
19.333333	1	1.478750
19.350000	1	1.510000
19.366667	1	1.543500
19.383333	1	1.577500
19.400000	1	1.612625
19.416667	1	1.647375
19.433333	1	1.682750
19.450000	1	1.717375
19.466667	1	1.750375
19.483333	1	1.782250
19.500000	1	1.812375
19.516667	1	1.841000
19.533333	1	1.868125
19.550000	1	1.893000
19.566667	1	1.916125
19.583333	1	1.936500
19.600000	1	1.953375
19.616667	1	1.967625
19.633333	1	1.979625
19.650000	1	1.988500
19.666667	1	1.994750
19.683333	1	1.998625
19.700000	1	1.998750
19.716667	1	1.996000
19.733333	1	1.990375
19.750000	1	1.981125
19.766667	1	1.969500
19.783333	1	1.954625
19.800000	1	1.938000
19.816667	1	1.919375
19.833333	1	1.898250
19.850000	1	1.875875
19.866667	1	1.851500
19.883333	1	1.826875
19.900000	1	1.802750
19.916667	1	1.778000
19.933333	1	1.754250
19.950000	1	1.731625
19.966667	1	1.710500
19.983333	1	1.690875
20.000000	1	1.674000
20.016667	1	1.659000
20.033333	1	1.646250
20.050000	1	1.636250
20.066667	1	1.628750
20.083333	1	1.622625
20.100000	1	1.619500
20.116667	1	1.618250
20.133333	1	1.618500
20.150000	1	1.619625
20.166667	1	1.622750
20.183333	1	1.626500
20.200000	1	1.631000
20.216667	1	1.637250
20.233333	1	1.643250
20.250000	1	1.649000
20.266667	1	1.655250
20.283333	1	1.661750
20.300000	1	1.669750
20.316667	1	1.677875
20.333333	1	1.687125
20.350000	1	1.696500
20.366667	1	1.706750
20.383333	1	1.718250
20.400000	1	1.731625
20.416667	1	1.746125
20.433333	1	1.762500
20.450000	1	1.780625
20.466667	1	1.800000
20.483333	1	1.821000
20.500000	1	1.844250
20.516667	1	1.868875
20.533333	1	1.894750
20.550000	1	1.921875
20.566667	1	1.949875
20.583333	1	1.978875
20.600000	1	2.007125
20.616667	1	2.035000
20.633333	1	2.061375
20.650000	1	2.086000
20.666667	1	2.108875
20.683333	1	2.130250
20.700000	1	2.149000
20.716667	1	2.165625
20.733333	1	2.179375
20.750000	1	2.191125
20.766667	1	2.200750
20.783333	1	2.209375
20.800000	1	2.216000
20.816667	1	2.220875
20.833333	1	2.225000
20.850000	1	2.227000
20.866667	1	2.228125
20.883333	1	2.227375
20.900000	1	2.226000
20.916667	1	2.222625
20.933333	1	2.217750
20.950000	1	2.211750
20.966667	1	2.204375
20.983333	1	2.194875
21.000000	1	2.183875
21.016667	1	2.170375
21.033333	1	2.154750
21.050000	1	2.137000
21.066667	1	2.116625
21.083333	1	2.093750
21.100000	1	2.068625
21.116667	1	2.041750
21.133333	1	2.012250
21.150000	1	1.980375
21.166667	1	1.948000
21.183333	1	1.913500
21.200000	1	1.879375
21.216667	1	1.843500
21.233333	1	1.809500
21.250000	1	1.774750
21.266667	1	1.741125
21.283333	1	1.707625
21.300000	1	1.676375
21.316667	1	1.646125
21.333333	1	1.616500
21.350000	1	1.589750
21.366667	1	1.563625
21.383333	1	1.539125
21.400000	1	1.515000
21.416667	1	1.491875
21.433333	1	1.468500
21.450000	1	1.445125
21.466667	1	1.422250
21.483333	1	1.398375
21.500000	1	1.374250
21.516667	1	1.350250
21.533333	1	1.324625
21.550000	1	1.299000
21.566667	1	1.272375
21.583333	1	1.245250
21.600000	1	1.217500
21.616667	1	1.188750
21.633333	1	1.160750
21.650000	1	1.132500
21.666667	1	1.104250
21.683333	1	1.076125
21.700000	1	1.048875
21.716667	1	1.022500
21.733333	1	0.996375
21.750000	1	0.972250
21.766667	1	0.949000
21.783333	1	0.925750
21.800000	1	0.904625
21.816667	1	0.884875
21.833333	1	0.867000
21.850000	1	0.849750
21.866667	1	0.835000
21.883333	1	0.821250
21.900000	1	0.808500
21.916667	1	0.797375
21.933333	1	0.788500
21.950000	1	0.780750
21.966667	1	0.775250
21.983333	1	0.770875
22.000000	1	0.768000
22.016667	1	0.767000
22.033333	1	0.767750
22.050000	1	0.769000
22.066667	1	0.772000
22.083333	1	0.775375
22.100000	1	0.781500
22.116667	1	0.788250
22.133333	1	0.796250
22.150000	1	0.805375
22.166667	1	0.814500
22.183333	1	0.823875
22.200000	1	0.833500
22.216667	1	0.843375
22.233333	1	0.853125
22.250000	1	0.862875
22.266667	1	0.872250
22.283333	1	0.880875
22.300000	1	0.889375
22.316667	1	0.896750
22.333333	1	0.904375
22.350000	1	0.911375
22.366667	1	0.917750
22.383333	1	0.923250
22.400000	1	0.927750
22.416667	1	0.931000
22.433333	1	0.934250
22.450000	1	0.936125
22.466667	1	0.937375
22.483333	1	0.938250
22.500000	1	0.938500
22.516667	1	0.937750
22.533333	1	0.935750
22.550000	1	0.933000
22.566667	1	0.929500
22.583333	1	0.925000
22.600000	1	0.920250
22.616667	1	0.914875
22.633333	1	0.909000
22.650000	1	0.902625
22.666667	1	0.896875
22.683333	1	0.891500
22.700000	1	0.885250
22.716667	1	0.879625
22.733333	1	0.874375
22.750000	1	0.869500
22.766667	1	0.864875
22.783333	1	0.860875
22.800000	1	0.858250
22.816667	1	0.856500
22.833333	1	0.855125
22.850000	1	0.855000
22.866667	1	0.854625
22.883333	1	0.854875
22.900000	1	0.856000
22.916667	1	0.857875
22.933333	1	0.860000
22.950000	1	0.862875
22.966667	1	0.865625
22.983333	1	0.868125
23.000000	1	0.870500
23.016667	1	0.872875
23.033333	1	0.875500
23.050000	1	0.876875
23.066667	1	0.878250
23.083333	1	0.879250
23.100000	1	0.880125
23.116667	1	0.880500
23.133333	1	0.880750
23.150000	1	0.879875
23.166667	1	0.879250
23.183333	1	0.877375
23.200000	1	0.874750
23.216667	1	0.871875
23.233333	1	0.868750
23.250000	1	0.864375
23.266667	1	0.860500
23.283333	1	0.855500
23.300000	1	0.851250
23.316667	1	0.844875
23.333333	1	0.838375
23.350000	1	0.831750
23.366667	1	0.824875
23.383333	1	0.817500
23.400000	1	0.809875
23.416667	1	0.802125
23.433333	1	0.793750
23.450000	1	0.784250
23.466667	1	0.775125
23.483333	1	0.765875
23.500000	1	0.756750
23.516667	1	0.747250
23.533333	1	0.737250
23.550000	1	0.728000
23.566667	1	0.719125
23.583333	1	0.708875
23.600000	1	0.699375
23.616667	1	0.691250
23.633333	1	0.682875
23.650000	1	0.674875
23.666667	1	0.667375
23.683333	1	0.660750
23.700000	1	0.654250
23.716667	1	0.648875
23.733333	1	0.644125
23.750000	1	0.640250
23.766667	1	0.638500
23.783333	1	0.638125
23.800000	1	0.639500
23.816667	1	0.642625
23.833333	1	0.647500
23.850000	1	0.654250
23.866667	1	0.664375
23.883333	1	0.678000
23.900000	1	0.693375
23.916667	1	0.710375
23.933333	1	0.731375
23.950000	1	0.754750
23.966667	1	0.780500
23.983333	1	0.808375
24.000000	1	0.838500
24.016667	1	0.870500
24.033333	1	0.904375
24.050000	1	0.939750
24.066667	1	0.975250
24.083333	1	1.010875
24.100000	1	1.046375
24.116667	1	1.082125
24.133333	1	1.117125
24.150000	1	1.151625
24.166667	1	1.183750
24.183333	1	1.215625
24.200000	1	1.245875
24.216667	1	1.274125
24.233333	1	1.300875
24.250000	1	1.325250
24.266667	1	1.347875
24.283333	1	1.368625
24.300000	1	1.387375
24.316667	1	1.404250
24.333333	1	1.418500
24.350000	1	1.431000
24.366667	1	1.440375
24.383333	1	1.447750
24.400000	1	1.453000
24.416667	1	1.455000
24.433333	1	1.455250
24.450000	1	1.452875
24.466667	1	1.447250
24.483333	1	1.439750
24.500000	1	1.429875
24.516667	1	1.417625
24.533333	1	1.402875
24.550000	1	1.386250
24.566667	1	1.367750
24.583333	1	1.347500
24.600000	1	1.326000
24.616667	1	1.303125
24.633333	1	1.280375
24.650000	1	1.256750
24.666667	1	1.233750
24.683333	1	1.210625
24.700000	1	1.187500
24.716667	1	1.165375
24.733333	1	1.144125
24.750000	1	1.124750
24.766667	1	1.105500
24.783333	1	1.086875
24.800000	1	1.070250
24.816667	1	1.055000
24.833333	1	1.040750
24.850000	1	1.028000
24.866667	1	1.016125
24.883333	1	1.005250
24.900000	1	0.995250
24.916667	1	0.987000
24.933333	1	0.979125
24.950000	1	0.971500
24.966667	1	0.964750
24.983333	1	0.958750
25.000000	1	0.953250
25.016667	1	0.947375
25.033333	1	0.941250
25.050000	1	0.936000
25.066667	1	0.930375
25.083333	1	0.924250
25.100000	1	0.918000
25.116667	1	0.910500
25.133333	1	0.903375
25.150000	1	0.895125
25.166667	1	0.886250
25.183333	1	0.876625
25.200000	1	0.866875
25.216667	1	0.856000
25.233333	1	0.844750
25.250000	1	0.832000
25.266667	1	0.818875
25.283333	1	0.805000
25.300000	1	0.790250
25.316667	1	0.775625
25.333333	1	0.760125
25.350000	1	0.743750
25.366667	1	0.727625
25.383333	1	0.711125
25.400000	1	0.694000
25.416667	1	0.677875
25.433333	1	0.661250
25.450000	1	0.645500
25.466667	1	0.630500
25.483333	1	0.615125
25.500000	1	0.600500
25.516667	1	0.587375
25.533333	1	0.574625
25.550000	1	0.561625
25.566667	1	0.550375
25.583333	1	0.539125
25.600000	1	0.529375
25.616667	1	0.520750
25.633333	1	0.512875
25.650000	1	0.506500
25.666667	1	0.500875
25.683333	1	0.495625
25.700000	1	0.491375
25.716667	1	0.488375
25.733333	1	0.485375
25.750000	1	0.483375
25.766667	1	0.482000
25.783333	1	0.480750
25.800000	1	0.480375
25.816667	1	0.481000
25.833333	1	0.481750
25.850000	1	0.483125
25.866667	1	0.485125
25.883333	1	0.487125
25.900000	1	0.489500
25.916667	1	0.492250
25.933333	1	0.494875
25.950000	1	0.497625
25.966667	1	0.501625
25.983333	1	0.505500
26.000000	1	0.508500
26.016667	1	0.512375
26.033333	1	0.516250
26.050000	1	0.519875
26.066667	1	0.523625
26.083333	1	0.527500
26.100000	1	0.531125
26.116667	1	0.534500
26.133333	1	0.537875
26.150000	1	0.542125
26.166667	1	0.545625
26.183333	1	0.549250
26.200000	1	0.552375
26.216667	1	0.555500
26.233333	1	0.559125
26.250000	1	0.562125
26.266667	1	0.565625
26.283333	1	0.568375
26.300000	1	0.570875
26.316667	1	0.574125
26.333333	1	0.577500
26.350000	1	0.580625
26.366667	1	0.583875
26.383333	1	0.587125
26.400000	1	0.590250
26.416667	1	0.593625
26.433333	1	0.597125
26.450000	1	0.601250
26.466667	1	0.604500
26.483333	1	0.607500
26.500000	1	0.611250
26.516667	1	0.615250
26.533333	1	0.619875
26.550000	1	0.623750
26.566667	1	0.627750
26.583333	1	0.632000
26.600000	1	0.635750
26.616667	1	0.640875
26.633333	1	0.645875
26.650000	1	0.650125
26.666667	1	0.654250
26.683333	1	0.658625
26.700000	1	0.663125
26.716667	1	0.666500
26.733333	1	0.670375
26.750000	1	0.673375
26.766667	1	0.676125
26.783333	1	0.679125
26.800000	1	0.681250
26.816667	1	0.683625
26.833333	1	0.685250
26.850000	1	0.686625
26.866667	1	0.687250
26.883333	1	0.688000
26.900000	1	0.688500
26.916667	1	0.688375
26.933333	1	0.687625
26.950000	1	0.686750
26.966667	1	0.685000
26.983333	1	0.683500
27.000000	1	0.681375
27.016667	1	0.679500
27.033333	1	0.677000
27.050000	1	0.674125
27.066667	1	0.671000
27.083333	1	0.667875
27.100000	1	0.664375
27.116667	1	0.660500
27.133333	1	0.656625
27.150000	1	0.653125
27.166667	1	0.649625
27.183333	1	0.644625
27.200000	1	0.639625
27.216667	1	0.634375
27.233333	1	0.628750
27.250000	1	0.623875
27.266667	1	0.617750
27.283333	1	0.611875
27.300000	1	0.605500
27.316667	1	0.598375
27.333333	1	0.591875
27.350000	1	0.584125
27.366667	1	0.576625
27.383333	1	0.569500
27.400000	1	0.562000
27.416667	1	0.555000
27.433333	1	0.547500
27.450000	1	0.539625
27.466667	1	0.531625
27.483333	1	0.523875
27.500000	1	0.515750
27.516667	1	0.508875
27.533333	1	0.501125
27.550000	1	0.493500
27.566667	1	0.486125
27.583333	1	0.479750
27.600000	1	0.472750
27.616667	1	0.465750
27.633333	1	0.459750
27.650000	1	0.455000
27.666667	1	0.450500
27.683333	1	0.446250
27.700000	1	0.443750
27.716667	1	0.443125
27.733333	1	0.443125
27.750000	1	0.445000
27.766667	1	0.448250
27.783333	1	0.454500
27.800000	1	0.463250
27.816667	1	0.474875
27.833333	1	0.489625
27.850000	1	0.508875
27.866667	1	0.532375
27.883333	1	0.560375
27.900000	1	0.593750
27.916667	1	0.631750
27.933333	1	0.675875
27.950000	1	0.726000
27.966667	1	0.781875
27.983333	1	0.844750
28.000000	1	0.913250
28.016667	1	0.988500
28.033333	1	1.069875
28.050000	1	1.157250
28.066667	1	1.249250
28.083333	1	1.345750
28.100000	1	1.446625
28.116667	1	1.551000
28.133333	1	1.657250
28.150000	1	1.765625
28.166667	1	1.874625
28.183333	1	1.982750
28.200000	1	2.090750
28.216667	1	2.196250
28.233333	1	2.299750
28.250000	1	2.398500
28.266667	1	2.493125
28.283333	1	2.583250
28.300000	1	2.668500
28.316667	1	2.747750
28.333333	1	2.821375
28.350000	1	2.890000
28.366667	1	2.952000
28.383333	1	3.008125
28.400000	1	3.059250
28.416667	1	3.104000
28.433333	1	3.143000
28.450000	1	3.177250
28.466667	1	3.206375
28.483333	1	3.230750
28.500000	1	3.250625
28.516667	1	3.265375
28.533333	1	3.275000
28.550000	1	3.279125
28.566667	1	3.278000
28.583333	1	3.271875
28.600000	1	3.258625
28.616667	1	3.239875
28.633333	1	3.216000
28.650000	1	3.184875
28.666667	1	3.148375
28.683333	1	3.104625
28.700000	1	3.053875
28.716667	1	2.996500
28.733333	1	2.932500
28.750000	1	2.861250
28.766667	1	2.784000
28.783333	1	2.700875
28.800000	1	2.612500
28.816667	1	2.518625
28.833333	1	2.420500
28.850000	1	2.319000
28.866667	1	2.214125
28.883333	1	2.106750
28.900000	1	1.998500
28.916667	1	1.889375
28.933333	1	1.781000
28.950000	1	1.672500
28.966667	1	1.566625
28.983333	1	1.463125
29.000000	1	1.362000
29.016667	1	1.264625
29.033333	1	1.170000
29.050000	1	1.080500
29.066667	1	0.995000
29.083333	1	0.913375
29.100000	1	0.837250
29.116667	1	0.766750
29.133333	1	0.699625
29.150000	1	0.637625
29.166667	1	0.580875
29.183333	1	0.527750
29.200000	1	0.479500
29.216667	1	0.435375
29.233333	1	0.395125
29.250000	1	0.358500
29.266667	1	0.325500
29.283333	1	0.295750
29.300000	1	0.268625
29.316667	1	0.244250
29.333333	1	0.222625
29.350000	1	0.202250
29.366667	1	0.185125
29.383333	1	0.170250
29.400000	1	0.157500
29.416667	1	0.146625
29.433333	1	0.137750
29.450000	1	0.129750
29.466667	1	0.123500
29.483333	1	0.119000
29.500000	1	0.115500
29.516667	1	0.113125
29.533333	1	0.113000
29.550000	1	0.113875
29.566667	1	0.116250
29.583333	1	0.119500
29.600000	1	0.124125
29.616667	1	0.129500
29.633333	1	0.135625
29.650000	1	0.143125
29.666667	1	0.151500
29.683333	1	0.160875
29.700000	1	0.172125
29.716667	1	0.183125
29.733333	1	0.194750
29.750000	1	0.207875
29.766667	1	0.220875
29.783333	1	0.235125
29.800000	1	0.249500
29.816667	1	0.264250
29.833333	1	0.279750
29.850000	1	0.295000
29.866667	1	0.309875
29.883333	1	0.325500
29.900000	1	0.340875
29.916667	1	0.356250
29.933333	1	0.371500
29.950000	1	0.386375
29.966667	1	0.400625
29.983333	1	0.414625
30.000000	1	0.427875
30.016667	1	0.441500
30.033333	1	0.453500
30.050000	1	0.465625
30.066667	1	0.476750
30.083333	1	0.487125
30.100000	1	0.497500
30.116667	1	0.507000
30.133333	1	0.515250
30.150000	1	0.523250
30.166667	1	0.530875
30.183333	1	0.537875
30.200000	1	0.545000
30.216667	1	0.550250
30.233333	1	0.555125
30.250000	1	0.558750
30.266667	1	0.562375
30.283333	1	0.565875
30.300000	1	0.568875
30.316667	1	0.571250
30.333333	1	0.572875
30.350000	1	0.574750
30.366667	1	0.575375
30.383333	1	0.575500
30.400000	1	0.575375
30.416667	1	0.575125
30.433333	1	0.574750
30.450000	1	0.574000
30.466667	1	0.573125
30.483333	1	0.571000
30.500000	1	0.569625
30.516667	1	0.566625
30.533333	1	0.563875
30.550000	1	0.560750
30.566667	1	0.557125
30.583333	1	0.553375
30.600000	1	0.550000
30.616667	1	0.545375
30.633333	1	0.541875
30.650000	1	0.537125
30.666667	1	0.533250
30.683333	1	0.529125
30.700000	1	0.525000
30.716667	1	0.521000
30.733333	1	0.517250
30.750000	1	0.513375
30.766667	1	0.509000
30.783333	1	0.505125
30.800000	1	0.501500
30.816667	1	0.498250
30.833333	1	0.495375
30.850000	1	0.492875
30.866667	1	0.491125
30.883333	1	0.488500
30.900000	1	0.486875
30.916667	1	0.485375
30.933333	1	0.484375
30.950000	1	0.484000
30.966667	1	0.484500
30.983333	1	0.484375
31.000000	1	0.484875
31.016667	1	0.485125
31.033333	1	0.486375
31.050000	1	0.487250
31.066667	1	0.488375
31.083333	1	0.489750
31.100000	1	0.490875
31.116667	1	0.493000
31.133333	1	0.494750
31.150000	1	0.496125
31.166667	1	0.497625
31.183333	1	0.499000
31.200000	1	0.500500
31.216667	1	0.502125
31.233333	1	0.503750
31.250000	1	0.505750
31.266667	1	0.507375
31.283333	1	0.509000
31.300000	1	0.510250
31.316667	1	0.511625
31.333333	1	0.512125
31.350000	1	0.513375
31.366667	1	0.514500
31.383333	1	0.515625
31.400000	1	0.516000
31.416667	1	0.516625
31.433333	1	0.517250
31.450000	1	0.517000
31.466667	1	0.517125
31.483333	1	0.516625
31.500000	1	0.517000
31.516667	1	0.516250
31.533333	1	0.515250
31.550000	1	0.513625
31.566667	1	0.511750
31.583333	1	0.510375
31.600000	1	0.508875
31.616667	1	0.507375
31.633333	1	0.504125
31.650000	1	0.502125
31.666667	1	0.499625
31.683333	1	0.496625
31.700000	1	0.493375
31.716667	1	0.490250
31.733333	1	0.486750
31.750000	1	0.483500
31.766667	1	0.479375
31.783333	1	0.476125
31.800000	1	0.472750
31.816667	1	0.469250
31.833333	1	0.465750
31.850000	1	0.462750
31.866667	1	0.459125
31.883333	1	0.455875
31.900000	1	0.453125
31.916667	1	0.450625
31.933333	1	0.448125
31.950000	1	0.447125
31.966667	1	0.445875
31.983333	1	0.445375
32.000000	1	0.445500
32.016667	1	0.446250
32.033333	1	0.447500
32.050000	1	0.449375
32.066667	1	0.451000
32.083333	1	0.453625
32.100000	1	0.457625
32.116667	1	0.461750
32.133333	1	0.466125
32.150000	1	0.472000
32.166667	1	0.478625
32.183333	1	0.485750
32.200000	1	0.493625
32.216667	1	0.501250
32.233333	1	0.509250
32.250000	1	0.517750
32.266667	1	0.526375
32.283333	1	0.535375
32.300000	1	0.545750
32.316667	1	0.555750
32.333333	1	0.565375
32.350000	1	0.575625
32.366667	1	0.586000
32.383333	1	0.596375
32.400000	1	0.606500
32.416667	1	0.616500
32.433333	1	0.626625
32.450000	1	0.636125
32.466667	1	0.646250
32.483333	1	0.655250
32.500000	1	0.664125
32.516667	1	0.673000
32.533333	1	0.681250
32.550000	1	0.689625
32.566667	1	0.696875
32.583333	1	0.704000
32.600000	1	0.711375
32.616667	1	0.717125
32.633333	1	0.723250
32.650000	1	0.728500
32.666667	1	0.733000
32.683333	1	0.737000
32.700000	1	0.740375
32.716667	1	0.743375
32.733333	1	0.745625
32.750000	1	0.747000
32.766667	1	0.748625
32.783333	1	0.748875
32.800000	1	0.748375
32.816667	1	0.747875
32.833333	1	0.746625
32.850000	1	0.743500
32.866667	1	0.740625
32.883333	1	0.737125
32.900000	1	0.733000
32.916667	1	0.728375
32.933333	1	0.723250
32.950000	1	0.717125
32.966667	1	0.709625
32.983333	1	0.702125
33.000000	1	0.693875
33.016667	1	0.685375
33.033333	1	0.676375
33.050000	1	0.666750
33.066667	1	0.657000
33.083333	1	0.646375
33.100000	1	0.634875
33.116667	1	0.623125
33.133333	1	0.610875
33.150000	1	0.598500
33.166667	1	0.585375
33.183333	1	0.572125
33.200000	1	0.558250
33.216667	1	0.544375
33.233333	1	0.530375
33.250000	1	0.516000
33.266667	1	0.501875
33.283333	1	0.487750
33.300000	1	0.473625
33.316667	1	0.459500
33.333333	1	0.445250
33.350000	1	0.431125
33.366667	1	0.417750
33.383333	1	0.404125
33.400000	1	0.390750
33.416667	1	0.377875
33.433333	1	0.364500
33.450000	1	0.352375
33.466667	1	0.339875
33.483333	1	0.327875
33.500000	1	0.316875
33.516667	1	0.306000
33.533333	1	0.294875
33.550000	1	0.285125
33.566667	1	0.275375
33.583333	1	0.266625
33.600000	1	0.258125
33.616667	1	0.250000
33.633333	1	0.242625
33.650000	1	0.235375
33.666667	1	0.229000
33.683333	1	0.222375
33.700000	1	0.216875
33.716667	1	0.211625
33.733333	1	0.206750
33.750000	1	0.202125
33.766667	1	0.197625
33.783333	1	0.194125
33.800000	1	0.190750
33.816667	1	0.188250
33.833333	1	0.185625
33.850000	1	0.182375
33.866667	1	0.180000
33.883333	1	0.178125
33.900000	1	0.176625
33.916667	1	0.174875
33.933333	1	0.173625
33.950000	1	0.172250
33.966667	1	0.171625
33.983333	1	0.170625
34.000000	1	0.170500
34.016667	1	0.170125
34.033333	1	0.169250
34.050000	1	0.169000
34.066667	1	0.168625
34.083333	1	0.168250
34.100000	1	0.168500
34.116667	1	0.167750
34.133333	1	0.167500
34.150000	1	0.168500
34.166667	1	0.169250
34.183333	1	0.169875
34.200000	1	0.170125
34.216667	1	0.171625
34.233333	1	0.172500
34.250000	1	0.173750
34.266667	1	0.174750
34.283333	1	0.176375
34.300000	1	0.177250
34.316667	1	0.178875
34.333333	1	0.180375
34.350000	1	0.182875
34.366667	1	0.184875
34.383333	1	0.186875
34.400000	1	0.190250
34.416667	1	0.193125
34.433333	1	0.196375
34.450000	1	0.199125
34.466667	1	0.202500
34.483333	1	0.205625
34.500000	1	0.209125
34.516667	1	0.212750
34.533333	1	0.215750
34.550000	1	0.219375
34.566667	1	0.223750
34.583333	1	0.227125
34.600000	1	0.231125
34.616667	1	0.234250
34.633333	1	0.237875
34.650000	1	0.241875
34.666667	1	0.245000
34.683333	1	0.248500
34.700000	1	0.252000
34.716667	1	0.255125
34.733333	1	0.258625
34.750000	1	0.260875
34.766667	1	0.263375
34.783333	1	0.265500
34.800000	1	0.267375
34.816667	1	0.269500
34.833333	1	0.270875
34.850000	1	0.273000
34.866667	1	0.274375
34.883333	1	0.276000
34.900000	1	0.277125
34.916667	1	0.277250
34.933333	1	0.278250
34.950000	1	0.278625
34.966667	1	0.278375
34.983333	1	0.277625
35.000000	1	0.277375
35.016667	1	0.277000
35.033333	1	0.276125
35.050000	1	0.274625
35.066667	1	0.274000
35.083333	1	0.272375
35.100000	1	0.271000
35.116667	1	0.269750
35.133333	1	0.268250
35.150000	1	0.266375
35.166667	1	0.263875
35.183333	1	0.261375
35.200000	1	0.258875
35.216667	1	0.256500
35.233333	1	0.253750
35.250000	1	0.250750
35.266667	1	0.247375
35.283333	1	0.244125
35.300000	1	0.240750
35.316667	1	0.238125
35.333333	1	0.234625
35.350000	1	0.232250
35.366667	1	0.228875
35.383333	1	0.226000
35.400000	1	0.223000
35.416667	1	0.220625
35.433333	1	0.217625
35.450000	1	0.214500
35.466667	1	0.211500
35.483333	1	0.208875
35.500000	1	0.206500
35.516667	1	0.204750
35.533333	1	0.202125
35.550000	1	0.200250
35.566667	1	0.198250
35.583333	1	0.196000
35.600000	1	0.194625
35.616667	1	0.193375
35.633333	1	0.191500
35.650000	1	0.190125
35.666667	1	0.189375
35.683333	1	0.188500
35.700000	1	0.187250
35.716667	1	0.186625
35.733333	1	0.186625
35.750000	1	0.186000
35.766667	1	0.185875
35.783333	1	0.185875
35.800000	1	0.185250
35.816667	1	0.185500
35.833333	1	0.185750
35.850000	1	0.186375
35.866667	1	0.187250
35.883333	1	0.188125
35.900000	1	0.189500
35.916667	1	0.190750
35.933333	1	0.191875
35.950000	1	0.192625
35.966667	1	0.193750
35.983333	1	0.194875
36.000000	1	0.196375
36.016667	1	0.198250
36.033333	1	0.199875
36.050000	1	0.202125
36.066667	1	0.203750
36.083333	1	0.205750
36.100000	1	0.207625
36.116667	1	0.210250
36.133333	1	0.211625
36.150000	1	0.214500
36.166667	1	0.216750
36.183333	1	0.219625
36.200000	1	0.222125
36.216667	1	0.225125
36.233333	1	0.228125
36.250000	1	0.230625
36.266667	1	0.233250
36.283333	1	0.236125
36.300000	1	0.239125
36.316667	1	0.242625
36.333333	1	0.244750
36.350000	1	0.247500
36.366667	1	0.250250
36.383333	1	0.253250
36.400000	1	0.256250
36.416667	1	0.259500
36.433333	1	0.262875
36.450000	1	0.266125
36.466667	1	0.268875
36.483333	1	0.272125
36.500000	1	0.275375
36.516667	1	0.278750
36.533333	1	0.281375
36.550000	1	0.284250
36.566667	1	0.287000
36.583333	1	0.289375
36.600000	1	0.292375
36.616667	1	0.295375
36.633333	1	0.297875
36.650000	1	0.301125
36.666667	1	0.303875
36.683333	1	0.306250
36.700000	1	0.309375
36.716667	1	0.312375
36.733333	1	0.315500
36.750000	1	0.318375
36.766667	1	0.320750
36.783333	1	0.323625
36.800000	1	0.326125
36.816667	1	0.328875
36.833333	1	0.331875
36.850000	1	0.334625
36.866667	1	0.337000
36.883333	1	0.339375
36.900000	1	0.342000
36.916667	1	0.343875
36.933333	1	0.346375
36.950000	1	0.348250
36.966667	1	0.349375
36.983333	1	0.351000
37.000000	1	0.352125
37.016667	1	0.353125
37.033333	1	0.353750
37.050000	1	0.354500
37.066667	1	0.355125
37.083333	1	0.355750
37.100000	1	0.355750
37.116667	1	0.355125
37.133333	1	0.355375
37.150000	1	0.355000
37.166667	1	0.355000
37.183333	1	0.354000
37.200000	1	0.352750
37.216667	1	0.350750
37.233333	1	0.349250
37.250000	1	0.347250
37.266667	1	0.345375
37.283333	1	0.343000
37.300000	1	0.340000
37.316667	1	0.337625
37.333333	1	0.334875
37.350000	1	0.332000
37.366667	1	0.328875
37.383333	1	0.325250
37.400000	1	0.321750
37.416667	1	0.316875
37.433333	1	0.312750
37.450000	1	0.308875
37.466667	1	0.304875
37.483333	1	0.300000
37.500000	1	0.295875
37.516667	1	0.291000
37.533333	1	0.287125
37.550000	1	0.282750
37.566667	1	0.278000
37.583333	1	0.273625
37.600000	1	0.268625
37.616667	1	0.263375
37.633333	1	0.257875
37.650000	1	0.252375
37.666667	1	0.247500
37.683333	1	0.242750
37.700000	1	0.238000
37.716667	1	0.233250
37.733333	1	0.228500
37.750000	1	0.222875
37.766667	1	0.217375
37.783333	1	0.211375
37.800000	1	0.206125
37.816667	1	0.200750
37.833333	1	0.195500
37.850000	1	0.190125
37.866667	1	0.185125
37.883333	1	0.179875
37.900000	1	0.174875
37.916667	1	0.170000
37.933333	1	0.165000
37.950000	1	0.160375
37.966667	1	0.155000
37.983333	1	0.150750
38.000000	1	0.146125
38.016667	1	0.141375
38.033333	1	0.136875
38.050000	1	0.133000
38.066667	1	0.129375
38.083333	1	0.125875
38.100000	1	0.121750
38.116667	1	0.118375
38.133333	1	0.115375
38.150000	1	0.112375
38.166667	1	0.109750
38.183333	1	0.106875
38.200000	1	0.103875
38.216667	1	0.101250
38.233333	1	0.098625
38.250000	1	0.096125
38.266667	1	0.094000
38.283333	1	0.092000
38.300000	1	0.090250
38.316667	1	0.088875
38.333333	1	0.087250
38.350000	1	0.085875
38.366667	1	0.084500
38.383333	1	0.084375
38.400000	1	0.083875
38.416667	1	0.083500
38.433333	1	0.082750
38.450000	1	0.082000
38.466667	1	0.081125
38.483333	1	0.080250
38.500000	1	0.079625
38.516667	1	0.080125
38.533333	1	0.080250
38.550000	1	0.080500
38.566667	1	0.080750
38.583333	1	0.080750
38.600000	1	0.080875
38.616667	1	0.080250
38.633333	1	0.080375
38.650000	1	0.080500
38.666667	1	0.080875
38.683333	1	0.081375
38.700000	1	0.081875
38.716667	1	0.082500
38.733333	1	0.083500
38.750000	1	0.083875
38.766667	1	0.084375
38.783333	1	0.084500
38.800000	1	0.085125
38.816667	1	0.086125
38.833333	1	0.086125
38.850000	1	0.086750
38.866667	1	0.087000
38.883333	1	0.087750
38.900000	1	0.087750
38.916667	1	0.087875
38.933333	1	0.088250
38.950000	1	0.088875
38.966667	1	0.088625
38.983333	1	0.088875
39.000000	1	0.089000
39.016667	1	0.089125
39.033333	1	0.089000
39.050000	1	0.089250
39.066667	1	0.090125
39.083333	1	0.090250
39.100000	1	0.090750
39.116667	1	0.090750
39.133333	1	0.091250
39.150000	1	0.091625
39.166667	1	0.091750
39.183333	1	0.092375
39.200000	1	0.092125
39.216667	1	0.092375
39.233333	1	0.093000
39.250000	1	0.093500
39.266667	1	0.093250
39.283333	1	0.093250
39.300000	1	0.093250
39.316667	1	0.093500
39.333333	1	0.093625
39.350000	1	0.093000
39.366667	1	0.093750
39.383333	1	0.093500
39.400000	1	0.093375
39.416667	1	0.093250
39.433333	1	0.093250
39.450000	1	0.093250
39.466667	1	0.093125
39.483333	1	0.092875
39.500000	1	0.093000
39.516667	1	0.092375
39.533333	1	0.092625
39.550000	1	0.092500
39.566667	1	0.093125
39.583333	1	0.092875
39.600000	1	0.092375
39.616667	1	0.092625
39.633333	1	0.092500
39.650000	1	0.092125
39.666667	1	0.091875
39.683333	1	0.091875
39.700000	1	0.091500
39.716667	1	0.091000
39.733333	1	0.091000
39.750000	1	0.091250
39.766667	1	0.091000
39.783333	1	0.091125
39.800000	1	0.090750
39.816667	1	0.090875
39.833333	1	0.090500
39.850000	1	0.090250
39.866667	1	0.089750
39.883333	1	0.090250
39.900000	1	0.090500
39.916667	1	0.091000
39.933333	1	0.090875
39.950000	1	0.090250
39.966667	1	0.090125
39.983333	1	0.090375
40.000000	1	0.090500
