File Path	chrom://marshall/Chromeleon7/HPLC_Ultimate_3000/Users/markusar/20230107.seq/478.smp/RI_1.channel/RI_1.chm
Channel	RI_1

Injection Information:
Data Vault	Chromeleon7
Injection	er2.3
Injection Number	8
Position	RA8
Comment	
Processing Method	
Instrument Method	std_method
Type	Unknown
Status	Finished
Injection Date	07.01.2023
Injection Time	20:40:51
Injection Volume (µl)	20.000
Dilution Factor	1.0000
Weight	1.0000

Chromatogram Data Information:
Time Min. (min)	0.000000
Time Max. (min)	40.000000
Data Points	2401
Detector	RI
Generating Data System	Chromeleon 7.2.5.9507
Exporting Data System	Chromeleon 7.2.5.0
Operator	Instrument Controller
Signal Quantity	Refractive 
Signal Unit	µRIU
Signal Min.	-0.073000
Signal Max.	110.980125
Channel	RI_1
Driver Name	RID520Driver.dll
Channel Type	Evaluation
Min. Step (s)	1
Max. Step (s)	1
Average Step (s)	1

Signal Parameter Information:
Signal Info	

Chromatogram Data:
Time (min)	Step (s)	Value (µRIU)
0.000000	n.a.	0.149375
0.016667	1	0.151875
0.033333	1	0.154250
0.050000	1	0.156625
0.066667	1	0.158750
0.083333	1	0.160625
0.100000	1	0.162625
0.116667	1	0.164625
0.133333	1	0.166625
0.150000	1	0.167625
0.166667	1	0.169125
0.183333	1	0.171125
0.200000	1	0.172250
0.216667	1	0.172625
0.233333	1	0.173875
0.250000	1	0.174125
0.266667	1	0.173875
0.283333	1	0.173875
0.300000	1	0.173875
0.316667	1	0.173625
0.333333	1	0.173500
0.350000	1	0.173125
0.366667	1	0.172750
0.383333	1	0.172000
0.400000	1	0.171625
0.416667	1	0.171375
0.433333	1	0.171000
0.450000	1	0.169750
0.466667	1	0.168375
0.483333	1	0.167250
0.500000	1	0.165875
0.516667	1	0.164875
0.533333	1	0.163625
0.550000	1	0.162000
0.566667	1	0.160750
0.583333	1	0.159625
0.600000	1	0.158750
0.616667	1	0.158125
0.633333	1	0.157625
0.650000	1	0.157000
0.666667	1	0.156250
0.683333	1	0.156000
0.700000	1	0.154375
0.716667	1	0.153250
0.733333	1	0.151125
0.750000	1	0.149500
0.766667	1	0.146875
0.783333	1	0.144500
0.800000	1	0.141125
0.816667	1	0.137875
0.833333	1	0.134500
0.850000	1	0.131250
0.866667	1	0.128000
0.883333	1	0.125375
0.900000	1	0.122375
0.916667	1	0.119625
0.933333	1	0.116750
0.950000	1	0.114125
0.966667	1	0.111500
0.983333	1	0.108750
1.000000	1	0.106250
1.016667	1	0.103500
1.033333	1	0.100750
1.050000	1	0.098125
1.066667	1	0.095375
1.083333	1	0.092500
1.100000	1	0.089875
1.116667	1	0.087500
1.133333	1	0.085500
1.150000	1	0.083125
1.166667	1	0.080500
1.183333	1	0.078750
1.200000	1	0.075625
1.216667	1	0.073375
1.233333	1	0.070875
1.250000	1	0.068250
1.266667	1	0.066000
1.283333	1	0.063500
1.300000	1	0.061875
1.316667	1	0.059750
1.333333	1	0.057500
1.350000	1	0.055250
1.366667	1	0.052625
1.383333	1	0.050375
1.400000	1	0.048125
1.416667	1	0.045375
1.433333	1	0.042875
1.450000	1	0.040625
1.466667	1	0.039125
1.483333	1	0.036375
1.500000	1	0.034125
1.516667	1	0.031500
1.533333	1	0.028750
1.550000	1	0.026500
1.566667	1	0.023625
1.583333	1	0.020125
1.600000	1	0.017625
1.616667	1	0.015375
1.633333	1	0.012875
1.650000	1	0.011125
1.666667	1	0.008750
1.683333	1	0.006125
1.700000	1	0.003625
1.716667	1	0.001000
1.733333	1	-0.001250
1.750000	1	-0.003625
1.766667	1	-0.006125
1.783333	1	-0.008875
1.800000	1	-0.010875
1.816667	1	-0.013125
1.833333	1	-0.015750
1.850000	1	-0.018250
1.866667	1	-0.020625
1.883333	1	-0.023375
1.900000	1	-0.025375
1.916667	1	-0.027250
1.933333	1	-0.029250
1.950000	1	-0.031875
1.966667	1	-0.033750
1.983333	1	-0.036125
2.000000	1	-0.038875
2.016667	1	-0.041750
2.033333	1	-0.043500
2.050000	1	-0.045625
2.066667	1	-0.048000
2.083333	1	-0.049625
2.100000	1	-0.050500
2.116667	1	-0.052625
2.133333	1	-0.053875
2.150000	1	-0.055000
2.166667	1	-0.056750
2.183333	1	-0.059000
2.200000	1	-0.060125
2.216667	1	-0.061000
2.233333	1	-0.062500
2.250000	1	-0.063750
2.266667	1	-0.064875
2.283333	1	-0.066000
2.300000	1	-0.066000
2.316667	1	-0.067000
2.333333	1	-0.067625
2.350000	1	-0.068625
2.366667	1	-0.069625
2.383333	1	-0.069875
2.400000	1	-0.070250
2.416667	1	-0.070250
2.433333	1	-0.070625
2.450000	1	-0.071125
2.466667	1	-0.071250
2.483333	1	-0.071250
2.500000	1	-0.071625
2.516667	1	-0.071875
2.533333	1	-0.072500
2.550000	1	-0.072625
2.566667	1	-0.073000
2.583333	1	-0.072875
2.600000	1	-0.072000
2.616667	1	-0.071750
2.633333	1	-0.071625
2.650000	1	-0.070625
2.666667	1	-0.070500
2.683333	1	-0.070000
2.700000	1	-0.069375
2.716667	1	-0.068500
2.733333	1	-0.068125
2.750000	1	-0.067875
2.766667	1	-0.067000
2.783333	1	-0.066375
2.800000	1	-0.066250
2.816667	1	-0.065625
2.833333	1	-0.064625
2.850000	1	-0.064375
2.866667	1	-0.063500
2.883333	1	-0.063375
2.900000	1	-0.062750
2.916667	1	-0.061750
2.933333	1	-0.061500
2.950000	1	-0.061000
2.966667	1	-0.060625
2.983333	1	-0.059875
3.000000	1	-0.059000
3.016667	1	-0.058375
3.033333	1	-0.057375
3.050000	1	-0.057000
3.066667	1	-0.056500
3.083333	1	-0.055500
3.100000	1	-0.054250
3.116667	1	-0.053375
3.133333	1	-0.052500
3.150000	1	-0.051500
3.166667	1	-0.050125
3.183333	1	-0.048750
3.200000	1	-0.047500
3.216667	1	-0.045875
3.233333	1	-0.044750
3.250000	1	-0.043750
3.266667	1	-0.042250
3.283333	1	-0.041125
3.300000	1	-0.039375
3.316667	1	-0.037875
3.333333	1	-0.036875
3.350000	1	-0.035750
3.366667	1	-0.034125
3.383333	1	-0.032375
3.400000	1	-0.030750
3.416667	1	-0.029625
3.433333	1	-0.027875
3.450000	1	-0.026500
3.466667	1	-0.025125
3.483333	1	-0.023000
3.500000	1	-0.021250
3.516667	1	-0.018750
3.533333	1	-0.017250
3.550000	1	-0.016250
3.566667	1	-0.015000
3.583333	1	-0.013625
3.600000	1	-0.012625
3.616667	1	-0.011000
3.633333	1	-0.008750
3.650000	1	-0.006750
3.666667	1	-0.005500
3.683333	1	-0.003250
3.700000	1	-0.002000
3.716667	1	-0.001000
3.733333	1	0.000750
3.750000	1	0.002250
3.766667	1	0.004125
3.783333	1	0.006125
3.800000	1	0.007750
3.816667	1	0.009125
3.833333	1	0.010875
3.850000	1	0.012250
3.866667	1	0.013875
3.883333	1	0.016125
3.900000	1	0.018125
3.916667	1	0.019250
3.933333	1	0.020750
3.950000	1	0.022125
3.966667	1	0.023250
3.983333	1	0.024750
4.000000	1	0.026375
4.016667	1	0.027875
4.033333	1	0.029500
4.050000	1	0.031250
4.066667	1	0.032000
4.083333	1	0.033375
4.100000	1	0.034250
4.116667	1	0.035000
4.133333	1	0.035750
4.150000	1	0.036750
4.166667	1	0.037625
4.183333	1	0.038000
4.200000	1	0.038875
4.216667	1	0.039125
4.233333	1	0.039000
4.250000	1	0.039375
4.266667	1	0.039875
4.283333	1	0.040625
4.300000	1	0.041250
4.316667	1	0.041250
4.333333	1	0.041125
4.350000	1	0.041625
4.366667	1	0.041875
4.383333	1	0.042000
4.400000	1	0.041250
4.416667	1	0.041250
4.433333	1	0.040875
4.450000	1	0.041375
4.466667	1	0.041250
4.483333	1	0.041250
4.500000	1	0.041500
4.516667	1	0.041000
4.533333	1	0.040375
4.550000	1	0.039625
4.566667	1	0.039375
4.583333	1	0.038875
4.600000	1	0.038250
4.616667	1	0.038125
4.633333	1	0.037375
4.650000	1	0.037000
4.666667	1	0.036500
4.683333	1	0.035375
4.700000	1	0.034750
4.716667	1	0.034000
4.733333	1	0.033250
4.750000	1	0.032500
4.766667	1	0.031875
4.783333	1	0.030875
4.800000	1	0.029500
4.816667	1	0.029000
4.833333	1	0.028625
4.850000	1	0.028500
4.866667	1	0.027375
4.883333	1	0.026500
4.900000	1	0.025875
4.916667	1	0.025250
4.933333	1	0.024875
4.950000	1	0.024250
4.966667	1	0.023625
4.983333	1	0.022625
5.000000	1	0.022375
5.016667	1	0.021625
5.033333	1	0.020875
5.050000	1	0.020750
5.066667	1	0.020500
5.083333	1	0.020000
5.100000	1	0.019750
5.116667	1	0.019500
5.133333	1	0.018875
5.150000	1	0.018250
5.166667	1	0.018500
5.183333	1	0.018250
5.200000	1	0.018375
5.216667	1	0.018375
5.233333	1	0.018875
5.250000	1	0.018375
5.266667	1	0.019125
5.283333	1	0.018875
5.300000	1	0.018500
5.316667	1	0.018375
5.333333	1	0.018500
5.350000	1	0.019000
5.366667	1	0.019250
5.383333	1	0.020125
5.400000	1	0.021000
5.416667	1	0.020875
5.433333	1	0.021375
5.450000	1	0.021625
5.466667	1	0.022625
5.483333	1	0.023125
5.500000	1	0.023375
5.516667	1	0.024000
5.533333	1	0.024875
5.550000	1	0.026500
5.566667	1	0.027875
5.583333	1	0.029625
5.600000	1	0.030875
5.616667	1	0.032500
5.633333	1	0.034250
5.650000	1	0.036625
5.666667	1	0.039000
5.683333	1	0.041125
5.700000	1	0.043000
5.716667	1	0.045500
5.733333	1	0.047000
5.750000	1	0.049750
5.766667	1	0.052000
5.783333	1	0.054000
5.800000	1	0.056750
5.816667	1	0.060000
5.833333	1	0.062750
5.850000	1	0.064750
5.866667	1	0.067500
5.883333	1	0.069250
5.900000	1	0.072500
5.916667	1	0.074750
5.933333	1	0.077250
5.950000	1	0.080375
5.966667	1	0.083000
5.983333	1	0.085250
6.000000	1	0.087875
6.016667	1	0.090375
6.033333	1	0.093625
6.050000	1	0.096750
6.066667	1	0.099125
6.083333	1	0.101500
6.100000	1	0.103875
6.116667	1	0.106375
6.133333	1	0.108125
6.150000	1	0.110125
6.166667	1	0.112500
6.183333	1	0.115250
6.200000	1	0.116875
6.216667	1	0.118375
6.233333	1	0.120125
6.250000	1	0.122750
6.266667	1	0.125000
6.283333	1	0.127250
6.300000	1	0.129000
6.316667	1	0.131125
6.333333	1	0.133000
6.350000	1	0.135125
6.366667	1	0.136750
6.383333	1	0.138500
6.400000	1	0.140500
6.416667	1	0.142250
6.433333	1	0.144250
6.450000	1	0.145750
6.466667	1	0.147375
6.483333	1	0.148625
6.500000	1	0.149500
6.516667	1	0.150375
6.533333	1	0.151375
6.550000	1	0.151875
6.566667	1	0.152500
6.583333	1	0.152500
6.600000	1	0.153750
6.616667	1	0.153875
6.633333	1	0.154000
6.650000	1	0.154250
6.666667	1	0.154500
6.683333	1	0.154625
6.700000	1	0.154750
6.716667	1	0.154375
6.733333	1	0.153875
6.750000	1	0.154000
6.766667	1	0.154125
6.783333	1	0.153250
6.800000	1	0.153125
6.816667	1	0.152750
6.833333	1	0.152000
6.850000	1	0.151250
6.866667	1	0.151000
6.883333	1	0.150000
6.900000	1	0.149125
6.916667	1	0.148625
6.933333	1	0.147875
6.950000	1	0.147375
6.966667	1	0.146750
6.983333	1	0.146000
7.000000	1	0.145125
7.016667	1	0.145000
7.033333	1	0.144375
7.050000	1	0.144000
7.066667	1	0.143750
7.083333	1	0.143625
7.100000	1	0.143875
7.116667	1	0.143375
7.133333	1	0.143125
7.150000	1	0.143375
7.166667	1	0.143000
7.183333	1	0.143625
7.200000	1	0.143875
7.216667	1	0.143750
7.233333	1	0.143250
7.250000	1	0.144625
7.266667	1	0.145000
7.283333	1	0.145500
7.300000	1	0.145750
7.316667	1	0.146625
7.333333	1	0.148000
7.350000	1	0.148375
7.366667	1	0.149250
7.383333	1	0.149875
7.400000	1	0.150750
7.416667	1	0.151750
7.433333	1	0.152875
7.450000	1	0.153875
7.466667	1	0.155125
7.483333	1	0.156000
7.500000	1	0.157125
7.516667	1	0.158000
7.533333	1	0.158625
7.550000	1	0.159375
7.566667	1	0.160625
7.583333	1	0.161625
7.600000	1	0.162375
7.616667	1	0.162875
7.633333	1	0.163625
7.650000	1	0.164875
7.666667	1	0.165750
7.683333	1	0.166125
7.700000	1	0.166750
7.716667	1	0.167250
7.733333	1	0.167500
7.750000	1	0.167500
7.766667	1	0.168000
7.783333	1	0.168500
7.800000	1	0.168625
7.816667	1	0.169125
7.833333	1	0.169125
7.850000	1	0.169000
7.866667	1	0.169375
7.883333	1	0.169625
7.900000	1	0.168875
7.916667	1	0.167875
7.933333	1	0.167125
7.950000	1	0.166625
7.966667	1	0.166000
7.983333	1	0.165375
8.000000	1	0.165125
8.016667	1	0.164750
8.033333	1	0.163875
8.050000	1	0.163000
8.066667	1	0.162125
8.083333	1	0.160625
8.100000	1	0.160500
8.116667	1	0.160250
8.133333	1	0.159625
8.150000	1	0.158000
8.166667	1	0.156500
8.183333	1	0.155000
8.200000	1	0.153250
8.216667	1	0.152250
8.233333	1	0.151500
8.250000	1	0.149625
8.266667	1	0.147875
8.283333	1	0.146250
8.300000	1	0.144250
8.316667	1	0.142625
8.333333	1	0.141000
8.350000	1	0.139125
8.366667	1	0.137625
8.383333	1	0.135625
8.400000	1	0.133750
8.416667	1	0.132125
8.433333	1	0.130875
8.450000	1	0.128500
8.466667	1	0.126750
8.483333	1	0.124750
8.500000	1	0.122750
8.516667	1	0.120375
8.533333	1	0.118875
8.550000	1	0.117000
8.566667	1	0.115875
8.583333	1	0.114500
8.600000	1	0.113250
8.616667	1	0.111625
8.633333	1	0.109875
8.650000	1	0.108875
8.666667	1	0.107750
8.683333	1	0.106625
8.700000	1	0.105750
8.716667	1	0.104875
8.733333	1	0.104750
8.750000	1	0.104375
8.766667	1	0.103625
8.783333	1	0.103000
8.800000	1	0.102125
8.816667	1	0.102250
8.833333	1	0.102000
8.850000	1	0.102500
8.866667	1	0.102750
8.883333	1	0.102875
8.900000	1	0.103000
8.916667	1	0.103250
8.933333	1	0.104750
8.950000	1	0.105375
8.966667	1	0.106250
8.983333	1	0.107000
9.000000	1	0.107500
9.016667	1	0.108625
9.033333	1	0.110500
9.050000	1	0.112625
9.066667	1	0.113625
9.083333	1	0.115250
9.100000	1	0.116375
9.116667	1	0.118375
9.133333	1	0.120000
9.150000	1	0.121625
9.166667	1	0.123625
9.183333	1	0.126000
9.200000	1	0.127750
9.216667	1	0.129625
9.233333	1	0.132000
9.250000	1	0.134625
9.266667	1	0.137500
9.283333	1	0.140125
9.300000	1	0.143000
9.316667	1	0.145875
9.333333	1	0.149125
9.350000	1	0.151875
9.366667	1	0.154625
9.383333	1	0.158125
9.400000	1	0.161750
9.416667	1	0.165000
9.433333	1	0.168625
9.450000	1	0.172125
9.466667	1	0.175875
9.483333	1	0.179750
9.500000	1	0.183375
9.516667	1	0.188250
9.533333	1	0.193250
9.550000	1	0.197875
9.566667	1	0.202875
9.583333	1	0.208375
9.600000	1	0.214625
9.616667	1	0.220375
9.633333	1	0.226500
9.650000	1	0.232625
9.666667	1	0.239375
9.683333	1	0.247125
9.700000	1	0.255500
9.716667	1	0.264875
9.733333	1	0.276000
9.750000	1	0.287875
9.766667	1	0.301875
9.783333	1	0.317625
9.800000	1	0.336125
9.816667	1	0.357000
9.833333	1	0.380875
9.850000	1	0.407500
9.866667	1	0.437250
9.883333	1	0.470375
9.900000	1	0.505875
9.916667	1	0.545000
9.933333	1	0.586125
9.950000	1	0.630875
9.966667	1	0.677750
9.983333	1	0.728375
10.000000	1	0.783625
10.016667	1	0.843875
10.033333	1	0.908625
10.050000	1	0.974125
10.066667	1	1.034250
10.083333	1	1.081000
10.100000	1	1.105375
10.116667	1	1.102500
10.133333	1	1.071000
10.150000	1	1.018625
10.166667	1	0.960750
10.183333	1	0.918500
10.200000	1	0.920500
10.216667	1	0.999000
10.233333	1	1.192000
10.250000	1	1.539625
10.266667	1	2.086250
10.283333	1	2.875500
10.300000	1	3.955500
10.316667	1	5.371875
10.333333	1	7.168625
10.350000	1	9.389375
10.366667	1	12.071000
10.383333	1	15.247125
10.400000	1	18.948500
10.416667	1	23.196375
10.433333	1	28.006375
10.450000	1	33.375875
10.466667	1	39.297250
10.483333	1	45.741000
10.500000	1	52.652375
10.516667	1	59.938625
10.533333	1	67.463375
10.550000	1	75.048500
10.566667	1	82.478875
10.583333	1	89.515000
10.600000	1	95.909875
10.616667	1	101.427500
10.633333	1	105.851875
10.650000	1	109.003625
10.666667	1	110.745625
10.683333	1	110.980125
10.700000	1	109.654625
10.716667	1	106.780250
10.733333	1	102.446000
10.750000	1	96.827625
10.766667	1	90.181625
10.783333	1	82.804750
10.800000	1	75.011375
10.816667	1	67.104875
10.833333	1	59.360875
10.850000	1	52.005875
10.866667	1	45.202500
10.883333	1	39.062125
10.900000	1	33.644875
10.916667	1	28.962625
10.933333	1	24.990375
10.950000	1	21.673625
10.966667	1	18.940625
10.983333	1	16.711125
11.000000	1	14.904375
11.016667	1	13.444375
11.033333	1	12.263125
11.050000	1	11.303375
11.066667	1	10.514000
11.083333	1	9.855875
11.100000	1	9.297750
11.116667	1	8.812625
11.133333	1	8.383875
11.150000	1	7.996875
11.166667	1	7.641125
11.183333	1	7.309000
11.200000	1	6.995500
11.216667	1	6.697500
11.233333	1	6.412625
11.250000	1	6.140125
11.266667	1	5.880000
11.283333	1	5.631375
11.300000	1	5.394500
11.316667	1	5.170125
11.333333	1	4.958125
11.350000	1	4.758125
11.366667	1	4.572375
11.383333	1	4.401125
11.400000	1	4.244250
11.416667	1	4.102125
11.433333	1	3.976000
11.450000	1	3.864625
11.466667	1	3.768250
11.483333	1	3.685125
11.500000	1	3.614375
11.516667	1	3.552875
11.533333	1	3.499625
11.550000	1	3.452625
11.566667	1	3.410500
11.583333	1	3.370750
11.600000	1	3.333875
11.616667	1	3.298500
11.633333	1	3.264875
11.650000	1	3.234000
11.666667	1	3.204500
11.683333	1	3.176625
11.700000	1	3.150125
11.716667	1	3.126250
11.733333	1	3.102750
11.750000	1	3.078750
11.766667	1	3.054750
11.783333	1	3.030375
11.800000	1	3.004750
11.816667	1	2.977875
11.833333	1	2.950000
11.850000	1	2.921125
11.866667	1	2.892125
11.883333	1	2.862625
11.900000	1	2.832875
11.916667	1	2.803875
11.933333	1	2.775500
11.950000	1	2.747625
11.966667	1	2.719375
11.983333	1	2.692000
12.000000	1	2.664500
12.016667	1	2.637125
12.033333	1	2.609625
12.050000	1	2.582625
12.066667	1	2.555625
12.083333	1	2.528000
12.100000	1	2.500000
12.116667	1	2.472375
12.133333	1	2.445250
12.150000	1	2.417875
12.166667	1	2.391375
12.183333	1	2.364125
12.200000	1	2.338375
12.216667	1	2.313625
12.233333	1	2.291000
12.250000	1	2.269250
12.266667	1	2.249250
12.283333	1	2.231375
12.300000	1	2.215875
12.316667	1	2.203250
12.333333	1	2.194750
12.350000	1	2.191375
12.366667	1	2.193750
12.383333	1	2.203375
12.400000	1	2.220000
12.416667	1	2.246125
12.433333	1	2.284000
12.450000	1	2.336125
12.466667	1	2.404125
12.483333	1	2.491750
12.500000	1	2.602375
12.516667	1	2.741625
12.533333	1	2.913125
12.550000	1	3.120000
12.566667	1	3.367375
12.583333	1	3.659000
12.600000	1	3.996125
12.616667	1	4.378750
12.633333	1	4.806125
12.650000	1	5.274750
12.666667	1	5.779000
12.683333	1	6.313750
12.700000	1	6.873125
12.716667	1	7.449750
12.733333	1	8.038125
12.750000	1	8.633000
12.766667	1	9.231875
12.783333	1	9.832375
12.800000	1	10.433625
12.816667	1	11.035750
12.833333	1	11.639250
12.850000	1	12.245625
12.866667	1	12.856125
12.883333	1	13.471625
12.900000	1	14.092125
12.916667	1	14.715250
12.933333	1	15.337875
12.950000	1	15.953500
12.966667	1	16.553500
12.983333	1	17.130625
13.000000	1	17.675375
13.016667	1	18.177750
13.033333	1	18.632000
13.050000	1	19.030375
13.066667	1	19.367000
13.083333	1	19.638375
13.100000	1	19.840625
13.116667	1	19.972750
13.133333	1	20.036625
13.150000	1	20.033125
13.166667	1	19.965125
13.183333	1	19.837750
13.200000	1	19.656625
13.216667	1	19.425750
13.233333	1	19.152750
13.250000	1	18.840250
13.266667	1	18.494750
13.283333	1	18.122375
13.300000	1	17.726375
13.316667	1	17.312625
13.333333	1	16.885000
13.350000	1	16.446375
13.366667	1	16.000875
13.383333	1	15.551125
13.400000	1	15.099375
13.416667	1	14.648250
13.433333	1	14.197875
13.450000	1	13.748875
13.466667	1	13.301625
13.483333	1	12.855375
13.500000	1	12.407625
13.516667	1	11.958250
13.533333	1	11.506000
13.550000	1	11.049250
13.566667	1	10.586375
13.583333	1	10.116375
13.600000	1	9.641875
13.616667	1	9.164625
13.633333	1	8.689625
13.650000	1	8.221750
13.666667	1	7.767750
13.683333	1	7.334000
13.700000	1	6.926250
13.716667	1	6.550875
13.733333	1	6.211250
13.750000	1	5.909000
13.766667	1	5.645000
13.783333	1	5.418750
13.800000	1	5.226500
13.816667	1	5.064625
13.833333	1	4.928500
13.850000	1	4.813750
13.866667	1	4.715250
13.883333	1	4.629875
13.900000	1	4.554625
13.916667	1	4.487125
13.933333	1	4.426625
13.950000	1	4.370250
13.966667	1	4.319000
13.983333	1	4.271375
14.000000	1	4.227375
14.016667	1	4.185875
14.033333	1	4.145125
14.050000	1	4.105000
14.066667	1	4.064000
14.083333	1	4.020000
14.100000	1	3.972875
14.116667	1	3.920250
14.133333	1	3.861625
14.150000	1	3.796000
14.166667	1	3.723875
14.183333	1	3.644750
14.200000	1	3.560750
14.216667	1	3.472250
14.233333	1	3.382000
14.250000	1	3.291375
14.266667	1	3.202750
14.283333	1	3.118375
14.300000	1	3.040000
14.316667	1	2.970625
14.333333	1	2.911875
14.350000	1	2.865375
14.366667	1	2.832375
14.383333	1	2.815625
14.400000	1	2.815125
14.416667	1	2.832250
14.433333	1	2.867875
14.450000	1	2.923375
14.466667	1	2.998250
14.483333	1	3.093000
14.500000	1	3.208250
14.516667	1	3.343375
14.533333	1	3.498625
14.550000	1	3.673125
14.566667	1	3.867625
14.583333	1	4.080125
14.600000	1	4.309750
14.616667	1	4.556250
14.633333	1	4.816875
14.650000	1	5.091500
14.666667	1	5.376750
14.683333	1	5.669125
14.700000	1	5.965000
14.716667	1	6.262000
14.733333	1	6.555875
14.750000	1	6.845250
14.766667	1	7.130000
14.783333	1	7.409000
14.800000	1	7.687000
14.816667	1	7.968250
14.833333	1	8.262625
14.850000	1	8.578375
14.866667	1	8.928000
14.883333	1	9.323625
14.900000	1	9.778625
14.916667	1	10.302125
14.933333	1	10.902625
14.950000	1	11.581250
14.966667	1	12.337750
14.983333	1	13.161875
15.000000	1	14.040875
15.016667	1	14.959000
15.033333	1	15.896750
15.050000	1	16.833000
15.066667	1	17.747875
15.083333	1	18.623375
15.100000	1	19.444250
15.116667	1	20.199000
15.133333	1	20.879125
15.150000	1	21.480500
15.166667	1	22.000000
15.183333	1	22.437000
15.200000	1	22.789875
15.216667	1	23.059000
15.233333	1	23.241875
15.250000	1	23.336250
15.266667	1	23.339750
15.283333	1	23.247250
15.300000	1	23.056500
15.316667	1	22.763375
15.333333	1	22.368125
15.350000	1	21.872750
15.366667	1	21.284000
15.383333	1	20.608375
15.400000	1	19.856000
15.416667	1	19.039125
15.433333	1	18.169125
15.450000	1	17.258500
15.466667	1	16.321250
15.483333	1	15.370375
15.500000	1	14.419875
15.516667	1	13.479375
15.533333	1	12.559875
15.550000	1	11.669500
15.566667	1	10.816625
15.583333	1	10.007500
15.600000	1	9.245875
15.616667	1	8.534250
15.633333	1	7.875250
15.650000	1	7.270750
15.666667	1	6.720125
15.683333	1	6.222375
15.700000	1	5.775125
15.716667	1	5.377125
15.733333	1	5.024875
15.750000	1	4.714625
15.766667	1	4.444000
15.783333	1	4.209375
15.800000	1	4.007625
15.816667	1	3.835000
15.833333	1	3.689625
15.850000	1	3.568625
15.866667	1	3.471125
15.883333	1	3.394875
15.900000	1	3.339375
15.916667	1	3.302875
15.933333	1	3.284625
15.950000	1	3.282875
15.966667	1	3.294625
15.983333	1	3.320500
16.000000	1	3.356250
16.016667	1	3.400250
16.033333	1	3.451250
16.050000	1	3.506500
16.066667	1	3.563500
16.083333	1	3.621125
16.100000	1	3.677875
16.116667	1	3.731500
16.133333	1	3.782000
16.150000	1	3.829250
16.166667	1	3.873125
16.183333	1	3.914750
16.200000	1	3.954625
16.216667	1	3.993375
16.233333	1	4.031625
16.250000	1	4.069000
16.266667	1	4.104750
16.283333	1	4.139750
16.300000	1	4.172000
16.316667	1	4.200750
16.333333	1	4.223125
16.350000	1	4.238875
16.366667	1	4.247125
16.383333	1	4.245750
16.400000	1	4.235375
16.416667	1	4.215000
16.433333	1	4.184375
16.450000	1	4.145250
16.466667	1	4.097750
16.483333	1	4.042875
16.500000	1	3.980625
16.516667	1	3.913500
16.533333	1	3.841500
16.550000	1	3.765875
16.566667	1	3.687250
16.583333	1	3.606375
16.600000	1	3.524125
16.616667	1	3.440750
16.633333	1	3.355875
16.650000	1	3.270375
16.666667	1	3.184500
16.683333	1	3.098250
16.700000	1	3.012875
16.716667	1	2.927875
16.733333	1	2.845000
16.750000	1	2.763375
16.766667	1	2.684500
16.783333	1	2.608125
16.800000	1	2.534625
16.816667	1	2.464250
16.833333	1	2.398000
16.850000	1	2.335250
16.866667	1	2.276625
16.883333	1	2.221375
16.900000	1	2.170000
16.916667	1	2.122750
16.933333	1	2.079125
16.950000	1	2.038875
16.966667	1	2.002000
16.983333	1	1.969125
17.000000	1	1.939000
17.016667	1	1.913125
17.033333	1	1.889375
17.050000	1	1.868375
17.066667	1	1.849125
17.083333	1	1.832125
17.100000	1	1.817000
17.116667	1	1.803875
17.133333	1	1.792875
17.150000	1	1.782750
17.166667	1	1.773125
17.183333	1	1.764750
17.200000	1	1.756500
17.216667	1	1.749125
17.233333	1	1.741375
17.250000	1	1.734000
17.266667	1	1.726375
17.283333	1	1.718875
17.300000	1	1.710500
17.316667	1	1.702000
17.333333	1	1.693000
17.350000	1	1.684250
17.366667	1	1.675625
17.383333	1	1.666125
17.400000	1	1.656375
17.416667	1	1.646750
17.433333	1	1.638000
17.450000	1	1.628750
17.466667	1	1.620250
17.483333	1	1.611750
17.500000	1	1.603375
17.516667	1	1.594875
17.533333	1	1.586500
17.550000	1	1.578875
17.566667	1	1.571625
17.583333	1	1.565000
17.600000	1	1.558875
17.616667	1	1.553375
17.633333	1	1.548500
17.650000	1	1.544500
17.666667	1	1.539875
17.683333	1	1.536625
17.700000	1	1.534625
17.716667	1	1.533250
17.733333	1	1.532750
17.750000	1	1.533625
17.766667	1	1.535500
17.783333	1	1.539000
17.800000	1	1.544125
17.816667	1	1.551250
17.833333	1	1.560250
17.850000	1	1.571125
17.866667	1	1.582750
17.883333	1	1.596500
17.900000	1	1.612500
17.916667	1	1.629750
17.933333	1	1.648375
17.950000	1	1.669125
17.966667	1	1.690375
17.983333	1	1.713125
18.000000	1	1.736500
18.016667	1	1.761000
18.033333	1	1.786000
18.050000	1	1.810000
18.066667	1	1.834375
18.083333	1	1.858000
18.100000	1	1.881500
18.116667	1	1.903625
18.133333	1	1.925375
18.150000	1	1.946000
18.166667	1	1.966250
18.183333	1	1.984375
18.200000	1	2.001625
18.216667	1	2.017000
18.233333	1	2.030000
18.250000	1	2.041250
18.266667	1	2.051125
18.283333	1	2.058875
18.300000	1	2.063875
18.316667	1	2.066750
18.333333	1	2.067625
18.350000	1	2.065250
18.366667	1	2.061125
18.383333	1	2.055000
18.400000	1	2.046750
18.416667	1	2.036875
18.433333	1	2.026000
18.450000	1	2.012875
18.466667	1	1.998000
18.483333	1	1.982250
18.500000	1	1.964625
18.516667	1	1.946625
18.533333	1	1.928125
18.550000	1	1.908625
18.566667	1	1.888250
18.583333	1	1.867250
18.600000	1	1.846875
18.616667	1	1.825125
18.633333	1	1.803250
18.650000	1	1.780875
18.666667	1	1.757875
18.683333	1	1.734625
18.700000	1	1.712125
18.716667	1	1.689375
18.733333	1	1.666625
18.750000	1	1.643375
18.766667	1	1.620375
18.783333	1	1.598250
18.800000	1	1.577500
18.816667	1	1.556375
18.833333	1	1.536500
18.850000	1	1.516000
18.866667	1	1.495625
18.883333	1	1.476750
18.900000	1	1.458500
18.916667	1	1.440750
18.933333	1	1.423000
18.950000	1	1.405875
18.966667	1	1.390250
18.983333	1	1.375500
19.000000	1	1.360625
19.016667	1	1.346500
19.033333	1	1.332625
19.050000	1	1.319750
19.066667	1	1.308125
19.083333	1	1.297000
19.100000	1	1.287750
19.116667	1	1.279500
19.133333	1	1.273375
19.150000	1	1.269625
19.166667	1	1.267375
19.183333	1	1.268875
19.200000	1	1.273000
19.216667	1	1.279250
19.233333	1	1.289250
19.250000	1	1.302375
19.266667	1	1.318375
19.283333	1	1.337625
19.300000	1	1.360250
19.316667	1	1.384875
19.333333	1	1.412750
19.350000	1	1.442000
19.366667	1	1.473125
19.383333	1	1.505750
19.400000	1	1.539375
19.416667	1	1.572500
19.433333	1	1.605750
19.450000	1	1.638125
19.466667	1	1.669625
19.483333	1	1.699750
19.500000	1	1.728750
19.516667	1	1.755875
19.533333	1	1.780875
19.550000	1	1.804750
19.566667	1	1.825625
19.583333	1	1.843875
19.600000	1	1.860500
19.616667	1	1.874500
19.633333	1	1.885875
19.650000	1	1.894750
19.666667	1	1.900875
19.683333	1	1.903750
19.700000	1	1.902875
19.716667	1	1.899750
19.733333	1	1.893375
19.750000	1	1.883625
19.766667	1	1.870625
19.783333	1	1.854750
19.800000	1	1.836375
19.816667	1	1.815250
19.833333	1	1.791250
19.850000	1	1.765875
19.866667	1	1.739875
19.883333	1	1.711625
19.900000	1	1.682750
19.916667	1	1.653375
19.933333	1	1.623750
19.950000	1	1.594500
19.966667	1	1.566625
19.983333	1	1.540500
20.000000	1	1.515875
20.016667	1	1.493125
20.033333	1	1.472000
20.050000	1	1.453125
20.066667	1	1.436375
20.083333	1	1.421750
20.100000	1	1.410250
20.116667	1	1.400500
20.133333	1	1.393625
20.150000	1	1.387875
20.166667	1	1.383750
20.183333	1	1.381625
20.200000	1	1.381125
20.216667	1	1.381500
20.233333	1	1.382750
20.250000	1	1.385750
20.266667	1	1.389500
20.283333	1	1.394625
20.300000	1	1.401625
20.316667	1	1.409500
20.333333	1	1.418625
20.350000	1	1.429125
20.366667	1	1.440625
20.383333	1	1.454250
20.400000	1	1.470375
20.416667	1	1.488875
20.433333	1	1.509500
20.450000	1	1.532750
20.466667	1	1.557000
20.483333	1	1.584250
20.500000	1	1.614125
20.516667	1	1.646125
20.533333	1	1.679500
20.550000	1	1.713625
20.566667	1	1.748375
20.583333	1	1.784375
20.600000	1	1.819875
20.616667	1	1.854250
20.633333	1	1.888250
20.650000	1	1.919750
20.666667	1	1.949250
20.683333	1	1.977375
20.700000	1	2.003125
20.716667	1	2.026125
20.733333	1	2.046750
20.750000	1	2.065000
20.766667	1	2.082000
20.783333	1	2.096500
20.800000	1	2.109000
20.816667	1	2.119875
20.833333	1	2.129250
20.850000	1	2.136500
20.866667	1	2.142375
20.883333	1	2.146750
20.900000	1	2.149875
20.916667	1	2.151000
20.933333	1	2.150875
20.950000	1	2.148125
20.966667	1	2.143250
20.983333	1	2.136000
21.000000	1	2.126125
21.016667	1	2.113625
21.033333	1	2.098625
21.050000	1	2.080375
21.066667	1	2.059875
21.083333	1	2.035875
21.100000	1	2.008625
21.116667	1	1.979000
21.133333	1	1.947750
21.150000	1	1.914125
21.166667	1	1.879500
21.183333	1	1.843875
21.200000	1	1.807000
21.216667	1	1.769500
21.233333	1	1.733375
21.250000	1	1.697875
21.266667	1	1.662375
21.283333	1	1.628250
21.300000	1	1.596000
21.316667	1	1.564125
21.333333	1	1.535000
21.350000	1	1.506875
21.366667	1	1.480375
21.383333	1	1.455000
21.400000	1	1.429750
21.416667	1	1.405500
21.433333	1	1.381750
21.450000	1	1.358000
21.466667	1	1.334000
21.483333	1	1.309250
21.500000	1	1.284000
21.516667	1	1.258250
21.533333	1	1.231750
21.550000	1	1.204750
21.566667	1	1.177125
21.583333	1	1.148625
21.600000	1	1.119500
21.616667	1	1.090250
21.633333	1	1.061125
21.650000	1	1.031750
21.666667	1	1.003375
21.683333	1	0.975750
21.700000	1	0.947500
21.716667	1	0.920250
21.733333	1	0.894125
21.750000	1	0.869125
21.766667	1	0.845625
21.783333	1	0.823500
21.800000	1	0.802875
21.816667	1	0.783125
21.833333	1	0.765375
21.850000	1	0.748750
21.866667	1	0.733375
21.883333	1	0.719250
21.900000	1	0.706500
21.916667	1	0.695500
21.933333	1	0.686250
21.950000	1	0.679000
21.966667	1	0.672250
21.983333	1	0.667750
22.000000	1	0.663750
22.016667	1	0.661375
22.033333	1	0.659750
22.050000	1	0.660125
22.066667	1	0.661750
22.083333	1	0.664500
22.100000	1	0.666875
22.116667	1	0.670625
22.133333	1	0.674875
22.150000	1	0.680375
22.166667	1	0.686250
22.183333	1	0.692000
22.200000	1	0.698875
22.216667	1	0.705125
22.233333	1	0.711125
22.250000	1	0.716125
22.266667	1	0.721375
22.283333	1	0.726750
22.300000	1	0.732375
22.316667	1	0.736750
22.333333	1	0.740625
22.350000	1	0.744500
22.366667	1	0.749000
22.383333	1	0.751875
22.400000	1	0.754375
22.416667	1	0.756000
22.433333	1	0.757625
22.450000	1	0.758625
22.466667	1	0.758375
22.483333	1	0.758250
22.500000	1	0.756875
22.516667	1	0.755375
22.533333	1	0.753500
22.550000	1	0.751375
22.566667	1	0.748500
22.583333	1	0.746000
22.600000	1	0.742250
22.616667	1	0.738500
22.633333	1	0.734625
22.650000	1	0.730250
22.666667	1	0.725875
22.683333	1	0.721250
22.700000	1	0.716375
22.716667	1	0.712250
22.733333	1	0.708750
22.750000	1	0.706500
22.766667	1	0.704250
22.783333	1	0.702250
22.800000	1	0.701125
22.816667	1	0.701375
22.833333	1	0.701375
22.850000	1	0.702625
22.866667	1	0.703750
22.883333	1	0.705000
22.900000	1	0.707750
22.916667	1	0.709875
22.933333	1	0.712250
22.950000	1	0.715500
22.966667	1	0.717875
22.983333	1	0.720875
23.000000	1	0.724500
23.016667	1	0.727375
23.033333	1	0.730125
23.050000	1	0.732375
23.066667	1	0.734750
23.083333	1	0.735875
23.100000	1	0.736875
23.116667	1	0.737125
23.133333	1	0.737250
23.150000	1	0.737375
23.166667	1	0.736750
23.183333	1	0.735875
23.200000	1	0.734000
23.216667	1	0.731500
23.233333	1	0.729000
23.250000	1	0.726125
23.266667	1	0.722125
23.283333	1	0.717875
23.300000	1	0.712250
23.316667	1	0.707125
23.333333	1	0.701125
23.350000	1	0.694750
23.366667	1	0.688375
23.383333	1	0.681125
23.400000	1	0.673875
23.416667	1	0.666000
23.433333	1	0.658000
23.450000	1	0.649875
23.466667	1	0.641125
23.483333	1	0.632500
23.500000	1	0.623500
23.516667	1	0.614625
23.533333	1	0.606250
23.550000	1	0.597875
23.566667	1	0.589500
23.583333	1	0.581250
23.600000	1	0.573375
23.616667	1	0.565750
23.633333	1	0.558000
23.650000	1	0.550625
23.666667	1	0.544750
23.683333	1	0.538625
23.700000	1	0.533625
23.716667	1	0.529625
23.733333	1	0.527125
23.750000	1	0.525375
23.766667	1	0.524625
23.783333	1	0.525500
23.800000	1	0.528750
23.816667	1	0.533750
23.833333	1	0.541375
23.850000	1	0.551500
23.866667	1	0.564250
23.883333	1	0.579625
23.900000	1	0.598125
23.916667	1	0.618875
23.933333	1	0.643625
23.950000	1	0.670875
23.966667	1	0.700375
23.983333	1	0.733125
24.000000	1	0.767875
24.016667	1	0.804250
24.033333	1	0.842750
24.050000	1	0.882750
24.066667	1	0.923500
24.083333	1	0.964500
24.100000	1	1.005750
24.116667	1	1.046250
24.133333	1	1.086750
24.150000	1	1.125500
24.166667	1	1.163250
24.183333	1	1.199875
24.200000	1	1.235875
24.216667	1	1.269500
24.233333	1	1.300500
24.250000	1	1.330000
24.266667	1	1.356875
24.283333	1	1.381750
24.300000	1	1.404125
24.316667	1	1.423125
24.333333	1	1.441500
24.350000	1	1.457000
24.366667	1	1.469375
24.383333	1	1.478750
24.400000	1	1.485250
24.416667	1	1.489000
24.433333	1	1.489000
24.450000	1	1.485875
24.466667	1	1.480000
24.483333	1	1.470875
24.500000	1	1.458250
24.516667	1	1.442750
24.533333	1	1.424500
24.550000	1	1.403250
24.566667	1	1.379500
24.583333	1	1.354000
24.600000	1	1.327375
24.616667	1	1.299250
24.633333	1	1.270375
24.650000	1	1.240250
24.666667	1	1.210250
24.683333	1	1.180125
24.700000	1	1.150375
24.716667	1	1.121625
24.733333	1	1.094000
24.750000	1	1.067125
24.766667	1	1.042750
24.783333	1	1.019375
24.800000	1	0.998125
24.816667	1	0.977875
24.833333	1	0.959875
24.850000	1	0.943750
24.866667	1	0.928500
24.883333	1	0.915375
24.900000	1	0.903500
24.916667	1	0.893125
24.933333	1	0.883750
24.950000	1	0.875375
24.966667	1	0.868250
24.983333	1	0.861750
25.000000	1	0.855375
25.016667	1	0.849250
25.033333	1	0.843500
25.050000	1	0.838375
25.066667	1	0.832500
25.083333	1	0.826375
25.100000	1	0.820750
25.116667	1	0.814625
25.133333	1	0.807750
25.150000	1	0.800375
25.166667	1	0.791375
25.183333	1	0.781625
25.200000	1	0.771250
25.216667	1	0.760250
25.233333	1	0.749000
25.250000	1	0.736250
25.266667	1	0.722750
25.283333	1	0.708625
25.300000	1	0.694250
25.316667	1	0.679375
25.333333	1	0.663625
25.350000	1	0.648000
25.366667	1	0.630875
25.383333	1	0.613625
25.400000	1	0.596875
25.416667	1	0.580750
25.433333	1	0.564375
25.450000	1	0.548500
25.466667	1	0.532250
25.483333	1	0.517125
25.500000	1	0.502500
25.516667	1	0.488125
25.533333	1	0.474750
25.550000	1	0.462750
25.566667	1	0.450875
25.583333	1	0.440250
25.600000	1	0.430250
25.616667	1	0.420875
25.633333	1	0.412750
25.650000	1	0.405000
25.666667	1	0.397875
25.683333	1	0.392375
25.700000	1	0.387375
25.716667	1	0.382875
25.733333	1	0.379375
25.750000	1	0.376000
25.766667	1	0.373875
25.783333	1	0.372500
25.800000	1	0.371250
25.816667	1	0.370750
25.833333	1	0.370375
25.850000	1	0.371125
25.866667	1	0.372250
25.883333	1	0.373500
25.900000	1	0.374500
25.916667	1	0.375875
25.933333	1	0.378500
25.950000	1	0.381125
25.966667	1	0.383125
25.983333	1	0.385875
26.000000	1	0.388125
26.016667	1	0.391750
26.033333	1	0.394875
26.050000	1	0.397750
26.066667	1	0.401125
26.083333	1	0.404000
26.100000	1	0.406625
26.116667	1	0.409875
26.133333	1	0.413125
26.150000	1	0.416375
26.166667	1	0.419375
26.183333	1	0.422125
26.200000	1	0.424875
26.216667	1	0.427250
26.233333	1	0.429875
26.250000	1	0.433375
26.266667	1	0.436000
26.283333	1	0.437375
26.300000	1	0.439875
26.316667	1	0.442625
26.333333	1	0.445625
26.350000	1	0.448875
26.366667	1	0.451125
26.383333	1	0.454375
26.400000	1	0.457125
26.416667	1	0.460125
26.433333	1	0.463375
26.450000	1	0.467250
26.466667	1	0.471000
26.483333	1	0.475125
26.500000	1	0.479250
26.516667	1	0.483625
26.533333	1	0.487875
26.550000	1	0.492750
26.566667	1	0.497375
26.583333	1	0.502250
26.600000	1	0.507125
26.616667	1	0.511500
26.633333	1	0.516750
26.650000	1	0.521250
26.666667	1	0.525500
26.683333	1	0.530375
26.700000	1	0.534500
26.716667	1	0.538375
26.733333	1	0.542375
26.750000	1	0.546000
26.766667	1	0.549250
26.783333	1	0.552000
26.800000	1	0.554750
26.816667	1	0.557125
26.833333	1	0.559000
26.850000	1	0.560500
26.866667	1	0.561125
26.883333	1	0.561500
26.900000	1	0.561500
26.916667	1	0.561125
26.933333	1	0.561125
26.950000	1	0.560500
26.966667	1	0.559125
26.983333	1	0.557250
27.000000	1	0.555625
27.016667	1	0.553375
27.033333	1	0.550750
27.050000	1	0.548125
27.066667	1	0.545375
27.083333	1	0.542250
27.100000	1	0.539125
27.116667	1	0.535625
27.133333	1	0.531250
27.150000	1	0.527375
27.166667	1	0.522375
27.183333	1	0.518000
27.200000	1	0.512750
27.216667	1	0.507750
27.233333	1	0.502875
27.250000	1	0.497375
27.266667	1	0.491250
27.283333	1	0.485500
27.300000	1	0.478500
27.316667	1	0.471875
27.333333	1	0.465000
27.350000	1	0.457500
27.366667	1	0.449750
27.383333	1	0.441500
27.400000	1	0.433375
27.416667	1	0.426125
27.433333	1	0.418375
27.450000	1	0.409750
27.466667	1	0.401250
27.483333	1	0.393000
27.500000	1	0.385250
27.516667	1	0.377250
27.533333	1	0.369375
27.550000	1	0.360750
27.566667	1	0.352875
27.583333	1	0.345750
27.600000	1	0.338875
27.616667	1	0.332500
27.633333	1	0.326000
27.650000	1	0.320875
27.666667	1	0.315375
27.683333	1	0.311750
27.700000	1	0.308375
27.716667	1	0.306875
27.733333	1	0.307375
27.750000	1	0.309375
27.766667	1	0.312750
27.783333	1	0.319000
27.800000	1	0.327750
27.816667	1	0.339500
27.833333	1	0.354875
27.850000	1	0.374000
27.866667	1	0.398125
27.883333	1	0.426125
27.900000	1	0.460000
27.916667	1	0.499125
27.933333	1	0.543750
27.950000	1	0.594625
27.966667	1	0.652125
27.983333	1	0.715125
28.000000	1	0.783750
28.016667	1	0.859125
28.033333	1	0.940250
28.050000	1	1.026625
28.066667	1	1.118625
28.083333	1	1.214625
28.100000	1	1.314750
28.116667	1	1.417375
28.133333	1	1.522375
28.150000	1	1.628875
28.166667	1	1.735875
28.183333	1	1.841875
28.200000	1	1.947250
28.216667	1	2.050375
28.233333	1	2.150250
28.250000	1	2.247875
28.266667	1	2.340750
28.283333	1	2.429375
28.300000	1	2.513000
28.316667	1	2.592875
28.333333	1	2.666250
28.350000	1	2.735000
28.366667	1	2.798500
28.383333	1	2.856875
28.400000	1	2.909625
28.416667	1	2.957750
28.433333	1	3.000500
28.450000	1	3.039500
28.466667	1	3.073750
28.483333	1	3.103000
28.500000	1	3.127625
28.516667	1	3.147125
28.533333	1	3.162250
28.550000	1	3.171000
28.566667	1	3.174875
28.583333	1	3.172875
28.600000	1	3.164375
28.616667	1	3.149875
28.633333	1	3.129000
28.650000	1	3.100875
28.666667	1	3.066500
28.683333	1	3.024250
28.700000	1	2.974875
28.716667	1	2.917500
28.733333	1	2.852625
28.750000	1	2.781250
28.766667	1	2.703750
28.783333	1	2.619375
28.800000	1	2.529375
28.816667	1	2.433250
28.833333	1	2.332250
28.850000	1	2.229000
28.866667	1	2.122000
28.883333	1	2.012625
28.900000	1	1.902625
28.916667	1	1.792375
28.933333	1	1.681750
28.950000	1	1.572250
28.966667	1	1.464625
28.983333	1	1.359500
29.000000	1	1.257125
29.016667	1	1.159375
29.033333	1	1.064375
29.050000	1	0.974500
29.066667	1	0.889250
29.083333	1	0.808875
29.100000	1	0.733250
29.116667	1	0.662875
29.133333	1	0.597000
29.150000	1	0.536500
29.166667	1	0.480875
29.183333	1	0.429250
29.200000	1	0.381875
29.216667	1	0.339000
29.233333	1	0.300750
29.250000	1	0.266000
29.266667	1	0.234625
29.283333	1	0.206375
29.300000	1	0.181500
29.316667	1	0.159625
29.333333	1	0.140000
29.350000	1	0.121875
29.366667	1	0.106750
29.383333	1	0.093875
29.400000	1	0.083125
29.416667	1	0.073875
29.433333	1	0.066000
29.450000	1	0.059625
29.466667	1	0.054750
29.483333	1	0.052250
29.500000	1	0.050375
29.516667	1	0.050000
29.533333	1	0.051250
29.550000	1	0.053750
29.566667	1	0.057125
29.583333	1	0.061625
29.600000	1	0.066875
29.616667	1	0.073375
29.633333	1	0.081500
29.650000	1	0.090750
29.666667	1	0.100250
29.683333	1	0.111000
29.700000	1	0.122000
29.716667	1	0.133875
29.733333	1	0.146375
29.750000	1	0.159125
29.766667	1	0.172625
29.783333	1	0.186625
29.800000	1	0.201250
29.816667	1	0.216250
29.833333	1	0.231250
29.850000	1	0.246750
29.866667	1	0.261875
29.883333	1	0.276875
29.900000	1	0.292000
29.916667	1	0.307500
29.933333	1	0.321750
29.950000	1	0.336125
29.966667	1	0.350000
29.983333	1	0.363875
30.000000	1	0.377250
30.016667	1	0.390125
30.033333	1	0.403250
30.050000	1	0.415250
30.066667	1	0.426125
30.083333	1	0.436500
30.100000	1	0.446625
30.116667	1	0.456125
30.133333	1	0.464625
30.150000	1	0.472750
30.166667	1	0.480125
30.183333	1	0.486000
30.200000	1	0.491875
30.216667	1	0.496750
30.233333	1	0.502000
30.250000	1	0.506500
30.266667	1	0.510875
30.283333	1	0.514250
30.300000	1	0.517500
30.316667	1	0.519875
30.333333	1	0.521750
30.350000	1	0.522875
30.366667	1	0.524000
30.383333	1	0.524625
30.400000	1	0.524375
30.416667	1	0.524000
30.433333	1	0.523750
30.450000	1	0.522750
30.466667	1	0.520750
30.483333	1	0.519000
30.500000	1	0.516875
30.516667	1	0.515125
30.533333	1	0.512250
30.550000	1	0.509250
30.566667	1	0.506000
30.583333	1	0.502500
30.600000	1	0.499250
30.616667	1	0.495250
30.633333	1	0.491625
30.650000	1	0.487375
30.666667	1	0.482750
30.683333	1	0.478375
30.700000	1	0.474750
30.716667	1	0.471000
30.733333	1	0.467000
30.750000	1	0.463500
30.766667	1	0.459500
30.783333	1	0.455625
30.800000	1	0.452750
30.816667	1	0.450500
30.833333	1	0.448250
30.850000	1	0.446250
30.866667	1	0.443875
30.883333	1	0.442875
30.900000	1	0.442125
30.916667	1	0.442000
30.933333	1	0.442500
30.950000	1	0.442500
30.966667	1	0.443500
30.983333	1	0.444250
31.000000	1	0.446125
31.016667	1	0.448500
31.033333	1	0.451000
31.050000	1	0.453750
31.066667	1	0.456750
31.083333	1	0.459500
31.100000	1	0.462375
31.116667	1	0.466000
31.133333	1	0.469750
31.150000	1	0.473500
31.166667	1	0.476625
31.183333	1	0.480625
31.200000	1	0.484125
31.216667	1	0.487375
31.233333	1	0.491000
31.250000	1	0.494500
31.266667	1	0.497250
31.283333	1	0.500375
31.300000	1	0.503500
31.316667	1	0.505875
31.333333	1	0.509500
31.350000	1	0.511875
31.366667	1	0.514250
31.383333	1	0.516250
31.400000	1	0.518500
31.416667	1	0.521000
31.433333	1	0.522625
31.450000	1	0.523750
31.466667	1	0.525750
31.483333	1	0.526625
31.500000	1	0.526875
31.516667	1	0.527625
31.533333	1	0.528250
31.550000	1	0.527875
31.566667	1	0.527125
31.583333	1	0.525750
31.600000	1	0.524250
31.616667	1	0.522750
31.633333	1	0.520500
31.650000	1	0.518500
31.666667	1	0.515750
31.683333	1	0.512750
31.700000	1	0.509500
31.716667	1	0.506500
31.733333	1	0.503000
31.750000	1	0.499375
31.766667	1	0.495500
31.783333	1	0.491375
31.800000	1	0.487875
31.816667	1	0.484125
31.833333	1	0.480250
31.850000	1	0.476625
31.866667	1	0.473125
31.883333	1	0.470000
31.900000	1	0.466750
31.916667	1	0.463875
31.933333	1	0.461000
31.950000	1	0.459250
31.966667	1	0.458250
31.983333	1	0.456625
32.000000	1	0.455875
32.016667	1	0.456125
32.033333	1	0.456500
32.050000	1	0.457625
32.066667	1	0.459125
32.083333	1	0.462000
32.100000	1	0.464875
32.116667	1	0.468375
32.133333	1	0.472750
32.150000	1	0.477375
32.166667	1	0.483375
32.183333	1	0.489500
32.200000	1	0.496125
32.216667	1	0.503000
32.233333	1	0.510750
32.250000	1	0.518125
32.266667	1	0.526250
32.283333	1	0.534125
32.300000	1	0.542875
32.316667	1	0.550750
32.333333	1	0.559500
32.350000	1	0.568000
32.366667	1	0.577125
32.383333	1	0.586250
32.400000	1	0.594750
32.416667	1	0.603500
32.433333	1	0.611750
32.450000	1	0.619750
32.466667	1	0.627000
32.483333	1	0.634125
32.500000	1	0.641625
32.516667	1	0.648750
32.533333	1	0.654625
32.550000	1	0.660625
32.566667	1	0.665750
32.583333	1	0.671375
32.600000	1	0.675500
32.616667	1	0.678750
32.633333	1	0.681750
32.650000	1	0.684750
32.666667	1	0.686625
32.683333	1	0.688625
32.700000	1	0.689625
32.716667	1	0.689750
32.733333	1	0.690125
32.750000	1	0.689125
32.766667	1	0.687500
32.783333	1	0.685500
32.800000	1	0.683000
32.816667	1	0.679875
32.833333	1	0.676375
32.850000	1	0.672375
32.866667	1	0.667375
32.883333	1	0.661750
32.900000	1	0.655125
32.916667	1	0.647750
32.933333	1	0.640625
32.950000	1	0.632625
32.966667	1	0.623875
32.983333	1	0.613875
33.000000	1	0.603625
33.016667	1	0.593750
33.033333	1	0.582375
33.050000	1	0.570250
33.066667	1	0.559000
33.083333	1	0.546750
33.100000	1	0.532875
33.116667	1	0.520000
33.133333	1	0.506500
33.150000	1	0.492375
33.166667	1	0.477875
33.183333	1	0.463375
33.200000	1	0.448500
33.216667	1	0.433625
33.233333	1	0.418000
33.250000	1	0.402875
33.266667	1	0.387625
33.283333	1	0.372500
33.300000	1	0.357000
33.316667	1	0.341250
33.333333	1	0.326125
33.350000	1	0.311250
33.366667	1	0.296875
33.383333	1	0.281875
33.400000	1	0.267875
33.416667	1	0.254000
33.433333	1	0.240500
33.450000	1	0.227500
33.466667	1	0.214875
33.483333	1	0.202125
33.500000	1	0.190000
33.516667	1	0.178875
33.533333	1	0.168125
33.550000	1	0.158125
33.566667	1	0.148875
33.583333	1	0.139625
33.600000	1	0.131000
33.616667	1	0.122000
33.633333	1	0.113750
33.650000	1	0.106875
33.666667	1	0.100250
33.683333	1	0.094375
33.700000	1	0.088625
33.716667	1	0.083250
33.733333	1	0.077875
33.750000	1	0.072750
33.766667	1	0.068250
33.783333	1	0.063875
33.800000	1	0.060125
33.816667	1	0.057125
33.833333	1	0.053875
33.850000	1	0.050500
33.866667	1	0.047875
33.883333	1	0.045500
33.900000	1	0.043375
33.916667	1	0.041125
33.933333	1	0.039500
33.950000	1	0.037500
33.966667	1	0.036250
33.983333	1	0.034750
34.000000	1	0.033875
34.016667	1	0.034125
34.033333	1	0.034000
34.050000	1	0.034375
34.066667	1	0.034000
34.083333	1	0.035000
34.100000	1	0.035750
34.116667	1	0.037500
34.133333	1	0.039250
34.150000	1	0.041750
34.166667	1	0.044625
34.183333	1	0.048875
34.200000	1	0.052875
34.216667	1	0.057625
34.233333	1	0.064125
34.250000	1	0.070625
34.266667	1	0.078625
34.283333	1	0.086875
34.300000	1	0.095750
34.316667	1	0.106000
34.333333	1	0.116500
34.350000	1	0.128625
34.366667	1	0.142125
34.383333	1	0.156375
34.400000	1	0.171625
34.416667	1	0.188000
34.433333	1	0.204500
34.450000	1	0.221875
34.466667	1	0.239500
34.483333	1	0.257625
34.500000	1	0.276500
34.516667	1	0.295375
34.533333	1	0.314875
34.550000	1	0.334875
34.566667	1	0.353750
34.583333	1	0.373500
34.600000	1	0.393000
34.616667	1	0.412625
34.633333	1	0.431750
34.650000	1	0.450375
34.666667	1	0.469125
34.683333	1	0.486125
34.700000	1	0.502875
34.716667	1	0.518500
34.733333	1	0.534500
34.750000	1	0.549750
34.766667	1	0.564000
34.783333	1	0.577750
34.800000	1	0.590875
34.816667	1	0.602625
34.833333	1	0.613875
34.850000	1	0.625250
34.866667	1	0.634875
34.883333	1	0.644250
34.900000	1	0.652375
34.916667	1	0.659000
34.933333	1	0.665375
34.950000	1	0.671250
34.966667	1	0.676375
34.983333	1	0.680875
35.000000	1	0.684375
35.016667	1	0.686750
35.033333	1	0.687875
35.050000	1	0.688375
35.066667	1	0.688000
35.083333	1	0.685625
35.100000	1	0.682625
35.116667	1	0.678250
35.133333	1	0.673375
35.150000	1	0.668000
35.166667	1	0.659875
35.183333	1	0.651500
35.200000	1	0.641500
35.216667	1	0.631125
35.233333	1	0.619000
35.250000	1	0.606000
35.266667	1	0.591125
35.283333	1	0.576250
35.300000	1	0.560125
35.316667	1	0.544125
35.333333	1	0.527250
35.350000	1	0.509125
35.366667	1	0.490500
35.383333	1	0.472000
35.400000	1	0.453750
35.416667	1	0.434375
35.433333	1	0.414875
35.450000	1	0.395500
35.466667	1	0.377125
35.483333	1	0.358625
35.500000	1	0.341250
35.516667	1	0.323875
35.533333	1	0.306875
35.550000	1	0.291500
35.566667	1	0.276500
35.583333	1	0.262000
35.600000	1	0.248375
35.616667	1	0.235250
35.633333	1	0.222875
35.650000	1	0.211250
35.666667	1	0.201375
35.683333	1	0.191125
35.700000	1	0.181625
35.716667	1	0.173250
35.733333	1	0.165875
35.750000	1	0.159500
35.766667	1	0.153750
35.783333	1	0.148250
35.800000	1	0.143750
35.816667	1	0.139750
35.833333	1	0.136625
35.850000	1	0.133250
35.866667	1	0.130125
35.883333	1	0.128000
35.900000	1	0.126250
35.916667	1	0.124750
35.933333	1	0.123750
35.950000	1	0.124000
35.966667	1	0.123750
35.983333	1	0.123875
36.000000	1	0.123625
36.016667	1	0.123625
36.033333	1	0.124125
36.050000	1	0.125125
36.066667	1	0.126500
36.083333	1	0.127500
36.100000	1	0.128500
36.116667	1	0.130250
36.133333	1	0.131750
36.150000	1	0.133375
36.166667	1	0.135500
36.183333	1	0.137500
36.200000	1	0.140250
36.216667	1	0.142250
36.233333	1	0.144500
36.250000	1	0.146875
36.266667	1	0.148875
36.283333	1	0.151750
36.300000	1	0.154375
36.316667	1	0.157125
36.333333	1	0.160625
36.350000	1	0.163750
36.366667	1	0.167375
36.383333	1	0.169500
36.400000	1	0.172000
36.416667	1	0.174750
36.433333	1	0.178000
36.450000	1	0.181500
36.466667	1	0.184750
36.483333	1	0.187500
36.500000	1	0.190125
36.516667	1	0.192375
36.533333	1	0.195250
36.550000	1	0.198125
36.566667	1	0.200625
36.583333	1	0.203375
36.600000	1	0.206000
36.616667	1	0.208875
36.633333	1	0.211250
36.650000	1	0.214125
36.666667	1	0.216500
36.683333	1	0.219000
36.700000	1	0.221000
36.716667	1	0.223750
36.733333	1	0.225875
36.750000	1	0.228125
36.766667	1	0.230250
36.783333	1	0.232875
36.800000	1	0.235250
36.816667	1	0.237000
36.833333	1	0.239500
36.850000	1	0.241500
36.866667	1	0.243500
36.883333	1	0.245375
36.900000	1	0.247500
36.916667	1	0.248750
36.933333	1	0.250000
36.950000	1	0.251625
36.966667	1	0.252875
36.983333	1	0.254125
37.000000	1	0.254875
37.016667	1	0.255500
37.033333	1	0.256625
37.050000	1	0.256875
37.066667	1	0.257000
37.083333	1	0.257125
37.100000	1	0.256875
37.116667	1	0.257000
37.133333	1	0.257000
37.150000	1	0.256375
37.166667	1	0.255500
37.183333	1	0.253875
37.200000	1	0.252625
37.216667	1	0.251000
37.233333	1	0.249625
37.250000	1	0.247125
37.266667	1	0.244875
37.283333	1	0.242500
37.300000	1	0.239750
37.316667	1	0.237125
37.333333	1	0.234750
37.350000	1	0.232125
37.366667	1	0.229250
37.383333	1	0.225750
37.400000	1	0.222000
37.416667	1	0.218250
37.433333	1	0.214625
37.450000	1	0.211250
37.466667	1	0.206500
37.483333	1	0.202250
37.500000	1	0.197625
37.516667	1	0.193125
37.533333	1	0.188500
37.550000	1	0.184500
37.566667	1	0.179625
37.583333	1	0.174750
37.600000	1	0.170250
37.616667	1	0.165250
37.633333	1	0.159750
37.650000	1	0.155125
37.666667	1	0.150375
37.683333	1	0.145375
37.700000	1	0.140625
37.716667	1	0.135375
37.733333	1	0.129375
37.750000	1	0.124750
37.766667	1	0.119625
37.783333	1	0.115125
37.800000	1	0.110250
37.816667	1	0.104875
37.833333	1	0.099875
37.850000	1	0.094625
37.866667	1	0.090000
37.883333	1	0.085375
37.900000	1	0.080625
37.916667	1	0.075875
37.933333	1	0.071750
37.950000	1	0.068375
37.966667	1	0.064750
37.983333	1	0.060500
38.000000	1	0.056250
38.016667	1	0.051875
38.033333	1	0.048250
38.050000	1	0.044625
38.066667	1	0.041125
38.083333	1	0.038250
38.100000	1	0.034625
38.116667	1	0.031875
38.133333	1	0.029250
38.150000	1	0.026625
38.166667	1	0.024000
38.183333	1	0.021375
38.200000	1	0.018875
38.216667	1	0.017125
38.233333	1	0.014625
38.250000	1	0.012375
38.266667	1	0.010125
38.283333	1	0.007875
38.300000	1	0.005875
38.316667	1	0.004500
38.333333	1	0.002875
38.350000	1	0.001375
38.366667	1	0.000250
38.383333	1	-0.000500
38.400000	1	-0.002125
38.416667	1	-0.003750
38.433333	1	-0.004625
38.450000	1	-0.005000
38.466667	1	-0.005625
38.483333	1	-0.006375
38.500000	1	-0.006750
38.516667	1	-0.007000
38.533333	1	-0.007250
38.550000	1	-0.007625
38.566667	1	-0.008500
38.583333	1	-0.009250
38.600000	1	-0.008875
38.616667	1	-0.009125
38.633333	1	-0.008625
38.650000	1	-0.008750
38.666667	1	-0.008375
38.683333	1	-0.008250
38.700000	1	-0.007250
38.716667	1	-0.007125
38.733333	1	-0.006375
38.750000	1	-0.005750
38.766667	1	-0.005250
38.783333	1	-0.004125
38.800000	1	-0.003375
38.816667	1	-0.002375
38.833333	1	-0.001750
38.850000	1	-0.001000
38.866667	1	-0.000750
38.883333	1	0.000250
38.900000	1	0.001000
38.916667	1	0.001750
38.933333	1	0.002625
38.950000	1	0.003250
38.966667	1	0.003375
38.983333	1	0.004125
39.000000	1	0.005125
39.016667	1	0.005625
39.033333	1	0.005875
39.050000	1	0.007125
39.066667	1	0.007500
39.083333	1	0.008375
39.100000	1	0.009000
39.116667	1	0.009000
39.133333	1	0.010000
39.150000	1	0.010875
39.166667	1	0.011875
39.183333	1	0.012500
39.200000	1	0.013500
39.216667	1	0.013625
39.233333	1	0.014125
39.250000	1	0.014750
39.266667	1	0.015250
39.283333	1	0.015875
39.300000	1	0.016750
39.316667	1	0.017375
39.333333	1	0.017875
39.350000	1	0.017750
39.366667	1	0.019125
39.383333	1	0.019875
39.400000	1	0.020000
39.416667	1	0.020625
39.433333	1	0.021250
39.450000	1	0.022250
39.466667	1	0.022750
39.483333	1	0.023875
39.500000	1	0.024625
39.516667	1	0.025625
39.533333	1	0.026000
39.550000	1	0.026375
39.566667	1	0.027250
39.583333	1	0.028000
39.600000	1	0.028875
39.616667	1	0.029250
39.633333	1	0.030000
39.650000	1	0.031250
39.666667	1	0.031875
39.683333	1	0.032375
39.700000	1	0.033125
39.716667	1	0.034000
39.733333	1	0.034375
39.750000	1	0.034375
39.766667	1	0.034750
39.783333	1	0.034750
39.800000	1	0.034750
39.816667	1	0.035500
39.833333	1	0.035750
39.850000	1	0.036625
39.866667	1	0.036500
39.883333	1	0.036500
39.900000	1	0.036750
39.916667	1	0.037500
39.933333	1	0.038875
39.950000	1	0.039625
39.966667	1	0.039750
39.983333	1	0.039750
40.000000	1	0.040875
