File Path	chrom://marshall/Chromeleon7/HPLC_Ultimate_3000/Users/markusar/20230107.seq/254.smp/RI_1.channel/RI_1.chm
Channel	RI_1

Injection Information:
Data Vault	Chromeleon7
Injection	er2.1
Injection Number	6
Position	RA6
Comment	
Processing Method	
Instrument Method	std_method
Type	Unknown
Status	Finished
Injection Date	07.01.2023
Injection Time	19:18:54
Injection Volume (µl)	20.000
Dilution Factor	1.0000
Weight	1.0000

Chromatogram Data Information:
Time Min. (min)	0.000000
Time Max. (min)	40.000000
Data Points	2401
Detector	RI
Generating Data System	Chromeleon 7.2.5.9507
Exporting Data System	Chromeleon 7.2.5.0
Operator	Instrument Controller
Signal Quantity	Refractive 
Signal Unit	µRIU
Signal Min.	-0.137000
Signal Max.	110.866375
Channel	RI_1
Driver Name	RID520Driver.dll
Channel Type	Evaluation
Min. Step (s)	1
Max. Step (s)	1
Average Step (s)	1

Signal Parameter Information:
Signal Info	

Chromatogram Data:
Time (min)	Step (s)	Value (µRIU)
0.000000	n.a.	0.106875
0.016667	1	0.107625
0.033333	1	0.108500
0.050000	1	0.109875
0.066667	1	0.110875
0.083333	1	0.111750
0.100000	1	0.113250
0.116667	1	0.114125
0.133333	1	0.114875
0.150000	1	0.115625
0.166667	1	0.117000
0.183333	1	0.118250
0.200000	1	0.118500
0.216667	1	0.119125
0.233333	1	0.119375
0.250000	1	0.119750
0.266667	1	0.120500
0.283333	1	0.120500
0.300000	1	0.120625
0.316667	1	0.120500
0.333333	1	0.120875
0.350000	1	0.121125
0.366667	1	0.121375
0.383333	1	0.121125
0.400000	1	0.120875
0.416667	1	0.120750
0.433333	1	0.119625
0.450000	1	0.119375
0.466667	1	0.118750
0.483333	1	0.117625
0.500000	1	0.116375
0.516667	1	0.115125
0.533333	1	0.114250
0.550000	1	0.112500
0.566667	1	0.110625
0.583333	1	0.109250
0.600000	1	0.108125
0.616667	1	0.107000
0.633333	1	0.106375
0.650000	1	0.105500
0.666667	1	0.104375
0.683333	1	0.103125
0.700000	1	0.102375
0.716667	1	0.100500
0.733333	1	0.098625
0.750000	1	0.096250
0.766667	1	0.094125
0.783333	1	0.091625
0.800000	1	0.089250
0.816667	1	0.086375
0.833333	1	0.083250
0.850000	1	0.080000
0.866667	1	0.076750
0.883333	1	0.074375
0.900000	1	0.071500
0.916667	1	0.069375
0.933333	1	0.067000
0.950000	1	0.065000
0.966667	1	0.063000
0.983333	1	0.060625
1.000000	1	0.059000
1.016667	1	0.056625
1.033333	1	0.054375
1.050000	1	0.051875
1.066667	1	0.050125
1.083333	1	0.047875
1.100000	1	0.045875
1.116667	1	0.044125
1.133333	1	0.041875
1.150000	1	0.040125
1.166667	1	0.038000
1.183333	1	0.035875
1.200000	1	0.033625
1.216667	1	0.031500
1.233333	1	0.029625
1.250000	1	0.028000
1.266667	1	0.025625
1.283333	1	0.022625
1.300000	1	0.021250
1.316667	1	0.018875
1.333333	1	0.016250
1.350000	1	0.014250
1.366667	1	0.012500
1.383333	1	0.010625
1.400000	1	0.007750
1.416667	1	0.005500
1.433333	1	0.003500
1.450000	1	0.001500
1.466667	1	-0.000375
1.483333	1	-0.002500
1.500000	1	-0.004000
1.516667	1	-0.006000
1.533333	1	-0.007875
1.550000	1	-0.010125
1.566667	1	-0.012125
1.583333	1	-0.014250
1.600000	1	-0.016375
1.616667	1	-0.018250
1.633333	1	-0.020250
1.650000	1	-0.022000
1.666667	1	-0.024000
1.683333	1	-0.025750
1.700000	1	-0.027750
1.716667	1	-0.029625
1.733333	1	-0.031875
1.750000	1	-0.033250
1.766667	1	-0.034625
1.783333	1	-0.036750
1.800000	1	-0.038750
1.816667	1	-0.040500
1.833333	1	-0.043000
1.850000	1	-0.044250
1.866667	1	-0.045500
1.883333	1	-0.047375
1.900000	1	-0.049500
1.916667	1	-0.051500
1.933333	1	-0.053375
1.950000	1	-0.055375
1.966667	1	-0.057750
1.983333	1	-0.059875
2.000000	1	-0.062375
2.016667	1	-0.063500
2.033333	1	-0.065625
2.050000	1	-0.066750
2.066667	1	-0.068750
2.083333	1	-0.070625
2.100000	1	-0.072000
2.116667	1	-0.073875
2.133333	1	-0.076125
2.150000	1	-0.076875
2.166667	1	-0.078125
2.183333	1	-0.079750
2.200000	1	-0.081500
2.216667	1	-0.082875
2.233333	1	-0.084500
2.250000	1	-0.086625
2.266667	1	-0.087875
2.283333	1	-0.089250
2.300000	1	-0.090500
2.316667	1	-0.092000
2.333333	1	-0.092875
2.350000	1	-0.094000
2.366667	1	-0.094875
2.383333	1	-0.095875
2.400000	1	-0.097000
2.416667	1	-0.098625
2.433333	1	-0.099750
2.450000	1	-0.099875
2.466667	1	-0.100375
2.483333	1	-0.101250
2.500000	1	-0.102000
2.516667	1	-0.102625
2.533333	1	-0.102875
2.550000	1	-0.103250
2.566667	1	-0.103875
2.583333	1	-0.104125
2.600000	1	-0.104375
2.616667	1	-0.104500
2.633333	1	-0.104500
2.650000	1	-0.105000
2.666667	1	-0.105000
2.683333	1	-0.105125
2.700000	1	-0.105250
2.716667	1	-0.104625
2.733333	1	-0.104625
2.750000	1	-0.104625
2.766667	1	-0.104875
2.783333	1	-0.104750
2.800000	1	-0.105125
2.816667	1	-0.105125
2.833333	1	-0.105375
2.850000	1	-0.105250
2.866667	1	-0.105125
2.883333	1	-0.104750
2.900000	1	-0.104250
2.916667	1	-0.103375
2.933333	1	-0.103500
2.950000	1	-0.103000
2.966667	1	-0.102500
2.983333	1	-0.102500
3.000000	1	-0.102500
3.016667	1	-0.101750
3.033333	1	-0.101250
3.050000	1	-0.100625
3.066667	1	-0.100125
3.083333	1	-0.099750
3.100000	1	-0.098750
3.116667	1	-0.098250
3.133333	1	-0.097250
3.150000	1	-0.096750
3.166667	1	-0.095750
3.183333	1	-0.094875
3.200000	1	-0.093875
3.216667	1	-0.093125
3.233333	1	-0.091375
3.250000	1	-0.089875
3.266667	1	-0.089000
3.283333	1	-0.087500
3.300000	1	-0.086000
3.316667	1	-0.084875
3.333333	1	-0.083125
3.350000	1	-0.082125
3.366667	1	-0.080375
3.383333	1	-0.079375
3.400000	1	-0.077750
3.416667	1	-0.076375
3.433333	1	-0.074375
3.450000	1	-0.072750
3.466667	1	-0.070750
3.483333	1	-0.069375
3.500000	1	-0.067500
3.516667	1	-0.065250
3.533333	1	-0.063625
3.550000	1	-0.061875
3.566667	1	-0.060625
3.583333	1	-0.059125
3.600000	1	-0.057625
3.616667	1	-0.057125
3.633333	1	-0.055500
3.650000	1	-0.053625
3.666667	1	-0.052125
3.683333	1	-0.050625
3.700000	1	-0.049125
3.716667	1	-0.048125
3.733333	1	-0.046750
3.750000	1	-0.045500
3.766667	1	-0.043875
3.783333	1	-0.042375
3.800000	1	-0.041125
3.816667	1	-0.039875
3.833333	1	-0.038500
3.850000	1	-0.037000
3.866667	1	-0.035500
3.883333	1	-0.034125
3.900000	1	-0.032625
3.916667	1	-0.031375
3.933333	1	-0.029875
3.950000	1	-0.028375
3.966667	1	-0.027125
3.983333	1	-0.025750
4.000000	1	-0.024000
4.016667	1	-0.022000
4.033333	1	-0.020250
4.050000	1	-0.019250
4.066667	1	-0.017750
4.083333	1	-0.016750
4.100000	1	-0.015500
4.116667	1	-0.014125
4.133333	1	-0.012625
4.150000	1	-0.011750
4.166667	1	-0.010500
4.183333	1	-0.009625
4.200000	1	-0.009000
4.216667	1	-0.008500
4.233333	1	-0.007750
4.250000	1	-0.007750
4.266667	1	-0.007250
4.283333	1	-0.006250
4.300000	1	-0.006000
4.316667	1	-0.005500
4.333333	1	-0.005750
4.350000	1	-0.005750
4.366667	1	-0.006000
4.383333	1	-0.006125
4.400000	1	-0.006375
4.416667	1	-0.006125
4.433333	1	-0.007125
4.450000	1	-0.007125
4.466667	1	-0.007500
4.483333	1	-0.008000
4.500000	1	-0.008125
4.516667	1	-0.009375
4.533333	1	-0.010125
4.550000	1	-0.011000
4.566667	1	-0.012000
4.583333	1	-0.013000
4.600000	1	-0.013500
4.616667	1	-0.014375
4.633333	1	-0.014875
4.650000	1	-0.015625
4.666667	1	-0.016625
4.683333	1	-0.017750
4.700000	1	-0.019000
4.716667	1	-0.020000
4.733333	1	-0.020625
4.750000	1	-0.021125
4.766667	1	-0.022500
4.783333	1	-0.023375
4.800000	1	-0.024625
4.816667	1	-0.026250
4.833333	1	-0.026750
4.850000	1	-0.028000
4.866667	1	-0.029250
4.883333	1	-0.030250
4.900000	1	-0.031625
4.916667	1	-0.032875
4.933333	1	-0.034375
4.950000	1	-0.035750
4.966667	1	-0.037250
4.983333	1	-0.038000
5.000000	1	-0.039500
5.016667	1	-0.040375
5.033333	1	-0.042250
5.050000	1	-0.043500
5.066667	1	-0.045000
5.083333	1	-0.045750
5.100000	1	-0.047750
5.116667	1	-0.049375
5.133333	1	-0.050500
5.150000	1	-0.051500
5.166667	1	-0.052375
5.183333	1	-0.053500
5.200000	1	-0.054250
5.216667	1	-0.055000
5.233333	1	-0.056125
5.250000	1	-0.057125
5.266667	1	-0.057625
5.283333	1	-0.058125
5.300000	1	-0.059000
5.316667	1	-0.059625
5.333333	1	-0.060500
5.350000	1	-0.060875
5.366667	1	-0.061000
5.383333	1	-0.061500
5.400000	1	-0.061375
5.416667	1	-0.061875
5.433333	1	-0.062250
5.450000	1	-0.062250
5.466667	1	-0.062250
5.483333	1	-0.062500
5.500000	1	-0.062750
5.516667	1	-0.063125
5.533333	1	-0.062750
5.550000	1	-0.062500
5.566667	1	-0.062250
5.583333	1	-0.061375
5.600000	1	-0.060250
5.616667	1	-0.059250
5.633333	1	-0.059000
5.650000	1	-0.058125
5.666667	1	-0.057500
5.683333	1	-0.056750
5.700000	1	-0.055500
5.716667	1	-0.054375
5.733333	1	-0.053125
5.750000	1	-0.051750
5.766667	1	-0.050250
5.783333	1	-0.048625
5.800000	1	-0.047125
5.816667	1	-0.044875
5.833333	1	-0.043250
5.850000	1	-0.041625
5.866667	1	-0.040000
5.883333	1	-0.038000
5.900000	1	-0.036500
5.916667	1	-0.034875
5.933333	1	-0.033375
5.950000	1	-0.031750
5.966667	1	-0.030500
5.983333	1	-0.028375
6.000000	1	-0.026625
6.016667	1	-0.024625
6.033333	1	-0.022625
6.050000	1	-0.021875
6.066667	1	-0.020500
6.083333	1	-0.019625
6.100000	1	-0.018750
6.116667	1	-0.018000
6.133333	1	-0.017125
6.150000	1	-0.016000
6.166667	1	-0.015125
6.183333	1	-0.014000
6.200000	1	-0.013250
6.216667	1	-0.011875
6.233333	1	-0.010625
6.250000	1	-0.010375
6.266667	1	-0.009875
6.283333	1	-0.009250
6.300000	1	-0.008625
6.316667	1	-0.007875
6.333333	1	-0.006875
6.350000	1	-0.006500
6.366667	1	-0.005875
6.383333	1	-0.004875
6.400000	1	-0.003875
6.416667	1	-0.003375
6.433333	1	-0.003125
6.450000	1	-0.002750
6.466667	1	-0.002375
6.483333	1	-0.002000
6.500000	1	-0.002250
6.516667	1	-0.002125
6.533333	1	-0.002125
6.550000	1	-0.001375
6.566667	1	-0.001125
6.583333	1	-0.001000
6.600000	1	-0.000125
6.616667	1	0.000250
6.633333	1	0.000500
6.650000	1	0.000375
6.666667	1	-0.000125
6.683333	1	0.000000
6.700000	1	-0.000750
6.716667	1	-0.001250
6.733333	1	-0.001500
6.750000	1	-0.001500
6.766667	1	-0.002000
6.783333	1	-0.002000
6.800000	1	-0.002125
6.816667	1	-0.002500
6.833333	1	-0.003250
6.850000	1	-0.003500
6.866667	1	-0.004375
6.883333	1	-0.003750
6.900000	1	-0.004125
6.916667	1	-0.004375
6.933333	1	-0.005625
6.950000	1	-0.006500
6.966667	1	-0.007000
6.983333	1	-0.006875
7.000000	1	-0.007500
7.016667	1	-0.007375
7.033333	1	-0.007875
7.050000	1	-0.008750
7.066667	1	-0.009625
7.083333	1	-0.009875
7.100000	1	-0.009875
7.116667	1	-0.010125
7.133333	1	-0.010125
7.150000	1	-0.010125
7.166667	1	-0.009875
7.183333	1	-0.009375
7.200000	1	-0.009375
7.216667	1	-0.008750
7.233333	1	-0.008375
7.250000	1	-0.008000
7.266667	1	-0.007375
7.283333	1	-0.006625
7.300000	1	-0.006250
7.316667	1	-0.006000
7.333333	1	-0.005375
7.350000	1	-0.004500
7.366667	1	-0.003750
7.383333	1	-0.002625
7.400000	1	-0.002250
7.416667	1	-0.001375
7.433333	1	-0.000500
7.450000	1	0.000500
7.466667	1	0.001000
7.483333	1	0.001625
7.500000	1	0.001625
7.516667	1	0.001875
7.533333	1	0.002500
7.550000	1	0.002875
7.566667	1	0.003250
7.583333	1	0.003375
7.600000	1	0.003625
7.616667	1	0.003625
7.633333	1	0.003375
7.650000	1	0.003500
7.666667	1	0.003250
7.683333	1	0.002750
7.700000	1	0.001750
7.716667	1	0.001500
7.733333	1	0.001000
7.750000	1	0.000500
7.766667	1	0.000000
7.783333	1	-0.000625
7.800000	1	-0.001750
7.816667	1	-0.002750
7.833333	1	-0.004625
7.850000	1	-0.005625
7.866667	1	-0.007250
7.883333	1	-0.009375
7.900000	1	-0.011375
7.916667	1	-0.012750
7.933333	1	-0.015125
7.950000	1	-0.015750
7.966667	1	-0.018000
7.983333	1	-0.020625
8.000000	1	-0.022000
8.016667	1	-0.023500
8.033333	1	-0.025500
8.050000	1	-0.027250
8.066667	1	-0.029000
8.083333	1	-0.030875
8.100000	1	-0.033000
8.116667	1	-0.035750
8.133333	1	-0.038125
8.150000	1	-0.040750
8.166667	1	-0.042875
8.183333	1	-0.046125
8.200000	1	-0.047750
8.216667	1	-0.049875
8.233333	1	-0.052500
8.250000	1	-0.054500
8.266667	1	-0.057250
8.283333	1	-0.060125
8.300000	1	-0.063375
8.316667	1	-0.065500
8.333333	1	-0.068250
8.350000	1	-0.071250
8.366667	1	-0.073750
8.383333	1	-0.076375
8.400000	1	-0.079375
8.416667	1	-0.082000
8.433333	1	-0.084000
8.450000	1	-0.085875
8.466667	1	-0.088375
8.483333	1	-0.090875
8.500000	1	-0.093375
8.516667	1	-0.095875
8.533333	1	-0.098500
8.550000	1	-0.100875
8.566667	1	-0.102750
8.583333	1	-0.104625
8.600000	1	-0.106750
8.616667	1	-0.109250
8.633333	1	-0.112625
8.650000	1	-0.114500
8.666667	1	-0.116750
8.683333	1	-0.118750
8.700000	1	-0.120125
8.716667	1	-0.121750
8.733333	1	-0.123250
8.750000	1	-0.125250
8.766667	1	-0.126500
8.783333	1	-0.128125
8.800000	1	-0.130125
8.816667	1	-0.131625
8.833333	1	-0.132500
8.850000	1	-0.133250
8.866667	1	-0.133875
8.883333	1	-0.135125
8.900000	1	-0.135125
8.916667	1	-0.136375
8.933333	1	-0.137000
8.950000	1	-0.137000
8.966667	1	-0.137000
8.983333	1	-0.136625
9.000000	1	-0.136750
9.016667	1	-0.136625
9.033333	1	-0.136750
9.050000	1	-0.136250
9.066667	1	-0.135625
9.083333	1	-0.134750
9.100000	1	-0.133875
9.116667	1	-0.133375
9.133333	1	-0.132750
9.150000	1	-0.132500
9.166667	1	-0.131875
9.183333	1	-0.130875
9.200000	1	-0.129875
9.216667	1	-0.128625
9.233333	1	-0.127500
9.250000	1	-0.126125
9.266667	1	-0.125125
9.283333	1	-0.123750
9.300000	1	-0.122750
9.316667	1	-0.122125
9.333333	1	-0.121125
9.350000	1	-0.119250
9.366667	1	-0.117875
9.383333	1	-0.116000
9.400000	1	-0.113875
9.416667	1	-0.112375
9.433333	1	-0.110875
9.450000	1	-0.108750
9.466667	1	-0.106875
9.483333	1	-0.104500
9.500000	1	-0.102000
9.516667	1	-0.099500
9.533333	1	-0.096125
9.550000	1	-0.093000
9.566667	1	-0.089500
9.583333	1	-0.085750
9.600000	1	-0.081875
9.616667	1	-0.077250
9.633333	1	-0.072625
9.650000	1	-0.066625
9.666667	1	-0.061250
9.683333	1	-0.054125
9.700000	1	-0.046625
9.716667	1	-0.038125
9.733333	1	-0.028500
9.750000	1	-0.017500
9.766667	1	-0.004250
9.783333	1	0.010875
9.800000	1	0.028500
9.816667	1	0.049750
9.833333	1	0.073000
9.850000	1	0.100125
9.866667	1	0.130375
9.883333	1	0.164125
9.900000	1	0.200875
9.916667	1	0.240125
9.933333	1	0.282875
9.950000	1	0.328125
9.966667	1	0.375875
9.983333	1	0.427125
10.000000	1	0.482250
10.016667	1	0.541500
10.033333	1	0.604500
10.050000	1	0.668000
10.066667	1	0.725375
10.083333	1	0.768875
10.100000	1	0.789000
10.116667	1	0.781000
10.133333	1	0.742875
10.150000	1	0.682500
10.166667	1	0.616125
10.183333	1	0.562500
10.200000	1	0.550375
10.216667	1	0.612875
10.233333	1	0.787625
10.250000	1	1.114125
10.266667	1	1.637000
10.283333	1	2.401875
10.300000	1	3.455125
10.316667	1	4.843125
10.333333	1	6.610125
10.350000	1	8.800000
10.366667	1	11.449500
10.383333	1	14.592000
10.400000	1	18.259250
10.416667	1	22.474250
10.433333	1	27.251625
10.450000	1	32.592500
10.466667	1	38.489375
10.483333	1	44.914875
10.500000	1	51.817500
10.516667	1	59.108000
10.533333	1	66.656000
10.550000	1	74.284875
10.566667	1	81.778875
10.583333	1	88.896750
10.600000	1	95.385375
10.616667	1	101.002375
10.633333	1	105.524375
10.650000	1	108.764375
10.666667	1	110.579375
10.683333	1	110.866375
10.700000	1	109.570250
10.716667	1	106.702250
10.733333	1	102.356250
10.750000	1	96.716375
10.766667	1	90.040625
10.783333	1	82.637250
10.800000	1	74.820750
10.816667	1	66.897000
10.833333	1	59.144875
10.850000	1	51.794125
10.866667	1	45.008375
10.883333	1	38.899875
10.900000	1	33.525750
10.916667	1	28.896000
10.933333	1	24.983000
10.950000	1	21.728250
10.966667	1	19.055250
10.983333	1	16.882500
11.000000	1	15.126125
11.016667	1	13.709500
11.033333	1	12.565375
11.050000	1	11.633125
11.066667	1	10.865250
11.083333	1	10.222750
11.100000	1	9.674250
11.116667	1	9.195000
11.133333	1	8.767250
11.150000	1	8.376875
11.166667	1	8.013375
11.183333	1	7.670750
11.200000	1	7.343750
11.216667	1	7.028125
11.233333	1	6.724125
11.250000	1	6.430750
11.266667	1	6.146875
11.283333	1	5.874125
11.300000	1	5.612000
11.316667	1	5.362000
11.333333	1	5.124500
11.350000	1	4.901125
11.366667	1	4.693125
11.383333	1	4.501000
11.400000	1	4.326875
11.416667	1	4.169625
11.433333	1	4.031375
11.450000	1	3.911750
11.466667	1	3.809875
11.483333	1	3.724125
11.500000	1	3.653250
11.516667	1	3.594000
11.533333	1	3.543500
11.550000	1	3.499500
11.566667	1	3.459750
11.583333	1	3.422375
11.600000	1	3.386375
11.616667	1	3.351875
11.633333	1	3.317500
11.650000	1	3.283625
11.666667	1	3.250375
11.683333	1	3.219125
11.700000	1	3.188250
11.716667	1	3.158375
11.733333	1	3.127375
11.750000	1	3.096875
11.766667	1	3.064250
11.783333	1	3.030375
11.800000	1	2.994500
11.816667	1	2.957125
11.833333	1	2.917125
11.850000	1	2.876375
11.866667	1	2.835000
11.883333	1	2.793625
11.900000	1	2.752000
11.916667	1	2.710375
11.933333	1	2.669875
11.950000	1	2.629375
11.966667	1	2.590625
11.983333	1	2.552125
12.000000	1	2.514625
12.016667	1	2.477625
12.033333	1	2.441125
12.050000	1	2.405750
12.066667	1	2.369875
12.083333	1	2.335375
12.100000	1	2.301625
12.116667	1	2.267875
12.133333	1	2.234625
12.150000	1	2.202375
12.166667	1	2.171250
12.183333	1	2.141500
12.200000	1	2.113125
12.216667	1	2.085625
12.233333	1	2.060000
12.250000	1	2.036500
12.266667	1	2.015000
12.283333	1	1.995875
12.300000	1	1.979625
12.316667	1	1.966750
12.333333	1	1.958625
12.350000	1	1.953875
12.366667	1	1.955500
12.383333	1	1.963250
12.400000	1	1.979625
12.416667	1	2.005000
12.433333	1	2.042500
12.450000	1	2.093375
12.466667	1	2.160000
12.483333	1	2.246625
12.500000	1	2.355875
12.516667	1	2.492750
12.533333	1	2.660500
12.550000	1	2.864125
12.566667	1	3.107625
12.583333	1	3.395750
12.600000	1	3.729875
12.616667	1	4.109500
12.633333	1	4.533875
12.650000	1	4.999500
12.666667	1	5.501875
12.683333	1	6.035750
12.700000	1	6.593750
12.716667	1	7.170250
12.733333	1	7.759625
12.750000	1	8.355750
12.766667	1	8.955875
12.783333	1	9.556750
12.800000	1	10.157250
12.816667	1	10.758625
12.833333	1	11.361500
12.850000	1	11.966375
12.866667	1	12.576625
12.883333	1	13.192000
12.900000	1	13.813000
12.916667	1	14.438125
12.933333	1	15.064250
12.950000	1	15.686625
12.966667	1	16.297625
12.983333	1	16.888750
13.000000	1	17.450875
13.016667	1	17.975375
13.033333	1	18.453625
13.050000	1	18.878125
13.066667	1	19.243000
13.083333	1	19.543125
13.100000	1	19.774500
13.116667	1	19.935750
13.133333	1	20.026000
13.150000	1	20.047250
13.166667	1	20.001750
13.183333	1	19.892625
13.200000	1	19.725500
13.216667	1	19.504750
13.233333	1	19.236375
13.250000	1	18.926125
13.266667	1	18.579125
13.283333	1	18.200875
13.300000	1	17.797500
13.316667	1	17.372000
13.333333	1	16.930500
13.350000	1	16.475875
13.366667	1	16.013000
13.383333	1	15.544000
13.400000	1	15.072375
13.416667	1	14.600750
13.433333	1	14.130000
13.450000	1	13.660125
13.466667	1	13.192125
13.483333	1	12.724625
13.500000	1	12.257500
13.516667	1	11.789625
13.533333	1	11.317500
13.550000	1	10.841000
13.566667	1	10.358750
13.583333	1	9.871375
13.600000	1	9.379875
13.616667	1	8.887125
13.633333	1	8.398500
13.650000	1	7.919250
13.666667	1	7.455375
13.683333	1	7.014750
13.700000	1	6.602625
13.716667	1	6.223750
13.733333	1	5.883375
13.750000	1	5.582125
13.766667	1	5.321750
13.783333	1	5.099750
13.800000	1	4.913750
13.816667	1	4.758250
13.833333	1	4.628875
13.850000	1	4.521000
13.866667	1	4.429875
13.883333	1	4.352250
13.900000	1	4.282875
13.916667	1	4.220875
13.933333	1	4.163750
13.950000	1	4.111375
13.966667	1	4.062875
13.983333	1	4.018000
14.000000	1	3.975125
14.016667	1	3.934500
14.033333	1	3.894750
14.050000	1	3.854125
14.066667	1	3.812375
14.083333	1	3.768000
14.100000	1	3.719500
14.116667	1	3.665875
14.133333	1	3.605625
14.150000	1	3.539000
14.166667	1	3.464750
14.183333	1	3.384250
14.200000	1	3.298125
14.216667	1	3.207875
14.233333	1	3.115250
14.250000	1	3.022750
14.266667	1	2.931750
14.283333	1	2.844875
14.300000	1	2.763500
14.316667	1	2.691750
14.333333	1	2.629625
14.350000	1	2.580625
14.366667	1	2.544500
14.383333	1	2.524375
14.400000	1	2.520250
14.416667	1	2.534375
14.433333	1	2.567250
14.450000	1	2.619875
14.466667	1	2.691375
14.483333	1	2.783750
14.500000	1	2.896625
14.516667	1	3.028875
14.533333	1	3.182375
14.550000	1	3.355250
14.566667	1	3.546625
14.583333	1	3.757375
14.600000	1	3.985125
14.616667	1	4.229750
14.633333	1	4.489875
14.650000	1	4.764250
14.666667	1	5.050375
14.683333	1	5.346000
14.700000	1	5.647125
14.716667	1	5.949375
14.733333	1	6.250500
14.750000	1	6.548375
14.766667	1	6.841625
14.783333	1	7.130250
14.800000	1	7.416500
14.816667	1	7.705875
14.833333	1	8.006000
14.850000	1	8.326875
14.866667	1	8.680875
14.883333	1	9.078625
14.900000	1	9.532625
14.916667	1	10.052750
14.933333	1	10.648625
14.950000	1	11.322750
14.966667	1	12.074625
14.983333	1	12.895500
15.000000	1	13.774875
15.016667	1	14.696125
15.033333	1	15.639500
15.050000	1	16.584625
15.066667	1	17.510125
15.083333	1	18.397250
15.100000	1	19.228000
15.116667	1	19.991750
15.133333	1	20.680625
15.150000	1	21.289250
15.166667	1	21.814250
15.183333	1	22.255500
15.200000	1	22.612375
15.216667	1	22.884000
15.233333	1	23.070125
15.250000	1	23.168125
15.266667	1	23.174500
15.283333	1	23.085250
15.300000	1	22.897375
15.316667	1	22.608500
15.333333	1	22.217625
15.350000	1	21.727750
15.366667	1	21.143750
15.383333	1	20.473750
15.400000	1	19.727750
15.416667	1	18.916125
15.433333	1	18.050625
15.450000	1	17.144875
15.466667	1	16.211875
15.483333	1	15.264500
15.500000	1	14.313875
15.516667	1	13.371750
15.533333	1	12.449625
15.550000	1	11.556250
15.566667	1	10.700250
15.583333	1	9.886875
15.600000	1	9.120625
15.616667	1	8.405500
15.633333	1	7.742500
15.650000	1	7.133500
15.666667	1	6.578375
15.683333	1	6.075375
15.700000	1	5.623625
15.716667	1	5.220875
15.733333	1	4.863875
15.750000	1	4.549375
15.766667	1	4.274500
15.783333	1	4.036000
15.800000	1	3.831000
15.816667	1	3.654875
15.833333	1	3.506750
15.850000	1	3.382875
15.866667	1	3.281750
15.883333	1	3.203500
15.900000	1	3.145125
15.916667	1	3.105875
15.933333	1	3.084250
15.950000	1	3.079625
15.966667	1	3.090000
15.983333	1	3.113375
16.000000	1	3.148000
16.016667	1	3.191500
16.033333	1	3.243125
16.050000	1	3.300000
16.066667	1	3.362375
16.083333	1	3.428125
16.100000	1	3.498125
16.116667	1	3.571125
16.133333	1	3.650750
16.150000	1	3.737125
16.166667	1	3.834250
16.183333	1	3.944500
16.200000	1	4.070500
16.216667	1	4.213250
16.233333	1	4.374875
16.250000	1	4.556000
16.266667	1	4.754000
16.283333	1	4.966000
16.300000	1	5.188500
16.316667	1	5.415875
16.333333	1	5.643500
16.350000	1	5.865625
16.366667	1	6.076250
16.383333	1	6.271500
16.400000	1	6.447625
16.416667	1	6.602875
16.433333	1	6.736000
16.450000	1	6.846000
16.466667	1	6.934500
16.483333	1	7.001500
16.500000	1	7.047750
16.516667	1	7.074875
16.533333	1	7.082750
16.550000	1	7.073375
16.566667	1	7.046500
16.583333	1	7.002000
16.600000	1	6.938750
16.616667	1	6.858125
16.633333	1	6.758375
16.650000	1	6.640250
16.666667	1	6.503750
16.683333	1	6.348625
16.700000	1	6.176875
16.716667	1	5.989750
16.733333	1	5.790125
16.750000	1	5.578625
16.766667	1	5.359250
16.783333	1	5.133125
16.800000	1	4.904000
16.816667	1	4.674000
16.833333	1	4.446125
16.850000	1	4.223000
16.866667	1	4.005250
16.883333	1	3.794625
16.900000	1	3.593625
16.916667	1	3.403125
16.933333	1	3.223750
16.950000	1	3.055750
16.966667	1	2.900500
16.983333	1	2.756625
17.000000	1	2.625625
17.016667	1	2.505625
17.033333	1	2.397250
17.050000	1	2.299625
17.066667	1	2.211125
17.083333	1	2.133250
17.100000	1	2.063875
17.116667	1	2.002125
17.133333	1	1.947625
17.150000	1	1.899125
17.166667	1	1.857375
17.183333	1	1.819375
17.200000	1	1.786875
17.216667	1	1.757125
17.233333	1	1.731250
17.250000	1	1.706750
17.266667	1	1.684750
17.283333	1	1.665000
17.300000	1	1.643000
17.316667	1	1.627625
17.333333	1	1.610750
17.350000	1	1.595875
17.366667	1	1.580875
17.383333	1	1.566375
17.400000	1	1.552375
17.416667	1	1.539125
17.433333	1	1.526250
17.450000	1	1.514500
17.466667	1	1.502000
17.483333	1	1.491125
17.500000	1	1.480500
17.516667	1	1.470500
17.533333	1	1.460375
17.550000	1	1.450625
17.566667	1	1.442000
17.583333	1	1.434000
17.600000	1	1.425625
17.616667	1	1.418500
17.633333	1	1.411125
17.650000	1	1.405250
17.666667	1	1.400000
17.683333	1	1.395500
17.700000	1	1.392125
17.716667	1	1.389500
17.733333	1	1.388500
17.750000	1	1.388625
17.766667	1	1.389500
17.783333	1	1.392750
17.800000	1	1.397125
17.816667	1	1.403375
17.833333	1	1.411375
17.850000	1	1.421750
17.866667	1	1.433375
17.883333	1	1.446875
17.900000	1	1.462500
17.916667	1	1.479625
17.933333	1	1.498625
17.950000	1	1.519375
17.966667	1	1.541375
17.983333	1	1.564250
18.000000	1	1.588250
18.016667	1	1.613125
18.033333	1	1.637625
18.050000	1	1.662625
18.066667	1	1.687875
18.083333	1	1.712500
18.100000	1	1.737375
18.116667	1	1.760500
18.133333	1	1.783750
18.150000	1	1.806375
18.166667	1	1.827000
18.183333	1	1.847000
18.200000	1	1.865750
18.216667	1	1.882875
18.233333	1	1.899000
18.250000	1	1.912750
18.266667	1	1.923750
18.283333	1	1.932875
18.300000	1	1.939875
18.316667	1	1.944375
18.333333	1	1.946375
18.350000	1	1.946125
18.366667	1	1.943750
18.383333	1	1.939375
18.400000	1	1.932875
18.416667	1	1.924500
18.433333	1	1.914125
18.450000	1	1.902250
18.466667	1	1.888625
18.483333	1	1.873750
18.500000	1	1.857875
18.516667	1	1.841125
18.533333	1	1.823125
18.550000	1	1.804625
18.566667	1	1.785250
18.583333	1	1.765375
18.600000	1	1.745875
18.616667	1	1.725000
18.633333	1	1.703250
18.650000	1	1.682125
18.666667	1	1.659875
18.683333	1	1.638125
18.700000	1	1.616125
18.716667	1	1.594000
18.733333	1	1.571000
18.750000	1	1.548125
18.766667	1	1.526375
18.783333	1	1.504625
18.800000	1	1.483625
18.816667	1	1.462375
18.833333	1	1.441875
18.850000	1	1.422125
18.866667	1	1.402875
18.883333	1	1.383750
18.900000	1	1.365625
18.916667	1	1.348375
18.933333	1	1.331125
18.950000	1	1.314875
18.966667	1	1.298375
18.983333	1	1.283000
19.000000	1	1.268500
19.016667	1	1.254000
19.033333	1	1.240125
19.050000	1	1.227250
19.066667	1	1.215500
19.083333	1	1.204625
19.100000	1	1.194875
19.116667	1	1.186750
19.133333	1	1.180875
19.150000	1	1.176125
19.166667	1	1.174125
19.183333	1	1.175125
19.200000	1	1.177875
19.216667	1	1.184750
19.233333	1	1.194875
19.250000	1	1.208750
19.266667	1	1.225125
19.283333	1	1.243625
19.300000	1	1.266250
19.316667	1	1.291875
19.333333	1	1.319750
19.350000	1	1.349500
19.366667	1	1.381125
19.383333	1	1.414000
19.400000	1	1.447875
19.416667	1	1.482875
19.433333	1	1.517125
19.450000	1	1.551125
19.466667	1	1.584000
19.483333	1	1.615250
19.500000	1	1.646125
19.516667	1	1.674500
19.533333	1	1.701750
19.550000	1	1.727000
19.566667	1	1.749375
19.583333	1	1.769125
19.600000	1	1.787500
19.616667	1	1.803625
19.633333	1	1.816500
19.650000	1	1.826375
19.666667	1	1.833375
19.683333	1	1.837875
19.700000	1	1.839500
19.716667	1	1.837625
19.733333	1	1.832750
19.750000	1	1.825000
19.766667	1	1.814125
19.783333	1	1.800125
19.800000	1	1.783000
19.816667	1	1.763750
19.833333	1	1.742375
19.850000	1	1.719625
19.866667	1	1.694125
19.883333	1	1.667625
19.900000	1	1.639625
19.916667	1	1.611625
19.933333	1	1.583500
19.950000	1	1.556000
19.966667	1	1.529375
19.983333	1	1.503625
20.000000	1	1.479750
20.016667	1	1.457750
20.033333	1	1.438125
20.050000	1	1.420125
20.066667	1	1.404125
20.083333	1	1.390875
20.100000	1	1.379250
20.116667	1	1.369375
20.133333	1	1.362375
20.150000	1	1.356625
20.166667	1	1.352375
20.183333	1	1.351000
20.200000	1	1.350500
20.216667	1	1.351250
20.233333	1	1.352625
20.250000	1	1.355250
20.266667	1	1.359125
20.283333	1	1.363250
20.300000	1	1.369750
20.316667	1	1.377500
20.333333	1	1.386250
20.350000	1	1.396125
20.366667	1	1.407875
20.383333	1	1.421750
20.400000	1	1.436875
20.416667	1	1.454125
20.433333	1	1.473500
20.450000	1	1.495500
20.466667	1	1.519250
20.483333	1	1.545250
20.500000	1	1.573875
20.516667	1	1.603750
20.533333	1	1.635375
20.550000	1	1.668375
20.566667	1	1.701875
20.583333	1	1.736125
20.600000	1	1.770625
20.616667	1	1.804125
20.633333	1	1.836125
20.650000	1	1.866625
20.666667	1	1.895625
20.683333	1	1.922500
20.700000	1	1.947000
20.716667	1	1.969125
20.733333	1	1.989750
20.750000	1	2.007500
20.766667	1	2.022875
20.783333	1	2.036125
20.800000	1	2.047375
20.816667	1	2.057750
20.833333	1	2.066125
20.850000	1	2.072625
20.866667	1	2.078500
20.883333	1	2.082750
20.900000	1	2.085125
20.916667	1	2.085625
20.933333	1	2.084875
20.950000	1	2.082000
20.966667	1	2.076750
20.983333	1	2.070000
21.000000	1	2.061250
21.016667	1	2.049750
21.033333	1	2.036000
21.050000	1	2.018750
21.066667	1	1.999000
21.083333	1	1.976875
21.100000	1	1.951750
21.116667	1	1.924500
21.133333	1	1.895750
21.150000	1	1.865125
21.166667	1	1.832500
21.183333	1	1.799125
21.200000	1	1.765000
21.216667	1	1.730625
21.233333	1	1.696000
21.250000	1	1.661625
21.266667	1	1.628250
21.283333	1	1.596500
21.300000	1	1.565500
21.316667	1	1.536000
21.333333	1	1.508500
21.350000	1	1.481875
21.366667	1	1.456250
21.383333	1	1.431750
21.400000	1	1.408500
21.416667	1	1.385375
21.433333	1	1.363000
21.450000	1	1.340625
21.466667	1	1.317625
21.483333	1	1.295125
21.500000	1	1.270625
21.516667	1	1.245750
21.533333	1	1.220125
21.550000	1	1.194000
21.566667	1	1.167250
21.583333	1	1.139875
21.600000	1	1.112125
21.616667	1	1.084125
21.633333	1	1.055875
21.650000	1	1.027125
21.666667	1	0.998250
21.683333	1	0.970500
21.700000	1	0.943125
21.716667	1	0.916500
21.733333	1	0.890875
21.750000	1	0.866625
21.766667	1	0.843500
21.783333	1	0.821625
21.800000	1	0.801625
21.816667	1	0.782250
21.833333	1	0.765250
21.850000	1	0.748875
21.866667	1	0.733875
21.883333	1	0.719875
21.900000	1	0.707375
21.916667	1	0.696125
21.933333	1	0.686750
21.950000	1	0.679125
21.966667	1	0.672875
21.983333	1	0.667375
22.000000	1	0.663500
22.016667	1	0.661000
22.033333	1	0.659000
22.050000	1	0.658500
22.066667	1	0.659000
22.083333	1	0.661375
22.100000	1	0.664000
22.116667	1	0.668000
22.133333	1	0.672250
22.150000	1	0.676875
22.166667	1	0.682375
22.183333	1	0.688125
22.200000	1	0.694125
22.216667	1	0.700500
22.233333	1	0.706250
22.250000	1	0.712250
22.266667	1	0.716875
22.283333	1	0.721875
22.300000	1	0.727000
22.316667	1	0.731250
22.333333	1	0.735500
22.350000	1	0.739000
22.366667	1	0.741250
22.383333	1	0.743500
22.400000	1	0.746000
22.416667	1	0.748125
22.433333	1	0.749625
22.450000	1	0.749875
22.466667	1	0.750250
22.483333	1	0.750000
22.500000	1	0.748250
22.516667	1	0.746500
22.533333	1	0.744625
22.550000	1	0.741750
22.566667	1	0.738750
22.583333	1	0.735375
22.600000	1	0.731625
22.616667	1	0.727250
22.633333	1	0.723375
22.650000	1	0.718250
22.666667	1	0.713500
22.683333	1	0.709125
22.700000	1	0.705625
22.716667	1	0.701625
22.733333	1	0.697250
22.750000	1	0.694625
22.766667	1	0.692000
22.783333	1	0.690125
22.800000	1	0.688500
22.816667	1	0.687250
22.833333	1	0.687125
22.850000	1	0.687500
22.866667	1	0.688500
22.883333	1	0.689875
22.900000	1	0.692250
22.916667	1	0.694375
22.933333	1	0.697000
22.950000	1	0.699875
22.966667	1	0.703125
22.983333	1	0.706125
23.000000	1	0.709000
23.016667	1	0.712000
23.033333	1	0.715375
23.050000	1	0.717875
23.066667	1	0.719625
23.083333	1	0.721375
23.100000	1	0.722250
23.116667	1	0.723750
23.133333	1	0.724125
23.150000	1	0.724875
23.166667	1	0.724250
23.183333	1	0.723125
23.200000	1	0.721875
23.216667	1	0.720625
23.233333	1	0.717500
23.250000	1	0.714125
23.266667	1	0.711250
23.283333	1	0.707750
23.300000	1	0.703250
23.316667	1	0.698250
23.333333	1	0.693125
23.350000	1	0.687125
23.366667	1	0.680625
23.383333	1	0.674000
23.400000	1	0.667125
23.416667	1	0.660375
23.433333	1	0.652375
23.450000	1	0.644750
23.466667	1	0.636000
23.483333	1	0.628125
23.500000	1	0.619375
23.516667	1	0.611125
23.533333	1	0.601750
23.550000	1	0.593500
23.566667	1	0.584375
23.583333	1	0.575500
23.600000	1	0.566250
23.616667	1	0.557750
23.633333	1	0.550250
23.650000	1	0.542250
23.666667	1	0.535375
23.683333	1	0.528500
23.700000	1	0.522625
23.716667	1	0.517500
23.733333	1	0.513125
23.750000	1	0.509750
23.766667	1	0.507375
23.783333	1	0.506250
23.800000	1	0.507000
23.816667	1	0.509000
23.833333	1	0.512750
23.850000	1	0.518000
23.866667	1	0.526250
23.883333	1	0.536500
23.900000	1	0.549250
23.916667	1	0.564625
23.933333	1	0.582375
23.950000	1	0.602250
23.966667	1	0.625125
23.983333	1	0.649000
24.000000	1	0.674250
24.016667	1	0.701750
24.033333	1	0.731000
24.050000	1	0.760625
24.066667	1	0.791500
24.083333	1	0.822625
24.100000	1	0.853875
24.116667	1	0.884500
24.133333	1	0.915375
24.150000	1	0.944875
24.166667	1	0.973500
24.183333	1	1.001250
24.200000	1	1.027750
24.216667	1	1.052500
24.233333	1	1.076375
24.250000	1	1.098375
24.266667	1	1.118500
24.283333	1	1.137125
24.300000	1	1.154250
24.316667	1	1.169125
24.333333	1	1.182875
24.350000	1	1.194375
24.366667	1	1.204000
24.383333	1	1.211625
24.400000	1	1.216875
24.416667	1	1.219125
24.433333	1	1.220125
24.450000	1	1.218125
24.466667	1	1.214625
24.483333	1	1.208750
24.500000	1	1.200125
24.516667	1	1.189750
24.533333	1	1.177375
24.550000	1	1.163250
24.566667	1	1.148125
24.583333	1	1.130875
24.600000	1	1.113500
24.616667	1	1.094625
24.633333	1	1.075500
24.650000	1	1.055750
24.666667	1	1.035875
24.683333	1	1.016250
24.700000	1	0.998125
24.716667	1	0.980125
24.733333	1	0.962875
24.750000	1	0.947000
24.766667	1	0.932500
24.783333	1	0.918500
24.800000	1	0.905750
24.816667	1	0.894000
24.833333	1	0.883250
24.850000	1	0.874000
24.866667	1	0.866000
24.883333	1	0.858375
24.900000	1	0.852125
24.916667	1	0.846625
24.933333	1	0.841250
24.950000	1	0.836625
24.966667	1	0.832750
24.983333	1	0.829250
25.000000	1	0.826125
25.016667	1	0.822500
25.033333	1	0.818500
25.050000	1	0.814625
25.066667	1	0.810750
25.083333	1	0.805500
25.100000	1	0.800750
25.116667	1	0.795125
25.133333	1	0.789250
25.150000	1	0.782125
25.166667	1	0.774250
25.183333	1	0.765625
25.200000	1	0.755750
25.216667	1	0.744750
25.233333	1	0.733500
25.250000	1	0.721625
25.266667	1	0.708750
25.283333	1	0.695250
25.300000	1	0.681375
25.316667	1	0.666000
25.333333	1	0.650750
25.350000	1	0.634375
25.366667	1	0.617875
25.383333	1	0.602000
25.400000	1	0.584875
25.416667	1	0.568375
25.433333	1	0.552125
25.450000	1	0.536125
25.466667	1	0.520375
25.483333	1	0.504875
25.500000	1	0.490625
25.516667	1	0.476000
25.533333	1	0.462750
25.550000	1	0.450000
25.566667	1	0.438250
25.583333	1	0.427250
25.600000	1	0.416750
25.616667	1	0.407500
25.633333	1	0.399125
25.650000	1	0.391375
25.666667	1	0.384375
25.683333	1	0.378750
25.700000	1	0.373125
25.716667	1	0.367875
25.733333	1	0.364375
25.750000	1	0.361000
25.766667	1	0.359125
25.783333	1	0.357125
25.800000	1	0.355500
25.816667	1	0.355000
25.833333	1	0.354625
25.850000	1	0.354750
25.866667	1	0.355875
25.883333	1	0.356750
25.900000	1	0.358500
25.916667	1	0.360875
25.933333	1	0.363625
25.950000	1	0.366250
25.966667	1	0.368375
25.983333	1	0.371625
26.000000	1	0.374500
26.016667	1	0.378000
26.033333	1	0.381375
26.050000	1	0.384750
26.066667	1	0.388000
26.083333	1	0.391625
26.100000	1	0.394875
26.116667	1	0.397875
26.133333	1	0.400750
26.150000	1	0.403625
26.166667	1	0.406875
26.183333	1	0.410250
26.200000	1	0.413625
26.216667	1	0.417500
26.233333	1	0.420125
26.250000	1	0.423250
26.266667	1	0.427125
26.283333	1	0.429500
26.300000	1	0.433125
26.316667	1	0.437000
26.333333	1	0.439750
26.350000	1	0.443250
26.366667	1	0.447000
26.383333	1	0.450875
26.400000	1	0.455500
26.416667	1	0.458500
26.433333	1	0.462500
26.450000	1	0.466375
26.466667	1	0.471000
26.483333	1	0.475875
26.500000	1	0.480625
26.516667	1	0.485250
26.533333	1	0.489625
26.550000	1	0.494375
26.566667	1	0.499375
26.583333	1	0.504250
26.600000	1	0.508750
26.616667	1	0.514250
26.633333	1	0.518750
26.650000	1	0.524000
26.666667	1	0.529250
26.683333	1	0.534000
26.700000	1	0.538875
26.716667	1	0.543125
26.733333	1	0.547500
26.750000	1	0.551375
26.766667	1	0.555375
26.783333	1	0.558875
26.800000	1	0.562375
26.816667	1	0.565000
26.833333	1	0.566750
26.850000	1	0.568250
26.866667	1	0.569750
26.883333	1	0.571375
26.900000	1	0.572000
26.916667	1	0.572500
26.933333	1	0.573125
26.950000	1	0.573250
26.966667	1	0.573000
26.983333	1	0.571750
27.000000	1	0.569750
27.016667	1	0.568500
27.033333	1	0.567000
27.050000	1	0.565750
27.066667	1	0.563750
27.083333	1	0.560875
27.100000	1	0.558375
27.116667	1	0.555250
27.133333	1	0.552000
27.150000	1	0.548125
27.166667	1	0.545500
27.183333	1	0.541125
27.200000	1	0.537000
27.216667	1	0.532500
27.233333	1	0.527625
27.250000	1	0.522500
27.266667	1	0.516750
27.283333	1	0.511125
27.300000	1	0.504625
27.316667	1	0.497875
27.333333	1	0.490750
27.350000	1	0.483250
27.366667	1	0.475875
27.383333	1	0.468250
27.400000	1	0.460375
27.416667	1	0.452375
27.433333	1	0.444500
27.450000	1	0.436750
27.466667	1	0.429375
27.483333	1	0.421125
27.500000	1	0.413250
27.516667	1	0.406000
27.533333	1	0.397875
27.550000	1	0.391250
27.566667	1	0.383250
27.583333	1	0.376250
27.600000	1	0.369875
27.616667	1	0.363750
27.633333	1	0.358250
27.650000	1	0.352125
27.666667	1	0.347250
27.683333	1	0.343625
27.700000	1	0.341125
27.716667	1	0.339625
27.733333	1	0.339625
27.750000	1	0.341625
27.766667	1	0.345250
27.783333	1	0.350125
27.800000	1	0.359125
27.816667	1	0.370750
27.833333	1	0.385750
27.850000	1	0.404625
27.866667	1	0.428125
27.883333	1	0.455500
27.900000	1	0.488125
27.916667	1	0.526250
27.933333	1	0.570125
27.950000	1	0.619750
27.966667	1	0.675875
27.983333	1	0.738125
28.000000	1	0.805875
28.016667	1	0.880375
28.033333	1	0.960250
28.050000	1	1.045875
28.066667	1	1.136250
28.083333	1	1.231375
28.100000	1	1.330500
28.116667	1	1.433000
28.133333	1	1.538125
28.150000	1	1.644750
28.166667	1	1.751625
28.183333	1	1.858000
28.200000	1	1.963750
28.216667	1	2.066750
28.233333	1	2.168000
28.250000	1	2.266250
28.266667	1	2.360000
28.283333	1	2.450000
28.300000	1	2.534750
28.316667	1	2.614250
28.333333	1	2.688625
28.350000	1	2.757625
28.366667	1	2.821375
28.383333	1	2.879500
28.400000	1	2.932125
28.416667	1	2.979625
28.433333	1	3.022250
28.450000	1	3.060375
28.466667	1	3.094125
28.483333	1	3.122625
28.500000	1	3.146750
28.516667	1	3.166250
28.533333	1	3.180750
28.550000	1	3.189500
28.566667	1	3.192625
28.583333	1	3.190000
28.600000	1	3.181625
28.616667	1	3.167000
28.633333	1	3.145625
28.650000	1	3.117875
28.666667	1	3.083250
28.683333	1	3.041375
28.700000	1	2.992125
28.716667	1	2.935625
28.733333	1	2.871625
28.750000	1	2.800500
28.766667	1	2.723250
28.783333	1	2.639750
28.800000	1	2.550250
28.816667	1	2.455250
28.833333	1	2.355500
28.850000	1	2.251875
28.866667	1	2.145000
28.883333	1	2.036375
28.900000	1	1.925625
28.916667	1	1.815250
28.933333	1	1.704125
28.950000	1	1.594625
28.966667	1	1.485500
28.983333	1	1.379000
29.000000	1	1.276000
29.016667	1	1.176500
29.033333	1	1.080875
29.050000	1	0.989375
29.066667	1	0.902875
29.083333	1	0.821250
29.100000	1	0.744375
29.116667	1	0.672750
29.133333	1	0.605875
29.150000	1	0.543250
29.166667	1	0.485875
29.183333	1	0.433000
29.200000	1	0.385125
29.216667	1	0.341250
29.233333	1	0.301625
29.250000	1	0.265250
29.266667	1	0.232375
29.283333	1	0.202875
29.300000	1	0.176500
29.316667	1	0.152750
29.333333	1	0.132375
29.350000	1	0.114625
29.366667	1	0.098625
29.383333	1	0.084500
29.400000	1	0.072625
29.416667	1	0.062375
29.433333	1	0.054375
29.450000	1	0.047500
29.466667	1	0.042750
29.483333	1	0.039500
29.500000	1	0.037500
29.516667	1	0.036750
29.533333	1	0.037500
29.550000	1	0.039500
29.566667	1	0.042500
29.583333	1	0.046875
29.600000	1	0.052125
29.616667	1	0.058750
29.633333	1	0.066375
29.650000	1	0.074750
29.666667	1	0.084375
29.683333	1	0.095500
29.700000	1	0.106625
29.716667	1	0.118375
29.733333	1	0.131500
29.750000	1	0.145500
29.766667	1	0.159125
29.783333	1	0.173875
29.800000	1	0.189125
29.816667	1	0.204750
29.833333	1	0.219875
29.850000	1	0.235625
29.866667	1	0.251625
29.883333	1	0.267000
29.900000	1	0.282250
29.916667	1	0.297625
29.933333	1	0.313500
29.950000	1	0.328500
29.966667	1	0.343875
29.983333	1	0.358000
30.000000	1	0.371250
30.016667	1	0.384875
30.033333	1	0.397750
30.050000	1	0.409500
30.066667	1	0.421375
30.083333	1	0.432000
30.100000	1	0.442875
30.116667	1	0.452250
30.133333	1	0.461500
30.150000	1	0.469750
30.166667	1	0.477875
30.183333	1	0.485500
30.200000	1	0.492375
30.216667	1	0.498625
30.233333	1	0.504375
30.250000	1	0.509000
30.266667	1	0.513000
30.283333	1	0.517000
30.300000	1	0.520500
30.316667	1	0.523750
30.333333	1	0.526625
30.350000	1	0.529500
30.366667	1	0.531625
30.383333	1	0.532625
30.400000	1	0.533250
30.416667	1	0.533875
30.433333	1	0.534625
30.450000	1	0.534875
30.466667	1	0.535000
30.483333	1	0.534500
30.500000	1	0.533250
30.516667	1	0.531375
30.533333	1	0.529250
30.550000	1	0.527625
30.566667	1	0.525125
30.583333	1	0.522500
30.600000	1	0.520000
30.616667	1	0.516625
30.633333	1	0.513625
30.650000	1	0.510875
30.666667	1	0.507875
30.683333	1	0.504500
30.700000	1	0.501250
30.716667	1	0.497375
30.733333	1	0.494125
30.750000	1	0.491375
30.766667	1	0.488750
30.783333	1	0.486375
30.800000	1	0.483750
30.816667	1	0.481625
30.833333	1	0.479750
30.850000	1	0.478500
30.866667	1	0.477500
30.883333	1	0.477125
30.900000	1	0.476875
30.916667	1	0.477375
30.933333	1	0.477375
30.950000	1	0.478000
30.966667	1	0.479125
30.983333	1	0.480750
31.000000	1	0.483000
31.016667	1	0.484875
31.033333	1	0.487625
31.050000	1	0.490000
31.066667	1	0.492875
31.083333	1	0.495375
31.100000	1	0.498625
31.116667	1	0.501250
31.133333	1	0.504875
31.150000	1	0.508125
31.166667	1	0.511375
31.183333	1	0.514750
31.200000	1	0.517750
31.216667	1	0.520875
31.233333	1	0.523875
31.250000	1	0.526875
31.266667	1	0.529875
31.283333	1	0.533125
31.300000	1	0.536125
31.316667	1	0.538125
31.333333	1	0.541125
31.350000	1	0.543125
31.366667	1	0.545750
31.383333	1	0.547875
31.400000	1	0.550250
31.416667	1	0.551625
31.433333	1	0.552625
31.450000	1	0.553500
31.466667	1	0.554625
31.483333	1	0.555375
31.500000	1	0.556250
31.516667	1	0.557250
31.533333	1	0.556875
31.550000	1	0.556625
31.566667	1	0.555875
31.583333	1	0.555500
31.600000	1	0.554875
31.616667	1	0.553125
31.633333	1	0.551875
31.650000	1	0.550625
31.666667	1	0.548125
31.683333	1	0.545125
31.700000	1	0.542125
31.716667	1	0.538875
31.733333	1	0.536000
31.750000	1	0.532375
31.766667	1	0.528875
31.783333	1	0.525000
31.800000	1	0.521750
31.816667	1	0.518375
31.833333	1	0.515125
31.850000	1	0.512500
31.866667	1	0.509125
31.883333	1	0.506125
31.900000	1	0.502750
31.916667	1	0.500125
31.933333	1	0.497875
31.950000	1	0.495875
31.966667	1	0.494625
31.983333	1	0.494125
32.000000	1	0.493250
32.016667	1	0.493375
32.033333	1	0.494125
32.050000	1	0.495125
32.066667	1	0.497000
32.083333	1	0.498750
32.100000	1	0.501500
32.116667	1	0.504375
32.133333	1	0.507625
32.150000	1	0.511875
32.166667	1	0.517125
32.183333	1	0.522625
32.200000	1	0.529375
32.216667	1	0.536000
32.233333	1	0.542500
32.250000	1	0.549750
32.266667	1	0.557250
32.283333	1	0.564875
32.300000	1	0.573125
32.316667	1	0.580875
32.333333	1	0.588875
32.350000	1	0.597250
32.366667	1	0.605875
32.383333	1	0.615000
32.400000	1	0.623625
32.416667	1	0.631875
32.433333	1	0.639625
32.450000	1	0.647750
32.466667	1	0.655750
32.483333	1	0.663625
32.500000	1	0.670875
32.516667	1	0.678000
32.533333	1	0.684250
32.550000	1	0.690375
32.566667	1	0.696125
32.583333	1	0.702000
32.600000	1	0.707375
32.616667	1	0.712250
32.633333	1	0.716500
32.650000	1	0.719500
32.666667	1	0.721750
32.683333	1	0.724375
32.700000	1	0.725625
32.716667	1	0.727000
32.733333	1	0.727750
32.750000	1	0.727500
32.766667	1	0.726375
32.783333	1	0.725000
32.800000	1	0.723250
32.816667	1	0.720500
32.833333	1	0.717125
32.850000	1	0.713000
32.866667	1	0.708250
32.883333	1	0.702875
32.900000	1	0.697000
32.916667	1	0.689750
32.933333	1	0.682625
32.950000	1	0.674625
32.966667	1	0.666125
32.983333	1	0.657625
33.000000	1	0.648250
33.016667	1	0.637875
33.033333	1	0.627000
33.050000	1	0.615500
33.066667	1	0.604250
33.083333	1	0.592375
33.100000	1	0.579625
33.116667	1	0.566500
33.133333	1	0.553625
33.150000	1	0.539875
33.166667	1	0.526000
33.183333	1	0.511750
33.200000	1	0.497500
33.216667	1	0.482625
33.233333	1	0.467875
33.250000	1	0.452750
33.266667	1	0.437875
33.283333	1	0.422375
33.300000	1	0.406750
33.316667	1	0.392000
33.333333	1	0.377125
33.350000	1	0.362000
33.366667	1	0.346250
33.383333	1	0.331625
33.400000	1	0.317375
33.416667	1	0.303625
33.433333	1	0.289625
33.450000	1	0.276375
33.466667	1	0.263500
33.483333	1	0.250125
33.500000	1	0.237625
33.516667	1	0.225875
33.533333	1	0.214625
33.550000	1	0.203500
33.566667	1	0.193500
33.583333	1	0.183250
33.600000	1	0.173500
33.616667	1	0.164750
33.633333	1	0.155625
33.650000	1	0.148000
33.666667	1	0.140000
33.683333	1	0.133125
33.700000	1	0.125875
33.716667	1	0.119625
33.733333	1	0.113875
33.750000	1	0.108750
33.766667	1	0.103750
33.783333	1	0.098750
33.800000	1	0.094625
33.816667	1	0.090500
33.833333	1	0.086750
33.850000	1	0.083500
33.866667	1	0.080125
33.883333	1	0.077375
33.900000	1	0.074125
33.916667	1	0.071500
33.933333	1	0.069125
33.950000	1	0.066375
33.966667	1	0.064500
33.983333	1	0.063250
34.000000	1	0.062125
34.016667	1	0.061000
34.033333	1	0.060125
34.050000	1	0.059500
34.066667	1	0.059625
34.083333	1	0.058500
34.100000	1	0.058125
34.116667	1	0.057875
34.133333	1	0.058500
34.150000	1	0.059375
34.166667	1	0.060125
34.183333	1	0.061500
34.200000	1	0.062750
34.216667	1	0.063750
34.233333	1	0.065625
34.250000	1	0.067125
34.266667	1	0.069375
34.283333	1	0.071625
34.300000	1	0.074375
34.316667	1	0.077000
34.333333	1	0.080375
34.350000	1	0.084250
34.366667	1	0.088625
34.383333	1	0.092500
34.400000	1	0.097250
34.416667	1	0.102625
34.433333	1	0.107250
34.450000	1	0.112625
34.466667	1	0.118250
34.483333	1	0.124375
34.500000	1	0.130000
34.516667	1	0.136250
34.533333	1	0.142750
34.550000	1	0.149125
34.566667	1	0.155000
34.583333	1	0.161625
34.600000	1	0.168250
34.616667	1	0.174625
34.633333	1	0.181375
34.650000	1	0.188625
34.666667	1	0.194750
34.683333	1	0.200875
34.700000	1	0.207000
34.716667	1	0.213000
34.733333	1	0.218750
34.750000	1	0.224875
34.766667	1	0.229625
34.783333	1	0.234625
34.800000	1	0.238875
34.816667	1	0.244500
34.833333	1	0.248625
34.850000	1	0.252750
34.866667	1	0.256750
34.883333	1	0.260000
34.900000	1	0.263000
34.916667	1	0.266000
34.933333	1	0.268750
34.950000	1	0.270500
34.966667	1	0.272375
34.983333	1	0.273875
35.000000	1	0.275000
35.016667	1	0.276125
35.033333	1	0.276625
35.050000	1	0.276500
35.066667	1	0.276375
35.083333	1	0.275875
35.100000	1	0.274875
35.116667	1	0.274000
35.133333	1	0.272125
35.150000	1	0.270375
35.166667	1	0.268875
35.183333	1	0.266625
35.200000	1	0.263625
35.216667	1	0.260250
35.233333	1	0.256250
35.250000	1	0.252500
35.266667	1	0.248500
35.283333	1	0.244250
35.300000	1	0.239875
35.316667	1	0.235375
35.333333	1	0.230500
35.350000	1	0.225375
35.366667	1	0.219750
35.383333	1	0.215250
35.400000	1	0.210375
35.416667	1	0.204875
35.433333	1	0.199500
35.450000	1	0.194000
35.466667	1	0.188500
35.483333	1	0.183375
35.500000	1	0.178500
35.516667	1	0.173625
35.533333	1	0.168500
35.550000	1	0.164750
35.566667	1	0.161375
35.583333	1	0.157125
35.600000	1	0.153375
35.616667	1	0.149500
35.633333	1	0.146375
35.650000	1	0.143625
35.666667	1	0.140750
35.683333	1	0.138375
35.700000	1	0.136125
35.716667	1	0.134250
35.733333	1	0.132125
35.750000	1	0.130750
35.766667	1	0.129500
35.783333	1	0.128375
35.800000	1	0.128250
35.816667	1	0.128125
35.833333	1	0.127875
35.850000	1	0.128750
35.866667	1	0.129125
35.883333	1	0.129000
35.900000	1	0.128875
35.916667	1	0.130250
35.933333	1	0.131250
35.950000	1	0.132375
35.966667	1	0.133125
35.983333	1	0.134625
36.000000	1	0.136500
36.016667	1	0.138000
36.033333	1	0.139875
36.050000	1	0.141625
36.066667	1	0.144000
36.083333	1	0.145625
36.100000	1	0.147750
36.116667	1	0.149625
36.133333	1	0.151625
36.150000	1	0.153875
36.166667	1	0.156625
36.183333	1	0.158375
36.200000	1	0.160500
36.216667	1	0.163125
36.233333	1	0.165250
36.250000	1	0.167875
36.266667	1	0.171250
36.283333	1	0.174250
36.300000	1	0.176500
36.316667	1	0.179500
36.333333	1	0.182375
36.350000	1	0.185125
36.366667	1	0.188125
36.383333	1	0.191000
36.400000	1	0.194375
36.416667	1	0.197625
36.433333	1	0.201125
36.450000	1	0.204250
36.466667	1	0.207375
36.483333	1	0.211125
36.500000	1	0.214625
36.516667	1	0.217750
36.533333	1	0.221250
36.550000	1	0.224750
36.566667	1	0.227875
36.583333	1	0.230625
36.600000	1	0.233625
36.616667	1	0.237125
36.633333	1	0.240125
36.650000	1	0.243375
36.666667	1	0.246250
36.683333	1	0.249125
36.700000	1	0.252125
36.716667	1	0.254875
36.733333	1	0.257875
36.750000	1	0.261250
36.766667	1	0.263875
36.783333	1	0.266625
36.800000	1	0.269250
36.816667	1	0.272125
36.833333	1	0.274125
36.850000	1	0.276500
36.866667	1	0.278875
36.883333	1	0.281000
36.900000	1	0.283250
36.916667	1	0.286125
36.933333	1	0.287625
36.950000	1	0.290000
36.966667	1	0.291625
36.983333	1	0.293625
37.000000	1	0.295250
37.016667	1	0.297125
37.033333	1	0.298750
37.050000	1	0.299625
37.066667	1	0.300375
37.083333	1	0.300750
37.100000	1	0.301375
37.116667	1	0.301375
37.133333	1	0.301375
37.150000	1	0.302125
37.166667	1	0.302250
37.183333	1	0.301250
37.200000	1	0.300500
37.216667	1	0.298875
37.233333	1	0.297125
37.250000	1	0.295250
37.266667	1	0.292750
37.283333	1	0.290500
37.300000	1	0.287625
37.316667	1	0.285000
37.333333	1	0.282500
37.350000	1	0.279375
37.366667	1	0.275625
37.383333	1	0.271750
37.400000	1	0.268250
37.416667	1	0.264000
37.433333	1	0.259875
37.450000	1	0.256000
37.466667	1	0.252125
37.483333	1	0.248250
37.500000	1	0.244250
37.516667	1	0.239625
37.533333	1	0.234875
37.550000	1	0.230875
37.566667	1	0.226375
37.583333	1	0.222000
37.600000	1	0.217000
37.616667	1	0.212000
37.633333	1	0.206625
37.650000	1	0.202250
37.666667	1	0.197500
37.683333	1	0.191875
37.700000	1	0.186875
37.716667	1	0.181750
37.733333	1	0.177000
37.750000	1	0.172125
37.766667	1	0.167625
37.783333	1	0.162875
37.800000	1	0.157625
37.816667	1	0.153000
37.833333	1	0.149000
37.850000	1	0.144375
37.866667	1	0.139750
37.883333	1	0.135125
37.900000	1	0.130250
37.916667	1	0.126125
37.933333	1	0.122000
37.950000	1	0.117750
37.966667	1	0.113250
37.983333	1	0.109500
38.000000	1	0.105250
38.016667	1	0.101375
38.033333	1	0.097125
38.050000	1	0.093625
38.066667	1	0.089750
38.083333	1	0.086625
38.100000	1	0.083125
38.116667	1	0.080375
38.133333	1	0.078250
38.150000	1	0.075500
38.166667	1	0.072500
38.183333	1	0.070375
38.200000	1	0.067625
38.216667	1	0.065625
38.233333	1	0.063500
38.250000	1	0.061000
38.266667	1	0.058750
38.283333	1	0.057250
38.300000	1	0.055625
38.316667	1	0.054625
38.333333	1	0.053875
38.350000	1	0.052500
38.366667	1	0.051500
38.383333	1	0.051000
38.400000	1	0.050250
38.416667	1	0.049250
38.433333	1	0.049125
38.450000	1	0.048375
38.466667	1	0.047875
38.483333	1	0.047875
38.500000	1	0.047375
38.516667	1	0.046875
38.533333	1	0.046500
38.550000	1	0.046000
38.566667	1	0.045750
38.583333	1	0.045000
38.600000	1	0.044500
38.616667	1	0.044500
38.633333	1	0.044125
38.650000	1	0.044125
38.666667	1	0.043750
38.683333	1	0.043375
38.700000	1	0.043250
38.716667	1	0.043875
38.733333	1	0.043000
38.750000	1	0.043375
38.766667	1	0.043125
38.783333	1	0.042625
38.800000	1	0.042250
38.816667	1	0.041750
38.833333	1	0.041375
38.850000	1	0.040500
38.866667	1	0.040125
38.883333	1	0.040500
38.900000	1	0.039625
38.916667	1	0.040000
38.933333	1	0.039375
38.950000	1	0.038875
38.966667	1	0.038000
38.983333	1	0.038125
39.000000	1	0.037625
39.016667	1	0.036875
39.033333	1	0.036750
39.050000	1	0.036375
39.066667	1	0.035375
39.083333	1	0.035250
39.100000	1	0.035875
39.116667	1	0.035250
39.133333	1	0.034875
39.150000	1	0.034000
39.166667	1	0.033625
39.183333	1	0.033500
39.200000	1	0.033125
39.216667	1	0.033250
39.233333	1	0.033125
39.250000	1	0.033000
39.266667	1	0.033375
39.283333	1	0.033875
39.300000	1	0.033125
39.316667	1	0.033375
39.333333	1	0.033875
39.350000	1	0.033250
39.366667	1	0.033500
39.383333	1	0.033750
39.400000	1	0.034125
39.416667	1	0.033500
39.433333	1	0.033875
39.450000	1	0.033625
39.466667	1	0.033875
39.483333	1	0.033875
39.500000	1	0.033750
39.516667	1	0.033875
39.533333	1	0.033875
39.550000	1	0.034250
39.566667	1	0.034375
39.583333	1	0.034500
39.600000	1	0.034375
39.616667	1	0.034250
39.633333	1	0.034000
39.650000	1	0.034375
39.666667	1	0.035125
39.683333	1	0.035625
39.700000	1	0.036125
39.716667	1	0.036750
39.733333	1	0.037375
39.750000	1	0.037375
39.766667	1	0.038250
39.783333	1	0.038625
39.800000	1	0.039250
39.816667	1	0.039750
39.833333	1	0.040375
39.850000	1	0.041250
39.866667	1	0.042500
39.883333	1	0.043125
39.900000	1	0.043625
39.916667	1	0.044500
39.933333	1	0.045375
39.950000	1	0.046500
39.966667	1	0.048500
39.983333	1	0.049875
40.000000	1	0.050875
