File Path	chrom://marshall/Chromeleon7/HPLC_Ultimate_3000/Users/markusar/20230113.seq/801.smp/RI_1.channel/RI_1.chm
Channel	RI_1

Injection Information:
Data Vault	Chromeleon7
Injection	er3.1
Injection Number	3
Position	GA3
Comment	
Processing Method	
Instrument Method	std_method
Type	Unknown
Status	Finished
Injection Date	13.01.2023
Injection Time	16:57:15
Injection Volume (µl)	20.000
Dilution Factor	1.0000
Weight	1.0000

Chromatogram Data Information:
Time Min. (min)	0.000000
Time Max. (min)	40.000000
Data Points	2401
Detector	RI
Generating Data System	Chromeleon 7.2.5.9507
Exporting Data System	Chromeleon 7.2.5.0
Operator	Instrument Controller
Signal Quantity	Refractive 
Signal Unit	µRIU
Signal Min.	-0.091250
Signal Max.	114.952125
Channel	RI_1
Driver Name	RID520Driver.dll
Channel Type	Evaluation
Min. Step (s)	1
Max. Step (s)	1
Average Step (s)	1

Signal Parameter Information:
Signal Info	

Chromatogram Data:
Time (min)	Step (s)	Value (µRIU)
0.000000	n.a.	0.022000
0.016667	1	0.024500
0.033333	1	0.026500
0.050000	1	0.027750
0.066667	1	0.029375
0.083333	1	0.031125
0.100000	1	0.032500
0.116667	1	0.034125
0.133333	1	0.034875
0.150000	1	0.036125
0.166667	1	0.038250
0.183333	1	0.039625
0.200000	1	0.040500
0.216667	1	0.041750
0.233333	1	0.042500
0.250000	1	0.043000
0.266667	1	0.043625
0.283333	1	0.044625
0.300000	1	0.045375
0.316667	1	0.045375
0.333333	1	0.044875
0.350000	1	0.045375
0.366667	1	0.045250
0.383333	1	0.045250
0.400000	1	0.045000
0.416667	1	0.045375
0.433333	1	0.045250
0.450000	1	0.045375
0.466667	1	0.045500
0.483333	1	0.044875
0.500000	1	0.044375
0.516667	1	0.043625
0.533333	1	0.043250
0.550000	1	0.042250
0.566667	1	0.041250
0.583333	1	0.040250
0.600000	1	0.039250
0.616667	1	0.037875
0.633333	1	0.037000
0.650000	1	0.035500
0.666667	1	0.034375
0.683333	1	0.033375
0.700000	1	0.032000
0.716667	1	0.030375
0.733333	1	0.029000
0.750000	1	0.028875
0.766667	1	0.028625
0.783333	1	0.027750
0.800000	1	0.027000
0.816667	1	0.026250
0.833333	1	0.025250
0.850000	1	0.024750
0.866667	1	0.023375
0.883333	1	0.021750
0.900000	1	0.019875
0.916667	1	0.017875
0.933333	1	0.015250
0.950000	1	0.012250
0.966667	1	0.009250
0.983333	1	0.006125
1.000000	1	0.003625
1.016667	1	0.001500
1.033333	1	-0.001625
1.050000	1	-0.004000
1.066667	1	-0.006125
1.083333	1	-0.008625
1.100000	1	-0.010875
1.116667	1	-0.013375
1.133333	1	-0.015000
1.150000	1	-0.016375
1.166667	1	-0.017625
1.183333	1	-0.019500
1.200000	1	-0.021375
1.216667	1	-0.023125
1.233333	1	-0.024500
1.250000	1	-0.025750
1.266667	1	-0.027000
1.283333	1	-0.028750
1.300000	1	-0.030000
1.316667	1	-0.031500
1.333333	1	-0.033000
1.350000	1	-0.034500
1.366667	1	-0.035875
1.383333	1	-0.037000
1.400000	1	-0.038750
1.416667	1	-0.040500
1.433333	1	-0.041625
1.450000	1	-0.043125
1.466667	1	-0.044625
1.483333	1	-0.046375
1.500000	1	-0.047875
1.516667	1	-0.049250
1.533333	1	-0.050625
1.550000	1	-0.052125
1.566667	1	-0.053125
1.583333	1	-0.054125
1.600000	1	-0.055125
1.616667	1	-0.056000
1.633333	1	-0.057750
1.650000	1	-0.059000
1.666667	1	-0.060000
1.683333	1	-0.060375
1.700000	1	-0.061250
1.716667	1	-0.062625
1.733333	1	-0.063375
1.750000	1	-0.064625
1.766667	1	-0.066125
1.783333	1	-0.067625
1.800000	1	-0.069750
1.816667	1	-0.070375
1.833333	1	-0.071250
1.850000	1	-0.072250
1.866667	1	-0.073250
1.883333	1	-0.074375
1.900000	1	-0.075625
1.916667	1	-0.076625
1.933333	1	-0.077500
1.950000	1	-0.078125
1.966667	1	-0.078250
1.983333	1	-0.079000
2.000000	1	-0.079500
2.016667	1	-0.080125
2.033333	1	-0.080500
2.050000	1	-0.081375
2.066667	1	-0.081625
2.083333	1	-0.082000
2.100000	1	-0.082125
2.116667	1	-0.082375
2.133333	1	-0.082375
2.150000	1	-0.082500
2.166667	1	-0.083125
2.183333	1	-0.083250
2.200000	1	-0.083375
2.216667	1	-0.083250
2.233333	1	-0.083125
2.250000	1	-0.083250
2.266667	1	-0.083125
2.283333	1	-0.083125
2.300000	1	-0.083375
2.316667	1	-0.083750
2.333333	1	-0.083875
2.350000	1	-0.083250
2.366667	1	-0.083625
2.383333	1	-0.084375
2.400000	1	-0.083875
2.416667	1	-0.084750
2.433333	1	-0.084000
2.450000	1	-0.083750
2.466667	1	-0.083500
2.483333	1	-0.083375
2.500000	1	-0.083125
2.516667	1	-0.082750
2.533333	1	-0.083000
2.550000	1	-0.083000
2.566667	1	-0.082875
2.583333	1	-0.082125
2.600000	1	-0.081875
2.616667	1	-0.081000
2.633333	1	-0.080750
2.650000	1	-0.080000
2.666667	1	-0.079375
2.683333	1	-0.079125
2.700000	1	-0.078375
2.716667	1	-0.077875
2.733333	1	-0.077625
2.750000	1	-0.077500
2.766667	1	-0.077250
2.783333	1	-0.076875
2.800000	1	-0.075875
2.816667	1	-0.074875
2.833333	1	-0.074375
2.850000	1	-0.073125
2.866667	1	-0.072500
2.883333	1	-0.071625
2.900000	1	-0.071000
2.916667	1	-0.070125
2.933333	1	-0.070125
2.950000	1	-0.069250
2.966667	1	-0.068375
2.983333	1	-0.067750
3.000000	1	-0.067375
3.016667	1	-0.066250
3.033333	1	-0.065125
3.050000	1	-0.063750
3.066667	1	-0.063125
3.083333	1	-0.062125
3.100000	1	-0.062000
3.116667	1	-0.060750
3.133333	1	-0.060125
3.150000	1	-0.059250
3.166667	1	-0.058250
3.183333	1	-0.056875
3.200000	1	-0.056000
3.216667	1	-0.055125
3.233333	1	-0.054000
3.250000	1	-0.052375
3.266667	1	-0.051375
3.283333	1	-0.050125
3.300000	1	-0.049250
3.316667	1	-0.048250
3.333333	1	-0.047000
3.350000	1	-0.045750
3.366667	1	-0.044125
3.383333	1	-0.042750
3.400000	1	-0.042375
3.416667	1	-0.041000
3.433333	1	-0.038875
3.450000	1	-0.038000
3.466667	1	-0.036375
3.483333	1	-0.035375
3.500000	1	-0.034125
3.516667	1	-0.032625
3.533333	1	-0.031750
3.550000	1	-0.030375
3.566667	1	-0.029125
3.583333	1	-0.028125
3.600000	1	-0.027375
3.616667	1	-0.026000
3.633333	1	-0.025250
3.650000	1	-0.024250
3.666667	1	-0.023625
3.683333	1	-0.022625
3.700000	1	-0.022125
3.716667	1	-0.021500
3.733333	1	-0.021000
3.750000	1	-0.019875
3.766667	1	-0.019250
3.783333	1	-0.019125
3.800000	1	-0.018375
3.816667	1	-0.017375
3.833333	1	-0.016625
3.850000	1	-0.016000
3.866667	1	-0.015250
3.883333	1	-0.015000
3.900000	1	-0.014625
3.916667	1	-0.014000
3.933333	1	-0.013875
3.950000	1	-0.013125
3.966667	1	-0.012875
3.983333	1	-0.012375
4.000000	1	-0.011750
4.016667	1	-0.011375
4.033333	1	-0.010750
4.050000	1	-0.010250
4.066667	1	-0.009250
4.083333	1	-0.008375
4.100000	1	-0.007875
4.116667	1	-0.007250
4.133333	1	-0.006375
4.150000	1	-0.006500
4.166667	1	-0.006125
4.183333	1	-0.005375
4.200000	1	-0.005000
4.216667	1	-0.005250
4.233333	1	-0.005000
4.250000	1	-0.004750
4.266667	1	-0.004625
4.283333	1	-0.004500
4.300000	1	-0.004000
4.316667	1	-0.003750
4.333333	1	-0.004125
4.350000	1	-0.005125
4.366667	1	-0.005000
4.383333	1	-0.005250
4.400000	1	-0.005375
4.416667	1	-0.005750
4.433333	1	-0.006750
4.450000	1	-0.007000
4.466667	1	-0.007625
4.483333	1	-0.008250
4.500000	1	-0.009125
4.516667	1	-0.009625
4.533333	1	-0.010750
4.550000	1	-0.011375
4.566667	1	-0.012000
4.583333	1	-0.013000
4.600000	1	-0.013375
4.616667	1	-0.013875
4.633333	1	-0.014500
4.650000	1	-0.015375
4.666667	1	-0.016625
4.683333	1	-0.017625
4.700000	1	-0.018250
4.716667	1	-0.019125
4.733333	1	-0.020375
4.750000	1	-0.020875
4.766667	1	-0.021000
4.783333	1	-0.022375
4.800000	1	-0.023375
4.816667	1	-0.024250
4.833333	1	-0.024250
4.850000	1	-0.024875
4.866667	1	-0.025750
4.883333	1	-0.026625
4.900000	1	-0.027625
4.916667	1	-0.028875
4.933333	1	-0.029750
4.950000	1	-0.030500
4.966667	1	-0.031625
4.983333	1	-0.033375
5.000000	1	-0.034125
5.016667	1	-0.036250
5.033333	1	-0.037375
5.050000	1	-0.038625
5.066667	1	-0.039500
5.083333	1	-0.040875
5.100000	1	-0.042125
5.116667	1	-0.043875
5.133333	1	-0.045625
5.150000	1	-0.047000
5.166667	1	-0.048750
5.183333	1	-0.049875
5.200000	1	-0.051500
5.216667	1	-0.053500
5.233333	1	-0.054500
5.250000	1	-0.055750
5.266667	1	-0.056875
5.283333	1	-0.058500
5.300000	1	-0.059750
5.316667	1	-0.060500
5.333333	1	-0.061625
5.350000	1	-0.063000
5.366667	1	-0.064000
5.383333	1	-0.064750
5.400000	1	-0.066250
5.416667	1	-0.067125
5.433333	1	-0.067250
5.450000	1	-0.067375
5.466667	1	-0.067625
5.483333	1	-0.068250
5.500000	1	-0.069250
5.516667	1	-0.069750
5.533333	1	-0.069875
5.550000	1	-0.070125
5.566667	1	-0.069750
5.583333	1	-0.069625
5.600000	1	-0.068750
5.616667	1	-0.068125
5.633333	1	-0.067375
5.650000	1	-0.067125
5.666667	1	-0.067000
5.683333	1	-0.066375
5.700000	1	-0.066250
5.716667	1	-0.065125
5.733333	1	-0.063625
5.750000	1	-0.062125
5.766667	1	-0.060500
5.783333	1	-0.059125
5.800000	1	-0.057500
5.816667	1	-0.055125
5.833333	1	-0.053125
5.850000	1	-0.050375
5.866667	1	-0.047750
5.883333	1	-0.045000
5.900000	1	-0.042750
5.916667	1	-0.039625
5.933333	1	-0.036750
5.950000	1	-0.033875
5.966667	1	-0.031000
5.983333	1	-0.027875
6.000000	1	-0.025125
6.016667	1	-0.022375
6.033333	1	-0.019000
6.050000	1	-0.015625
6.066667	1	-0.012750
6.083333	1	-0.009875
6.100000	1	-0.007125
6.116667	1	-0.004375
6.133333	1	-0.001500
6.150000	1	0.000625
6.166667	1	0.003500
6.183333	1	0.005750
6.200000	1	0.008500
6.216667	1	0.010875
6.233333	1	0.014000
6.250000	1	0.016375
6.266667	1	0.018625
6.283333	1	0.020500
6.300000	1	0.022750
6.316667	1	0.025250
6.333333	1	0.027750
6.350000	1	0.030125
6.366667	1	0.031875
6.383333	1	0.033750
6.400000	1	0.035500
6.416667	1	0.037250
6.433333	1	0.038875
6.450000	1	0.039875
6.466667	1	0.041000
6.483333	1	0.042625
6.500000	1	0.044875
6.516667	1	0.046000
6.533333	1	0.046625
6.550000	1	0.048125
6.566667	1	0.048875
6.583333	1	0.050125
6.600000	1	0.051000
6.616667	1	0.051375
6.633333	1	0.051625
6.650000	1	0.052125
6.666667	1	0.052750
6.683333	1	0.052625
6.700000	1	0.052625
6.716667	1	0.053125
6.733333	1	0.053250
6.750000	1	0.053000
6.766667	1	0.052625
6.783333	1	0.052000
6.800000	1	0.051375
6.816667	1	0.050000
6.833333	1	0.050125
6.850000	1	0.049375
6.866667	1	0.048500
6.883333	1	0.047000
6.900000	1	0.046000
6.916667	1	0.044625
6.933333	1	0.043375
6.950000	1	0.042375
6.966667	1	0.040875
6.983333	1	0.038875
7.000000	1	0.037625
7.016667	1	0.036125
7.033333	1	0.034875
7.050000	1	0.033750
7.066667	1	0.033125
7.083333	1	0.032500
7.100000	1	0.031375
7.116667	1	0.030500
7.133333	1	0.029250
7.150000	1	0.029000
7.166667	1	0.028375
7.183333	1	0.027250
7.200000	1	0.026000
7.216667	1	0.025250
7.233333	1	0.025250
7.250000	1	0.025000
7.266667	1	0.025000
7.283333	1	0.025375
7.300000	1	0.025750
7.316667	1	0.025625
7.333333	1	0.026000
7.350000	1	0.026000
7.366667	1	0.026625
7.383333	1	0.027250
7.400000	1	0.027500
7.416667	1	0.028125
7.433333	1	0.029000
7.450000	1	0.029750
7.466667	1	0.030375
7.483333	1	0.031500
7.500000	1	0.032125
7.516667	1	0.033000
7.533333	1	0.034250
7.550000	1	0.035125
7.566667	1	0.035625
7.583333	1	0.036125
7.600000	1	0.037250
7.616667	1	0.038250
7.633333	1	0.038875
7.650000	1	0.039000
7.666667	1	0.040500
7.683333	1	0.041000
7.700000	1	0.042125
7.716667	1	0.042750
7.733333	1	0.042875
7.750000	1	0.043500
7.766667	1	0.044500
7.783333	1	0.045250
7.800000	1	0.046125
7.816667	1	0.046375
7.833333	1	0.046500
7.850000	1	0.047375
7.866667	1	0.047500
7.883333	1	0.047750
7.900000	1	0.048125
7.916667	1	0.048375
7.933333	1	0.048250
7.950000	1	0.047750
7.966667	1	0.047750
7.983333	1	0.047750
8.000000	1	0.048000
8.016667	1	0.048250
8.033333	1	0.048125
8.050000	1	0.048250
8.066667	1	0.047500
8.083333	1	0.047125
8.100000	1	0.046500
8.116667	1	0.046000
8.133333	1	0.045500
8.150000	1	0.044250
8.166667	1	0.042875
8.183333	1	0.041750
8.200000	1	0.040750
8.216667	1	0.039625
8.233333	1	0.037750
8.250000	1	0.035625
8.266667	1	0.033875
8.283333	1	0.031750
8.300000	1	0.030125
8.316667	1	0.027875
8.333333	1	0.025500
8.350000	1	0.023000
8.366667	1	0.020500
8.383333	1	0.017625
8.400000	1	0.015125
8.416667	1	0.012500
8.433333	1	0.009375
8.450000	1	0.006250
8.466667	1	0.003375
8.483333	1	-0.000125
8.500000	1	-0.002500
8.516667	1	-0.005250
8.533333	1	-0.008375
8.550000	1	-0.011250
8.566667	1	-0.014875
8.583333	1	-0.018125
8.600000	1	-0.021500
8.616667	1	-0.024750
8.633333	1	-0.027875
8.650000	1	-0.031000
8.666667	1	-0.033875
8.683333	1	-0.036125
8.700000	1	-0.039125
8.716667	1	-0.041875
8.733333	1	-0.045250
8.750000	1	-0.047625
8.766667	1	-0.049750
8.783333	1	-0.052250
8.800000	1	-0.054500
8.816667	1	-0.056250
8.833333	1	-0.058125
8.850000	1	-0.060125
8.866667	1	-0.062125
8.883333	1	-0.063500
8.900000	1	-0.065500
8.916667	1	-0.067625
8.933333	1	-0.069250
8.950000	1	-0.070875
8.966667	1	-0.071875
8.983333	1	-0.074250
9.000000	1	-0.075500
9.016667	1	-0.077000
9.033333	1	-0.078625
9.050000	1	-0.080375
9.066667	1	-0.081625
9.083333	1	-0.082375
9.100000	1	-0.084125
9.116667	1	-0.084875
9.133333	1	-0.086500
9.150000	1	-0.087500
9.166667	1	-0.088375
9.183333	1	-0.089125
9.200000	1	-0.090000
9.216667	1	-0.090625
9.233333	1	-0.091250
9.250000	1	-0.090875
9.266667	1	-0.090750
9.283333	1	-0.090375
9.300000	1	-0.090250
9.316667	1	-0.090500
9.333333	1	-0.089625
9.350000	1	-0.089125
9.366667	1	-0.088375
9.383333	1	-0.087750
9.400000	1	-0.086875
9.416667	1	-0.085750
9.433333	1	-0.083750
9.450000	1	-0.082250
9.466667	1	-0.080500
9.483333	1	-0.078125
9.500000	1	-0.076250
9.516667	1	-0.073875
9.533333	1	-0.072250
9.550000	1	-0.069500
9.566667	1	-0.067375
9.583333	1	-0.064750
9.600000	1	-0.062250
9.616667	1	-0.060250
9.633333	1	-0.056875
9.650000	1	-0.054500
9.666667	1	-0.051375
9.683333	1	-0.049125
9.700000	1	-0.045375
9.716667	1	-0.041625
9.733333	1	-0.038125
9.750000	1	-0.034875
9.766667	1	-0.030625
9.783333	1	-0.026750
9.800000	1	-0.022375
9.816667	1	-0.017875
9.833333	1	-0.012625
9.850000	1	-0.006750
9.866667	1	-0.000250
9.883333	1	0.007125
9.900000	1	0.015875
9.916667	1	0.025375
9.933333	1	0.036500
9.950000	1	0.050125
9.966667	1	0.065625
9.983333	1	0.083000
10.000000	1	0.103750
10.016667	1	0.127250
10.033333	1	0.152875
10.050000	1	0.182375
10.066667	1	0.214375
10.083333	1	0.249125
10.100000	1	0.286625
10.116667	1	0.328625
10.133333	1	0.373875
10.150000	1	0.423125
10.166667	1	0.475375
10.183333	1	0.530000
10.200000	1	0.584250
10.216667	1	0.633625
10.233333	1	0.672125
10.250000	1	0.694250
10.266667	1	0.695750
10.283333	1	0.675750
10.300000	1	0.638875
10.316667	1	0.594000
10.333333	1	0.560500
10.350000	1	0.560250
10.366667	1	0.622750
10.383333	1	0.783750
10.400000	1	1.082375
10.416667	1	1.561000
10.433333	1	2.265500
10.450000	1	3.240375
10.466667	1	4.531750
10.483333	1	6.185750
10.500000	1	8.248375
10.516667	1	10.760875
10.533333	1	13.762250
10.550000	1	17.284875
10.566667	1	21.354125
10.583333	1	25.990750
10.600000	1	31.206625
10.616667	1	37.002000
10.633333	1	43.360500
10.650000	1	50.244625
10.666667	1	57.599875
10.683333	1	65.329875
10.700000	1	73.299875
10.716667	1	81.314000
10.733333	1	89.128000
10.750000	1	96.451375
10.766667	1	102.968875
10.783333	1	108.350000
10.800000	1	112.291000
10.816667	1	114.543875
10.833333	1	114.952125
10.850000	1	113.474250
10.866667	1	110.182750
10.883333	1	105.262250
10.900000	1	98.984750
10.916667	1	91.679875
10.933333	1	83.707250
10.950000	1	75.421875
10.966667	1	67.149125
10.983333	1	59.161125
11.000000	1	51.671125
11.016667	1	44.828000
11.033333	1	38.721250
11.050000	1	33.386500
11.066667	1	28.813875
11.083333	1	24.959625
11.100000	1	21.758750
11.116667	1	19.135750
11.133333	1	17.006375
11.150000	1	15.291375
11.166667	1	13.913125
11.183333	1	12.803500
11.200000	1	11.905125
11.216667	1	11.168250
11.233333	1	10.552875
11.250000	1	10.027000
11.266667	1	9.564750
11.283333	1	9.148375
11.300000	1	8.763375
11.316667	1	8.399125
11.333333	1	8.049625
11.350000	1	7.710500
11.366667	1	7.380750
11.383333	1	7.058875
11.400000	1	6.745625
11.416667	1	6.439375
11.433333	1	6.143750
11.450000	1	5.859250
11.466667	1	5.586750
11.483333	1	5.326750
11.500000	1	5.081750
11.516667	1	4.850125
11.533333	1	4.634625
11.550000	1	4.435875
11.566667	1	4.255250
11.583333	1	4.092250
11.600000	1	3.947250
11.616667	1	3.819875
11.633333	1	3.710625
11.650000	1	3.616625
11.666667	1	3.537375
11.683333	1	3.470625
11.700000	1	3.415500
11.716667	1	3.368375
11.733333	1	3.329125
11.750000	1	3.295125
11.766667	1	3.264750
11.783333	1	3.236875
11.800000	1	3.210875
11.816667	1	3.186125
11.833333	1	3.161750
11.850000	1	3.137250
11.866667	1	3.111750
11.883333	1	3.084250
11.900000	1	3.056000
11.916667	1	3.025625
11.933333	1	2.993375
11.950000	1	2.959125
11.966667	1	2.922875
11.983333	1	2.884625
12.000000	1	2.845375
12.016667	1	2.805875
12.033333	1	2.765125
12.050000	1	2.725375
12.066667	1	2.685000
12.083333	1	2.644375
12.100000	1	2.604250
12.116667	1	2.564500
12.133333	1	2.524125
12.150000	1	2.483750
12.166667	1	2.442500
12.183333	1	2.401250
12.200000	1	2.359625
12.216667	1	2.317500
12.233333	1	2.274750
12.250000	1	2.232875
12.266667	1	2.191125
12.283333	1	2.150500
12.300000	1	2.111500
12.316667	1	2.072875
12.333333	1	2.036125
12.350000	1	2.000625
12.366667	1	1.967000
12.383333	1	1.936375
12.400000	1	1.907250
12.416667	1	1.880875
12.433333	1	1.857250
12.450000	1	1.835250
12.466667	1	1.816875
12.483333	1	1.801625
12.500000	1	1.790875
12.516667	1	1.784125
12.533333	1	1.783375
12.550000	1	1.789875
12.566667	1	1.802875
12.583333	1	1.825250
12.600000	1	1.859250
12.616667	1	1.907125
12.633333	1	1.970750
12.650000	1	2.053125
12.666667	1	2.158125
12.683333	1	2.289750
12.700000	1	2.451125
12.716667	1	2.647625
12.733333	1	2.882000
12.750000	1	3.157625
12.766667	1	3.476875
12.783333	1	3.840875
12.800000	1	4.248250
12.816667	1	4.696750
12.833333	1	5.185625
12.850000	1	5.709500
12.866667	1	6.264875
12.883333	1	6.847000
12.900000	1	7.451125
12.916667	1	8.072750
12.933333	1	8.707750
12.950000	1	9.350375
12.966667	1	9.998625
12.983333	1	10.649000
13.000000	1	11.299375
13.016667	1	11.947250
13.033333	1	12.592500
13.050000	1	13.234750
13.066667	1	13.873000
13.083333	1	14.507375
13.100000	1	15.137375
13.116667	1	15.763750
13.133333	1	16.384000
13.150000	1	16.998625
13.166667	1	17.603500
13.183333	1	18.193625
13.200000	1	18.759500
13.216667	1	19.289875
13.233333	1	19.773500
13.250000	1	20.199125
13.266667	1	20.558250
13.283333	1	20.841000
13.300000	1	21.042500
13.316667	1	21.158750
13.333333	1	21.186375
13.350000	1	21.126750
13.366667	1	20.981875
13.383333	1	20.756250
13.400000	1	20.454875
13.416667	1	20.085625
13.433333	1	19.655750
13.450000	1	19.172500
13.466667	1	18.643625
13.483333	1	18.077750
13.500000	1	17.481875
13.516667	1	16.863875
13.533333	1	16.230000
13.550000	1	15.587875
13.566667	1	14.943875
13.583333	1	14.303125
13.600000	1	13.671875
13.616667	1	13.053750
13.633333	1	12.450750
13.650000	1	11.865125
13.666667	1	11.298000
13.683333	1	10.747750
13.700000	1	10.217250
13.716667	1	9.704500
13.733333	1	9.208875
13.750000	1	8.730875
13.766667	1	8.271000
13.783333	1	7.830375
13.800000	1	7.411000
13.816667	1	7.014500
13.833333	1	6.643375
13.850000	1	6.299500
13.866667	1	5.984875
13.883333	1	5.700125
13.900000	1	5.445625
13.916667	1	5.223500
13.933333	1	5.031500
13.950000	1	4.868250
13.966667	1	4.731375
13.983333	1	4.617625
14.000000	1	4.524875
14.016667	1	4.450750
14.033333	1	4.391250
14.050000	1	4.344625
14.066667	1	4.308250
14.083333	1	4.279375
14.100000	1	4.257000
14.116667	1	4.238500
14.133333	1	4.222875
14.150000	1	4.207125
14.166667	1	4.190500
14.183333	1	4.169750
14.200000	1	4.142625
14.216667	1	4.108500
14.233333	1	4.065625
14.250000	1	4.013125
14.266667	1	3.951250
14.283333	1	3.878500
14.300000	1	3.796250
14.316667	1	3.705250
14.333333	1	3.606375
14.350000	1	3.502125
14.366667	1	3.393500
14.383333	1	3.283375
14.400000	1	3.174000
14.416667	1	3.066750
14.433333	1	2.964125
14.450000	1	2.868125
14.466667	1	2.780750
14.483333	1	2.704000
14.500000	1	2.638875
14.516667	1	2.586875
14.533333	1	2.549500
14.550000	1	2.528125
14.566667	1	2.523875
14.583333	1	2.537750
14.600000	1	2.570625
14.616667	1	2.621625
14.633333	1	2.693625
14.650000	1	2.785750
14.666667	1	2.897750
14.683333	1	3.029750
14.700000	1	3.182625
14.716667	1	3.356375
14.733333	1	3.549125
14.750000	1	3.761125
14.766667	1	3.992000
14.783333	1	4.240750
14.800000	1	4.506250
14.816667	1	4.788000
14.833333	1	5.084375
14.850000	1	5.393875
14.866667	1	5.712000
14.883333	1	6.036000
14.900000	1	6.360125
14.916667	1	6.679875
14.933333	1	6.993125
14.950000	1	7.297250
14.966667	1	7.595125
14.983333	1	7.889125
15.000000	1	8.184625
15.016667	1	8.490250
15.033333	1	8.814500
15.050000	1	9.168500
15.066667	1	9.563750
15.083333	1	10.009375
15.100000	1	10.514500
15.116667	1	11.083375
15.133333	1	11.720000
15.150000	1	12.421375
15.166667	1	13.182125
15.183333	1	13.992000
15.200000	1	14.839875
15.216667	1	15.712750
15.233333	1	16.595625
15.250000	1	17.472875
15.266667	1	18.330625
15.283333	1	19.153250
15.300000	1	19.928500
15.316667	1	20.644750
15.333333	1	21.288625
15.350000	1	21.849875
15.366667	1	22.318000
15.383333	1	22.684875
15.400000	1	22.942250
15.416667	1	23.084250
15.433333	1	23.104875
15.450000	1	23.002000
15.466667	1	22.775125
15.483333	1	22.427125
15.500000	1	21.964000
15.516667	1	21.392500
15.533333	1	20.725375
15.550000	1	19.975125
15.566667	1	19.155875
15.583333	1	18.281625
15.600000	1	17.367000
15.616667	1	16.426250
15.633333	1	15.471250
15.650000	1	14.515750
15.666667	1	13.570000
15.683333	1	12.643875
15.700000	1	11.746625
15.716667	1	10.885500
15.733333	1	10.065250
15.750000	1	9.290375
15.766667	1	8.565000
15.783333	1	7.891125
15.800000	1	7.269250
15.816667	1	6.699375
15.833333	1	6.181250
15.850000	1	5.712625
15.866667	1	5.292875
15.883333	1	4.918875
15.900000	1	4.588375
15.916667	1	4.298625
15.933333	1	4.046000
15.950000	1	3.828750
15.966667	1	3.642125
15.983333	1	3.484750
16.000000	1	3.353875
16.016667	1	3.247250
16.033333	1	3.162750
16.050000	1	3.099250
16.066667	1	3.053375
16.083333	1	3.024625
16.100000	1	3.012125
16.116667	1	3.013500
16.133333	1	3.027375
16.150000	1	3.052625
16.166667	1	3.087750
16.183333	1	3.130625
16.200000	1	3.181000
16.216667	1	3.238125
16.233333	1	3.300375
16.250000	1	3.367625
16.266667	1	3.441000
16.283333	1	3.521250
16.300000	1	3.609375
16.316667	1	3.705125
16.333333	1	3.811750
16.350000	1	3.931375
16.366667	1	4.065250
16.383333	1	4.214375
16.400000	1	4.380375
16.416667	1	4.561875
16.433333	1	4.759125
16.450000	1	4.969375
16.466667	1	5.191000
16.483333	1	5.419750
16.500000	1	5.652000
16.516667	1	5.884000
16.533333	1	6.111875
16.550000	1	6.331750
16.566667	1	6.540750
16.583333	1	6.735875
16.600000	1	6.914125
16.616667	1	7.073500
16.633333	1	7.212625
16.650000	1	7.330000
16.666667	1	7.423250
16.683333	1	7.490875
16.700000	1	7.532375
16.716667	1	7.546750
16.733333	1	7.531875
16.750000	1	7.488375
16.766667	1	7.415250
16.783333	1	7.313250
16.800000	1	7.184000
16.816667	1	7.028250
16.833333	1	6.847625
16.850000	1	6.645250
16.866667	1	6.424000
16.883333	1	6.188375
16.900000	1	5.940750
16.916667	1	5.684500
16.933333	1	5.424750
16.950000	1	5.164000
16.966667	1	4.905000
16.983333	1	4.651250
17.000000	1	4.404625
17.016667	1	4.166500
17.033333	1	3.939250
17.050000	1	3.723625
17.066667	1	3.520875
17.083333	1	3.331000
17.100000	1	3.154875
17.116667	1	2.991875
17.133333	1	2.841750
17.150000	1	2.704250
17.166667	1	2.579500
17.183333	1	2.465750
17.200000	1	2.362625
17.216667	1	2.270250
17.233333	1	2.186125
17.250000	1	2.111000
17.266667	1	2.043750
17.283333	1	1.983000
17.300000	1	1.928875
17.316667	1	1.880375
17.333333	1	1.837125
17.350000	1	1.798250
17.366667	1	1.762875
17.383333	1	1.731000
17.400000	1	1.702500
17.416667	1	1.676875
17.433333	1	1.653375
17.450000	1	1.632000
17.466667	1	1.612000
17.483333	1	1.593500
17.500000	1	1.576250
17.516667	1	1.560500
17.533333	1	1.545375
17.550000	1	1.531750
17.566667	1	1.519125
17.583333	1	1.507375
17.600000	1	1.495625
17.616667	1	1.485000
17.633333	1	1.474750
17.650000	1	1.464250
17.666667	1	1.454625
17.683333	1	1.444125
17.700000	1	1.435000
17.716667	1	1.425875
17.733333	1	1.417125
17.750000	1	1.408125
17.766667	1	1.400125
17.783333	1	1.392375
17.800000	1	1.385625
17.816667	1	1.378750
17.833333	1	1.372750
17.850000	1	1.367125
17.866667	1	1.362250
17.883333	1	1.359250
17.900000	1	1.357250
17.916667	1	1.356250
17.933333	1	1.357625
17.950000	1	1.360000
17.966667	1	1.363625
17.983333	1	1.369375
18.000000	1	1.378000
18.016667	1	1.387750
18.033333	1	1.398375
18.050000	1	1.413000
18.066667	1	1.429625
18.083333	1	1.447750
18.100000	1	1.467000
18.116667	1	1.488500
18.133333	1	1.511125
18.150000	1	1.536375
18.166667	1	1.562000
18.183333	1	1.588500
18.200000	1	1.616000
18.216667	1	1.643250
18.233333	1	1.671250
18.250000	1	1.698250
18.266667	1	1.725500
18.283333	1	1.752375
18.300000	1	1.778625
18.316667	1	1.803000
18.333333	1	1.827125
18.350000	1	1.849000
18.366667	1	1.869250
18.383333	1	1.887750
18.400000	1	1.903875
18.416667	1	1.917875
18.433333	1	1.930250
18.450000	1	1.939625
18.466667	1	1.947250
18.483333	1	1.951750
18.500000	1	1.953875
18.516667	1	1.953000
18.533333	1	1.949625
18.550000	1	1.945250
18.566667	1	1.937750
18.583333	1	1.928375
18.600000	1	1.917125
18.616667	1	1.904000
18.633333	1	1.889375
18.650000	1	1.872750
18.666667	1	1.855125
18.683333	1	1.837000
18.700000	1	1.817750
18.716667	1	1.797750
18.733333	1	1.776625
18.750000	1	1.755375
18.766667	1	1.733625
18.783333	1	1.711375
18.800000	1	1.688500
18.816667	1	1.666375
18.833333	1	1.643875
18.850000	1	1.621375
18.866667	1	1.598875
18.883333	1	1.576125
18.900000	1	1.553375
18.916667	1	1.531500
18.933333	1	1.510500
18.950000	1	1.490000
18.966667	1	1.469625
18.983333	1	1.449250
19.000000	1	1.429125
19.016667	1	1.409875
19.033333	1	1.391500
19.050000	1	1.372750
19.066667	1	1.354750
19.083333	1	1.336875
19.100000	1	1.319625
19.116667	1	1.303750
19.133333	1	1.288500
19.150000	1	1.273500
19.166667	1	1.259000
19.183333	1	1.246125
19.200000	1	1.233375
19.216667	1	1.220750
19.233333	1	1.209500
19.250000	1	1.199375
19.266667	1	1.190875
19.283333	1	1.184125
19.300000	1	1.179125
19.316667	1	1.175750
19.333333	1	1.174375
19.350000	1	1.175500
19.366667	1	1.178750
19.383333	1	1.185625
19.400000	1	1.195250
19.416667	1	1.207000
19.433333	1	1.221750
19.450000	1	1.240375
19.466667	1	1.261500
19.483333	1	1.285625
19.500000	1	1.312000
19.516667	1	1.341000
19.533333	1	1.372500
19.550000	1	1.405875
19.566667	1	1.441125
19.583333	1	1.477500
19.600000	1	1.514625
19.616667	1	1.552625
19.633333	1	1.589750
19.650000	1	1.627000
19.666667	1	1.663750
19.683333	1	1.698875
19.700000	1	1.732875
19.716667	1	1.764750
19.733333	1	1.795250
19.750000	1	1.822500
19.766667	1	1.847125
19.783333	1	1.868875
19.800000	1	1.887000
19.816667	1	1.901500
19.833333	1	1.912375
19.850000	1	1.918625
19.866667	1	1.920500
19.883333	1	1.918875
19.900000	1	1.912500
19.916667	1	1.902000
19.933333	1	1.887375
19.950000	1	1.868500
19.966667	1	1.846250
19.983333	1	1.820375
20.000000	1	1.791625
20.016667	1	1.760000
20.033333	1	1.727625
20.050000	1	1.693625
20.066667	1	1.658125
20.083333	1	1.622250
20.100000	1	1.587250
20.116667	1	1.553875
20.133333	1	1.521125
20.150000	1	1.490375
20.166667	1	1.462000
20.183333	1	1.436125
20.200000	1	1.413125
20.216667	1	1.393500
20.233333	1	1.376875
20.250000	1	1.363875
20.266667	1	1.353875
20.283333	1	1.346375
20.300000	1	1.342250
20.316667	1	1.341125
20.333333	1	1.342375
20.350000	1	1.345625
20.366667	1	1.351625
20.383333	1	1.358750
20.400000	1	1.367125
20.416667	1	1.377125
20.433333	1	1.388375
20.450000	1	1.399375
20.466667	1	1.412500
20.483333	1	1.424875
20.500000	1	1.438625
20.516667	1	1.453000
20.533333	1	1.467750
20.550000	1	1.483000
20.566667	1	1.499375
20.583333	1	1.517125
20.600000	1	1.535875
20.616667	1	1.556625
20.633333	1	1.579375
20.650000	1	1.604125
20.666667	1	1.630875
20.683333	1	1.660125
20.700000	1	1.691250
20.716667	1	1.724500
20.733333	1	1.760000
20.750000	1	1.798375
20.766667	1	1.837250
20.783333	1	1.877625
20.800000	1	1.918250
20.816667	1	1.958750
20.833333	1	1.999875
20.850000	1	2.040500
20.866667	1	2.080125
20.883333	1	2.118375
20.900000	1	2.154250
20.916667	1	2.187625
20.933333	1	2.219125
20.950000	1	2.248250
20.966667	1	2.274000
20.983333	1	2.295875
21.000000	1	2.314125
21.016667	1	2.328250
21.033333	1	2.339375
21.050000	1	2.345750
21.066667	1	2.347375
21.083333	1	2.344625
21.100000	1	2.337750
21.116667	1	2.326375
21.133333	1	2.310250
21.150000	1	2.290750
21.166667	1	2.267625
21.183333	1	2.240250
21.200000	1	2.210125
21.216667	1	2.176875
21.233333	1	2.141375
21.250000	1	2.104250
21.266667	1	2.065500
21.283333	1	2.025625
21.300000	1	1.986125
21.316667	1	1.946250
21.333333	1	1.906375
21.350000	1	1.867250
21.366667	1	1.828875
21.383333	1	1.791750
21.400000	1	1.755750
21.416667	1	1.721625
21.433333	1	1.688875
21.450000	1	1.657625
21.466667	1	1.627500
21.483333	1	1.598750
21.500000	1	1.571500
21.516667	1	1.545500
21.533333	1	1.519750
21.550000	1	1.494750
21.566667	1	1.470375
21.583333	1	1.445125
21.600000	1	1.420000
21.616667	1	1.394375
21.633333	1	1.367375
21.650000	1	1.340250
21.666667	1	1.312500
21.683333	1	1.284000
21.700000	1	1.254500
21.716667	1	1.224625
21.733333	1	1.194000
21.750000	1	1.163625
21.766667	1	1.133000
21.783333	1	1.102250
21.800000	1	1.071625
21.816667	1	1.041750
21.833333	1	1.012875
21.850000	1	0.985000
21.866667	1	0.958000
21.883333	1	0.931750
21.900000	1	0.906875
21.916667	1	0.883250
21.933333	1	0.861250
21.950000	1	0.840375
21.966667	1	0.820125
21.983333	1	0.802375
22.000000	1	0.785500
22.016667	1	0.769500
22.033333	1	0.755250
22.050000	1	0.743125
22.066667	1	0.731500
22.083333	1	0.721625
22.100000	1	0.713250
22.116667	1	0.706250
22.133333	1	0.700500
22.150000	1	0.695875
22.166667	1	0.692375
22.183333	1	0.690625
22.200000	1	0.689375
22.216667	1	0.689125
22.233333	1	0.691000
22.250000	1	0.693250
22.266667	1	0.695750
22.283333	1	0.699750
22.300000	1	0.704750
22.316667	1	0.710250
22.333333	1	0.716500
22.350000	1	0.723125
22.366667	1	0.730125
22.383333	1	0.736500
22.400000	1	0.743375
22.416667	1	0.750125
22.433333	1	0.756750
22.450000	1	0.763250
22.466667	1	0.769500
22.483333	1	0.775000
22.500000	1	0.779625
22.516667	1	0.784750
22.533333	1	0.789500
22.550000	1	0.792250
22.566667	1	0.795500
22.583333	1	0.797500
22.600000	1	0.798750
22.616667	1	0.798875
22.633333	1	0.798125
22.650000	1	0.797000
22.666667	1	0.795125
22.683333	1	0.792500
22.700000	1	0.789375
22.716667	1	0.786000
22.733333	1	0.781625
22.750000	1	0.777375
22.766667	1	0.771875
22.783333	1	0.766250
22.800000	1	0.761375
22.816667	1	0.755625
22.833333	1	0.750625
22.850000	1	0.745625
22.866667	1	0.741375
22.883333	1	0.737250
22.900000	1	0.733250
22.916667	1	0.730500
22.933333	1	0.728375
22.950000	1	0.727750
22.966667	1	0.726125
22.983333	1	0.726625
23.000000	1	0.727625
23.016667	1	0.729250
23.033333	1	0.731500
23.050000	1	0.734625
23.066667	1	0.738375
23.083333	1	0.741875
23.100000	1	0.745875
23.116667	1	0.749875
23.133333	1	0.754250
23.150000	1	0.759125
23.166667	1	0.763375
23.183333	1	0.767375
23.200000	1	0.771000
23.216667	1	0.774250
23.233333	1	0.777250
23.250000	1	0.779375
23.266667	1	0.780875
23.283333	1	0.781875
23.300000	1	0.782500
23.316667	1	0.783000
23.333333	1	0.782625
23.350000	1	0.781000
23.366667	1	0.779000
23.383333	1	0.775875
23.400000	1	0.771125
23.416667	1	0.766500
23.433333	1	0.761875
23.450000	1	0.755875
23.466667	1	0.749500
23.483333	1	0.742625
23.500000	1	0.734500
23.516667	1	0.725875
23.533333	1	0.717000
23.550000	1	0.707875
23.566667	1	0.698500
23.583333	1	0.689375
23.600000	1	0.679375
23.616667	1	0.668750
23.633333	1	0.658500
23.650000	1	0.648375
23.666667	1	0.637750
23.683333	1	0.627000
23.700000	1	0.617375
23.716667	1	0.607750
23.733333	1	0.598625
23.750000	1	0.590250
23.766667	1	0.581375
23.783333	1	0.572750
23.800000	1	0.564250
23.816667	1	0.557000
23.833333	1	0.550375
23.850000	1	0.543250
23.866667	1	0.538125
23.883333	1	0.533000
23.900000	1	0.529250
23.916667	1	0.526875
23.933333	1	0.525875
23.950000	1	0.525000
23.966667	1	0.526000
23.983333	1	0.528750
24.000000	1	0.533750
24.016667	1	0.539750
24.033333	1	0.547625
24.050000	1	0.558500
24.066667	1	0.571750
24.083333	1	0.587500
24.100000	1	0.604875
24.116667	1	0.625500
24.133333	1	0.648250
24.150000	1	0.673500
24.166667	1	0.701000
24.183333	1	0.730375
24.200000	1	0.761625
24.216667	1	0.794625
24.233333	1	0.828125
24.250000	1	0.862625
24.266667	1	0.898000
24.283333	1	0.933875
24.300000	1	0.969625
24.316667	1	1.005375
24.333333	1	1.039375
24.350000	1	1.073250
24.366667	1	1.104875
24.383333	1	1.135250
24.400000	1	1.164500
24.416667	1	1.191375
24.433333	1	1.215625
24.450000	1	1.238000
24.466667	1	1.258000
24.483333	1	1.274875
24.500000	1	1.288375
24.516667	1	1.299000
24.533333	1	1.307000
24.550000	1	1.311750
24.566667	1	1.313250
24.583333	1	1.311750
24.600000	1	1.307375
24.616667	1	1.299250
24.633333	1	1.288500
24.650000	1	1.275250
24.666667	1	1.259000
24.683333	1	1.241250
24.700000	1	1.221375
24.716667	1	1.199875
24.733333	1	1.178125
24.750000	1	1.154375
24.766667	1	1.130125
24.783333	1	1.105625
24.800000	1	1.081500
24.816667	1	1.058625
24.833333	1	1.036375
24.850000	1	1.015375
24.866667	1	0.995500
24.883333	1	0.977875
24.900000	1	0.960625
24.916667	1	0.945625
24.933333	1	0.932250
24.950000	1	0.921250
24.966667	1	0.911000
24.983333	1	0.903500
25.000000	1	0.896375
25.016667	1	0.890875
25.033333	1	0.886250
25.050000	1	0.883875
25.066667	1	0.881500
25.083333	1	0.880125
25.100000	1	0.879250
25.116667	1	0.878625
25.133333	1	0.878000
25.150000	1	0.877625
25.166667	1	0.877000
25.183333	1	0.876000
25.200000	1	0.874500
25.216667	1	0.872125
25.233333	1	0.868625
25.250000	1	0.864125
25.266667	1	0.858625
25.283333	1	0.851375
25.300000	1	0.843375
25.316667	1	0.834625
25.333333	1	0.824375
25.350000	1	0.812875
25.366667	1	0.800125
25.383333	1	0.786250
25.400000	1	0.771750
25.416667	1	0.755875
25.433333	1	0.739625
25.450000	1	0.721750
25.466667	1	0.704125
25.483333	1	0.686000
25.500000	1	0.666875
25.516667	1	0.648000
25.533333	1	0.629000
25.550000	1	0.609750
25.566667	1	0.591000
25.583333	1	0.572750
25.600000	1	0.554500
25.616667	1	0.536500
25.633333	1	0.519000
25.650000	1	0.503625
25.666667	1	0.488500
25.683333	1	0.474375
25.700000	1	0.460750
25.716667	1	0.448500
25.733333	1	0.437375
25.750000	1	0.426750
25.766667	1	0.417000
25.783333	1	0.407875
25.800000	1	0.398625
25.816667	1	0.391625
25.833333	1	0.385750
25.850000	1	0.380375
25.866667	1	0.375375
25.883333	1	0.371500
25.900000	1	0.368750
25.916667	1	0.366375
25.933333	1	0.364250
25.950000	1	0.362875
25.966667	1	0.362500
25.983333	1	0.362500
26.000000	1	0.363375
26.016667	1	0.364375
26.033333	1	0.365875
26.050000	1	0.367000
26.066667	1	0.369250
26.083333	1	0.371500
26.100000	1	0.374000
26.116667	1	0.377500
26.133333	1	0.380625
26.150000	1	0.383500
26.166667	1	0.386875
26.183333	1	0.389500
26.200000	1	0.393375
26.216667	1	0.396750
26.233333	1	0.400375
26.250000	1	0.404000
26.266667	1	0.407375
26.283333	1	0.410125
26.300000	1	0.413750
26.316667	1	0.417125
26.333333	1	0.420250
26.350000	1	0.423125
26.366667	1	0.427000
26.383333	1	0.430750
26.400000	1	0.433875
26.416667	1	0.437250
26.433333	1	0.440625
26.450000	1	0.444625
26.466667	1	0.447625
26.483333	1	0.451250
26.500000	1	0.454750
26.516667	1	0.458500
26.533333	1	0.461500
26.550000	1	0.464375
26.566667	1	0.467500
26.583333	1	0.471250
26.600000	1	0.475250
26.616667	1	0.479000
26.633333	1	0.482750
26.650000	1	0.486375
26.666667	1	0.490250
26.683333	1	0.494750
26.700000	1	0.499750
26.716667	1	0.504000
26.733333	1	0.508625
26.750000	1	0.513125
26.766667	1	0.517875
26.783333	1	0.522625
26.800000	1	0.526625
26.816667	1	0.531250
26.833333	1	0.535250
26.850000	1	0.539125
26.866667	1	0.543750
26.883333	1	0.547500
26.900000	1	0.551750
26.916667	1	0.555625
26.933333	1	0.559625
26.950000	1	0.562875
26.966667	1	0.565375
26.983333	1	0.568000
27.000000	1	0.570250
27.016667	1	0.572875
27.033333	1	0.574500
27.050000	1	0.576000
27.066667	1	0.576375
27.083333	1	0.576500
27.100000	1	0.576500
27.116667	1	0.576000
27.133333	1	0.574625
27.150000	1	0.573625
27.166667	1	0.571500
27.183333	1	0.569000
27.200000	1	0.566625
27.216667	1	0.564125
27.233333	1	0.561000
27.250000	1	0.557625
27.266667	1	0.553500
27.283333	1	0.550000
27.300000	1	0.545125
27.316667	1	0.540125
27.333333	1	0.535625
27.350000	1	0.530625
27.366667	1	0.524875
27.383333	1	0.518125
27.400000	1	0.512375
27.416667	1	0.505875
27.433333	1	0.498250
27.450000	1	0.491125
27.466667	1	0.484000
27.483333	1	0.476250
27.500000	1	0.468750
27.516667	1	0.461500
27.533333	1	0.453875
27.550000	1	0.446125
27.566667	1	0.439000
27.583333	1	0.430125
27.600000	1	0.422750
27.616667	1	0.414750
27.633333	1	0.406500
27.650000	1	0.398500
27.666667	1	0.391250
27.683333	1	0.384000
27.700000	1	0.377000
27.716667	1	0.369875
27.733333	1	0.363375
27.750000	1	0.357125
27.766667	1	0.351000
27.783333	1	0.344875
27.800000	1	0.339500
27.816667	1	0.334750
27.833333	1	0.330875
27.850000	1	0.327250
27.866667	1	0.325250
27.883333	1	0.324750
27.900000	1	0.325750
27.916667	1	0.327875
27.933333	1	0.331750
27.950000	1	0.338625
27.966667	1	0.347250
27.983333	1	0.359125
28.000000	1	0.374375
28.016667	1	0.392875
28.033333	1	0.416125
28.050000	1	0.444000
28.066667	1	0.476000
28.083333	1	0.512625
28.100000	1	0.555875
28.116667	1	0.604625
28.133333	1	0.659375
28.150000	1	0.719875
28.166667	1	0.787250
28.183333	1	0.860375
28.200000	1	0.939875
28.216667	1	1.025000
28.233333	1	1.115250
28.250000	1	1.211375
28.266667	1	1.312250
28.283333	1	1.417125
28.300000	1	1.524750
28.316667	1	1.635500
28.333333	1	1.749000
28.350000	1	1.863250
28.366667	1	1.977375
28.383333	1	2.090750
28.400000	1	2.203000
28.416667	1	2.313375
28.433333	1	2.421125
28.450000	1	2.525750
28.466667	1	2.626375
28.483333	1	2.722750
28.500000	1	2.814375
28.516667	1	2.901000
28.533333	1	2.982125
28.550000	1	3.057125
28.566667	1	3.126000
28.583333	1	3.187625
28.600000	1	3.243375
28.616667	1	3.292250
28.633333	1	3.333750
28.650000	1	3.367750
28.666667	1	3.395000
28.683333	1	3.414250
28.700000	1	3.426500
28.716667	1	3.430000
28.733333	1	3.424750
28.750000	1	3.411125
28.766667	1	3.388875
28.783333	1	3.358625
28.800000	1	3.319375
28.816667	1	3.271500
28.833333	1	3.215125
28.850000	1	3.149875
28.866667	1	3.077500
28.883333	1	2.997125
28.900000	1	2.909750
28.916667	1	2.816000
28.933333	1	2.716000
28.950000	1	2.611000
28.966667	1	2.501750
28.983333	1	2.389125
29.000000	1	2.273750
29.016667	1	2.157375
29.033333	1	2.040000
29.050000	1	1.922625
29.066667	1	1.806000
29.083333	1	1.690375
29.100000	1	1.577125
29.116667	1	1.467500
29.133333	1	1.361500
29.150000	1	1.259500
29.166667	1	1.162625
29.183333	1	1.070375
29.200000	1	0.983375
29.216667	1	0.900875
29.233333	1	0.824250
29.250000	1	0.752375
29.266667	1	0.686000
29.283333	1	0.625750
29.300000	1	0.569500
29.316667	1	0.518125
29.333333	1	0.471625
29.350000	1	0.429625
29.366667	1	0.391875
29.383333	1	0.358500
29.400000	1	0.327125
29.416667	1	0.299250
29.433333	1	0.275375
29.450000	1	0.254125
29.466667	1	0.235625
29.483333	1	0.219000
29.500000	1	0.204125
29.516667	1	0.192250
29.533333	1	0.182625
29.550000	1	0.173500
29.566667	1	0.166000
29.583333	1	0.160125
29.600000	1	0.155000
29.616667	1	0.151250
29.633333	1	0.149375
29.650000	1	0.148375
29.666667	1	0.148250
29.683333	1	0.148875
29.700000	1	0.150500
29.716667	1	0.152875
29.733333	1	0.156000
29.750000	1	0.159875
29.766667	1	0.164375
29.783333	1	0.170625
29.800000	1	0.176875
29.816667	1	0.183125
29.833333	1	0.190250
29.850000	1	0.198375
29.866667	1	0.207125
29.883333	1	0.216500
29.900000	1	0.226000
29.916667	1	0.236000
29.933333	1	0.245875
29.950000	1	0.256375
29.966667	1	0.267000
29.983333	1	0.277750
30.000000	1	0.288500
30.016667	1	0.300000
30.033333	1	0.311625
30.050000	1	0.322750
30.066667	1	0.334000
30.083333	1	0.344875
30.100000	1	0.356375
30.116667	1	0.367000
30.133333	1	0.377000
30.150000	1	0.387125
30.166667	1	0.397500
30.183333	1	0.407000
30.200000	1	0.416375
30.216667	1	0.425375
30.233333	1	0.433250
30.250000	1	0.440375
30.266667	1	0.447875
30.283333	1	0.455250
30.300000	1	0.461750
30.316667	1	0.468000
30.333333	1	0.473750
30.350000	1	0.478750
30.366667	1	0.482625
30.383333	1	0.486750
30.400000	1	0.490375
30.416667	1	0.492875
30.433333	1	0.495250
30.450000	1	0.497125
30.466667	1	0.498750
30.483333	1	0.499750
30.500000	1	0.500125
30.516667	1	0.500875
30.533333	1	0.500000
30.550000	1	0.499375
30.566667	1	0.497875
30.583333	1	0.496125
30.600000	1	0.494875
30.616667	1	0.492875
30.633333	1	0.490250
30.650000	1	0.487625
30.666667	1	0.485000
30.683333	1	0.481750
30.700000	1	0.477750
30.716667	1	0.474625
30.733333	1	0.470875
30.750000	1	0.466625
30.766667	1	0.463000
30.783333	1	0.458625
30.800000	1	0.455000
30.816667	1	0.450750
30.833333	1	0.447250
30.850000	1	0.443250
30.866667	1	0.439875
30.883333	1	0.436000
30.900000	1	0.432750
30.916667	1	0.429500
30.933333	1	0.426875
30.950000	1	0.424375
30.966667	1	0.422875
30.983333	1	0.420625
31.000000	1	0.419375
31.016667	1	0.418375
31.033333	1	0.418500
31.050000	1	0.418750
31.066667	1	0.419875
31.083333	1	0.421750
31.100000	1	0.423625
31.116667	1	0.425625
31.133333	1	0.428125
31.150000	1	0.431250
31.166667	1	0.434750
31.183333	1	0.438500
31.200000	1	0.442625
31.216667	1	0.447625
31.233333	1	0.453000
31.250000	1	0.458375
31.266667	1	0.464000
31.283333	1	0.470000
31.300000	1	0.475375
31.316667	1	0.481125
31.333333	1	0.487375
31.350000	1	0.494125
31.366667	1	0.500500
31.383333	1	0.506875
31.400000	1	0.513750
31.416667	1	0.520375
31.433333	1	0.526125
31.450000	1	0.532250
31.466667	1	0.538500
31.483333	1	0.544000
31.500000	1	0.548875
31.516667	1	0.553625
31.533333	1	0.558500
31.550000	1	0.563000
31.566667	1	0.567625
31.583333	1	0.571500
31.600000	1	0.574500
31.616667	1	0.577375
31.633333	1	0.579875
31.650000	1	0.581875
31.666667	1	0.583000
31.683333	1	0.583750
31.700000	1	0.584250
31.716667	1	0.584250
31.733333	1	0.582750
31.750000	1	0.581375
31.766667	1	0.579625
31.783333	1	0.577000
31.800000	1	0.574375
31.816667	1	0.570625
31.833333	1	0.566375
31.850000	1	0.562000
31.866667	1	0.556625
31.883333	1	0.551000
31.900000	1	0.545500
31.916667	1	0.539500
31.933333	1	0.533000
31.950000	1	0.526125
31.966667	1	0.519625
31.983333	1	0.513875
32.000000	1	0.507250
32.016667	1	0.501375
32.033333	1	0.494875
32.050000	1	0.488625
32.066667	1	0.483375
32.083333	1	0.478875
32.100000	1	0.474625
32.116667	1	0.470250
32.133333	1	0.467000
32.150000	1	0.464125
32.166667	1	0.461875
32.183333	1	0.460250
32.200000	1	0.459000
32.216667	1	0.458500
32.233333	1	0.458500
32.250000	1	0.459125
32.266667	1	0.461000
32.283333	1	0.463500
32.300000	1	0.466375
32.316667	1	0.470000
32.333333	1	0.473875
32.350000	1	0.478750
32.366667	1	0.484375
32.383333	1	0.490875
32.400000	1	0.497000
32.416667	1	0.503625
32.433333	1	0.511750
32.450000	1	0.519375
32.466667	1	0.528000
32.483333	1	0.536375
32.500000	1	0.544000
32.516667	1	0.552625
32.533333	1	0.560875
32.550000	1	0.569500
32.566667	1	0.578625
32.583333	1	0.587250
32.600000	1	0.595750
32.616667	1	0.604875
32.633333	1	0.613500
32.650000	1	0.621750
32.666667	1	0.629750
32.683333	1	0.637250
32.700000	1	0.644125
32.716667	1	0.651750
32.733333	1	0.658750
32.750000	1	0.665500
32.766667	1	0.671500
32.783333	1	0.676875
32.800000	1	0.681625
32.816667	1	0.685750
32.833333	1	0.689625
32.850000	1	0.692375
32.866667	1	0.695125
32.883333	1	0.696500
32.900000	1	0.698000
32.916667	1	0.698125
32.933333	1	0.697375
32.950000	1	0.696500
32.966667	1	0.694125
32.983333	1	0.691500
33.000000	1	0.687875
33.016667	1	0.682875
33.033333	1	0.677625
33.050000	1	0.671500
33.066667	1	0.664625
33.083333	1	0.657375
33.100000	1	0.649500
33.116667	1	0.640375
33.133333	1	0.630125
33.150000	1	0.619375
33.166667	1	0.608000
33.183333	1	0.595625
33.200000	1	0.582750
33.216667	1	0.569625
33.233333	1	0.555875
33.250000	1	0.541750
33.266667	1	0.526750
33.283333	1	0.511500
33.300000	1	0.495750
33.316667	1	0.479750
33.333333	1	0.463375
33.350000	1	0.447125
33.366667	1	0.431125
33.383333	1	0.415125
33.400000	1	0.398875
33.416667	1	0.382125
33.433333	1	0.365750
33.450000	1	0.349250
33.466667	1	0.333500
33.483333	1	0.318375
33.500000	1	0.302625
33.516667	1	0.288000
33.533333	1	0.274125
33.550000	1	0.259625
33.566667	1	0.245625
33.583333	1	0.231625
33.600000	1	0.218875
33.616667	1	0.205625
33.633333	1	0.193125
33.650000	1	0.181625
33.666667	1	0.170000
33.683333	1	0.159500
33.700000	1	0.149375
33.716667	1	0.139875
33.733333	1	0.130875
33.750000	1	0.122375
33.766667	1	0.114500
33.783333	1	0.107375
33.800000	1	0.100500
33.816667	1	0.094125
33.833333	1	0.088625
33.850000	1	0.082875
33.866667	1	0.078375
33.883333	1	0.073625
33.900000	1	0.068875
33.916667	1	0.065250
33.933333	1	0.061625
33.950000	1	0.059125
33.966667	1	0.056000
33.983333	1	0.053000
34.000000	1	0.050375
34.016667	1	0.048500
34.033333	1	0.045875
34.050000	1	0.044000
34.066667	1	0.042625
34.083333	1	0.042125
34.100000	1	0.041000
34.116667	1	0.040375
34.133333	1	0.039125
34.150000	1	0.038125
34.166667	1	0.037750
34.183333	1	0.037000
34.200000	1	0.036125
34.216667	1	0.035750
34.233333	1	0.035375
34.250000	1	0.034875
34.266667	1	0.034125
34.283333	1	0.033625
34.300000	1	0.033500
34.316667	1	0.034125
34.333333	1	0.034625
34.350000	1	0.034625
34.366667	1	0.035750
34.383333	1	0.036000
34.400000	1	0.036875
34.416667	1	0.037750
34.433333	1	0.039250
34.450000	1	0.040750
34.466667	1	0.043000
34.483333	1	0.045000
34.500000	1	0.047625
34.516667	1	0.050250
34.533333	1	0.053250
34.550000	1	0.056625
34.566667	1	0.060250
34.583333	1	0.064125
34.600000	1	0.068250
34.616667	1	0.073125
34.633333	1	0.078500
34.650000	1	0.083500
34.666667	1	0.088500
34.683333	1	0.094000
34.700000	1	0.099875
34.716667	1	0.105625
34.733333	1	0.111250
34.750000	1	0.117125
34.766667	1	0.122875
34.783333	1	0.129375
34.800000	1	0.135875
34.816667	1	0.142250
34.833333	1	0.148000
34.850000	1	0.154250
34.866667	1	0.160000
34.883333	1	0.165875
34.900000	1	0.171000
34.916667	1	0.176125
34.933333	1	0.180500
34.950000	1	0.185750
34.966667	1	0.190625
34.983333	1	0.194625
35.000000	1	0.199000
35.016667	1	0.202500
35.033333	1	0.206125
35.050000	1	0.209250
35.066667	1	0.211000
35.083333	1	0.213250
35.100000	1	0.215375
35.116667	1	0.216875
35.133333	1	0.218750
35.150000	1	0.219375
35.166667	1	0.219750
35.183333	1	0.219875
35.200000	1	0.219750
35.216667	1	0.219125
35.233333	1	0.218125
35.250000	1	0.217250
35.266667	1	0.215875
35.283333	1	0.213750
35.300000	1	0.212000
35.316667	1	0.209250
35.333333	1	0.205875
35.350000	1	0.203625
35.366667	1	0.200500
35.383333	1	0.196875
35.400000	1	0.193125
35.416667	1	0.189000
35.433333	1	0.185250
35.450000	1	0.181125
35.466667	1	0.176625
35.483333	1	0.172750
35.500000	1	0.167750
35.516667	1	0.163500
35.533333	1	0.159375
35.550000	1	0.155125
35.566667	1	0.150875
35.583333	1	0.146750
35.600000	1	0.142250
35.616667	1	0.138250
35.633333	1	0.134000
35.650000	1	0.129875
35.666667	1	0.125500
35.683333	1	0.122500
35.700000	1	0.118875
35.716667	1	0.115375
35.733333	1	0.112125
35.750000	1	0.109250
35.766667	1	0.106250
35.783333	1	0.103250
35.800000	1	0.099750
35.816667	1	0.097875
35.833333	1	0.095375
35.850000	1	0.093500
35.866667	1	0.091875
35.883333	1	0.090375
35.900000	1	0.089250
35.916667	1	0.087625
35.933333	1	0.087125
35.950000	1	0.086875
35.966667	1	0.086375
35.983333	1	0.086125
36.000000	1	0.085750
36.016667	1	0.086375
36.033333	1	0.086500
36.050000	1	0.087625
36.066667	1	0.088125
36.083333	1	0.089125
36.100000	1	0.090125
36.116667	1	0.090750
36.133333	1	0.092000
36.150000	1	0.093625
36.166667	1	0.094750
36.183333	1	0.095500
36.200000	1	0.097375
36.216667	1	0.100125
36.233333	1	0.101500
36.250000	1	0.103250
36.266667	1	0.105625
36.283333	1	0.108375
36.300000	1	0.110375
36.316667	1	0.112500
36.333333	1	0.114875
36.350000	1	0.116875
36.366667	1	0.119375
36.383333	1	0.121875
36.400000	1	0.124875
36.416667	1	0.127875
36.433333	1	0.130625
36.450000	1	0.133500
36.466667	1	0.137125
36.483333	1	0.139500
36.500000	1	0.142125
36.516667	1	0.145125
36.533333	1	0.148250
36.550000	1	0.151750
36.566667	1	0.155625
36.583333	1	0.158750
36.600000	1	0.161625
36.616667	1	0.165625
36.633333	1	0.169500
36.650000	1	0.172500
36.666667	1	0.175625
36.683333	1	0.178500
36.700000	1	0.181750
36.716667	1	0.185250
36.733333	1	0.189000
36.750000	1	0.192500
36.766667	1	0.196250
36.783333	1	0.199375
36.800000	1	0.202250
36.816667	1	0.205125
36.833333	1	0.208375
36.850000	1	0.211875
36.866667	1	0.215000
36.883333	1	0.217500
36.900000	1	0.220125
36.916667	1	0.222875
36.933333	1	0.226625
36.950000	1	0.229875
36.966667	1	0.233125
36.983333	1	0.235875
37.000000	1	0.238875
37.016667	1	0.241000
37.033333	1	0.243125
37.050000	1	0.245750
37.066667	1	0.248125
37.083333	1	0.250500
37.100000	1	0.252750
37.116667	1	0.253750
37.133333	1	0.255375
37.150000	1	0.257500
37.166667	1	0.258625
37.183333	1	0.259500
37.200000	1	0.260000
37.216667	1	0.260375
37.233333	1	0.260250
37.250000	1	0.260250
37.266667	1	0.260000
37.283333	1	0.259750
37.300000	1	0.259125
37.316667	1	0.258125
37.333333	1	0.257375
37.350000	1	0.255125
37.366667	1	0.253625
37.383333	1	0.252000
37.400000	1	0.249500
37.416667	1	0.247000
37.433333	1	0.244000
37.450000	1	0.241750
37.466667	1	0.238750
37.483333	1	0.236500
37.500000	1	0.232500
37.516667	1	0.228375
37.533333	1	0.224250
37.550000	1	0.220375
37.566667	1	0.216500
37.583333	1	0.212875
37.600000	1	0.207875
37.616667	1	0.203500
37.633333	1	0.198750
37.650000	1	0.194250
37.666667	1	0.189250
37.683333	1	0.185125
37.700000	1	0.180625
37.716667	1	0.176375
37.733333	1	0.172000
37.750000	1	0.167625
37.766667	1	0.162875
37.783333	1	0.158250
37.800000	1	0.153250
37.816667	1	0.148375
37.833333	1	0.143625
37.850000	1	0.137750
37.866667	1	0.133375
37.883333	1	0.128125
37.900000	1	0.124000
37.916667	1	0.119625
37.933333	1	0.115375
37.950000	1	0.110625
37.966667	1	0.106375
37.983333	1	0.101625
38.000000	1	0.097500
38.016667	1	0.093125
38.033333	1	0.088875
38.050000	1	0.085000
38.066667	1	0.080875
38.083333	1	0.076625
38.100000	1	0.072750
38.116667	1	0.069000
38.133333	1	0.065625
38.150000	1	0.062375
38.166667	1	0.058875
38.183333	1	0.055500
38.200000	1	0.053125
38.216667	1	0.050000
38.233333	1	0.047125
38.250000	1	0.044625
38.266667	1	0.042000
38.283333	1	0.039750
38.300000	1	0.037875
38.316667	1	0.035375
38.333333	1	0.033750
38.350000	1	0.031500
38.366667	1	0.029250
38.383333	1	0.027875
38.400000	1	0.025875
38.416667	1	0.024500
38.433333	1	0.022875
38.450000	1	0.021375
38.466667	1	0.020000
38.483333	1	0.019000
38.500000	1	0.017375
38.516667	1	0.016250
38.533333	1	0.015875
38.550000	1	0.015250
38.566667	1	0.014750
38.583333	1	0.013875
38.600000	1	0.013375
38.616667	1	0.013500
38.633333	1	0.012750
38.650000	1	0.012500
38.666667	1	0.012625
38.683333	1	0.011875
38.700000	1	0.011500
38.716667	1	0.011375
38.733333	1	0.011250
38.750000	1	0.011500
38.766667	1	0.011375
38.783333	1	0.011625
38.800000	1	0.011625
38.816667	1	0.011875
38.833333	1	0.011625
38.850000	1	0.012250
38.866667	1	0.012250
38.883333	1	0.012750
38.900000	1	0.013125
38.916667	1	0.013250
38.933333	1	0.013375
38.950000	1	0.013625
38.966667	1	0.014250
38.983333	1	0.013625
39.000000	1	0.013500
39.016667	1	0.013250
39.033333	1	0.013625
39.050000	1	0.014250
39.066667	1	0.014625
39.083333	1	0.014500
39.100000	1	0.014250
39.116667	1	0.014125
39.133333	1	0.014625
39.150000	1	0.014500
39.166667	1	0.014500
39.183333	1	0.014625
39.200000	1	0.013875
39.216667	1	0.014125
39.233333	1	0.014625
39.250000	1	0.015125
39.266667	1	0.014625
39.283333	1	0.014750
39.300000	1	0.014500
39.316667	1	0.015000
39.333333	1	0.016000
39.350000	1	0.016375
39.366667	1	0.016500
39.383333	1	0.016875
39.400000	1	0.017750
39.416667	1	0.018375
39.433333	1	0.019125
39.450000	1	0.020000
39.466667	1	0.020750
39.483333	1	0.021000
39.500000	1	0.022125
39.516667	1	0.023500
39.533333	1	0.023625
39.550000	1	0.024125
39.566667	1	0.025000
39.583333	1	0.025625
39.600000	1	0.025875
39.616667	1	0.025500
39.633333	1	0.025500
39.650000	1	0.025750
39.666667	1	0.025875
39.683333	1	0.025875
39.700000	1	0.026500
39.716667	1	0.026000
39.733333	1	0.025750
39.750000	1	0.025500
39.766667	1	0.024250
39.783333	1	0.023875
39.800000	1	0.023000
39.816667	1	0.022875
39.833333	1	0.022750
39.850000	1	0.022000
39.866667	1	0.021000
39.883333	1	0.021125
39.900000	1	0.020625
39.916667	1	0.020125
39.933333	1	0.019875
39.950000	1	0.019375
39.966667	1	0.019250
39.983333	1	0.019625
40.000000	1	0.019500
