File Path	chrom://marshall/Chromeleon7/HPLC_Ultimate_3000/Users/markusar/20230610_CMO_FP11_FP12.seq/486.smp/RI_1.channel/RI_1.chm
Channel	RI_1

Injection Information:
Data Vault	Chromeleon7
Injection	FP11_1_S1
Injection Number	11
Position	BA10
Comment	
Processing Method	
Instrument Method	run_25B_method
Type	Unknown
Status	Finished
Injection Date	11.06.2023
Injection Time	01:33:32
Injection Volume (µl)	20.000
Dilution Factor	1.0000
Weight	1.0000

Chromatogram Data Information:
Time Min. (min)	0.000000
Time Max. (min)	40.000000
Data Points	2401
Detector	RI
Generating Data System	Chromeleon 7.2.5.9507
Exporting Data System	Chromeleon 7.2.5.0
Operator	Instrument Controller
Signal Quantity	Refractive 
Signal Unit	µRIU
Signal Min.	-0.968500
Signal Max.	52.791750
Channel	RI_1
Driver Name	RID520Driver.dll
Channel Type	Evaluation
Min. Step (s)	1
Max. Step (s)	1
Average Step (s)	1

Signal Parameter Information:
Signal Info	

Chromatogram Data:
Time (min)	Step (s)	Value (µRIU)
0.000000	n.a.	0.008000
0.016667	1	0.007250
0.033333	1	0.005750
0.050000	1	0.004625
0.066667	1	0.003625
0.083333	1	0.002625
0.100000	1	0.001750
0.116667	1	0.001625
0.133333	1	-0.000250
0.150000	1	-0.001250
0.166667	1	-0.001500
0.183333	1	-0.003000
0.200000	1	-0.004250
0.216667	1	-0.005000
0.233333	1	-0.006250
0.250000	1	-0.006625
0.266667	1	-0.008000
0.283333	1	-0.008250
0.300000	1	-0.009750
0.316667	1	-0.012250
0.333333	1	-0.016125
0.350000	1	-0.020500
0.366667	1	-0.024125
0.383333	1	-0.025750
0.400000	1	-0.024625
0.416667	1	-0.022375
0.433333	1	-0.020750
0.450000	1	-0.019000
0.466667	1	-0.018250
0.483333	1	-0.017000
0.500000	1	-0.016250
0.516667	1	-0.015500
0.533333	1	-0.016875
0.550000	1	-0.018750
0.566667	1	-0.022500
0.583333	1	-0.026250
0.600000	1	-0.030375
0.616667	1	-0.033625
0.633333	1	-0.036750
0.650000	1	-0.039500
0.666667	1	-0.042250
0.683333	1	-0.044125
0.700000	1	-0.046250
0.716667	1	-0.047875
0.733333	1	-0.049750
0.750000	1	-0.052375
0.766667	1	-0.054125
0.783333	1	-0.056375
0.800000	1	-0.057875
0.816667	1	-0.059000
0.833333	1	-0.061000
0.850000	1	-0.062750
0.866667	1	-0.063625
0.883333	1	-0.064500
0.900000	1	-0.065375
0.916667	1	-0.066875
0.933333	1	-0.069125
0.950000	1	-0.070250
0.966667	1	-0.071875
0.983333	1	-0.073375
1.000000	1	-0.074375
1.016667	1	-0.075250
1.033333	1	-0.076125
1.050000	1	-0.076625
1.066667	1	-0.077625
1.083333	1	-0.078500
1.100000	1	-0.078875
1.116667	1	-0.079125
1.133333	1	-0.079500
1.150000	1	-0.080250
1.166667	1	-0.080750
1.183333	1	-0.081500
1.200000	1	-0.081625
1.216667	1	-0.082250
1.233333	1	-0.082500
1.250000	1	-0.082500
1.266667	1	-0.082625
1.283333	1	-0.082875
1.300000	1	-0.082375
1.316667	1	-0.082000
1.333333	1	-0.081625
1.350000	1	-0.081250
1.366667	1	-0.080750
1.383333	1	-0.080625
1.400000	1	-0.080375
1.416667	1	-0.080375
1.433333	1	-0.079625
1.450000	1	-0.078250
1.466667	1	-0.077875
1.483333	1	-0.077625
1.500000	1	-0.077375
1.516667	1	-0.076125
1.533333	1	-0.075125
1.550000	1	-0.075250
1.566667	1	-0.074125
1.583333	1	-0.073250
1.600000	1	-0.072250
1.616667	1	-0.072000
1.633333	1	-0.071250
1.650000	1	-0.069875
1.666667	1	-0.068875
1.683333	1	-0.068250
1.700000	1	-0.066750
1.716667	1	-0.065750
1.733333	1	-0.065125
1.750000	1	-0.064500
1.766667	1	-0.063125
1.783333	1	-0.062250
1.800000	1	-0.061375
1.816667	1	-0.060500
1.833333	1	-0.058250
1.850000	1	-0.056500
1.866667	1	-0.055375
1.883333	1	-0.054875
1.900000	1	-0.054125
1.916667	1	-0.053625
1.933333	1	-0.052375
1.950000	1	-0.050375
1.966667	1	-0.049250
1.983333	1	-0.048250
2.000000	1	-0.047000
2.016667	1	-0.045750
2.033333	1	-0.044625
2.050000	1	-0.043750
2.066667	1	-0.042125
2.083333	1	-0.041250
2.100000	1	-0.040125
2.116667	1	-0.039750
2.133333	1	-0.038250
2.150000	1	-0.037125
2.166667	1	-0.036125
2.183333	1	-0.034625
2.200000	1	-0.033125
2.216667	1	-0.032000
2.233333	1	-0.030875
2.250000	1	-0.028500
2.266667	1	-0.027000
2.283333	1	-0.025875
2.300000	1	-0.024625
2.316667	1	-0.022875
2.333333	1	-0.021750
2.350000	1	-0.020000
2.366667	1	-0.018375
2.383333	1	-0.017250
2.400000	1	-0.016500
2.416667	1	-0.014625
2.433333	1	-0.012875
2.450000	1	-0.011000
2.466667	1	-0.009250
2.483333	1	-0.008250
2.500000	1	-0.006875
2.516667	1	-0.005375
2.533333	1	-0.003375
2.550000	1	-0.002500
2.566667	1	-0.001250
2.583333	1	0.000375
2.600000	1	0.002250
2.616667	1	0.003750
2.633333	1	0.005625
2.650000	1	0.007125
2.666667	1	0.008000
2.683333	1	0.009125
2.700000	1	0.010750
2.716667	1	0.012500
2.733333	1	0.013125
2.750000	1	0.013750
2.766667	1	0.014875
2.783333	1	0.016000
2.800000	1	0.016750
2.816667	1	0.018125
2.833333	1	0.019250
2.850000	1	0.019500
2.866667	1	0.020125
2.883333	1	0.021125
2.900000	1	0.021875
2.916667	1	0.022250
2.933333	1	0.023000
2.950000	1	0.023250
2.966667	1	0.023750
2.983333	1	0.023875
3.000000	1	0.024000
3.016667	1	0.024250
3.033333	1	0.024250
3.050000	1	0.023500
3.066667	1	0.023875
3.083333	1	0.024000
3.100000	1	0.024000
3.116667	1	0.024000
3.133333	1	0.023000
3.150000	1	0.022500
3.166667	1	0.022375
3.183333	1	0.021875
3.200000	1	0.021500
3.216667	1	0.020500
3.233333	1	0.020000
3.250000	1	0.019000
3.266667	1	0.017500
3.283333	1	0.016250
3.300000	1	0.015250
3.316667	1	0.014750
3.333333	1	0.013750
3.350000	1	0.012375
3.366667	1	0.011250
3.383333	1	0.009875
3.400000	1	0.009125
3.416667	1	0.007750
3.433333	1	0.007000
3.450000	1	0.005375
3.466667	1	0.003625
3.483333	1	0.002750
3.500000	1	0.001375
3.516667	1	0.000375
3.533333	1	-0.000250
3.550000	1	-0.001375
3.566667	1	-0.002875
3.583333	1	-0.003875
3.600000	1	-0.005000
3.616667	1	-0.005750
3.633333	1	-0.006750
3.650000	1	-0.007750
3.666667	1	-0.009125
3.683333	1	-0.010500
3.700000	1	-0.011125
3.716667	1	-0.011875
3.733333	1	-0.012750
3.750000	1	-0.013500
3.766667	1	-0.014125
3.783333	1	-0.015125
3.800000	1	-0.015750
3.816667	1	-0.016125
3.833333	1	-0.017000
3.850000	1	-0.017500
3.866667	1	-0.017875
3.883333	1	-0.018875
3.900000	1	-0.019625
3.916667	1	-0.020500
3.933333	1	-0.020750
3.950000	1	-0.021375
3.966667	1	-0.022125
3.983333	1	-0.022625
4.000000	1	-0.023625
4.016667	1	-0.023250
4.033333	1	-0.023250
4.050000	1	-0.023625
4.066667	1	-0.023625
4.083333	1	-0.024250
4.100000	1	-0.025125
4.116667	1	-0.025125
4.133333	1	-0.025500
4.150000	1	-0.026125
4.166667	1	-0.027000
4.183333	1	-0.027375
4.200000	1	-0.027375
4.216667	1	-0.027875
4.233333	1	-0.028125
4.250000	1	-0.028875
4.266667	1	-0.029625
4.283333	1	-0.030000
4.300000	1	-0.030250
4.316667	1	-0.030125
4.333333	1	-0.031125
4.350000	1	-0.031000
4.366667	1	-0.030875
4.383333	1	-0.030500
4.400000	1	-0.031000
4.416667	1	-0.030875
4.433333	1	-0.031125
4.450000	1	-0.032125
4.466667	1	-0.033000
4.483333	1	-0.033000
4.500000	1	-0.032500
4.516667	1	-0.033125
4.533333	1	-0.032625
4.550000	1	-0.033000
4.566667	1	-0.033125
4.583333	1	-0.033500
4.600000	1	-0.033500
4.616667	1	-0.033125
4.633333	1	-0.032875
4.650000	1	-0.032875
4.666667	1	-0.032625
4.683333	1	-0.032375
4.700000	1	-0.031625
4.716667	1	-0.031000
4.733333	1	-0.030000
4.750000	1	-0.029875
4.766667	1	-0.029875
4.783333	1	-0.028750
4.800000	1	-0.027250
4.816667	1	-0.026500
4.833333	1	-0.025375
4.850000	1	-0.024750
4.866667	1	-0.023750
4.883333	1	-0.023000
4.900000	1	-0.021125
4.916667	1	-0.019625
4.933333	1	-0.018000
4.950000	1	-0.016625
4.966667	1	-0.015250
4.983333	1	-0.013125
5.000000	1	-0.010750
5.016667	1	-0.008875
5.033333	1	-0.006875
5.050000	1	-0.005000
5.066667	1	-0.003125
5.083333	1	-0.001750
5.100000	1	0.000500
5.116667	1	0.002125
5.133333	1	0.004500
5.150000	1	0.007250
5.166667	1	0.009000
5.183333	1	0.011000
5.200000	1	0.013375
5.216667	1	0.015500
5.233333	1	0.017625
5.250000	1	0.019375
5.266667	1	0.021250
5.283333	1	0.022500
5.300000	1	0.024500
5.316667	1	0.026000
5.333333	1	0.027500
5.350000	1	0.029125
5.366667	1	0.030375
5.383333	1	0.031750
5.400000	1	0.033375
5.416667	1	0.035250
5.433333	1	0.036125
5.450000	1	0.036500
5.466667	1	0.037125
5.483333	1	0.037625
5.500000	1	0.038375
5.516667	1	0.038375
5.533333	1	0.039125
5.550000	1	0.039125
5.566667	1	0.038750
5.583333	1	0.038875
5.600000	1	0.038125
5.616667	1	0.037875
5.633333	1	0.037375
5.650000	1	0.036375
5.666667	1	0.036125
5.683333	1	0.034875
5.700000	1	0.034250
5.716667	1	0.033625
5.733333	1	0.032375
5.750000	1	0.032125
5.766667	1	0.032000
5.783333	1	0.031750
5.800000	1	0.031875
5.816667	1	0.030750
5.833333	1	0.030500
5.850000	1	0.029750
5.866667	1	0.029500
5.883333	1	0.029375
5.900000	1	0.028750
5.916667	1	0.028500
5.933333	1	0.028375
5.950000	1	0.028000
5.966667	1	0.028875
5.983333	1	0.030000
6.000000	1	0.030750
6.016667	1	0.031000
6.033333	1	0.031500
6.050000	1	0.031750
6.066667	1	0.032875
6.083333	1	0.033375
6.100000	1	0.034375
6.116667	1	0.035125
6.133333	1	0.036375
6.150000	1	0.037750
6.166667	1	0.039250
6.183333	1	0.040625
6.200000	1	0.042375
6.216667	1	0.043500
6.233333	1	0.044750
6.250000	1	0.046250
6.266667	1	0.047375
6.283333	1	0.048750
6.300000	1	0.050250
6.316667	1	0.051625
6.333333	1	0.052875
6.350000	1	0.054375
6.366667	1	0.056000
6.383333	1	0.057875
6.400000	1	0.059500
6.416667	1	0.060750
6.433333	1	0.061875
6.450000	1	0.063375
6.466667	1	0.065000
6.483333	1	0.065875
6.500000	1	0.067125
6.516667	1	0.068500
6.533333	1	0.069250
6.550000	1	0.070875
6.566667	1	0.072000
6.583333	1	0.073500
6.600000	1	0.074375
6.616667	1	0.075125
6.633333	1	0.077000
6.650000	1	0.078250
6.666667	1	0.078875
6.683333	1	0.080000
6.700000	1	0.081000
6.716667	1	0.081875
6.733333	1	0.083000
6.750000	1	0.083125
6.766667	1	0.084125
6.783333	1	0.084625
6.800000	1	0.084750
6.816667	1	0.085375
6.833333	1	0.085250
6.850000	1	0.085250
6.866667	1	0.085000
6.883333	1	0.084375
6.900000	1	0.084000
6.916667	1	0.083375
6.933333	1	0.083250
6.950000	1	0.082375
6.966667	1	0.081750
6.983333	1	0.080875
7.000000	1	0.079875
7.016667	1	0.079375
7.033333	1	0.077750
7.050000	1	0.076125
7.066667	1	0.073875
7.083333	1	0.072000
7.100000	1	0.070375
7.116667	1	0.068875
7.133333	1	0.066250
7.150000	1	0.063875
7.166667	1	0.061375
7.183333	1	0.059125
7.200000	1	0.056875
7.216667	1	0.054000
7.233333	1	0.051750
7.250000	1	0.049500
7.266667	1	0.046125
7.283333	1	0.044125
7.300000	1	0.041500
7.316667	1	0.038875
7.333333	1	0.035875
7.350000	1	0.033500
7.366667	1	0.031500
7.383333	1	0.029250
7.400000	1	0.027250
7.416667	1	0.024000
7.433333	1	0.021375
7.450000	1	0.018875
7.466667	1	0.016250
7.483333	1	0.014625
7.500000	1	0.013750
7.516667	1	0.011625
7.533333	1	0.009250
7.550000	1	0.007750
7.566667	1	0.006000
7.583333	1	0.004250
7.600000	1	0.003000
7.616667	1	0.001875
7.633333	1	0.000750
7.650000	1	-0.000375
7.666667	1	-0.000750
7.683333	1	-0.001750
7.700000	1	-0.002750
7.716667	1	-0.003250
7.733333	1	-0.003750
7.750000	1	-0.004500
7.766667	1	-0.004375
7.783333	1	-0.004750
7.800000	1	-0.005125
7.816667	1	-0.006000
7.833333	1	-0.006375
7.850000	1	-0.006125
7.866667	1	-0.006625
7.883333	1	-0.006875
7.900000	1	-0.007250
7.916667	1	-0.007375
7.933333	1	-0.006625
7.950000	1	-0.006625
7.966667	1	-0.005875
7.983333	1	-0.005250
8.000000	1	-0.004500
8.016667	1	-0.004250
8.033333	1	-0.003375
8.050000	1	-0.003125
8.066667	1	-0.002625
8.083333	1	-0.002250
8.100000	1	-0.002000
8.116667	1	-0.001375
8.133333	1	-0.000375
8.150000	1	0.001000
8.166667	1	0.002625
8.183333	1	0.004000
8.200000	1	0.004875
8.216667	1	0.006375
8.233333	1	0.007875
8.250000	1	0.008500
8.266667	1	0.009625
8.283333	1	0.011125
8.300000	1	0.013125
8.316667	1	0.014500
8.333333	1	0.015625
8.350000	1	0.016875
8.366667	1	0.018375
8.383333	1	0.020125
8.400000	1	0.021500
8.416667	1	0.023125
8.433333	1	0.023875
8.450000	1	0.025625
8.466667	1	0.027125
8.483333	1	0.028750
8.500000	1	0.029750
8.516667	1	0.030500
8.533333	1	0.032125
8.550000	1	0.033875
8.566667	1	0.035500
8.583333	1	0.036375
8.600000	1	0.037125
8.616667	1	0.038125
8.633333	1	0.039625
8.650000	1	0.039750
8.666667	1	0.040375
8.683333	1	0.041250
8.700000	1	0.042500
8.716667	1	0.043500
8.733333	1	0.043625
8.750000	1	0.044250
8.766667	1	0.044750
8.783333	1	0.045625
8.800000	1	0.046000
8.816667	1	0.046250
8.833333	1	0.046375
8.850000	1	0.046500
8.866667	1	0.047125
8.883333	1	0.046625
8.900000	1	0.046875
8.916667	1	0.047750
8.933333	1	0.047625
8.950000	1	0.047500
8.966667	1	0.047625
8.983333	1	0.048250
9.000000	1	0.048375
9.016667	1	0.048750
9.033333	1	0.048750
9.050000	1	0.048125
9.066667	1	0.048625
9.083333	1	0.048250
9.100000	1	0.047375
9.116667	1	0.048000
9.133333	1	0.048375
9.150000	1	0.048250
9.166667	1	0.047875
9.183333	1	0.047375
9.200000	1	0.047625
9.216667	1	0.047875
9.233333	1	0.047750
9.250000	1	0.047750
9.266667	1	0.047750
9.283333	1	0.047250
9.300000	1	0.047625
9.316667	1	0.047875
9.333333	1	0.047875
9.350000	1	0.048000
9.366667	1	0.048875
9.383333	1	0.049000
9.400000	1	0.049375
9.416667	1	0.049750
9.433333	1	0.049625
9.450000	1	0.050000
9.466667	1	0.050875
9.483333	1	0.052375
9.500000	1	0.053875
9.516667	1	0.056250
9.533333	1	0.058750
9.550000	1	0.062000
9.566667	1	0.065875
9.583333	1	0.070625
9.600000	1	0.076750
9.616667	1	0.083250
9.633333	1	0.090625
9.650000	1	0.099750
9.666667	1	0.110500
9.683333	1	0.122875
9.700000	1	0.138375
9.716667	1	0.155000
9.733333	1	0.174250
9.750000	1	0.196500
9.766667	1	0.222000
9.783333	1	0.252375
9.800000	1	0.287000
9.816667	1	0.325000
9.833333	1	0.366625
9.850000	1	0.407250
9.866667	1	0.444000
9.883333	1	0.472875
9.900000	1	0.492625
9.916667	1	0.506875
9.933333	1	0.528250
9.950000	1	0.578000
9.966667	1	0.682750
9.983333	1	0.876250
10.000000	1	1.189875
10.016667	1	1.654750
10.033333	1	2.296250
10.050000	1	3.132125
10.066667	1	4.177375
10.083333	1	5.439125
10.100000	1	6.919875
10.116667	1	8.614000
10.133333	1	10.506250
10.150000	1	12.575500
10.166667	1	14.793500
10.183333	1	17.124375
10.200000	1	19.531000
10.216667	1	21.975750
10.233333	1	24.421000
10.250000	1	26.826375
10.266667	1	29.154250
10.283333	1	31.356875
10.300000	1	33.374875
10.316667	1	35.129000
10.333333	1	36.518125
10.350000	1	37.422000
10.366667	1	37.721625
10.383333	1	37.321875
10.400000	1	36.185625
10.416667	1	34.349500
10.433333	1	31.935125
10.450000	1	29.128625
10.466667	1	26.135875
10.483333	1	23.150625
10.500000	1	20.320125
10.516667	1	17.734375
10.533333	1	15.432250
10.550000	1	13.414250
10.566667	1	11.661500
10.583333	1	10.144750
10.600000	1	8.835625
10.616667	1	7.711375
10.633333	1	6.749875
10.650000	1	5.934000
10.666667	1	5.246000
10.683333	1	4.670625
10.700000	1	4.191250
10.716667	1	3.791500
10.733333	1	3.458625
10.750000	1	3.180250
10.766667	1	2.945250
10.783333	1	2.745625
10.800000	1	2.573875
10.816667	1	2.424125
10.833333	1	2.292500
10.850000	1	2.175500
10.866667	1	2.070250
10.883333	1	1.975750
10.900000	1	1.890750
10.916667	1	1.813375
10.933333	1	1.742250
10.950000	1	1.676500
10.966667	1	1.615750
10.983333	1	1.559625
11.000000	1	1.507625
11.016667	1	1.458750
11.033333	1	1.413375
11.050000	1	1.370250
11.066667	1	1.330875
11.083333	1	1.293250
11.100000	1	1.258250
11.116667	1	1.226000
11.133333	1	1.195625
11.150000	1	1.166875
11.166667	1	1.139625
11.183333	1	1.114250
11.200000	1	1.090125
11.216667	1	1.067250
11.233333	1	1.045750
11.250000	1	1.026375
11.266667	1	1.008125
11.283333	1	0.991000
11.300000	1	0.974750
11.316667	1	0.960500
11.333333	1	0.946625
11.350000	1	0.934125
11.366667	1	0.922000
11.383333	1	0.911375
11.400000	1	0.901875
11.416667	1	0.893250
11.433333	1	0.885000
11.450000	1	0.878875
11.466667	1	0.873250
11.483333	1	0.868375
11.500000	1	0.863875
11.516667	1	0.860125
11.533333	1	0.857500
11.550000	1	0.855125
11.566667	1	0.854000
11.583333	1	0.852375
11.600000	1	0.852000
11.616667	1	0.851625
11.633333	1	0.851750
11.650000	1	0.852250
11.666667	1	0.852875
11.683333	1	0.853875
11.700000	1	0.854875
11.716667	1	0.856125
11.733333	1	0.856750
11.750000	1	0.857375
11.766667	1	0.857625
11.783333	1	0.858500
11.800000	1	0.859000
11.816667	1	0.859625
11.833333	1	0.860000
11.850000	1	0.860500
11.866667	1	0.861250
11.883333	1	0.861875
11.900000	1	0.863625
11.916667	1	0.864750
11.933333	1	0.866750
11.950000	1	0.869000
11.966667	1	0.872125
11.983333	1	0.876125
12.000000	1	0.880750
12.016667	1	0.887750
12.033333	1	0.896875
12.050000	1	0.908500
12.066667	1	0.923375
12.083333	1	0.942875
12.100000	1	0.968500
12.116667	1	1.001625
12.133333	1	1.043625
12.150000	1	1.097000
12.166667	1	1.163000
12.183333	1	1.243250
12.200000	1	1.340875
12.216667	1	1.456875
12.233333	1	1.593000
12.250000	1	1.749750
12.266667	1	1.931000
12.283333	1	2.137000
12.300000	1	2.370750
12.316667	1	2.632500
12.333333	1	2.925125
12.350000	1	3.249125
12.366667	1	3.605625
12.383333	1	3.995625
12.400000	1	4.418375
12.416667	1	4.873125
12.433333	1	5.356875
12.450000	1	5.868625
12.466667	1	6.404125
12.483333	1	6.959500
12.500000	1	7.529875
12.516667	1	8.106625
12.533333	1	8.680500
12.550000	1	9.240250
12.566667	1	9.774875
12.583333	1	10.274625
12.600000	1	10.732125
12.616667	1	11.140250
12.633333	1	11.497625
12.650000	1	11.802250
12.666667	1	12.053125
12.683333	1	12.250250
12.700000	1	12.394125
12.716667	1	12.484750
12.733333	1	12.522375
12.750000	1	12.507500
12.766667	1	12.438250
12.783333	1	12.315750
12.800000	1	12.137750
12.816667	1	11.908000
12.833333	1	11.630750
12.850000	1	11.315500
12.866667	1	10.970375
12.883333	1	10.603125
12.900000	1	10.216375
12.916667	1	9.808750
12.933333	1	9.379125
12.950000	1	8.924875
12.966667	1	8.447500
12.983333	1	7.949250
13.000000	1	7.434500
13.016667	1	6.908375
13.033333	1	6.371625
13.050000	1	5.823500
13.066667	1	5.261875
13.083333	1	4.689250
13.100000	1	4.116250
13.116667	1	3.565250
13.133333	1	3.064125
13.150000	1	2.634000
13.166667	1	2.284375
13.183333	1	2.008625
13.200000	1	1.795000
13.216667	1	1.628875
13.233333	1	1.498250
13.250000	1	1.393375
13.266667	1	1.308000
13.283333	1	1.236625
13.300000	1	1.176000
13.316667	1	1.123500
13.333333	1	1.077375
13.350000	1	1.036125
13.366667	1	0.998500
13.383333	1	0.963750
13.400000	1	0.932250
13.416667	1	0.902750
13.433333	1	0.876000
13.450000	1	0.851375
13.466667	1	0.829000
13.483333	1	0.808125
13.500000	1	0.788375
13.516667	1	0.770750
13.533333	1	0.754500
13.550000	1	0.740625
13.566667	1	0.727875
13.583333	1	0.716750
13.600000	1	0.707125
13.616667	1	0.698500
13.633333	1	0.691875
13.650000	1	0.687000
13.666667	1	0.682250
13.683333	1	0.678750
13.700000	1	0.676125
13.716667	1	0.674875
13.733333	1	0.674000
13.750000	1	0.673625
13.766667	1	0.674125
13.783333	1	0.674250
13.800000	1	0.673625
13.816667	1	0.672625
13.833333	1	0.669875
13.850000	1	0.665625
13.866667	1	0.659625
13.883333	1	0.652500
13.900000	1	0.643125
13.916667	1	0.632375
13.933333	1	0.620625
13.950000	1	0.607375
13.966667	1	0.593750
13.983333	1	0.579625
14.000000	1	0.565500
14.016667	1	0.552000
14.033333	1	0.539375
14.050000	1	0.527250
14.066667	1	0.515125
14.083333	1	0.504500
14.100000	1	0.494625
14.116667	1	0.486000
14.133333	1	0.478625
14.150000	1	0.471750
14.166667	1	0.466000
14.183333	1	0.461875
14.200000	1	0.458625
14.216667	1	0.457250
14.233333	1	0.457000
14.250000	1	0.458125
14.266667	1	0.461125
14.283333	1	0.465875
14.300000	1	0.472500
14.316667	1	0.480875
14.333333	1	0.492375
14.350000	1	0.507500
14.366667	1	0.526125
14.383333	1	0.547875
14.400000	1	0.573125
14.416667	1	0.604625
14.433333	1	0.642625
14.450000	1	0.687750
14.466667	1	0.741625
14.483333	1	0.806875
14.500000	1	0.885375
14.516667	1	0.980750
14.533333	1	1.096500
14.550000	1	1.238250
14.566667	1	1.413875
14.583333	1	1.631625
14.600000	1	1.902875
14.616667	1	2.242125
14.633333	1	2.666875
14.650000	1	3.195375
14.666667	1	3.848500
14.683333	1	4.646250
14.700000	1	5.611000
14.716667	1	6.762250
14.733333	1	8.114625
14.750000	1	9.679000
14.766667	1	11.461375
14.783333	1	13.460000
14.800000	1	15.667250
14.816667	1	18.071250
14.833333	1	20.654125
14.850000	1	23.390875
14.866667	1	26.251000
14.883333	1	29.197750
14.900000	1	32.188500
14.916667	1	35.177250
14.933333	1	38.114250
14.950000	1	40.944125
14.966667	1	43.607625
14.983333	1	46.045000
15.000000	1	48.195500
15.016667	1	49.998750
15.033333	1	51.397250
15.050000	1	52.341000
15.066667	1	52.791750
15.083333	1	52.726250
15.100000	1	52.139500
15.116667	1	51.049125
15.133333	1	49.489250
15.150000	1	47.510875
15.166667	1	45.179250
15.183333	1	42.570375
15.200000	1	39.760375
15.216667	1	36.826625
15.233333	1	33.840625
15.250000	1	30.868250
15.266667	1	27.969000
15.283333	1	25.189250
15.300000	1	22.566625
15.316667	1	20.127125
15.333333	1	17.885125
15.350000	1	15.847000
15.366667	1	14.012375
15.383333	1	12.376250
15.400000	1	10.925000
15.416667	1	9.644375
15.433333	1	8.521375
15.450000	1	7.539750
15.466667	1	6.686250
15.483333	1	5.945875
15.500000	1	5.305625
15.516667	1	4.754125
15.533333	1	4.279250
15.550000	1	3.870750
15.566667	1	3.519625
15.583333	1	3.218750
15.600000	1	2.960625
15.616667	1	2.738625
15.633333	1	2.547875
15.650000	1	2.384125
15.666667	1	2.243500
15.683333	1	2.122250
15.700000	1	2.017000
15.716667	1	1.925750
15.733333	1	1.845875
15.750000	1	1.774250
15.766667	1	1.711250
15.783333	1	1.653500
15.800000	1	1.599500
15.816667	1	1.548750
15.833333	1	1.500125
15.850000	1	1.451875
15.866667	1	1.404625
15.883333	1	1.358625
15.900000	1	1.314000
15.916667	1	1.270250
15.933333	1	1.228125
15.950000	1	1.187625
15.966667	1	1.148625
15.983333	1	1.111375
16.000000	1	1.075500
16.016667	1	1.042125
16.033333	1	1.010750
16.050000	1	0.982000
16.066667	1	0.955000
16.083333	1	0.930375
16.100000	1	0.907625
16.116667	1	0.886625
16.133333	1	0.867625
16.150000	1	0.850875
16.166667	1	0.835250
16.183333	1	0.822000
16.200000	1	0.809375
16.216667	1	0.799000
16.233333	1	0.789750
16.250000	1	0.781375
16.266667	1	0.773875
16.283333	1	0.767875
16.300000	1	0.762250
16.316667	1	0.757250
16.333333	1	0.753500
16.350000	1	0.750250
16.366667	1	0.747125
16.383333	1	0.743625
16.400000	1	0.741500
16.416667	1	0.738625
16.433333	1	0.735750
16.450000	1	0.732625
16.466667	1	0.729375
16.483333	1	0.725500
16.500000	1	0.722375
16.516667	1	0.719500
16.533333	1	0.716875
16.550000	1	0.714875
16.566667	1	0.712750
16.583333	1	0.711000
16.600000	1	0.710375
16.616667	1	0.709750
16.633333	1	0.710125
16.650000	1	0.711500
16.666667	1	0.713250
16.683333	1	0.715375
16.700000	1	0.718125
16.716667	1	0.721375
16.733333	1	0.724625
16.750000	1	0.728500
16.766667	1	0.732750
16.783333	1	0.737375
16.800000	1	0.742000
16.816667	1	0.747125
16.833333	1	0.751875
16.850000	1	0.755875
16.866667	1	0.759625
16.883333	1	0.764250
16.900000	1	0.768750
16.916667	1	0.772250
16.933333	1	0.775375
16.950000	1	0.778125
16.966667	1	0.780500
16.983333	1	0.782375
17.000000	1	0.783750
17.016667	1	0.784625
17.033333	1	0.785500
17.050000	1	0.785375
17.066667	1	0.785500
17.083333	1	0.784250
17.100000	1	0.783625
17.116667	1	0.782625
17.133333	1	0.782250
17.150000	1	0.781625
17.166667	1	0.780875
17.183333	1	0.779500
17.200000	1	0.778375
17.216667	1	0.777375
17.233333	1	0.775250
17.250000	1	0.773250
17.266667	1	0.770000
17.283333	1	0.766125
17.300000	1	0.762250
17.316667	1	0.757500
17.333333	1	0.751250
17.350000	1	0.744750
17.366667	1	0.737750
17.383333	1	0.731500
17.400000	1	0.724375
17.416667	1	0.716375
17.433333	1	0.708375
17.450000	1	0.700750
17.466667	1	0.693625
17.483333	1	0.686500
17.500000	1	0.681000
17.516667	1	0.675750
17.533333	1	0.671500
17.550000	1	0.667875
17.566667	1	0.665750
17.583333	1	0.665375
17.600000	1	0.665625
17.616667	1	0.667375
17.633333	1	0.670000
17.650000	1	0.674250
17.666667	1	0.679500
17.683333	1	0.686125
17.700000	1	0.693875
17.716667	1	0.703500
17.733333	1	0.712750
17.750000	1	0.723625
17.766667	1	0.735750
17.783333	1	0.747750
17.800000	1	0.760250
17.816667	1	0.772500
17.833333	1	0.785125
17.850000	1	0.797125
17.866667	1	0.808750
17.883333	1	0.820000
17.900000	1	0.830125
17.916667	1	0.838875
17.933333	1	0.847750
17.950000	1	0.854375
17.966667	1	0.860750
17.983333	1	0.864875
18.000000	1	0.868250
18.016667	1	0.869375
18.033333	1	0.869250
18.050000	1	0.866750
18.066667	1	0.863125
18.083333	1	0.858500
18.100000	1	0.852375
18.116667	1	0.844125
18.133333	1	0.834375
18.150000	1	0.824125
18.166667	1	0.813125
18.183333	1	0.801375
18.200000	1	0.789250
18.216667	1	0.777125
18.233333	1	0.764500
18.250000	1	0.752000
18.266667	1	0.740000
18.283333	1	0.727875
18.300000	1	0.716375
18.316667	1	0.705125
18.333333	1	0.694875
18.350000	1	0.685125
18.366667	1	0.676250
18.383333	1	0.668250
18.400000	1	0.660375
18.416667	1	0.654000
18.433333	1	0.648250
18.450000	1	0.643750
18.466667	1	0.639375
18.483333	1	0.636000
18.500000	1	0.633500
18.516667	1	0.631375
18.533333	1	0.629375
18.550000	1	0.628125
18.566667	1	0.627500
18.583333	1	0.627875
18.600000	1	0.628500
18.616667	1	0.629625
18.633333	1	0.630875
18.650000	1	0.632125
18.666667	1	0.633750
18.683333	1	0.635750
18.700000	1	0.637625
18.716667	1	0.640375
18.733333	1	0.643375
18.750000	1	0.646625
18.766667	1	0.650625
18.783333	1	0.654875
18.800000	1	0.659375
18.816667	1	0.665125
18.833333	1	0.671375
18.850000	1	0.677250
18.866667	1	0.683750
18.883333	1	0.691875
18.900000	1	0.701375
18.916667	1	0.711250
18.933333	1	0.723000
18.950000	1	0.735750
18.966667	1	0.749875
18.983333	1	0.765625
19.000000	1	0.783250
19.016667	1	0.802000
19.033333	1	0.822375
19.050000	1	0.844000
19.066667	1	0.867500
19.083333	1	0.893500
19.100000	1	0.920750
19.116667	1	0.948875
19.133333	1	0.979000
19.150000	1	1.008875
19.166667	1	1.039875
19.183333	1	1.071375
19.200000	1	1.104000
19.216667	1	1.135250
19.233333	1	1.165625
19.250000	1	1.194375
19.266667	1	1.221500
19.283333	1	1.245875
19.300000	1	1.268500
19.316667	1	1.286750
19.333333	1	1.301625
19.350000	1	1.312500
19.366667	1	1.318750
19.383333	1	1.320125
19.400000	1	1.316500
19.416667	1	1.308625
19.433333	1	1.295250
19.450000	1	1.278000
19.466667	1	1.256250
19.483333	1	1.230875
19.500000	1	1.201500
19.516667	1	1.169250
19.533333	1	1.134125
19.550000	1	1.097250
19.566667	1	1.059375
19.583333	1	1.020125
19.600000	1	0.980875
19.616667	1	0.942000
19.633333	1	0.903375
19.650000	1	0.865625
19.666667	1	0.830125
19.683333	1	0.796500
19.700000	1	0.765750
19.716667	1	0.737750
19.733333	1	0.712250
19.750000	1	0.690250
19.766667	1	0.670875
19.783333	1	0.653250
19.800000	1	0.639500
19.816667	1	0.628875
19.833333	1	0.620875
19.850000	1	0.616625
19.866667	1	0.614250
19.883333	1	0.614500
19.900000	1	0.618125
19.916667	1	0.623625
19.933333	1	0.631625
19.950000	1	0.641500
19.966667	1	0.653750
19.983333	1	0.667125
20.000000	1	0.681000
20.016667	1	0.696125
20.033333	1	0.712625
20.050000	1	0.728625
20.066667	1	0.745125
20.083333	1	0.761000
20.100000	1	0.777375
20.116667	1	0.793250
20.133333	1	0.808000
20.150000	1	0.822000
20.166667	1	0.835375
20.183333	1	0.848250
20.200000	1	0.861000
20.216667	1	0.872875
20.233333	1	0.884625
20.250000	1	0.896250
20.266667	1	0.907375
20.283333	1	0.919000
20.300000	1	0.930875
20.316667	1	0.943500
20.333333	1	0.955750
20.350000	1	0.968875
20.366667	1	0.983375
20.383333	1	0.998875
20.400000	1	1.014750
20.416667	1	1.031000
20.433333	1	1.048000
20.450000	1	1.066125
20.466667	1	1.084375
20.483333	1	1.103250
20.500000	1	1.121125
20.516667	1	1.138750
20.533333	1	1.156375
20.550000	1	1.172750
20.566667	1	1.188125
20.583333	1	1.202375
20.600000	1	1.215625
20.616667	1	1.226875
20.633333	1	1.236625
20.650000	1	1.245000
20.666667	1	1.252125
20.683333	1	1.257625
20.700000	1	1.262375
20.716667	1	1.266750
20.733333	1	1.271000
20.750000	1	1.275125
20.766667	1	1.279000
20.783333	1	1.284000
20.800000	1	1.290625
20.816667	1	1.298875
20.833333	1	1.308000
20.850000	1	1.320375
20.866667	1	1.334500
20.883333	1	1.350125
20.900000	1	1.367250
20.916667	1	1.385875
20.933333	1	1.404750
20.950000	1	1.424500
20.966667	1	1.443750
20.983333	1	1.461250
21.000000	1	1.476500
21.016667	1	1.488875
21.033333	1	1.497875
21.050000	1	1.502500
21.066667	1	1.501375
21.083333	1	1.495250
21.100000	1	1.483625
21.116667	1	1.465250
21.133333	1	1.440750
21.150000	1	1.410750
21.166667	1	1.375125
21.183333	1	1.334625
21.200000	1	1.290000
21.216667	1	1.241875
21.233333	1	1.190500
21.250000	1	1.137250
21.266667	1	1.083625
21.283333	1	1.030250
21.300000	1	0.977125
21.316667	1	0.925000
21.333333	1	0.874750
21.350000	1	0.826875
21.366667	1	0.781375
21.383333	1	0.738375
21.400000	1	0.698000
21.416667	1	0.660875
21.433333	1	0.626250
21.450000	1	0.595125
21.466667	1	0.566875
21.483333	1	0.541000
21.500000	1	0.517875
21.516667	1	0.497750
21.533333	1	0.479000
21.550000	1	0.462250
21.566667	1	0.447625
21.583333	1	0.434125
21.600000	1	0.422125
21.616667	1	0.411875
21.633333	1	0.402750
21.650000	1	0.394750
21.666667	1	0.386875
21.683333	1	0.380250
21.700000	1	0.374625
21.716667	1	0.369375
21.733333	1	0.364750
21.750000	1	0.360375
21.766667	1	0.356125
21.783333	1	0.352625
21.800000	1	0.349250
21.816667	1	0.345875
21.833333	1	0.343500
21.850000	1	0.340875
21.866667	1	0.338625
21.883333	1	0.336875
21.900000	1	0.335750
21.916667	1	0.334000
21.933333	1	0.332750
21.950000	1	0.331625
21.966667	1	0.331250
21.983333	1	0.331625
22.000000	1	0.332125
22.016667	1	0.331875
22.033333	1	0.332375
22.050000	1	0.332625
22.066667	1	0.332750
22.083333	1	0.332875
22.100000	1	0.332500
22.116667	1	0.332875
22.133333	1	0.332875
22.150000	1	0.332750
22.166667	1	0.333125
22.183333	1	0.333500
22.200000	1	0.333250
22.216667	1	0.332500
22.233333	1	0.331875
22.250000	1	0.331375
22.266667	1	0.331000
22.283333	1	0.330125
22.300000	1	0.329375
22.316667	1	0.328875
22.333333	1	0.328250
22.350000	1	0.328125
22.366667	1	0.328000
22.383333	1	0.328125
22.400000	1	0.329125
22.416667	1	0.330625
22.433333	1	0.332000
22.450000	1	0.334000
22.466667	1	0.336375
22.483333	1	0.339250
22.500000	1	0.342750
22.516667	1	0.346125
22.533333	1	0.350250
22.550000	1	0.354375
22.566667	1	0.359125
22.583333	1	0.363875
22.600000	1	0.369000
22.616667	1	0.374375
22.633333	1	0.379750
22.650000	1	0.385375
22.666667	1	0.390500
22.683333	1	0.395375
22.700000	1	0.400500
22.716667	1	0.404500
22.733333	1	0.408375
22.750000	1	0.412500
22.766667	1	0.415750
22.783333	1	0.419500
22.800000	1	0.422250
22.816667	1	0.424375
22.833333	1	0.425750
22.850000	1	0.426625
22.866667	1	0.427000
22.883333	1	0.426750
22.900000	1	0.426250
22.916667	1	0.425500
22.933333	1	0.424375
22.950000	1	0.422625
22.966667	1	0.420250
22.983333	1	0.417125
23.000000	1	0.414125
23.016667	1	0.410500
23.033333	1	0.407125
23.050000	1	0.403500
23.066667	1	0.400625
23.083333	1	0.396875
23.100000	1	0.393125
23.116667	1	0.389125
23.133333	1	0.385875
23.150000	1	0.382500
23.166667	1	0.379875
23.183333	1	0.378000
23.200000	1	0.376125
23.216667	1	0.374625
23.233333	1	0.374000
23.250000	1	0.374500
23.266667	1	0.376625
23.283333	1	0.379250
23.300000	1	0.383125
23.316667	1	0.387750
23.333333	1	0.393500
23.350000	1	0.400750
23.366667	1	0.409000
23.383333	1	0.418750
23.400000	1	0.431125
23.416667	1	0.445375
23.433333	1	0.463250
23.450000	1	0.483125
23.466667	1	0.506125
23.483333	1	0.533250
23.500000	1	0.564000
23.516667	1	0.599375
23.533333	1	0.640125
23.550000	1	0.685500
23.566667	1	0.736750
23.583333	1	0.794250
23.600000	1	0.858875
23.616667	1	0.930250
23.633333	1	1.008875
23.650000	1	1.094750
23.666667	1	1.188125
23.683333	1	1.289375
23.700000	1	1.397875
23.716667	1	1.515000
23.733333	1	1.638875
23.750000	1	1.769875
23.766667	1	1.907625
23.783333	1	2.050500
23.800000	1	2.197750
23.816667	1	2.349750
23.833333	1	2.504750
23.850000	1	2.660000
23.866667	1	2.815875
23.883333	1	2.970125
23.900000	1	3.120125
23.916667	1	3.266000
23.933333	1	3.404125
23.950000	1	3.532750
23.966667	1	3.649625
23.983333	1	3.752250
24.000000	1	3.839750
24.016667	1	3.910125
24.033333	1	3.961875
24.050000	1	3.994125
24.066667	1	4.006250
24.083333	1	3.998375
24.100000	1	3.969875
24.116667	1	3.921750
24.133333	1	3.855125
24.150000	1	3.770750
24.166667	1	3.670625
24.183333	1	3.555875
24.200000	1	3.429750
24.216667	1	3.293500
24.233333	1	3.150250
24.250000	1	3.001750
24.266667	1	2.850625
24.283333	1	2.698125
24.300000	1	2.546625
24.316667	1	2.396875
24.333333	1	2.250875
24.350000	1	2.110375
24.366667	1	1.975375
24.383333	1	1.848500
24.400000	1	1.728750
24.416667	1	1.617500
24.433333	1	1.513750
24.450000	1	1.418250
24.466667	1	1.331000
24.483333	1	1.251500
24.500000	1	1.178625
24.516667	1	1.113000
24.533333	1	1.053250
24.550000	1	0.999250
24.566667	1	0.950875
24.583333	1	0.906750
24.600000	1	0.866500
24.616667	1	0.829375
24.633333	1	0.795750
24.650000	1	0.765500
24.666667	1	0.737125
24.683333	1	0.710750
24.700000	1	0.685750
24.716667	1	0.662750
24.733333	1	0.640125
24.750000	1	0.618625
24.766667	1	0.597750
24.783333	1	0.577500
24.800000	1	0.558250
24.816667	1	0.539250
24.833333	1	0.520750
24.850000	1	0.502500
24.866667	1	0.484750
24.883333	1	0.467750
24.900000	1	0.451250
24.916667	1	0.435250
24.933333	1	0.419750
24.950000	1	0.405375
24.966667	1	0.391125
24.983333	1	0.378250
25.000000	1	0.364500
25.016667	1	0.352875
25.033333	1	0.341750
25.050000	1	0.331625
25.066667	1	0.322000
25.083333	1	0.312875
25.100000	1	0.304875
25.116667	1	0.297250
25.133333	1	0.291500
25.150000	1	0.286000
25.166667	1	0.280875
25.183333	1	0.276375
25.200000	1	0.273125
25.216667	1	0.270500
25.233333	1	0.268250
25.250000	1	0.266875
25.266667	1	0.265375
25.283333	1	0.263750
25.300000	1	0.262875
25.316667	1	0.263125
25.333333	1	0.263250
25.350000	1	0.263375
25.366667	1	0.264625
25.383333	1	0.266250
25.400000	1	0.267750
25.416667	1	0.269375
25.433333	1	0.271125
25.450000	1	0.272875
25.466667	1	0.275000
25.483333	1	0.276625
25.500000	1	0.278625
25.516667	1	0.280750
25.533333	1	0.282250
25.550000	1	0.283750
25.566667	1	0.284625
25.583333	1	0.286250
25.600000	1	0.287750
25.616667	1	0.289375
25.633333	1	0.290625
25.650000	1	0.291875
25.666667	1	0.292875
25.683333	1	0.293625
25.700000	1	0.294250
25.716667	1	0.295000
25.733333	1	0.294750
25.750000	1	0.294750
25.766667	1	0.294625
25.783333	1	0.294625
25.800000	1	0.293750
25.816667	1	0.294375
25.833333	1	0.294375
25.850000	1	0.294250
25.866667	1	0.293625
25.883333	1	0.293250
25.900000	1	0.292625
25.916667	1	0.292625
25.933333	1	0.291375
25.950000	1	0.291125
25.966667	1	0.291000
25.983333	1	0.290250
26.000000	1	0.289000
26.016667	1	0.288750
26.033333	1	0.288500
26.050000	1	0.287750
26.066667	1	0.287500
26.083333	1	0.287375
26.100000	1	0.287375
26.116667	1	0.287375
26.133333	1	0.286875
26.150000	1	0.286875
26.166667	1	0.287000
26.183333	1	0.286625
26.200000	1	0.287625
26.216667	1	0.287750
26.233333	1	0.288375
26.250000	1	0.289000
26.266667	1	0.289625
26.283333	1	0.290625
26.300000	1	0.291375
26.316667	1	0.292125
26.333333	1	0.292750
26.350000	1	0.293250
26.366667	1	0.293250
26.383333	1	0.293500
26.400000	1	0.293875
26.416667	1	0.293875
26.433333	1	0.292750
26.450000	1	0.292500
26.466667	1	0.291875
26.483333	1	0.291125
26.500000	1	0.289625
26.516667	1	0.287875
26.533333	1	0.285875
26.550000	1	0.282875
26.566667	1	0.280000
26.583333	1	0.276250
26.600000	1	0.273125
26.616667	1	0.268875
26.633333	1	0.264250
26.650000	1	0.259000
26.666667	1	0.254375
26.683333	1	0.249500
26.700000	1	0.243750
26.716667	1	0.237875
26.733333	1	0.231875
26.750000	1	0.226125
26.766667	1	0.220375
26.783333	1	0.214500
26.800000	1	0.208000
26.816667	1	0.202250
26.833333	1	0.196125
26.850000	1	0.190625
26.866667	1	0.184875
26.883333	1	0.179750
26.900000	1	0.175125
26.916667	1	0.170750
26.933333	1	0.166125
26.950000	1	0.162125
26.966667	1	0.158625
26.983333	1	0.156500
27.000000	1	0.154000
27.016667	1	0.151750
27.033333	1	0.150000
27.050000	1	0.148625
27.066667	1	0.148250
27.083333	1	0.147875
27.100000	1	0.148375
27.116667	1	0.149125
27.133333	1	0.150250
27.150000	1	0.151875
27.166667	1	0.154500
27.183333	1	0.158000
27.200000	1	0.161625
27.216667	1	0.166250
27.233333	1	0.171375
27.250000	1	0.177125
27.266667	1	0.183875
27.283333	1	0.191375
27.300000	1	0.199625
27.316667	1	0.209125
27.333333	1	0.219250
27.350000	1	0.231375
27.366667	1	0.244500
27.383333	1	0.259375
27.400000	1	0.275750
27.416667	1	0.294625
27.433333	1	0.316125
27.450000	1	0.339375
27.466667	1	0.364875
27.483333	1	0.393250
27.500000	1	0.424875
27.516667	1	0.458875
27.533333	1	0.497250
27.550000	1	0.539625
27.566667	1	0.586375
27.583333	1	0.636875
27.600000	1	0.692500
27.616667	1	0.752625
27.633333	1	0.818250
27.650000	1	0.888000
27.666667	1	0.963625
27.683333	1	1.045000
27.700000	1	1.131250
27.716667	1	1.221875
27.733333	1	1.317250
27.750000	1	1.418250
27.766667	1	1.524125
27.783333	1	1.633500
27.800000	1	1.746500
27.816667	1	1.862625
27.833333	1	1.981625
27.850000	1	2.102250
27.866667	1	2.225500
27.883333	1	2.349250
27.900000	1	2.471250
27.916667	1	2.592875
27.933333	1	2.711750
27.950000	1	2.828000
27.966667	1	2.939000
27.983333	1	3.044625
28.000000	1	3.142625
28.016667	1	3.233375
28.033333	1	3.315000
28.050000	1	3.386875
28.066667	1	3.447875
28.083333	1	3.496125
28.100000	1	3.531500
28.116667	1	3.553875
28.133333	1	3.562000
28.150000	1	3.555250
28.166667	1	3.534375
28.183333	1	3.498375
28.200000	1	3.448625
28.216667	1	3.384750
28.233333	1	3.307250
28.250000	1	3.217375
28.266667	1	3.116875
28.283333	1	3.005875
28.300000	1	2.885375
28.316667	1	2.757625
28.333333	1	2.623500
28.350000	1	2.484500
28.366667	1	2.342250
28.383333	1	2.198375
28.400000	1	2.053250
28.416667	1	1.908375
28.433333	1	1.765000
28.450000	1	1.624250
28.466667	1	1.485875
28.483333	1	1.350625
28.500000	1	1.220125
28.516667	1	1.093875
28.533333	1	0.972250
28.550000	1	0.855375
28.566667	1	0.743250
28.583333	1	0.636000
28.600000	1	0.532125
28.616667	1	0.433125
28.633333	1	0.338375
28.650000	1	0.247375
28.666667	1	0.160000
28.683333	1	0.075750
28.700000	1	-0.005375
28.716667	1	-0.084250
28.733333	1	-0.158750
28.750000	1	-0.230250
28.766667	1	-0.299500
28.783333	1	-0.366500
28.800000	1	-0.429375
28.816667	1	-0.489875
28.833333	1	-0.547625
28.850000	1	-0.602250
28.866667	1	-0.654750
28.883333	1	-0.703000
28.900000	1	-0.748000
28.916667	1	-0.789375
28.933333	1	-0.826875
28.950000	1	-0.859500
28.966667	1	-0.888500
28.983333	1	-0.912750
29.000000	1	-0.932375
29.016667	1	-0.948625
29.033333	1	-0.959500
29.050000	1	-0.966875
29.066667	1	-0.968500
29.083333	1	-0.966125
29.100000	1	-0.958875
29.116667	1	-0.947000
29.133333	1	-0.930875
29.150000	1	-0.911125
29.166667	1	-0.887125
29.183333	1	-0.859250
29.200000	1	-0.828750
29.216667	1	-0.795000
29.233333	1	-0.757875
29.250000	1	-0.719000
29.266667	1	-0.678500
29.283333	1	-0.635125
29.300000	1	-0.591125
29.316667	1	-0.546000
29.333333	1	-0.499750
29.350000	1	-0.453375
29.366667	1	-0.407125
29.383333	1	-0.361000
29.400000	1	-0.314125
29.416667	1	-0.268500
29.433333	1	-0.224125
29.450000	1	-0.180375
29.466667	1	-0.137625
29.483333	1	-0.096875
29.500000	1	-0.057750
29.516667	1	-0.020375
29.533333	1	0.015750
29.550000	1	0.050000
29.566667	1	0.082625
29.583333	1	0.113000
29.600000	1	0.141875
29.616667	1	0.168375
29.633333	1	0.193250
29.650000	1	0.216250
29.666667	1	0.237250
29.683333	1	0.255875
29.700000	1	0.273375
29.716667	1	0.289875
29.733333	1	0.304500
29.750000	1	0.318000
29.766667	1	0.329125
29.783333	1	0.340000
29.800000	1	0.348875
29.816667	1	0.357250
29.833333	1	0.364375
29.850000	1	0.370375
29.866667	1	0.376000
29.883333	1	0.380250
29.900000	1	0.384000
29.916667	1	0.387000
29.933333	1	0.389125
29.950000	1	0.391750
29.966667	1	0.393875
29.983333	1	0.396000
30.000000	1	0.398625
30.016667	1	0.402000
30.033333	1	0.405375
30.050000	1	0.408875
30.066667	1	0.413000
30.083333	1	0.418000
30.100000	1	0.423500
30.116667	1	0.429375
30.133333	1	0.437375
30.150000	1	0.446125
30.166667	1	0.457250
30.183333	1	0.469625
30.200000	1	0.484250
30.216667	1	0.501125
30.233333	1	0.520375
30.250000	1	0.541500
30.266667	1	0.565375
30.283333	1	0.591875
30.300000	1	0.621625
30.316667	1	0.656250
30.333333	1	0.693625
30.350000	1	0.734875
30.366667	1	0.779875
30.383333	1	0.829625
30.400000	1	0.883375
30.416667	1	0.941875
30.433333	1	1.005250
30.450000	1	1.074000
30.466667	1	1.147125
30.483333	1	1.225625
30.500000	1	1.309125
30.516667	1	1.397500
30.533333	1	1.490250
30.550000	1	1.587875
30.566667	1	1.689125
30.583333	1	1.794750
30.600000	1	1.904125
30.616667	1	2.017000
30.633333	1	2.131875
30.650000	1	2.248500
30.666667	1	2.366625
30.683333	1	2.484500
30.700000	1	2.602125
30.716667	1	2.718375
30.733333	1	2.831625
30.750000	1	2.941875
30.766667	1	3.047000
30.783333	1	3.147375
30.800000	1	3.241375
30.816667	1	3.328250
30.833333	1	3.406125
30.850000	1	3.474625
30.866667	1	3.533250
30.883333	1	3.581250
30.900000	1	3.617250
30.916667	1	3.642375
30.933333	1	3.655125
30.950000	1	3.655250
30.966667	1	3.643500
30.983333	1	3.619500
31.000000	1	3.584000
31.016667	1	3.537625
31.033333	1	3.479125
31.050000	1	3.411625
31.066667	1	3.334500
31.083333	1	3.248250
31.100000	1	3.155500
31.116667	1	3.056125
31.133333	1	2.950750
31.150000	1	2.841375
31.166667	1	2.729000
31.183333	1	2.613875
31.200000	1	2.497375
31.216667	1	2.379625
31.233333	1	2.263750
31.250000	1	2.147875
31.266667	1	2.034000
31.283333	1	1.921875
31.300000	1	1.813375
31.316667	1	1.709250
31.333333	1	1.608625
31.350000	1	1.511625
31.366667	1	1.419375
31.383333	1	1.332125
31.400000	1	1.248500
31.416667	1	1.169000
31.433333	1	1.095000
31.450000	1	1.024750
31.466667	1	0.958500
31.483333	1	0.897375
31.500000	1	0.840000
31.516667	1	0.786625
31.533333	1	0.737500
31.550000	1	0.692000
31.566667	1	0.650500
31.583333	1	0.611875
31.600000	1	0.576250
31.616667	1	0.543000
31.633333	1	0.512000
31.650000	1	0.484375
31.666667	1	0.458125
31.683333	1	0.434875
31.700000	1	0.413625
31.716667	1	0.394250
31.733333	1	0.377500
31.750000	1	0.362000
31.766667	1	0.348000
31.783333	1	0.335125
31.800000	1	0.324500
31.816667	1	0.313875
31.833333	1	0.304375
31.850000	1	0.295875
31.866667	1	0.289000
31.883333	1	0.283500
31.900000	1	0.277625
31.916667	1	0.273375
31.933333	1	0.269250
31.950000	1	0.265750
31.966667	1	0.263000
31.983333	1	0.260625
32.000000	1	0.258125
32.016667	1	0.256000
32.033333	1	0.254000
32.050000	1	0.251875
32.066667	1	0.251000
32.083333	1	0.249625
32.100000	1	0.247625
32.116667	1	0.245500
32.133333	1	0.243375
32.150000	1	0.241875
32.166667	1	0.240000
32.183333	1	0.237375
32.200000	1	0.234375
32.216667	1	0.231250
32.233333	1	0.227250
32.250000	1	0.223375
32.266667	1	0.219000
32.283333	1	0.214375
32.300000	1	0.210000
32.316667	1	0.204625
32.333333	1	0.199375
32.350000	1	0.194500
32.366667	1	0.188500
32.383333	1	0.183000
32.400000	1	0.176750
32.416667	1	0.170250
32.433333	1	0.163750
32.450000	1	0.158125
32.466667	1	0.152000
32.483333	1	0.146000
32.500000	1	0.139875
32.516667	1	0.134500
32.533333	1	0.129000
32.550000	1	0.122875
32.566667	1	0.117625
32.583333	1	0.113125
32.600000	1	0.107750
32.616667	1	0.102750
32.633333	1	0.098750
32.650000	1	0.094750
32.666667	1	0.090375
32.683333	1	0.086875
32.700000	1	0.083625
32.716667	1	0.080000
32.733333	1	0.077375
32.750000	1	0.073875
32.766667	1	0.070750
32.783333	1	0.067625
32.800000	1	0.065000
32.816667	1	0.062125
32.833333	1	0.060250
32.850000	1	0.057500
32.866667	1	0.054875
32.883333	1	0.052250
32.900000	1	0.049500
32.916667	1	0.047125
32.933333	1	0.045125
32.950000	1	0.043125
32.966667	1	0.041125
32.983333	1	0.038250
33.000000	1	0.035625
33.016667	1	0.032875
33.033333	1	0.030000
33.050000	1	0.027125
33.066667	1	0.024875
33.083333	1	0.022500
33.100000	1	0.019875
33.116667	1	0.017250
33.133333	1	0.014625
33.150000	1	0.012375
33.166667	1	0.009250
33.183333	1	0.007000
33.200000	1	0.004375
33.216667	1	0.003000
33.233333	1	0.000500
33.250000	1	-0.002125
33.266667	1	-0.004125
33.283333	1	-0.006250
33.300000	1	-0.007500
33.316667	1	-0.008250
33.333333	1	-0.009375
33.350000	1	-0.010750
33.366667	1	-0.012125
33.383333	1	-0.013125
33.400000	1	-0.013250
33.416667	1	-0.014000
33.433333	1	-0.014875
33.450000	1	-0.015625
33.466667	1	-0.015625
33.483333	1	-0.016125
33.500000	1	-0.015750
33.516667	1	-0.015500
33.533333	1	-0.015500
33.550000	1	-0.015125
33.566667	1	-0.014250
33.583333	1	-0.013625
33.600000	1	-0.013125
33.616667	1	-0.012375
33.633333	1	-0.011250
33.650000	1	-0.010250
33.666667	1	-0.009000
33.683333	1	-0.008250
33.700000	1	-0.006625
33.716667	1	-0.004500
33.733333	1	-0.001875
33.750000	1	0.000375
33.766667	1	0.002625
33.783333	1	0.004875
33.800000	1	0.007500
33.816667	1	0.010625
33.833333	1	0.013750
33.850000	1	0.016875
33.866667	1	0.020500
33.883333	1	0.024125
33.900000	1	0.028500
33.916667	1	0.032375
33.933333	1	0.036500
33.950000	1	0.041625
33.966667	1	0.046625
33.983333	1	0.052250
34.000000	1	0.057625
34.016667	1	0.063125
34.033333	1	0.068750
34.050000	1	0.074875
34.066667	1	0.081125
34.083333	1	0.086875
34.100000	1	0.094000
34.116667	1	0.101125
34.133333	1	0.108625
34.150000	1	0.116375
34.166667	1	0.123250
34.183333	1	0.131000
34.200000	1	0.138750
34.216667	1	0.145250
34.233333	1	0.152750
34.250000	1	0.160750
34.266667	1	0.167625
34.283333	1	0.174500
34.300000	1	0.181125
34.316667	1	0.187250
34.333333	1	0.193125
34.350000	1	0.198875
34.366667	1	0.204250
34.383333	1	0.209250
34.400000	1	0.214250
34.416667	1	0.218000
34.433333	1	0.221375
34.450000	1	0.225250
34.466667	1	0.227375
34.483333	1	0.228875
34.500000	1	0.229750
34.516667	1	0.230375
34.533333	1	0.229875
34.550000	1	0.228750
34.566667	1	0.227375
34.583333	1	0.225375
34.600000	1	0.222500
34.616667	1	0.219125
34.633333	1	0.215250
34.650000	1	0.211375
34.666667	1	0.206625
34.683333	1	0.201500
34.700000	1	0.196375
34.716667	1	0.191000
34.733333	1	0.185500
34.750000	1	0.179625
34.766667	1	0.174000
34.783333	1	0.167000
34.800000	1	0.161000
34.816667	1	0.154375
34.833333	1	0.148250
34.850000	1	0.142625
34.866667	1	0.137500
34.883333	1	0.132125
34.900000	1	0.126875
34.916667	1	0.122750
34.933333	1	0.118625
34.950000	1	0.114125
34.966667	1	0.110000
34.983333	1	0.106375
35.000000	1	0.103125
35.016667	1	0.100125
35.033333	1	0.097625
35.050000	1	0.095375
35.066667	1	0.093625
35.083333	1	0.091625
35.100000	1	0.090375
35.116667	1	0.089250
35.133333	1	0.088750
35.150000	1	0.088750
35.166667	1	0.088000
35.183333	1	0.088000
35.200000	1	0.088500
35.216667	1	0.089000
35.233333	1	0.090125
35.250000	1	0.090750
35.266667	1	0.092250
35.283333	1	0.094250
35.300000	1	0.095500
35.316667	1	0.097250
35.333333	1	0.098750
35.350000	1	0.100625
35.366667	1	0.102875
35.383333	1	0.104250
35.400000	1	0.106000
35.416667	1	0.108000
35.433333	1	0.109875
35.450000	1	0.111250
35.466667	1	0.113375
35.483333	1	0.115000
35.500000	1	0.116750
35.516667	1	0.118125
35.533333	1	0.119625
35.550000	1	0.120500
35.566667	1	0.121500
35.583333	1	0.122875
35.600000	1	0.123500
35.616667	1	0.124125
35.633333	1	0.125125
35.650000	1	0.126000
35.666667	1	0.126625
35.683333	1	0.127375
35.700000	1	0.127625
35.716667	1	0.127500
35.733333	1	0.127625
35.750000	1	0.127625
35.766667	1	0.128125
35.783333	1	0.127625
35.800000	1	0.127125
35.816667	1	0.126750
35.833333	1	0.126000
35.850000	1	0.124750
35.866667	1	0.124125
35.883333	1	0.123875
35.900000	1	0.123375
35.916667	1	0.122250
35.933333	1	0.121875
35.950000	1	0.121500
35.966667	1	0.120125
35.983333	1	0.119125
36.000000	1	0.117875
36.016667	1	0.116875
36.033333	1	0.116000
36.050000	1	0.114625
36.066667	1	0.113375
36.083333	1	0.112000
36.100000	1	0.110500
36.116667	1	0.108875
36.133333	1	0.107500
36.150000	1	0.106500
36.166667	1	0.104875
36.183333	1	0.103375
36.200000	1	0.101375
36.216667	1	0.099500
36.233333	1	0.097500
36.250000	1	0.096000
36.266667	1	0.093750
36.283333	1	0.092125
36.300000	1	0.091000
36.316667	1	0.089250
36.333333	1	0.087000
36.350000	1	0.084375
36.366667	1	0.082875
36.383333	1	0.080750
36.400000	1	0.078625
36.416667	1	0.076750
36.433333	1	0.074750
36.450000	1	0.073000
36.466667	1	0.071125
36.483333	1	0.069625
36.500000	1	0.067750
36.516667	1	0.065875
36.533333	1	0.064000
36.550000	1	0.062125
36.566667	1	0.060250
36.583333	1	0.058500
36.600000	1	0.056875
36.616667	1	0.055125
36.633333	1	0.054125
36.650000	1	0.052250
36.666667	1	0.049875
36.683333	1	0.048625
36.700000	1	0.047250
36.716667	1	0.045750
36.733333	1	0.044625
36.750000	1	0.042875
36.766667	1	0.041000
36.783333	1	0.039000
36.800000	1	0.036875
36.816667	1	0.035500
36.833333	1	0.033750
36.850000	1	0.031875
36.866667	1	0.030250
36.883333	1	0.028750
36.900000	1	0.026875
36.916667	1	0.024750
36.933333	1	0.023000
36.950000	1	0.020875
36.966667	1	0.018875
36.983333	1	0.016500
37.000000	1	0.014625
37.016667	1	0.012875
37.033333	1	0.011250
37.050000	1	0.010000
37.066667	1	0.007875
37.083333	1	0.006375
37.100000	1	0.005375
37.116667	1	0.003750
37.133333	1	0.002125
37.150000	1	0.000875
37.166667	1	-0.000750
37.183333	1	-0.003250
37.200000	1	-0.004625
37.216667	1	-0.006000
37.233333	1	-0.007250
37.250000	1	-0.008000
37.266667	1	-0.009625
37.283333	1	-0.010500
37.300000	1	-0.011375
37.316667	1	-0.012250
37.333333	1	-0.013875
37.350000	1	-0.015125
37.366667	1	-0.016625
37.383333	1	-0.018125
37.400000	1	-0.018625
37.416667	1	-0.019250
37.433333	1	-0.019625
37.450000	1	-0.020375
37.466667	1	-0.021000
37.483333	1	-0.022000
37.500000	1	-0.022250
37.516667	1	-0.023000
37.533333	1	-0.024000
37.550000	1	-0.024500
37.566667	1	-0.024875
37.583333	1	-0.025625
37.600000	1	-0.025875
37.616667	1	-0.026250
37.633333	1	-0.026125
37.650000	1	-0.026000
37.666667	1	-0.026250
37.683333	1	-0.026625
37.700000	1	-0.026625
37.716667	1	-0.026375
37.733333	1	-0.026375
37.750000	1	-0.027000
37.766667	1	-0.027625
37.783333	1	-0.027750
37.800000	1	-0.027000
37.816667	1	-0.026875
37.833333	1	-0.026500
37.850000	1	-0.026625
37.866667	1	-0.026125
37.883333	1	-0.025125
37.900000	1	-0.024875
37.916667	1	-0.024250
37.933333	1	-0.024375
37.950000	1	-0.024625
37.966667	1	-0.024625
37.983333	1	-0.025000
38.000000	1	-0.024750
38.016667	1	-0.024375
38.033333	1	-0.024500
38.050000	1	-0.025125
38.066667	1	-0.024750
38.083333	1	-0.024750
38.100000	1	-0.024750
38.116667	1	-0.025375
38.133333	1	-0.025375
38.150000	1	-0.025500
38.166667	1	-0.026125
38.183333	1	-0.026750
38.200000	1	-0.027250
38.216667	1	-0.027500
38.233333	1	-0.028000
38.250000	1	-0.028000
38.266667	1	-0.028000
38.283333	1	-0.029000
38.300000	1	-0.029750
38.316667	1	-0.030125
38.333333	1	-0.030750
38.350000	1	-0.031375
38.366667	1	-0.031750
38.383333	1	-0.032125
38.400000	1	-0.032250
38.416667	1	-0.032875
38.433333	1	-0.033500
38.450000	1	-0.033625
38.466667	1	-0.034375
38.483333	1	-0.034750
38.500000	1	-0.035250
38.516667	1	-0.036000
38.533333	1	-0.036375
38.550000	1	-0.036375
38.566667	1	-0.036750
38.583333	1	-0.037250
38.600000	1	-0.037375
38.616667	1	-0.037750
38.633333	1	-0.038125
38.650000	1	-0.038625
38.666667	1	-0.038375
38.683333	1	-0.038000
38.700000	1	-0.037750
38.716667	1	-0.037750
38.733333	1	-0.038125
38.750000	1	-0.038250
38.766667	1	-0.038250
38.783333	1	-0.038125
38.800000	1	-0.037875
38.816667	1	-0.037500
38.833333	1	-0.036875
38.850000	1	-0.036250
38.866667	1	-0.035625
38.883333	1	-0.035375
38.900000	1	-0.034875
38.916667	1	-0.034375
38.933333	1	-0.033625
38.950000	1	-0.032750
38.966667	1	-0.032000
38.983333	1	-0.031375
39.000000	1	-0.031125
39.016667	1	-0.030250
39.033333	1	-0.029375
39.050000	1	-0.028375
39.066667	1	-0.027500
39.083333	1	-0.026500
39.100000	1	-0.025000
39.116667	1	-0.023625
39.133333	1	-0.023000
39.150000	1	-0.022125
39.166667	1	-0.021500
39.183333	1	-0.020375
39.200000	1	-0.020375
39.216667	1	-0.019000
39.233333	1	-0.018000
39.250000	1	-0.016875
39.266667	1	-0.015625
39.283333	1	-0.014875
39.300000	1	-0.013125
39.316667	1	-0.012125
39.333333	1	-0.010750
39.350000	1	-0.009500
39.366667	1	-0.008750
39.383333	1	-0.007625
39.400000	1	-0.007125
39.416667	1	-0.006500
39.433333	1	-0.006000
39.450000	1	-0.005250
39.466667	1	-0.004375
39.483333	1	-0.003625
39.500000	1	-0.002625
39.516667	1	-0.001750
39.533333	1	-0.001875
39.550000	1	-0.001875
39.566667	1	-0.001500
39.583333	1	-0.001250
39.600000	1	-0.000250
39.616667	1	-0.000250
39.633333	1	-0.000250
39.650000	1	0.000375
39.666667	1	0.001250
39.683333	1	0.001250
39.700000	1	0.001125
39.716667	1	0.001125
39.733333	1	0.001125
39.750000	1	0.001750
39.766667	1	0.001750
39.783333	1	0.001625
39.800000	1	0.001875
39.816667	1	0.001750
39.833333	1	0.002000
39.850000	1	0.001500
39.866667	1	0.001625
39.883333	1	0.001250
39.900000	1	0.002000
39.916667	1	0.002125
39.933333	1	0.002125
39.950000	1	0.002000
39.966667	1	0.001500
39.983333	1	0.001500
40.000000	1	0.001750
