File Path	chrom://marshall/Chromeleon7/HPLC_Ultimate_3000/Users/markusar/20230610_CMO_FP11_FP12.seq/193.smp/RI_1.channel/RI_1.chm
Channel	RI_1

Injection Information:
Data Vault	Chromeleon7
Injection	FP11_1_S4
Injection Number	14
Position	BB1
Comment	
Processing Method	
Instrument Method	run_25B_method
Type	Unknown
Status	Finished
Injection Date	11.06.2023
Injection Time	03:36:26
Injection Volume (µl)	20.000
Dilution Factor	1.0000
Weight	1.0000

Chromatogram Data Information:
Time Min. (min)	0.000000
Time Max. (min)	40.000000
Data Points	2401
Detector	RI
Generating Data System	Chromeleon 7.2.5.9507
Exporting Data System	Chromeleon 7.2.5.0
Operator	Instrument Controller
Signal Quantity	Refractive 
Signal Unit	µRIU
Signal Min.	-0.752625
Signal Max.	47.545125
Channel	RI_1
Driver Name	RID520Driver.dll
Channel Type	Evaluation
Min. Step (s)	1
Max. Step (s)	1
Average Step (s)	1

Signal Parameter Information:
Signal Info	

Chromatogram Data:
Time (min)	Step (s)	Value (µRIU)
0.000000	n.a.	0.024875
0.016667	1	0.023750
0.033333	1	0.022875
0.050000	1	0.022500
0.066667	1	0.021750
0.083333	1	0.020625
0.100000	1	0.020500
0.116667	1	0.019500
0.133333	1	0.019375
0.150000	1	0.018125
0.166667	1	0.017000
0.183333	1	0.015375
0.200000	1	0.014125
0.216667	1	0.012625
0.233333	1	0.010875
0.250000	1	0.010000
0.266667	1	0.008875
0.283333	1	0.007500
0.300000	1	0.006000
0.316667	1	0.003500
0.333333	1	0.000250
0.350000	1	-0.004625
0.366667	1	-0.008750
0.383333	1	-0.010625
0.400000	1	-0.010250
0.416667	1	-0.008750
0.433333	1	-0.005875
0.450000	1	-0.003875
0.466667	1	-0.002625
0.483333	1	-0.002000
0.500000	1	-0.001000
0.516667	1	0.000000
0.533333	1	-0.000375
0.550000	1	-0.002500
0.566667	1	-0.005375
0.583333	1	-0.008500
0.600000	1	-0.011875
0.616667	1	-0.014375
0.633333	1	-0.016125
0.650000	1	-0.018000
0.666667	1	-0.019250
0.683333	1	-0.021875
0.700000	1	-0.023250
0.716667	1	-0.023625
0.733333	1	-0.024375
0.750000	1	-0.025250
0.766667	1	-0.026000
0.783333	1	-0.026500
0.800000	1	-0.026625
0.816667	1	-0.026875
0.833333	1	-0.026875
0.850000	1	-0.027250
0.866667	1	-0.027375
0.883333	1	-0.027000
0.900000	1	-0.027125
0.916667	1	-0.027000
0.933333	1	-0.026750
0.950000	1	-0.026375
0.966667	1	-0.025625
0.983333	1	-0.025750
1.000000	1	-0.025625
1.016667	1	-0.025500
1.033333	1	-0.025250
1.050000	1	-0.025375
1.066667	1	-0.025375
1.083333	1	-0.025750
1.100000	1	-0.025500
1.116667	1	-0.024500
1.133333	1	-0.024125
1.150000	1	-0.024625
1.166667	1	-0.024500
1.183333	1	-0.024750
1.200000	1	-0.024375
1.216667	1	-0.023375
1.233333	1	-0.023625
1.250000	1	-0.023875
1.266667	1	-0.023750
1.283333	1	-0.023500
1.300000	1	-0.023375
1.316667	1	-0.024125
1.333333	1	-0.024250
1.350000	1	-0.024250
1.366667	1	-0.024000
1.383333	1	-0.024375
1.400000	1	-0.024375
1.416667	1	-0.024500
1.433333	1	-0.024375
1.450000	1	-0.025125
1.466667	1	-0.025000
1.483333	1	-0.025750
1.500000	1	-0.026125
1.516667	1	-0.026375
1.533333	1	-0.026875
1.550000	1	-0.027625
1.566667	1	-0.028000
1.583333	1	-0.028625
1.600000	1	-0.029250
1.616667	1	-0.029250
1.633333	1	-0.030375
1.650000	1	-0.030875
1.666667	1	-0.030750
1.683333	1	-0.031375
1.700000	1	-0.031625
1.716667	1	-0.031875
1.733333	1	-0.032000
1.750000	1	-0.032750
1.766667	1	-0.033125
1.783333	1	-0.033625
1.800000	1	-0.033875
1.816667	1	-0.034000
1.833333	1	-0.034625
1.850000	1	-0.034250
1.866667	1	-0.034625
1.883333	1	-0.035375
1.900000	1	-0.035375
1.916667	1	-0.036000
1.933333	1	-0.037250
1.950000	1	-0.037375
1.966667	1	-0.037250
1.983333	1	-0.037250
2.000000	1	-0.037500
2.016667	1	-0.037250
2.033333	1	-0.037000
2.050000	1	-0.038000
2.066667	1	-0.037625
2.083333	1	-0.037250
2.100000	1	-0.036750
2.116667	1	-0.036750
2.133333	1	-0.037125
2.150000	1	-0.037375
2.166667	1	-0.037125
2.183333	1	-0.037250
2.200000	1	-0.037125
2.216667	1	-0.036750
2.233333	1	-0.035500
2.250000	1	-0.035125
2.266667	1	-0.034500
2.283333	1	-0.034500
2.300000	1	-0.033750
2.316667	1	-0.033250
2.333333	1	-0.032750
2.350000	1	-0.032375
2.366667	1	-0.031625
2.383333	1	-0.030375
2.400000	1	-0.030625
2.416667	1	-0.029875
2.433333	1	-0.029625
2.450000	1	-0.028125
2.466667	1	-0.028000
2.483333	1	-0.027500
2.500000	1	-0.026375
2.516667	1	-0.025750
2.533333	1	-0.024625
2.550000	1	-0.023750
2.566667	1	-0.022625
2.583333	1	-0.021750
2.600000	1	-0.021375
2.616667	1	-0.020125
2.633333	1	-0.019250
2.650000	1	-0.018375
2.666667	1	-0.017375
2.683333	1	-0.016500
2.700000	1	-0.015625
2.716667	1	-0.015125
2.733333	1	-0.014125
2.750000	1	-0.012875
2.766667	1	-0.012500
2.783333	1	-0.011625
2.800000	1	-0.010875
2.816667	1	-0.010000
2.833333	1	-0.009250
2.850000	1	-0.008875
2.866667	1	-0.007750
2.883333	1	-0.007125
2.900000	1	-0.005500
2.916667	1	-0.004750
2.933333	1	-0.004000
2.950000	1	-0.003750
2.966667	1	-0.003375
2.983333	1	-0.003250
3.000000	1	-0.002750
3.016667	1	-0.001375
3.033333	1	-0.000875
3.050000	1	-0.000500
3.066667	1	-0.000250
3.083333	1	0.000000
3.100000	1	0.000625
3.116667	1	0.000625
3.133333	1	0.000250
3.150000	1	0.000375
3.166667	1	0.001000
3.183333	1	0.000250
3.200000	1	-0.000250
3.216667	1	-0.001000
3.233333	1	-0.000875
3.250000	1	-0.000750
3.266667	1	-0.000875
3.283333	1	-0.001500
3.300000	1	-0.002000
3.316667	1	-0.002375
3.333333	1	-0.003125
3.350000	1	-0.003375
3.366667	1	-0.003500
3.383333	1	-0.004125
3.400000	1	-0.004000
3.416667	1	-0.004250
3.433333	1	-0.004875
3.450000	1	-0.005125
3.466667	1	-0.005500
3.483333	1	-0.005625
3.500000	1	-0.005750
3.516667	1	-0.006000
3.533333	1	-0.006375
3.550000	1	-0.006500
3.566667	1	-0.006250
3.583333	1	-0.006500
3.600000	1	-0.006250
3.616667	1	-0.006250
3.633333	1	-0.005625
3.650000	1	-0.005375
3.666667	1	-0.005000
3.683333	1	-0.004875
3.700000	1	-0.005125
3.716667	1	-0.005000
3.733333	1	-0.004750
3.750000	1	-0.003625
3.766667	1	-0.002875
3.783333	1	-0.003125
3.800000	1	-0.003125
3.816667	1	-0.003125
3.833333	1	-0.002625
3.850000	1	-0.001750
3.866667	1	-0.001750
3.883333	1	-0.001750
3.900000	1	-0.002125
3.916667	1	-0.001250
3.933333	1	-0.000375
3.950000	1	-0.000250
3.966667	1	-0.000500
3.983333	1	-0.000750
4.000000	1	-0.000375
4.016667	1	0.000000
4.033333	1	0.000000
4.050000	1	-0.000125
4.066667	1	-0.000125
4.083333	1	-0.000125
4.100000	1	-0.000125
4.116667	1	-0.000500
4.133333	1	-0.000750
4.150000	1	-0.001000
4.166667	1	-0.000750
4.183333	1	-0.000375
4.200000	1	-0.000125
4.216667	1	-0.000375
4.233333	1	-0.000625
4.250000	1	-0.000625
4.266667	1	-0.000750
4.283333	1	-0.000875
4.300000	1	-0.000250
4.316667	1	-0.000625
4.333333	1	-0.001500
4.350000	1	-0.001500
4.366667	1	-0.001375
4.383333	1	-0.001125
4.400000	1	-0.000875
4.416667	1	-0.001000
4.433333	1	-0.000500
4.450000	1	-0.000750
4.466667	1	-0.000875
4.483333	1	-0.000625
4.500000	1	-0.000125
4.516667	1	0.000250
4.533333	1	0.000750
4.550000	1	0.000500
4.566667	1	0.001250
4.583333	1	0.001375
4.600000	1	0.001500
4.616667	1	0.002750
4.633333	1	0.003375
4.650000	1	0.003750
4.666667	1	0.004500
4.683333	1	0.005500
4.700000	1	0.006250
4.716667	1	0.007000
4.733333	1	0.008375
4.750000	1	0.009500
4.766667	1	0.010375
4.783333	1	0.011250
4.800000	1	0.012500
4.816667	1	0.014250
4.833333	1	0.015375
4.850000	1	0.017000
4.866667	1	0.018500
4.883333	1	0.019750
4.900000	1	0.020750
4.916667	1	0.022500
4.933333	1	0.023500
4.950000	1	0.024625
4.966667	1	0.026750
4.983333	1	0.028250
5.000000	1	0.029000
5.016667	1	0.031000
5.033333	1	0.033625
5.050000	1	0.034375
5.066667	1	0.035625
5.083333	1	0.037250
5.100000	1	0.038500
5.116667	1	0.040000
5.133333	1	0.040750
5.150000	1	0.043000
5.166667	1	0.044000
5.183333	1	0.045500
5.200000	1	0.046625
5.216667	1	0.047500
5.233333	1	0.048750
5.250000	1	0.049250
5.266667	1	0.050125
5.283333	1	0.050875
5.300000	1	0.051375
5.316667	1	0.052625
5.333333	1	0.053250
5.350000	1	0.053625
5.366667	1	0.054625
5.383333	1	0.054625
5.400000	1	0.054750
5.416667	1	0.055000
5.433333	1	0.054875
5.450000	1	0.055500
5.466667	1	0.055375
5.483333	1	0.054375
5.500000	1	0.053375
5.516667	1	0.052875
5.533333	1	0.052625
5.550000	1	0.051375
5.566667	1	0.050375
5.583333	1	0.049875
5.600000	1	0.048750
5.616667	1	0.047625
5.633333	1	0.046250
5.650000	1	0.044625
5.666667	1	0.043375
5.683333	1	0.041250
5.700000	1	0.039625
5.716667	1	0.038125
5.733333	1	0.035875
5.750000	1	0.034125
5.766667	1	0.032500
5.783333	1	0.031250
5.800000	1	0.029750
5.816667	1	0.028500
5.833333	1	0.026250
5.850000	1	0.024625
5.866667	1	0.023125
5.883333	1	0.021875
5.900000	1	0.020500
5.916667	1	0.019250
5.933333	1	0.017750
5.950000	1	0.016750
5.966667	1	0.016500
5.983333	1	0.016125
6.000000	1	0.015250
6.016667	1	0.014875
6.033333	1	0.014375
6.050000	1	0.014125
6.066667	1	0.014125
6.083333	1	0.014125
6.100000	1	0.014875
6.116667	1	0.015250
6.133333	1	0.016625
6.150000	1	0.017250
6.166667	1	0.018250
6.183333	1	0.019625
6.200000	1	0.020750
6.216667	1	0.022125
6.233333	1	0.023750
6.250000	1	0.025250
6.266667	1	0.027000
6.283333	1	0.029125
6.300000	1	0.031375
6.316667	1	0.033375
6.333333	1	0.035875
6.350000	1	0.038250
6.366667	1	0.040875
6.383333	1	0.043500
6.400000	1	0.046500
6.416667	1	0.048875
6.433333	1	0.051875
6.450000	1	0.053750
6.466667	1	0.056875
6.483333	1	0.060750
6.500000	1	0.064000
6.516667	1	0.067000
6.533333	1	0.070375
6.550000	1	0.073375
6.566667	1	0.076750
6.583333	1	0.079500
6.600000	1	0.082500
6.616667	1	0.085250
6.633333	1	0.088625
6.650000	1	0.091375
6.666667	1	0.093750
6.683333	1	0.096750
6.700000	1	0.099500
6.716667	1	0.102500
6.733333	1	0.105000
6.750000	1	0.107125
6.766667	1	0.108875
6.783333	1	0.111750
6.800000	1	0.113000
6.816667	1	0.114125
6.833333	1	0.116000
6.850000	1	0.116750
6.866667	1	0.117375
6.883333	1	0.118125
6.900000	1	0.119125
6.916667	1	0.119250
6.933333	1	0.119625
6.950000	1	0.119500
6.966667	1	0.119250
6.983333	1	0.118375
7.000000	1	0.117375
7.016667	1	0.116125
7.033333	1	0.115250
7.050000	1	0.114375
7.066667	1	0.112875
7.083333	1	0.111625
7.100000	1	0.110000
7.116667	1	0.107875
7.133333	1	0.106625
7.150000	1	0.104250
7.166667	1	0.101750
7.183333	1	0.099875
7.200000	1	0.097125
7.216667	1	0.094500
7.233333	1	0.092250
7.250000	1	0.089625
7.266667	1	0.087125
7.283333	1	0.084500
7.300000	1	0.081875
7.316667	1	0.079125
7.333333	1	0.076750
7.350000	1	0.074250
7.366667	1	0.071750
7.383333	1	0.069000
7.400000	1	0.066750
7.416667	1	0.064500
7.433333	1	0.062000
7.450000	1	0.059750
7.466667	1	0.057625
7.483333	1	0.055625
7.500000	1	0.053500
7.516667	1	0.051250
7.533333	1	0.048625
7.550000	1	0.046750
7.566667	1	0.045500
7.583333	1	0.043500
7.600000	1	0.041250
7.616667	1	0.039750
7.633333	1	0.038125
7.650000	1	0.036000
7.666667	1	0.034625
7.683333	1	0.033375
7.700000	1	0.031250
7.716667	1	0.029625
7.733333	1	0.028375
7.750000	1	0.027375
7.766667	1	0.026125
7.783333	1	0.025125
7.800000	1	0.024000
7.816667	1	0.022375
7.833333	1	0.021250
7.850000	1	0.020375
7.866667	1	0.019125
7.883333	1	0.017625
7.900000	1	0.016250
7.916667	1	0.015500
7.933333	1	0.014000
7.950000	1	0.012750
7.966667	1	0.011875
7.983333	1	0.011125
8.000000	1	0.010625
8.016667	1	0.009750
8.033333	1	0.008625
8.050000	1	0.006750
8.066667	1	0.006000
8.083333	1	0.005500
8.100000	1	0.005125
8.116667	1	0.004250
8.133333	1	0.003125
8.150000	1	0.002875
8.166667	1	0.002125
8.183333	1	0.001375
8.200000	1	0.000875
8.216667	1	0.000750
8.233333	1	0.000375
8.250000	1	0.000375
8.266667	1	0.000500
8.283333	1	0.000625
8.300000	1	0.000625
8.316667	1	0.001375
8.333333	1	0.002000
8.350000	1	0.002250
8.366667	1	0.003250
8.383333	1	0.004625
8.400000	1	0.005250
8.416667	1	0.006500
8.433333	1	0.007375
8.450000	1	0.008500
8.466667	1	0.009375
8.483333	1	0.011375
8.500000	1	0.012625
8.516667	1	0.014500
8.533333	1	0.015875
8.550000	1	0.017500
8.566667	1	0.018750
8.583333	1	0.019875
8.600000	1	0.021250
8.616667	1	0.022500
8.633333	1	0.024125
8.650000	1	0.025375
8.666667	1	0.026250
8.683333	1	0.027625
8.700000	1	0.029250
8.716667	1	0.030875
8.733333	1	0.032375
8.750000	1	0.033625
8.766667	1	0.035125
8.783333	1	0.036000
8.800000	1	0.036500
8.816667	1	0.036875
8.833333	1	0.037250
8.850000	1	0.038250
8.866667	1	0.039000
8.883333	1	0.040000
8.900000	1	0.040500
8.916667	1	0.041125
8.933333	1	0.042125
8.950000	1	0.042375
8.966667	1	0.042875
8.983333	1	0.042750
9.000000	1	0.043000
9.016667	1	0.043000
9.033333	1	0.043375
9.050000	1	0.043875
9.066667	1	0.044250
9.083333	1	0.044375
9.100000	1	0.044500
9.116667	1	0.045375
9.133333	1	0.045500
9.150000	1	0.045625
9.166667	1	0.046250
9.183333	1	0.046625
9.200000	1	0.046375
9.216667	1	0.047125
9.233333	1	0.047375
9.250000	1	0.046750
9.266667	1	0.046500
9.283333	1	0.046750
9.300000	1	0.046875
9.316667	1	0.047375
9.333333	1	0.047750
9.350000	1	0.048000
9.366667	1	0.048375
9.383333	1	0.049000
9.400000	1	0.050125
9.416667	1	0.051250
9.433333	1	0.051875
9.450000	1	0.052750
9.466667	1	0.054250
9.483333	1	0.056000
9.500000	1	0.058500
9.516667	1	0.061250
9.533333	1	0.064875
9.550000	1	0.068375
9.566667	1	0.072750
9.583333	1	0.078000
9.600000	1	0.083875
9.616667	1	0.091500
9.633333	1	0.099500
9.650000	1	0.109375
9.666667	1	0.120750
9.683333	1	0.133125
9.700000	1	0.148000
9.716667	1	0.165125
9.733333	1	0.185250
9.750000	1	0.208500
9.766667	1	0.233500
9.783333	1	0.262750
9.800000	1	0.296250
9.816667	1	0.334250
9.833333	1	0.375625
9.850000	1	0.417125
9.866667	1	0.456625
9.883333	1	0.489500
9.900000	1	0.513875
9.916667	1	0.531375
9.933333	1	0.552625
9.950000	1	0.595000
9.966667	1	0.686375
9.983333	1	0.856875
10.000000	1	1.139250
10.016667	1	1.565000
10.033333	1	2.160250
10.050000	1	2.945500
10.066667	1	3.936375
10.083333	1	5.143125
10.100000	1	6.569750
10.116667	1	8.214875
10.133333	1	10.065125
10.150000	1	12.101875
10.166667	1	14.299500
10.183333	1	16.623750
10.200000	1	19.038000
10.216667	1	21.504375
10.233333	1	23.985875
10.250000	1	26.442750
10.266667	1	28.835250
10.283333	1	31.120875
10.300000	1	33.243250
10.316667	1	35.129125
10.333333	1	36.681625
10.350000	1	37.784875
10.366667	1	38.314750
10.383333	1	38.163500
10.400000	1	37.269750
10.416667	1	35.643875
10.433333	1	33.380875
10.450000	1	30.651375
10.466667	1	27.661375
10.483333	1	24.614750
10.500000	1	21.679500
10.516667	1	18.966375
10.533333	1	16.531375
10.550000	1	14.386375
10.566667	1	12.516250
10.583333	1	10.894625
10.600000	1	9.492875
10.616667	1	8.284500
10.633333	1	7.248000
10.650000	1	6.365750
10.666667	1	5.619000
10.683333	1	4.991875
10.700000	1	4.468250
10.716667	1	4.031875
10.733333	1	3.668875
10.750000	1	3.365250
10.766667	1	3.108875
10.783333	1	2.892125
10.800000	1	2.706000
10.816667	1	2.544500
10.833333	1	2.402625
10.850000	1	2.276875
10.866667	1	2.165000
10.883333	1	2.063875
10.900000	1	1.972750
10.916667	1	1.889875
10.933333	1	1.813500
10.950000	1	1.743500
10.966667	1	1.679125
10.983333	1	1.619250
11.000000	1	1.564250
11.016667	1	1.513000
11.033333	1	1.464750
11.050000	1	1.419000
11.066667	1	1.377000
11.083333	1	1.337250
11.100000	1	1.300500
11.116667	1	1.265750
11.133333	1	1.233625
11.150000	1	1.203125
11.166667	1	1.174625
11.183333	1	1.147250
11.200000	1	1.122000
11.216667	1	1.098750
11.233333	1	1.076625
11.250000	1	1.055750
11.266667	1	1.036750
11.283333	1	1.019625
11.300000	1	1.003250
11.316667	1	0.988000
11.333333	1	0.973375
11.350000	1	0.960500
11.366667	1	0.948875
11.383333	1	0.938125
11.400000	1	0.928625
11.416667	1	0.919875
11.433333	1	0.912000
11.450000	1	0.904875
11.466667	1	0.899000
11.483333	1	0.893875
11.500000	1	0.889875
11.516667	1	0.886625
11.533333	1	0.884125
11.550000	1	0.881875
11.566667	1	0.879875
11.583333	1	0.878625
11.600000	1	0.879125
11.616667	1	0.879500
11.633333	1	0.880750
11.650000	1	0.881875
11.666667	1	0.883375
11.683333	1	0.885000
11.700000	1	0.886125
11.716667	1	0.888625
11.733333	1	0.890500
11.750000	1	0.892125
11.766667	1	0.893875
11.783333	1	0.896000
11.800000	1	0.897750
11.816667	1	0.898750
11.833333	1	0.900250
11.850000	1	0.902125
11.866667	1	0.903375
11.883333	1	0.905125
11.900000	1	0.906750
11.916667	1	0.908375
11.933333	1	0.910875
11.950000	1	0.913500
11.966667	1	0.917375
11.983333	1	0.922000
12.000000	1	0.927250
12.016667	1	0.934625
12.033333	1	0.943000
12.050000	1	0.953875
12.066667	1	0.968000
12.083333	1	0.985625
12.100000	1	1.009250
12.116667	1	1.039625
12.133333	1	1.078500
12.150000	1	1.128000
12.166667	1	1.188750
12.183333	1	1.263625
12.200000	1	1.354750
12.216667	1	1.464375
12.233333	1	1.592500
12.250000	1	1.742000
12.266667	1	1.914125
12.283333	1	2.111750
12.300000	1	2.335125
12.316667	1	2.586875
12.333333	1	2.868875
12.350000	1	3.182750
12.366667	1	3.529250
12.383333	1	3.909250
12.400000	1	4.322625
12.416667	1	4.768500
12.433333	1	5.243750
12.450000	1	5.748125
12.466667	1	6.278125
12.483333	1	6.829750
12.500000	1	7.397625
12.516667	1	7.974750
12.533333	1	8.552750
12.550000	1	9.119625
12.566667	1	9.665375
12.583333	1	10.177625
12.600000	1	10.649000
12.616667	1	11.071625
12.633333	1	11.443250
12.650000	1	11.762125
12.666667	1	12.026375
12.683333	1	12.236750
12.700000	1	12.394125
12.716667	1	12.498000
12.733333	1	12.548625
12.750000	1	12.547750
12.766667	1	12.494000
12.783333	1	12.387750
12.800000	1	12.226750
12.816667	1	12.012750
12.833333	1	11.748625
12.850000	1	11.442375
12.866667	1	11.103625
12.883333	1	10.739500
12.900000	1	10.354375
12.916667	1	9.948875
12.933333	1	9.522250
12.950000	1	9.071750
12.966667	1	8.597750
12.983333	1	8.102375
13.000000	1	7.590125
13.016667	1	7.063875
13.033333	1	6.527750
13.050000	1	5.979125
13.066667	1	5.418375
13.083333	1	4.845125
13.100000	1	4.268500
13.116667	1	3.709250
13.133333	1	3.194000
13.150000	1	2.745875
13.166667	1	2.376375
13.183333	1	2.083875
13.200000	1	1.858000
13.216667	1	1.681500
13.233333	1	1.543875
13.250000	1	1.434375
13.266667	1	1.345000
13.283333	1	1.270875
13.300000	1	1.208375
13.316667	1	1.153875
13.333333	1	1.106125
13.350000	1	1.064000
13.366667	1	1.025625
13.383333	1	0.991000
13.400000	1	0.959250
13.416667	1	0.930000
13.433333	1	0.903875
13.450000	1	0.879000
13.466667	1	0.856375
13.483333	1	0.835625
13.500000	1	0.816875
13.516667	1	0.799500
13.533333	1	0.784000
13.550000	1	0.769750
13.566667	1	0.758000
13.583333	1	0.747000
13.600000	1	0.737500
13.616667	1	0.730375
13.633333	1	0.723750
13.650000	1	0.718000
13.666667	1	0.713875
13.683333	1	0.710625
13.700000	1	0.708875
13.716667	1	0.707375
13.733333	1	0.706625
13.750000	1	0.705875
13.766667	1	0.706250
13.783333	1	0.707000
13.800000	1	0.706875
13.816667	1	0.706125
13.833333	1	0.704375
13.850000	1	0.700625
13.866667	1	0.695750
13.883333	1	0.689000
13.900000	1	0.680250
13.916667	1	0.670250
13.933333	1	0.658375
13.950000	1	0.645500
13.966667	1	0.632250
13.983333	1	0.618000
14.000000	1	0.604000
14.016667	1	0.590125
14.033333	1	0.577125
14.050000	1	0.564000
14.066667	1	0.551875
14.083333	1	0.540250
14.100000	1	0.530375
14.116667	1	0.520875
14.133333	1	0.512000
14.150000	1	0.504625
14.166667	1	0.498500
14.183333	1	0.493125
14.200000	1	0.489125
14.216667	1	0.486750
14.233333	1	0.485000
14.250000	1	0.484875
14.266667	1	0.485750
14.283333	1	0.488875
14.300000	1	0.493625
14.316667	1	0.500625
14.333333	1	0.509125
14.350000	1	0.520500
14.366667	1	0.535125
14.383333	1	0.552625
14.400000	1	0.574250
14.416667	1	0.600875
14.433333	1	0.632875
14.450000	1	0.671125
14.466667	1	0.717250
14.483333	1	0.772500
14.500000	1	0.838875
14.516667	1	0.919375
14.533333	1	1.018375
14.550000	1	1.139750
14.566667	1	1.287875
14.583333	1	1.473250
14.600000	1	1.705000
14.616667	1	1.993625
14.633333	1	2.355125
14.650000	1	2.804500
14.666667	1	3.361500
14.683333	1	4.044500
14.700000	1	4.872000
14.716667	1	5.860625
14.733333	1	7.026625
14.750000	1	8.380375
14.766667	1	9.930750
14.783333	1	11.675375
14.800000	1	13.611750
14.816667	1	15.729250
14.833333	1	18.015500
14.850000	1	20.448875
14.866667	1	23.003125
14.883333	1	25.646375
14.900000	1	28.342000
14.916667	1	31.048875
14.933333	1	33.721875
14.950000	1	36.313500
14.966667	1	38.768125
14.983333	1	41.029250
15.000000	1	43.039125
15.016667	1	44.742375
15.033333	1	46.085250
15.050000	1	47.022500
15.066667	1	47.516500
15.083333	1	47.545125
15.100000	1	47.100000
15.116667	1	46.194875
15.133333	1	44.859250
15.150000	1	43.137375
15.166667	1	41.088750
15.183333	1	38.782000
15.200000	1	36.285750
15.216667	1	33.670250
15.233333	1	31.001375
15.250000	1	28.336625
15.266667	1	25.729125
15.283333	1	23.222750
15.300000	1	20.851125
15.316667	1	18.639000
15.333333	1	16.601125
15.350000	1	14.743875
15.366667	1	13.068625
15.383333	1	11.570500
15.400000	1	10.239250
15.416667	1	9.062625
15.433333	1	8.028875
15.450000	1	7.123500
15.466667	1	6.333750
15.483333	1	5.646625
15.500000	1	5.051250
15.516667	1	4.538125
15.533333	1	4.094625
15.550000	1	3.713375
15.566667	1	3.386250
15.583333	1	3.104625
15.600000	1	2.864250
15.616667	1	2.657875
15.633333	1	2.480250
15.650000	1	2.327750
15.666667	1	2.196375
15.683333	1	2.083125
15.700000	1	1.985750
15.716667	1	1.901375
15.733333	1	1.828000
15.750000	1	1.762625
15.766667	1	1.704375
15.783333	1	1.650500
15.800000	1	1.600125
15.816667	1	1.553125
15.833333	1	1.507125
15.850000	1	1.461750
15.866667	1	1.416750
15.883333	1	1.373250
15.900000	1	1.330125
15.916667	1	1.287500
15.933333	1	1.245875
15.950000	1	1.205000
15.966667	1	1.165750
15.983333	1	1.128625
16.000000	1	1.092375
16.016667	1	1.059125
16.033333	1	1.027125
16.050000	1	0.997875
16.066667	1	0.969625
16.083333	1	0.944125
16.100000	1	0.920375
16.116667	1	0.899250
16.133333	1	0.879375
16.150000	1	0.862125
16.166667	1	0.846000
16.183333	1	0.832000
16.200000	1	0.819375
16.216667	1	0.808500
16.233333	1	0.798500
16.250000	1	0.790250
16.266667	1	0.783375
16.283333	1	0.777000
16.300000	1	0.771875
16.316667	1	0.767500
16.333333	1	0.763750
16.350000	1	0.761000
16.366667	1	0.758000
16.383333	1	0.755625
16.400000	1	0.753625
16.416667	1	0.752000
16.433333	1	0.750125
16.450000	1	0.747750
16.466667	1	0.745875
16.483333	1	0.744000
16.500000	1	0.742125
16.516667	1	0.739625
16.533333	1	0.737875
16.550000	1	0.736750
16.566667	1	0.735125
16.583333	1	0.734250
16.600000	1	0.734000
16.616667	1	0.734875
16.633333	1	0.736250
16.650000	1	0.738000
16.666667	1	0.740375
16.683333	1	0.743125
16.700000	1	0.746875
16.716667	1	0.750250
16.733333	1	0.754875
16.750000	1	0.759250
16.766667	1	0.764000
16.783333	1	0.768625
16.800000	1	0.774250
16.816667	1	0.779875
16.833333	1	0.785375
16.850000	1	0.790500
16.866667	1	0.794625
16.883333	1	0.798875
16.900000	1	0.802500
16.916667	1	0.805500
16.933333	1	0.808875
16.950000	1	0.811375
16.966667	1	0.813375
16.983333	1	0.815125
17.000000	1	0.815625
17.016667	1	0.815875
17.033333	1	0.815125
17.050000	1	0.813750
17.066667	1	0.812500
17.083333	1	0.811375
17.100000	1	0.809500
17.116667	1	0.807250
17.133333	1	0.805000
17.150000	1	0.802625
17.166667	1	0.799625
17.183333	1	0.796625
17.200000	1	0.794000
17.216667	1	0.791250
17.233333	1	0.787750
17.250000	1	0.783375
17.266667	1	0.778375
17.283333	1	0.773625
17.300000	1	0.767375
17.316667	1	0.761000
17.333333	1	0.754375
17.350000	1	0.746250
17.366667	1	0.737500
17.383333	1	0.728500
17.400000	1	0.719750
17.416667	1	0.710375
17.433333	1	0.701125
17.450000	1	0.692125
17.466667	1	0.683125
17.483333	1	0.674375
17.500000	1	0.666375
17.516667	1	0.659500
17.533333	1	0.654500
17.550000	1	0.649875
17.566667	1	0.647500
17.583333	1	0.646500
17.600000	1	0.646000
17.616667	1	0.647625
17.633333	1	0.650125
17.650000	1	0.653875
17.666667	1	0.658750
17.683333	1	0.665625
17.700000	1	0.674375
17.716667	1	0.683250
17.733333	1	0.694250
17.750000	1	0.705500
17.766667	1	0.718625
17.783333	1	0.731625
17.800000	1	0.745250
17.816667	1	0.759375
17.833333	1	0.773250
17.850000	1	0.787000
17.866667	1	0.800125
17.883333	1	0.812750
17.900000	1	0.825625
17.916667	1	0.837000
17.933333	1	0.847625
17.950000	1	0.856625
17.966667	1	0.864000
17.983333	1	0.870500
18.000000	1	0.875750
18.016667	1	0.878875
18.033333	1	0.880500
18.050000	1	0.880500
18.066667	1	0.878250
18.083333	1	0.875250
18.100000	1	0.870500
18.116667	1	0.864000
18.133333	1	0.856000
18.150000	1	0.847375
18.166667	1	0.837875
18.183333	1	0.828000
18.200000	1	0.817500
18.216667	1	0.806750
18.233333	1	0.795000
18.250000	1	0.783625
18.266667	1	0.772875
18.283333	1	0.762125
18.300000	1	0.751375
18.316667	1	0.741250
18.333333	1	0.731750
18.350000	1	0.723500
18.366667	1	0.715750
18.383333	1	0.708625
18.400000	1	0.701500
18.416667	1	0.695375
18.433333	1	0.690125
18.450000	1	0.684625
18.466667	1	0.681250
18.483333	1	0.678000
18.500000	1	0.675000
18.516667	1	0.673250
18.533333	1	0.672875
18.550000	1	0.672750
18.566667	1	0.672250
18.583333	1	0.672875
18.600000	1	0.674250
18.616667	1	0.674875
18.633333	1	0.675875
18.650000	1	0.677250
18.666667	1	0.678500
18.683333	1	0.680125
18.700000	1	0.681625
18.716667	1	0.684625
18.733333	1	0.686250
18.750000	1	0.689000
18.766667	1	0.691625
18.783333	1	0.695500
18.800000	1	0.699500
18.816667	1	0.704125
18.833333	1	0.708625
18.850000	1	0.714000
18.866667	1	0.720250
18.883333	1	0.727125
18.900000	1	0.735000
18.916667	1	0.743500
18.933333	1	0.754125
18.950000	1	0.765125
18.966667	1	0.777750
18.983333	1	0.791875
19.000000	1	0.808500
19.016667	1	0.826125
19.033333	1	0.845125
19.050000	1	0.865875
19.066667	1	0.888750
19.083333	1	0.912875
19.100000	1	0.939125
19.116667	1	0.966500
19.133333	1	0.994750
19.150000	1	1.024500
19.166667	1	1.055750
19.183333	1	1.087250
19.200000	1	1.118250
19.216667	1	1.149500
19.233333	1	1.179250
19.250000	1	1.208000
19.266667	1	1.235625
19.283333	1	1.260625
19.300000	1	1.282625
19.316667	1	1.302250
19.333333	1	1.317750
19.350000	1	1.329375
19.366667	1	1.336625
19.383333	1	1.338750
19.400000	1	1.336750
19.416667	1	1.329250
19.433333	1	1.316625
19.450000	1	1.299750
19.466667	1	1.279000
19.483333	1	1.254500
19.500000	1	1.226250
19.516667	1	1.194250
19.533333	1	1.160000
19.550000	1	1.124125
19.566667	1	1.086625
19.583333	1	1.048750
19.600000	1	1.010750
19.616667	1	0.972250
19.633333	1	0.933875
19.650000	1	0.897500
19.666667	1	0.863250
19.683333	1	0.830250
19.700000	1	0.799750
19.716667	1	0.772375
19.733333	1	0.747125
19.750000	1	0.725250
19.766667	1	0.706250
19.783333	1	0.690125
19.800000	1	0.677500
19.816667	1	0.668250
19.833333	1	0.661750
19.850000	1	0.657875
19.866667	1	0.656625
19.883333	1	0.658375
19.900000	1	0.662875
19.916667	1	0.669625
19.933333	1	0.679000
19.950000	1	0.690625
19.966667	1	0.703375
19.983333	1	0.717250
20.000000	1	0.731750
20.016667	1	0.747750
20.033333	1	0.763875
20.050000	1	0.780500
20.066667	1	0.797750
20.083333	1	0.814750
20.100000	1	0.831500
20.116667	1	0.847500
20.133333	1	0.863000
20.150000	1	0.878125
20.166667	1	0.892000
20.183333	1	0.905125
20.200000	1	0.918250
20.216667	1	0.929750
20.233333	1	0.941000
20.250000	1	0.951875
20.266667	1	0.962500
20.283333	1	0.973500
20.300000	1	0.984750
20.316667	1	0.996000
20.333333	1	1.007500
20.350000	1	1.020250
20.366667	1	1.033750
20.383333	1	1.048875
20.400000	1	1.063875
20.416667	1	1.079250
20.433333	1	1.095750
20.450000	1	1.112375
20.466667	1	1.129875
20.483333	1	1.147500
20.500000	1	1.165250
20.516667	1	1.183250
20.533333	1	1.200125
20.550000	1	1.216625
20.566667	1	1.232250
20.583333	1	1.246000
20.600000	1	1.258625
20.616667	1	1.269375
20.633333	1	1.278500
20.650000	1	1.285375
20.666667	1	1.291000
20.683333	1	1.295125
20.700000	1	1.297875
20.716667	1	1.299250
20.733333	1	1.301125
20.750000	1	1.302750
20.766667	1	1.304875
20.783333	1	1.307250
20.800000	1	1.310750
20.816667	1	1.315000
20.833333	1	1.321000
20.850000	1	1.330125
20.866667	1	1.340625
20.883333	1	1.352875
20.900000	1	1.367875
20.916667	1	1.383625
20.933333	1	1.400750
20.950000	1	1.417875
20.966667	1	1.435375
20.983333	1	1.451750
21.000000	1	1.467000
21.016667	1	1.479125
21.033333	1	1.488000
21.050000	1	1.492125
21.066667	1	1.491000
21.083333	1	1.484625
21.100000	1	1.472375
21.116667	1	1.454875
21.133333	1	1.431000
21.150000	1	1.401625
21.166667	1	1.365875
21.183333	1	1.325625
21.200000	1	1.281250
21.216667	1	1.233250
21.233333	1	1.182875
21.250000	1	1.130375
21.266667	1	1.076750
21.283333	1	1.023750
21.300000	1	0.971375
21.316667	1	0.920250
21.333333	1	0.870250
21.350000	1	0.822750
21.366667	1	0.777250
21.383333	1	0.735125
21.400000	1	0.696000
21.416667	1	0.659375
21.433333	1	0.625875
21.450000	1	0.595875
21.466667	1	0.567875
21.483333	1	0.543625
21.500000	1	0.521500
21.516667	1	0.502625
21.533333	1	0.485250
21.550000	1	0.469500
21.566667	1	0.455750
21.583333	1	0.443875
21.600000	1	0.433375
21.616667	1	0.423875
21.633333	1	0.416125
21.650000	1	0.409125
21.666667	1	0.403500
21.683333	1	0.398375
21.700000	1	0.394375
21.716667	1	0.391250
21.733333	1	0.388500
21.750000	1	0.386750
21.766667	1	0.385625
21.783333	1	0.385125
21.800000	1	0.384000
21.816667	1	0.383875
21.833333	1	0.383875
21.850000	1	0.384000
21.866667	1	0.385500
21.883333	1	0.387625
21.900000	1	0.389500
21.916667	1	0.391500
21.933333	1	0.394500
21.950000	1	0.397375
21.966667	1	0.400375
21.983333	1	0.404000
22.000000	1	0.408000
22.016667	1	0.411625
22.033333	1	0.415250
22.050000	1	0.418750
22.066667	1	0.422000
22.083333	1	0.426125
22.100000	1	0.429875
22.116667	1	0.432750
22.133333	1	0.435125
22.150000	1	0.437250
22.166667	1	0.439250
22.183333	1	0.440500
22.200000	1	0.440500
22.216667	1	0.440750
22.233333	1	0.440375
22.250000	1	0.438750
22.266667	1	0.437250
22.283333	1	0.434875
22.300000	1	0.432750
22.316667	1	0.429625
22.333333	1	0.426875
22.350000	1	0.423750
22.366667	1	0.421000
22.383333	1	0.418750
22.400000	1	0.416250
22.416667	1	0.414125
22.433333	1	0.412375
22.450000	1	0.410875
22.466667	1	0.410000
22.483333	1	0.409250
22.500000	1	0.408750
22.516667	1	0.409125
22.533333	1	0.410375
22.550000	1	0.411250
22.566667	1	0.413250
22.583333	1	0.415125
22.600000	1	0.417000
22.616667	1	0.419625
22.633333	1	0.422750
22.650000	1	0.425625
22.666667	1	0.428375
22.683333	1	0.431000
22.700000	1	0.433250
22.716667	1	0.435250
22.733333	1	0.438000
22.750000	1	0.440125
22.766667	1	0.441750
22.783333	1	0.443250
22.800000	1	0.444000
22.816667	1	0.444750
22.833333	1	0.445125
22.850000	1	0.445125
22.866667	1	0.444000
22.883333	1	0.443375
22.900000	1	0.441750
22.916667	1	0.440000
22.933333	1	0.438125
22.950000	1	0.435500
22.966667	1	0.432625
22.983333	1	0.429750
23.000000	1	0.426625
23.016667	1	0.422125
23.033333	1	0.418125
23.050000	1	0.414500
23.066667	1	0.410375
23.083333	1	0.406250
23.100000	1	0.403125
23.116667	1	0.400250
23.133333	1	0.397250
23.150000	1	0.394250
23.166667	1	0.392500
23.183333	1	0.390500
23.200000	1	0.389250
23.216667	1	0.389000
23.233333	1	0.389125
23.250000	1	0.390125
23.266667	1	0.392500
23.283333	1	0.395250
23.300000	1	0.398875
23.316667	1	0.404500
23.333333	1	0.411375
23.350000	1	0.419250
23.366667	1	0.428750
23.383333	1	0.439625
23.400000	1	0.453000
23.416667	1	0.469250
23.433333	1	0.487250
23.450000	1	0.508625
23.466667	1	0.533000
23.483333	1	0.561250
23.500000	1	0.593375
23.516667	1	0.630375
23.533333	1	0.672625
23.550000	1	0.720875
23.566667	1	0.775375
23.583333	1	0.835875
23.600000	1	0.903750
23.616667	1	0.978500
23.633333	1	1.061875
23.650000	1	1.153625
23.666667	1	1.252875
23.683333	1	1.360250
23.700000	1	1.475875
23.716667	1	1.600625
23.733333	1	1.734250
23.750000	1	1.875125
23.766667	1	2.022500
23.783333	1	2.176500
23.800000	1	2.335750
23.816667	1	2.500000
23.833333	1	2.666500
23.850000	1	2.835125
23.866667	1	3.004000
23.883333	1	3.171625
23.900000	1	3.335625
23.916667	1	3.494750
23.933333	1	3.645625
23.950000	1	3.786875
23.966667	1	3.915625
23.983333	1	4.030125
24.000000	1	4.127875
24.016667	1	4.206875
24.033333	1	4.266125
24.050000	1	4.304125
24.066667	1	4.320875
24.083333	1	4.315625
24.100000	1	4.288250
24.116667	1	4.239875
24.133333	1	4.170750
24.150000	1	4.082000
24.166667	1	3.976250
24.183333	1	3.854625
24.200000	1	3.720125
24.216667	1	3.574250
24.233333	1	3.420375
24.250000	1	3.260750
24.266667	1	3.096625
24.283333	1	2.931625
24.300000	1	2.767500
24.316667	1	2.604875
24.333333	1	2.446375
24.350000	1	2.293125
24.366667	1	2.145625
24.383333	1	2.005875
24.400000	1	1.874625
24.416667	1	1.751375
24.433333	1	1.637875
24.450000	1	1.532625
24.466667	1	1.436250
24.483333	1	1.347750
24.500000	1	1.267625
24.516667	1	1.193875
24.533333	1	1.126750
24.550000	1	1.066750
24.566667	1	1.012000
24.583333	1	0.962000
24.600000	1	0.917125
24.616667	1	0.876000
24.633333	1	0.838625
24.650000	1	0.803875
24.666667	1	0.772000
24.683333	1	0.742500
24.700000	1	0.714625
24.716667	1	0.689250
24.733333	1	0.664250
24.750000	1	0.640250
24.766667	1	0.617000
24.783333	1	0.595125
24.800000	1	0.573750
24.816667	1	0.553750
24.833333	1	0.533125
24.850000	1	0.514250
24.866667	1	0.495625
24.883333	1	0.477750
24.900000	1	0.460125
24.916667	1	0.442750
24.933333	1	0.426375
24.950000	1	0.410875
24.966667	1	0.396500
24.983333	1	0.382000
25.000000	1	0.368875
25.016667	1	0.356500
25.033333	1	0.344875
25.050000	1	0.334250
25.066667	1	0.324875
25.083333	1	0.316000
25.100000	1	0.307750
25.116667	1	0.300375
25.133333	1	0.293375
25.150000	1	0.287750
25.166667	1	0.282625
25.183333	1	0.278000
25.200000	1	0.274625
25.216667	1	0.272375
25.233333	1	0.269625
25.250000	1	0.268125
25.266667	1	0.267250
25.283333	1	0.266750
25.300000	1	0.266000
25.316667	1	0.266500
25.333333	1	0.267375
25.350000	1	0.268750
25.366667	1	0.270125
25.383333	1	0.272000
25.400000	1	0.273875
25.416667	1	0.276000
25.433333	1	0.277625
25.450000	1	0.280500
25.466667	1	0.282875
25.483333	1	0.285250
25.500000	1	0.287500
25.516667	1	0.290375
25.533333	1	0.292500
25.550000	1	0.294750
25.566667	1	0.296500
25.583333	1	0.299125
25.600000	1	0.301375
25.616667	1	0.303000
25.633333	1	0.304875
25.650000	1	0.306250
25.666667	1	0.307125
25.683333	1	0.307875
25.700000	1	0.308500
25.716667	1	0.309750
25.733333	1	0.310250
25.750000	1	0.311375
25.766667	1	0.311500
25.783333	1	0.311750
25.800000	1	0.311500
25.816667	1	0.310875
25.833333	1	0.310500
25.850000	1	0.310125
25.866667	1	0.310125
25.883333	1	0.310000
25.900000	1	0.310000
25.916667	1	0.309250
25.933333	1	0.308125
25.950000	1	0.307625
25.966667	1	0.307875
25.983333	1	0.307125
26.000000	1	0.306125
26.016667	1	0.305500
26.033333	1	0.305250
26.050000	1	0.304875
26.066667	1	0.305250
26.083333	1	0.305125
26.100000	1	0.305000
26.116667	1	0.304625
26.133333	1	0.305125
26.150000	1	0.305375
26.166667	1	0.306375
26.183333	1	0.307500
26.200000	1	0.307250
26.216667	1	0.308000
26.233333	1	0.308750
26.250000	1	0.309375
26.266667	1	0.310750
26.283333	1	0.311625
26.300000	1	0.313125
26.316667	1	0.314500
26.333333	1	0.315250
26.350000	1	0.316750
26.366667	1	0.318500
26.383333	1	0.319250
26.400000	1	0.320500
26.416667	1	0.320750
26.433333	1	0.321000
26.450000	1	0.320625
26.466667	1	0.320625
26.483333	1	0.320500
26.500000	1	0.319750
26.516667	1	0.319250
26.533333	1	0.317250
26.550000	1	0.315500
26.566667	1	0.312750
26.583333	1	0.309500
26.600000	1	0.306250
26.616667	1	0.302875
26.633333	1	0.298500
26.650000	1	0.294625
26.666667	1	0.289750
26.683333	1	0.284125
26.700000	1	0.278750
26.716667	1	0.273250
26.733333	1	0.267250
26.750000	1	0.261250
26.766667	1	0.254625
26.783333	1	0.248500
26.800000	1	0.241750
26.816667	1	0.235500
26.833333	1	0.229125
26.850000	1	0.223375
26.866667	1	0.217500
26.883333	1	0.211750
26.900000	1	0.206250
26.916667	1	0.201125
26.933333	1	0.196000
26.950000	1	0.191500
26.966667	1	0.187125
26.983333	1	0.183875
27.000000	1	0.180375
27.016667	1	0.177750
27.033333	1	0.175875
27.050000	1	0.174250
27.066667	1	0.172375
27.083333	1	0.171875
27.100000	1	0.171500
27.116667	1	0.171125
27.133333	1	0.172000
27.150000	1	0.173000
27.166667	1	0.174875
27.183333	1	0.178125
27.200000	1	0.180500
27.216667	1	0.184750
27.233333	1	0.189125
27.250000	1	0.194250
27.266667	1	0.200125
27.283333	1	0.206750
27.300000	1	0.214000
27.316667	1	0.222875
27.333333	1	0.232750
27.350000	1	0.244000
27.366667	1	0.257125
27.383333	1	0.270875
27.400000	1	0.287125
27.416667	1	0.304875
27.433333	1	0.325625
27.450000	1	0.348000
27.466667	1	0.373375
27.483333	1	0.401250
27.500000	1	0.432250
27.516667	1	0.466125
27.533333	1	0.503875
27.550000	1	0.546250
27.566667	1	0.592500
27.583333	1	0.642500
27.600000	1	0.697875
27.616667	1	0.758125
27.633333	1	0.823875
27.650000	1	0.894250
27.666667	1	0.970000
27.683333	1	1.050625
27.700000	1	1.137125
27.716667	1	1.227875
27.733333	1	1.324625
27.750000	1	1.425500
27.766667	1	1.532125
27.783333	1	1.642625
27.800000	1	1.757375
27.816667	1	1.875500
27.833333	1	1.996000
27.850000	1	2.119625
27.866667	1	2.244500
27.883333	1	2.369750
27.900000	1	2.494625
27.916667	1	2.618625
27.933333	1	2.740625
27.950000	1	2.859625
27.966667	1	2.974000
27.983333	1	3.082750
28.000000	1	3.185000
28.016667	1	3.279500
28.033333	1	3.363500
28.050000	1	3.439250
28.066667	1	3.502875
28.083333	1	3.555125
28.100000	1	3.593375
28.116667	1	3.618375
28.133333	1	3.629500
28.150000	1	3.625750
28.166667	1	3.607500
28.183333	1	3.574000
28.200000	1	3.525750
28.216667	1	3.464500
28.233333	1	3.389250
28.250000	1	3.301000
28.266667	1	3.201000
28.283333	1	3.090625
28.300000	1	2.970875
28.316667	1	2.843500
28.333333	1	2.709750
28.350000	1	2.570750
28.366667	1	2.428375
28.383333	1	2.284375
28.400000	1	2.140250
28.416667	1	1.995625
28.433333	1	1.852500
28.450000	1	1.711750
28.466667	1	1.574750
28.483333	1	1.441000
28.500000	1	1.311750
28.516667	1	1.186750
28.533333	1	1.066750
28.550000	1	0.951625
28.566667	1	0.841625
28.583333	1	0.736500
28.600000	1	0.636000
28.616667	1	0.540750
28.633333	1	0.450125
28.650000	1	0.363375
28.666667	1	0.280375
28.683333	1	0.200500
28.700000	1	0.124250
28.716667	1	0.052000
28.733333	1	-0.016500
28.750000	1	-0.083000
28.766667	1	-0.146625
28.783333	1	-0.207000
28.800000	1	-0.265125
28.816667	1	-0.319875
28.833333	1	-0.371625
28.850000	1	-0.421000
28.866667	1	-0.467125
28.883333	1	-0.510875
28.900000	1	-0.550750
28.916667	1	-0.587500
28.933333	1	-0.621125
28.950000	1	-0.650625
28.966667	1	-0.677125
28.983333	1	-0.699875
29.000000	1	-0.718750
29.016667	1	-0.732750
29.033333	1	-0.743250
29.050000	1	-0.750000
29.066667	1	-0.752625
29.083333	1	-0.750750
29.100000	1	-0.744875
29.116667	1	-0.735500
29.133333	1	-0.722375
29.150000	1	-0.706000
29.166667	1	-0.685750
29.183333	1	-0.662875
29.200000	1	-0.636500
29.216667	1	-0.607375
29.233333	1	-0.576375
29.250000	1	-0.542750
29.266667	1	-0.507250
29.283333	1	-0.470625
29.300000	1	-0.432875
29.316667	1	-0.393875
29.333333	1	-0.354125
29.350000	1	-0.314500
29.366667	1	-0.274125
29.383333	1	-0.234125
29.400000	1	-0.193500
29.416667	1	-0.154250
29.433333	1	-0.115250
29.450000	1	-0.077125
29.466667	1	-0.039750
29.483333	1	-0.004375
29.500000	1	0.029500
29.516667	1	0.062250
29.533333	1	0.093375
29.550000	1	0.123250
29.566667	1	0.151375
29.583333	1	0.178125
29.600000	1	0.203625
29.616667	1	0.227375
29.633333	1	0.249125
29.650000	1	0.269125
29.666667	1	0.288000
29.683333	1	0.305375
29.700000	1	0.320500
29.716667	1	0.334500
29.733333	1	0.347375
29.750000	1	0.358875
29.766667	1	0.368875
29.783333	1	0.377375
29.800000	1	0.385000
29.816667	1	0.391125
29.833333	1	0.396625
29.850000	1	0.401750
29.866667	1	0.405375
29.883333	1	0.407750
29.900000	1	0.409750
29.916667	1	0.411250
29.933333	1	0.412875
29.950000	1	0.413500
29.966667	1	0.414750
29.983333	1	0.415625
30.000000	1	0.416000
30.016667	1	0.416375
30.033333	1	0.417250
30.050000	1	0.418125
30.066667	1	0.418750
30.083333	1	0.420375
30.100000	1	0.422375
30.116667	1	0.424875
30.133333	1	0.427875
30.150000	1	0.432250
30.166667	1	0.437625
30.183333	1	0.444625
30.200000	1	0.452625
30.216667	1	0.461750
30.233333	1	0.471750
30.250000	1	0.484250
30.266667	1	0.497625
30.283333	1	0.513375
30.300000	1	0.531750
30.316667	1	0.551500
30.333333	1	0.573375
30.350000	1	0.597625
30.366667	1	0.625000
30.383333	1	0.654250
30.400000	1	0.686750
30.416667	1	0.722625
30.433333	1	0.761625
30.450000	1	0.803625
30.466667	1	0.848000
30.483333	1	0.895750
30.500000	1	0.946125
30.516667	1	1.000500
30.533333	1	1.057000
30.550000	1	1.116750
30.566667	1	1.179000
30.583333	1	1.244125
30.600000	1	1.311500
30.616667	1	1.380250
30.633333	1	1.451875
30.650000	1	1.523500
30.666667	1	1.596875
30.683333	1	1.669125
30.700000	1	1.741375
30.716667	1	1.813125
30.733333	1	1.883000
30.750000	1	1.950750
30.766667	1	2.016250
30.783333	1	2.077375
30.800000	1	2.134875
30.816667	1	2.188250
30.833333	1	2.236125
30.850000	1	2.277750
30.866667	1	2.312500
30.883333	1	2.340625
30.900000	1	2.361500
30.916667	1	2.374750
30.933333	1	2.380750
30.950000	1	2.379375
30.966667	1	2.369875
30.983333	1	2.353250
31.000000	1	2.328375
31.016667	1	2.296250
31.033333	1	2.258250
31.050000	1	2.213375
31.066667	1	2.163000
31.083333	1	2.106875
31.100000	1	2.046000
31.116667	1	1.982125
31.133333	1	1.915250
31.150000	1	1.845125
31.166667	1	1.772250
31.183333	1	1.698875
31.200000	1	1.625250
31.216667	1	1.550875
31.233333	1	1.476500
31.250000	1	1.403125
31.266667	1	1.331375
31.283333	1	1.260500
31.300000	1	1.192125
31.316667	1	1.126250
31.333333	1	1.063625
31.350000	1	1.003500
31.366667	1	0.946125
31.383333	1	0.891750
31.400000	1	0.840250
31.416667	1	0.791875
31.433333	1	0.745875
31.450000	1	0.703500
31.466667	1	0.663875
31.483333	1	0.627000
31.500000	1	0.592875
31.516667	1	0.561750
31.533333	1	0.532500
31.550000	1	0.505875
31.566667	1	0.481625
31.583333	1	0.459000
31.600000	1	0.439250
31.616667	1	0.419875
31.633333	1	0.402375
31.650000	1	0.387375
31.666667	1	0.373250
31.683333	1	0.361500
31.700000	1	0.350125
31.716667	1	0.340375
31.733333	1	0.331250
31.750000	1	0.323250
31.766667	1	0.316375
31.783333	1	0.310000
31.800000	1	0.305125
31.816667	1	0.300750
31.833333	1	0.296750
31.850000	1	0.293625
31.866667	1	0.290000
31.883333	1	0.287375
31.900000	1	0.285625
31.916667	1	0.284000
31.933333	1	0.282750
31.950000	1	0.280875
31.966667	1	0.280500
31.983333	1	0.279375
32.000000	1	0.278625
32.016667	1	0.277875
32.033333	1	0.276375
32.050000	1	0.275375
32.066667	1	0.274125
32.083333	1	0.272375
32.100000	1	0.270875
32.116667	1	0.269250
32.133333	1	0.267375
32.150000	1	0.264750
32.166667	1	0.261500
32.183333	1	0.258375
32.200000	1	0.254750
32.216667	1	0.250875
32.233333	1	0.246125
32.250000	1	0.240750
32.266667	1	0.235250
32.283333	1	0.230125
32.300000	1	0.224375
32.316667	1	0.218375
32.333333	1	0.211500
32.350000	1	0.204875
32.366667	1	0.197500
32.383333	1	0.190125
32.400000	1	0.182875
32.416667	1	0.174625
32.433333	1	0.167000
32.450000	1	0.159125
32.466667	1	0.151375
32.483333	1	0.144000
32.500000	1	0.136625
32.516667	1	0.129875
32.533333	1	0.123000
32.550000	1	0.116500
32.566667	1	0.110125
32.583333	1	0.104125
32.600000	1	0.097375
32.616667	1	0.091250
32.633333	1	0.085500
32.650000	1	0.079875
32.666667	1	0.074375
32.683333	1	0.068875
32.700000	1	0.065000
32.716667	1	0.060875
32.733333	1	0.056125
32.750000	1	0.052375
32.766667	1	0.049375
32.783333	1	0.046500
32.800000	1	0.043500
32.816667	1	0.040750
32.833333	1	0.038125
32.850000	1	0.035000
32.866667	1	0.033000
32.883333	1	0.030875
32.900000	1	0.028500
32.916667	1	0.027000
32.933333	1	0.025375
32.950000	1	0.023250
32.966667	1	0.021625
32.983333	1	0.020375
33.000000	1	0.018750
33.016667	1	0.017875
33.033333	1	0.016750
33.050000	1	0.014500
33.066667	1	0.012875
33.083333	1	0.011875
33.100000	1	0.010125
33.116667	1	0.009625
33.133333	1	0.008875
33.150000	1	0.008000
33.166667	1	0.007000
33.183333	1	0.006000
33.200000	1	0.005625
33.216667	1	0.005250
33.233333	1	0.004625
33.250000	1	0.003875
33.266667	1	0.003375
33.283333	1	0.002750
33.300000	1	0.002875
33.316667	1	0.002875
33.333333	1	0.002375
33.350000	1	0.001625
33.366667	1	0.002875
33.383333	1	0.002750
33.400000	1	0.003750
33.416667	1	0.003750
33.433333	1	0.004625
33.450000	1	0.005625
33.466667	1	0.006625
33.483333	1	0.007500
33.500000	1	0.009250
33.516667	1	0.010625
33.533333	1	0.012375
33.550000	1	0.014375
33.566667	1	0.017000
33.583333	1	0.019750
33.600000	1	0.022625
33.616667	1	0.024875
33.633333	1	0.027250
33.650000	1	0.031000
33.666667	1	0.035000
33.683333	1	0.039000
33.700000	1	0.043875
33.716667	1	0.049250
33.733333	1	0.055125
33.750000	1	0.060875
33.766667	1	0.068000
33.783333	1	0.075500
33.800000	1	0.083250
33.816667	1	0.091500
33.833333	1	0.100125
33.850000	1	0.109625
33.866667	1	0.120000
33.883333	1	0.131000
33.900000	1	0.142500
33.916667	1	0.155750
33.933333	1	0.168875
33.950000	1	0.183500
33.966667	1	0.198875
33.983333	1	0.214625
34.000000	1	0.230625
34.016667	1	0.248250
34.033333	1	0.266000
34.050000	1	0.284875
34.066667	1	0.304750
34.083333	1	0.325250
34.100000	1	0.346625
34.116667	1	0.367875
34.133333	1	0.390000
34.150000	1	0.412875
34.166667	1	0.436500
34.183333	1	0.460125
34.200000	1	0.483500
34.216667	1	0.507000
34.233333	1	0.530375
34.250000	1	0.553375
34.266667	1	0.575375
34.283333	1	0.597750
34.300000	1	0.618750
34.316667	1	0.639250
34.333333	1	0.658875
34.350000	1	0.677125
34.366667	1	0.693500
34.383333	1	0.709625
34.400000	1	0.723250
34.416667	1	0.734875
34.433333	1	0.744750
34.450000	1	0.752750
34.466667	1	0.758375
34.483333	1	0.762500
34.500000	1	0.764875
34.516667	1	0.765125
34.533333	1	0.763250
34.550000	1	0.759125
34.566667	1	0.752375
34.583333	1	0.744000
34.600000	1	0.734125
34.616667	1	0.722375
34.633333	1	0.708875
34.650000	1	0.694625
34.666667	1	0.678000
34.683333	1	0.661375
34.700000	1	0.643625
34.716667	1	0.624125
34.733333	1	0.604625
34.750000	1	0.584500
34.766667	1	0.563625
34.783333	1	0.542750
34.800000	1	0.522000
34.816667	1	0.501000
34.833333	1	0.479625
34.850000	1	0.459000
34.866667	1	0.439250
34.883333	1	0.420125
34.900000	1	0.400625
34.916667	1	0.382500
34.933333	1	0.365125
34.950000	1	0.348875
34.966667	1	0.333500
34.983333	1	0.318500
35.000000	1	0.304500
35.016667	1	0.291125
35.033333	1	0.279000
35.050000	1	0.268125
35.066667	1	0.257625
35.083333	1	0.248250
35.100000	1	0.239375
35.116667	1	0.231375
35.133333	1	0.223625
35.150000	1	0.217500
35.166667	1	0.212000
35.183333	1	0.206750
35.200000	1	0.201500
35.216667	1	0.197250
35.233333	1	0.193250
35.250000	1	0.190250
35.266667	1	0.187875
35.283333	1	0.185750
35.300000	1	0.184000
35.316667	1	0.182375
35.333333	1	0.179875
35.350000	1	0.178625
35.366667	1	0.177250
35.383333	1	0.176125
35.400000	1	0.175375
35.416667	1	0.174500
35.433333	1	0.173750
35.450000	1	0.173250
35.466667	1	0.172750
35.483333	1	0.171625
35.500000	1	0.170375
35.516667	1	0.168875
35.533333	1	0.167750
35.550000	1	0.166875
35.566667	1	0.165625
35.583333	1	0.164625
35.600000	1	0.163375
35.616667	1	0.161750
35.633333	1	0.160250
35.650000	1	0.158625
35.666667	1	0.157000
35.683333	1	0.155375
35.700000	1	0.153375
35.716667	1	0.151750
35.733333	1	0.149625
35.750000	1	0.147750
35.766667	1	0.146125
35.783333	1	0.144625
35.800000	1	0.142625
35.816667	1	0.140000
35.833333	1	0.138250
35.850000	1	0.135875
35.866667	1	0.134250
35.883333	1	0.132375
35.900000	1	0.131000
35.916667	1	0.130375
35.933333	1	0.128250
35.950000	1	0.126875
35.966667	1	0.124625
35.983333	1	0.123000
36.000000	1	0.121750
36.016667	1	0.119625
36.033333	1	0.118750
36.050000	1	0.117500
36.066667	1	0.116125
36.083333	1	0.115000
36.100000	1	0.113750
36.116667	1	0.112250
36.133333	1	0.111500
36.150000	1	0.110375
36.166667	1	0.109500
36.183333	1	0.107875
36.200000	1	0.106875
36.216667	1	0.105625
36.233333	1	0.104875
36.250000	1	0.103875
36.266667	1	0.102625
36.283333	1	0.101500
36.300000	1	0.100125
36.316667	1	0.099250
36.333333	1	0.098250
36.350000	1	0.097875
36.366667	1	0.097375
36.383333	1	0.095500
36.400000	1	0.095000
36.416667	1	0.093750
36.433333	1	0.092750
36.450000	1	0.092000
36.466667	1	0.090500
36.483333	1	0.090125
36.500000	1	0.088375
36.516667	1	0.087375
36.533333	1	0.086250
36.550000	1	0.085375
36.566667	1	0.083500
36.583333	1	0.081625
36.600000	1	0.080625
36.616667	1	0.079250
36.633333	1	0.077875
36.650000	1	0.076625
36.666667	1	0.074875
36.683333	1	0.073250
36.700000	1	0.071875
36.716667	1	0.070250
36.733333	1	0.068500
36.750000	1	0.066500
36.766667	1	0.065125
36.783333	1	0.063250
36.800000	1	0.061375
36.816667	1	0.058500
36.833333	1	0.056500
36.850000	1	0.054625
36.866667	1	0.052500
36.883333	1	0.050250
36.900000	1	0.048625
36.916667	1	0.046250
36.933333	1	0.044375
36.950000	1	0.042000
36.966667	1	0.039750
36.983333	1	0.037000
37.000000	1	0.034750
37.016667	1	0.032000
37.033333	1	0.029500
37.050000	1	0.027000
37.066667	1	0.025125
37.083333	1	0.022500
37.100000	1	0.020500
37.116667	1	0.018875
37.133333	1	0.016750
37.150000	1	0.014250
37.166667	1	0.011500
37.183333	1	0.009375
37.200000	1	0.007125
37.216667	1	0.005375
37.233333	1	0.003250
37.250000	1	0.001625
37.266667	1	0.000000
37.283333	1	-0.001875
37.300000	1	-0.003250
37.316667	1	-0.004625
37.333333	1	-0.006625
37.350000	1	-0.007625
37.366667	1	-0.008875
37.383333	1	-0.010500
37.400000	1	-0.011750
37.416667	1	-0.012625
37.433333	1	-0.013500
37.450000	1	-0.014750
37.466667	1	-0.015500
37.483333	1	-0.015875
37.500000	1	-0.016500
37.516667	1	-0.017000
37.533333	1	-0.017625
37.550000	1	-0.018250
37.566667	1	-0.019000
37.583333	1	-0.019625
37.600000	1	-0.020250
37.616667	1	-0.020375
37.633333	1	-0.020750
37.650000	1	-0.020625
37.666667	1	-0.020250
37.683333	1	-0.020625
37.700000	1	-0.020250
37.716667	1	-0.020000
37.733333	1	-0.019250
37.750000	1	-0.019625
37.766667	1	-0.019125
37.783333	1	-0.019125
37.800000	1	-0.018750
37.816667	1	-0.018250
37.833333	1	-0.018000
37.850000	1	-0.017875
37.866667	1	-0.017875
37.883333	1	-0.017125
37.900000	1	-0.016125
37.916667	1	-0.015500
37.933333	1	-0.015000
37.950000	1	-0.014750
37.966667	1	-0.014250
37.983333	1	-0.013125
38.000000	1	-0.012125
38.016667	1	-0.011625
38.033333	1	-0.011125
38.050000	1	-0.011000
38.066667	1	-0.009875
38.083333	1	-0.009000
38.100000	1	-0.007875
38.116667	1	-0.006750
38.133333	1	-0.005625
38.150000	1	-0.004625
38.166667	1	-0.003875
38.183333	1	-0.003625
38.200000	1	-0.002500
38.216667	1	-0.001000
38.233333	1	-0.000375
38.250000	1	0.000625
38.266667	1	0.002125
38.283333	1	0.002875
38.300000	1	0.003625
38.316667	1	0.004875
38.333333	1	0.005250
38.350000	1	0.005750
38.366667	1	0.006500
38.383333	1	0.007625
38.400000	1	0.008125
38.416667	1	0.008250
38.433333	1	0.009125
38.450000	1	0.009375
38.466667	1	0.009375
38.483333	1	0.009500
38.500000	1	0.010000
38.516667	1	0.009875
38.533333	1	0.009125
38.550000	1	0.009125
38.566667	1	0.008750
38.583333	1	0.008625
38.600000	1	0.008875
38.616667	1	0.008250
38.633333	1	0.008375
38.650000	1	0.008125
38.666667	1	0.007750
38.683333	1	0.007375
38.700000	1	0.006500
38.716667	1	0.006000
38.733333	1	0.004750
38.750000	1	0.003750
38.766667	1	0.003125
38.783333	1	0.002125
38.800000	1	0.001500
38.816667	1	0.001250
38.833333	1	0.001000
38.850000	1	0.000000
38.866667	1	-0.001000
38.883333	1	-0.001500
38.900000	1	-0.001125
38.916667	1	-0.001625
38.933333	1	-0.002375
38.950000	1	-0.003125
38.966667	1	-0.004000
38.983333	1	-0.004625
39.000000	1	-0.005250
39.016667	1	-0.006000
39.033333	1	-0.005875
39.050000	1	-0.006250
39.066667	1	-0.006625
39.083333	1	-0.006500
39.100000	1	-0.006625
39.116667	1	-0.006625
39.133333	1	-0.006125
39.150000	1	-0.006125
39.166667	1	-0.005750
39.183333	1	-0.005875
39.200000	1	-0.005750
39.216667	1	-0.006250
39.233333	1	-0.006000
39.250000	1	-0.005750
39.266667	1	-0.005625
39.283333	1	-0.005750
39.300000	1	-0.005375
39.316667	1	-0.005000
39.333333	1	-0.004500
39.350000	1	-0.003375
39.366667	1	-0.002250
39.383333	1	-0.001625
39.400000	1	-0.001875
39.416667	1	-0.001000
39.433333	1	-0.001000
39.450000	1	-0.001000
39.466667	1	-0.000875
39.483333	1	-0.000250
39.500000	1	0.000125
39.516667	1	0.000750
39.533333	1	0.000750
39.550000	1	0.001000
39.566667	1	0.001625
39.583333	1	0.002500
39.600000	1	0.003000
39.616667	1	0.004000
39.633333	1	0.003750
39.650000	1	0.004250
39.666667	1	0.005000
39.683333	1	0.005875
39.700000	1	0.006875
39.716667	1	0.007375
39.733333	1	0.008000
39.750000	1	0.008750
39.766667	1	0.009375
39.783333	1	0.009750
39.800000	1	0.011000
39.816667	1	0.011625
39.833333	1	0.013000
39.850000	1	0.013875
39.866667	1	0.015000
39.883333	1	0.016125
39.900000	1	0.017125
39.916667	1	0.018000
39.933333	1	0.018500
39.950000	1	0.019375
39.966667	1	0.019625
39.983333	1	0.020750
40.000000	1	0.021375
