URL	chrom://bioreactor/micro_cm7/HPLC_Ultimate_3000/Users/markusar/20240727_MA_EsirYCA.seq/809.smp/RI_1.channel/RI_1.chm
Channel	RI_1

Injection Information:
Data Vault	micro_cm7
Sequence	20240727_MA_EsirYCA
Name	Es1_1
Number	2
Position	BA2
Comment	
Processing Method	
Instrument Method	run_25B_method
Type	Unknown
Status	Finished
Inject Time	29.07.2024 14:18:38 +02:00
Volume (µl)	20.0000
Dilution Factor	1.0000
Weight	1.0000

Chromatogram Data Information:
Time Min. (min)	0.000000
Time Max. (min)	40.000000
Data Points	2401
Detector	RI
Generating Data System	Chromeleon 7.3.2.11814
Exporting Data System	Chromeleon 7.3.2.0
Operator	Instrument Controller
Signal Quantity	Refractive 
Signal Unit	µRIU
Signal Min.	-1.417125
Signal Max.	70.317875
Channel	RI_1
Driver Name	RID520Driver.dll
Channel Type	Evaluation
Min. Step (s)	1
Max. Step (s)	1
Average Step (s)	1

Signal Parameter Information:
Signal Info	

Chromatogram Data:
Time (min)	Step (s)	Value (µRIU)
0.000000	n.a.	0.058750
0.016667	1	0.057250
0.033333	1	0.056250
0.050000	1	0.054875
0.066667	1	0.054000
0.083333	1	0.052750
0.100000	1	0.051250
0.116667	1	0.050125
0.133333	1	0.048625
0.150000	1	0.047125
0.166667	1	0.045875
0.183333	1	0.044625
0.200000	1	0.043000
0.216667	1	0.041625
0.233333	1	0.039875
0.250000	1	0.038125
0.266667	1	0.036750
0.283333	1	0.035500
0.300000	1	0.034500
0.316667	1	0.034000
0.333333	1	0.032875
0.350000	1	0.031250
0.366667	1	0.029625
0.383333	1	0.027125
0.400000	1	0.025125
0.416667	1	0.024000
0.433333	1	0.023625
0.450000	1	0.024125
0.466667	1	0.025125
0.483333	1	0.026125
0.500000	1	0.026375
0.516667	1	0.026375
0.533333	1	0.025625
0.550000	1	0.024750
0.566667	1	0.022750
0.583333	1	0.019125
0.600000	1	0.015875
0.616667	1	0.012125
0.633333	1	0.009125
0.650000	1	0.005750
0.666667	1	0.004000
0.683333	1	0.002000
0.700000	1	0.001125
0.716667	1	-0.000375
0.733333	1	-0.002125
0.750000	1	-0.003375
0.766667	1	-0.004875
0.783333	1	-0.006625
0.800000	1	-0.008000
0.816667	1	-0.009625
0.833333	1	-0.011125
0.850000	1	-0.012375
0.866667	1	-0.013250
0.883333	1	-0.014125
0.900000	1	-0.014625
0.916667	1	-0.015500
0.933333	1	-0.016250
0.950000	1	-0.016375
0.966667	1	-0.016375
0.983333	1	-0.016000
1.000000	1	-0.016375
1.016667	1	-0.015125
1.033333	1	-0.014375
1.050000	1	-0.013750
1.066667	1	-0.012875
1.083333	1	-0.011125
1.100000	1	-0.010000
1.116667	1	-0.008500
1.133333	1	-0.006750
1.150000	1	-0.005500
1.166667	1	-0.003625
1.183333	1	-0.001625
1.200000	1	0.000125
1.216667	1	0.002750
1.233333	1	0.005500
1.250000	1	0.007625
1.266667	1	0.010625
1.283333	1	0.012625
1.300000	1	0.014875
1.316667	1	0.016875
1.333333	1	0.019125
1.350000	1	0.020375
1.366667	1	0.021875
1.383333	1	0.023625
1.400000	1	0.025125
1.416667	1	0.027000
1.433333	1	0.028500
1.450000	1	0.029625
1.466667	1	0.030375
1.483333	1	0.031000
1.500000	1	0.031500
1.516667	1	0.031375
1.533333	1	0.030750
1.550000	1	0.030375
1.566667	1	0.029500
1.583333	1	0.028625
1.600000	1	0.027625
1.616667	1	0.026375
1.633333	1	0.025625
1.650000	1	0.024750
1.666667	1	0.023125
1.683333	1	0.021250
1.700000	1	0.019750
1.716667	1	0.017750
1.733333	1	0.016125
1.750000	1	0.014250
1.766667	1	0.011750
1.783333	1	0.010000
1.800000	1	0.008375
1.816667	1	0.007000
1.833333	1	0.005000
1.850000	1	0.003000
1.866667	1	0.001375
1.883333	1	-0.000375
1.900000	1	-0.001875
1.916667	1	-0.003375
1.933333	1	-0.004625
1.950000	1	-0.006000
1.966667	1	-0.007000
1.983333	1	-0.008125
2.000000	1	-0.009125
2.016667	1	-0.009500
2.033333	1	-0.009500
2.050000	1	-0.009625
2.066667	1	-0.010250
2.083333	1	-0.009875
2.100000	1	-0.009750
2.116667	1	-0.009125
2.133333	1	-0.009125
2.150000	1	-0.008625
2.166667	1	-0.007500
2.183333	1	-0.006750
2.200000	1	-0.005750
2.216667	1	-0.004375
2.233333	1	-0.003125
2.250000	1	-0.001625
2.266667	1	0.000000
2.283333	1	0.001625
2.300000	1	0.003375
2.316667	1	0.005125
2.333333	1	0.006250
2.350000	1	0.008500
2.366667	1	0.009750
2.383333	1	0.011625
2.400000	1	0.013625
2.416667	1	0.015250
2.433333	1	0.017375
2.450000	1	0.018750
2.466667	1	0.020375
2.483333	1	0.021625
2.500000	1	0.022625
2.516667	1	0.024125
2.533333	1	0.025250
2.550000	1	0.026500
2.566667	1	0.027250
2.583333	1	0.028500
2.600000	1	0.029250
2.616667	1	0.029500
2.633333	1	0.030250
2.650000	1	0.030750
2.666667	1	0.030625
2.683333	1	0.030750
2.700000	1	0.030250
2.716667	1	0.030375
2.733333	1	0.029625
2.750000	1	0.028625
2.766667	1	0.027875
2.783333	1	0.026875
2.800000	1	0.026875
2.816667	1	0.025500
2.833333	1	0.024375
2.850000	1	0.022875
2.866667	1	0.021250
2.883333	1	0.019750
2.900000	1	0.017750
2.916667	1	0.016500
2.933333	1	0.014125
2.950000	1	0.011375
2.966667	1	0.009000
2.983333	1	0.007000
3.000000	1	0.004875
3.016667	1	0.002750
3.033333	1	0.000375
3.050000	1	-0.001250
3.066667	1	-0.003625
3.083333	1	-0.006125
3.100000	1	-0.008375
3.116667	1	-0.010750
3.133333	1	-0.012875
3.150000	1	-0.014750
3.166667	1	-0.016375
3.183333	1	-0.017875
3.200000	1	-0.019375
3.216667	1	-0.020625
3.233333	1	-0.022000
3.250000	1	-0.022750
3.266667	1	-0.023625
3.283333	1	-0.024750
3.300000	1	-0.025875
3.316667	1	-0.026250
3.333333	1	-0.026125
3.350000	1	-0.025750
3.366667	1	-0.025750
3.383333	1	-0.025500
3.400000	1	-0.025500
3.416667	1	-0.024125
3.433333	1	-0.022500
3.450000	1	-0.021375
3.466667	1	-0.019875
3.483333	1	-0.018750
3.500000	1	-0.017375
3.516667	1	-0.015625
3.533333	1	-0.014000
3.550000	1	-0.012125
3.566667	1	-0.010250
3.583333	1	-0.007875
3.600000	1	-0.005750
3.616667	1	-0.002875
3.633333	1	-0.000375
3.650000	1	0.002250
3.666667	1	0.004125
3.683333	1	0.006250
3.700000	1	0.008625
3.716667	1	0.012125
3.733333	1	0.014250
3.750000	1	0.016750
3.766667	1	0.019500
3.783333	1	0.022500
3.800000	1	0.025375
3.816667	1	0.028625
3.833333	1	0.030875
3.850000	1	0.032875
3.866667	1	0.035125
3.883333	1	0.037500
3.900000	1	0.039375
3.916667	1	0.041250
3.933333	1	0.043375
3.950000	1	0.045000
3.966667	1	0.046500
3.983333	1	0.047875
4.000000	1	0.049250
4.016667	1	0.050625
4.033333	1	0.051500
4.050000	1	0.052750
4.066667	1	0.052875
4.083333	1	0.053125
4.100000	1	0.053250
4.116667	1	0.052750
4.133333	1	0.053625
4.150000	1	0.053000
4.166667	1	0.052000
4.183333	1	0.051000
4.200000	1	0.049625
4.216667	1	0.047750
4.233333	1	0.046500
4.250000	1	0.045125
4.266667	1	0.042500
4.283333	1	0.041125
4.300000	1	0.038500
4.316667	1	0.035750
4.333333	1	0.034250
4.350000	1	0.032125
4.366667	1	0.030000
4.383333	1	0.028000
4.400000	1	0.025500
4.416667	1	0.023500
4.433333	1	0.022000
4.450000	1	0.020125
4.466667	1	0.019000
4.483333	1	0.017125
4.500000	1	0.015625
4.516667	1	0.013875
4.533333	1	0.012750
4.550000	1	0.012000
4.566667	1	0.011000
4.583333	1	0.011000
4.600000	1	0.010750
4.616667	1	0.010500
4.633333	1	0.010000
4.650000	1	0.010375
4.666667	1	0.010125
4.683333	1	0.010750
4.700000	1	0.011125
4.716667	1	0.011375
4.733333	1	0.011250
4.750000	1	0.011250
4.766667	1	0.011625
4.783333	1	0.011750
4.800000	1	0.012375
4.816667	1	0.012250
4.833333	1	0.012000
4.850000	1	0.011875
4.866667	1	0.011125
4.883333	1	0.009875
4.900000	1	0.009000
4.916667	1	0.007500
4.933333	1	0.006500
4.950000	1	0.005250
4.966667	1	0.004375
4.983333	1	0.002625
5.000000	1	0.000750
5.016667	1	-0.001625
5.033333	1	-0.003625
5.050000	1	-0.006250
5.066667	1	-0.007875
5.083333	1	-0.009875
5.100000	1	-0.012000
5.116667	1	-0.014000
5.133333	1	-0.016250
5.150000	1	-0.018000
5.166667	1	-0.019375
5.183333	1	-0.020750
5.200000	1	-0.022125
5.216667	1	-0.023125
5.233333	1	-0.024250
5.250000	1	-0.025000
5.266667	1	-0.026000
5.283333	1	-0.026750
5.300000	1	-0.027750
5.316667	1	-0.028125
5.333333	1	-0.028375
5.350000	1	-0.028875
5.366667	1	-0.029125
5.383333	1	-0.028750
5.400000	1	-0.028750
5.416667	1	-0.028250
5.433333	1	-0.028125
5.450000	1	-0.027500
5.466667	1	-0.027125
5.483333	1	-0.027500
5.500000	1	-0.027125
5.516667	1	-0.026750
5.533333	1	-0.025750
5.550000	1	-0.025375
5.566667	1	-0.024250
5.583333	1	-0.024000
5.600000	1	-0.023750
5.616667	1	-0.023000
5.633333	1	-0.022875
5.650000	1	-0.022625
5.666667	1	-0.022125
5.683333	1	-0.022625
5.700000	1	-0.021625
5.716667	1	-0.020875
5.733333	1	-0.020375
5.750000	1	-0.020250
5.766667	1	-0.019625
5.783333	1	-0.020250
5.800000	1	-0.019625
5.816667	1	-0.018750
5.833333	1	-0.018750
5.850000	1	-0.018750
5.866667	1	-0.018250
5.883333	1	-0.018250
5.900000	1	-0.018000
5.916667	1	-0.017250
5.933333	1	-0.017125
5.950000	1	-0.016750
5.966667	1	-0.016375
5.983333	1	-0.015250
6.000000	1	-0.015250
6.016667	1	-0.014750
6.033333	1	-0.014875
6.050000	1	-0.014750
6.066667	1	-0.014500
6.083333	1	-0.013500
6.100000	1	-0.013500
6.116667	1	-0.013000
6.133333	1	-0.012625
6.150000	1	-0.012125
6.166667	1	-0.011625
6.183333	1	-0.011250
6.200000	1	-0.010500
6.216667	1	-0.010625
6.233333	1	-0.010625
6.250000	1	-0.010000
6.266667	1	-0.009625
6.283333	1	-0.009500
6.300000	1	-0.008875
6.316667	1	-0.008750
6.333333	1	-0.008250
6.350000	1	-0.008250
6.366667	1	-0.007750
6.383333	1	-0.007125
6.400000	1	-0.006375
6.416667	1	-0.005875
6.433333	1	-0.005500
6.450000	1	-0.004625
6.466667	1	-0.004375
6.483333	1	-0.004250
6.500000	1	-0.003250
6.516667	1	-0.002875
6.533333	1	-0.002125
6.550000	1	-0.001375
6.566667	1	-0.000500
6.583333	1	0.001000
6.600000	1	0.001750
6.616667	1	0.003500
6.633333	1	0.004875
6.650000	1	0.006125
6.666667	1	0.007375
6.683333	1	0.008625
6.700000	1	0.009875
6.716667	1	0.011250
6.733333	1	0.012000
6.750000	1	0.013000
6.766667	1	0.014375
6.783333	1	0.016000
6.800000	1	0.017250
6.816667	1	0.017625
6.833333	1	0.018750
6.850000	1	0.020000
6.866667	1	0.020625
6.883333	1	0.021750
6.900000	1	0.022500
6.916667	1	0.023125
6.933333	1	0.023125
6.950000	1	0.023875
6.966667	1	0.025000
6.983333	1	0.024875
7.000000	1	0.025500
7.016667	1	0.025500
7.033333	1	0.025375
7.050000	1	0.025000
7.066667	1	0.025000
7.083333	1	0.025250
7.100000	1	0.025875
7.116667	1	0.026000
7.133333	1	0.025750
7.150000	1	0.025750
7.166667	1	0.025500
7.183333	1	0.025250
7.200000	1	0.024750
7.216667	1	0.024875
7.233333	1	0.024625
7.250000	1	0.025250
7.266667	1	0.024875
7.283333	1	0.024125
7.300000	1	0.023500
7.316667	1	0.023875
7.333333	1	0.023500
7.350000	1	0.023500
7.366667	1	0.023250
7.383333	1	0.022750
7.400000	1	0.022000
7.416667	1	0.021875
7.433333	1	0.021500
7.450000	1	0.020875
7.466667	1	0.019625
7.483333	1	0.018375
7.500000	1	0.017000
7.516667	1	0.015375
7.533333	1	0.014375
7.550000	1	0.013125
7.566667	1	0.010750
7.583333	1	0.008625
7.600000	1	0.007125
7.616667	1	0.005125
7.633333	1	0.002875
7.650000	1	0.001000
7.666667	1	-0.000875
7.683333	1	-0.003000
7.700000	1	-0.005000
7.716667	1	-0.007000
7.733333	1	-0.008375
7.750000	1	-0.010375
7.766667	1	-0.011875
7.783333	1	-0.013125
7.800000	1	-0.014250
7.816667	1	-0.015750
7.833333	1	-0.016125
7.850000	1	-0.016750
7.866667	1	-0.017000
7.883333	1	-0.017375
7.900000	1	-0.017125
7.916667	1	-0.016625
7.933333	1	-0.016000
7.950000	1	-0.015125
7.966667	1	-0.014375
7.983333	1	-0.013125
8.000000	1	-0.011500
8.016667	1	-0.010375
8.033333	1	-0.008250
8.050000	1	-0.006250
8.066667	1	-0.004250
8.083333	1	-0.002375
8.100000	1	0.000500
8.116667	1	0.002750
8.133333	1	0.005250
8.150000	1	0.007875
8.166667	1	0.010125
8.183333	1	0.012625
8.200000	1	0.015375
8.216667	1	0.018000
8.233333	1	0.020375
8.250000	1	0.022375
8.266667	1	0.024750
8.283333	1	0.026750
8.300000	1	0.028875
8.316667	1	0.031125
8.333333	1	0.032625
8.350000	1	0.034875
8.366667	1	0.037125
8.383333	1	0.038875
8.400000	1	0.040750
8.416667	1	0.042625
8.433333	1	0.043750
8.450000	1	0.045125
8.466667	1	0.046875
8.483333	1	0.048375
8.500000	1	0.050000
8.516667	1	0.052375
8.533333	1	0.054000
8.550000	1	0.055875
8.566667	1	0.058000
8.583333	1	0.060375
8.600000	1	0.062125
8.616667	1	0.063500
8.633333	1	0.065500
8.650000	1	0.067625
8.666667	1	0.069625
8.683333	1	0.070500
8.700000	1	0.072000
8.716667	1	0.073250
8.733333	1	0.074750
8.750000	1	0.076625
8.766667	1	0.077375
8.783333	1	0.078375
8.800000	1	0.079750
8.816667	1	0.081000
8.833333	1	0.082000
8.850000	1	0.081875
8.866667	1	0.082125
8.883333	1	0.082875
8.900000	1	0.082875
8.916667	1	0.082625
8.933333	1	0.081875
8.950000	1	0.081000
8.966667	1	0.080500
8.983333	1	0.079875
9.000000	1	0.079125
9.016667	1	0.077625
9.033333	1	0.076625
9.050000	1	0.074750
9.066667	1	0.073125
9.083333	1	0.071500
9.100000	1	0.070000
9.116667	1	0.068125
9.133333	1	0.066250
9.150000	1	0.064125
9.166667	1	0.062375
9.183333	1	0.060500
9.200000	1	0.058375
9.216667	1	0.057000
9.233333	1	0.054500
9.250000	1	0.053000
9.266667	1	0.051375
9.283333	1	0.049375
9.300000	1	0.048750
9.316667	1	0.047875
9.333333	1	0.047250
9.350000	1	0.046375
9.366667	1	0.045625
9.383333	1	0.044750
9.400000	1	0.043375
9.416667	1	0.043375
9.433333	1	0.043250
9.450000	1	0.043375
9.466667	1	0.043500
9.483333	1	0.043125
9.500000	1	0.043500
9.516667	1	0.043625
9.533333	1	0.043375
9.550000	1	0.044000
9.566667	1	0.044000
9.583333	1	0.043875
9.600000	1	0.043375
9.616667	1	0.043750
9.633333	1	0.043250
9.650000	1	0.043375
9.666667	1	0.042625
9.683333	1	0.042375
9.700000	1	0.041250
9.716667	1	0.040500
9.733333	1	0.040125
9.750000	1	0.039625
9.766667	1	0.039750
9.783333	1	0.038875
9.800000	1	0.037750
9.816667	1	0.037000
9.833333	1	0.035750
9.850000	1	0.034125
9.866667	1	0.032875
9.883333	1	0.031750
9.900000	1	0.030250
9.916667	1	0.029000
9.933333	1	0.028000
9.950000	1	0.027750
9.966667	1	0.026375
9.983333	1	0.025375
10.000000	1	0.024750
10.016667	1	0.024250
10.033333	1	0.023625
10.050000	1	0.022750
10.066667	1	0.022625
10.083333	1	0.022625
10.100000	1	0.023250
10.116667	1	0.023875
10.133333	1	0.024500
10.150000	1	0.025500
10.166667	1	0.028375
10.183333	1	0.031250
10.200000	1	0.035375
10.216667	1	0.041500
10.233333	1	0.048750
10.250000	1	0.057000
10.266667	1	0.067500
10.283333	1	0.080375
10.300000	1	0.095250
10.316667	1	0.112625
10.333333	1	0.133375
10.350000	1	0.155875
10.366667	1	0.179250
10.383333	1	0.203625
10.400000	1	0.226125
10.416667	1	0.245750
10.433333	1	0.261875
10.450000	1	0.275125
10.466667	1	0.290000
10.483333	1	0.318375
10.500000	1	0.379375
10.516667	1	0.500875
10.533333	1	0.718625
10.550000	1	1.074125
10.566667	1	1.613125
10.583333	1	2.374375
10.600000	1	3.393500
10.616667	1	4.695250
10.633333	1	6.294625
10.650000	1	8.192750
10.666667	1	10.384375
10.683333	1	12.855125
10.700000	1	15.582625
10.716667	1	18.534875
10.733333	1	21.669000
10.750000	1	24.935750
10.766667	1	28.277125
10.783333	1	31.620250
10.800000	1	34.878500
10.816667	1	37.942625
10.833333	1	40.669625
10.850000	1	42.879625
10.866667	1	44.365375
10.883333	1	44.913500
10.900000	1	44.347500
10.916667	1	42.596500
10.933333	1	39.737750
10.950000	1	36.004500
10.966667	1	31.742750
10.983333	1	27.321625
11.000000	1	23.059000
11.016667	1	19.176875
11.033333	1	15.793125
11.050000	1	12.941000
11.066667	1	10.594500
11.083333	1	8.701500
11.100000	1	7.196750
11.116667	1	6.014875
11.133333	1	5.093250
11.150000	1	4.377250
11.166667	1	3.820875
11.183333	1	3.385000
11.200000	1	3.042250
11.216667	1	2.767625
11.233333	1	2.545750
11.250000	1	2.362750
11.266667	1	2.210125
11.283333	1	2.080125
11.300000	1	1.967625
11.316667	1	1.868750
11.333333	1	1.781000
11.350000	1	1.701125
11.366667	1	1.629875
11.383333	1	1.563875
11.400000	1	1.504875
11.416667	1	1.451500
11.433333	1	1.402875
11.450000	1	1.358750
11.466667	1	1.319500
11.483333	1	1.284375
11.500000	1	1.252750
11.516667	1	1.224500
11.533333	1	1.199125
11.550000	1	1.176625
11.566667	1	1.156500
11.583333	1	1.139625
11.600000	1	1.124125
11.616667	1	1.110750
11.633333	1	1.099375
11.650000	1	1.089125
11.666667	1	1.080000
11.683333	1	1.072625
11.700000	1	1.065875
11.716667	1	1.060250
11.733333	1	1.055625
11.750000	1	1.052000
11.766667	1	1.049125
11.783333	1	1.047625
11.800000	1	1.046875
11.816667	1	1.047250
11.833333	1	1.048750
11.850000	1	1.050875
11.866667	1	1.054625
11.883333	1	1.058250
11.900000	1	1.062375
11.916667	1	1.065750
11.933333	1	1.070250
11.950000	1	1.074000
11.966667	1	1.076750
11.983333	1	1.078875
12.000000	1	1.080875
12.016667	1	1.082250
12.033333	1	1.082750
12.050000	1	1.083250
12.066667	1	1.084625
12.083333	1	1.085875
12.100000	1	1.086875
12.116667	1	1.088375
12.133333	1	1.089875
12.150000	1	1.092000
12.166667	1	1.095125
12.183333	1	1.099750
12.200000	1	1.105500
12.216667	1	1.113000
12.233333	1	1.121375
12.250000	1	1.132500
12.266667	1	1.147125
12.283333	1	1.167375
12.300000	1	1.193625
12.316667	1	1.229750
12.333333	1	1.278125
12.350000	1	1.344000
12.366667	1	1.433875
12.383333	1	1.555875
12.400000	1	1.722750
12.416667	1	1.948375
12.433333	1	2.253250
12.450000	1	2.663500
12.466667	1	3.212875
12.483333	1	3.939875
12.500000	1	4.891500
12.516667	1	6.119750
12.533333	1	7.681750
12.550000	1	9.633625
12.566667	1	12.028750
12.583333	1	14.910875
12.600000	1	18.311000
12.616667	1	22.229625
12.633333	1	26.646250
12.650000	1	31.507000
12.666667	1	36.723625
12.683333	1	42.162000
12.700000	1	47.650875
12.716667	1	52.988250
12.733333	1	57.952375
12.750000	1	62.319875
12.766667	1	65.884000
12.783333	1	68.472875
12.800000	1	69.968500
12.816667	1	70.317875
12.833333	1	69.537000
12.850000	1	67.707625
12.866667	1	64.968000
12.883333	1	61.507000
12.900000	1	57.538750
12.916667	1	53.284250
12.933333	1	48.952000
12.950000	1	44.713500
12.966667	1	40.685250
12.983333	1	36.924375
13.000000	1	33.425375
13.016667	1	30.141000
13.033333	1	27.003750
13.050000	1	23.957500
13.066667	1	20.973375
13.083333	1	18.055375
13.100000	1	15.247000
13.116667	1	12.631875
13.133333	1	10.306250
13.150000	1	8.339500
13.166667	1	6.748875
13.183333	1	5.502375
13.200000	1	4.543500
13.216667	1	3.810625
13.233333	1	3.251625
13.250000	1	2.822875
13.266667	1	2.491500
13.283333	1	2.233250
13.300000	1	2.029500
13.316667	1	1.866375
13.333333	1	1.733000
13.350000	1	1.622375
13.366667	1	1.530250
13.383333	1	1.451000
13.400000	1	1.382500
13.416667	1	1.322625
13.433333	1	1.271375
13.450000	1	1.225250
13.466667	1	1.185125
13.483333	1	1.149750
13.500000	1	1.118375
13.516667	1	1.091625
13.533333	1	1.068250
13.550000	1	1.048500
13.566667	1	1.032000
13.583333	1	1.017625
13.600000	1	1.006625
13.616667	1	0.997500
13.633333	1	0.991000
13.650000	1	0.986500
13.666667	1	0.983250
13.683333	1	0.980875
13.700000	1	0.979000
13.716667	1	0.978125
13.733333	1	0.976875
13.750000	1	0.974750
13.766667	1	0.971875
13.783333	1	0.967000
13.800000	1	0.960625
13.816667	1	0.952250
13.833333	1	0.942625
13.850000	1	0.930875
13.866667	1	0.917000
13.883333	1	0.902250
13.900000	1	0.886250
13.916667	1	0.870625
13.933333	1	0.854375
13.950000	1	0.838000
13.966667	1	0.822250
13.983333	1	0.807250
14.000000	1	0.793125
14.016667	1	0.779375
14.033333	1	0.766625
14.050000	1	0.754500
14.066667	1	0.743500
14.083333	1	0.732875
14.100000	1	0.722625
14.116667	1	0.712750
14.133333	1	0.703625
14.150000	1	0.695000
14.166667	1	0.687000
14.183333	1	0.678875
14.200000	1	0.671750
14.216667	1	0.665375
14.233333	1	0.658375
14.250000	1	0.652250
14.266667	1	0.647250
14.283333	1	0.642375
14.300000	1	0.639000
14.316667	1	0.636250
14.333333	1	0.634125
14.350000	1	0.633250
14.366667	1	0.632500
14.383333	1	0.633750
14.400000	1	0.635875
14.416667	1	0.639000
14.433333	1	0.643125
14.450000	1	0.648625
14.466667	1	0.655125
14.483333	1	0.661875
14.500000	1	0.669250
14.516667	1	0.677500
14.533333	1	0.685875
14.550000	1	0.693625
14.566667	1	0.702125
14.583333	1	0.711250
14.600000	1	0.719625
14.616667	1	0.729625
14.633333	1	0.740250
14.650000	1	0.752625
14.666667	1	0.767000
14.683333	1	0.783625
14.700000	1	0.804375
14.716667	1	0.828750
14.733333	1	0.856250
14.750000	1	0.888750
14.766667	1	0.924750
14.783333	1	0.965375
14.800000	1	1.007750
14.816667	1	1.052250
14.833333	1	1.097500
14.850000	1	1.141000
14.866667	1	1.180875
14.883333	1	1.216625
14.900000	1	1.244375
14.916667	1	1.263125
14.933333	1	1.271750
14.950000	1	1.269000
14.966667	1	1.255000
14.983333	1	1.231250
15.000000	1	1.197250
15.016667	1	1.155125
15.033333	1	1.107500
15.050000	1	1.055750
15.066667	1	1.001500
15.083333	1	0.947250
15.100000	1	0.894750
15.116667	1	0.845750
15.133333	1	0.800000
15.150000	1	0.760000
15.166667	1	0.725000
15.183333	1	0.695250
15.200000	1	0.671375
15.216667	1	0.652375
15.233333	1	0.639125
15.250000	1	0.630125
15.266667	1	0.626000
15.283333	1	0.625375
15.300000	1	0.628375
15.316667	1	0.635625
15.333333	1	0.647250
15.350000	1	0.662625
15.366667	1	0.681875
15.383333	1	0.704625
15.400000	1	0.731375
15.416667	1	0.762000
15.433333	1	0.797500
15.450000	1	0.835000
15.466667	1	0.876000
15.483333	1	0.917000
15.500000	1	0.958875
15.516667	1	0.999000
15.533333	1	1.037625
15.550000	1	1.071750
15.566667	1	1.100125
15.583333	1	1.122000
15.600000	1	1.136375
15.616667	1	1.141750
15.633333	1	1.138500
15.650000	1	1.127375
15.666667	1	1.108500
15.683333	1	1.084000
15.700000	1	1.055000
15.716667	1	1.021750
15.733333	1	0.986125
15.750000	1	0.950500
15.766667	1	0.916000
15.783333	1	0.883000
15.800000	1	0.852250
15.816667	1	0.823750
15.833333	1	0.798375
15.850000	1	0.775625
15.866667	1	0.755500
15.883333	1	0.737750
15.900000	1	0.722375
15.916667	1	0.708250
15.933333	1	0.695750
15.950000	1	0.684750
15.966667	1	0.675500
15.983333	1	0.667500
16.000000	1	0.661500
16.016667	1	0.657000
16.033333	1	0.653500
16.050000	1	0.651125
16.066667	1	0.651875
16.083333	1	0.652750
16.100000	1	0.655125
16.116667	1	0.658875
16.133333	1	0.663625
16.150000	1	0.669000
16.166667	1	0.675000
16.183333	1	0.681125
16.200000	1	0.688500
16.216667	1	0.695000
16.233333	1	0.701250
16.250000	1	0.707500
16.266667	1	0.714000
16.283333	1	0.719000
16.300000	1	0.723125
16.316667	1	0.726875
16.333333	1	0.729625
16.350000	1	0.732000
16.366667	1	0.733125
16.383333	1	0.734125
16.400000	1	0.735250
16.416667	1	0.735500
16.433333	1	0.736375
16.450000	1	0.737625
16.466667	1	0.738500
16.483333	1	0.740125
16.500000	1	0.743500
16.516667	1	0.746750
16.533333	1	0.752000
16.550000	1	0.758375
16.566667	1	0.765625
16.583333	1	0.773375
16.600000	1	0.782375
16.616667	1	0.791000
16.633333	1	0.800375
16.650000	1	0.809750
16.666667	1	0.818500
16.683333	1	0.826875
16.700000	1	0.834625
16.716667	1	0.841875
16.733333	1	0.848625
16.750000	1	0.854125
16.766667	1	0.859750
16.783333	1	0.864750
16.800000	1	0.869750
16.816667	1	0.875500
16.833333	1	0.881250
16.850000	1	0.887250
16.866667	1	0.893875
16.883333	1	0.900500
16.900000	1	0.907625
16.916667	1	0.914875
16.933333	1	0.922625
16.950000	1	0.929375
16.966667	1	0.935500
16.983333	1	0.941000
17.000000	1	0.945625
17.016667	1	0.949250
17.033333	1	0.951125
17.050000	1	0.953125
17.066667	1	0.953625
17.083333	1	0.953625
17.100000	1	0.953000
17.116667	1	0.951625
17.133333	1	0.951125
17.150000	1	0.950000
17.166667	1	0.950750
17.183333	1	0.950625
17.200000	1	0.951500
17.216667	1	0.952875
17.233333	1	0.955125
17.250000	1	0.957750
17.266667	1	0.960875
17.283333	1	0.964500
17.300000	1	0.968750
17.316667	1	0.973375
17.333333	1	0.978500
17.350000	1	0.984125
17.366667	1	0.989375
17.383333	1	0.994375
17.400000	1	0.999875
17.416667	1	1.005000
17.433333	1	1.008750
17.450000	1	1.012250
17.466667	1	1.014875
17.483333	1	1.016500
17.500000	1	1.016750
17.516667	1	1.016250
17.533333	1	1.014125
17.550000	1	1.010625
17.566667	1	1.005250
17.583333	1	0.998125
17.600000	1	0.990375
17.616667	1	0.980500
17.633333	1	0.968750
17.650000	1	0.956125
17.666667	1	0.941875
17.683333	1	0.927250
17.700000	1	0.912000
17.716667	1	0.897000
17.733333	1	0.880875
17.750000	1	0.865125
17.766667	1	0.849875
17.783333	1	0.834250
17.800000	1	0.819250
17.816667	1	0.804875
17.833333	1	0.792000
17.850000	1	0.779125
17.866667	1	0.766750
17.883333	1	0.756250
17.900000	1	0.745875
17.916667	1	0.736375
17.933333	1	0.727375
17.950000	1	0.719500
17.966667	1	0.712000
17.983333	1	0.704875
18.000000	1	0.698375
18.016667	1	0.692500
18.033333	1	0.687000
18.050000	1	0.682250
18.066667	1	0.678125
18.083333	1	0.674125
18.100000	1	0.669625
18.116667	1	0.665625
18.133333	1	0.661250
18.150000	1	0.657250
18.166667	1	0.653375
18.183333	1	0.649750
18.200000	1	0.647250
18.216667	1	0.644750
18.233333	1	0.642250
18.250000	1	0.640625
18.266667	1	0.638750
18.283333	1	0.637625
18.300000	1	0.637125
18.316667	1	0.637375
18.333333	1	0.637875
18.350000	1	0.640000
18.366667	1	0.642125
18.383333	1	0.643500
18.400000	1	0.647250
18.416667	1	0.650500
18.433333	1	0.654000
18.450000	1	0.658125
18.466667	1	0.662625
18.483333	1	0.668500
18.500000	1	0.675250
18.516667	1	0.684125
18.533333	1	0.693625
18.550000	1	0.704750
18.566667	1	0.716500
18.583333	1	0.731000
18.600000	1	0.747500
18.616667	1	0.765375
18.633333	1	0.785500
18.650000	1	0.808250
18.666667	1	0.833250
18.683333	1	0.860000
18.700000	1	0.888500
18.716667	1	0.918875
18.733333	1	0.950875
18.750000	1	0.984625
18.766667	1	1.019250
18.783333	1	1.054500
18.800000	1	1.090250
18.816667	1	1.126000
18.833333	1	1.160750
18.850000	1	1.194625
18.866667	1	1.227125
18.883333	1	1.256750
18.900000	1	1.283875
18.916667	1	1.306625
18.933333	1	1.326125
18.950000	1	1.339750
18.966667	1	1.348625
18.983333	1	1.351375
19.000000	1	1.348250
19.016667	1	1.338500
19.033333	1	1.322750
19.050000	1	1.300750
19.066667	1	1.272750
19.083333	1	1.239875
19.100000	1	1.201000
19.116667	1	1.159625
19.133333	1	1.115875
19.150000	1	1.069375
19.166667	1	1.022125
19.183333	1	0.974750
19.200000	1	0.928000
19.216667	1	0.882375
19.233333	1	0.840000
19.250000	1	0.800875
19.266667	1	0.765375
19.283333	1	0.734250
19.300000	1	0.707375
19.316667	1	0.685875
19.333333	1	0.668875
19.350000	1	0.658250
19.366667	1	0.652750
19.383333	1	0.652375
19.400000	1	0.657000
19.416667	1	0.666250
19.433333	1	0.679875
19.450000	1	0.698750
19.466667	1	0.721750
19.483333	1	0.748250
19.500000	1	0.778500
19.516667	1	0.810375
19.533333	1	0.844625
19.550000	1	0.880625
19.566667	1	0.917000
19.583333	1	0.953000
19.600000	1	0.988250
19.616667	1	1.021750
19.633333	1	1.052250
19.650000	1	1.078250
19.666667	1	1.101125
19.683333	1	1.118750
19.700000	1	1.131375
19.716667	1	1.137375
19.733333	1	1.138875
19.750000	1	1.135125
19.766667	1	1.125250
19.783333	1	1.110375
19.800000	1	1.090375
19.816667	1	1.067500
19.833333	1	1.039625
19.850000	1	1.009250
19.866667	1	0.976750
19.883333	1	0.943000
19.900000	1	0.907750
19.916667	1	0.872500
19.933333	1	0.837625
19.950000	1	0.803250
19.966667	1	0.769750
19.983333	1	0.738000
20.000000	1	0.708625
20.016667	1	0.680000
20.033333	1	0.653750
20.050000	1	0.630375
20.066667	1	0.609125
20.083333	1	0.591250
20.100000	1	0.576625
20.116667	1	0.564625
20.133333	1	0.555375
20.150000	1	0.548875
20.166667	1	0.545625
20.183333	1	0.545375
20.200000	1	0.547250
20.216667	1	0.551375
20.233333	1	0.557500
20.250000	1	0.566000
20.266667	1	0.575375
20.283333	1	0.586125
20.300000	1	0.597250
20.316667	1	0.608625
20.333333	1	0.620625
20.350000	1	0.631625
20.366667	1	0.641875
20.383333	1	0.651375
20.400000	1	0.659500
20.416667	1	0.665500
20.433333	1	0.670250
20.450000	1	0.673250
20.466667	1	0.675500
20.483333	1	0.677875
20.500000	1	0.680375
20.516667	1	0.683875
20.533333	1	0.689625
20.550000	1	0.697125
20.566667	1	0.708000
20.583333	1	0.723625
20.600000	1	0.744125
20.616667	1	0.771750
20.633333	1	0.805125
20.650000	1	0.845250
20.666667	1	0.892500
20.683333	1	0.946500
20.700000	1	1.007625
20.716667	1	1.074750
20.733333	1	1.147625
20.750000	1	1.224000
20.766667	1	1.303000
20.783333	1	1.382625
20.800000	1	1.460750
20.816667	1	1.535875
20.833333	1	1.604250
20.850000	1	1.664125
20.866667	1	1.714625
20.883333	1	1.752750
20.900000	1	1.778250
20.916667	1	1.789000
20.933333	1	1.784875
20.950000	1	1.766750
20.966667	1	1.734875
20.983333	1	1.689125
21.000000	1	1.632250
21.016667	1	1.565500
21.033333	1	1.490625
21.050000	1	1.410875
21.066667	1	1.327875
21.083333	1	1.243750
21.100000	1	1.161000
21.116667	1	1.080500
21.133333	1	1.002625
21.150000	1	0.931000
21.166667	1	0.864250
21.183333	1	0.804000
21.200000	1	0.749125
21.216667	1	0.700500
21.233333	1	0.657750
21.250000	1	0.620500
21.266667	1	0.587500
21.283333	1	0.559875
21.300000	1	0.536375
21.316667	1	0.516250
21.333333	1	0.499375
21.350000	1	0.484875
21.366667	1	0.472500
21.383333	1	0.462250
21.400000	1	0.453625
21.416667	1	0.445625
21.433333	1	0.439875
21.450000	1	0.434375
21.466667	1	0.429625
21.483333	1	0.425500
21.500000	1	0.421875
21.516667	1	0.418375
21.533333	1	0.416125
21.550000	1	0.414375
21.566667	1	0.412750
21.583333	1	0.411625
21.600000	1	0.410125
21.616667	1	0.408875
21.633333	1	0.408625
21.650000	1	0.408750
21.666667	1	0.408750
21.683333	1	0.409375
21.700000	1	0.410625
21.716667	1	0.411625
21.733333	1	0.413500
21.750000	1	0.416250
21.766667	1	0.418500
21.783333	1	0.420750
21.800000	1	0.423750
21.816667	1	0.426375
21.833333	1	0.429000
21.850000	1	0.431875
21.866667	1	0.435125
21.883333	1	0.438125
21.900000	1	0.441375
21.916667	1	0.444875
21.933333	1	0.448750
21.950000	1	0.453750
21.966667	1	0.457875
21.983333	1	0.462875
22.000000	1	0.467000
22.016667	1	0.472000
22.033333	1	0.477125
22.050000	1	0.482375
22.066667	1	0.487375
22.083333	1	0.492125
22.100000	1	0.496750
22.116667	1	0.501750
22.133333	1	0.506250
22.150000	1	0.510250
22.166667	1	0.514500
22.183333	1	0.517250
22.200000	1	0.518375
22.216667	1	0.519000
22.233333	1	0.518250
22.250000	1	0.517375
22.266667	1	0.515000
22.283333	1	0.511000
22.300000	1	0.506000
22.316667	1	0.499875
22.333333	1	0.493375
22.350000	1	0.484875
22.366667	1	0.475875
22.383333	1	0.465625
22.400000	1	0.455500
22.416667	1	0.444000
22.433333	1	0.432750
22.450000	1	0.420750
22.466667	1	0.409125
22.483333	1	0.398250
22.500000	1	0.387000
22.516667	1	0.376750
22.533333	1	0.366750
22.550000	1	0.357375
22.566667	1	0.347875
22.583333	1	0.339000
22.600000	1	0.331000
22.616667	1	0.323250
22.633333	1	0.315625
22.650000	1	0.308000
22.666667	1	0.301750
22.683333	1	0.295250
22.700000	1	0.289000
22.716667	1	0.282625
22.733333	1	0.276750
22.750000	1	0.271000
22.766667	1	0.265375
22.783333	1	0.259875
22.800000	1	0.255250
22.816667	1	0.251125
22.833333	1	0.245875
22.850000	1	0.240375
22.866667	1	0.236000
22.883333	1	0.232000
22.900000	1	0.229000
22.916667	1	0.226000
22.933333	1	0.222500
22.950000	1	0.219625
22.966667	1	0.217875
22.983333	1	0.216750
23.000000	1	0.216000
23.016667	1	0.215125
23.033333	1	0.215250
23.050000	1	0.215250
23.066667	1	0.216375
23.083333	1	0.218375
23.100000	1	0.220875
23.116667	1	0.224000
23.133333	1	0.227750
23.150000	1	0.232000
23.166667	1	0.237125
23.183333	1	0.243000
23.200000	1	0.248875
23.216667	1	0.256125
23.233333	1	0.264375
23.250000	1	0.274375
23.266667	1	0.285500
23.283333	1	0.298500
23.300000	1	0.313625
23.316667	1	0.331375
23.333333	1	0.352750
23.350000	1	0.377375
23.366667	1	0.406000
23.383333	1	0.439375
23.400000	1	0.478500
23.416667	1	0.524250
23.433333	1	0.577250
23.450000	1	0.638125
23.466667	1	0.709250
23.483333	1	0.790625
23.500000	1	0.882875
23.516667	1	0.988500
23.533333	1	1.106875
23.550000	1	1.240375
23.566667	1	1.389375
23.583333	1	1.554000
23.600000	1	1.734125
23.616667	1	1.931125
23.633333	1	2.143375
23.650000	1	2.370250
23.666667	1	2.611375
23.683333	1	2.864875
23.700000	1	3.130000
23.716667	1	3.402875
23.733333	1	3.680500
23.750000	1	3.960250
23.766667	1	4.237375
23.783333	1	4.506000
23.800000	1	4.762750
23.816667	1	5.001500
23.833333	1	5.219500
23.850000	1	5.410000
23.866667	1	5.569250
23.883333	1	5.694125
23.900000	1	5.780750
23.916667	1	5.827750
23.933333	1	5.833375
23.950000	1	5.796250
23.966667	1	5.719375
23.983333	1	5.602625
24.000000	1	5.450375
24.016667	1	5.265875
24.033333	1	5.053375
24.050000	1	4.818375
24.066667	1	4.564875
24.083333	1	4.298875
24.100000	1	4.024250
24.116667	1	3.746625
24.133333	1	3.470000
24.150000	1	3.198625
24.166667	1	2.936125
24.183333	1	2.684625
24.200000	1	2.447000
24.216667	1	2.224625
24.233333	1	2.018375
24.250000	1	1.829000
24.266667	1	1.656875
24.283333	1	1.500625
24.300000	1	1.360500
24.316667	1	1.235375
24.333333	1	1.123125
24.350000	1	1.024500
24.366667	1	0.938375
24.383333	1	0.862000
24.400000	1	0.796000
24.416667	1	0.738250
24.433333	1	0.689000
24.450000	1	0.646875
24.466667	1	0.611500
24.483333	1	0.580125
24.500000	1	0.553750
24.516667	1	0.530375
24.533333	1	0.511000
24.550000	1	0.494750
24.566667	1	0.480250
24.583333	1	0.467000
24.600000	1	0.456125
24.616667	1	0.446375
24.633333	1	0.437250
24.650000	1	0.428000
24.666667	1	0.419875
24.683333	1	0.412375
24.700000	1	0.405375
24.716667	1	0.398500
24.733333	1	0.391000
24.750000	1	0.383125
24.766667	1	0.375875
24.783333	1	0.368375
24.800000	1	0.361625
24.816667	1	0.354625
24.833333	1	0.347625
24.850000	1	0.340625
24.866667	1	0.333875
24.883333	1	0.327250
24.900000	1	0.320250
24.916667	1	0.313625
24.933333	1	0.307000
24.950000	1	0.300750
24.966667	1	0.294875
24.983333	1	0.289125
25.000000	1	0.283625
25.016667	1	0.278125
25.033333	1	0.273875
25.050000	1	0.268375
25.066667	1	0.264750
25.083333	1	0.260000
25.100000	1	0.256625
25.116667	1	0.252875
25.133333	1	0.250000
25.150000	1	0.247250
25.166667	1	0.244125
25.183333	1	0.241125
25.200000	1	0.238375
25.216667	1	0.235750
25.233333	1	0.234375
25.250000	1	0.232500
25.266667	1	0.231000
25.283333	1	0.230125
25.300000	1	0.228750
25.316667	1	0.227500
25.333333	1	0.226375
25.350000	1	0.225375
25.366667	1	0.224750
25.383333	1	0.223750
25.400000	1	0.223500
25.416667	1	0.223000
25.433333	1	0.223500
25.450000	1	0.223375
25.466667	1	0.222875
25.483333	1	0.222625
25.500000	1	0.222875
25.516667	1	0.223625
25.533333	1	0.223875
25.550000	1	0.223500
25.566667	1	0.223500
25.583333	1	0.223750
25.600000	1	0.223125
25.616667	1	0.222875
25.633333	1	0.223000
25.650000	1	0.223375
25.666667	1	0.223625
25.683333	1	0.223375
25.700000	1	0.223125
25.716667	1	0.222500
25.733333	1	0.222750
25.750000	1	0.222625
25.766667	1	0.222375
25.783333	1	0.222000
25.800000	1	0.223000
25.816667	1	0.223500
25.833333	1	0.224625
25.850000	1	0.225875
25.866667	1	0.228000
25.883333	1	0.229375
25.900000	1	0.231875
25.916667	1	0.234375
25.933333	1	0.237625
25.950000	1	0.241250
25.966667	1	0.244875
25.983333	1	0.249250
26.000000	1	0.254375
26.016667	1	0.259500
26.033333	1	0.264625
26.050000	1	0.271250
26.066667	1	0.277125
26.083333	1	0.283125
26.100000	1	0.289625
26.116667	1	0.296375
26.133333	1	0.303750
26.150000	1	0.310375
26.166667	1	0.317125
26.183333	1	0.323500
26.200000	1	0.329750
26.216667	1	0.335875
26.233333	1	0.341250
26.250000	1	0.345375
26.266667	1	0.349875
26.283333	1	0.354125
26.300000	1	0.357625
26.316667	1	0.360500
26.333333	1	0.362500
26.350000	1	0.363500
26.366667	1	0.363500
26.383333	1	0.362375
26.400000	1	0.361250
26.416667	1	0.358875
26.433333	1	0.355625
26.450000	1	0.351750
26.466667	1	0.347125
26.483333	1	0.342000
26.500000	1	0.336125
26.516667	1	0.329500
26.533333	1	0.322500
26.550000	1	0.315375
26.566667	1	0.307625
26.583333	1	0.299875
26.600000	1	0.292000
26.616667	1	0.283875
26.633333	1	0.275750
26.650000	1	0.268125
26.666667	1	0.260375
26.683333	1	0.253000
26.700000	1	0.245875
26.716667	1	0.238875
26.733333	1	0.232750
26.750000	1	0.227250
26.766667	1	0.222500
26.783333	1	0.218625
26.800000	1	0.214375
26.816667	1	0.211125
26.833333	1	0.208125
26.850000	1	0.206625
26.866667	1	0.204875
26.883333	1	0.203375
26.900000	1	0.203125
26.916667	1	0.204375
26.933333	1	0.204875
26.950000	1	0.205625
26.966667	1	0.207000
26.983333	1	0.208250
27.000000	1	0.211000
27.016667	1	0.213500
27.033333	1	0.217000
27.050000	1	0.221500
27.066667	1	0.226000
27.083333	1	0.230750
27.100000	1	0.236125
27.116667	1	0.241875
27.133333	1	0.247750
27.150000	1	0.254625
27.166667	1	0.262125
27.183333	1	0.270125
27.200000	1	0.279250
27.216667	1	0.290625
27.233333	1	0.301750
27.250000	1	0.314125
27.266667	1	0.328500
27.283333	1	0.344375
27.300000	1	0.363625
27.316667	1	0.385125
27.333333	1	0.409250
27.350000	1	0.436375
27.366667	1	0.467375
27.383333	1	0.502000
27.400000	1	0.541125
27.416667	1	0.585500
27.433333	1	0.635375
27.450000	1	0.690375
27.466667	1	0.752375
27.483333	1	0.820625
27.500000	1	0.896750
27.516667	1	0.981125
27.533333	1	1.073125
27.550000	1	1.172875
27.566667	1	1.280875
27.583333	1	1.397125
27.600000	1	1.522125
27.616667	1	1.655375
27.633333	1	1.795250
27.650000	1	1.942625
27.666667	1	2.096125
27.683333	1	2.255625
27.700000	1	2.419125
27.716667	1	2.584875
27.733333	1	2.750250
27.750000	1	2.915750
27.766667	1	3.077750
27.783333	1	3.235250
27.800000	1	3.385750
27.816667	1	3.526875
27.833333	1	3.657125
27.850000	1	3.773125
27.866667	1	3.873750
27.883333	1	3.957000
27.900000	1	4.021000
27.916667	1	4.063500
27.933333	1	4.084750
27.950000	1	4.084375
27.966667	1	4.060875
27.983333	1	4.015125
28.000000	1	3.948000
28.016667	1	3.860250
28.033333	1	3.753750
28.050000	1	3.629125
28.066667	1	3.488875
28.083333	1	3.334875
28.100000	1	3.170750
28.116667	1	2.997875
28.133333	1	2.819875
28.150000	1	2.639500
28.166667	1	2.458250
28.183333	1	2.278875
28.200000	1	2.103750
28.216667	1	1.935125
28.233333	1	1.772625
28.250000	1	1.619000
28.266667	1	1.473375
28.283333	1	1.339125
28.300000	1	1.214750
28.316667	1	1.101125
28.333333	1	0.998000
28.350000	1	0.905500
28.366667	1	0.822875
28.383333	1	0.750500
28.400000	1	0.687875
28.416667	1	0.633750
28.433333	1	0.587625
28.450000	1	0.548500
28.466667	1	0.516250
28.483333	1	0.489500
28.500000	1	0.469125
28.516667	1	0.453500
28.533333	1	0.441875
28.550000	1	0.434125
28.566667	1	0.429500
28.583333	1	0.428250
28.600000	1	0.429625
28.616667	1	0.433625
28.633333	1	0.439250
28.650000	1	0.446000
28.666667	1	0.453375
28.683333	1	0.461500
28.700000	1	0.470500
28.716667	1	0.479000
28.733333	1	0.487875
28.750000	1	0.495500
28.766667	1	0.503375
28.783333	1	0.510750
28.800000	1	0.517000
28.816667	1	0.522875
28.833333	1	0.527000
28.850000	1	0.530500
28.866667	1	0.532000
28.883333	1	0.531250
28.900000	1	0.528875
28.916667	1	0.525500
28.933333	1	0.519750
28.950000	1	0.512500
28.966667	1	0.503125
28.983333	1	0.492000
29.000000	1	0.478500
29.016667	1	0.462750
29.033333	1	0.444625
29.050000	1	0.424625
29.066667	1	0.402500
29.083333	1	0.378000
29.100000	1	0.350125
29.116667	1	0.321250
29.133333	1	0.289500
29.150000	1	0.255250
29.166667	1	0.218625
29.183333	1	0.179625
29.200000	1	0.138875
29.216667	1	0.095500
29.233333	1	0.049875
29.250000	1	0.001875
29.266667	1	-0.048375
29.283333	1	-0.100875
29.300000	1	-0.155750
29.316667	1	-0.213250
29.333333	1	-0.271875
29.350000	1	-0.331125
29.366667	1	-0.392125
29.383333	1	-0.454875
29.400000	1	-0.518250
29.416667	1	-0.582875
29.433333	1	-0.647250
29.450000	1	-0.711375
29.466667	1	-0.776625
29.483333	1	-0.840500
29.500000	1	-0.903375
29.516667	1	-0.964875
29.533333	1	-1.023625
29.550000	1	-1.079625
29.566667	1	-1.133500
29.583333	1	-1.183750
29.600000	1	-1.230000
29.616667	1	-1.271375
29.633333	1	-1.308125
29.650000	1	-1.340250
29.666667	1	-1.367125
29.683333	1	-1.387875
29.700000	1	-1.403125
29.716667	1	-1.413250
29.733333	1	-1.417125
29.750000	1	-1.414625
29.766667	1	-1.407000
29.783333	1	-1.393000
29.800000	1	-1.373250
29.816667	1	-1.348875
29.833333	1	-1.319375
29.850000	1	-1.285375
29.866667	1	-1.246750
29.883333	1	-1.204375
29.900000	1	-1.159500
29.916667	1	-1.111250
29.933333	1	-1.061125
29.950000	1	-1.009375
29.966667	1	-0.956375
29.983333	1	-0.903000
30.000000	1	-0.848250
30.016667	1	-0.793500
30.033333	1	-0.739750
30.050000	1	-0.686750
30.066667	1	-0.634875
30.083333	1	-0.584375
30.100000	1	-0.536500
30.116667	1	-0.490000
30.133333	1	-0.445250
30.150000	1	-0.403000
30.166667	1	-0.363750
30.183333	1	-0.325875
30.200000	1	-0.290875
30.216667	1	-0.257375
30.233333	1	-0.226875
30.250000	1	-0.197750
30.266667	1	-0.171125
30.283333	1	-0.146875
30.300000	1	-0.123375
30.316667	1	-0.102375
30.333333	1	-0.082875
30.350000	1	-0.064250
30.366667	1	-0.047000
30.383333	1	-0.030875
30.400000	1	-0.015500
30.416667	1	-0.001125
30.433333	1	0.012875
30.450000	1	0.026750
30.466667	1	0.040250
30.483333	1	0.053375
30.500000	1	0.066500
30.516667	1	0.079625
30.533333	1	0.093250
30.550000	1	0.107125
30.566667	1	0.121500
30.583333	1	0.136625
30.600000	1	0.153000
30.616667	1	0.171500
30.633333	1	0.190500
30.650000	1	0.210125
30.666667	1	0.231875
30.683333	1	0.255125
30.700000	1	0.280625
30.716667	1	0.308750
30.733333	1	0.339750
30.750000	1	0.372875
30.766667	1	0.409875
30.783333	1	0.450625
30.800000	1	0.495000
30.816667	1	0.544000
30.833333	1	0.598875
30.850000	1	0.659125
30.866667	1	0.725625
30.883333	1	0.798250
30.900000	1	0.879000
30.916667	1	0.968125
30.933333	1	1.065625
30.950000	1	1.173125
30.966667	1	1.290375
30.983333	1	1.419250
31.000000	1	1.559625
31.016667	1	1.712750
31.033333	1	1.877875
31.050000	1	2.055750
31.066667	1	2.247000
31.083333	1	2.451000
31.100000	1	2.667875
31.116667	1	2.898250
31.133333	1	3.139500
31.150000	1	3.391250
31.166667	1	3.652750
31.183333	1	3.922750
31.200000	1	4.199125
31.216667	1	4.481125
31.233333	1	4.765375
31.250000	1	5.049375
31.266667	1	5.330625
31.283333	1	5.606250
31.300000	1	5.871750
31.316667	1	6.125500
31.333333	1	6.364250
31.350000	1	6.584750
31.366667	1	6.784125
31.383333	1	6.960375
31.400000	1	7.110375
31.416667	1	7.232250
31.433333	1	7.325750
31.450000	1	7.387125
31.466667	1	7.417500
31.483333	1	7.414125
31.500000	1	7.378500
31.516667	1	7.312125
31.533333	1	7.215375
31.550000	1	7.089125
31.566667	1	6.935875
31.583333	1	6.756375
31.600000	1	6.554375
31.616667	1	6.332875
31.633333	1	6.092875
31.650000	1	5.839000
31.666667	1	5.574000
31.683333	1	5.301000
31.700000	1	5.021250
31.716667	1	4.740375
31.733333	1	4.458750
31.750000	1	4.179875
31.766667	1	3.904750
31.783333	1	3.636625
31.800000	1	3.376125
31.816667	1	3.124750
31.833333	1	2.884000
31.850000	1	2.654750
31.866667	1	2.438750
31.883333	1	2.234375
31.900000	1	2.042875
31.916667	1	1.864250
31.933333	1	1.699375
31.950000	1	1.546125
31.966667	1	1.405250
31.983333	1	1.275125
32.000000	1	1.156125
32.016667	1	1.047125
32.033333	1	0.948375
32.050000	1	0.858250
32.066667	1	0.776750
32.083333	1	0.703375
32.100000	1	0.637500
32.116667	1	0.577250
32.133333	1	0.522750
32.150000	1	0.474000
32.166667	1	0.430250
32.183333	1	0.390875
32.200000	1	0.355125
32.216667	1	0.323250
32.233333	1	0.293500
32.250000	1	0.267500
32.266667	1	0.244000
32.283333	1	0.222500
32.300000	1	0.203125
32.316667	1	0.185500
32.333333	1	0.169500
32.350000	1	0.155125
32.366667	1	0.142500
32.383333	1	0.130750
32.400000	1	0.120875
32.416667	1	0.111250
32.433333	1	0.102625
32.450000	1	0.094125
32.466667	1	0.086375
32.483333	1	0.079375
32.500000	1	0.073875
32.516667	1	0.067625
32.533333	1	0.061875
32.550000	1	0.057125
32.566667	1	0.053125
32.583333	1	0.048875
32.600000	1	0.044500
32.616667	1	0.040875
32.633333	1	0.038250
32.650000	1	0.034875
32.666667	1	0.032375
32.683333	1	0.029250
32.700000	1	0.026875
32.716667	1	0.024500
32.733333	1	0.022875
32.750000	1	0.021250
32.766667	1	0.019500
32.783333	1	0.018500
32.800000	1	0.016500
32.816667	1	0.015000
32.833333	1	0.014125
32.850000	1	0.013500
32.866667	1	0.012875
32.883333	1	0.013125
32.900000	1	0.012125
32.916667	1	0.012000
32.933333	1	0.012500
32.950000	1	0.013375
32.966667	1	0.014125
32.983333	1	0.015500
33.000000	1	0.017375
33.016667	1	0.019000
33.033333	1	0.021000
33.050000	1	0.022875
33.066667	1	0.024375
33.083333	1	0.026875
33.100000	1	0.029125
33.116667	1	0.032375
33.133333	1	0.035250
33.150000	1	0.038375
33.166667	1	0.042250
33.183333	1	0.045250
33.200000	1	0.048875
33.216667	1	0.052875
33.233333	1	0.056250
33.250000	1	0.059750
33.266667	1	0.063625
33.283333	1	0.067375
33.300000	1	0.071250
33.316667	1	0.075125
33.333333	1	0.078375
33.350000	1	0.082125
33.366667	1	0.085500
33.383333	1	0.089250
33.400000	1	0.092875
33.416667	1	0.095875
33.433333	1	0.098875
33.450000	1	0.101750
33.466667	1	0.104750
33.483333	1	0.107750
33.500000	1	0.110875
33.516667	1	0.113125
33.533333	1	0.115625
33.550000	1	0.118375
33.566667	1	0.120875
33.583333	1	0.123750
33.600000	1	0.125625
33.616667	1	0.127750
33.633333	1	0.130125
33.650000	1	0.133625
33.666667	1	0.136125
33.683333	1	0.138625
33.700000	1	0.140625
33.716667	1	0.143375
33.733333	1	0.146500
33.750000	1	0.149500
33.766667	1	0.153250
33.783333	1	0.157125
33.800000	1	0.160000
33.816667	1	0.163125
33.833333	1	0.167375
33.850000	1	0.171375
33.866667	1	0.175250
33.883333	1	0.178625
33.900000	1	0.182500
33.916667	1	0.186750
33.933333	1	0.190625
33.950000	1	0.194125
33.966667	1	0.197875
33.983333	1	0.201250
34.000000	1	0.204750
34.016667	1	0.208500
34.033333	1	0.212250
34.050000	1	0.215750
34.066667	1	0.218500
34.083333	1	0.220750
34.100000	1	0.223500
34.116667	1	0.225875
34.133333	1	0.228000
34.150000	1	0.230625
34.166667	1	0.232875
34.183333	1	0.234625
34.200000	1	0.236125
34.216667	1	0.237500
34.233333	1	0.238875
34.250000	1	0.240125
34.266667	1	0.240625
34.283333	1	0.240500
34.300000	1	0.240750
34.316667	1	0.241125
34.333333	1	0.241125
34.350000	1	0.240750
34.366667	1	0.239875
34.383333	1	0.239500
34.400000	1	0.238125
34.416667	1	0.237125
34.433333	1	0.235375
34.450000	1	0.234000
34.466667	1	0.232625
34.483333	1	0.230500
34.500000	1	0.228250
34.516667	1	0.225500
34.533333	1	0.222250
34.550000	1	0.219875
34.566667	1	0.217375
34.583333	1	0.214875
34.600000	1	0.211250
34.616667	1	0.208750
34.633333	1	0.205625
34.650000	1	0.202250
34.666667	1	0.199375
34.683333	1	0.196625
34.700000	1	0.193500
34.716667	1	0.190125
34.733333	1	0.187250
34.750000	1	0.185625
34.766667	1	0.183125
34.783333	1	0.180625
34.800000	1	0.178000
34.816667	1	0.176625
34.833333	1	0.174625
34.850000	1	0.173000
34.866667	1	0.170875
34.883333	1	0.168875
34.900000	1	0.167125
34.916667	1	0.166000
34.933333	1	0.164500
34.950000	1	0.163500
34.966667	1	0.162750
34.983333	1	0.161875
35.000000	1	0.161000
35.016667	1	0.159125
35.033333	1	0.158250
35.050000	1	0.157750
35.066667	1	0.156625
35.083333	1	0.155625
35.100000	1	0.154000
35.116667	1	0.152875
35.133333	1	0.151750
35.150000	1	0.150875
35.166667	1	0.149375
35.183333	1	0.148250
35.200000	1	0.146375
35.216667	1	0.145250
35.233333	1	0.143875
35.250000	1	0.142750
35.266667	1	0.140625
35.283333	1	0.138500
35.300000	1	0.136750
35.316667	1	0.135375
35.333333	1	0.133875
35.350000	1	0.132500
35.366667	1	0.131125
35.383333	1	0.129375
35.400000	1	0.127625
35.416667	1	0.126750
35.433333	1	0.125375
35.450000	1	0.123875
35.466667	1	0.122875
35.483333	1	0.121250
35.500000	1	0.120250
35.516667	1	0.118875
35.533333	1	0.117125
35.550000	1	0.115875
35.566667	1	0.114000
35.583333	1	0.111625
35.600000	1	0.110375
35.616667	1	0.108750
35.633333	1	0.106875
35.650000	1	0.105750
35.666667	1	0.104625
35.683333	1	0.103375
35.700000	1	0.102250
35.716667	1	0.100875
35.733333	1	0.099500
35.750000	1	0.098625
35.766667	1	0.097000
35.783333	1	0.096250
35.800000	1	0.095500
35.816667	1	0.094625
35.833333	1	0.093750
35.850000	1	0.092875
35.866667	1	0.092500
35.883333	1	0.092875
35.900000	1	0.092875
35.916667	1	0.093750
35.933333	1	0.093875
35.950000	1	0.094500
35.966667	1	0.095500
35.983333	1	0.096375
36.000000	1	0.097375
36.016667	1	0.098000
36.033333	1	0.099375
36.050000	1	0.101125
36.066667	1	0.102000
36.083333	1	0.104000
36.100000	1	0.106750
36.116667	1	0.108250
36.133333	1	0.110375
36.150000	1	0.112500
36.166667	1	0.114625
36.183333	1	0.117250
36.200000	1	0.119250
36.216667	1	0.121000
36.233333	1	0.123500
36.250000	1	0.125250
36.266667	1	0.128000
36.283333	1	0.130500
36.300000	1	0.133375
36.316667	1	0.135625
36.333333	1	0.137750
36.350000	1	0.139750
36.366667	1	0.141875
36.383333	1	0.144625
36.400000	1	0.146250
36.416667	1	0.148250
36.433333	1	0.150500
36.450000	1	0.152125
36.466667	1	0.153500
36.483333	1	0.154750
36.500000	1	0.156125
36.516667	1	0.157625
36.533333	1	0.158875
36.550000	1	0.159750
36.566667	1	0.161000
36.583333	1	0.161625
36.600000	1	0.162375
36.616667	1	0.163000
36.633333	1	0.162625
36.650000	1	0.163000
36.666667	1	0.163375
36.683333	1	0.163750
36.700000	1	0.163875
36.716667	1	0.163375
36.733333	1	0.163500
36.750000	1	0.163750
36.766667	1	0.162625
36.783333	1	0.162750
36.800000	1	0.162625
36.816667	1	0.161875
36.833333	1	0.161125
36.850000	1	0.161000
36.866667	1	0.161250
36.883333	1	0.161500
36.900000	1	0.161250
36.916667	1	0.161500
36.933333	1	0.162000
36.950000	1	0.161875
36.966667	1	0.162625
36.983333	1	0.163500
37.000000	1	0.163875
37.016667	1	0.163875
37.033333	1	0.164500
37.050000	1	0.164500
37.066667	1	0.164875
37.083333	1	0.165375
37.100000	1	0.166250
37.116667	1	0.167500
37.133333	1	0.167750
37.150000	1	0.168250
37.166667	1	0.167875
37.183333	1	0.167750
37.200000	1	0.167625
37.216667	1	0.167500
37.233333	1	0.166750
37.250000	1	0.166125
37.266667	1	0.164500
37.283333	1	0.163750
37.300000	1	0.161750
37.316667	1	0.159625
37.333333	1	0.157500
37.350000	1	0.154875
37.366667	1	0.151875
37.383333	1	0.149000
37.400000	1	0.145750
37.416667	1	0.142125
37.433333	1	0.138125
37.450000	1	0.133875
37.466667	1	0.129750
37.483333	1	0.125375
37.500000	1	0.121375
37.516667	1	0.117375
37.533333	1	0.113000
37.550000	1	0.108750
37.566667	1	0.104250
37.583333	1	0.099750
37.600000	1	0.096000
37.616667	1	0.091625
37.633333	1	0.088000
37.650000	1	0.084500
37.666667	1	0.081125
37.683333	1	0.077750
37.700000	1	0.074750
37.716667	1	0.072500
37.733333	1	0.070125
37.750000	1	0.068000
37.766667	1	0.066500
37.783333	1	0.064875
37.800000	1	0.063500
37.816667	1	0.062500
37.833333	1	0.062250
37.850000	1	0.061625
37.866667	1	0.061000
37.883333	1	0.060625
37.900000	1	0.060625
37.916667	1	0.061125
37.933333	1	0.061125
37.950000	1	0.061750
37.966667	1	0.062000
37.983333	1	0.063000
38.000000	1	0.063875
38.016667	1	0.064375
38.033333	1	0.065125
38.050000	1	0.066125
38.066667	1	0.066500
38.083333	1	0.067625
38.100000	1	0.068250
38.116667	1	0.068750
38.133333	1	0.069375
38.150000	1	0.070125
38.166667	1	0.070500
38.183333	1	0.071000
38.200000	1	0.070875
38.216667	1	0.071125
38.233333	1	0.071500
38.250000	1	0.072125
38.266667	1	0.072625
38.283333	1	0.073000
38.300000	1	0.072750
38.316667	1	0.072625
38.333333	1	0.072750
38.350000	1	0.073125
38.366667	1	0.073750
38.383333	1	0.073875
38.400000	1	0.074500
38.416667	1	0.075000
38.433333	1	0.075750
38.450000	1	0.076625
38.466667	1	0.076750
38.483333	1	0.077500
38.500000	1	0.078125
38.516667	1	0.079250
38.533333	1	0.079375
38.550000	1	0.080125
38.566667	1	0.080750
38.583333	1	0.081625
38.600000	1	0.082125
38.616667	1	0.083375
38.633333	1	0.084375
38.650000	1	0.085500
38.666667	1	0.086125
38.683333	1	0.086625
38.700000	1	0.087375
38.716667	1	0.088875
38.733333	1	0.089875
38.750000	1	0.090125
38.766667	1	0.090000
38.783333	1	0.090125
38.800000	1	0.090375
38.816667	1	0.090750
38.833333	1	0.089750
38.850000	1	0.090000
38.866667	1	0.089500
38.883333	1	0.089250
38.900000	1	0.088500
38.916667	1	0.087875
38.933333	1	0.087625
38.950000	1	0.086875
38.966667	1	0.086375
38.983333	1	0.085375
39.000000	1	0.084625
39.016667	1	0.084375
39.033333	1	0.083500
39.050000	1	0.082500
39.066667	1	0.082375
39.083333	1	0.081250
39.100000	1	0.080125
39.116667	1	0.079375
39.133333	1	0.079625
39.150000	1	0.078750
39.166667	1	0.078250
39.183333	1	0.077250
39.200000	1	0.077250
39.216667	1	0.076750
39.233333	1	0.076125
39.250000	1	0.075875
39.266667	1	0.076125
39.283333	1	0.075875
39.300000	1	0.075750
39.316667	1	0.075250
39.333333	1	0.075500
39.350000	1	0.075500
39.366667	1	0.075750
39.383333	1	0.075750
39.400000	1	0.075875
39.416667	1	0.076125
39.433333	1	0.076750
39.450000	1	0.076500
39.466667	1	0.075875
39.483333	1	0.076000
39.500000	1	0.076625
39.516667	1	0.076625
39.533333	1	0.076875
39.550000	1	0.077125
39.566667	1	0.077500
39.583333	1	0.078000
39.600000	1	0.077625
39.616667	1	0.077375
39.633333	1	0.077625
39.650000	1	0.077375
39.666667	1	0.077625
39.683333	1	0.077750
39.700000	1	0.077875
39.716667	1	0.078125
39.733333	1	0.078250
39.750000	1	0.078000
39.766667	1	0.077875
39.783333	1	0.077625
39.800000	1	0.078375
39.816667	1	0.078375
39.833333	1	0.078375
39.850000	1	0.078750
39.866667	1	0.079250
39.883333	1	0.080000
39.900000	1	0.080500
39.916667	1	0.080875
39.933333	1	0.081000
39.950000	1	0.081125
39.966667	1	0.082250
39.983333	1	0.083750
40.000000	1	0.083625
