URL	chrom://bioreactor/micro_cm7/HPLC_Ultimate_3000/Users/markusar/20240727_MA_EsirYCA.seq/587.smp/RI_1.channel/RI_1.chm
Channel	RI_1

Injection Information:
Data Vault	micro_cm7
Sequence	20240727_MA_EsirYCA
Name	Es1_2
Number	3
Position	BA3
Comment	
Processing Method	
Instrument Method	run_25B_method
Type	Unknown
Status	Finished
Inject Time	29.07.2024 14:59:36 +02:00
Volume (µl)	20.0000
Dilution Factor	1.0000
Weight	1.0000

Chromatogram Data Information:
Time Min. (min)	0.000000
Time Max. (min)	40.000000
Data Points	2401
Detector	RI
Generating Data System	Chromeleon 7.3.2.11814
Exporting Data System	Chromeleon 7.3.2.0
Operator	Instrument Controller
Signal Quantity	Refractive 
Signal Unit	µRIU
Signal Min.	-1.367000
Signal Max.	64.445625
Channel	RI_1
Driver Name	RID520Driver.dll
Channel Type	Evaluation
Min. Step (s)	1
Max. Step (s)	1
Average Step (s)	1

Signal Parameter Information:
Signal Info	

Chromatogram Data:
Time (min)	Step (s)	Value (µRIU)
0.000000	n.a.	-0.038875
0.016667	1	-0.040125
0.033333	1	-0.041750
0.050000	1	-0.042750
0.066667	1	-0.043625
0.083333	1	-0.044875
0.100000	1	-0.045500
0.116667	1	-0.046500
0.133333	1	-0.047375
0.150000	1	-0.048000
0.166667	1	-0.048625
0.183333	1	-0.048500
0.200000	1	-0.048500
0.216667	1	-0.048625
0.233333	1	-0.048375
0.250000	1	-0.047500
0.266667	1	-0.047500
0.283333	1	-0.047000
0.300000	1	-0.046000
0.316667	1	-0.045500
0.333333	1	-0.044375
0.350000	1	-0.043375
0.366667	1	-0.042375
0.383333	1	-0.042250
0.400000	1	-0.041125
0.416667	1	-0.039375
0.433333	1	-0.036500
0.450000	1	-0.033125
0.466667	1	-0.029000
0.483333	1	-0.025125
0.500000	1	-0.022000
0.516667	1	-0.019375
0.533333	1	-0.017125
0.550000	1	-0.015625
0.566667	1	-0.014500
0.583333	1	-0.014250
0.600000	1	-0.015125
0.616667	1	-0.015125
0.633333	1	-0.014875
0.650000	1	-0.014875
0.666667	1	-0.014750
0.683333	1	-0.013250
0.700000	1	-0.012125
0.716667	1	-0.011250
0.733333	1	-0.010375
0.750000	1	-0.010125
0.766667	1	-0.009750
0.783333	1	-0.009125
0.800000	1	-0.008500
0.816667	1	-0.007375
0.833333	1	-0.007625
0.850000	1	-0.007250
0.866667	1	-0.006500
0.883333	1	-0.005875
0.900000	1	-0.006125
0.916667	1	-0.006250
0.933333	1	-0.006250
0.950000	1	-0.006625
0.966667	1	-0.006750
0.983333	1	-0.006375
1.000000	1	-0.006875
1.016667	1	-0.006625
1.033333	1	-0.006000
1.050000	1	-0.006000
1.066667	1	-0.005750
1.083333	1	-0.005750
1.100000	1	-0.005750
1.116667	1	-0.006375
1.133333	1	-0.006375
1.150000	1	-0.006375
1.166667	1	-0.006500
1.183333	1	-0.006750
1.200000	1	-0.006750
1.216667	1	-0.006875
1.233333	1	-0.006000
1.250000	1	-0.005750
1.266667	1	-0.005500
1.283333	1	-0.005125
1.300000	1	-0.004500
1.316667	1	-0.004000
1.333333	1	-0.003500
1.350000	1	-0.003500
1.366667	1	-0.002750
1.383333	1	-0.002375
1.400000	1	-0.002125
1.416667	1	-0.001875
1.433333	1	-0.001500
1.450000	1	-0.000375
1.466667	1	0.000625
1.483333	1	0.000875
1.500000	1	0.001500
1.516667	1	0.002250
1.533333	1	0.002750
1.550000	1	0.003125
1.566667	1	0.003625
1.583333	1	0.003750
1.600000	1	0.003500
1.616667	1	0.003625
1.633333	1	0.003875
1.650000	1	0.003375
1.666667	1	0.003000
1.683333	1	0.002875
1.700000	1	0.002500
1.716667	1	0.002000
1.733333	1	0.001000
1.750000	1	0.000000
1.766667	1	-0.000375
1.783333	1	-0.001375
1.800000	1	-0.003000
1.816667	1	-0.004750
1.833333	1	-0.006125
1.850000	1	-0.007500
1.866667	1	-0.009250
1.883333	1	-0.011625
1.900000	1	-0.013375
1.916667	1	-0.015625
1.933333	1	-0.017500
1.950000	1	-0.019750
1.966667	1	-0.022250
1.983333	1	-0.024500
2.000000	1	-0.026500
2.016667	1	-0.028125
2.033333	1	-0.029750
2.050000	1	-0.031500
2.066667	1	-0.033125
2.083333	1	-0.034625
2.100000	1	-0.036375
2.116667	1	-0.037750
2.133333	1	-0.038000
2.150000	1	-0.039000
2.166667	1	-0.040250
2.183333	1	-0.040375
2.200000	1	-0.040500
2.216667	1	-0.040625
2.233333	1	-0.040125
2.250000	1	-0.039375
2.266667	1	-0.038750
2.283333	1	-0.037875
2.300000	1	-0.037000
2.316667	1	-0.035625
2.333333	1	-0.033500
2.350000	1	-0.032000
2.366667	1	-0.029875
2.383333	1	-0.027375
2.400000	1	-0.025375
2.416667	1	-0.023000
2.433333	1	-0.020875
2.450000	1	-0.018750
2.466667	1	-0.016500
2.483333	1	-0.014875
2.500000	1	-0.013250
2.516667	1	-0.012500
2.533333	1	-0.010625
2.550000	1	-0.010000
2.566667	1	-0.009750
2.583333	1	-0.009750
2.600000	1	-0.008625
2.616667	1	-0.008250
2.633333	1	-0.008375
2.650000	1	-0.008875
2.666667	1	-0.009500
2.683333	1	-0.010250
2.700000	1	-0.011000
2.716667	1	-0.011500
2.733333	1	-0.012250
2.750000	1	-0.013000
2.766667	1	-0.013875
2.783333	1	-0.015125
2.800000	1	-0.016125
2.816667	1	-0.016250
2.833333	1	-0.016250
2.850000	1	-0.016125
2.866667	1	-0.016375
2.883333	1	-0.016625
2.900000	1	-0.015875
2.916667	1	-0.014875
2.933333	1	-0.014000
2.950000	1	-0.012625
2.966667	1	-0.011750
2.983333	1	-0.009875
3.000000	1	-0.008000
3.016667	1	-0.005625
3.033333	1	-0.002875
3.050000	1	0.000625
3.066667	1	0.003000
3.083333	1	0.006750
3.100000	1	0.010250
3.116667	1	0.013875
3.133333	1	0.017625
3.150000	1	0.021000
3.166667	1	0.024500
3.183333	1	0.028375
3.200000	1	0.032000
3.216667	1	0.035125
3.233333	1	0.038500
3.250000	1	0.041750
3.266667	1	0.045250
3.283333	1	0.048125
3.300000	1	0.050625
3.316667	1	0.053375
3.333333	1	0.056000
3.350000	1	0.057875
3.366667	1	0.059000
3.383333	1	0.060500
3.400000	1	0.062125
3.416667	1	0.063250
3.433333	1	0.064250
3.450000	1	0.064500
3.466667	1	0.064750
3.483333	1	0.065000
3.500000	1	0.065375
3.516667	1	0.064500
3.533333	1	0.064125
3.550000	1	0.063125
3.566667	1	0.063250
3.583333	1	0.062000
3.600000	1	0.061625
3.616667	1	0.060750
3.633333	1	0.059875
3.650000	1	0.058875
3.666667	1	0.057875
3.683333	1	0.056375
3.700000	1	0.055625
3.716667	1	0.054125
3.733333	1	0.053125
3.750000	1	0.052000
3.766667	1	0.051000
3.783333	1	0.049625
3.800000	1	0.048625
3.816667	1	0.048125
3.833333	1	0.047500
3.850000	1	0.046375
3.866667	1	0.045375
3.883333	1	0.044375
3.900000	1	0.043625
3.916667	1	0.042625
3.933333	1	0.041000
3.950000	1	0.039875
3.966667	1	0.039000
3.983333	1	0.038000
4.000000	1	0.037125
4.016667	1	0.036375
4.033333	1	0.035375
4.050000	1	0.033875
4.066667	1	0.032625
4.083333	1	0.031625
4.100000	1	0.030500
4.116667	1	0.029375
4.133333	1	0.028000
4.150000	1	0.026000
4.166667	1	0.024000
4.183333	1	0.022500
4.200000	1	0.021375
4.216667	1	0.019250
4.233333	1	0.017250
4.250000	1	0.015500
4.266667	1	0.013875
4.283333	1	0.012750
4.300000	1	0.011125
4.316667	1	0.009875
4.333333	1	0.008375
4.350000	1	0.007375
4.366667	1	0.005625
4.383333	1	0.004625
4.400000	1	0.003250
4.416667	1	0.002250
4.433333	1	0.001125
4.450000	1	0.001250
4.466667	1	0.001125
4.483333	1	0.000250
4.500000	1	-0.000625
4.516667	1	-0.000750
4.533333	1	-0.001000
4.550000	1	-0.000375
4.566667	1	-0.000750
4.583333	1	0.000000
4.600000	1	0.000375
4.616667	1	0.001125
4.633333	1	0.002500
4.650000	1	0.003375
4.666667	1	0.005125
4.683333	1	0.006625
4.700000	1	0.009000
4.716667	1	0.010750
4.733333	1	0.012500
4.750000	1	0.015125
4.766667	1	0.017500
4.783333	1	0.020125
4.800000	1	0.023375
4.816667	1	0.026750
4.833333	1	0.029875
4.850000	1	0.033000
4.866667	1	0.036875
4.883333	1	0.040500
4.900000	1	0.044000
4.916667	1	0.046875
4.933333	1	0.050375
4.950000	1	0.053625
4.966667	1	0.056875
4.983333	1	0.060250
5.000000	1	0.063125
5.016667	1	0.065875
5.033333	1	0.069000
5.050000	1	0.071375
5.066667	1	0.073750
5.083333	1	0.076250
5.100000	1	0.078000
5.116667	1	0.079375
5.133333	1	0.080125
5.150000	1	0.081125
5.166667	1	0.082125
5.183333	1	0.083000
5.200000	1	0.082875
5.216667	1	0.083625
5.233333	1	0.083750
5.250000	1	0.083625
5.266667	1	0.083250
5.283333	1	0.082875
5.300000	1	0.081250
5.316667	1	0.080000
5.333333	1	0.079000
5.350000	1	0.077625
5.366667	1	0.076875
5.383333	1	0.075250
5.400000	1	0.074625
5.416667	1	0.073250
5.433333	1	0.071875
5.450000	1	0.069875
5.466667	1	0.068000
5.483333	1	0.066375
5.500000	1	0.065250
5.516667	1	0.063500
5.533333	1	0.062000
5.550000	1	0.060250
5.566667	1	0.058875
5.583333	1	0.058125
5.600000	1	0.057125
5.616667	1	0.056000
5.633333	1	0.054375
5.650000	1	0.052625
5.666667	1	0.051375
5.683333	1	0.049875
5.700000	1	0.048500
5.716667	1	0.047500
5.733333	1	0.046500
5.750000	1	0.045375
5.766667	1	0.044125
5.783333	1	0.043000
5.800000	1	0.042375
5.816667	1	0.041000
5.833333	1	0.039500
5.850000	1	0.038125
5.866667	1	0.037500
5.883333	1	0.035750
5.900000	1	0.033750
5.916667	1	0.033125
5.933333	1	0.031250
5.950000	1	0.029375
5.966667	1	0.027625
5.983333	1	0.026500
6.000000	1	0.024625
6.016667	1	0.023000
6.033333	1	0.022000
6.050000	1	0.020500
6.066667	1	0.019250
6.083333	1	0.017250
6.100000	1	0.015625
6.116667	1	0.013750
6.133333	1	0.012875
6.150000	1	0.011750
6.166667	1	0.010500
6.183333	1	0.009375
6.200000	1	0.008875
6.216667	1	0.008250
6.233333	1	0.006875
6.250000	1	0.006375
6.266667	1	0.005750
6.283333	1	0.005125
6.300000	1	0.004500
6.316667	1	0.003625
6.333333	1	0.003500
6.350000	1	0.003125
6.366667	1	0.003375
6.383333	1	0.003500
6.400000	1	0.004875
6.416667	1	0.005375
6.433333	1	0.005125
6.450000	1	0.005875
6.466667	1	0.006125
6.483333	1	0.006875
6.500000	1	0.007625
6.516667	1	0.007875
6.533333	1	0.007875
6.550000	1	0.009125
6.566667	1	0.009875
6.583333	1	0.011500
6.600000	1	0.011875
6.616667	1	0.013625
6.633333	1	0.014875
6.650000	1	0.016875
6.666667	1	0.018625
6.683333	1	0.019750
6.700000	1	0.021375
6.716667	1	0.022625
6.733333	1	0.024875
6.750000	1	0.027500
6.766667	1	0.030500
6.783333	1	0.033250
6.800000	1	0.035750
6.816667	1	0.038000
6.833333	1	0.041000
6.850000	1	0.044375
6.866667	1	0.047875
6.883333	1	0.051000
6.900000	1	0.054625
6.916667	1	0.058375
6.933333	1	0.062125
6.950000	1	0.065875
6.966667	1	0.070375
6.983333	1	0.074250
7.000000	1	0.078125
7.016667	1	0.081375
7.033333	1	0.085000
7.050000	1	0.088375
7.066667	1	0.091875
7.083333	1	0.095125
7.100000	1	0.097750
7.116667	1	0.100250
7.133333	1	0.102125
7.150000	1	0.104000
7.166667	1	0.106000
7.183333	1	0.107625
7.200000	1	0.108500
7.216667	1	0.109000
7.233333	1	0.108750
7.250000	1	0.108750
7.266667	1	0.108750
7.283333	1	0.107000
7.300000	1	0.105250
7.316667	1	0.104125
7.333333	1	0.102125
7.350000	1	0.099125
7.366667	1	0.096000
7.383333	1	0.093125
7.400000	1	0.090000
7.416667	1	0.086375
7.433333	1	0.082875
7.450000	1	0.078250
7.466667	1	0.074625
7.483333	1	0.070375
7.500000	1	0.066000
7.516667	1	0.060750
7.533333	1	0.056250
7.550000	1	0.051750
7.566667	1	0.047625
7.583333	1	0.042750
7.600000	1	0.038250
7.616667	1	0.033500
7.633333	1	0.029250
7.650000	1	0.025000
7.666667	1	0.020625
7.683333	1	0.016500
7.700000	1	0.013125
7.716667	1	0.009750
7.733333	1	0.006000
7.750000	1	0.002500
7.766667	1	-0.000500
7.783333	1	-0.003250
7.800000	1	-0.006625
7.816667	1	-0.009125
7.833333	1	-0.011250
7.850000	1	-0.013500
7.866667	1	-0.015125
7.883333	1	-0.016625
7.900000	1	-0.017625
7.916667	1	-0.018875
7.933333	1	-0.019250
7.950000	1	-0.020000
7.966667	1	-0.020375
7.983333	1	-0.020625
8.000000	1	-0.020750
8.016667	1	-0.021125
8.033333	1	-0.021000
8.050000	1	-0.021375
8.066667	1	-0.020875
8.083333	1	-0.020375
8.100000	1	-0.019875
8.116667	1	-0.019500
8.133333	1	-0.018750
8.150000	1	-0.017875
8.166667	1	-0.018125
8.183333	1	-0.018000
8.200000	1	-0.017500
8.216667	1	-0.017250
8.233333	1	-0.017375
8.250000	1	-0.017500
8.266667	1	-0.017500
8.283333	1	-0.017625
8.300000	1	-0.018250
8.316667	1	-0.018875
8.333333	1	-0.018750
8.350000	1	-0.019875
8.366667	1	-0.021500
8.383333	1	-0.022125
8.400000	1	-0.023000
8.416667	1	-0.023750
8.433333	1	-0.025375
8.450000	1	-0.026500
8.466667	1	-0.028125
8.483333	1	-0.029500
8.500000	1	-0.030375
8.516667	1	-0.030250
8.533333	1	-0.031375
8.550000	1	-0.031500
8.566667	1	-0.031500
8.583333	1	-0.031750
8.600000	1	-0.032000
8.616667	1	-0.032125
8.633333	1	-0.031625
8.650000	1	-0.030500
8.666667	1	-0.030000
8.683333	1	-0.029750
8.700000	1	-0.029000
8.716667	1	-0.027625
8.733333	1	-0.026625
8.750000	1	-0.024625
8.766667	1	-0.022625
8.783333	1	-0.021000
8.800000	1	-0.019000
8.816667	1	-0.017625
8.833333	1	-0.016375
8.850000	1	-0.014375
8.866667	1	-0.011875
8.883333	1	-0.009750
8.900000	1	-0.007500
8.916667	1	-0.005250
8.933333	1	-0.003000
8.950000	1	-0.001000
8.966667	1	0.001500
8.983333	1	0.003500
9.000000	1	0.005625
9.016667	1	0.008375
9.033333	1	0.010500
9.050000	1	0.013000
9.066667	1	0.014625
9.083333	1	0.017500
9.100000	1	0.019500
9.116667	1	0.021375
9.133333	1	0.022375
9.150000	1	0.023750
9.166667	1	0.024625
9.183333	1	0.026000
9.200000	1	0.026750
9.216667	1	0.027250
9.233333	1	0.027500
9.250000	1	0.028250
9.266667	1	0.027750
9.283333	1	0.027000
9.300000	1	0.025750
9.316667	1	0.025000
9.333333	1	0.023625
9.350000	1	0.023000
9.366667	1	0.021125
9.383333	1	0.019750
9.400000	1	0.017625
9.416667	1	0.015125
9.433333	1	0.012875
9.450000	1	0.010000
9.466667	1	0.007125
9.483333	1	0.004875
9.500000	1	0.002250
9.516667	1	0.000000
9.533333	1	-0.002250
9.550000	1	-0.005125
9.566667	1	-0.007375
9.583333	1	-0.010500
9.600000	1	-0.013125
9.616667	1	-0.015250
9.633333	1	-0.017500
9.650000	1	-0.019750
9.666667	1	-0.021625
9.683333	1	-0.023500
9.700000	1	-0.024375
9.716667	1	-0.025000
9.733333	1	-0.025875
9.750000	1	-0.026625
9.766667	1	-0.027250
9.783333	1	-0.027625
9.800000	1	-0.027750
9.816667	1	-0.027750
9.833333	1	-0.027375
9.850000	1	-0.026875
9.866667	1	-0.026375
9.883333	1	-0.025125
9.900000	1	-0.024375
9.916667	1	-0.022625
9.933333	1	-0.020875
9.950000	1	-0.018250
9.966667	1	-0.016250
9.983333	1	-0.013750
10.000000	1	-0.011125
10.016667	1	-0.007625
10.033333	1	-0.004250
10.050000	1	-0.000750
10.066667	1	0.003750
10.083333	1	0.009000
10.100000	1	0.014500
10.116667	1	0.020750
10.133333	1	0.027875
10.150000	1	0.035125
10.166667	1	0.043375
10.183333	1	0.052375
10.200000	1	0.062250
10.216667	1	0.073375
10.233333	1	0.084750
10.250000	1	0.098000
10.266667	1	0.112750
10.283333	1	0.128500
10.300000	1	0.146875
10.316667	1	0.167500
10.333333	1	0.189875
10.350000	1	0.214125
10.366667	1	0.239500
10.383333	1	0.264000
10.400000	1	0.285625
10.416667	1	0.303875
10.433333	1	0.316875
10.450000	1	0.327125
10.466667	1	0.339625
10.483333	1	0.367125
10.500000	1	0.431125
10.516667	1	0.559875
10.533333	1	0.790625
10.550000	1	1.167750
10.566667	1	1.732875
10.583333	1	2.526125
10.600000	1	3.582625
10.616667	1	4.927250
10.633333	1	6.571750
10.650000	1	8.519625
10.666667	1	10.767250
10.683333	1	13.300125
10.700000	1	16.095125
10.716667	1	19.119500
10.733333	1	22.330875
10.750000	1	25.679500
10.766667	1	29.102750
10.783333	1	32.524125
10.800000	1	35.849250
10.816667	1	38.952500
10.833333	1	41.672500
10.850000	1	43.810625
10.866667	1	45.140125
10.883333	1	45.439875
10.900000	1	44.551125
10.916667	1	42.443250
10.933333	1	39.250625
10.950000	1	35.259125
10.966667	1	30.842125
10.983333	1	26.374375
11.000000	1	22.151875
11.016667	1	18.366375
11.033333	1	15.107375
11.050000	1	12.383250
11.066667	1	10.157500
11.083333	1	8.371375
11.100000	1	6.957000
11.116667	1	5.848125
11.133333	1	4.984625
11.150000	1	4.312375
11.166667	1	3.789500
11.183333	1	3.378500
11.200000	1	3.052250
11.216667	1	2.790750
11.233333	1	2.578500
11.250000	1	2.402125
11.266667	1	2.254500
11.283333	1	2.128625
11.300000	1	2.019625
11.316667	1	1.923125
11.333333	1	1.837375
11.350000	1	1.760625
11.366667	1	1.690250
11.383333	1	1.627250
11.400000	1	1.569750
11.416667	1	1.518500
11.433333	1	1.472375
11.450000	1	1.431500
11.466667	1	1.395250
11.483333	1	1.362875
11.500000	1	1.334875
11.516667	1	1.310000
11.533333	1	1.288000
11.550000	1	1.268750
11.566667	1	1.252250
11.583333	1	1.237250
11.600000	1	1.225000
11.616667	1	1.214250
11.633333	1	1.204625
11.650000	1	1.196625
11.666667	1	1.189375
11.683333	1	1.183500
11.700000	1	1.179000
11.716667	1	1.175125
11.733333	1	1.172000
11.750000	1	1.168750
11.766667	1	1.166750
11.783333	1	1.165125
11.800000	1	1.165125
11.816667	1	1.164500
11.833333	1	1.165000
11.850000	1	1.167125
11.866667	1	1.169375
11.883333	1	1.171750
11.900000	1	1.174125
11.916667	1	1.176625
11.933333	1	1.179375
11.950000	1	1.180875
11.966667	1	1.182000
11.983333	1	1.182750
12.000000	1	1.182750
12.016667	1	1.181500
12.033333	1	1.180500
12.050000	1	1.179375
12.066667	1	1.178375
12.083333	1	1.177000
12.100000	1	1.175375
12.116667	1	1.174375
12.133333	1	1.173875
12.150000	1	1.174500
12.166667	1	1.175250
12.183333	1	1.177500
12.200000	1	1.180500
12.216667	1	1.184250
12.233333	1	1.190625
12.250000	1	1.198500
12.266667	1	1.210250
12.283333	1	1.226875
12.300000	1	1.249625
12.316667	1	1.280000
12.333333	1	1.322500
12.350000	1	1.381250
12.366667	1	1.463375
12.383333	1	1.575250
12.400000	1	1.730375
12.416667	1	1.941625
12.433333	1	2.230375
12.450000	1	2.620500
12.466667	1	3.144750
12.483333	1	3.840875
12.500000	1	4.754375
12.516667	1	5.934500
12.533333	1	7.433500
12.550000	1	9.304625
12.566667	1	11.597250
12.583333	1	14.350375
12.600000	1	17.586625
12.616667	1	21.304000
12.633333	1	25.477875
12.650000	1	30.052000
12.666667	1	34.930500
12.683333	1	39.979500
12.700000	1	45.029250
12.716667	1	49.884250
12.733333	1	54.331750
12.750000	1	58.169250
12.766667	1	61.214875
12.783333	1	63.326000
12.800000	1	64.412250
12.816667	1	64.445625
12.833333	1	63.463000
12.850000	1	61.559125
12.866667	1	58.878750
12.883333	1	55.604625
12.900000	1	51.940750
12.916667	1	48.087500
12.933333	1	44.225500
12.950000	1	40.495625
12.966667	1	36.982375
12.983333	1	33.710250
13.000000	1	30.654375
13.016667	1	27.751625
13.033333	1	24.931875
13.050000	1	22.145000
13.066667	1	19.372750
13.083333	1	16.634000
13.100000	1	13.993875
13.116667	1	11.549000
13.133333	1	9.398125
13.150000	1	7.599125
13.166667	1	6.157250
13.183333	1	5.032125
13.200000	1	4.167375
13.216667	1	3.506750
13.233333	1	3.001250
13.250000	1	2.612375
13.266667	1	2.310625
13.283333	1	2.074750
13.300000	1	1.887250
13.316667	1	1.735875
13.333333	1	1.612250
13.350000	1	1.509125
13.366667	1	1.422375
13.383333	1	1.348125
13.400000	1	1.284000
13.416667	1	1.228000
13.433333	1	1.179750
13.450000	1	1.137125
13.466667	1	1.100000
13.483333	1	1.067000
13.500000	1	1.038500
13.516667	1	1.013625
13.533333	1	0.992375
13.550000	1	0.975000
13.566667	1	0.960000
13.583333	1	0.947625
13.600000	1	0.938875
13.616667	1	0.932000
13.633333	1	0.927375
13.650000	1	0.923750
13.666667	1	0.922375
13.683333	1	0.921625
13.700000	1	0.921625
13.716667	1	0.922000
13.733333	1	0.921750
13.750000	1	0.920875
13.766667	1	0.918750
13.783333	1	0.914125
13.800000	1	0.908625
13.816667	1	0.900500
13.833333	1	0.890375
13.850000	1	0.878750
13.866667	1	0.865500
13.883333	1	0.850875
13.900000	1	0.836000
13.916667	1	0.820375
13.933333	1	0.805000
13.950000	1	0.790250
13.966667	1	0.775000
13.983333	1	0.760500
14.000000	1	0.747625
14.016667	1	0.734750
14.033333	1	0.723375
14.050000	1	0.712750
14.066667	1	0.702375
14.083333	1	0.692000
14.100000	1	0.683125
14.116667	1	0.674250
14.133333	1	0.665875
14.150000	1	0.658125
14.166667	1	0.650500
14.183333	1	0.644125
14.200000	1	0.638250
14.216667	1	0.632125
14.233333	1	0.627375
14.250000	1	0.623375
14.266667	1	0.618750
14.283333	1	0.615375
14.300000	1	0.612500
14.316667	1	0.610500
14.333333	1	0.609750
14.350000	1	0.610125
14.366667	1	0.611375
14.383333	1	0.613250
14.400000	1	0.616750
14.416667	1	0.621375
14.433333	1	0.627125
14.450000	1	0.633750
14.466667	1	0.642000
14.483333	1	0.650375
14.500000	1	0.658750
14.516667	1	0.667375
14.533333	1	0.676875
14.550000	1	0.685750
14.566667	1	0.694625
14.583333	1	0.704000
14.600000	1	0.713375
14.616667	1	0.723125
14.633333	1	0.734250
14.650000	1	0.747250
14.666667	1	0.762500
14.683333	1	0.780625
14.700000	1	0.801500
14.716667	1	0.826750
14.733333	1	0.855875
14.750000	1	0.889625
14.766667	1	0.928250
14.783333	1	0.969750
14.800000	1	1.014250
14.816667	1	1.060250
14.833333	1	1.106125
14.850000	1	1.150375
14.866667	1	1.190625
14.883333	1	1.223875
14.900000	1	1.249500
14.916667	1	1.265125
14.933333	1	1.269875
14.950000	1	1.262875
14.966667	1	1.245000
14.983333	1	1.216875
15.000000	1	1.179750
15.016667	1	1.134875
15.033333	1	1.084000
15.050000	1	1.029000
15.066667	1	0.973375
15.083333	1	0.918250
15.100000	1	0.865625
15.116667	1	0.816250
15.133333	1	0.772375
15.150000	1	0.733625
15.166667	1	0.701000
15.183333	1	0.673625
15.200000	1	0.651625
15.216667	1	0.635125
15.233333	1	0.623250
15.250000	1	0.616250
15.266667	1	0.613750
15.283333	1	0.615750
15.300000	1	0.621625
15.316667	1	0.631625
15.333333	1	0.645500
15.350000	1	0.663375
15.366667	1	0.685500
15.383333	1	0.712000
15.400000	1	0.741875
15.416667	1	0.775875
15.433333	1	0.813250
15.450000	1	0.854500
15.466667	1	0.897250
15.483333	1	0.941000
15.500000	1	0.984875
15.516667	1	1.027375
15.533333	1	1.065875
15.550000	1	1.100250
15.566667	1	1.127875
15.583333	1	1.148750
15.600000	1	1.160750
15.616667	1	1.163375
15.633333	1	1.157750
15.650000	1	1.144250
15.666667	1	1.124125
15.683333	1	1.096375
15.700000	1	1.064625
15.716667	1	1.029625
15.733333	1	0.993625
15.750000	1	0.957500
15.766667	1	0.922125
15.783333	1	0.889250
15.800000	1	0.859375
15.816667	1	0.831125
15.833333	1	0.805875
15.850000	1	0.782625
15.866667	1	0.762750
15.883333	1	0.744000
15.900000	1	0.727375
15.916667	1	0.713000
15.933333	1	0.699750
15.950000	1	0.688250
15.966667	1	0.677750
15.983333	1	0.669125
16.000000	1	0.662000
16.016667	1	0.655500
16.033333	1	0.651500
16.050000	1	0.648375
16.066667	1	0.646875
16.083333	1	0.647250
16.100000	1	0.648000
16.116667	1	0.650375
16.133333	1	0.653375
16.150000	1	0.657375
16.166667	1	0.661875
16.183333	1	0.666000
16.200000	1	0.670750
16.216667	1	0.675500
16.233333	1	0.679625
16.250000	1	0.683250
16.266667	1	0.686375
16.283333	1	0.688500
16.300000	1	0.690500
16.316667	1	0.691125
16.333333	1	0.691375
16.350000	1	0.690875
16.366667	1	0.690125
16.383333	1	0.689875
16.400000	1	0.689125
16.416667	1	0.687875
16.433333	1	0.686875
16.450000	1	0.686625
16.466667	1	0.687250
16.483333	1	0.688625
16.500000	1	0.690375
16.516667	1	0.694375
16.533333	1	0.699500
16.550000	1	0.705500
16.566667	1	0.712750
16.583333	1	0.721625
16.600000	1	0.730750
16.616667	1	0.740125
16.633333	1	0.750500
16.650000	1	0.760125
16.666667	1	0.770000
16.683333	1	0.779375
16.700000	1	0.787750
16.716667	1	0.795000
16.733333	1	0.801875
16.750000	1	0.809375
16.766667	1	0.815125
16.783333	1	0.821125
16.800000	1	0.826500
16.816667	1	0.832750
16.833333	1	0.839250
16.850000	1	0.846375
16.866667	1	0.853875
16.883333	1	0.861500
16.900000	1	0.868750
16.916667	1	0.875875
16.933333	1	0.882625
16.950000	1	0.889625
16.966667	1	0.895125
16.983333	1	0.899250
17.000000	1	0.902500
17.016667	1	0.904750
17.033333	1	0.906500
17.050000	1	0.906625
17.066667	1	0.905375
17.083333	1	0.903875
17.100000	1	0.901625
17.116667	1	0.899875
17.133333	1	0.897875
17.150000	1	0.895875
17.166667	1	0.893875
17.183333	1	0.893000
17.200000	1	0.892750
17.216667	1	0.893125
17.233333	1	0.894125
17.250000	1	0.895750
17.266667	1	0.899000
17.283333	1	0.902500
17.300000	1	0.905875
17.316667	1	0.909875
17.333333	1	0.914250
17.350000	1	0.919000
17.366667	1	0.923250
17.383333	1	0.927375
17.400000	1	0.932125
17.416667	1	0.936250
17.433333	1	0.939000
17.450000	1	0.941000
17.466667	1	0.942500
17.483333	1	0.942250
17.500000	1	0.940000
17.516667	1	0.936375
17.533333	1	0.931375
17.550000	1	0.925250
17.566667	1	0.917250
17.583333	1	0.908125
17.600000	1	0.896250
17.616667	1	0.883625
17.633333	1	0.869500
17.650000	1	0.854375
17.666667	1	0.838250
17.683333	1	0.821875
17.700000	1	0.805125
17.716667	1	0.787500
17.733333	1	0.770875
17.750000	1	0.754500
17.766667	1	0.738625
17.783333	1	0.723375
17.800000	1	0.709375
17.816667	1	0.695625
17.833333	1	0.683250
17.850000	1	0.672750
17.866667	1	0.662375
17.883333	1	0.653375
17.900000	1	0.645250
17.916667	1	0.638125
17.933333	1	0.631375
17.950000	1	0.626250
17.966667	1	0.621500
17.983333	1	0.617500
18.000000	1	0.614000
18.016667	1	0.611375
18.033333	1	0.609125
18.050000	1	0.607125
18.066667	1	0.605250
18.083333	1	0.603250
18.100000	1	0.601500
18.116667	1	0.600125
18.133333	1	0.598625
18.150000	1	0.598000
18.166667	1	0.597125
18.183333	1	0.596875
18.200000	1	0.596125
18.216667	1	0.595500
18.233333	1	0.595375
18.250000	1	0.595250
18.266667	1	0.595500
18.283333	1	0.596625
18.300000	1	0.598500
18.316667	1	0.600875
18.333333	1	0.603375
18.350000	1	0.606625
18.366667	1	0.610000
18.383333	1	0.614375
18.400000	1	0.619125
18.416667	1	0.624125
18.433333	1	0.629500
18.450000	1	0.636500
18.466667	1	0.643625
18.483333	1	0.651375
18.500000	1	0.659625
18.516667	1	0.669500
18.533333	1	0.680875
18.550000	1	0.693625
18.566667	1	0.708250
18.583333	1	0.725000
18.600000	1	0.744000
18.616667	1	0.763750
18.633333	1	0.786000
18.650000	1	0.810125
18.666667	1	0.836625
18.683333	1	0.864625
18.700000	1	0.893750
18.716667	1	0.925000
18.733333	1	0.957750
18.750000	1	0.992125
18.766667	1	1.027375
18.783333	1	1.062875
18.800000	1	1.099375
18.816667	1	1.134500
18.833333	1	1.168875
18.850000	1	1.201875
18.866667	1	1.232875
18.883333	1	1.261625
18.900000	1	1.286875
18.916667	1	1.307000
18.933333	1	1.323375
18.950000	1	1.334625
18.966667	1	1.340125
18.983333	1	1.339375
19.000000	1	1.332250
19.016667	1	1.318750
19.033333	1	1.298500
19.050000	1	1.271875
19.066667	1	1.240000
19.083333	1	1.202375
19.100000	1	1.161125
19.116667	1	1.116125
19.133333	1	1.069000
19.150000	1	1.020375
19.166667	1	0.970625
19.183333	1	0.921375
19.200000	1	0.872875
19.216667	1	0.826000
19.233333	1	0.782000
19.250000	1	0.741875
19.266667	1	0.705500
19.283333	1	0.673125
19.300000	1	0.645875
19.316667	1	0.624250
19.333333	1	0.607625
19.350000	1	0.596500
19.366667	1	0.589875
19.383333	1	0.588875
19.400000	1	0.592875
19.416667	1	0.602000
19.433333	1	0.616250
19.450000	1	0.634750
19.466667	1	0.656875
19.483333	1	0.682375
19.500000	1	0.711000
19.516667	1	0.742500
19.533333	1	0.776625
19.550000	1	0.811750
19.566667	1	0.847500
19.583333	1	0.882250
19.600000	1	0.916000
19.616667	1	0.947625
19.633333	1	0.976125
19.650000	1	1.001625
19.666667	1	1.021875
19.683333	1	1.037875
19.700000	1	1.047625
19.716667	1	1.053000
19.733333	1	1.052875
19.750000	1	1.047000
19.766667	1	1.035625
19.783333	1	1.018875
19.800000	1	0.997875
19.816667	1	0.973625
19.833333	1	0.945625
19.850000	1	0.915375
19.866667	1	0.882875
19.883333	1	0.849750
19.900000	1	0.815500
19.916667	1	0.780875
19.933333	1	0.747375
19.950000	1	0.714375
19.966667	1	0.682750
19.983333	1	0.652500
20.000000	1	0.623250
20.016667	1	0.596000
20.033333	1	0.571750
20.050000	1	0.549500
20.066667	1	0.530500
20.083333	1	0.513500
20.100000	1	0.499625
20.116667	1	0.489250
20.133333	1	0.482250
20.150000	1	0.478125
20.166667	1	0.475625
20.183333	1	0.475875
20.200000	1	0.478875
20.216667	1	0.484250
20.233333	1	0.491750
20.250000	1	0.501125
20.266667	1	0.511375
20.283333	1	0.522875
20.300000	1	0.535000
20.316667	1	0.547125
20.333333	1	0.559625
20.350000	1	0.571250
20.366667	1	0.581250
20.383333	1	0.591000
20.400000	1	0.598875
20.416667	1	0.604625
20.433333	1	0.609375
20.450000	1	0.612875
20.466667	1	0.614875
20.483333	1	0.616625
20.500000	1	0.618750
20.516667	1	0.622000
20.533333	1	0.626625
20.550000	1	0.634000
20.566667	1	0.645250
20.583333	1	0.661250
20.600000	1	0.682375
20.616667	1	0.710375
20.633333	1	0.744750
20.650000	1	0.786750
20.666667	1	0.835875
20.683333	1	0.891500
20.700000	1	0.953375
20.716667	1	1.020625
20.733333	1	1.092875
20.750000	1	1.170000
20.766667	1	1.248875
20.783333	1	1.327625
20.800000	1	1.404875
20.816667	1	1.477375
20.833333	1	1.543250
20.850000	1	1.600375
20.866667	1	1.646375
20.883333	1	1.680250
20.900000	1	1.701375
20.916667	1	1.708000
20.933333	1	1.700000
20.950000	1	1.677250
20.966667	1	1.640625
20.983333	1	1.591625
21.000000	1	1.531125
21.016667	1	1.461375
21.033333	1	1.383875
21.050000	1	1.301875
21.066667	1	1.218125
21.083333	1	1.133750
21.100000	1	1.050125
21.116667	1	0.970625
21.133333	1	0.893625
21.150000	1	0.822875
21.166667	1	0.757250
21.183333	1	0.697500
21.200000	1	0.644375
21.216667	1	0.596625
21.233333	1	0.555000
21.250000	1	0.518875
21.266667	1	0.487250
21.283333	1	0.461250
21.300000	1	0.438375
21.316667	1	0.419125
21.333333	1	0.403125
21.350000	1	0.389500
21.366667	1	0.379000
21.383333	1	0.370250
21.400000	1	0.362500
21.416667	1	0.356750
21.433333	1	0.351875
21.450000	1	0.349000
21.466667	1	0.346500
21.483333	1	0.344625
21.500000	1	0.343500
21.516667	1	0.343250
21.533333	1	0.343875
21.550000	1	0.344750
21.566667	1	0.345875
21.583333	1	0.347250
21.600000	1	0.348875
21.616667	1	0.351375
21.633333	1	0.353500
21.650000	1	0.355500
21.666667	1	0.359000
21.683333	1	0.362500
21.700000	1	0.366000
21.716667	1	0.370000
21.733333	1	0.373750
21.750000	1	0.378125
21.766667	1	0.382875
21.783333	1	0.388125
21.800000	1	0.393375
21.816667	1	0.397875
21.833333	1	0.402375
21.850000	1	0.407500
21.866667	1	0.412375
21.883333	1	0.417000
21.900000	1	0.422375
21.916667	1	0.427750
21.933333	1	0.433000
21.950000	1	0.439125
21.966667	1	0.444875
21.983333	1	0.451250
22.000000	1	0.457875
22.016667	1	0.464625
22.033333	1	0.470250
22.050000	1	0.476875
22.066667	1	0.482875
22.083333	1	0.488875
22.100000	1	0.494750
22.116667	1	0.500875
22.133333	1	0.506500
22.150000	1	0.511875
22.166667	1	0.515500
22.183333	1	0.518750
22.200000	1	0.520250
22.216667	1	0.521000
22.233333	1	0.521000
22.250000	1	0.519250
22.266667	1	0.517000
22.283333	1	0.512750
22.300000	1	0.507125
22.316667	1	0.500625
22.333333	1	0.492375
22.350000	1	0.482250
22.366667	1	0.471750
22.383333	1	0.460500
22.400000	1	0.448500
22.416667	1	0.437000
22.433333	1	0.425750
22.450000	1	0.413375
22.466667	1	0.401625
22.483333	1	0.389625
22.500000	1	0.377500
22.516667	1	0.365500
22.533333	1	0.354625
22.550000	1	0.343875
22.566667	1	0.334250
22.583333	1	0.324500
22.600000	1	0.315875
22.616667	1	0.307250
22.633333	1	0.299000
22.650000	1	0.291500
22.666667	1	0.283750
22.683333	1	0.277250
22.700000	1	0.271125
22.716667	1	0.265125
22.733333	1	0.259250
22.750000	1	0.253500
22.766667	1	0.248250
22.783333	1	0.243125
22.800000	1	0.238500
22.816667	1	0.233875
22.833333	1	0.228750
22.850000	1	0.224000
22.866667	1	0.219375
22.883333	1	0.215500
22.900000	1	0.211000
22.916667	1	0.206750
22.933333	1	0.203625
22.950000	1	0.201250
22.966667	1	0.198375
22.983333	1	0.195875
23.000000	1	0.194500
23.016667	1	0.193625
23.033333	1	0.192875
23.050000	1	0.192125
23.066667	1	0.192000
23.083333	1	0.191875
23.100000	1	0.192750
23.116667	1	0.194375
23.133333	1	0.196000
23.150000	1	0.198500
23.166667	1	0.200875
23.183333	1	0.204375
23.200000	1	0.208125
23.216667	1	0.213000
23.233333	1	0.219125
23.250000	1	0.226875
23.266667	1	0.235875
23.283333	1	0.246500
23.300000	1	0.260000
23.316667	1	0.276500
23.333333	1	0.295875
23.350000	1	0.319750
23.366667	1	0.348750
23.383333	1	0.382250
23.400000	1	0.422875
23.416667	1	0.471500
23.433333	1	0.528125
23.450000	1	0.594250
23.466667	1	0.671250
23.483333	1	0.760000
23.500000	1	0.862750
23.516667	1	0.979750
23.533333	1	1.112500
23.550000	1	1.261750
23.566667	1	1.428375
23.583333	1	1.613000
23.600000	1	1.815875
23.616667	1	2.037375
23.633333	1	2.276750
23.650000	1	2.532750
23.666667	1	2.805125
23.683333	1	3.091375
23.700000	1	3.389000
23.716667	1	3.696125
23.733333	1	4.008375
23.750000	1	4.320625
23.766667	1	4.627875
23.783333	1	4.926125
23.800000	1	5.208000
23.816667	1	5.470000
23.833333	1	5.705000
23.850000	1	5.909000
23.866667	1	6.076625
23.883333	1	6.203625
23.900000	1	6.287500
23.916667	1	6.326125
23.933333	1	6.318125
23.950000	1	6.263875
23.966667	1	6.164000
23.983333	1	6.022000
24.000000	1	5.841000
24.016667	1	5.624875
24.033333	1	5.379500
24.050000	1	5.111000
24.066667	1	4.823875
24.083333	1	4.523625
24.100000	1	4.216125
24.116667	1	3.906875
24.133333	1	3.601625
24.150000	1	3.302125
24.166667	1	3.014000
24.183333	1	2.739125
24.200000	1	2.480500
24.216667	1	2.239625
24.233333	1	2.017375
24.250000	1	1.813500
24.266667	1	1.627500
24.283333	1	1.460500
24.300000	1	1.311125
24.316667	1	1.176875
24.333333	1	1.059125
24.350000	1	0.955000
24.366667	1	0.862625
24.383333	1	0.783375
24.400000	1	0.714250
24.416667	1	0.655125
24.433333	1	0.603875
24.450000	1	0.560750
24.466667	1	0.523750
24.483333	1	0.491750
24.500000	1	0.464875
24.516667	1	0.442125
24.533333	1	0.421875
24.550000	1	0.404500
24.566667	1	0.389750
24.583333	1	0.377125
24.600000	1	0.366375
24.616667	1	0.356375
24.633333	1	0.347625
24.650000	1	0.339250
24.666667	1	0.331750
24.683333	1	0.324625
24.700000	1	0.317250
24.716667	1	0.310750
24.733333	1	0.304250
24.750000	1	0.297875
24.766667	1	0.292000
24.783333	1	0.286750
24.800000	1	0.281250
24.816667	1	0.276000
24.833333	1	0.271625
24.850000	1	0.267000
24.866667	1	0.263375
24.883333	1	0.260125
24.900000	1	0.256625
24.916667	1	0.254250
24.933333	1	0.252500
24.950000	1	0.250375
24.966667	1	0.249750
24.983333	1	0.248500
25.000000	1	0.248500
25.016667	1	0.248125
25.033333	1	0.247750
25.050000	1	0.248875
25.066667	1	0.249625
25.083333	1	0.250500
25.100000	1	0.252000
25.116667	1	0.253625
25.133333	1	0.254375
25.150000	1	0.255500
25.166667	1	0.256750
25.183333	1	0.257750
25.200000	1	0.258500
25.216667	1	0.259250
25.233333	1	0.260125
25.250000	1	0.261125
25.266667	1	0.262000
25.283333	1	0.261875
25.300000	1	0.262375
25.316667	1	0.262500
25.333333	1	0.262625
25.350000	1	0.263000
25.366667	1	0.263250
25.383333	1	0.263500
25.400000	1	0.263125
25.416667	1	0.262750
25.433333	1	0.263000
25.450000	1	0.262500
25.466667	1	0.262625
25.483333	1	0.263125
25.500000	1	0.263750
25.516667	1	0.263500
25.533333	1	0.263750
25.550000	1	0.264125
25.566667	1	0.264125
25.583333	1	0.264125
25.600000	1	0.264500
25.616667	1	0.264250
25.633333	1	0.263750
25.650000	1	0.263250
25.666667	1	0.262875
25.683333	1	0.262375
25.700000	1	0.261875
25.716667	1	0.261625
25.733333	1	0.261625
25.750000	1	0.261375
25.766667	1	0.260500
25.783333	1	0.259875
25.800000	1	0.258625
25.816667	1	0.258125
25.833333	1	0.257500
25.850000	1	0.256750
25.866667	1	0.256125
25.883333	1	0.255375
25.900000	1	0.254625
25.916667	1	0.255000
25.933333	1	0.255000
25.950000	1	0.255250
25.966667	1	0.255625
25.983333	1	0.256500
26.000000	1	0.257750
26.016667	1	0.259375
26.033333	1	0.261125
26.050000	1	0.262750
26.066667	1	0.264875
26.083333	1	0.267000
26.100000	1	0.269375
26.116667	1	0.271875
26.133333	1	0.274500
26.150000	1	0.276500
26.166667	1	0.278250
26.183333	1	0.279750
26.200000	1	0.281625
26.216667	1	0.283375
26.233333	1	0.284750
26.250000	1	0.285375
26.266667	1	0.286000
26.283333	1	0.286750
26.300000	1	0.286000
26.316667	1	0.284750
26.333333	1	0.283500
26.350000	1	0.281625
26.366667	1	0.278750
26.383333	1	0.274750
26.400000	1	0.270250
26.416667	1	0.266125
26.433333	1	0.261625
26.450000	1	0.256375
26.466667	1	0.251000
26.483333	1	0.245250
26.500000	1	0.239375
26.516667	1	0.233375
26.533333	1	0.227125
26.550000	1	0.221000
26.566667	1	0.214125
26.583333	1	0.207875
26.600000	1	0.201375
26.616667	1	0.195625
26.633333	1	0.189750
26.650000	1	0.184875
26.666667	1	0.179875
26.683333	1	0.176000
26.700000	1	0.172625
26.716667	1	0.169625
26.733333	1	0.167000
26.750000	1	0.164625
26.766667	1	0.163000
26.783333	1	0.161500
26.800000	1	0.160750
26.816667	1	0.160625
26.833333	1	0.161000
26.850000	1	0.161875
26.866667	1	0.163375
26.883333	1	0.165250
26.900000	1	0.167125
26.916667	1	0.169875
26.933333	1	0.173500
26.950000	1	0.177250
26.966667	1	0.181000
26.983333	1	0.185625
27.000000	1	0.190750
27.016667	1	0.196500
27.033333	1	0.201875
27.050000	1	0.208000
27.066667	1	0.213750
27.083333	1	0.220250
27.100000	1	0.227625
27.116667	1	0.235625
27.133333	1	0.243750
27.150000	1	0.252375
27.166667	1	0.261500
27.183333	1	0.271250
27.200000	1	0.281750
27.216667	1	0.293750
27.233333	1	0.306625
27.250000	1	0.321375
27.266667	1	0.336750
27.283333	1	0.354500
27.300000	1	0.373000
27.316667	1	0.394875
27.333333	1	0.419125
27.350000	1	0.446875
27.366667	1	0.477625
27.383333	1	0.513250
27.400000	1	0.553000
27.416667	1	0.597625
27.433333	1	0.647625
27.450000	1	0.703875
27.466667	1	0.766750
27.483333	1	0.836750
27.500000	1	0.913750
27.516667	1	0.998750
27.533333	1	1.091875
27.550000	1	1.193625
27.566667	1	1.303375
27.583333	1	1.421750
27.600000	1	1.549125
27.616667	1	1.684250
27.633333	1	1.827750
27.650000	1	1.978375
27.666667	1	2.135875
27.683333	1	2.298000
27.700000	1	2.463875
27.716667	1	2.631625
27.733333	1	2.800875
27.750000	1	2.968250
27.766667	1	3.132125
27.783333	1	3.290000
27.800000	1	3.440375
27.816667	1	3.581625
27.833333	1	3.711125
27.850000	1	3.825125
27.866667	1	3.923250
27.883333	1	4.002500
27.900000	1	4.061625
27.916667	1	4.099375
27.933333	1	4.115125
27.950000	1	4.107750
27.966667	1	4.077375
27.983333	1	4.024500
28.000000	1	3.950750
28.016667	1	3.855750
28.033333	1	3.741875
28.050000	1	3.610250
28.066667	1	3.463750
28.083333	1	3.304875
28.100000	1	3.136125
28.116667	1	2.959875
28.133333	1	2.778250
28.150000	1	2.595250
28.166667	1	2.412500
28.183333	1	2.233375
28.200000	1	2.059125
28.216667	1	1.890625
28.233333	1	1.730125
28.250000	1	1.577625
28.266667	1	1.435125
28.283333	1	1.302750
28.300000	1	1.181750
28.316667	1	1.071625
28.333333	1	0.972500
28.350000	1	0.883625
28.366667	1	0.804750
28.383333	1	0.735875
28.400000	1	0.676000
28.416667	1	0.624625
28.433333	1	0.581375
28.450000	1	0.544875
28.466667	1	0.515500
28.483333	1	0.491875
28.500000	1	0.473250
28.516667	1	0.459750
28.533333	1	0.450375
28.550000	1	0.444750
28.566667	1	0.442750
28.583333	1	0.442625
28.600000	1	0.445250
28.616667	1	0.449250
28.633333	1	0.455250
28.650000	1	0.463375
28.666667	1	0.471875
28.683333	1	0.481125
28.700000	1	0.491000
28.716667	1	0.499875
28.733333	1	0.509875
28.750000	1	0.519500
28.766667	1	0.528750
28.783333	1	0.537375
28.800000	1	0.544500
28.816667	1	0.551375
28.833333	1	0.556625
28.850000	1	0.560375
28.866667	1	0.563625
28.883333	1	0.564750
28.900000	1	0.563625
28.916667	1	0.561375
28.933333	1	0.557000
28.950000	1	0.550375
28.966667	1	0.542250
28.983333	1	0.531875
29.000000	1	0.519000
29.016667	1	0.504125
29.033333	1	0.487750
29.050000	1	0.468500
29.066667	1	0.446875
29.083333	1	0.423125
29.100000	1	0.396500
29.116667	1	0.366875
29.133333	1	0.335625
29.150000	1	0.301125
29.166667	1	0.265000
29.183333	1	0.226375
29.200000	1	0.185625
29.216667	1	0.141875
29.233333	1	0.095375
29.250000	1	0.047125
29.266667	1	-0.003500
29.283333	1	-0.057375
29.300000	1	-0.112875
29.316667	1	-0.169750
29.333333	1	-0.229625
29.350000	1	-0.290750
29.366667	1	-0.352875
29.383333	1	-0.416250
29.400000	1	-0.481500
29.416667	1	-0.546750
29.433333	1	-0.611750
29.450000	1	-0.677625
29.466667	1	-0.743000
29.483333	1	-0.807125
29.500000	1	-0.869125
29.516667	1	-0.930375
29.533333	1	-0.989750
29.550000	1	-1.045625
29.566667	1	-1.098875
29.583333	1	-1.148250
29.600000	1	-1.193250
29.616667	1	-1.233875
29.633333	1	-1.269500
29.650000	1	-1.300125
29.666667	1	-1.324875
29.683333	1	-1.344125
29.700000	1	-1.358000
29.716667	1	-1.365125
29.733333	1	-1.367000
29.750000	1	-1.362125
29.766667	1	-1.351750
29.783333	1	-1.336125
29.800000	1	-1.315125
29.816667	1	-1.288750
29.833333	1	-1.257250
29.850000	1	-1.221500
29.866667	1	-1.182125
29.883333	1	-1.138625
29.900000	1	-1.092250
29.916667	1	-1.043125
29.933333	1	-0.992125
29.950000	1	-0.939375
29.966667	1	-0.885500
29.983333	1	-0.831125
30.000000	1	-0.776875
30.016667	1	-0.722125
30.033333	1	-0.668000
30.050000	1	-0.615875
30.066667	1	-0.564000
30.083333	1	-0.513625
30.100000	1	-0.465125
30.116667	1	-0.418875
30.133333	1	-0.374625
30.150000	1	-0.332875
30.166667	1	-0.293125
30.183333	1	-0.256000
30.200000	1	-0.222000
30.216667	1	-0.189750
30.233333	1	-0.159375
30.250000	1	-0.131750
30.266667	1	-0.107000
30.283333	1	-0.083750
30.300000	1	-0.062875
30.316667	1	-0.043875
30.333333	1	-0.026250
30.350000	1	-0.010125
30.366667	1	0.004375
30.383333	1	0.018000
30.400000	1	0.030625
30.416667	1	0.042500
30.433333	1	0.053500
30.450000	1	0.064000
30.466667	1	0.073375
30.483333	1	0.082625
30.500000	1	0.092125
30.516667	1	0.102250
30.533333	1	0.111500
30.550000	1	0.121000
30.566667	1	0.131750
30.583333	1	0.143250
30.600000	1	0.155500
30.616667	1	0.169375
30.633333	1	0.183750
30.650000	1	0.199250
30.666667	1	0.216500
30.683333	1	0.235875
30.700000	1	0.256875
30.716667	1	0.281375
30.733333	1	0.307375
30.750000	1	0.336750
30.766667	1	0.368750
30.783333	1	0.405125
30.800000	1	0.445625
30.816667	1	0.490625
30.833333	1	0.541750
30.850000	1	0.597750
30.866667	1	0.660500
30.883333	1	0.730625
30.900000	1	0.808750
30.916667	1	0.895125
30.933333	1	0.990000
30.950000	1	1.095000
30.966667	1	1.211500
30.983333	1	1.338625
31.000000	1	1.477875
31.016667	1	1.630125
31.033333	1	1.795125
31.050000	1	1.973625
31.066667	1	2.165375
31.083333	1	2.370125
31.100000	1	2.589000
31.116667	1	2.819500
31.133333	1	3.062250
31.150000	1	3.316500
31.166667	1	3.580750
31.183333	1	3.853000
31.200000	1	4.132625
31.216667	1	4.417000
31.233333	1	4.703000
31.250000	1	4.989500
31.266667	1	5.271625
31.283333	1	5.547500
31.300000	1	5.813500
31.316667	1	6.067125
31.333333	1	6.305375
31.350000	1	6.525250
31.366667	1	6.721875
31.383333	1	6.895625
31.400000	1	7.042500
31.416667	1	7.161000
31.433333	1	7.249375
31.450000	1	7.305625
31.466667	1	7.329875
31.483333	1	7.321250
31.500000	1	7.280625
31.516667	1	7.208000
31.533333	1	7.105875
31.550000	1	6.974500
31.566667	1	6.816625
31.583333	1	6.633125
31.600000	1	6.427750
31.616667	1	6.202000
31.633333	1	5.959875
31.650000	1	5.703125
31.666667	1	5.435375
31.683333	1	5.160500
31.700000	1	4.881625
31.716667	1	4.600875
31.733333	1	4.321250
31.750000	1	4.044375
31.766667	1	3.772875
31.783333	1	3.507750
31.800000	1	3.250500
31.816667	1	3.003125
31.833333	1	2.767125
31.850000	1	2.542625
31.866667	1	2.330625
31.883333	1	2.131250
31.900000	1	1.945500
31.916667	1	1.772500
31.933333	1	1.612500
31.950000	1	1.464750
31.966667	1	1.328500
31.983333	1	1.203375
32.000000	1	1.089625
32.016667	1	0.985625
32.033333	1	0.891625
32.050000	1	0.806000
32.066667	1	0.728625
32.083333	1	0.659125
32.100000	1	0.596750
32.116667	1	0.541500
32.133333	1	0.491125
32.150000	1	0.446500
32.166667	1	0.407000
32.183333	1	0.371125
32.200000	1	0.339000
32.216667	1	0.309750
32.233333	1	0.283500
32.250000	1	0.260375
32.266667	1	0.239250
32.283333	1	0.220375
32.300000	1	0.203125
32.316667	1	0.187625
32.333333	1	0.173625
32.350000	1	0.160625
32.366667	1	0.148375
32.383333	1	0.137375
32.400000	1	0.127250
32.416667	1	0.117625
32.433333	1	0.107500
32.450000	1	0.098875
32.466667	1	0.090875
32.483333	1	0.082625
32.500000	1	0.074750
32.516667	1	0.067500
32.533333	1	0.060875
32.550000	1	0.054625
32.566667	1	0.049000
32.583333	1	0.043875
32.600000	1	0.039125
32.616667	1	0.034000
32.633333	1	0.028750
32.650000	1	0.024000
32.666667	1	0.019375
32.683333	1	0.015000
32.700000	1	0.011250
32.716667	1	0.006875
32.733333	1	0.003500
32.750000	1	0.000000
32.766667	1	-0.003000
32.783333	1	-0.005625
32.800000	1	-0.008000
32.816667	1	-0.010375
32.833333	1	-0.012125
32.850000	1	-0.013375
32.866667	1	-0.015000
32.883333	1	-0.017375
32.900000	1	-0.018875
32.916667	1	-0.019750
32.933333	1	-0.020625
32.950000	1	-0.021500
32.966667	1	-0.021750
32.983333	1	-0.021500
33.000000	1	-0.021625
33.016667	1	-0.022000
33.033333	1	-0.022125
33.050000	1	-0.021250
33.066667	1	-0.021625
33.083333	1	-0.020750
33.100000	1	-0.020125
33.116667	1	-0.019500
33.133333	1	-0.018125
33.150000	1	-0.016750
33.166667	1	-0.015125
33.183333	1	-0.013250
33.200000	1	-0.012625
33.216667	1	-0.011250
33.233333	1	-0.009000
33.250000	1	-0.006875
33.266667	1	-0.004375
33.283333	1	-0.001750
33.300000	1	0.000750
33.316667	1	0.004000
33.333333	1	0.007000
33.350000	1	0.010750
33.366667	1	0.014250
33.383333	1	0.018500
33.400000	1	0.023000
33.416667	1	0.028000
33.433333	1	0.032750
33.450000	1	0.037375
33.466667	1	0.042250
33.483333	1	0.047250
33.500000	1	0.053000
33.516667	1	0.058375
33.533333	1	0.064125
33.550000	1	0.070375
33.566667	1	0.076125
33.583333	1	0.082250
33.600000	1	0.088375
33.616667	1	0.094375
33.633333	1	0.100875
33.650000	1	0.106625
33.666667	1	0.112250
33.683333	1	0.118625
33.700000	1	0.124750
33.716667	1	0.130375
33.733333	1	0.135375
33.750000	1	0.141375
33.766667	1	0.146750
33.783333	1	0.151625
33.800000	1	0.156500
33.816667	1	0.160750
33.833333	1	0.164875
33.850000	1	0.168000
33.866667	1	0.171875
33.883333	1	0.174375
33.900000	1	0.177250
33.916667	1	0.179250
33.933333	1	0.181500
33.950000	1	0.183375
33.966667	1	0.184375
33.983333	1	0.185125
34.000000	1	0.185500
34.016667	1	0.185875
34.033333	1	0.184500
34.050000	1	0.184250
34.066667	1	0.182625
34.083333	1	0.181250
34.100000	1	0.180125
34.116667	1	0.178000
34.133333	1	0.175875
34.150000	1	0.174375
34.166667	1	0.172375
34.183333	1	0.170500
34.200000	1	0.168250
34.216667	1	0.166125
34.233333	1	0.163875
34.250000	1	0.161625
34.266667	1	0.159500
34.283333	1	0.157625
34.300000	1	0.156000
34.316667	1	0.154125
34.333333	1	0.152875
34.350000	1	0.151375
34.366667	1	0.150250
34.383333	1	0.149000
34.400000	1	0.148000
34.416667	1	0.147125
34.433333	1	0.146000
34.450000	1	0.145875
34.466667	1	0.145250
34.483333	1	0.145500
34.500000	1	0.145125
34.516667	1	0.145375
34.533333	1	0.145250
34.550000	1	0.144875
34.566667	1	0.146250
34.583333	1	0.146125
34.600000	1	0.146625
34.616667	1	0.147250
34.633333	1	0.147875
34.650000	1	0.148250
34.666667	1	0.148000
34.683333	1	0.148750
34.700000	1	0.149000
34.716667	1	0.149750
34.733333	1	0.149875
34.750000	1	0.150125
34.766667	1	0.151125
34.783333	1	0.151875
34.800000	1	0.151500
34.816667	1	0.151375
34.833333	1	0.151500
34.850000	1	0.151125
34.866667	1	0.151000
34.883333	1	0.150625
34.900000	1	0.150750
34.916667	1	0.150000
34.933333	1	0.149125
34.950000	1	0.148625
34.966667	1	0.146625
34.983333	1	0.145500
35.000000	1	0.144500
35.016667	1	0.142625
35.033333	1	0.140875
35.050000	1	0.138500
35.066667	1	0.136750
35.083333	1	0.134250
35.100000	1	0.132250
35.116667	1	0.130000
35.133333	1	0.127625
35.150000	1	0.124875
35.166667	1	0.122750
35.183333	1	0.119875
35.200000	1	0.117000
35.216667	1	0.115000
35.233333	1	0.112750
35.250000	1	0.110375
35.266667	1	0.107750
35.283333	1	0.106000
35.300000	1	0.104375
35.316667	1	0.102375
35.333333	1	0.100750
35.350000	1	0.099000
35.366667	1	0.097750
35.383333	1	0.096875
35.400000	1	0.095500
35.416667	1	0.094125
35.433333	1	0.093000
35.450000	1	0.092250
35.466667	1	0.091000
35.483333	1	0.090125
35.500000	1	0.089750
35.516667	1	0.089625
35.533333	1	0.089750
35.550000	1	0.089625
35.566667	1	0.090000
35.583333	1	0.090500
35.600000	1	0.090375
35.616667	1	0.090500
35.633333	1	0.090625
35.650000	1	0.091500
35.666667	1	0.092125
35.683333	1	0.092625
35.700000	1	0.092625
35.716667	1	0.092875
35.733333	1	0.093500
35.750000	1	0.093125
35.766667	1	0.093625
35.783333	1	0.093625
35.800000	1	0.094125
35.816667	1	0.094875
35.833333	1	0.095250
35.850000	1	0.095000
35.866667	1	0.095000
35.883333	1	0.095250
35.900000	1	0.096125
35.916667	1	0.096625
35.933333	1	0.096750
35.950000	1	0.096750
35.966667	1	0.096875
35.983333	1	0.097125
36.000000	1	0.097875
36.016667	1	0.098375
36.033333	1	0.099000
36.050000	1	0.099000
36.066667	1	0.099000
36.083333	1	0.100000
36.100000	1	0.100000
36.116667	1	0.100500
36.133333	1	0.100375
36.150000	1	0.100375
36.166667	1	0.100875
36.183333	1	0.100750
36.200000	1	0.101250
36.216667	1	0.101625
36.233333	1	0.101750
36.250000	1	0.101500
36.266667	1	0.101875
36.283333	1	0.102125
36.300000	1	0.102375
36.316667	1	0.102375
36.333333	1	0.102375
36.350000	1	0.102625
36.366667	1	0.102125
36.383333	1	0.101250
36.400000	1	0.100500
36.416667	1	0.100500
36.433333	1	0.099750
36.450000	1	0.098500
36.466667	1	0.097125
36.483333	1	0.095625
36.500000	1	0.094375
36.516667	1	0.093125
36.533333	1	0.091750
36.550000	1	0.090000
36.566667	1	0.087875
36.583333	1	0.085875
36.600000	1	0.083125
36.616667	1	0.081375
36.633333	1	0.079375
36.650000	1	0.076250
36.666667	1	0.073750
36.683333	1	0.071750
36.700000	1	0.069250
36.716667	1	0.066625
36.733333	1	0.063875
36.750000	1	0.061750
36.766667	1	0.059875
36.783333	1	0.057125
36.800000	1	0.055375
36.816667	1	0.052375
36.833333	1	0.050375
36.850000	1	0.049250
36.866667	1	0.047750
36.883333	1	0.046625
36.900000	1	0.045625
36.916667	1	0.044375
36.933333	1	0.044250
36.950000	1	0.043250
36.966667	1	0.042000
36.983333	1	0.042125
37.000000	1	0.041750
37.016667	1	0.042625
37.033333	1	0.043750
37.050000	1	0.044875
37.066667	1	0.046000
37.083333	1	0.047250
37.100000	1	0.048625
37.116667	1	0.050625
37.133333	1	0.052875
37.150000	1	0.055000
37.166667	1	0.057875
37.183333	1	0.060875
37.200000	1	0.063125
37.216667	1	0.065875
37.233333	1	0.069375
37.250000	1	0.072500
37.266667	1	0.075375
37.283333	1	0.078125
37.300000	1	0.081000
37.316667	1	0.084000
37.333333	1	0.087750
37.350000	1	0.090500
37.366667	1	0.093250
37.383333	1	0.095625
37.400000	1	0.098250
37.416667	1	0.100375
37.433333	1	0.102000
37.450000	1	0.104500
37.466667	1	0.105750
37.483333	1	0.107500
37.500000	1	0.109375
37.516667	1	0.110000
37.533333	1	0.111000
37.550000	1	0.111500
37.566667	1	0.111625
37.583333	1	0.111625
37.600000	1	0.111750
37.616667	1	0.112000
37.633333	1	0.111500
37.650000	1	0.111750
37.666667	1	0.111500
37.683333	1	0.111750
37.700000	1	0.111125
37.716667	1	0.110375
37.733333	1	0.110000
37.750000	1	0.109375
37.766667	1	0.108500
37.783333	1	0.107875
37.800000	1	0.106500
37.816667	1	0.105250
37.833333	1	0.105000
37.850000	1	0.103875
37.866667	1	0.102625
37.883333	1	0.102375
37.900000	1	0.101500
37.916667	1	0.100500
37.933333	1	0.099500
37.950000	1	0.098875
37.966667	1	0.098125
37.983333	1	0.097750
38.000000	1	0.096625
38.016667	1	0.095375
38.033333	1	0.094500
38.050000	1	0.093750
38.066667	1	0.092875
38.083333	1	0.092250
38.100000	1	0.091625
38.116667	1	0.090500
38.133333	1	0.089250
38.150000	1	0.088375
38.166667	1	0.086750
38.183333	1	0.085250
38.200000	1	0.083625
38.216667	1	0.083000
38.233333	1	0.081625
38.250000	1	0.080000
38.266667	1	0.078875
38.283333	1	0.077125
38.300000	1	0.075875
38.316667	1	0.074000
38.333333	1	0.072625
38.350000	1	0.071250
38.366667	1	0.070000
38.383333	1	0.068250
38.400000	1	0.066000
38.416667	1	0.063875
38.433333	1	0.061500
38.450000	1	0.059125
38.466667	1	0.056875
38.483333	1	0.054750
38.500000	1	0.052875
38.516667	1	0.050125
38.533333	1	0.047625
38.550000	1	0.045250
38.566667	1	0.042125
38.583333	1	0.039000
38.600000	1	0.035625
38.616667	1	0.033125
38.633333	1	0.029500
38.650000	1	0.027000
38.666667	1	0.024125
38.683333	1	0.021625
38.700000	1	0.018250
38.716667	1	0.015125
38.733333	1	0.012000
38.750000	1	0.009375
38.766667	1	0.006750
38.783333	1	0.004250
38.800000	1	0.002000
38.816667	1	0.000375
38.833333	1	-0.001625
38.850000	1	-0.003125
38.866667	1	-0.003875
38.883333	1	-0.004875
38.900000	1	-0.005625
38.916667	1	-0.005750
38.933333	1	-0.007000
38.950000	1	-0.007000
38.966667	1	-0.007000
38.983333	1	-0.006500
39.000000	1	-0.006375
39.016667	1	-0.005750
39.033333	1	-0.004875
39.050000	1	-0.004250
39.066667	1	-0.002625
39.083333	1	-0.001125
39.100000	1	0.000500
39.116667	1	0.001750
39.133333	1	0.004000
39.150000	1	0.006375
39.166667	1	0.008625
39.183333	1	0.010875
39.200000	1	0.012875
39.216667	1	0.015375
39.233333	1	0.018125
39.250000	1	0.020625
39.266667	1	0.022750
39.283333	1	0.025000
39.300000	1	0.027000
39.316667	1	0.029125
39.333333	1	0.030875
39.350000	1	0.032375
39.366667	1	0.033750
39.383333	1	0.035375
39.400000	1	0.037125
39.416667	1	0.038000
39.433333	1	0.039250
39.450000	1	0.040250
39.466667	1	0.041625
39.483333	1	0.042500
39.500000	1	0.043000
39.516667	1	0.043250
39.533333	1	0.043500
39.550000	1	0.043875
39.566667	1	0.043875
39.583333	1	0.043125
39.600000	1	0.042875
39.616667	1	0.043000
39.633333	1	0.042625
39.650000	1	0.042125
39.666667	1	0.041500
39.683333	1	0.040500
39.700000	1	0.039750
39.716667	1	0.038500
39.733333	1	0.037375
39.750000	1	0.035875
39.766667	1	0.034500
39.783333	1	0.033000
39.800000	1	0.031875
39.816667	1	0.031000
39.833333	1	0.030250
39.850000	1	0.029125
39.866667	1	0.028375
39.883333	1	0.027125
39.900000	1	0.025875
39.916667	1	0.025125
39.933333	1	0.023875
39.950000	1	0.022750
39.966667	1	0.021875
39.983333	1	0.020375
40.000000	1	0.019500
