URL	chrom://bioreactor/micro_cm7/HPLC_Ultimate_3000/Users/markusar/20240727_MA_EsirYCA.seq/239.smp/RI_1.channel/RI_1.chm
Channel	RI_1

Injection Information:
Data Vault	micro_cm7
Sequence	20240727_MA_EsirYCA
Name	Es1_4
Number	5
Position	BA5
Comment	
Processing Method	
Instrument Method	run_25B_method
Type	Unknown
Status	Finished
Inject Time	29.07.2024 16:21:33 +02:00
Volume (µl)	20.0000
Dilution Factor	1.0000
Weight	1.0000

Chromatogram Data Information:
Time Min. (min)	0.000000
Time Max. (min)	40.000000
Data Points	2401
Detector	RI
Generating Data System	Chromeleon 7.3.2.11814
Exporting Data System	Chromeleon 7.3.2.0
Operator	Instrument Controller
Signal Quantity	Refractive 
Signal Unit	µRIU
Signal Min.	-1.340500
Signal Max.	57.237250
Channel	RI_1
Driver Name	RID520Driver.dll
Channel Type	Evaluation
Min. Step (s)	1
Max. Step (s)	1
Average Step (s)	1

Signal Parameter Information:
Signal Info	

Chromatogram Data:
Time (min)	Step (s)	Value (µRIU)
0.000000	n.a.	-0.005750
0.016667	1	-0.005750
0.033333	1	-0.005375
0.050000	1	-0.004375
0.066667	1	-0.003625
0.083333	1	-0.002625
0.100000	1	-0.002250
0.116667	1	-0.001625
0.133333	1	-0.000875
0.150000	1	0.000125
0.166667	1	0.000625
0.183333	1	0.001250
0.200000	1	0.001875
0.216667	1	0.002875
0.233333	1	0.003250
0.250000	1	0.003750
0.266667	1	0.004125
0.283333	1	0.004750
0.300000	1	0.004625
0.316667	1	0.004250
0.333333	1	0.003250
0.350000	1	0.002625
0.366667	1	0.001250
0.383333	1	-0.000375
0.400000	1	-0.002500
0.416667	1	-0.003625
0.433333	1	-0.004250
0.450000	1	-0.004750
0.466667	1	-0.004500
0.483333	1	-0.004750
0.500000	1	-0.005125
0.516667	1	-0.006375
0.533333	1	-0.007750
0.550000	1	-0.010500
0.566667	1	-0.013875
0.583333	1	-0.017750
0.600000	1	-0.022625
0.616667	1	-0.027875
0.633333	1	-0.032000
0.650000	1	-0.035625
0.666667	1	-0.038750
0.683333	1	-0.040875
0.700000	1	-0.043250
0.716667	1	-0.045250
0.733333	1	-0.047500
0.750000	1	-0.049000
0.766667	1	-0.050625
0.783333	1	-0.052125
0.800000	1	-0.053250
0.816667	1	-0.054250
0.833333	1	-0.055500
0.850000	1	-0.055875
0.866667	1	-0.056125
0.883333	1	-0.056250
0.900000	1	-0.057000
0.916667	1	-0.057625
0.933333	1	-0.057250
0.950000	1	-0.057375
0.966667	1	-0.056625
0.983333	1	-0.056125
1.000000	1	-0.055500
1.016667	1	-0.055000
1.033333	1	-0.054250
1.050000	1	-0.052875
1.066667	1	-0.052250
1.083333	1	-0.051375
1.100000	1	-0.050750
1.116667	1	-0.050000
1.133333	1	-0.048250
1.150000	1	-0.047375
1.166667	1	-0.046500
1.183333	1	-0.045625
1.200000	1	-0.044875
1.216667	1	-0.044375
1.233333	1	-0.044250
1.250000	1	-0.043375
1.266667	1	-0.042000
1.283333	1	-0.041875
1.300000	1	-0.041750
1.316667	1	-0.041500
1.333333	1	-0.041375
1.350000	1	-0.041375
1.366667	1	-0.041375
1.383333	1	-0.041250
1.400000	1	-0.041375
1.416667	1	-0.041625
1.433333	1	-0.041875
1.450000	1	-0.042250
1.466667	1	-0.042125
1.483333	1	-0.042750
1.500000	1	-0.043125
1.516667	1	-0.043375
1.533333	1	-0.044250
1.550000	1	-0.045375
1.566667	1	-0.045500
1.583333	1	-0.045875
1.600000	1	-0.047125
1.616667	1	-0.048250
1.633333	1	-0.049000
1.650000	1	-0.049000
1.666667	1	-0.049250
1.683333	1	-0.050250
1.700000	1	-0.051500
1.716667	1	-0.052750
1.733333	1	-0.053250
1.750000	1	-0.054250
1.766667	1	-0.055000
1.783333	1	-0.055375
1.800000	1	-0.056875
1.816667	1	-0.057250
1.833333	1	-0.057625
1.850000	1	-0.058250
1.866667	1	-0.058875
1.883333	1	-0.059000
1.900000	1	-0.060625
1.916667	1	-0.061375
1.933333	1	-0.062125
1.950000	1	-0.062500
1.966667	1	-0.063000
1.983333	1	-0.064125
2.000000	1	-0.065125
2.016667	1	-0.065500
2.033333	1	-0.065750
2.050000	1	-0.065375
2.066667	1	-0.065750
2.083333	1	-0.066250
2.100000	1	-0.066750
2.116667	1	-0.067375
2.133333	1	-0.067500
2.150000	1	-0.067875
2.166667	1	-0.068125
2.183333	1	-0.067625
2.200000	1	-0.068000
2.216667	1	-0.067375
2.233333	1	-0.066500
2.250000	1	-0.065875
2.266667	1	-0.065375
2.283333	1	-0.064250
2.300000	1	-0.063375
2.316667	1	-0.062625
2.333333	1	-0.061750
2.350000	1	-0.060750
2.366667	1	-0.058875
2.383333	1	-0.057875
2.400000	1	-0.055625
2.416667	1	-0.053500
2.433333	1	-0.051750
2.450000	1	-0.049750
2.466667	1	-0.047250
2.483333	1	-0.045500
2.500000	1	-0.043375
2.516667	1	-0.041000
2.533333	1	-0.038500
2.550000	1	-0.037125
2.566667	1	-0.034625
2.583333	1	-0.032750
2.600000	1	-0.030750
2.616667	1	-0.028250
2.633333	1	-0.026625
2.650000	1	-0.024625
2.666667	1	-0.022625
2.683333	1	-0.021000
2.700000	1	-0.019125
2.716667	1	-0.018625
2.733333	1	-0.017750
2.750000	1	-0.016625
2.766667	1	-0.015750
2.783333	1	-0.015500
2.800000	1	-0.014875
2.816667	1	-0.014625
2.833333	1	-0.014750
2.850000	1	-0.015125
2.866667	1	-0.015250
2.883333	1	-0.015875
2.900000	1	-0.016375
2.916667	1	-0.017500
2.933333	1	-0.018625
2.950000	1	-0.019250
2.966667	1	-0.020250
2.983333	1	-0.020875
3.000000	1	-0.020875
3.016667	1	-0.021000
3.033333	1	-0.022250
3.050000	1	-0.022750
3.066667	1	-0.022750
3.083333	1	-0.022500
3.100000	1	-0.023000
3.116667	1	-0.022750
3.133333	1	-0.022375
3.150000	1	-0.021375
3.166667	1	-0.020500
3.183333	1	-0.019250
3.200000	1	-0.018500
3.216667	1	-0.017125
3.233333	1	-0.016000
3.250000	1	-0.014875
3.266667	1	-0.013125
3.283333	1	-0.011750
3.300000	1	-0.010625
3.316667	1	-0.008500
3.333333	1	-0.007000
3.350000	1	-0.004875
3.366667	1	-0.002625
3.383333	1	-0.001000
3.400000	1	0.001250
3.416667	1	0.002750
3.433333	1	0.003875
3.450000	1	0.005625
3.466667	1	0.007250
3.483333	1	0.009500
3.500000	1	0.011375
3.516667	1	0.013250
3.533333	1	0.015375
3.550000	1	0.017875
3.566667	1	0.019625
3.583333	1	0.022125
3.600000	1	0.024500
3.616667	1	0.026750
3.633333	1	0.029125
3.650000	1	0.032125
3.666667	1	0.034375
3.683333	1	0.037375
3.700000	1	0.039750
3.716667	1	0.041875
3.733333	1	0.044375
3.750000	1	0.047250
3.766667	1	0.049750
3.783333	1	0.052875
3.800000	1	0.055500
3.816667	1	0.058625
3.833333	1	0.060625
3.850000	1	0.062750
3.866667	1	0.065125
3.883333	1	0.067625
3.900000	1	0.069375
3.916667	1	0.071375
3.933333	1	0.073875
3.950000	1	0.075375
3.966667	1	0.077000
3.983333	1	0.078250
4.000000	1	0.079875
4.016667	1	0.081125
4.033333	1	0.081875
4.050000	1	0.082500
4.066667	1	0.083250
4.083333	1	0.084500
4.100000	1	0.085000
4.116667	1	0.084250
4.133333	1	0.084500
4.150000	1	0.084625
4.166667	1	0.085250
4.183333	1	0.084875
4.200000	1	0.085125
4.216667	1	0.084875
4.233333	1	0.084875
4.250000	1	0.085000
4.266667	1	0.084750
4.283333	1	0.085000
4.300000	1	0.085250
4.316667	1	0.085375
4.333333	1	0.085750
4.350000	1	0.086125
4.366667	1	0.085875
4.383333	1	0.086875
4.400000	1	0.088250
4.416667	1	0.089250
4.433333	1	0.090375
4.450000	1	0.092125
4.466667	1	0.093500
4.483333	1	0.094250
4.500000	1	0.095500
4.516667	1	0.097625
4.533333	1	0.099250
4.550000	1	0.101250
4.566667	1	0.103125
4.583333	1	0.105250
4.600000	1	0.107625
4.616667	1	0.108875
4.633333	1	0.111000
4.650000	1	0.113250
4.666667	1	0.115375
4.683333	1	0.117875
4.700000	1	0.119500
4.716667	1	0.121750
4.733333	1	0.124250
4.750000	1	0.126500
4.766667	1	0.129000
4.783333	1	0.131500
4.800000	1	0.133875
4.816667	1	0.135750
4.833333	1	0.138000
4.850000	1	0.139750
4.866667	1	0.141875
4.883333	1	0.143125
4.900000	1	0.144250
4.916667	1	0.145250
4.933333	1	0.146875
4.950000	1	0.147750
4.966667	1	0.149250
4.983333	1	0.150500
5.000000	1	0.151125
5.016667	1	0.151625
5.033333	1	0.152375
5.050000	1	0.153000
5.066667	1	0.152750
5.083333	1	0.153375
5.100000	1	0.153625
5.116667	1	0.154375
5.133333	1	0.154500
5.150000	1	0.155000
5.166667	1	0.155250
5.183333	1	0.155750
5.200000	1	0.156125
5.216667	1	0.157000
5.233333	1	0.156875
5.250000	1	0.157250
5.266667	1	0.158125
5.283333	1	0.159250
5.300000	1	0.159375
5.316667	1	0.160125
5.333333	1	0.161250
5.350000	1	0.161250
5.366667	1	0.161875
5.383333	1	0.162500
5.400000	1	0.163250
5.416667	1	0.163875
5.433333	1	0.164125
5.450000	1	0.163375
5.466667	1	0.163625
5.483333	1	0.163500
5.500000	1	0.163000
5.516667	1	0.161500
5.533333	1	0.160750
5.550000	1	0.159875
5.566667	1	0.158500
5.583333	1	0.157000
5.600000	1	0.154875
5.616667	1	0.153000
5.633333	1	0.150250
5.650000	1	0.147750
5.666667	1	0.144750
5.683333	1	0.142000
5.700000	1	0.137750
5.716667	1	0.133125
5.733333	1	0.128875
5.750000	1	0.125375
5.766667	1	0.120625
5.783333	1	0.115875
5.800000	1	0.111500
5.816667	1	0.106750
5.833333	1	0.101500
5.850000	1	0.096875
5.866667	1	0.091625
5.883333	1	0.086750
5.900000	1	0.081250
5.916667	1	0.075250
5.933333	1	0.069375
5.950000	1	0.064250
5.966667	1	0.059125
5.983333	1	0.054375
6.000000	1	0.049375
6.016667	1	0.044750
6.033333	1	0.040000
6.050000	1	0.035625
6.066667	1	0.031750
6.083333	1	0.027000
6.100000	1	0.022750
6.116667	1	0.018875
6.133333	1	0.015875
6.150000	1	0.012875
6.166667	1	0.010375
6.183333	1	0.008125
6.200000	1	0.006000
6.216667	1	0.003375
6.233333	1	0.001625
6.250000	1	0.000375
6.266667	1	-0.001000
6.283333	1	-0.002000
6.300000	1	-0.002750
6.316667	1	-0.002750
6.333333	1	-0.003375
6.350000	1	-0.003750
6.366667	1	-0.004750
6.383333	1	-0.005625
6.400000	1	-0.006125
6.416667	1	-0.006250
6.433333	1	-0.006250
6.450000	1	-0.006625
6.466667	1	-0.006625
6.483333	1	-0.006500
6.500000	1	-0.006250
6.516667	1	-0.005875
6.533333	1	-0.005250
6.550000	1	-0.004500
6.566667	1	-0.003625
6.583333	1	-0.003875
6.600000	1	-0.003750
6.616667	1	-0.003250
6.633333	1	-0.002750
6.650000	1	-0.001750
6.666667	1	-0.000625
6.683333	1	0.000875
6.700000	1	0.001875
6.716667	1	0.003500
6.733333	1	0.005625
6.750000	1	0.008375
6.766667	1	0.010875
6.783333	1	0.013500
6.800000	1	0.016750
6.816667	1	0.020500
6.833333	1	0.024250
6.850000	1	0.027500
6.866667	1	0.031625
6.883333	1	0.036250
6.900000	1	0.040750
6.916667	1	0.045375
6.933333	1	0.050875
6.950000	1	0.055875
6.966667	1	0.061375
6.983333	1	0.066750
7.000000	1	0.072250
7.016667	1	0.077375
7.033333	1	0.083000
7.050000	1	0.088625
7.066667	1	0.094000
7.083333	1	0.098750
7.100000	1	0.103125
7.116667	1	0.108125
7.133333	1	0.112625
7.150000	1	0.116875
7.166667	1	0.120500
7.183333	1	0.124000
7.200000	1	0.126625
7.216667	1	0.129875
7.233333	1	0.131875
7.250000	1	0.134500
7.266667	1	0.135500
7.283333	1	0.135625
7.300000	1	0.136250
7.316667	1	0.136750
7.333333	1	0.136625
7.350000	1	0.136125
7.366667	1	0.134625
7.383333	1	0.133000
7.400000	1	0.130875
7.416667	1	0.128625
7.433333	1	0.126125
7.450000	1	0.123250
7.466667	1	0.119875
7.483333	1	0.116250
7.500000	1	0.112250
7.516667	1	0.108250
7.533333	1	0.103875
7.550000	1	0.099500
7.566667	1	0.095375
7.583333	1	0.090500
7.600000	1	0.086250
7.616667	1	0.081375
7.633333	1	0.077125
7.650000	1	0.071250
7.666667	1	0.066125
7.683333	1	0.061500
7.700000	1	0.057000
7.716667	1	0.052500
7.733333	1	0.047750
7.750000	1	0.043125
7.766667	1	0.038750
7.783333	1	0.034875
7.800000	1	0.029750
7.816667	1	0.025625
7.833333	1	0.020500
7.850000	1	0.016875
7.866667	1	0.012750
7.883333	1	0.009375
7.900000	1	0.005500
7.916667	1	0.002250
7.933333	1	-0.001125
7.950000	1	-0.004125
7.966667	1	-0.007125
7.983333	1	-0.010500
8.000000	1	-0.013375
8.016667	1	-0.016875
8.033333	1	-0.019625
8.050000	1	-0.022125
8.066667	1	-0.024750
8.083333	1	-0.028000
8.100000	1	-0.030250
8.116667	1	-0.033000
8.133333	1	-0.036000
8.150000	1	-0.037875
8.166667	1	-0.040375
8.183333	1	-0.042625
8.200000	1	-0.044500
8.216667	1	-0.046625
8.233333	1	-0.048250
8.250000	1	-0.049750
8.266667	1	-0.051750
8.283333	1	-0.052875
8.300000	1	-0.053500
8.316667	1	-0.054250
8.333333	1	-0.054875
8.350000	1	-0.054625
8.366667	1	-0.054750
8.383333	1	-0.054875
8.400000	1	-0.054875
8.416667	1	-0.054750
8.433333	1	-0.053875
8.450000	1	-0.053250
8.466667	1	-0.052500
8.483333	1	-0.051000
8.500000	1	-0.049625
8.516667	1	-0.048625
8.533333	1	-0.047125
8.550000	1	-0.044625
8.566667	1	-0.042500
8.583333	1	-0.040500
8.600000	1	-0.038000
8.616667	1	-0.035250
8.633333	1	-0.032750
8.650000	1	-0.030250
8.666667	1	-0.027875
8.683333	1	-0.024500
8.700000	1	-0.022000
8.716667	1	-0.019250
8.733333	1	-0.016625
8.750000	1	-0.013250
8.766667	1	-0.010750
8.783333	1	-0.007750
8.800000	1	-0.004750
8.816667	1	-0.001750
8.833333	1	0.000375
8.850000	1	0.002500
8.866667	1	0.005000
8.883333	1	0.007250
8.900000	1	0.009000
8.916667	1	0.010500
8.933333	1	0.012625
8.950000	1	0.013750
8.966667	1	0.014750
8.983333	1	0.015250
9.000000	1	0.015750
9.016667	1	0.014875
9.033333	1	0.014000
9.050000	1	0.013000
9.066667	1	0.012375
9.083333	1	0.010875
9.100000	1	0.009875
9.116667	1	0.008875
9.133333	1	0.006875
9.150000	1	0.004125
9.166667	1	0.001625
9.183333	1	-0.001000
9.200000	1	-0.004000
9.216667	1	-0.007375
9.233333	1	-0.010000
9.250000	1	-0.012375
9.266667	1	-0.015875
9.283333	1	-0.019125
9.300000	1	-0.022125
9.316667	1	-0.025375
9.333333	1	-0.029000
9.350000	1	-0.031750
9.366667	1	-0.034875
9.383333	1	-0.038625
9.400000	1	-0.041625
9.416667	1	-0.044375
9.433333	1	-0.047250
9.450000	1	-0.050375
9.466667	1	-0.054000
9.483333	1	-0.056875
9.500000	1	-0.060125
9.516667	1	-0.062500
9.533333	1	-0.064625
9.550000	1	-0.067125
9.566667	1	-0.069125
9.583333	1	-0.070750
9.600000	1	-0.073250
9.616667	1	-0.075250
9.633333	1	-0.076750
9.650000	1	-0.078250
9.666667	1	-0.079250
9.683333	1	-0.080500
9.700000	1	-0.080375
9.716667	1	-0.080875
9.733333	1	-0.080375
9.750000	1	-0.080000
9.766667	1	-0.079625
9.783333	1	-0.079250
9.800000	1	-0.078625
9.816667	1	-0.077375
9.833333	1	-0.076000
9.850000	1	-0.074500
9.866667	1	-0.072875
9.883333	1	-0.071000
9.900000	1	-0.069625
9.916667	1	-0.067125
9.933333	1	-0.064250
9.950000	1	-0.061875
9.966667	1	-0.059750
9.983333	1	-0.056875
10.000000	1	-0.054250
10.016667	1	-0.051250
10.033333	1	-0.048125
10.050000	1	-0.044875
10.066667	1	-0.041500
10.083333	1	-0.037000
10.100000	1	-0.032375
10.116667	1	-0.027250
10.133333	1	-0.022250
10.150000	1	-0.015875
10.166667	1	-0.008750
10.183333	1	-0.001125
10.200000	1	0.006625
10.216667	1	0.015750
10.233333	1	0.025750
10.250000	1	0.037125
10.266667	1	0.050625
10.283333	1	0.066250
10.300000	1	0.084000
10.316667	1	0.103875
10.333333	1	0.125375
10.350000	1	0.149125
10.366667	1	0.174250
10.383333	1	0.199750
10.400000	1	0.224125
10.416667	1	0.244875
10.433333	1	0.260500
10.450000	1	0.271375
10.466667	1	0.280625
10.483333	1	0.297500
10.500000	1	0.338875
10.516667	1	0.430500
10.533333	1	0.606750
10.550000	1	0.909375
10.566667	1	1.381750
10.583333	1	2.066250
10.600000	1	3.001500
10.616667	1	4.217750
10.633333	1	5.733125
10.650000	1	7.556125
10.666667	1	9.688000
10.683333	1	12.119875
10.700000	1	14.834625
10.716667	1	17.804750
10.733333	1	20.992000
10.750000	1	24.349250
10.766667	1	27.821000
10.783333	1	31.334625
10.800000	1	34.800500
10.816667	1	38.102000
10.833333	1	41.080500
10.850000	1	43.539125
10.866667	1	45.247375
10.883333	1	45.964625
10.900000	1	45.496375
10.916667	1	43.762000
10.933333	1	40.848125
10.950000	1	37.008750
10.966667	1	32.614250
10.983333	1	28.057625
11.000000	1	23.672375
11.016667	1	19.684750
11.033333	1	16.213625
11.050000	1	13.289625
11.066667	1	10.884250
11.083333	1	8.942125
11.100000	1	7.396875
11.116667	1	6.180250
11.133333	1	5.230125
11.150000	1	4.489500
11.166667	1	3.911875
11.183333	1	3.459000
11.200000	1	3.099375
11.216667	1	2.811500
11.233333	1	2.577500
11.250000	1	2.385000
11.266667	1	2.223375
11.283333	1	2.085875
11.300000	1	1.966750
11.316667	1	1.862750
11.333333	1	1.770125
11.350000	1	1.687375
11.366667	1	1.612625
11.383333	1	1.545250
11.400000	1	1.484250
11.416667	1	1.429750
11.433333	1	1.381250
11.450000	1	1.338000
11.466667	1	1.299000
11.483333	1	1.265625
11.500000	1	1.235875
11.516667	1	1.209875
11.533333	1	1.187875
11.550000	1	1.168750
11.566667	1	1.152250
11.583333	1	1.138500
11.600000	1	1.127125
11.616667	1	1.117625
11.633333	1	1.109375
11.650000	1	1.102375
11.666667	1	1.097500
11.683333	1	1.093625
11.700000	1	1.091375
11.716667	1	1.089750
11.733333	1	1.089375
11.750000	1	1.088750
11.766667	1	1.088750
11.783333	1	1.090250
11.800000	1	1.091750
11.816667	1	1.094500
11.833333	1	1.097750
11.850000	1	1.102125
11.866667	1	1.106625
11.883333	1	1.111500
11.900000	1	1.116625
11.916667	1	1.121875
11.933333	1	1.126250
11.950000	1	1.131125
11.966667	1	1.134000
11.983333	1	1.136875
12.000000	1	1.138625
12.016667	1	1.139750
12.033333	1	1.139500
12.050000	1	1.139250
12.066667	1	1.138750
12.083333	1	1.138250
12.100000	1	1.137750
12.116667	1	1.137750
12.133333	1	1.138500
12.150000	1	1.138625
12.166667	1	1.138750
12.183333	1	1.140375
12.200000	1	1.142375
12.216667	1	1.145625
12.233333	1	1.150625
12.250000	1	1.157500
12.266667	1	1.166500
12.283333	1	1.178500
12.300000	1	1.195500
12.316667	1	1.219000
12.333333	1	1.251000
12.350000	1	1.295250
12.366667	1	1.357500
12.383333	1	1.443375
12.400000	1	1.561375
12.416667	1	1.724750
12.433333	1	1.948000
12.450000	1	2.252750
12.466667	1	2.665000
12.483333	1	3.216000
12.500000	1	3.944625
12.516667	1	4.893750
12.533333	1	6.109875
12.550000	1	7.640250
12.566667	1	9.531625
12.583333	1	11.823250
12.600000	1	14.543125
12.616667	1	17.696125
12.633333	1	21.269750
12.650000	1	25.224375
12.666667	1	29.486375
12.683333	1	33.945375
12.700000	1	38.458250
12.716667	1	42.854750
12.733333	1	46.949250
12.750000	1	50.555500
12.766667	1	53.501125
12.783333	1	55.649625
12.800000	1	56.906500
12.816667	1	57.237250
12.833333	1	56.661375
12.850000	1	55.253375
12.866667	1	53.133625
12.883333	1	50.458375
12.900000	1	47.405250
12.916667	1	44.150500
12.933333	1	40.858125
12.950000	1	37.658375
12.966667	1	34.635125
12.983333	1	31.815750
13.000000	1	29.177375
13.016667	1	26.657750
13.033333	1	24.181375
13.050000	1	21.691000
13.066667	1	19.162125
13.083333	1	16.609375
13.100000	1	14.092625
13.116667	1	11.710750
13.133333	1	9.571250
13.150000	1	7.752125
13.166667	1	6.277000
13.183333	1	5.119750
13.200000	1	4.228000
13.216667	1	3.546000
13.233333	1	3.024375
13.250000	1	2.623750
13.266667	1	2.315375
13.283333	1	2.074750
13.300000	1	1.884500
13.316667	1	1.732625
13.333333	1	1.608375
13.350000	1	1.505625
13.366667	1	1.419625
13.383333	1	1.346250
13.400000	1	1.282750
13.416667	1	1.228250
13.433333	1	1.180000
13.450000	1	1.138125
13.466667	1	1.100500
13.483333	1	1.067750
13.500000	1	1.039625
13.516667	1	1.014625
13.533333	1	0.993250
13.550000	1	0.974250
13.566667	1	0.958000
13.583333	1	0.945875
13.600000	1	0.936375
13.616667	1	0.928875
13.633333	1	0.923000
13.650000	1	0.918875
13.666667	1	0.916375
13.683333	1	0.914500
13.700000	1	0.913500
13.716667	1	0.913000
13.733333	1	0.912375
13.750000	1	0.910250
13.766667	1	0.907625
13.783333	1	0.903500
13.800000	1	0.897750
13.816667	1	0.889500
13.833333	1	0.879750
13.850000	1	0.868875
13.866667	1	0.855750
13.883333	1	0.840750
13.900000	1	0.825625
13.916667	1	0.810125
13.933333	1	0.794750
13.950000	1	0.778625
13.966667	1	0.763625
13.983333	1	0.750000
14.000000	1	0.737000
14.016667	1	0.725375
14.033333	1	0.714125
14.050000	1	0.703750
14.066667	1	0.693625
14.083333	1	0.684250
14.100000	1	0.675500
14.116667	1	0.667750
14.133333	1	0.660250
14.150000	1	0.652625
14.166667	1	0.645750
14.183333	1	0.639375
14.200000	1	0.632500
14.216667	1	0.627125
14.233333	1	0.622125
14.250000	1	0.617750
14.266667	1	0.613250
14.283333	1	0.610250
14.300000	1	0.607625
14.316667	1	0.606125
14.333333	1	0.604500
14.350000	1	0.603625
14.366667	1	0.603625
14.383333	1	0.605000
14.400000	1	0.607625
14.416667	1	0.611625
14.433333	1	0.616375
14.450000	1	0.622000
14.466667	1	0.629125
14.483333	1	0.636000
14.500000	1	0.643125
14.516667	1	0.650250
14.533333	1	0.658000
14.550000	1	0.665250
14.566667	1	0.673125
14.583333	1	0.681125
14.600000	1	0.689750
14.616667	1	0.698375
14.633333	1	0.707375
14.650000	1	0.718125
14.666667	1	0.731750
14.683333	1	0.747250
14.700000	1	0.766500
14.716667	1	0.790500
14.733333	1	0.818125
14.750000	1	0.851250
14.766667	1	0.889500
14.783333	1	0.931125
14.800000	1	0.976625
14.816667	1	1.024125
14.833333	1	1.072500
14.850000	1	1.119750
14.866667	1	1.163375
14.883333	1	1.202000
14.900000	1	1.232250
14.916667	1	1.253375
14.933333	1	1.263750
14.950000	1	1.261625
14.966667	1	1.248125
14.983333	1	1.223500
15.000000	1	1.187625
15.016667	1	1.142875
15.033333	1	1.091875
15.050000	1	1.036875
15.066667	1	0.979625
15.083333	1	0.922125
15.100000	1	0.866875
15.116667	1	0.814750
15.133333	1	0.766875
15.150000	1	0.724375
15.166667	1	0.687875
15.183333	1	0.656875
15.200000	1	0.631625
15.216667	1	0.612125
15.233333	1	0.597750
15.250000	1	0.586875
15.266667	1	0.580625
15.283333	1	0.578625
15.300000	1	0.580625
15.316667	1	0.586625
15.333333	1	0.596125
15.350000	1	0.609500
15.366667	1	0.627750
15.383333	1	0.650000
15.400000	1	0.676750
15.416667	1	0.707125
15.433333	1	0.741875
15.450000	1	0.779375
15.466667	1	0.818875
15.483333	1	0.860375
15.500000	1	0.902375
15.516667	1	0.943500
15.533333	1	0.981625
15.550000	1	1.015500
15.566667	1	1.042875
15.583333	1	1.062750
15.600000	1	1.074625
15.616667	1	1.077750
15.633333	1	1.071875
15.650000	1	1.057375
15.666667	1	1.036000
15.683333	1	1.007750
15.700000	1	0.974625
15.716667	1	0.939000
15.733333	1	0.901500
15.750000	1	0.863500
15.766667	1	0.827250
15.783333	1	0.792750
15.800000	1	0.760500
15.816667	1	0.731250
15.833333	1	0.704500
15.850000	1	0.681250
15.866667	1	0.660500
15.883333	1	0.642000
15.900000	1	0.625750
15.916667	1	0.611750
15.933333	1	0.599250
15.950000	1	0.588000
15.966667	1	0.578625
15.983333	1	0.571375
16.000000	1	0.565500
16.016667	1	0.561500
16.033333	1	0.558875
16.050000	1	0.557750
16.066667	1	0.558500
16.083333	1	0.560875
16.100000	1	0.563625
16.116667	1	0.568500
16.133333	1	0.573750
16.150000	1	0.579750
16.166667	1	0.586500
16.183333	1	0.593750
16.200000	1	0.601750
16.216667	1	0.609250
16.233333	1	0.616500
16.250000	1	0.623500
16.266667	1	0.629750
16.283333	1	0.634875
16.300000	1	0.639250
16.316667	1	0.642250
16.333333	1	0.643875
16.350000	1	0.646000
16.366667	1	0.647625
16.383333	1	0.648625
16.400000	1	0.649375
16.416667	1	0.649500
16.433333	1	0.649750
16.450000	1	0.650250
16.466667	1	0.651375
16.483333	1	0.653750
16.500000	1	0.656125
16.516667	1	0.660375
16.533333	1	0.665625
16.550000	1	0.670875
16.566667	1	0.677875
16.583333	1	0.686250
16.600000	1	0.694625
16.616667	1	0.704375
16.633333	1	0.713500
16.650000	1	0.723125
16.666667	1	0.731375
16.683333	1	0.739000
16.700000	1	0.746250
16.716667	1	0.753000
16.733333	1	0.758125
16.750000	1	0.763000
16.766667	1	0.767375
16.783333	1	0.771125
16.800000	1	0.775000
16.816667	1	0.779625
16.833333	1	0.783750
16.850000	1	0.788875
16.866667	1	0.793875
16.883333	1	0.799500
16.900000	1	0.805000
16.916667	1	0.810750
16.933333	1	0.816125
16.950000	1	0.821500
16.966667	1	0.825875
16.983333	1	0.829000
17.000000	1	0.831375
17.016667	1	0.832500
17.033333	1	0.833000
17.050000	1	0.832750
17.066667	1	0.830750
17.083333	1	0.828000
17.100000	1	0.826000
17.116667	1	0.823000
17.133333	1	0.820875
17.150000	1	0.818625
17.166667	1	0.816750
17.183333	1	0.815500
17.200000	1	0.815375
17.216667	1	0.815875
17.233333	1	0.817500
17.250000	1	0.820000
17.266667	1	0.823500
17.283333	1	0.827875
17.300000	1	0.832625
17.316667	1	0.838125
17.333333	1	0.844500
17.350000	1	0.850875
17.366667	1	0.857375
17.383333	1	0.863250
17.400000	1	0.869750
17.416667	1	0.876000
17.433333	1	0.881000
17.450000	1	0.885625
17.466667	1	0.889625
17.483333	1	0.891875
17.500000	1	0.892625
17.516667	1	0.892250
17.533333	1	0.890875
17.550000	1	0.887000
17.566667	1	0.881625
17.583333	1	0.874875
17.600000	1	0.866500
17.616667	1	0.856125
17.633333	1	0.844500
17.650000	1	0.831250
17.666667	1	0.817125
17.683333	1	0.802000
17.700000	1	0.786875
17.716667	1	0.771250
17.733333	1	0.756250
17.750000	1	0.740500
17.766667	1	0.724875
17.783333	1	0.709750
17.800000	1	0.695375
17.816667	1	0.682000
17.833333	1	0.669125
17.850000	1	0.655750
17.866667	1	0.644125
17.883333	1	0.632875
17.900000	1	0.621750
17.916667	1	0.611125
17.933333	1	0.601625
17.950000	1	0.592125
17.966667	1	0.583750
17.983333	1	0.575500
18.000000	1	0.568000
18.016667	1	0.561125
18.033333	1	0.554375
18.050000	1	0.548250
18.066667	1	0.542000
18.083333	1	0.535625
18.100000	1	0.530000
18.116667	1	0.524500
18.133333	1	0.519625
18.150000	1	0.515000
18.166667	1	0.510375
18.183333	1	0.506500
18.200000	1	0.502500
18.216667	1	0.499250
18.233333	1	0.497375
18.250000	1	0.495000
18.266667	1	0.493625
18.283333	1	0.493750
18.300000	1	0.493750
18.316667	1	0.494500
18.333333	1	0.496375
18.350000	1	0.498500
18.366667	1	0.501250
18.383333	1	0.505000
18.400000	1	0.509625
18.416667	1	0.513750
18.433333	1	0.519750
18.450000	1	0.525875
18.466667	1	0.532000
18.483333	1	0.538875
18.500000	1	0.547250
18.516667	1	0.556250
18.533333	1	0.566375
18.550000	1	0.578375
18.566667	1	0.592625
18.583333	1	0.608125
18.600000	1	0.625375
18.616667	1	0.644750
18.633333	1	0.666250
18.650000	1	0.689625
18.666667	1	0.715125
18.683333	1	0.742375
18.700000	1	0.772000
18.716667	1	0.803250
18.733333	1	0.836000
18.750000	1	0.870375
18.766667	1	0.906125
18.783333	1	0.942750
18.800000	1	0.979750
18.816667	1	1.016500
18.833333	1	1.052500
18.850000	1	1.087875
18.866667	1	1.121125
18.883333	1	1.152125
18.900000	1	1.179875
18.916667	1	1.203250
18.933333	1	1.222375
18.950000	1	1.237250
18.966667	1	1.245875
18.983333	1	1.248875
19.000000	1	1.245375
19.016667	1	1.235125
19.033333	1	1.218750
19.050000	1	1.195375
19.066667	1	1.166250
19.083333	1	1.132125
19.100000	1	1.093375
19.116667	1	1.050625
19.133333	1	1.004625
19.150000	1	0.957375
19.166667	1	0.909125
19.183333	1	0.860375
19.200000	1	0.812375
19.216667	1	0.766375
19.233333	1	0.723125
19.250000	1	0.683250
19.266667	1	0.647250
19.283333	1	0.615750
19.300000	1	0.589500
19.316667	1	0.568125
19.333333	1	0.552625
19.350000	1	0.542375
19.366667	1	0.537375
19.383333	1	0.537750
19.400000	1	0.543250
19.416667	1	0.554250
19.433333	1	0.570000
19.450000	1	0.589875
19.466667	1	0.616000
19.483333	1	0.645500
19.500000	1	0.678125
19.516667	1	0.713875
19.533333	1	0.751375
19.550000	1	0.790625
19.566667	1	0.830000
19.583333	1	0.870750
19.600000	1	0.909875
19.616667	1	0.947000
19.633333	1	0.981750
19.650000	1	1.012125
19.666667	1	1.038000
19.683333	1	1.058625
19.700000	1	1.074000
19.716667	1	1.083875
19.733333	1	1.088250
19.750000	1	1.086375
19.766667	1	1.079000
19.783333	1	1.066750
19.800000	1	1.049000
19.816667	1	1.027500
19.833333	1	1.002625
19.850000	1	0.974250
19.866667	1	0.943250
19.883333	1	0.910750
19.900000	1	0.877750
19.916667	1	0.844750
19.933333	1	0.811250
19.950000	1	0.778500
19.966667	1	0.746500
19.983333	1	0.715750
20.000000	1	0.687500
20.016667	1	0.659875
20.033333	1	0.634875
20.050000	1	0.611875
20.066667	1	0.592250
20.083333	1	0.575000
20.100000	1	0.560500
20.116667	1	0.549000
20.133333	1	0.540250
20.150000	1	0.534375
20.166667	1	0.531500
20.183333	1	0.532000
20.200000	1	0.534250
20.216667	1	0.539875
20.233333	1	0.547250
20.250000	1	0.556750
20.266667	1	0.567500
20.283333	1	0.579125
20.300000	1	0.592250
20.316667	1	0.605125
20.333333	1	0.617750
20.350000	1	0.630375
20.366667	1	0.641625
20.383333	1	0.651750
20.400000	1	0.660375
20.416667	1	0.667125
20.433333	1	0.671875
20.450000	1	0.676125
20.466667	1	0.678625
20.483333	1	0.680250
20.500000	1	0.682125
20.516667	1	0.683625
20.533333	1	0.686750
20.550000	1	0.692375
20.566667	1	0.701750
20.583333	1	0.715250
20.600000	1	0.734000
20.616667	1	0.758500
20.633333	1	0.789000
20.650000	1	0.826500
20.666667	1	0.871250
20.683333	1	0.923875
20.700000	1	0.982500
20.716667	1	1.047125
20.733333	1	1.118125
20.750000	1	1.192625
20.766667	1	1.270750
20.783333	1	1.349250
20.800000	1	1.425625
20.816667	1	1.498750
20.833333	1	1.565375
20.850000	1	1.624125
20.866667	1	1.672000
20.883333	1	1.708125
20.900000	1	1.731750
20.916667	1	1.740125
20.933333	1	1.734250
20.950000	1	1.713375
20.966667	1	1.677500
20.983333	1	1.629000
21.000000	1	1.569000
21.016667	1	1.499125
21.033333	1	1.421000
21.050000	1	1.337375
21.066667	1	1.250875
21.083333	1	1.163375
21.100000	1	1.076625
21.116667	1	0.993250
21.133333	1	0.913250
21.150000	1	0.838250
21.166667	1	0.769000
21.183333	1	0.705875
21.200000	1	0.649125
21.216667	1	0.598000
21.233333	1	0.553125
21.250000	1	0.514125
21.266667	1	0.480625
21.283333	1	0.451750
21.300000	1	0.426625
21.316667	1	0.405375
21.333333	1	0.388375
21.350000	1	0.373625
21.366667	1	0.362000
21.383333	1	0.351875
21.400000	1	0.344250
21.416667	1	0.337500
21.433333	1	0.331625
21.450000	1	0.326750
21.466667	1	0.323000
21.483333	1	0.320500
21.500000	1	0.319125
21.516667	1	0.318250
21.533333	1	0.317375
21.550000	1	0.317000
21.566667	1	0.317625
21.583333	1	0.318250
21.600000	1	0.319250
21.616667	1	0.320125
21.633333	1	0.321375
21.650000	1	0.323375
21.666667	1	0.326000
21.683333	1	0.329250
21.700000	1	0.332500
21.716667	1	0.335875
21.733333	1	0.340000
21.750000	1	0.344500
21.766667	1	0.350000
21.783333	1	0.355250
21.800000	1	0.359500
21.816667	1	0.363875
21.833333	1	0.369500
21.850000	1	0.374750
21.866667	1	0.380625
21.883333	1	0.386500
21.900000	1	0.392250
21.916667	1	0.398750
21.933333	1	0.405250
21.950000	1	0.411500
21.966667	1	0.418500
21.983333	1	0.425125
22.000000	1	0.431750
22.016667	1	0.439250
22.033333	1	0.445625
22.050000	1	0.452500
22.066667	1	0.459875
22.083333	1	0.466250
22.100000	1	0.472875
22.116667	1	0.478750
22.133333	1	0.484375
22.150000	1	0.489125
22.166667	1	0.492875
22.183333	1	0.495625
22.200000	1	0.497125
22.216667	1	0.497000
22.233333	1	0.495500
22.250000	1	0.492750
22.266667	1	0.489250
22.283333	1	0.483375
22.300000	1	0.477000
22.316667	1	0.468875
22.333333	1	0.459750
22.350000	1	0.449625
22.366667	1	0.438750
22.383333	1	0.427000
22.400000	1	0.414750
22.416667	1	0.401250
22.433333	1	0.388250
22.450000	1	0.374500
22.466667	1	0.362000
22.483333	1	0.349375
22.500000	1	0.337750
22.516667	1	0.326250
22.533333	1	0.315625
22.550000	1	0.306000
22.566667	1	0.297250
22.583333	1	0.288250
22.600000	1	0.281500
22.616667	1	0.274750
22.633333	1	0.268500
22.650000	1	0.263250
22.666667	1	0.258250
22.683333	1	0.254250
22.700000	1	0.250625
22.716667	1	0.247250
22.733333	1	0.244375
22.750000	1	0.241500
22.766667	1	0.239625
22.783333	1	0.238000
22.800000	1	0.236375
22.816667	1	0.234875
22.833333	1	0.233625
22.850000	1	0.232250
22.866667	1	0.231750
22.883333	1	0.231375
22.900000	1	0.231000
22.916667	1	0.231250
22.933333	1	0.231125
22.950000	1	0.231750
22.966667	1	0.232875
22.983333	1	0.233750
23.000000	1	0.235000
23.016667	1	0.236500
23.033333	1	0.238375
23.050000	1	0.241125
23.066667	1	0.243500
23.083333	1	0.245500
23.100000	1	0.247625
23.116667	1	0.250250
23.133333	1	0.253375
23.150000	1	0.256125
23.166667	1	0.259000
23.183333	1	0.262875
23.200000	1	0.266500
23.216667	1	0.271125
23.233333	1	0.276125
23.250000	1	0.282500
23.266667	1	0.290375
23.283333	1	0.299125
23.300000	1	0.311125
23.316667	1	0.324375
23.333333	1	0.341625
23.350000	1	0.362500
23.366667	1	0.387125
23.383333	1	0.417750
23.400000	1	0.455250
23.416667	1	0.499750
23.433333	1	0.553250
23.450000	1	0.616750
23.466667	1	0.692000
23.483333	1	0.780000
23.500000	1	0.881625
23.516667	1	0.999125
23.533333	1	1.134125
23.550000	1	1.287875
23.566667	1	1.461500
23.583333	1	1.654625
23.600000	1	1.868500
23.616667	1	2.104250
23.633333	1	2.361375
23.650000	1	2.638250
23.666667	1	2.933875
23.683333	1	3.247500
23.700000	1	3.575375
23.716667	1	3.916625
23.733333	1	4.265500
23.750000	1	4.617125
23.766667	1	4.966875
23.783333	1	5.307625
23.800000	1	5.634000
23.816667	1	5.939000
23.833333	1	6.216000
23.850000	1	6.458750
23.866667	1	6.663000
23.883333	1	6.823750
23.900000	1	6.936000
23.916667	1	6.997500
23.933333	1	7.007125
23.950000	1	6.964250
23.966667	1	6.869250
23.983333	1	6.725625
24.000000	1	6.537125
24.016667	1	6.307500
24.033333	1	6.043125
24.050000	1	5.749875
24.066667	1	5.434125
24.083333	1	5.102625
24.100000	1	4.761000
24.116667	1	4.415750
24.133333	1	4.071625
24.150000	1	3.734125
24.166667	1	3.407875
24.183333	1	3.096250
24.200000	1	2.801500
24.216667	1	2.526250
24.233333	1	2.271125
24.250000	1	2.038250
24.266667	1	1.825250
24.283333	1	1.633750
24.300000	1	1.460500
24.316667	1	1.306750
24.333333	1	1.171125
24.350000	1	1.051250
24.366667	1	0.947125
24.383333	1	0.856250
24.400000	1	0.777250
24.416667	1	0.709750
24.433333	1	0.652250
24.450000	1	0.603875
24.466667	1	0.562625
24.483333	1	0.528000
24.500000	1	0.498750
24.516667	1	0.475250
24.533333	1	0.454875
24.550000	1	0.438125
24.566667	1	0.424250
24.583333	1	0.412625
24.600000	1	0.402000
24.616667	1	0.393125
24.633333	1	0.385750
24.650000	1	0.378875
24.666667	1	0.373625
24.683333	1	0.368250
24.700000	1	0.362875
24.716667	1	0.357125
24.733333	1	0.352000
24.750000	1	0.346625
24.766667	1	0.341625
24.783333	1	0.336250
24.800000	1	0.330875
24.816667	1	0.325250
24.833333	1	0.320000
24.850000	1	0.314875
24.866667	1	0.309250
24.883333	1	0.304625
24.900000	1	0.300500
24.916667	1	0.296500
24.933333	1	0.292375
24.950000	1	0.288500
24.966667	1	0.284875
24.983333	1	0.281500
25.000000	1	0.278625
25.016667	1	0.275875
25.033333	1	0.272625
25.050000	1	0.270625
25.066667	1	0.268500
25.083333	1	0.266375
25.100000	1	0.264500
25.116667	1	0.262500
25.133333	1	0.261000
25.150000	1	0.260125
25.166667	1	0.258875
25.183333	1	0.257500
25.200000	1	0.256125
25.216667	1	0.254750
25.233333	1	0.254000
25.250000	1	0.252750
25.266667	1	0.251625
25.283333	1	0.250500
25.300000	1	0.249625
25.316667	1	0.248875
25.333333	1	0.248250
25.350000	1	0.247250
25.366667	1	0.246250
25.383333	1	0.245000
25.400000	1	0.244000
25.416667	1	0.243000
25.433333	1	0.241375
25.450000	1	0.240375
25.466667	1	0.238750
25.483333	1	0.236375
25.500000	1	0.235125
25.516667	1	0.232875
25.533333	1	0.230125
25.550000	1	0.227625
25.566667	1	0.225250
25.583333	1	0.222750
25.600000	1	0.220250
25.616667	1	0.218125
25.633333	1	0.215625
25.650000	1	0.212750
25.666667	1	0.210375
25.683333	1	0.207125
25.700000	1	0.204250
25.716667	1	0.201875
25.733333	1	0.199375
25.750000	1	0.197375
25.766667	1	0.195625
25.783333	1	0.193750
25.800000	1	0.191375
25.816667	1	0.190500
25.833333	1	0.189500
25.850000	1	0.188875
25.866667	1	0.188375
25.883333	1	0.188625
25.900000	1	0.189875
25.916667	1	0.191250
25.933333	1	0.192625
25.950000	1	0.195750
25.966667	1	0.198250
25.983333	1	0.201750
26.000000	1	0.205500
26.016667	1	0.209625
26.033333	1	0.214125
26.050000	1	0.219375
26.066667	1	0.225125
26.083333	1	0.231250
26.100000	1	0.237750
26.116667	1	0.243125
26.133333	1	0.249500
26.150000	1	0.255750
26.166667	1	0.261625
26.183333	1	0.267500
26.200000	1	0.272875
26.216667	1	0.277125
26.233333	1	0.282125
26.250000	1	0.287375
26.266667	1	0.291125
26.283333	1	0.294625
26.300000	1	0.297375
26.316667	1	0.300125
26.333333	1	0.301750
26.350000	1	0.302000
26.366667	1	0.301250
26.383333	1	0.300625
26.400000	1	0.299875
26.416667	1	0.297375
26.433333	1	0.295500
26.450000	1	0.292375
26.466667	1	0.288625
26.483333	1	0.284750
26.500000	1	0.280125
26.516667	1	0.275250
26.533333	1	0.270375
26.550000	1	0.264750
26.566667	1	0.258625
26.583333	1	0.253000
26.600000	1	0.247500
26.616667	1	0.242250
26.633333	1	0.236625
26.650000	1	0.230375
26.666667	1	0.224500
26.683333	1	0.218875
26.700000	1	0.213375
26.716667	1	0.208125
26.733333	1	0.203250
26.750000	1	0.197375
26.766667	1	0.192125
26.783333	1	0.187250
26.800000	1	0.182375
26.816667	1	0.178000
26.833333	1	0.174625
26.850000	1	0.170625
26.866667	1	0.166750
26.883333	1	0.163375
26.900000	1	0.159625
26.916667	1	0.156500
26.933333	1	0.154250
26.950000	1	0.152250
26.966667	1	0.149875
26.983333	1	0.147625
27.000000	1	0.146125
27.016667	1	0.146000
27.033333	1	0.145750
27.050000	1	0.145500
27.066667	1	0.146625
27.083333	1	0.148375
27.100000	1	0.150250
27.116667	1	0.153250
27.133333	1	0.156750
27.150000	1	0.160250
27.166667	1	0.165375
27.183333	1	0.171125
27.200000	1	0.178375
27.216667	1	0.187000
27.233333	1	0.197375
27.250000	1	0.209875
27.266667	1	0.223500
27.283333	1	0.239375
27.300000	1	0.257375
27.316667	1	0.277875
27.333333	1	0.302125
27.350000	1	0.329500
27.366667	1	0.360875
27.383333	1	0.396000
27.400000	1	0.435375
27.416667	1	0.480125
27.433333	1	0.531125
27.450000	1	0.588000
27.466667	1	0.650875
27.483333	1	0.721500
27.500000	1	0.799125
27.516667	1	0.885250
27.533333	1	0.978750
27.550000	1	1.082000
27.566667	1	1.193250
27.583333	1	1.313250
27.600000	1	1.442125
27.616667	1	1.579750
27.633333	1	1.724875
27.650000	1	1.878125
27.666667	1	2.038500
27.683333	1	2.204250
27.700000	1	2.375250
27.716667	1	2.548875
27.733333	1	2.723125
27.750000	1	2.897375
27.766667	1	3.068625
27.783333	1	3.235375
27.800000	1	3.395125
27.816667	1	3.545750
27.833333	1	3.683875
27.850000	1	3.808375
27.866667	1	3.917750
27.883333	1	4.008875
27.900000	1	4.079250
27.916667	1	4.128500
27.933333	1	4.154875
27.950000	1	4.158875
27.966667	1	4.138375
27.983333	1	4.095250
28.000000	1	4.029750
28.016667	1	3.942375
28.033333	1	3.834875
28.050000	1	3.708625
28.066667	1	3.565500
28.083333	1	3.408875
28.100000	1	3.241250
28.116667	1	3.064625
28.133333	1	2.881875
28.150000	1	2.695750
28.166667	1	2.509375
28.183333	1	2.325250
28.200000	1	2.145000
28.216667	1	1.970125
28.233333	1	1.802375
28.250000	1	1.643625
28.266667	1	1.493875
28.283333	1	1.353750
28.300000	1	1.224625
28.316667	1	1.105875
28.333333	1	0.999000
28.350000	1	0.902375
28.366667	1	0.816375
28.383333	1	0.740250
28.400000	1	0.674250
28.416667	1	0.617000
28.433333	1	0.567500
28.450000	1	0.524875
28.466667	1	0.490375
28.483333	1	0.462500
28.500000	1	0.439250
28.516667	1	0.421125
28.533333	1	0.408750
28.550000	1	0.400000
28.566667	1	0.394875
28.583333	1	0.393000
28.600000	1	0.393625
28.616667	1	0.396875
28.633333	1	0.401625
28.650000	1	0.408625
28.666667	1	0.416875
28.683333	1	0.426250
28.700000	1	0.435625
28.716667	1	0.445750
28.733333	1	0.456250
28.750000	1	0.466750
28.766667	1	0.476250
28.783333	1	0.486125
28.800000	1	0.495500
28.816667	1	0.503375
28.833333	1	0.510375
28.850000	1	0.517000
28.866667	1	0.521625
28.883333	1	0.524625
28.900000	1	0.525625
28.916667	1	0.526125
28.933333	1	0.525125
28.950000	1	0.521875
28.966667	1	0.516250
28.983333	1	0.509125
29.000000	1	0.500500
29.016667	1	0.489125
29.033333	1	0.475250
29.050000	1	0.459125
29.066667	1	0.441125
29.083333	1	0.420500
29.100000	1	0.397625
29.116667	1	0.371875
29.133333	1	0.344000
29.150000	1	0.313125
29.166667	1	0.280250
29.183333	1	0.245000
29.200000	1	0.206500
29.216667	1	0.166625
29.233333	1	0.124250
29.250000	1	0.079625
29.266667	1	0.031750
29.283333	1	-0.018750
29.300000	1	-0.071125
29.316667	1	-0.126250
29.333333	1	-0.182750
29.350000	1	-0.241250
29.366667	1	-0.301125
29.383333	1	-0.362500
29.400000	1	-0.425125
29.416667	1	-0.488500
29.433333	1	-0.553500
29.450000	1	-0.618750
29.466667	1	-0.683000
29.483333	1	-0.747000
29.500000	1	-0.810125
29.516667	1	-0.872000
29.533333	1	-0.931250
29.550000	1	-0.988500
29.566667	1	-1.042625
29.583333	1	-1.093000
29.600000	1	-1.140500
29.616667	1	-1.183375
29.633333	1	-1.221500
29.650000	1	-1.255000
29.666667	1	-1.283125
29.683333	1	-1.306125
29.700000	1	-1.322875
29.716667	1	-1.334500
29.733333	1	-1.340500
29.750000	1	-1.340500
29.766667	1	-1.334500
29.783333	1	-1.322750
29.800000	1	-1.304875
29.816667	1	-1.282625
29.833333	1	-1.254875
29.850000	1	-1.222750
29.866667	1	-1.186250
29.883333	1	-1.146250
29.900000	1	-1.102625
29.916667	1	-1.056750
29.933333	1	-1.008625
29.950000	1	-0.958500
29.966667	1	-0.907500
29.983333	1	-0.855625
30.000000	1	-0.803000
30.016667	1	-0.750500
30.033333	1	-0.698625
30.050000	1	-0.647750
30.066667	1	-0.598375
30.083333	1	-0.550375
30.100000	1	-0.503500
30.116667	1	-0.458750
30.133333	1	-0.416250
30.150000	1	-0.376375
30.166667	1	-0.339125
30.183333	1	-0.303625
30.200000	1	-0.270375
30.216667	1	-0.239875
30.233333	1	-0.211375
30.250000	1	-0.185000
30.266667	1	-0.160750
30.283333	1	-0.139250
30.300000	1	-0.119375
30.316667	1	-0.101625
30.333333	1	-0.086250
30.350000	1	-0.072000
30.366667	1	-0.058875
30.383333	1	-0.046750
30.400000	1	-0.036375
30.416667	1	-0.026250
30.433333	1	-0.017250
30.450000	1	-0.008875
30.466667	1	-0.001250
30.483333	1	0.006625
30.500000	1	0.014375
30.516667	1	0.021625
30.533333	1	0.029000
30.550000	1	0.037125
30.566667	1	0.045750
30.583333	1	0.055250
30.600000	1	0.065125
30.616667	1	0.076250
30.633333	1	0.088250
30.650000	1	0.101500
30.666667	1	0.116375
30.683333	1	0.133625
30.700000	1	0.152375
30.716667	1	0.173750
30.733333	1	0.196625
30.750000	1	0.222500
30.766667	1	0.252375
30.783333	1	0.285250
30.800000	1	0.322125
30.816667	1	0.363500
30.833333	1	0.409875
30.850000	1	0.462625
30.866667	1	0.521000
30.883333	1	0.585625
30.900000	1	0.657750
30.916667	1	0.738375
30.933333	1	0.827000
30.950000	1	0.925500
30.966667	1	1.034000
30.983333	1	1.153750
31.000000	1	1.284375
31.016667	1	1.427625
31.033333	1	1.583750
31.050000	1	1.753375
31.066667	1	1.936625
31.083333	1	2.133250
31.100000	1	2.343375
31.116667	1	2.566250
31.133333	1	2.801500
31.150000	1	3.048375
31.166667	1	3.306125
31.183333	1	3.573125
31.200000	1	3.849000
31.216667	1	4.130625
31.233333	1	4.416375
31.250000	1	4.703000
31.266667	1	4.987375
31.283333	1	5.267000
31.300000	1	5.538750
31.316667	1	5.800125
31.333333	1	6.046750
31.350000	1	6.276625
31.366667	1	6.486500
31.383333	1	6.673625
31.400000	1	6.836250
31.416667	1	6.971000
31.433333	1	7.076750
31.450000	1	7.152375
31.466667	1	7.195375
31.483333	1	7.206750
31.500000	1	7.185500
31.516667	1	7.131500
31.533333	1	7.047625
31.550000	1	6.934500
31.566667	1	6.793125
31.583333	1	6.626375
31.600000	1	6.435500
31.616667	1	6.223250
31.633333	1	5.993250
31.650000	1	5.747875
31.666667	1	5.491375
31.683333	1	5.225250
31.700000	1	4.953875
31.716667	1	4.677875
31.733333	1	4.401750
31.750000	1	4.126875
31.766667	1	3.856000
31.783333	1	3.590625
31.800000	1	3.332750
31.816667	1	3.083625
31.833333	1	2.844625
31.850000	1	2.616500
31.866667	1	2.400500
31.883333	1	2.196625
31.900000	1	2.005625
31.916667	1	1.827750
31.933333	1	1.662625
31.950000	1	1.509875
31.966667	1	1.368625
31.983333	1	1.239250
32.000000	1	1.120125
32.016667	1	1.012125
32.033333	1	0.913375
32.050000	1	0.823750
32.066667	1	0.743000
32.083333	1	0.669500
32.100000	1	0.603750
32.116667	1	0.544625
32.133333	1	0.491750
32.150000	1	0.444375
32.166667	1	0.402250
32.183333	1	0.363750
32.200000	1	0.329125
32.216667	1	0.298500
32.233333	1	0.271875
32.250000	1	0.246875
32.266667	1	0.225000
32.283333	1	0.204875
32.300000	1	0.187500
32.316667	1	0.172500
32.333333	1	0.159125
32.350000	1	0.146125
32.366667	1	0.134625
32.383333	1	0.124625
32.400000	1	0.115000
32.416667	1	0.106125
32.433333	1	0.098375
32.450000	1	0.091625
32.466667	1	0.084750
32.483333	1	0.078875
32.500000	1	0.072625
32.516667	1	0.066750
32.533333	1	0.062375
32.550000	1	0.058250
32.566667	1	0.054250
32.583333	1	0.050000
32.600000	1	0.046500
32.616667	1	0.042750
32.633333	1	0.038875
32.650000	1	0.035875
32.666667	1	0.032125
32.683333	1	0.028625
32.700000	1	0.024625
32.716667	1	0.021500
32.733333	1	0.018125
32.750000	1	0.014375
32.766667	1	0.011125
32.783333	1	0.008125
32.800000	1	0.004375
32.816667	1	0.000875
32.833333	1	-0.002875
32.850000	1	-0.006250
32.866667	1	-0.009875
32.883333	1	-0.013625
32.900000	1	-0.017750
32.916667	1	-0.021000
32.933333	1	-0.024500
32.950000	1	-0.027250
32.966667	1	-0.030250
32.983333	1	-0.033125
33.000000	1	-0.035625
33.016667	1	-0.038000
33.033333	1	-0.040000
33.050000	1	-0.042250
33.066667	1	-0.044250
33.083333	1	-0.046000
33.100000	1	-0.047000
33.116667	1	-0.048375
33.133333	1	-0.049375
33.150000	1	-0.049750
33.166667	1	-0.049875
33.183333	1	-0.050125
33.200000	1	-0.049125
33.216667	1	-0.048375
33.233333	1	-0.047250
33.250000	1	-0.045750
33.266667	1	-0.044250
33.283333	1	-0.042500
33.300000	1	-0.040250
33.316667	1	-0.038000
33.333333	1	-0.036250
33.350000	1	-0.034250
33.366667	1	-0.031625
33.383333	1	-0.029500
33.400000	1	-0.026625
33.416667	1	-0.023500
33.433333	1	-0.020250
33.450000	1	-0.017750
33.466667	1	-0.014750
33.483333	1	-0.012625
33.500000	1	-0.009625
33.516667	1	-0.006875
33.533333	1	-0.004125
33.550000	1	-0.001375
33.566667	1	0.001250
33.583333	1	0.004250
33.600000	1	0.007250
33.616667	1	0.009625
33.633333	1	0.013250
33.650000	1	0.015625
33.666667	1	0.017750
33.683333	1	0.020500
33.700000	1	0.023125
33.716667	1	0.025875
33.733333	1	0.029500
33.750000	1	0.031500
33.766667	1	0.034125
33.783333	1	0.037375
33.800000	1	0.040125
33.816667	1	0.043375
33.833333	1	0.046250
33.850000	1	0.049625
33.866667	1	0.052750
33.883333	1	0.056000
33.900000	1	0.059000
33.916667	1	0.062500
33.933333	1	0.065625
33.950000	1	0.068625
33.966667	1	0.072250
33.983333	1	0.075000
34.000000	1	0.078125
34.016667	1	0.081250
34.033333	1	0.083875
34.050000	1	0.086750
34.066667	1	0.090000
34.083333	1	0.092875
34.100000	1	0.095500
34.116667	1	0.098125
34.133333	1	0.100500
34.150000	1	0.103125
34.166667	1	0.105250
34.183333	1	0.107750
34.200000	1	0.109750
34.216667	1	0.111875
34.233333	1	0.113625
34.250000	1	0.115875
34.266667	1	0.118250
34.283333	1	0.119875
34.300000	1	0.121500
34.316667	1	0.122875
34.333333	1	0.123875
34.350000	1	0.125875
34.366667	1	0.127875
34.383333	1	0.129625
34.400000	1	0.130250
34.416667	1	0.130875
34.433333	1	0.132250
34.450000	1	0.133125
34.466667	1	0.133375
34.483333	1	0.133375
34.500000	1	0.133875
34.516667	1	0.134625
34.533333	1	0.135250
34.550000	1	0.134625
34.566667	1	0.134250
34.583333	1	0.134250
34.600000	1	0.133875
34.616667	1	0.133000
34.633333	1	0.131500
34.650000	1	0.129625
34.666667	1	0.128000
34.683333	1	0.126875
34.700000	1	0.124625
34.716667	1	0.123250
34.733333	1	0.121250
34.750000	1	0.119375
34.766667	1	0.117500
34.783333	1	0.114500
34.800000	1	0.112625
34.816667	1	0.110750
34.833333	1	0.108000
34.850000	1	0.105625
34.866667	1	0.102375
34.883333	1	0.099750
34.900000	1	0.097000
34.916667	1	0.094875
34.933333	1	0.093250
34.950000	1	0.090875
34.966667	1	0.089500
34.983333	1	0.087750
35.000000	1	0.085750
35.016667	1	0.084125
35.033333	1	0.083500
35.050000	1	0.082375
35.066667	1	0.081750
35.083333	1	0.081375
35.100000	1	0.081875
35.116667	1	0.081750
35.133333	1	0.081625
35.150000	1	0.080875
35.166667	1	0.081625
35.183333	1	0.082500
35.200000	1	0.083125
35.216667	1	0.083875
35.233333	1	0.085375
35.250000	1	0.086750
35.266667	1	0.088750
35.283333	1	0.090125
35.300000	1	0.091625
35.316667	1	0.093250
35.333333	1	0.095375
35.350000	1	0.096625
35.366667	1	0.098375
35.383333	1	0.100000
35.400000	1	0.100875
35.416667	1	0.101750
35.433333	1	0.102000
35.450000	1	0.102750
35.466667	1	0.103000
35.483333	1	0.103625
35.500000	1	0.104375
35.516667	1	0.104875
35.533333	1	0.104125
35.550000	1	0.104375
35.566667	1	0.104250
35.583333	1	0.103750
35.600000	1	0.103500
35.616667	1	0.103125
35.633333	1	0.103250
35.650000	1	0.103000
35.666667	1	0.102000
35.683333	1	0.101875
35.700000	1	0.101875
35.716667	1	0.101625
35.733333	1	0.101625
35.750000	1	0.101875
35.766667	1	0.102000
35.783333	1	0.102750
35.800000	1	0.103125
35.816667	1	0.103500
35.833333	1	0.103250
35.850000	1	0.103125
35.866667	1	0.104000
35.883333	1	0.105000
35.900000	1	0.106250
35.916667	1	0.107125
35.933333	1	0.108500
35.950000	1	0.109750
35.966667	1	0.111375
35.983333	1	0.112375
36.000000	1	0.113875
36.016667	1	0.115000
36.033333	1	0.116125
36.050000	1	0.117125
36.066667	1	0.118750
36.083333	1	0.119750
36.100000	1	0.120875
36.116667	1	0.121750
36.133333	1	0.123000
36.150000	1	0.124125
36.166667	1	0.125125
36.183333	1	0.126125
36.200000	1	0.126125
36.216667	1	0.126375
36.233333	1	0.126625
36.250000	1	0.127500
36.266667	1	0.127625
36.283333	1	0.126750
36.300000	1	0.126250
36.316667	1	0.125375
36.333333	1	0.124625
36.350000	1	0.123000
36.366667	1	0.121500
36.383333	1	0.120125
36.400000	1	0.117750
36.416667	1	0.115375
36.433333	1	0.112750
36.450000	1	0.109750
36.466667	1	0.106500
36.483333	1	0.103250
36.500000	1	0.099625
36.516667	1	0.096250
36.533333	1	0.092375
36.550000	1	0.087750
36.566667	1	0.083375
36.583333	1	0.079125
36.600000	1	0.073875
36.616667	1	0.068750
36.633333	1	0.063500
36.650000	1	0.058250
36.666667	1	0.053500
36.683333	1	0.048250
36.700000	1	0.042875
36.716667	1	0.039000
36.733333	1	0.034500
36.750000	1	0.030375
36.766667	1	0.026250
36.783333	1	0.022250
36.800000	1	0.018375
36.816667	1	0.014500
36.833333	1	0.011250
36.850000	1	0.007875
36.866667	1	0.005625
36.883333	1	0.003625
36.900000	1	0.001500
36.916667	1	-0.000125
36.933333	1	-0.002000
36.950000	1	-0.002750
36.966667	1	-0.003375
36.983333	1	-0.003250
37.000000	1	-0.003625
37.016667	1	-0.003750
37.033333	1	-0.004375
37.050000	1	-0.004375
37.066667	1	-0.002625
37.083333	1	-0.001875
37.100000	1	-0.001125
37.116667	1	-0.000500
37.133333	1	0.000375
37.150000	1	0.001750
37.166667	1	0.002875
37.183333	1	0.004375
37.200000	1	0.005625
37.216667	1	0.006875
37.233333	1	0.007875
37.250000	1	0.009000
37.266667	1	0.010250
37.283333	1	0.011750
37.300000	1	0.013375
37.316667	1	0.014250
37.333333	1	0.015375
37.350000	1	0.016875
37.366667	1	0.017875
37.383333	1	0.019000
37.400000	1	0.020000
37.416667	1	0.020750
37.433333	1	0.021500
37.450000	1	0.022250
37.466667	1	0.023000
37.483333	1	0.023500
37.500000	1	0.023500
37.516667	1	0.024125
37.533333	1	0.024250
37.550000	1	0.024125
37.566667	1	0.024625
37.583333	1	0.024250
37.600000	1	0.024125
37.616667	1	0.024250
37.633333	1	0.023875
37.650000	1	0.024000
37.666667	1	0.024000
37.683333	1	0.024000
37.700000	1	0.024000
37.716667	1	0.024000
37.733333	1	0.023875
37.750000	1	0.024375
37.766667	1	0.024125
37.783333	1	0.024250
37.800000	1	0.024625
37.816667	1	0.024875
37.833333	1	0.025250
37.850000	1	0.025625
37.866667	1	0.026250
37.883333	1	0.027375
37.900000	1	0.028875
37.916667	1	0.029375
37.933333	1	0.030375
37.950000	1	0.031375
37.966667	1	0.032250
37.983333	1	0.033125
38.000000	1	0.033750
38.016667	1	0.034500
38.033333	1	0.035375
38.050000	1	0.035875
38.066667	1	0.037000
38.083333	1	0.037625
38.100000	1	0.038250
38.116667	1	0.037625
38.133333	1	0.036875
38.150000	1	0.036500
38.166667	1	0.035750
38.183333	1	0.035000
38.200000	1	0.033875
38.216667	1	0.032500
38.233333	1	0.031250
38.250000	1	0.030250
38.266667	1	0.028500
38.283333	1	0.026375
38.300000	1	0.024750
38.316667	1	0.022750
38.333333	1	0.020375
38.350000	1	0.018375
38.366667	1	0.017000
38.383333	1	0.015500
38.400000	1	0.013875
38.416667	1	0.012250
38.433333	1	0.010875
38.450000	1	0.009250
38.466667	1	0.008250
38.483333	1	0.007375
38.500000	1	0.006625
38.516667	1	0.006125
38.533333	1	0.005250
38.550000	1	0.005250
38.566667	1	0.005000
38.583333	1	0.005250
38.600000	1	0.005625
38.616667	1	0.004875
38.633333	1	0.004875
38.650000	1	0.005625
38.666667	1	0.006250
38.683333	1	0.006500
38.700000	1	0.006875
38.716667	1	0.007250
38.733333	1	0.007375
38.750000	1	0.007375
38.766667	1	0.007625
38.783333	1	0.007125
38.800000	1	0.007625
38.816667	1	0.007000
38.833333	1	0.006375
38.850000	1	0.006500
38.866667	1	0.006000
38.883333	1	0.004875
38.900000	1	0.004500
38.916667	1	0.003500
38.933333	1	0.002375
38.950000	1	0.001000
38.966667	1	-0.000500
38.983333	1	-0.001500
39.000000	1	-0.003250
39.016667	1	-0.004500
39.033333	1	-0.006250
39.050000	1	-0.008500
39.066667	1	-0.010375
39.083333	1	-0.011750
39.100000	1	-0.013250
39.116667	1	-0.014000
39.133333	1	-0.015500
39.150000	1	-0.016750
39.166667	1	-0.018125
39.183333	1	-0.019500
39.200000	1	-0.021000
39.216667	1	-0.022000
39.233333	1	-0.022500
39.250000	1	-0.022875
39.266667	1	-0.023750
39.283333	1	-0.023625
39.300000	1	-0.023500
39.316667	1	-0.024125
39.333333	1	-0.024250
39.350000	1	-0.023750
39.366667	1	-0.023250
39.383333	1	-0.022250
39.400000	1	-0.021500
39.416667	1	-0.021250
39.433333	1	-0.020375
39.450000	1	-0.019250
39.466667	1	-0.017625
39.483333	1	-0.016750
39.500000	1	-0.015750
39.516667	1	-0.014375
39.533333	1	-0.013625
39.550000	1	-0.012625
39.566667	1	-0.011500
39.583333	1	-0.010375
39.600000	1	-0.009750
39.616667	1	-0.008750
39.633333	1	-0.008375
39.650000	1	-0.008000
39.666667	1	-0.007625
39.683333	1	-0.007750
39.700000	1	-0.008125
39.716667	1	-0.007875
39.733333	1	-0.008125
39.750000	1	-0.008875
39.766667	1	-0.009625
39.783333	1	-0.010750
39.800000	1	-0.011500
39.816667	1	-0.012375
39.833333	1	-0.014125
39.850000	1	-0.015750
39.866667	1	-0.016750
39.883333	1	-0.017375
39.900000	1	-0.019000
39.916667	1	-0.020500
39.933333	1	-0.022000
39.950000	1	-0.023125
39.966667	1	-0.024625
39.983333	1	-0.026000
40.000000	1	-0.027500
