URL	chrom://bioreactor/micro_cm7/HPLC_Ultimate_3000/Users/markusar/20240727_MA_EsirYCA.seq/118.smp/RI_1.channel/RI_1.chm
Channel	RI_1

Injection Information:
Data Vault	micro_cm7
Sequence	20240727_MA_EsirYCA
Name	Es1_3
Number	4
Position	BA4
Comment	
Processing Method	
Instrument Method	run_25B_method
Type	Unknown
Status	Finished
Inject Time	29.07.2024 15:40:34 +02:00
Volume (µl)	20.0000
Dilution Factor	1.0000
Weight	1.0000

Chromatogram Data Information:
Time Min. (min)	0.000000
Time Max. (min)	40.000000
Data Points	2401
Detector	RI
Generating Data System	Chromeleon 7.3.2.11814
Exporting Data System	Chromeleon 7.3.2.0
Operator	Instrument Controller
Signal Quantity	Refractive 
Signal Unit	µRIU
Signal Min.	-1.224250
Signal Max.	61.405375
Channel	RI_1
Driver Name	RID520Driver.dll
Channel Type	Evaluation
Min. Step (s)	1
Max. Step (s)	1
Average Step (s)	1

Signal Parameter Information:
Signal Info	

Chromatogram Data:
Time (min)	Step (s)	Value (µRIU)
0.000000	n.a.	0.057250
0.016667	1	0.057375
0.033333	1	0.056625
0.050000	1	0.056625
0.066667	1	0.056125
0.083333	1	0.056000
0.100000	1	0.055250
0.116667	1	0.055000
0.133333	1	0.055250
0.150000	1	0.054750
0.166667	1	0.054125
0.183333	1	0.053500
0.200000	1	0.052875
0.216667	1	0.052000
0.233333	1	0.051625
0.250000	1	0.051625
0.266667	1	0.050875
0.283333	1	0.050500
0.300000	1	0.050125
0.316667	1	0.049625
0.333333	1	0.048875
0.350000	1	0.047625
0.366667	1	0.046500
0.383333	1	0.045250
0.400000	1	0.043875
0.416667	1	0.043125
0.433333	1	0.043125
0.450000	1	0.044125
0.466667	1	0.045000
0.483333	1	0.045625
0.500000	1	0.045500
0.516667	1	0.046125
0.533333	1	0.045250
0.550000	1	0.044625
0.566667	1	0.042500
0.583333	1	0.039375
0.600000	1	0.035375
0.616667	1	0.031625
0.633333	1	0.028500
0.650000	1	0.026000
0.666667	1	0.023875
0.683333	1	0.022500
0.700000	1	0.020375
0.716667	1	0.018375
0.733333	1	0.017000
0.750000	1	0.014875
0.766667	1	0.012875
0.783333	1	0.010875
0.800000	1	0.009875
0.816667	1	0.008375
0.833333	1	0.006125
0.850000	1	0.004875
0.866667	1	0.003750
0.883333	1	0.002625
0.900000	1	0.001000
0.916667	1	0.000500
0.933333	1	-0.000250
0.950000	1	-0.001875
0.966667	1	-0.002750
0.983333	1	-0.003125
1.000000	1	-0.003875
1.016667	1	-0.004125
1.033333	1	-0.004250
1.050000	1	-0.004750
1.066667	1	-0.004875
1.083333	1	-0.004375
1.100000	1	-0.005000
1.116667	1	-0.004750
1.133333	1	-0.005625
1.150000	1	-0.006125
1.166667	1	-0.005750
1.183333	1	-0.005625
1.200000	1	-0.005250
1.216667	1	-0.005375
1.233333	1	-0.005375
1.250000	1	-0.005250
1.266667	1	-0.005375
1.283333	1	-0.005000
1.300000	1	-0.005000
1.316667	1	-0.004375
1.333333	1	-0.005250
1.350000	1	-0.005500
1.366667	1	-0.006500
1.383333	1	-0.006750
1.400000	1	-0.006500
1.416667	1	-0.006500
1.433333	1	-0.007000
1.450000	1	-0.007500
1.466667	1	-0.008125
1.483333	1	-0.009125
1.500000	1	-0.010000
1.516667	1	-0.010625
1.533333	1	-0.011875
1.550000	1	-0.012250
1.566667	1	-0.012000
1.583333	1	-0.012875
1.600000	1	-0.013000
1.616667	1	-0.013875
1.633333	1	-0.014000
1.650000	1	-0.014500
1.666667	1	-0.015125
1.683333	1	-0.016375
1.700000	1	-0.017750
1.716667	1	-0.019250
1.733333	1	-0.019875
1.750000	1	-0.020750
1.766667	1	-0.022000
1.783333	1	-0.022875
1.800000	1	-0.024625
1.816667	1	-0.025250
1.833333	1	-0.027125
1.850000	1	-0.028750
1.866667	1	-0.030500
1.883333	1	-0.032500
1.900000	1	-0.034500
1.916667	1	-0.036250
1.933333	1	-0.038375
1.950000	1	-0.040250
1.966667	1	-0.041250
1.983333	1	-0.043125
2.000000	1	-0.044625
2.016667	1	-0.046250
2.033333	1	-0.048125
2.050000	1	-0.049625
2.066667	1	-0.051250
2.083333	1	-0.052500
2.100000	1	-0.054625
2.116667	1	-0.056625
2.133333	1	-0.057625
2.150000	1	-0.058375
2.166667	1	-0.059125
2.183333	1	-0.060000
2.200000	1	-0.060500
2.216667	1	-0.060750
2.233333	1	-0.060500
2.250000	1	-0.061375
2.266667	1	-0.061375
2.283333	1	-0.060750
2.300000	1	-0.060500
2.316667	1	-0.060250
2.333333	1	-0.060500
2.350000	1	-0.059375
2.366667	1	-0.058750
2.383333	1	-0.057500
2.400000	1	-0.056125
2.416667	1	-0.054875
2.433333	1	-0.053375
2.450000	1	-0.051625
2.466667	1	-0.049750
2.483333	1	-0.048875
2.500000	1	-0.047000
2.516667	1	-0.044500
2.533333	1	-0.043000
2.550000	1	-0.041000
2.566667	1	-0.039125
2.583333	1	-0.036625
2.600000	1	-0.034375
2.616667	1	-0.032375
2.633333	1	-0.030500
2.650000	1	-0.028000
2.666667	1	-0.026375
2.683333	1	-0.024625
2.700000	1	-0.022875
2.716667	1	-0.021625
2.733333	1	-0.019875
2.750000	1	-0.018625
2.766667	1	-0.017500
2.783333	1	-0.016500
2.800000	1	-0.015250
2.816667	1	-0.013750
2.833333	1	-0.013250
2.850000	1	-0.012500
2.866667	1	-0.011500
2.883333	1	-0.010375
2.900000	1	-0.009125
2.916667	1	-0.008500
2.933333	1	-0.007000
2.950000	1	-0.006750
2.966667	1	-0.005750
2.983333	1	-0.004375
3.000000	1	-0.003375
3.016667	1	-0.001875
3.033333	1	-0.000500
3.050000	1	0.000375
3.066667	1	0.002000
3.083333	1	0.003625
3.100000	1	0.005500
3.116667	1	0.007250
3.133333	1	0.009125
3.150000	1	0.011250
3.166667	1	0.012625
3.183333	1	0.014875
3.200000	1	0.016875
3.216667	1	0.019125
3.233333	1	0.021250
3.250000	1	0.023500
3.266667	1	0.025625
3.283333	1	0.027875
3.300000	1	0.030375
3.316667	1	0.032375
3.333333	1	0.034500
3.350000	1	0.036750
3.366667	1	0.038875
3.383333	1	0.041000
3.400000	1	0.043875
3.416667	1	0.046125
3.433333	1	0.048375
3.450000	1	0.050625
3.466667	1	0.052750
3.483333	1	0.055125
3.500000	1	0.057000
3.516667	1	0.058875
3.533333	1	0.060500
3.550000	1	0.062250
3.566667	1	0.064375
3.583333	1	0.065750
3.600000	1	0.067125
3.616667	1	0.068125
3.633333	1	0.069375
3.650000	1	0.071375
3.666667	1	0.073625
3.683333	1	0.074750
3.700000	1	0.076250
3.716667	1	0.077125
3.733333	1	0.079000
3.750000	1	0.080875
3.766667	1	0.082375
3.783333	1	0.083625
3.800000	1	0.085375
3.816667	1	0.087000
3.833333	1	0.089250
3.850000	1	0.090875
3.866667	1	0.092500
3.883333	1	0.095000
3.900000	1	0.097250
3.916667	1	0.099250
3.933333	1	0.101000
3.950000	1	0.102625
3.966667	1	0.104000
3.983333	1	0.106375
4.000000	1	0.108125
4.016667	1	0.110125
4.033333	1	0.112000
4.050000	1	0.114125
4.066667	1	0.115625
4.083333	1	0.117250
4.100000	1	0.119250
4.116667	1	0.121000
4.133333	1	0.122125
4.150000	1	0.123750
4.166667	1	0.124625
4.183333	1	0.125625
4.200000	1	0.126125
4.216667	1	0.127375
4.233333	1	0.129000
4.250000	1	0.130750
4.266667	1	0.131750
4.283333	1	0.132250
4.300000	1	0.133375
4.316667	1	0.134125
4.333333	1	0.134500
4.350000	1	0.136125
4.366667	1	0.137875
4.383333	1	0.139250
4.400000	1	0.141000
4.416667	1	0.142000
4.433333	1	0.142875
4.450000	1	0.144000
4.466667	1	0.145000
4.483333	1	0.145875
4.500000	1	0.147250
4.516667	1	0.148000
4.533333	1	0.149250
4.550000	1	0.150500
4.566667	1	0.152125
4.583333	1	0.153500
4.600000	1	0.155000
4.616667	1	0.155625
4.633333	1	0.157000
4.650000	1	0.158500
4.666667	1	0.159750
4.683333	1	0.160750
4.700000	1	0.161625
4.716667	1	0.162250
4.733333	1	0.163125
4.750000	1	0.163500
4.766667	1	0.164125
4.783333	1	0.165000
4.800000	1	0.165500
4.816667	1	0.165500
4.833333	1	0.166125
4.850000	1	0.166625
4.866667	1	0.167000
4.883333	1	0.167500
4.900000	1	0.167375
4.916667	1	0.167375
4.933333	1	0.167500
4.950000	1	0.167375
4.966667	1	0.168125
4.983333	1	0.168250
5.000000	1	0.168875
5.016667	1	0.168875
5.033333	1	0.169500
5.050000	1	0.169750
5.066667	1	0.170250
5.083333	1	0.170625
5.100000	1	0.171250
5.116667	1	0.171875
5.133333	1	0.172250
5.150000	1	0.172750
5.166667	1	0.173750
5.183333	1	0.174125
5.200000	1	0.174250
5.216667	1	0.174750
5.233333	1	0.175125
5.250000	1	0.175625
5.266667	1	0.175750
5.283333	1	0.176125
5.300000	1	0.175875
5.316667	1	0.176250
5.333333	1	0.176750
5.350000	1	0.176625
5.366667	1	0.176500
5.383333	1	0.176250
5.400000	1	0.175500
5.416667	1	0.175500
5.433333	1	0.174250
5.450000	1	0.173625
5.466667	1	0.171750
5.483333	1	0.170375
5.500000	1	0.168750
5.516667	1	0.167250
5.533333	1	0.165250
5.550000	1	0.162625
5.566667	1	0.161000
5.583333	1	0.158500
5.600000	1	0.155750
5.616667	1	0.153000
5.633333	1	0.150375
5.650000	1	0.147750
5.666667	1	0.145000
5.683333	1	0.141750
5.700000	1	0.139250
5.716667	1	0.135750
5.733333	1	0.133375
5.750000	1	0.130500
5.766667	1	0.128250
5.783333	1	0.126250
5.800000	1	0.123250
5.816667	1	0.120375
5.833333	1	0.118125
5.850000	1	0.115250
5.866667	1	0.113250
5.883333	1	0.110750
5.900000	1	0.108250
5.916667	1	0.105750
5.933333	1	0.103125
5.950000	1	0.101000
5.966667	1	0.098875
5.983333	1	0.097250
6.000000	1	0.095250
6.016667	1	0.093000
6.033333	1	0.091125
6.050000	1	0.089250
6.066667	1	0.087125
6.083333	1	0.085750
6.100000	1	0.084750
6.116667	1	0.082875
6.133333	1	0.081000
6.150000	1	0.079875
6.166667	1	0.078500
6.183333	1	0.077500
6.200000	1	0.076250
6.216667	1	0.075125
6.233333	1	0.074500
6.250000	1	0.074625
6.266667	1	0.073625
6.283333	1	0.073750
6.300000	1	0.073750
6.316667	1	0.074625
6.333333	1	0.075250
6.350000	1	0.075500
6.366667	1	0.076625
6.383333	1	0.077500
6.400000	1	0.078500
6.416667	1	0.079500
6.433333	1	0.080750
6.450000	1	0.082125
6.466667	1	0.084500
6.483333	1	0.086375
6.500000	1	0.088375
6.516667	1	0.089750
6.533333	1	0.092375
6.550000	1	0.094875
6.566667	1	0.097375
6.583333	1	0.100375
6.600000	1	0.103000
6.616667	1	0.105750
6.633333	1	0.108375
6.650000	1	0.110875
6.666667	1	0.113250
6.683333	1	0.115500
6.700000	1	0.117875
6.716667	1	0.120375
6.733333	1	0.123125
6.750000	1	0.126000
6.766667	1	0.128625
6.783333	1	0.131250
6.800000	1	0.133750
6.816667	1	0.136375
6.833333	1	0.138750
6.850000	1	0.142125
6.866667	1	0.144375
6.883333	1	0.147000
6.900000	1	0.148875
6.916667	1	0.151375
6.933333	1	0.152875
6.950000	1	0.155000
6.966667	1	0.157125
6.983333	1	0.159250
7.000000	1	0.160500
7.016667	1	0.161750
7.033333	1	0.162625
7.050000	1	0.163500
7.066667	1	0.164625
7.083333	1	0.165625
7.100000	1	0.166000
7.116667	1	0.166500
7.133333	1	0.167000
7.150000	1	0.167125
7.166667	1	0.166625
7.183333	1	0.165375
7.200000	1	0.164250
7.216667	1	0.163250
7.233333	1	0.161625
7.250000	1	0.159500
7.266667	1	0.156750
7.283333	1	0.153875
7.300000	1	0.151750
7.316667	1	0.148625
7.333333	1	0.144875
7.350000	1	0.140625
7.366667	1	0.136500
7.383333	1	0.132125
7.400000	1	0.128250
7.416667	1	0.123625
7.433333	1	0.118875
7.450000	1	0.114125
7.466667	1	0.110000
7.483333	1	0.105125
7.500000	1	0.100375
7.516667	1	0.095375
7.533333	1	0.090750
7.550000	1	0.086250
7.566667	1	0.081875
7.583333	1	0.077250
7.600000	1	0.072625
7.616667	1	0.068000
7.633333	1	0.063500
7.650000	1	0.059375
7.666667	1	0.054500
7.683333	1	0.050250
7.700000	1	0.046875
7.716667	1	0.043750
7.733333	1	0.040625
7.750000	1	0.037500
7.766667	1	0.034625
7.783333	1	0.032125
7.800000	1	0.029250
7.816667	1	0.026625
7.833333	1	0.024500
7.850000	1	0.022250
7.866667	1	0.020125
7.883333	1	0.018375
7.900000	1	0.017125
7.916667	1	0.015375
7.933333	1	0.014250
7.950000	1	0.012375
7.966667	1	0.011125
7.983333	1	0.009875
8.000000	1	0.009000
8.016667	1	0.007625
8.033333	1	0.006875
8.050000	1	0.006000
8.066667	1	0.005000
8.083333	1	0.004250
8.100000	1	0.003375
8.116667	1	0.002875
8.133333	1	0.002250
8.150000	1	0.001750
8.166667	1	0.000875
8.183333	1	0.000000
8.200000	1	-0.000250
8.216667	1	-0.000375
8.233333	1	-0.001000
8.250000	1	-0.001375
8.266667	1	-0.001250
8.283333	1	-0.001500
8.300000	1	-0.001750
8.316667	1	-0.001625
8.333333	1	-0.001625
8.350000	1	-0.001250
8.366667	1	-0.001375
8.383333	1	-0.001500
8.400000	1	-0.001375
8.416667	1	-0.001375
8.433333	1	-0.001000
8.450000	1	-0.000875
8.466667	1	-0.000875
8.483333	1	-0.000750
8.500000	1	-0.000625
8.516667	1	-0.000500
8.533333	1	0.000125
8.550000	1	0.001250
8.566667	1	0.002250
8.583333	1	0.003250
8.600000	1	0.004250
8.616667	1	0.005125
8.633333	1	0.005625
8.650000	1	0.006875
8.666667	1	0.008375
8.683333	1	0.010000
8.700000	1	0.011750
8.716667	1	0.012625
8.733333	1	0.013875
8.750000	1	0.015875
8.766667	1	0.017750
8.783333	1	0.019375
8.800000	1	0.021250
8.816667	1	0.022500
8.833333	1	0.024375
8.850000	1	0.026750
8.866667	1	0.028500
8.883333	1	0.030625
8.900000	1	0.033375
8.916667	1	0.036375
8.933333	1	0.038875
8.950000	1	0.040625
8.966667	1	0.042875
8.983333	1	0.045125
9.000000	1	0.046875
9.016667	1	0.049250
9.033333	1	0.051125
9.050000	1	0.053125
9.066667	1	0.054750
9.083333	1	0.056625
9.100000	1	0.058500
9.116667	1	0.059625
9.133333	1	0.061125
9.150000	1	0.062750
9.166667	1	0.064125
9.183333	1	0.064750
9.200000	1	0.065375
9.216667	1	0.066375
9.233333	1	0.067000
9.250000	1	0.067125
9.266667	1	0.067625
9.283333	1	0.067750
9.300000	1	0.067625
9.316667	1	0.067250
9.333333	1	0.066750
9.350000	1	0.066250
9.366667	1	0.065750
9.383333	1	0.064625
9.400000	1	0.062750
9.416667	1	0.061250
9.433333	1	0.059875
9.450000	1	0.058375
9.466667	1	0.056625
9.483333	1	0.055000
9.500000	1	0.054250
9.516667	1	0.052625
9.533333	1	0.050750
9.550000	1	0.048750
9.566667	1	0.046750
9.583333	1	0.044750
9.600000	1	0.043000
9.616667	1	0.041250
9.633333	1	0.039375
9.650000	1	0.037625
9.666667	1	0.036500
9.683333	1	0.034875
9.700000	1	0.033625
9.716667	1	0.031750
9.733333	1	0.030250
9.750000	1	0.029000
9.766667	1	0.027625
9.783333	1	0.026375
9.800000	1	0.024750
9.816667	1	0.023250
9.833333	1	0.022125
9.850000	1	0.020750
9.866667	1	0.019625
9.883333	1	0.018000
9.900000	1	0.016625
9.916667	1	0.015000
9.933333	1	0.013500
9.950000	1	0.012250
9.966667	1	0.011125
9.983333	1	0.009750
10.000000	1	0.008875
10.016667	1	0.007750
10.033333	1	0.006625
10.050000	1	0.006250
10.066667	1	0.006500
10.083333	1	0.007125
10.100000	1	0.008750
10.116667	1	0.011625
10.133333	1	0.014625
10.150000	1	0.019000
10.166667	1	0.024250
10.183333	1	0.030250
10.200000	1	0.038375
10.216667	1	0.047250
10.233333	1	0.057875
10.250000	1	0.070750
10.266667	1	0.084750
10.283333	1	0.101000
10.300000	1	0.119875
10.316667	1	0.141625
10.333333	1	0.164625
10.350000	1	0.189625
10.366667	1	0.215875
10.383333	1	0.241875
10.400000	1	0.265875
10.416667	1	0.285875
10.433333	1	0.299750
10.450000	1	0.309875
10.466667	1	0.321625
10.483333	1	0.345375
10.500000	1	0.402250
10.516667	1	0.519875
10.533333	1	0.734750
10.550000	1	1.090750
10.566667	1	1.630875
10.583333	1	2.396750
10.600000	1	3.422750
10.616667	1	4.735125
10.633333	1	6.349875
10.650000	1	8.270125
10.666667	1	10.494500
10.683333	1	13.010125
10.700000	1	15.796000
10.716667	1	18.822125
10.733333	1	22.046250
10.750000	1	25.418500
10.766667	1	28.879500
10.783333	1	32.350500
10.800000	1	35.737625
10.816667	1	38.913625
10.833333	1	41.713625
10.850000	1	43.933500
10.866667	1	45.340875
10.883333	1	45.707750
10.900000	1	44.866125
10.916667	1	42.781000
10.933333	1	39.586250
10.950000	1	35.571000
10.966667	1	31.118875
10.983333	1	26.608000
11.000000	1	22.341000
11.016667	1	18.514000
11.033333	1	15.218750
11.050000	1	12.464625
11.066667	1	10.213250
11.083333	1	8.405000
11.100000	1	6.974000
11.116667	1	5.851875
11.133333	1	4.977500
11.150000	1	4.297625
11.166667	1	3.767250
11.183333	1	3.352500
11.200000	1	3.024125
11.216667	1	2.760625
11.233333	1	2.546500
11.250000	1	2.369875
11.266667	1	2.222125
11.283333	1	2.096375
11.300000	1	1.988500
11.316667	1	1.893375
11.333333	1	1.809250
11.350000	1	1.733875
11.366667	1	1.666250
11.383333	1	1.605125
11.400000	1	1.550750
11.416667	1	1.502125
11.433333	1	1.459125
11.450000	1	1.421000
11.466667	1	1.387625
11.483333	1	1.358000
11.500000	1	1.332375
11.516667	1	1.310000
11.533333	1	1.290250
11.550000	1	1.272875
11.566667	1	1.258500
11.583333	1	1.245250
11.600000	1	1.234375
11.616667	1	1.224250
11.633333	1	1.216250
11.650000	1	1.209250
11.666667	1	1.203000
11.683333	1	1.198000
11.700000	1	1.193250
11.716667	1	1.188750
11.733333	1	1.185500
11.750000	1	1.182375
11.766667	1	1.179875
11.783333	1	1.178125
11.800000	1	1.176625
11.816667	1	1.176375
11.833333	1	1.176625
11.850000	1	1.176750
11.866667	1	1.177750
11.883333	1	1.179750
11.900000	1	1.181000
11.916667	1	1.182500
11.933333	1	1.183875
11.950000	1	1.184375
11.966667	1	1.184625
11.983333	1	1.183875
12.000000	1	1.181750
12.016667	1	1.179000
12.033333	1	1.176750
12.050000	1	1.173375
12.066667	1	1.169875
12.083333	1	1.167000
12.100000	1	1.163875
12.116667	1	1.161500
12.133333	1	1.159125
12.150000	1	1.157500
12.166667	1	1.156375
12.183333	1	1.155750
12.200000	1	1.156500
12.216667	1	1.159125
12.233333	1	1.163500
12.250000	1	1.169625
12.266667	1	1.178750
12.283333	1	1.192250
12.300000	1	1.210750
12.316667	1	1.237625
12.333333	1	1.275375
12.350000	1	1.328000
12.366667	1	1.401125
12.383333	1	1.502250
12.400000	1	1.643375
12.416667	1	1.836375
12.433333	1	2.101125
12.450000	1	2.461125
12.466667	1	2.945875
12.483333	1	3.592250
12.500000	1	4.442375
12.516667	1	5.543375
12.533333	1	6.947250
12.550000	1	8.703500
12.566667	1	10.860875
12.583333	1	13.458625
12.600000	1	16.519625
12.616667	1	20.042250
12.633333	1	24.006125
12.650000	1	28.357875
12.666667	1	33.007875
12.683333	1	37.829750
12.700000	1	42.660875
12.716667	1	47.312625
12.733333	1	51.582000
12.750000	1	55.272750
12.766667	1	58.211875
12.783333	1	60.261375
12.800000	1	61.333875
12.816667	1	61.405375
12.833333	1	60.509625
12.850000	1	58.737625
12.866667	1	56.229125
12.883333	1	53.158750
12.900000	1	49.721125
12.916667	1	46.106500
12.933333	1	42.487250
12.950000	1	38.993875
12.966667	1	35.704250
12.983333	1	32.640500
13.000000	1	29.770750
13.016667	1	27.029500
13.033333	1	24.346000
13.050000	1	21.670750
13.066667	1	18.989125
13.083333	1	16.325125
13.100000	1	13.746750
13.116667	1	11.356500
13.133333	1	9.254125
13.150000	1	7.498125
13.166667	1	6.092000
13.183333	1	4.995500
13.200000	1	4.154500
13.216667	1	3.511500
13.233333	1	3.019125
13.250000	1	2.640625
13.266667	1	2.347625
13.283333	1	2.118375
13.300000	1	1.936750
13.316667	1	1.790375
13.333333	1	1.670625
13.350000	1	1.570625
13.366667	1	1.486250
13.383333	1	1.413750
13.400000	1	1.351250
13.416667	1	1.297125
13.433333	1	1.249750
13.450000	1	1.207875
13.466667	1	1.170625
13.483333	1	1.137625
13.500000	1	1.109000
13.516667	1	1.084375
13.533333	1	1.062625
13.550000	1	1.044625
13.566667	1	1.029250
13.583333	1	1.017250
13.600000	1	1.008000
13.616667	1	1.002250
13.633333	1	0.997000
13.650000	1	0.993625
13.666667	1	0.991875
13.683333	1	0.991875
13.700000	1	0.991375
13.716667	1	0.991875
13.733333	1	0.991000
13.750000	1	0.989625
13.766667	1	0.986625
13.783333	1	0.982875
13.800000	1	0.976250
13.816667	1	0.968000
13.833333	1	0.957250
13.850000	1	0.945125
13.866667	1	0.931625
13.883333	1	0.916375
13.900000	1	0.900375
13.916667	1	0.883875
13.933333	1	0.867125
13.950000	1	0.850750
13.966667	1	0.834375
13.983333	1	0.819500
14.000000	1	0.805250
14.016667	1	0.791375
14.033333	1	0.778500
14.050000	1	0.766250
14.066667	1	0.754875
14.083333	1	0.744125
14.100000	1	0.733500
14.116667	1	0.723875
14.133333	1	0.714375
14.150000	1	0.705625
14.166667	1	0.697125
14.183333	1	0.689500
14.200000	1	0.682375
14.216667	1	0.675625
14.233333	1	0.669750
14.250000	1	0.663875
14.266667	1	0.658375
14.283333	1	0.653000
14.300000	1	0.648500
14.316667	1	0.645500
14.333333	1	0.643000
14.350000	1	0.641375
14.366667	1	0.640875
14.383333	1	0.640625
14.400000	1	0.641375
14.416667	1	0.643625
14.433333	1	0.646875
14.450000	1	0.651125
14.466667	1	0.655375
14.483333	1	0.660875
14.500000	1	0.667250
14.516667	1	0.673500
14.533333	1	0.680625
14.550000	1	0.687125
14.566667	1	0.692875
14.583333	1	0.700000
14.600000	1	0.707625
14.616667	1	0.715375
14.633333	1	0.725125
14.650000	1	0.736875
14.666667	1	0.750750
14.683333	1	0.767625
14.700000	1	0.788375
14.716667	1	0.813750
14.733333	1	0.843125
14.750000	1	0.878000
14.766667	1	0.917500
14.783333	1	0.960250
14.800000	1	1.006875
14.816667	1	1.055125
14.833333	1	1.103250
14.850000	1	1.150375
14.866667	1	1.193375
14.883333	1	1.229750
14.900000	1	1.258500
14.916667	1	1.277125
14.933333	1	1.284625
14.950000	1	1.280375
14.966667	1	1.264125
14.983333	1	1.237375
15.000000	1	1.201000
15.016667	1	1.155750
15.033333	1	1.104750
15.050000	1	1.050250
15.066667	1	0.994875
15.083333	1	0.939250
15.100000	1	0.886625
15.116667	1	0.837375
15.133333	1	0.791500
15.150000	1	0.751750
15.166667	1	0.716500
15.183333	1	0.687250
15.200000	1	0.664000
15.216667	1	0.645625
15.233333	1	0.631625
15.250000	1	0.622250
15.266667	1	0.616625
15.283333	1	0.616125
15.300000	1	0.619375
15.316667	1	0.626500
15.333333	1	0.638000
15.350000	1	0.653250
15.366667	1	0.672250
15.383333	1	0.695875
15.400000	1	0.723000
15.416667	1	0.754500
15.433333	1	0.789875
15.450000	1	0.827875
15.466667	1	0.868625
15.483333	1	0.910375
15.500000	1	0.952250
15.516667	1	0.992250
15.533333	1	1.029250
15.550000	1	1.061500
15.566667	1	1.087750
15.583333	1	1.106625
15.600000	1	1.116875
15.616667	1	1.118500
15.633333	1	1.110875
15.650000	1	1.095250
15.666667	1	1.072000
15.683333	1	1.043125
15.700000	1	1.010500
15.716667	1	0.974750
15.733333	1	0.937500
15.750000	1	0.900000
15.766667	1	0.863625
15.783333	1	0.830125
15.800000	1	0.799000
15.816667	1	0.770375
15.833333	1	0.743875
15.850000	1	0.721250
15.866667	1	0.700625
15.883333	1	0.682750
15.900000	1	0.667000
15.916667	1	0.652625
15.933333	1	0.640500
15.950000	1	0.630250
15.966667	1	0.621375
15.983333	1	0.614000
16.000000	1	0.608500
16.016667	1	0.604750
16.033333	1	0.602250
16.050000	1	0.601500
16.066667	1	0.602625
16.083333	1	0.604875
16.100000	1	0.608500
16.116667	1	0.613250
16.133333	1	0.619250
16.150000	1	0.626125
16.166667	1	0.633750
16.183333	1	0.642000
16.200000	1	0.650500
16.216667	1	0.658375
16.233333	1	0.666250
16.250000	1	0.672750
16.266667	1	0.679500
16.283333	1	0.685375
16.300000	1	0.690875
16.316667	1	0.695125
16.333333	1	0.699000
16.350000	1	0.701750
16.366667	1	0.704125
16.383333	1	0.706000
16.400000	1	0.708500
16.416667	1	0.710750
16.433333	1	0.713500
16.450000	1	0.716125
16.466667	1	0.719375
16.483333	1	0.724250
16.500000	1	0.729000
16.516667	1	0.735250
16.533333	1	0.742500
16.550000	1	0.750750
16.566667	1	0.760625
16.583333	1	0.772000
16.600000	1	0.782875
16.616667	1	0.795000
16.633333	1	0.807000
16.650000	1	0.818375
16.666667	1	0.829750
16.683333	1	0.840625
16.700000	1	0.850125
16.716667	1	0.859125
16.733333	1	0.866625
16.750000	1	0.873625
16.766667	1	0.880750
16.783333	1	0.887125
16.800000	1	0.893250
16.816667	1	0.900125
16.833333	1	0.906750
16.850000	1	0.913625
16.866667	1	0.920750
16.883333	1	0.927625
16.900000	1	0.935125
16.916667	1	0.941625
16.933333	1	0.947750
16.950000	1	0.953500
16.966667	1	0.958375
16.983333	1	0.961000
17.000000	1	0.963750
17.016667	1	0.965375
17.033333	1	0.965250
17.050000	1	0.964125
17.066667	1	0.961875
17.083333	1	0.958625
17.100000	1	0.955375
17.116667	1	0.951750
17.133333	1	0.948375
17.150000	1	0.944875
17.166667	1	0.941875
17.183333	1	0.940000
17.200000	1	0.938250
17.216667	1	0.937625
17.233333	1	0.937750
17.250000	1	0.939000
17.266667	1	0.941250
17.283333	1	0.943500
17.300000	1	0.946500
17.316667	1	0.950250
17.333333	1	0.954000
17.350000	1	0.959000
17.366667	1	0.963750
17.383333	1	0.968250
17.400000	1	0.972750
17.416667	1	0.976750
17.433333	1	0.979500
17.450000	1	0.982000
17.466667	1	0.983000
17.483333	1	0.983500
17.500000	1	0.982375
17.516667	1	0.980375
17.533333	1	0.976125
17.550000	1	0.970125
17.566667	1	0.963125
17.583333	1	0.954500
17.600000	1	0.944125
17.616667	1	0.931750
17.633333	1	0.918625
17.650000	1	0.904375
17.666667	1	0.889500
17.683333	1	0.873375
17.700000	1	0.857375
17.716667	1	0.840625
17.733333	1	0.824625
17.750000	1	0.808375
17.766667	1	0.792750
17.783333	1	0.778250
17.800000	1	0.764625
17.816667	1	0.751375
17.833333	1	0.739250
17.850000	1	0.727375
17.866667	1	0.716500
17.883333	1	0.706875
17.900000	1	0.698500
17.916667	1	0.691125
17.933333	1	0.683875
17.950000	1	0.678125
17.966667	1	0.673125
17.983333	1	0.669000
18.000000	1	0.664625
18.016667	1	0.661125
18.033333	1	0.658375
18.050000	1	0.655625
18.066667	1	0.653625
18.083333	1	0.651750
18.100000	1	0.650250
18.116667	1	0.648750
18.133333	1	0.646750
18.150000	1	0.644875
18.166667	1	0.642875
18.183333	1	0.641750
18.200000	1	0.640250
18.216667	1	0.638500
18.233333	1	0.637375
18.250000	1	0.636250
18.266667	1	0.636125
18.283333	1	0.636125
18.300000	1	0.636125
18.316667	1	0.636750
18.333333	1	0.637250
18.350000	1	0.638625
18.366667	1	0.640375
18.383333	1	0.641750
18.400000	1	0.643375
18.416667	1	0.645375
18.433333	1	0.647750
18.450000	1	0.650875
18.466667	1	0.653750
18.483333	1	0.658750
18.500000	1	0.664375
18.516667	1	0.670875
18.533333	1	0.678500
18.550000	1	0.687625
18.566667	1	0.698375
18.583333	1	0.711125
18.600000	1	0.726000
18.616667	1	0.742250
18.633333	1	0.762000
18.650000	1	0.783625
18.666667	1	0.806375
18.683333	1	0.831875
18.700000	1	0.858875
18.716667	1	0.888375
18.733333	1	0.919625
18.750000	1	0.953125
18.766667	1	0.986250
18.783333	1	1.020875
18.800000	1	1.056500
18.816667	1	1.092000
18.833333	1	1.126500
18.850000	1	1.160000
18.866667	1	1.191500
18.883333	1	1.220625
18.900000	1	1.246750
18.916667	1	1.268500
18.933333	1	1.286000
18.950000	1	1.298125
18.966667	1	1.305375
18.983333	1	1.305625
19.000000	1	1.299125
19.016667	1	1.286250
19.033333	1	1.267125
19.050000	1	1.242000
19.066667	1	1.210500
19.083333	1	1.174500
19.100000	1	1.133750
19.116667	1	1.089500
19.133333	1	1.042250
19.150000	1	0.993500
19.166667	1	0.944000
19.183333	1	0.894875
19.200000	1	0.847125
19.216667	1	0.800375
19.233333	1	0.756625
19.250000	1	0.716375
19.266667	1	0.679750
19.283333	1	0.648000
19.300000	1	0.621000
19.316667	1	0.600125
19.333333	1	0.584250
19.350000	1	0.572875
19.366667	1	0.567875
19.383333	1	0.568250
19.400000	1	0.573875
19.416667	1	0.583750
19.433333	1	0.598875
19.450000	1	0.618375
19.466667	1	0.642000
19.483333	1	0.669750
19.500000	1	0.701125
19.516667	1	0.735125
19.533333	1	0.770750
19.550000	1	0.808125
19.566667	1	0.845750
19.583333	1	0.882375
19.600000	1	0.918375
19.616667	1	0.952125
19.633333	1	0.982750
19.650000	1	1.008750
19.666667	1	1.030750
19.683333	1	1.048125
19.700000	1	1.060000
19.716667	1	1.066250
19.733333	1	1.066875
19.750000	1	1.062000
19.766667	1	1.052125
19.783333	1	1.036625
19.800000	1	1.016500
19.816667	1	0.992750
19.833333	1	0.965625
19.850000	1	0.937125
19.866667	1	0.906750
19.883333	1	0.874250
19.900000	1	0.841000
19.916667	1	0.808000
19.933333	1	0.775375
19.950000	1	0.744500
19.966667	1	0.714125
19.983333	1	0.685000
20.000000	1	0.657500
20.016667	1	0.632750
20.033333	1	0.610000
20.050000	1	0.590500
20.066667	1	0.573125
20.083333	1	0.558375
20.100000	1	0.546750
20.116667	1	0.538000
20.133333	1	0.532250
20.150000	1	0.529000
20.166667	1	0.528375
20.183333	1	0.530375
20.200000	1	0.535000
20.216667	1	0.541250
20.233333	1	0.549625
20.250000	1	0.559250
20.266667	1	0.569875
20.283333	1	0.582125
20.300000	1	0.594500
20.316667	1	0.607125
20.333333	1	0.619500
20.350000	1	0.630625
20.366667	1	0.640625
20.383333	1	0.649750
20.400000	1	0.656750
20.416667	1	0.662000
20.433333	1	0.665500
20.450000	1	0.667250
20.466667	1	0.668375
20.483333	1	0.669125
20.500000	1	0.669125
20.516667	1	0.670625
20.533333	1	0.674125
20.550000	1	0.680000
20.566667	1	0.689375
20.583333	1	0.703375
20.600000	1	0.723625
20.616667	1	0.749875
20.633333	1	0.782000
20.650000	1	0.821125
20.666667	1	0.867875
20.683333	1	0.921500
20.700000	1	0.981875
20.716667	1	1.049000
20.733333	1	1.121500
20.750000	1	1.196875
20.766667	1	1.274500
20.783333	1	1.352500
20.800000	1	1.429125
20.816667	1	1.501750
20.833333	1	1.567500
20.850000	1	1.625250
20.866667	1	1.672375
20.883333	1	1.707000
20.900000	1	1.727875
20.916667	1	1.734625
20.933333	1	1.725875
20.950000	1	1.703125
20.966667	1	1.666125
20.983333	1	1.616750
21.000000	1	1.556500
21.016667	1	1.487000
21.033333	1	1.410750
21.050000	1	1.329750
21.066667	1	1.246375
21.083333	1	1.162500
21.100000	1	1.081000
21.116667	1	1.002625
21.133333	1	0.928000
21.150000	1	0.858500
21.166667	1	0.795125
21.183333	1	0.737250
21.200000	1	0.686250
21.216667	1	0.640750
21.233333	1	0.600750
21.250000	1	0.566250
21.266667	1	0.537750
21.283333	1	0.513375
21.300000	1	0.492875
21.316667	1	0.476250
21.333333	1	0.462250
21.350000	1	0.450625
21.366667	1	0.441500
21.383333	1	0.434500
21.400000	1	0.428625
21.416667	1	0.423625
21.433333	1	0.419625
21.450000	1	0.417125
21.466667	1	0.415625
21.483333	1	0.413250
21.500000	1	0.411500
21.516667	1	0.410750
21.533333	1	0.410375
21.550000	1	0.409500
21.566667	1	0.409250
21.583333	1	0.408500
21.600000	1	0.408500
21.616667	1	0.408375
21.633333	1	0.408000
21.650000	1	0.407625
21.666667	1	0.408500
21.683333	1	0.409375
21.700000	1	0.410625
21.716667	1	0.411625
21.733333	1	0.412750
21.750000	1	0.413625
21.766667	1	0.415500
21.783333	1	0.416500
21.800000	1	0.418500
21.816667	1	0.419500
21.833333	1	0.421625
21.850000	1	0.423375
21.866667	1	0.426000
21.883333	1	0.428375
21.900000	1	0.430625
21.916667	1	0.433250
21.933333	1	0.436875
21.950000	1	0.440250
21.966667	1	0.443875
21.983333	1	0.447500
22.000000	1	0.452000
22.016667	1	0.456125
22.033333	1	0.461250
22.050000	1	0.466125
22.066667	1	0.471125
22.083333	1	0.475625
22.100000	1	0.480500
22.116667	1	0.485500
22.133333	1	0.490125
22.150000	1	0.494375
22.166667	1	0.498125
22.183333	1	0.500500
22.200000	1	0.502000
22.216667	1	0.502875
22.233333	1	0.502875
22.250000	1	0.500875
22.266667	1	0.498250
22.283333	1	0.494750
22.300000	1	0.489750
22.316667	1	0.483125
22.333333	1	0.475250
22.350000	1	0.466375
22.366667	1	0.456875
22.383333	1	0.447000
22.400000	1	0.436375
22.416667	1	0.425250
22.433333	1	0.413500
22.450000	1	0.402000
22.466667	1	0.391000
22.483333	1	0.379625
22.500000	1	0.368750
22.516667	1	0.359250
22.533333	1	0.349125
22.550000	1	0.340625
22.566667	1	0.332375
22.583333	1	0.324375
22.600000	1	0.318000
22.616667	1	0.311625
22.633333	1	0.306250
22.650000	1	0.301625
22.666667	1	0.297125
22.683333	1	0.293500
22.700000	1	0.290500
22.716667	1	0.287750
22.733333	1	0.285125
22.750000	1	0.283250
22.766667	1	0.281750
22.783333	1	0.280250
22.800000	1	0.278750
22.816667	1	0.278750
22.833333	1	0.277500
22.850000	1	0.276750
22.866667	1	0.276750
22.883333	1	0.277125
22.900000	1	0.277375
22.916667	1	0.277625
22.933333	1	0.278000
22.950000	1	0.278875
22.966667	1	0.280125
22.983333	1	0.280375
23.000000	1	0.281500
23.016667	1	0.282375
23.033333	1	0.283375
23.050000	1	0.285375
23.066667	1	0.287000
23.083333	1	0.288625
23.100000	1	0.290125
23.116667	1	0.292000
23.133333	1	0.293625
23.150000	1	0.295125
23.166667	1	0.297875
23.183333	1	0.300125
23.200000	1	0.303125
23.216667	1	0.306625
23.233333	1	0.310750
23.250000	1	0.316625
23.266667	1	0.324000
23.283333	1	0.332375
23.300000	1	0.343375
23.316667	1	0.357250
23.333333	1	0.374875
23.350000	1	0.396875
23.366667	1	0.423375
23.383333	1	0.455250
23.400000	1	0.494750
23.416667	1	0.540875
23.433333	1	0.595875
23.450000	1	0.661750
23.466667	1	0.738875
23.483333	1	0.828125
23.500000	1	0.931625
23.516667	1	1.050125
23.533333	1	1.185125
23.550000	1	1.337875
23.566667	1	1.509250
23.583333	1	1.699375
23.600000	1	1.910000
23.616667	1	2.140375
23.633333	1	2.389625
23.650000	1	2.656875
23.666667	1	2.941500
23.683333	1	3.240750
23.700000	1	3.554625
23.716667	1	3.877500
23.733333	1	4.206375
23.750000	1	4.535625
23.766667	1	4.861500
23.783333	1	5.176000
23.800000	1	5.475000
23.816667	1	5.752625
23.833333	1	6.002500
23.850000	1	6.219500
23.866667	1	6.399000
23.883333	1	6.535875
23.900000	1	6.627250
23.916667	1	6.671125
23.933333	1	6.665750
23.950000	1	6.611375
23.966667	1	6.509000
23.983333	1	6.361750
24.000000	1	6.173500
24.016667	1	5.949500
24.033333	1	5.693875
24.050000	1	5.414375
24.066667	1	5.115625
24.083333	1	4.803875
24.100000	1	4.484625
24.116667	1	4.162500
24.133333	1	3.843500
24.150000	1	3.532000
24.166667	1	3.232750
24.183333	1	2.948125
24.200000	1	2.679125
24.216667	1	2.428625
24.233333	1	2.196875
24.250000	1	1.986000
24.266667	1	1.794625
24.283333	1	1.620500
24.300000	1	1.464750
24.316667	1	1.326000
24.333333	1	1.202875
24.350000	1	1.094750
24.366667	1	0.999875
24.383333	1	0.917125
24.400000	1	0.844875
24.416667	1	0.782125
24.433333	1	0.728500
24.450000	1	0.682375
24.466667	1	0.643000
24.483333	1	0.608250
24.500000	1	0.579375
24.516667	1	0.554125
24.533333	1	0.532750
24.550000	1	0.513375
24.566667	1	0.496500
24.583333	1	0.480875
24.600000	1	0.467125
24.616667	1	0.453750
24.633333	1	0.441750
24.650000	1	0.431250
24.666667	1	0.421125
24.683333	1	0.410625
24.700000	1	0.400875
24.716667	1	0.391375
24.733333	1	0.381875
24.750000	1	0.372750
24.766667	1	0.363500
24.783333	1	0.355125
24.800000	1	0.346750
24.816667	1	0.338500
24.833333	1	0.330375
24.850000	1	0.323125
24.866667	1	0.316500
24.883333	1	0.310375
24.900000	1	0.303625
24.916667	1	0.297750
24.933333	1	0.292625
24.950000	1	0.288125
24.966667	1	0.283375
24.983333	1	0.279625
25.000000	1	0.276000
25.016667	1	0.273500
25.033333	1	0.270375
25.050000	1	0.267625
25.066667	1	0.265375
25.083333	1	0.263750
25.100000	1	0.262250
25.116667	1	0.260625
25.133333	1	0.259500
25.150000	1	0.258375
25.166667	1	0.257500
25.183333	1	0.256375
25.200000	1	0.255375
25.216667	1	0.254625
25.233333	1	0.253750
25.250000	1	0.252625
25.266667	1	0.251875
25.283333	1	0.251000
25.300000	1	0.250750
25.316667	1	0.250125
25.333333	1	0.248750
25.350000	1	0.247750
25.366667	1	0.246625
25.383333	1	0.245625
25.400000	1	0.244250
25.416667	1	0.243375
25.433333	1	0.242250
25.450000	1	0.241250
25.466667	1	0.240125
25.483333	1	0.239250
25.500000	1	0.237750
25.516667	1	0.237250
25.533333	1	0.236125
25.550000	1	0.235250
25.566667	1	0.234125
25.583333	1	0.233750
25.600000	1	0.233750
25.616667	1	0.233500
25.633333	1	0.233875
25.650000	1	0.233875
25.666667	1	0.234000
25.683333	1	0.234500
25.700000	1	0.235875
25.716667	1	0.236750
25.733333	1	0.237500
25.750000	1	0.239250
25.766667	1	0.241250
25.783333	1	0.243375
25.800000	1	0.246250
25.816667	1	0.248250
25.833333	1	0.251125
25.850000	1	0.254250
25.866667	1	0.258625
25.883333	1	0.262625
25.900000	1	0.266875
25.916667	1	0.271375
25.933333	1	0.276750
25.950000	1	0.282250
25.966667	1	0.288000
25.983333	1	0.294000
26.000000	1	0.300125
26.016667	1	0.306750
26.033333	1	0.313000
26.050000	1	0.319000
26.066667	1	0.325500
26.083333	1	0.332750
26.100000	1	0.339375
26.116667	1	0.346375
26.133333	1	0.352375
26.150000	1	0.358250
26.166667	1	0.364000
26.183333	1	0.369125
26.200000	1	0.374125
26.216667	1	0.378750
26.233333	1	0.382750
26.250000	1	0.386750
26.266667	1	0.389625
26.283333	1	0.392000
26.300000	1	0.393125
26.316667	1	0.394250
26.333333	1	0.394000
26.350000	1	0.392875
26.366667	1	0.391500
26.383333	1	0.389250
26.400000	1	0.386125
26.416667	1	0.382000
26.433333	1	0.377750
26.450000	1	0.372000
26.466667	1	0.365875
26.483333	1	0.360125
26.500000	1	0.353750
26.516667	1	0.346875
26.533333	1	0.339250
26.550000	1	0.331250
26.566667	1	0.324000
26.583333	1	0.315750
26.600000	1	0.308625
26.616667	1	0.300875
26.633333	1	0.293125
26.650000	1	0.285000
26.666667	1	0.278125
26.683333	1	0.270500
26.700000	1	0.264125
26.716667	1	0.257250
26.733333	1	0.250500
26.750000	1	0.244000
26.766667	1	0.238250
26.783333	1	0.232750
26.800000	1	0.228000
26.816667	1	0.222750
26.833333	1	0.217875
26.850000	1	0.214500
26.866667	1	0.211125
26.883333	1	0.207750
26.900000	1	0.204875
26.916667	1	0.202000
26.933333	1	0.199500
26.950000	1	0.198000
26.966667	1	0.195875
26.983333	1	0.195000
27.000000	1	0.194000
27.016667	1	0.193750
27.033333	1	0.193500
27.050000	1	0.194000
27.066667	1	0.194625
27.083333	1	0.196000
27.100000	1	0.197375
27.116667	1	0.200000
27.133333	1	0.203750
27.150000	1	0.208000
27.166667	1	0.213125
27.183333	1	0.218375
27.200000	1	0.225000
27.216667	1	0.233750
27.233333	1	0.244250
27.250000	1	0.256000
27.266667	1	0.269375
27.283333	1	0.284625
27.300000	1	0.302375
27.316667	1	0.323000
27.333333	1	0.346875
27.350000	1	0.373750
27.366667	1	0.404750
27.383333	1	0.439875
27.400000	1	0.479750
27.416667	1	0.524000
27.433333	1	0.575125
27.450000	1	0.632250
27.466667	1	0.696125
27.483333	1	0.767375
27.500000	1	0.846750
27.516667	1	0.933375
27.533333	1	1.028375
27.550000	1	1.132125
27.566667	1	1.244625
27.583333	1	1.365125
27.600000	1	1.494375
27.616667	1	1.632375
27.633333	1	1.777875
27.650000	1	1.931500
27.666667	1	2.091625
27.683333	1	2.256375
27.700000	1	2.425500
27.716667	1	2.597625
27.733333	1	2.769375
27.750000	1	2.940125
27.766667	1	3.107375
27.783333	1	3.269000
27.800000	1	3.423500
27.816667	1	3.568250
27.833333	1	3.701000
27.850000	1	3.819375
27.866667	1	3.921125
27.883333	1	4.005625
27.900000	1	4.069375
27.916667	1	4.111000
27.933333	1	4.130875
27.950000	1	4.127750
27.966667	1	4.101750
27.983333	1	4.053125
28.000000	1	3.982500
28.016667	1	3.891500
28.033333	1	3.780625
28.050000	1	3.652750
28.066667	1	3.509000
28.083333	1	3.353625
28.100000	1	3.188125
28.116667	1	3.014250
28.133333	1	2.836250
28.150000	1	2.656125
28.166667	1	2.476750
28.183333	1	2.299875
28.200000	1	2.127500
28.216667	1	1.961875
28.233333	1	1.802500
28.250000	1	1.652125
28.266667	1	1.511625
28.283333	1	1.381250
28.300000	1	1.261625
28.316667	1	1.152750
28.333333	1	1.054500
28.350000	1	0.966875
28.366667	1	0.889500
28.383333	1	0.821875
28.400000	1	0.762500
28.416667	1	0.711750
28.433333	1	0.668875
28.450000	1	0.633375
28.466667	1	0.603750
28.483333	1	0.579750
28.500000	1	0.561000
28.516667	1	0.546750
28.533333	1	0.537500
28.550000	1	0.530000
28.566667	1	0.526500
28.583333	1	0.525500
28.600000	1	0.527125
28.616667	1	0.530000
28.633333	1	0.534375
28.650000	1	0.540375
28.666667	1	0.547000
28.683333	1	0.554125
28.700000	1	0.562250
28.716667	1	0.570375
28.733333	1	0.577875
28.750000	1	0.584375
28.766667	1	0.591750
28.783333	1	0.597625
28.800000	1	0.603250
28.816667	1	0.607750
28.833333	1	0.611500
28.850000	1	0.613750
28.866667	1	0.614625
28.883333	1	0.613750
28.900000	1	0.611375
28.916667	1	0.607250
28.933333	1	0.602000
28.950000	1	0.594125
28.966667	1	0.584625
28.983333	1	0.573500
29.000000	1	0.561000
29.016667	1	0.546875
29.033333	1	0.529875
29.050000	1	0.511375
29.066667	1	0.490250
29.083333	1	0.467250
29.100000	1	0.442375
29.116667	1	0.414750
29.133333	1	0.385375
29.150000	1	0.353250
29.166667	1	0.318500
29.183333	1	0.282750
29.200000	1	0.244125
29.216667	1	0.203125
29.233333	1	0.160125
29.250000	1	0.114750
29.266667	1	0.067250
29.283333	1	0.017625
29.300000	1	-0.033875
29.316667	1	-0.087625
29.333333	1	-0.142750
29.350000	1	-0.200625
29.366667	1	-0.259125
29.383333	1	-0.319000
29.400000	1	-0.379250
29.416667	1	-0.440375
29.433333	1	-0.502000
29.450000	1	-0.563500
29.466667	1	-0.625125
29.483333	1	-0.685125
29.500000	1	-0.744500
29.516667	1	-0.802625
29.533333	1	-0.858125
29.550000	1	-0.911625
29.566667	1	-0.961625
29.583333	1	-1.008625
29.600000	1	-1.051500
29.616667	1	-1.090125
29.633333	1	-1.124125
29.650000	1	-1.154500
29.666667	1	-1.179500
29.683333	1	-1.198625
29.700000	1	-1.212250
29.716667	1	-1.221250
29.733333	1	-1.224250
29.750000	1	-1.221625
29.766667	1	-1.212750
29.783333	1	-1.199125
29.800000	1	-1.180000
29.816667	1	-1.156625
29.833333	1	-1.128125
29.850000	1	-1.095375
29.866667	1	-1.059625
29.883333	1	-1.019750
29.900000	1	-0.977625
29.916667	1	-0.933375
29.933333	1	-0.887000
29.950000	1	-0.838375
29.966667	1	-0.789375
29.983333	1	-0.739750
30.000000	1	-0.689750
30.016667	1	-0.639750
30.033333	1	-0.590750
30.050000	1	-0.543125
30.066667	1	-0.496250
30.083333	1	-0.450625
30.100000	1	-0.406625
30.116667	1	-0.364500
30.133333	1	-0.324875
30.150000	1	-0.287375
30.166667	1	-0.252000
30.183333	1	-0.218750
30.200000	1	-0.187875
30.216667	1	-0.159750
30.233333	1	-0.133250
30.250000	1	-0.108750
30.266667	1	-0.085750
30.283333	1	-0.065000
30.300000	1	-0.047000
30.316667	1	-0.029750
30.333333	1	-0.014875
30.350000	1	-0.001000
30.366667	1	0.011625
30.383333	1	0.022500
30.400000	1	0.032000
30.416667	1	0.040500
30.433333	1	0.048375
30.450000	1	0.055750
30.466667	1	0.062625
30.483333	1	0.069000
30.500000	1	0.074875
30.516667	1	0.082125
30.533333	1	0.088125
30.550000	1	0.094500
30.566667	1	0.101625
30.583333	1	0.108625
30.600000	1	0.117625
30.616667	1	0.126875
30.633333	1	0.137625
30.650000	1	0.149625
30.666667	1	0.163375
30.683333	1	0.178875
30.700000	1	0.196750
30.716667	1	0.218250
30.733333	1	0.241250
30.750000	1	0.267500
30.766667	1	0.297875
30.783333	1	0.332000
30.800000	1	0.370500
30.816667	1	0.414625
30.833333	1	0.464250
30.850000	1	0.519875
30.866667	1	0.581625
30.883333	1	0.651875
30.900000	1	0.730250
30.916667	1	0.817250
30.933333	1	0.913500
30.950000	1	1.019625
30.966667	1	1.137125
30.983333	1	1.266875
31.000000	1	1.409375
31.016667	1	1.564375
31.033333	1	1.732375
31.050000	1	1.914875
31.066667	1	2.110625
31.083333	1	2.321000
31.100000	1	2.544375
31.116667	1	2.781250
31.133333	1	3.030750
31.150000	1	3.291250
31.166667	1	3.562250
31.183333	1	3.843125
31.200000	1	4.130625
31.216667	1	4.423375
31.233333	1	4.719250
31.250000	1	5.015500
31.266667	1	5.308250
31.283333	1	5.594375
31.300000	1	5.870250
31.316667	1	6.134375
31.333333	1	6.381875
31.350000	1	6.610750
31.366667	1	6.818250
31.383333	1	7.001125
31.400000	1	7.157375
31.416667	1	7.284500
31.433333	1	7.380750
31.450000	1	7.444375
31.466667	1	7.475000
31.483333	1	7.472250
31.500000	1	7.436750
31.516667	1	7.368750
31.533333	1	7.270000
31.550000	1	7.141250
31.566667	1	6.984125
31.583333	1	6.801500
31.600000	1	6.596375
31.616667	1	6.369750
31.633333	1	6.125500
31.650000	1	5.867500
31.666667	1	5.597625
31.683333	1	5.320000
31.700000	1	5.037250
31.716667	1	4.753125
31.733333	1	4.469125
31.750000	1	4.188125
31.766667	1	3.912375
31.783333	1	3.642375
31.800000	1	3.380875
31.816667	1	3.128875
31.833333	1	2.887875
31.850000	1	2.658125
31.866667	1	2.441625
31.883333	1	2.238000
31.900000	1	2.047500
31.916667	1	1.870250
31.933333	1	1.705875
31.950000	1	1.554000
31.966667	1	1.414375
31.983333	1	1.286125
32.000000	1	1.168875
32.016667	1	1.062250
32.033333	1	0.966250
32.050000	1	0.878000
32.066667	1	0.798500
32.083333	1	0.726625
32.100000	1	0.661875
32.116667	1	0.604125
32.133333	1	0.552125
32.150000	1	0.505250
32.166667	1	0.464250
32.183333	1	0.427125
32.200000	1	0.393875
32.216667	1	0.363500
32.233333	1	0.336500
32.250000	1	0.311375
32.266667	1	0.289500
32.283333	1	0.268250
32.300000	1	0.249000
32.316667	1	0.232750
32.333333	1	0.217125
32.350000	1	0.202875
32.366667	1	0.189625
32.383333	1	0.177250
32.400000	1	0.165625
32.416667	1	0.154375
32.433333	1	0.143125
32.450000	1	0.132625
32.466667	1	0.123000
32.483333	1	0.114375
32.500000	1	0.105500
32.516667	1	0.097125
32.533333	1	0.089125
32.550000	1	0.081500
32.566667	1	0.075000
32.583333	1	0.068375
32.600000	1	0.062000
32.616667	1	0.055125
32.633333	1	0.049625
32.650000	1	0.044875
32.666667	1	0.040125
32.683333	1	0.035625
32.700000	1	0.031875
32.716667	1	0.028500
32.733333	1	0.025500
32.750000	1	0.022000
32.766667	1	0.020375
32.783333	1	0.018000
32.800000	1	0.016500
32.816667	1	0.015250
32.833333	1	0.014625
32.850000	1	0.013750
32.866667	1	0.013500
32.883333	1	0.013625
32.900000	1	0.013625
32.916667	1	0.013750
32.933333	1	0.014750
32.950000	1	0.017125
32.966667	1	0.018875
32.983333	1	0.020750
33.000000	1	0.023125
33.016667	1	0.025750
33.033333	1	0.028375
33.050000	1	0.031375
33.066667	1	0.035250
33.083333	1	0.038625
33.100000	1	0.042000
33.116667	1	0.046375
33.133333	1	0.050750
33.150000	1	0.055375
33.166667	1	0.060250
33.183333	1	0.065250
33.200000	1	0.070000
33.216667	1	0.076125
33.233333	1	0.081125
33.250000	1	0.086500
33.266667	1	0.092000
33.283333	1	0.097250
33.300000	1	0.102000
33.316667	1	0.107125
33.333333	1	0.112625
33.350000	1	0.118250
33.366667	1	0.123875
33.383333	1	0.128750
33.400000	1	0.134000
33.416667	1	0.138875
33.433333	1	0.144250
33.450000	1	0.148875
33.466667	1	0.153500
33.483333	1	0.158000
33.500000	1	0.162625
33.516667	1	0.166125
33.533333	1	0.170375
33.550000	1	0.174125
33.566667	1	0.178000
33.583333	1	0.182000
33.600000	1	0.184875
33.616667	1	0.187500
33.633333	1	0.190500
33.650000	1	0.193000
33.666667	1	0.195750
33.683333	1	0.197500
33.700000	1	0.199375
33.716667	1	0.201250
33.733333	1	0.203375
33.750000	1	0.204500
33.766667	1	0.206000
33.783333	1	0.207375
33.800000	1	0.208250
33.816667	1	0.208750
33.833333	1	0.209500
33.850000	1	0.210250
33.866667	1	0.210250
33.883333	1	0.210375
33.900000	1	0.210000
33.916667	1	0.209500
33.933333	1	0.208750
33.950000	1	0.208000
33.966667	1	0.207750
33.983333	1	0.206250
34.000000	1	0.204875
34.016667	1	0.203750
34.033333	1	0.202375
34.050000	1	0.200500
34.066667	1	0.199250
34.083333	1	0.197125
34.100000	1	0.195750
34.116667	1	0.193875
34.133333	1	0.192500
34.150000	1	0.190500
34.166667	1	0.188750
34.183333	1	0.186750
34.200000	1	0.186250
34.216667	1	0.184750
34.233333	1	0.183375
34.250000	1	0.182125
34.266667	1	0.181000
34.283333	1	0.179625
34.300000	1	0.179125
34.316667	1	0.178375
34.333333	1	0.178125
34.350000	1	0.177375
34.366667	1	0.176500
34.383333	1	0.176500
34.400000	1	0.176875
34.416667	1	0.176500
34.433333	1	0.176875
34.450000	1	0.176250
34.466667	1	0.176125
34.483333	1	0.175750
34.500000	1	0.176250
34.516667	1	0.176625
34.533333	1	0.176125
34.550000	1	0.175625
34.566667	1	0.175500
34.583333	1	0.175500
34.600000	1	0.175500
34.616667	1	0.174625
34.633333	1	0.174125
34.650000	1	0.173125
34.666667	1	0.172250
34.683333	1	0.170875
34.700000	1	0.169750
34.716667	1	0.168750
34.733333	1	0.167375
34.750000	1	0.165250
34.766667	1	0.163375
34.783333	1	0.162250
34.800000	1	0.160500
34.816667	1	0.158625
34.833333	1	0.156375
34.850000	1	0.154500
34.866667	1	0.152375
34.883333	1	0.149875
34.900000	1	0.148250
34.916667	1	0.146125
34.933333	1	0.144375
34.950000	1	0.142250
34.966667	1	0.140375
34.983333	1	0.139125
35.000000	1	0.137375
35.016667	1	0.135125
35.033333	1	0.133625
35.050000	1	0.132375
35.066667	1	0.130875
35.083333	1	0.129500
35.100000	1	0.128250
35.116667	1	0.126625
35.133333	1	0.125625
35.150000	1	0.125125
35.166667	1	0.123250
35.183333	1	0.122875
35.200000	1	0.121000
35.216667	1	0.121125
35.233333	1	0.120250
35.250000	1	0.120000
35.266667	1	0.119500
35.283333	1	0.119375
35.300000	1	0.119625
35.316667	1	0.119625
35.333333	1	0.119250
35.350000	1	0.119250
35.366667	1	0.119875
35.383333	1	0.119500
35.400000	1	0.119875
35.416667	1	0.120375
35.433333	1	0.121000
35.450000	1	0.121500
35.466667	1	0.122250
35.483333	1	0.122750
35.500000	1	0.122750
35.516667	1	0.122250
35.533333	1	0.122250
35.550000	1	0.122125
35.566667	1	0.121875
35.583333	1	0.121750
35.600000	1	0.120375
35.616667	1	0.119375
35.633333	1	0.118250
35.650000	1	0.117250
35.666667	1	0.115875
35.683333	1	0.114000
35.700000	1	0.113250
35.716667	1	0.112375
35.733333	1	0.110500
35.750000	1	0.108875
35.766667	1	0.107250
35.783333	1	0.105500
35.800000	1	0.104125
35.816667	1	0.102625
35.833333	1	0.101125
35.850000	1	0.100500
35.866667	1	0.100000
35.883333	1	0.099500
35.900000	1	0.098875
35.916667	1	0.099375
35.933333	1	0.099750
35.950000	1	0.100875
35.966667	1	0.101625
35.983333	1	0.103125
36.000000	1	0.104750
36.016667	1	0.106625
36.033333	1	0.108500
36.050000	1	0.110750
36.066667	1	0.113375
36.083333	1	0.116250
36.100000	1	0.120000
36.116667	1	0.122750
36.133333	1	0.125875
36.150000	1	0.129250
36.166667	1	0.132375
36.183333	1	0.135625
36.200000	1	0.139000
36.216667	1	0.141875
36.233333	1	0.144250
36.250000	1	0.146375
36.266667	1	0.148625
36.283333	1	0.150125
36.300000	1	0.152000
36.316667	1	0.153250
36.333333	1	0.155125
36.350000	1	0.155750
36.366667	1	0.156375
36.383333	1	0.156000
36.400000	1	0.155000
36.416667	1	0.154000
36.433333	1	0.153250
36.450000	1	0.151750
36.466667	1	0.149875
36.483333	1	0.148125
36.500000	1	0.146125
36.516667	1	0.143750
36.533333	1	0.140750
36.550000	1	0.138750
36.566667	1	0.136125
36.583333	1	0.133750
36.600000	1	0.131250
36.616667	1	0.127750
36.633333	1	0.124750
36.650000	1	0.122250
36.666667	1	0.119500
36.683333	1	0.117250
36.700000	1	0.114500
36.716667	1	0.111625
36.733333	1	0.109875
36.750000	1	0.107750
36.766667	1	0.106125
36.783333	1	0.104750
36.800000	1	0.102750
36.816667	1	0.102000
36.833333	1	0.101250
36.850000	1	0.100750
36.866667	1	0.100500
36.883333	1	0.100500
36.900000	1	0.101000
36.916667	1	0.101375
36.933333	1	0.102125
36.950000	1	0.103000
36.966667	1	0.103375
36.983333	1	0.104625
37.000000	1	0.104875
37.016667	1	0.105750
37.033333	1	0.108000
37.050000	1	0.109125
37.066667	1	0.110375
37.083333	1	0.111750
37.100000	1	0.113250
37.116667	1	0.114500
37.133333	1	0.115375
37.150000	1	0.117000
37.166667	1	0.117625
37.183333	1	0.118750
37.200000	1	0.119375
37.216667	1	0.119750
37.233333	1	0.119750
37.250000	1	0.119375
37.266667	1	0.119500
37.283333	1	0.120000
37.300000	1	0.119875
37.316667	1	0.119250
37.333333	1	0.118125
37.350000	1	0.117250
37.366667	1	0.116125
37.383333	1	0.115125
37.400000	1	0.113125
37.416667	1	0.111250
37.433333	1	0.109500
37.450000	1	0.107250
37.466667	1	0.104500
37.483333	1	0.101875
37.500000	1	0.099125
37.516667	1	0.096125
37.533333	1	0.093625
37.550000	1	0.090250
37.566667	1	0.087875
37.583333	1	0.084375
37.600000	1	0.080625
37.616667	1	0.077000
37.633333	1	0.074000
37.650000	1	0.070750
37.666667	1	0.068250
37.683333	1	0.065625
37.700000	1	0.062375
37.716667	1	0.059875
37.733333	1	0.057125
37.750000	1	0.054125
37.766667	1	0.051625
37.783333	1	0.049875
37.800000	1	0.047750
37.816667	1	0.045375
37.833333	1	0.044125
37.850000	1	0.043250
37.866667	1	0.042125
37.883333	1	0.041125
37.900000	1	0.040250
37.916667	1	0.039125
37.933333	1	0.039375
37.950000	1	0.039500
37.966667	1	0.039500
37.983333	1	0.039500
38.000000	1	0.039500
38.016667	1	0.040625
38.033333	1	0.041750
38.050000	1	0.042375
38.066667	1	0.043625
38.083333	1	0.045000
38.100000	1	0.046250
38.116667	1	0.047625
38.133333	1	0.049375
38.150000	1	0.051125
38.166667	1	0.053000
38.183333	1	0.054875
38.200000	1	0.056750
38.216667	1	0.058750
38.233333	1	0.060625
38.250000	1	0.062250
38.266667	1	0.064375
38.283333	1	0.066625
38.300000	1	0.068625
38.316667	1	0.071000
38.333333	1	0.073125
38.350000	1	0.075125
38.366667	1	0.077500
38.383333	1	0.079875
38.400000	1	0.081750
38.416667	1	0.083375
38.433333	1	0.085250
38.450000	1	0.087875
38.466667	1	0.089875
38.483333	1	0.092000
38.500000	1	0.093375
38.516667	1	0.095500
38.533333	1	0.097125
38.550000	1	0.098375
38.566667	1	0.099875
38.583333	1	0.100625
38.600000	1	0.101500
38.616667	1	0.102375
38.633333	1	0.103000
38.650000	1	0.103750
38.666667	1	0.104250
38.683333	1	0.104375
38.700000	1	0.105125
38.716667	1	0.105000
38.733333	1	0.104375
38.750000	1	0.103500
38.766667	1	0.102000
38.783333	1	0.101000
38.800000	1	0.099000
38.816667	1	0.097000
38.833333	1	0.094375
38.850000	1	0.093125
38.866667	1	0.090500
38.883333	1	0.088375
38.900000	1	0.085625
38.916667	1	0.082500
38.933333	1	0.080250
38.950000	1	0.076875
38.966667	1	0.073625
38.983333	1	0.070250
39.000000	1	0.067375
39.016667	1	0.064125
39.033333	1	0.061000
39.050000	1	0.058375
39.066667	1	0.055625
39.083333	1	0.053500
39.100000	1	0.051625
39.116667	1	0.049250
39.133333	1	0.046750
39.150000	1	0.044625
39.166667	1	0.042875
39.183333	1	0.041000
39.200000	1	0.039625
39.216667	1	0.038625
39.233333	1	0.038125
39.250000	1	0.037625
39.266667	1	0.037000
39.283333	1	0.036625
39.300000	1	0.036875
39.316667	1	0.036750
39.333333	1	0.037250
39.350000	1	0.037500
39.366667	1	0.038000
39.383333	1	0.038875
39.400000	1	0.039375
39.416667	1	0.040500
39.433333	1	0.041125
39.450000	1	0.042375
39.466667	1	0.044375
39.483333	1	0.046250
39.500000	1	0.048250
39.516667	1	0.050000
39.533333	1	0.051500
39.550000	1	0.052875
39.566667	1	0.053875
39.583333	1	0.056250
39.600000	1	0.058625
39.616667	1	0.060625
39.633333	1	0.062625
39.650000	1	0.064500
39.666667	1	0.066125
39.683333	1	0.067625
39.700000	1	0.069625
39.716667	1	0.071125
39.733333	1	0.072750
39.750000	1	0.074125
39.766667	1	0.075375
39.783333	1	0.076125
39.800000	1	0.077125
39.816667	1	0.078250
39.833333	1	0.079000
39.850000	1	0.079500
39.866667	1	0.080625
39.883333	1	0.081500
39.900000	1	0.082000
39.916667	1	0.081625
39.933333	1	0.081375
39.950000	1	0.081000
39.966667	1	0.080500
39.983333	1	0.080000
40.000000	1	0.079250
