URL	chrom://bioreactor/micro_cm7/HPLC_Ultimate_3000/Users/markusar/20240727_MA_EsirYCA.seq/370.smp/RI_1.channel/RI_1.chm
Channel	RI_1

Injection Information:
Data Vault	micro_cm7
Sequence	20240727_MA_EsirYCA
Name	Es2_4
Number	9
Position	BA9
Comment	
Processing Method	
Instrument Method	run_25B_method
Type	Unknown
Status	Finished
Inject Time	29.07.2024 19:05:26 +02:00
Volume (µl)	20.0000
Dilution Factor	1.0000
Weight	1.0000

Chromatogram Data Information:
Time Min. (min)	0.000000
Time Max. (min)	40.000000
Data Points	2401
Detector	RI
Generating Data System	Chromeleon 7.3.2.11814
Exporting Data System	Chromeleon 7.3.2.0
Operator	Instrument Controller
Signal Quantity	Refractive 
Signal Unit	µRIU
Signal Min.	-1.047125
Signal Max.	58.235375
Channel	RI_1
Driver Name	RID520Driver.dll
Channel Type	Evaluation
Min. Step (s)	1
Max. Step (s)	1
Average Step (s)	1

Signal Parameter Information:
Signal Info	

Chromatogram Data:
Time (min)	Step (s)	Value (µRIU)
0.000000	n.a.	0.003000
0.016667	1	0.003000
0.033333	1	0.002750
0.050000	1	0.002875
0.066667	1	0.003625
0.083333	1	0.004625
0.100000	1	0.004625
0.116667	1	0.004875
0.133333	1	0.004875
0.150000	1	0.005375
0.166667	1	0.005750
0.183333	1	0.005625
0.200000	1	0.005375
0.216667	1	0.005500
0.233333	1	0.005250
0.250000	1	0.004750
0.266667	1	0.005625
0.283333	1	0.006000
0.300000	1	0.005125
0.316667	1	0.005000
0.333333	1	0.004625
0.350000	1	0.004750
0.366667	1	0.004250
0.383333	1	0.003500
0.400000	1	0.003000
0.416667	1	0.003625
0.433333	1	0.005375
0.450000	1	0.007250
0.466667	1	0.009750
0.483333	1	0.011750
0.500000	1	0.013500
0.516667	1	0.014875
0.533333	1	0.016625
0.550000	1	0.017500
0.566667	1	0.017375
0.583333	1	0.016875
0.600000	1	0.014875
0.616667	1	0.013250
0.633333	1	0.012625
0.650000	1	0.012750
0.666667	1	0.013500
0.683333	1	0.013875
0.700000	1	0.015000
0.716667	1	0.016000
0.733333	1	0.017000
0.750000	1	0.018375
0.766667	1	0.019625
0.783333	1	0.020500
0.800000	1	0.020625
0.816667	1	0.021250
0.833333	1	0.021375
0.850000	1	0.022250
0.866667	1	0.022750
0.883333	1	0.023000
0.900000	1	0.022750
0.916667	1	0.022625
0.933333	1	0.022750
0.950000	1	0.022000
0.966667	1	0.021500
0.983333	1	0.020625
1.000000	1	0.019500
1.016667	1	0.018875
1.033333	1	0.017500
1.050000	1	0.016375
1.066667	1	0.015000
1.083333	1	0.013875
1.100000	1	0.012875
1.116667	1	0.011625
1.133333	1	0.009750
1.150000	1	0.007750
1.166667	1	0.005375
1.183333	1	0.002750
1.200000	1	0.001000
1.216667	1	-0.001250
1.233333	1	-0.002875
1.250000	1	-0.004875
1.266667	1	-0.007750
1.283333	1	-0.010750
1.300000	1	-0.014000
1.316667	1	-0.017500
1.333333	1	-0.021125
1.350000	1	-0.024625
1.366667	1	-0.028125
1.383333	1	-0.031875
1.400000	1	-0.034750
1.416667	1	-0.038000
1.433333	1	-0.041250
1.450000	1	-0.044500
1.466667	1	-0.048125
1.483333	1	-0.051750
1.500000	1	-0.054125
1.516667	1	-0.056625
1.533333	1	-0.059125
1.550000	1	-0.061875
1.566667	1	-0.063750
1.583333	1	-0.065375
1.600000	1	-0.066875
1.616667	1	-0.068250
1.633333	1	-0.069250
1.650000	1	-0.069500
1.666667	1	-0.069875
1.683333	1	-0.069875
1.700000	1	-0.069500
1.716667	1	-0.068875
1.733333	1	-0.068875
1.750000	1	-0.067250
1.766667	1	-0.065500
1.783333	1	-0.064125
1.800000	1	-0.062125
1.816667	1	-0.059625
1.833333	1	-0.057500
1.850000	1	-0.055250
1.866667	1	-0.052875
1.883333	1	-0.050375
1.900000	1	-0.048375
1.916667	1	-0.045625
1.933333	1	-0.043875
1.950000	1	-0.041625
1.966667	1	-0.039500
1.983333	1	-0.037125
2.000000	1	-0.035375
2.016667	1	-0.033750
2.033333	1	-0.032000
2.050000	1	-0.030375
2.066667	1	-0.029250
2.083333	1	-0.027500
2.100000	1	-0.026875
2.116667	1	-0.026250
2.133333	1	-0.025750
2.150000	1	-0.025500
2.166667	1	-0.025500
2.183333	1	-0.025125
2.200000	1	-0.024500
2.216667	1	-0.024750
2.233333	1	-0.024875
2.250000	1	-0.025000
2.266667	1	-0.024625
2.283333	1	-0.025000
2.300000	1	-0.025625
2.316667	1	-0.025750
2.333333	1	-0.025875
2.350000	1	-0.026375
2.366667	1	-0.026875
2.383333	1	-0.026625
2.400000	1	-0.025875
2.416667	1	-0.025875
2.433333	1	-0.025750
2.450000	1	-0.025000
2.466667	1	-0.024750
2.483333	1	-0.023500
2.500000	1	-0.021875
2.516667	1	-0.021000
2.533333	1	-0.020125
2.550000	1	-0.019000
2.566667	1	-0.017750
2.583333	1	-0.017000
2.600000	1	-0.014750
2.616667	1	-0.013250
2.633333	1	-0.011375
2.650000	1	-0.009500
2.666667	1	-0.008250
2.683333	1	-0.005625
2.700000	1	-0.004250
2.716667	1	-0.003000
2.733333	1	-0.001250
2.750000	1	0.000125
2.766667	1	0.001500
2.783333	1	0.003250
2.800000	1	0.005500
2.816667	1	0.007250
2.833333	1	0.008875
2.850000	1	0.010375
2.866667	1	0.011750
2.883333	1	0.013125
2.900000	1	0.014750
2.916667	1	0.016500
2.933333	1	0.018000
2.950000	1	0.019125
2.966667	1	0.020250
2.983333	1	0.021625
3.000000	1	0.023250
3.016667	1	0.024625
3.033333	1	0.025750
3.050000	1	0.027000
3.066667	1	0.028125
3.083333	1	0.030500
3.100000	1	0.031375
3.116667	1	0.032750
3.133333	1	0.034250
3.150000	1	0.035750
3.166667	1	0.037250
3.183333	1	0.038500
3.200000	1	0.040375
3.216667	1	0.042125
3.233333	1	0.043500
3.250000	1	0.045750
3.266667	1	0.046500
3.283333	1	0.048875
3.300000	1	0.050125
3.316667	1	0.051125
3.333333	1	0.052625
3.350000	1	0.053875
3.366667	1	0.055500
3.383333	1	0.056000
3.400000	1	0.057625
3.416667	1	0.058625
3.433333	1	0.059375
3.450000	1	0.060250
3.466667	1	0.061500
3.483333	1	0.062375
3.500000	1	0.062750
3.516667	1	0.063625
3.533333	1	0.063750
3.550000	1	0.063875
3.566667	1	0.064000
3.583333	1	0.063625
3.600000	1	0.062875
3.616667	1	0.062500
3.633333	1	0.062375
3.650000	1	0.061375
3.666667	1	0.060000
3.683333	1	0.058500
3.700000	1	0.057500
3.716667	1	0.055875
3.733333	1	0.054875
3.750000	1	0.052875
3.766667	1	0.050750
3.783333	1	0.048500
3.800000	1	0.046875
3.816667	1	0.044875
3.833333	1	0.043125
3.850000	1	0.040500
3.866667	1	0.038000
3.883333	1	0.035625
3.900000	1	0.033125
3.916667	1	0.030750
3.933333	1	0.028500
3.950000	1	0.026125
3.966667	1	0.023875
3.983333	1	0.021875
4.000000	1	0.019375
4.016667	1	0.017000
4.033333	1	0.014625
4.050000	1	0.012875
4.066667	1	0.011000
4.083333	1	0.009375
4.100000	1	0.008000
4.116667	1	0.006625
4.133333	1	0.005500
4.150000	1	0.004250
4.166667	1	0.003375
4.183333	1	0.003375
4.200000	1	0.003125
4.216667	1	0.003375
4.233333	1	0.003250
4.250000	1	0.003500
4.266667	1	0.004000
4.283333	1	0.004375
4.300000	1	0.005375
4.316667	1	0.007000
4.333333	1	0.008625
4.350000	1	0.011375
4.366667	1	0.014125
4.383333	1	0.016750
4.400000	1	0.020125
4.416667	1	0.023125
4.433333	1	0.026750
4.450000	1	0.030875
4.466667	1	0.035000
4.483333	1	0.039125
4.500000	1	0.043375
4.516667	1	0.047875
4.533333	1	0.052500
4.550000	1	0.057375
4.566667	1	0.062125
4.583333	1	0.066750
4.600000	1	0.071500
4.616667	1	0.077125
4.633333	1	0.082875
4.650000	1	0.088000
4.666667	1	0.093500
4.683333	1	0.099000
4.700000	1	0.104000
4.716667	1	0.109250
4.733333	1	0.114500
4.750000	1	0.119500
4.766667	1	0.124125
4.783333	1	0.128750
4.800000	1	0.134000
4.816667	1	0.138625
4.833333	1	0.144250
4.850000	1	0.149000
4.866667	1	0.153625
4.883333	1	0.158000
4.900000	1	0.162250
4.916667	1	0.166125
4.933333	1	0.170250
4.950000	1	0.174000
4.966667	1	0.177625
4.983333	1	0.180875
5.000000	1	0.184250
5.016667	1	0.187250
5.033333	1	0.189625
5.050000	1	0.192000
5.066667	1	0.194000
5.083333	1	0.195625
5.100000	1	0.196875
5.116667	1	0.197875
5.133333	1	0.198750
5.150000	1	0.199375
5.166667	1	0.199500
5.183333	1	0.199875
5.200000	1	0.199750
5.216667	1	0.199375
5.233333	1	0.198750
5.250000	1	0.198000
5.266667	1	0.197125
5.283333	1	0.196000
5.300000	1	0.194750
5.316667	1	0.193250
5.333333	1	0.191625
5.350000	1	0.190000
5.366667	1	0.188375
5.383333	1	0.186500
5.400000	1	0.185125
5.416667	1	0.183500
5.433333	1	0.181875
5.450000	1	0.180250
5.466667	1	0.178125
5.483333	1	0.175875
5.500000	1	0.173750
5.516667	1	0.171875
5.533333	1	0.170000
5.550000	1	0.168500
5.566667	1	0.167125
5.583333	1	0.164750
5.600000	1	0.163125
5.616667	1	0.160875
5.633333	1	0.159125
5.650000	1	0.156875
5.666667	1	0.154375
5.683333	1	0.151875
5.700000	1	0.149750
5.716667	1	0.147000
5.733333	1	0.144875
5.750000	1	0.142750
5.766667	1	0.140250
5.783333	1	0.137875
5.800000	1	0.134625
5.816667	1	0.131250
5.833333	1	0.127625
5.850000	1	0.124750
5.866667	1	0.121875
5.883333	1	0.119250
5.900000	1	0.115250
5.916667	1	0.111500
5.933333	1	0.108000
5.950000	1	0.104625
5.966667	1	0.101375
5.983333	1	0.097875
6.000000	1	0.094750
6.016667	1	0.091625
6.033333	1	0.088500
6.050000	1	0.084875
6.066667	1	0.081625
6.083333	1	0.077875
6.100000	1	0.075625
6.116667	1	0.072375
6.133333	1	0.070125
6.150000	1	0.067875
6.166667	1	0.065000
6.183333	1	0.062875
6.200000	1	0.060875
6.216667	1	0.059875
6.233333	1	0.058250
6.250000	1	0.057125
6.266667	1	0.055500
6.283333	1	0.053875
6.300000	1	0.053500
6.316667	1	0.052125
6.333333	1	0.052000
6.350000	1	0.051125
6.366667	1	0.051000
6.383333	1	0.050875
6.400000	1	0.050625
6.416667	1	0.050875
6.433333	1	0.051250
6.450000	1	0.051375
6.466667	1	0.051250
6.483333	1	0.051375
6.500000	1	0.051750
6.516667	1	0.052000
6.533333	1	0.052625
6.550000	1	0.053750
6.566667	1	0.054625
6.583333	1	0.055750
6.600000	1	0.056000
6.616667	1	0.057000
6.633333	1	0.057750
6.650000	1	0.058500
6.666667	1	0.059875
6.683333	1	0.060750
6.700000	1	0.062250
6.716667	1	0.063375
6.733333	1	0.064500
6.750000	1	0.066250
6.766667	1	0.067875
6.783333	1	0.069250
6.800000	1	0.071250
6.816667	1	0.072875
6.833333	1	0.075250
6.850000	1	0.077250
6.866667	1	0.079250
6.883333	1	0.080875
6.900000	1	0.083375
6.916667	1	0.085125
6.933333	1	0.088125
6.950000	1	0.090125
6.966667	1	0.093125
6.983333	1	0.096000
7.000000	1	0.099000
7.016667	1	0.100375
7.033333	1	0.103125
7.050000	1	0.105250
7.066667	1	0.107125
7.083333	1	0.108625
7.100000	1	0.109750
7.116667	1	0.111750
7.133333	1	0.112625
7.150000	1	0.112500
7.166667	1	0.112750
7.183333	1	0.114250
7.200000	1	0.114250
7.216667	1	0.114250
7.233333	1	0.113375
7.250000	1	0.112375
7.266667	1	0.111375
7.283333	1	0.109500
7.300000	1	0.107625
7.316667	1	0.105125
7.333333	1	0.102625
7.350000	1	0.100250
7.366667	1	0.097500
7.383333	1	0.094375
7.400000	1	0.091250
7.416667	1	0.087375
7.433333	1	0.083500
7.450000	1	0.079500
7.466667	1	0.075625
7.483333	1	0.071875
7.500000	1	0.067500
7.516667	1	0.062625
7.533333	1	0.058500
7.550000	1	0.055000
7.566667	1	0.051250
7.583333	1	0.047000
7.600000	1	0.043000
7.616667	1	0.039500
7.633333	1	0.036250
7.650000	1	0.032750
7.666667	1	0.028750
7.683333	1	0.024625
7.700000	1	0.021125
7.716667	1	0.017875
7.733333	1	0.014375
7.750000	1	0.010875
7.766667	1	0.008250
7.783333	1	0.005375
7.800000	1	0.002500
7.816667	1	-0.000750
7.833333	1	-0.003375
7.850000	1	-0.006000
7.866667	1	-0.008750
7.883333	1	-0.011000
7.900000	1	-0.013250
7.916667	1	-0.014750
7.933333	1	-0.016625
7.950000	1	-0.018625
7.966667	1	-0.020875
7.983333	1	-0.022875
8.000000	1	-0.024250
8.016667	1	-0.025875
8.033333	1	-0.028125
8.050000	1	-0.029250
8.066667	1	-0.030125
8.083333	1	-0.031750
8.100000	1	-0.032875
8.116667	1	-0.033375
8.133333	1	-0.034375
8.150000	1	-0.034125
8.166667	1	-0.034375
8.183333	1	-0.035000
8.200000	1	-0.034625
8.216667	1	-0.033750
8.233333	1	-0.033125
8.250000	1	-0.032375
8.266667	1	-0.032000
8.283333	1	-0.030875
8.300000	1	-0.029000
8.316667	1	-0.028000
8.333333	1	-0.026500
8.350000	1	-0.023500
8.366667	1	-0.021000
8.383333	1	-0.018500
8.400000	1	-0.016375
8.416667	1	-0.014500
8.433333	1	-0.012125
8.450000	1	-0.010000
8.466667	1	-0.007875
8.483333	1	-0.005125
8.500000	1	-0.002000
8.516667	1	0.000500
8.533333	1	0.002375
8.550000	1	0.005375
8.566667	1	0.008000
8.583333	1	0.010250
8.600000	1	0.011250
8.616667	1	0.013125
8.633333	1	0.014750
8.650000	1	0.016500
8.666667	1	0.018125
8.683333	1	0.019250
8.700000	1	0.019500
8.716667	1	0.020375
8.733333	1	0.020625
8.750000	1	0.020375
8.766667	1	0.020000
8.783333	1	0.019625
8.800000	1	0.018625
8.816667	1	0.017875
8.833333	1	0.015875
8.850000	1	0.015000
8.866667	1	0.013500
8.883333	1	0.012500
8.900000	1	0.011125
8.916667	1	0.009375
8.933333	1	0.007250
8.950000	1	0.005750
8.966667	1	0.003750
8.983333	1	0.001500
9.000000	1	0.000250
9.016667	1	-0.001000
9.033333	1	-0.002250
9.050000	1	-0.004125
9.066667	1	-0.006125
9.083333	1	-0.007500
9.100000	1	-0.009125
9.116667	1	-0.010750
9.133333	1	-0.011250
9.150000	1	-0.012125
9.166667	1	-0.012500
9.183333	1	-0.013125
9.200000	1	-0.013625
9.216667	1	-0.014375
9.233333	1	-0.014250
9.250000	1	-0.014750
9.266667	1	-0.015625
9.283333	1	-0.015500
9.300000	1	-0.015875
9.316667	1	-0.016125
9.333333	1	-0.016250
9.350000	1	-0.016625
9.366667	1	-0.016250
9.383333	1	-0.016875
9.400000	1	-0.017375
9.416667	1	-0.017375
9.433333	1	-0.017625
9.450000	1	-0.018000
9.466667	1	-0.019000
9.483333	1	-0.018875
9.500000	1	-0.019125
9.516667	1	-0.020125
9.533333	1	-0.020750
9.550000	1	-0.021375
9.566667	1	-0.022375
9.583333	1	-0.022875
9.600000	1	-0.023750
9.616667	1	-0.024125
9.633333	1	-0.025125
9.650000	1	-0.026000
9.666667	1	-0.027375
9.683333	1	-0.028750
9.700000	1	-0.029500
9.716667	1	-0.030125
9.733333	1	-0.030500
9.750000	1	-0.031625
9.766667	1	-0.032375
9.783333	1	-0.033500
9.800000	1	-0.034000
9.816667	1	-0.034750
9.833333	1	-0.034750
9.850000	1	-0.035875
9.866667	1	-0.036625
9.883333	1	-0.036875
9.900000	1	-0.036750
9.916667	1	-0.036875
9.933333	1	-0.036250
9.950000	1	-0.035625
9.966667	1	-0.035250
9.983333	1	-0.034125
10.000000	1	-0.033125
10.016667	1	-0.031750
10.033333	1	-0.029750
10.050000	1	-0.027875
10.066667	1	-0.025125
10.083333	1	-0.022125
10.100000	1	-0.018000
10.116667	1	-0.014125
10.133333	1	-0.009750
10.150000	1	-0.004000
10.166667	1	0.002625
10.183333	1	0.010500
10.200000	1	0.018250
10.216667	1	0.027625
10.233333	1	0.037375
10.250000	1	0.049000
10.266667	1	0.061375
10.283333	1	0.076750
10.300000	1	0.092875
10.316667	1	0.112000
10.333333	1	0.132875
10.350000	1	0.156125
10.366667	1	0.181000
10.383333	1	0.206500
10.400000	1	0.231500
10.416667	1	0.253875
10.433333	1	0.270875
10.450000	1	0.282125
10.466667	1	0.290500
10.483333	1	0.304125
10.500000	1	0.336375
10.516667	1	0.411625
10.533333	1	0.563750
10.550000	1	0.833000
10.566667	1	1.264000
10.583333	1	1.900500
10.600000	1	2.783875
10.616667	1	3.944875
10.633333	1	5.407875
10.650000	1	7.182000
10.666667	1	9.274000
10.683333	1	11.676875
10.700000	1	14.375625
10.716667	1	17.344375
10.733333	1	20.546000
10.750000	1	23.936625
10.766667	1	27.459125
10.783333	1	31.043125
10.800000	1	34.600500
10.816667	1	38.013375
10.833333	1	41.125625
10.850000	1	43.738875
10.866667	1	45.615875
10.883333	1	46.505625
10.900000	1	46.197000
10.916667	1	44.590875
10.933333	1	41.755500
10.950000	1	37.937625
10.966667	1	33.511000
10.983333	1	28.881125
11.000000	1	24.397875
11.016667	1	20.304750
11.033333	1	16.733375
11.050000	1	13.719500
11.066667	1	11.237875
11.083333	1	9.233375
11.100000	1	7.639250
11.116667	1	6.385000
11.133333	1	5.406000
11.150000	1	4.644500
11.166667	1	4.052000
11.183333	1	3.588000
11.200000	1	3.222000
11.216667	1	2.928500
11.233333	1	2.691000
11.250000	1	2.495000
11.266667	1	2.331625
11.283333	1	2.193250
11.300000	1	2.074500
11.316667	1	1.969875
11.333333	1	1.877250
11.350000	1	1.794500
11.366667	1	1.720625
11.383333	1	1.652500
11.400000	1	1.591500
11.416667	1	1.536625
11.433333	1	1.487625
11.450000	1	1.443500
11.466667	1	1.403750
11.483333	1	1.367875
11.500000	1	1.336750
11.516667	1	1.308250
11.533333	1	1.282875
11.550000	1	1.260125
11.566667	1	1.240000
11.583333	1	1.221750
11.600000	1	1.206000
11.616667	1	1.191250
11.633333	1	1.178375
11.650000	1	1.167000
11.666667	1	1.155000
11.683333	1	1.145500
11.700000	1	1.136625
11.716667	1	1.128125
11.733333	1	1.120750
11.750000	1	1.114125
11.766667	1	1.108125
11.783333	1	1.103125
11.800000	1	1.099000
11.816667	1	1.095125
11.833333	1	1.091875
11.850000	1	1.090500
11.866667	1	1.089625
11.883333	1	1.089375
11.900000	1	1.089875
11.916667	1	1.090750
11.933333	1	1.091875
11.950000	1	1.093000
11.966667	1	1.092875
11.983333	1	1.092625
12.000000	1	1.091375
12.016667	1	1.090375
12.033333	1	1.089000
12.050000	1	1.087875
12.066667	1	1.087125
12.083333	1	1.085750
12.100000	1	1.085250
12.116667	1	1.085250
12.133333	1	1.086125
12.150000	1	1.087625
12.166667	1	1.089500
12.183333	1	1.092500
12.200000	1	1.096625
12.216667	1	1.101500
12.233333	1	1.107875
12.250000	1	1.116375
12.266667	1	1.127250
12.283333	1	1.141500
12.300000	1	1.159375
12.316667	1	1.183375
12.333333	1	1.215500
12.350000	1	1.259875
12.366667	1	1.319500
12.383333	1	1.400875
12.400000	1	1.513250
12.416667	1	1.666875
12.433333	1	1.878375
12.450000	1	2.167500
12.466667	1	2.560125
12.483333	1	3.087750
12.500000	1	3.789375
12.516667	1	4.708625
12.533333	1	5.893625
12.550000	1	7.393875
12.566667	1	9.259000
12.583333	1	11.531625
12.600000	1	14.242250
12.616667	1	17.401375
12.633333	1	21.000125
12.650000	1	24.999750
12.666667	1	29.330000
12.683333	1	33.880750
12.700000	1	38.507750
12.716667	1	43.037000
12.733333	1	47.278250
12.750000	1	51.038000
12.766667	1	54.136000
12.783333	1	56.425625
12.800000	1	57.806250
12.816667	1	58.235375
12.833333	1	57.728750
12.850000	1	56.359750
12.866667	1	54.246625
12.883333	1	51.549625
12.900000	1	48.448625
12.916667	1	45.127750
12.933333	1	41.758500
12.950000	1	38.479875
12.966667	1	35.385750
12.983333	1	32.516500
13.000000	1	29.855875
13.016667	1	27.342000
13.033333	1	24.892250
13.050000	1	22.430875
13.066667	1	19.918875
13.083333	1	17.360875
13.100000	1	14.810250
13.116667	1	12.365125
13.133333	1	10.139625
13.150000	1	8.225750
13.166667	1	6.658625
13.183333	1	5.420000
13.200000	1	4.460875
13.216667	1	3.724500
13.233333	1	3.160250
13.250000	1	2.727000
13.266667	1	2.392125
13.283333	1	2.132000
13.300000	1	1.927125
13.316667	1	1.763500
13.333333	1	1.630375
13.350000	1	1.521000
13.366667	1	1.429625
13.383333	1	1.350875
13.400000	1	1.283375
13.416667	1	1.225750
13.433333	1	1.174875
13.450000	1	1.129875
13.466667	1	1.090750
13.483333	1	1.055625
13.500000	1	1.025250
13.516667	1	0.997875
13.533333	1	0.975125
13.550000	1	0.956000
13.566667	1	0.939750
13.583333	1	0.926375
13.600000	1	0.916125
13.616667	1	0.907500
13.633333	1	0.902250
13.650000	1	0.899250
13.666667	1	0.897625
13.683333	1	0.897250
13.700000	1	0.897375
13.716667	1	0.898750
13.733333	1	0.899500
13.750000	1	0.900000
13.766667	1	0.900125
13.783333	1	0.898250
13.800000	1	0.894750
13.816667	1	0.889375
13.833333	1	0.882375
13.850000	1	0.873000
13.866667	1	0.862500
13.883333	1	0.851000
13.900000	1	0.838125
13.916667	1	0.824125
13.933333	1	0.811250
13.950000	1	0.797875
13.966667	1	0.784875
13.983333	1	0.772750
14.000000	1	0.761250
14.016667	1	0.751250
14.033333	1	0.741500
14.050000	1	0.732250
14.066667	1	0.723500
14.083333	1	0.715375
14.100000	1	0.708000
14.116667	1	0.700750
14.133333	1	0.693875
14.150000	1	0.687250
14.166667	1	0.680875
14.183333	1	0.675000
14.200000	1	0.669000
14.216667	1	0.663625
14.233333	1	0.658125
14.250000	1	0.653625
14.266667	1	0.649125
14.283333	1	0.644875
14.300000	1	0.641125
14.316667	1	0.638625
14.333333	1	0.636250
14.350000	1	0.634875
14.366667	1	0.634125
14.383333	1	0.634125
14.400000	1	0.635625
14.416667	1	0.638375
14.433333	1	0.641125
14.450000	1	0.645375
14.466667	1	0.650625
14.483333	1	0.656625
14.500000	1	0.663000
14.516667	1	0.669500
14.533333	1	0.675875
14.550000	1	0.682625
14.566667	1	0.688375
14.583333	1	0.694625
14.600000	1	0.701125
14.616667	1	0.708000
14.633333	1	0.715375
14.650000	1	0.724625
14.666667	1	0.736125
14.683333	1	0.751250
14.700000	1	0.769500
14.716667	1	0.792375
14.733333	1	0.819750
14.750000	1	0.852375
14.766667	1	0.890500
14.783333	1	0.932875
14.800000	1	0.979125
14.816667	1	1.028625
14.833333	1	1.079250
14.850000	1	1.129625
14.866667	1	1.175375
14.883333	1	1.216750
14.900000	1	1.249625
14.916667	1	1.273875
14.933333	1	1.286750
14.950000	1	1.286750
14.966667	1	1.275000
14.983333	1	1.251000
15.000000	1	1.216500
15.016667	1	1.173375
15.033333	1	1.122875
15.050000	1	1.068000
15.066667	1	1.010125
15.083333	1	0.951500
15.100000	1	0.895375
15.116667	1	0.842750
15.133333	1	0.794125
15.150000	1	0.751250
15.166667	1	0.714250
15.183333	1	0.683125
15.200000	1	0.657375
15.216667	1	0.637875
15.233333	1	0.624000
15.250000	1	0.614375
15.266667	1	0.609375
15.283333	1	0.608125
15.300000	1	0.611375
15.316667	1	0.618500
15.333333	1	0.629750
15.350000	1	0.645375
15.366667	1	0.665375
15.383333	1	0.689625
15.400000	1	0.717750
15.416667	1	0.750500
15.433333	1	0.786750
15.450000	1	0.826625
15.466667	1	0.869750
15.483333	1	0.914500
15.500000	1	0.959125
15.516667	1	1.002875
15.533333	1	1.043500
15.550000	1	1.080625
15.566667	1	1.111000
15.583333	1	1.134625
15.600000	1	1.150000
15.616667	1	1.157000
15.633333	1	1.153500
15.650000	1	1.141875
15.666667	1	1.122125
15.683333	1	1.095125
15.700000	1	1.063375
15.716667	1	1.028250
15.733333	1	0.990750
15.750000	1	0.953375
15.766667	1	0.916375
15.783333	1	0.880750
15.800000	1	0.847500
15.816667	1	0.816750
15.833333	1	0.789125
15.850000	1	0.764125
15.866667	1	0.741500
15.883333	1	0.720750
15.900000	1	0.702500
15.916667	1	0.685750
15.933333	1	0.671000
15.950000	1	0.657875
15.966667	1	0.646125
15.983333	1	0.635375
16.000000	1	0.627250
16.016667	1	0.620125
16.033333	1	0.615125
16.050000	1	0.611250
16.066667	1	0.608375
16.083333	1	0.607000
16.100000	1	0.607625
16.116667	1	0.609375
16.133333	1	0.611875
16.150000	1	0.615375
16.166667	1	0.619500
16.183333	1	0.624625
16.200000	1	0.629375
16.216667	1	0.635000
16.233333	1	0.640000
16.250000	1	0.643625
16.266667	1	0.648000
16.283333	1	0.650750
16.300000	1	0.653000
16.316667	1	0.654500
16.333333	1	0.655000
16.350000	1	0.656000
16.366667	1	0.655625
16.383333	1	0.655000
16.400000	1	0.654250
16.416667	1	0.653250
16.433333	1	0.651625
16.450000	1	0.652000
16.466667	1	0.653000
16.483333	1	0.654125
16.500000	1	0.657000
16.516667	1	0.661000
16.533333	1	0.666375
16.550000	1	0.672625
16.566667	1	0.680875
16.583333	1	0.690000
16.600000	1	0.699750
16.616667	1	0.710625
16.633333	1	0.722125
16.650000	1	0.732875
16.666667	1	0.743500
16.683333	1	0.754000
16.700000	1	0.763500
16.716667	1	0.772250
16.733333	1	0.781500
16.750000	1	0.789625
16.766667	1	0.796750
16.783333	1	0.804000
16.800000	1	0.811125
16.816667	1	0.818000
16.833333	1	0.826375
16.850000	1	0.834500
16.866667	1	0.843000
16.883333	1	0.851500
16.900000	1	0.860125
16.916667	1	0.869000
16.933333	1	0.877500
16.950000	1	0.885750
16.966667	1	0.892750
16.983333	1	0.898375
17.000000	1	0.903625
17.016667	1	0.907125
17.033333	1	0.908875
17.050000	1	0.909625
17.066667	1	0.909125
17.083333	1	0.907875
17.100000	1	0.906250
17.116667	1	0.903750
17.133333	1	0.901625
17.150000	1	0.899625
17.166667	1	0.898000
17.183333	1	0.897750
17.200000	1	0.897625
17.216667	1	0.898125
17.233333	1	0.899500
17.250000	1	0.901125
17.266667	1	0.904000
17.283333	1	0.907250
17.300000	1	0.911875
17.316667	1	0.916750
17.333333	1	0.922125
17.350000	1	0.928000
17.366667	1	0.933625
17.383333	1	0.939500
17.400000	1	0.945625
17.416667	1	0.951250
17.433333	1	0.956250
17.450000	1	0.960875
17.466667	1	0.964375
17.483333	1	0.966375
17.500000	1	0.967375
17.516667	1	0.966875
17.533333	1	0.964500
17.550000	1	0.961125
17.566667	1	0.956625
17.583333	1	0.949750
17.600000	1	0.941875
17.616667	1	0.931750
17.633333	1	0.921125
17.650000	1	0.908000
17.666667	1	0.894125
17.683333	1	0.880125
17.700000	1	0.865375
17.716667	1	0.850625
17.733333	1	0.835250
17.750000	1	0.820750
17.766667	1	0.806250
17.783333	1	0.791750
17.800000	1	0.778000
17.816667	1	0.765125
17.833333	1	0.752500
17.850000	1	0.740875
17.866667	1	0.729625
17.883333	1	0.719375
17.900000	1	0.709500
17.916667	1	0.700375
17.933333	1	0.691125
17.950000	1	0.683500
17.966667	1	0.676500
17.983333	1	0.669750
18.000000	1	0.663625
18.016667	1	0.657500
18.033333	1	0.651875
18.050000	1	0.645750
18.066667	1	0.640375
18.083333	1	0.634625
18.100000	1	0.629750
18.116667	1	0.624625
18.133333	1	0.619000
18.150000	1	0.613625
18.166667	1	0.609750
18.183333	1	0.605000
18.200000	1	0.600375
18.216667	1	0.596625
18.233333	1	0.592625
18.250000	1	0.588750
18.266667	1	0.585625
18.283333	1	0.583750
18.300000	1	0.582375
18.316667	1	0.581375
18.333333	1	0.580625
18.350000	1	0.580375
18.366667	1	0.580625
18.383333	1	0.582125
18.400000	1	0.584125
18.416667	1	0.586500
18.433333	1	0.588875
18.450000	1	0.591875
18.466667	1	0.596125
18.483333	1	0.601375
18.500000	1	0.607500
18.516667	1	0.615250
18.533333	1	0.623625
18.550000	1	0.633500
18.566667	1	0.645625
18.583333	1	0.659625
18.600000	1	0.675500
18.616667	1	0.693125
18.633333	1	0.713125
18.650000	1	0.735625
18.666667	1	0.759750
18.683333	1	0.786750
18.700000	1	0.815125
18.716667	1	0.846375
18.733333	1	0.877750
18.750000	1	0.910875
18.766667	1	0.946250
18.783333	1	0.982750
18.800000	1	1.019500
18.816667	1	1.056625
18.833333	1	1.093375
18.850000	1	1.129125
18.866667	1	1.163125
18.883333	1	1.194625
18.900000	1	1.223375
18.916667	1	1.248750
18.933333	1	1.270125
18.950000	1	1.286000
18.966667	1	1.296875
18.983333	1	1.301500
19.000000	1	1.299750
19.016667	1	1.291875
19.033333	1	1.277375
19.050000	1	1.256500
19.066667	1	1.229375
19.083333	1	1.197125
19.100000	1	1.160000
19.116667	1	1.119125
19.133333	1	1.074750
19.150000	1	1.028875
19.166667	1	0.981500
19.183333	1	0.934500
19.200000	1	0.887625
19.216667	1	0.842500
19.233333	1	0.799500
19.250000	1	0.759750
19.266667	1	0.724125
19.283333	1	0.692625
19.300000	1	0.665875
19.316667	1	0.644500
19.333333	1	0.628625
19.350000	1	0.616875
19.366667	1	0.611250
19.383333	1	0.611250
19.400000	1	0.616000
19.416667	1	0.626250
19.433333	1	0.641500
19.450000	1	0.661250
19.466667	1	0.684875
19.483333	1	0.713125
19.500000	1	0.744125
19.516667	1	0.778625
19.533333	1	0.814875
19.550000	1	0.852750
19.566667	1	0.891375
19.583333	1	0.930000
19.600000	1	0.967250
19.616667	1	1.002875
19.633333	1	1.035500
19.650000	1	1.064375
19.666667	1	1.088750
19.683333	1	1.108125
19.700000	1	1.121500
19.716667	1	1.129250
19.733333	1	1.131375
19.750000	1	1.128000
19.766667	1	1.118250
19.783333	1	1.103500
19.800000	1	1.084000
19.816667	1	1.060625
19.833333	1	1.033750
19.850000	1	1.004125
19.866667	1	0.971375
19.883333	1	0.937500
19.900000	1	0.902250
19.916667	1	0.867625
19.933333	1	0.833000
19.950000	1	0.798750
19.966667	1	0.765000
19.983333	1	0.733375
20.000000	1	0.703375
20.016667	1	0.675125
20.033333	1	0.649250
20.050000	1	0.625375
20.066667	1	0.604875
20.083333	1	0.586875
20.100000	1	0.572250
20.116667	1	0.560250
20.133333	1	0.551625
20.150000	1	0.545125
20.166667	1	0.542125
20.183333	1	0.541500
20.200000	1	0.544125
20.216667	1	0.548750
20.233333	1	0.555500
20.250000	1	0.564125
20.266667	1	0.574625
20.283333	1	0.586875
20.300000	1	0.599000
20.316667	1	0.612250
20.333333	1	0.625500
20.350000	1	0.638000
20.366667	1	0.649000
20.383333	1	0.658625
20.400000	1	0.667375
20.416667	1	0.674375
20.433333	1	0.678875
20.450000	1	0.682250
20.466667	1	0.683500
20.483333	1	0.684625
20.500000	1	0.685500
20.516667	1	0.686500
20.533333	1	0.688750
20.550000	1	0.693125
20.566667	1	0.700875
20.583333	1	0.713250
20.600000	1	0.729875
20.616667	1	0.753000
20.633333	1	0.782000
20.650000	1	0.817875
20.666667	1	0.861625
20.683333	1	0.912375
20.700000	1	0.970750
20.716667	1	1.036000
20.733333	1	1.106625
20.750000	1	1.182375
20.766667	1	1.261000
20.783333	1	1.341375
20.800000	1	1.421500
20.816667	1	1.497250
20.833333	1	1.568500
20.850000	1	1.631750
20.866667	1	1.685500
20.883333	1	1.726875
20.900000	1	1.755000
20.916667	1	1.768250
20.933333	1	1.767375
20.950000	1	1.751500
20.966667	1	1.721000
20.983333	1	1.676125
21.000000	1	1.619375
21.016667	1	1.552000
21.033333	1	1.475625
21.050000	1	1.395000
21.066667	1	1.311000
21.083333	1	1.225000
21.100000	1	1.139750
21.116667	1	1.057000
21.133333	1	0.978375
21.150000	1	0.904500
21.166667	1	0.835375
21.183333	1	0.772875
21.200000	1	0.716000
21.216667	1	0.665000
21.233333	1	0.621125
21.250000	1	0.583000
21.266667	1	0.550750
21.283333	1	0.522000
21.300000	1	0.497125
21.316667	1	0.477125
21.333333	1	0.460125
21.350000	1	0.446375
21.366667	1	0.434875
21.383333	1	0.425875
21.400000	1	0.418625
21.416667	1	0.412250
21.433333	1	0.406875
21.450000	1	0.402875
21.466667	1	0.400000
21.483333	1	0.398000
21.500000	1	0.395375
21.516667	1	0.394375
21.533333	1	0.393750
21.550000	1	0.393875
21.566667	1	0.394750
21.583333	1	0.395000
21.600000	1	0.395125
21.616667	1	0.395750
21.633333	1	0.397875
21.650000	1	0.399750
21.666667	1	0.402875
21.683333	1	0.405750
21.700000	1	0.409000
21.716667	1	0.411375
21.733333	1	0.415625
21.750000	1	0.420125
21.766667	1	0.424625
21.783333	1	0.429375
21.800000	1	0.434000
21.816667	1	0.439125
21.833333	1	0.444125
21.850000	1	0.449500
21.866667	1	0.454750
21.883333	1	0.461375
21.900000	1	0.466625
21.916667	1	0.472125
21.933333	1	0.477625
21.950000	1	0.483375
21.966667	1	0.490500
21.983333	1	0.496875
22.000000	1	0.502875
22.016667	1	0.508625
22.033333	1	0.513625
22.050000	1	0.518625
22.066667	1	0.524000
22.083333	1	0.529250
22.100000	1	0.533750
22.116667	1	0.538250
22.133333	1	0.541875
22.150000	1	0.545250
22.166667	1	0.548000
22.183333	1	0.548875
22.200000	1	0.548750
22.216667	1	0.547375
22.233333	1	0.544750
22.250000	1	0.541250
22.266667	1	0.536125
22.283333	1	0.529625
22.300000	1	0.523375
22.316667	1	0.514625
22.333333	1	0.504875
22.350000	1	0.494000
22.366667	1	0.483125
22.383333	1	0.470875
22.400000	1	0.457750
22.416667	1	0.444625
22.433333	1	0.432250
22.450000	1	0.419875
22.466667	1	0.407625
22.483333	1	0.395750
22.500000	1	0.384000
22.516667	1	0.372875
22.533333	1	0.362375
22.550000	1	0.353125
22.566667	1	0.344625
22.583333	1	0.337000
22.600000	1	0.329250
22.616667	1	0.322000
22.633333	1	0.315875
22.650000	1	0.310375
22.666667	1	0.305750
22.683333	1	0.301250
22.700000	1	0.297625
22.716667	1	0.294250
22.733333	1	0.290875
22.750000	1	0.287625
22.766667	1	0.285125
22.783333	1	0.282375
22.800000	1	0.280125
22.816667	1	0.278125
22.833333	1	0.275750
22.850000	1	0.274500
22.866667	1	0.272500
22.883333	1	0.270875
22.900000	1	0.270500
22.916667	1	0.270375
22.933333	1	0.269375
22.950000	1	0.268750
22.966667	1	0.268500
22.983333	1	0.268375
23.000000	1	0.269250
23.016667	1	0.269625
23.033333	1	0.270000
23.050000	1	0.271000
23.066667	1	0.272250
23.083333	1	0.273250
23.100000	1	0.274375
23.116667	1	0.275875
23.133333	1	0.278250
23.150000	1	0.281000
23.166667	1	0.283375
23.183333	1	0.286000
23.200000	1	0.289250
23.216667	1	0.292875
23.233333	1	0.297500
23.250000	1	0.302875
23.266667	1	0.309500
23.283333	1	0.317250
23.300000	1	0.327375
23.316667	1	0.340125
23.333333	1	0.355750
23.350000	1	0.374375
23.366667	1	0.398000
23.383333	1	0.427125
23.400000	1	0.462125
23.416667	1	0.504500
23.433333	1	0.555000
23.450000	1	0.615000
23.466667	1	0.685500
23.483333	1	0.769750
23.500000	1	0.867000
23.516667	1	0.979250
23.533333	1	1.108375
23.550000	1	1.255625
23.566667	1	1.422375
23.583333	1	1.608875
23.600000	1	1.816750
23.616667	1	2.045625
23.633333	1	2.296500
23.650000	1	2.565875
23.666667	1	2.855875
23.683333	1	3.163875
23.700000	1	3.487625
23.716667	1	3.823750
23.733333	1	4.169750
23.750000	1	4.520875
23.766667	1	4.870125
23.783333	1	5.212250
23.800000	1	5.541000
23.816667	1	5.849875
23.833333	1	6.133250
23.850000	1	6.384125
23.866667	1	6.597375
23.883333	1	6.769375
23.900000	1	6.893750
23.916667	1	6.969125
23.933333	1	6.992250
23.950000	1	6.963750
23.966667	1	6.882875
23.983333	1	6.753750
24.000000	1	6.578250
24.016667	1	6.361750
24.033333	1	6.109375
24.050000	1	5.827875
24.066667	1	5.521875
24.083333	1	5.199250
24.100000	1	4.865375
24.116667	1	4.526625
24.133333	1	4.187750
24.150000	1	3.855250
24.166667	1	3.532625
24.183333	1	3.224000
24.200000	1	2.932375
24.216667	1	2.658625
24.233333	1	2.405000
24.250000	1	2.172250
24.266667	1	1.959125
24.283333	1	1.766875
24.300000	1	1.594000
24.316667	1	1.439250
24.333333	1	1.302750
24.350000	1	1.181375
24.366667	1	1.076250
24.383333	1	0.983875
24.400000	1	0.903625
24.416667	1	0.834875
24.433333	1	0.775625
24.450000	1	0.725125
24.466667	1	0.682375
24.483333	1	0.645750
24.500000	1	0.614750
24.516667	1	0.588250
24.533333	1	0.565375
24.550000	1	0.546000
24.566667	1	0.529625
24.583333	1	0.515750
24.600000	1	0.504000
24.616667	1	0.493750
24.633333	1	0.484875
24.650000	1	0.476250
24.666667	1	0.468250
24.683333	1	0.460875
24.700000	1	0.453875
24.716667	1	0.446500
24.733333	1	0.439625
24.750000	1	0.432875
24.766667	1	0.426000
24.783333	1	0.419000
24.800000	1	0.412500
24.816667	1	0.405625
24.833333	1	0.398625
24.850000	1	0.392000
24.866667	1	0.385125
24.883333	1	0.378750
24.900000	1	0.372500
24.916667	1	0.365875
24.933333	1	0.358875
24.950000	1	0.352125
24.966667	1	0.345250
24.983333	1	0.338625
25.000000	1	0.332500
25.016667	1	0.325500
25.033333	1	0.319375
25.050000	1	0.312750
25.066667	1	0.306500
25.083333	1	0.301000
25.100000	1	0.295375
25.116667	1	0.290125
25.133333	1	0.284125
25.150000	1	0.278375
25.166667	1	0.274000
25.183333	1	0.269000
25.200000	1	0.264375
25.216667	1	0.260000
25.233333	1	0.256375
25.250000	1	0.252500
25.266667	1	0.249250
25.283333	1	0.247375
25.300000	1	0.245750
25.316667	1	0.244875
25.333333	1	0.243875
25.350000	1	0.243125
25.366667	1	0.242750
25.383333	1	0.243750
25.400000	1	0.244500
25.416667	1	0.246500
25.433333	1	0.248125
25.450000	1	0.251000
25.466667	1	0.253625
25.483333	1	0.256750
25.500000	1	0.259625
25.516667	1	0.263500
25.533333	1	0.266875
25.550000	1	0.270750
25.566667	1	0.274250
25.583333	1	0.278000
25.600000	1	0.281625
25.616667	1	0.285125
25.633333	1	0.289125
25.650000	1	0.292875
25.666667	1	0.296750
25.683333	1	0.300375
25.700000	1	0.303750
25.716667	1	0.307250
25.733333	1	0.310500
25.750000	1	0.312875
25.766667	1	0.316500
25.783333	1	0.319375
25.800000	1	0.322000
25.816667	1	0.324375
25.833333	1	0.327000
25.850000	1	0.329500
25.866667	1	0.332000
25.883333	1	0.334750
25.900000	1	0.337625
25.916667	1	0.339250
25.933333	1	0.342000
25.950000	1	0.344375
25.966667	1	0.347500
25.983333	1	0.349625
26.000000	1	0.352000
26.016667	1	0.353875
26.033333	1	0.356125
26.050000	1	0.359125
26.066667	1	0.362000
26.083333	1	0.364375
26.100000	1	0.367125
26.116667	1	0.369375
26.133333	1	0.371375
26.150000	1	0.373750
26.166667	1	0.375750
26.183333	1	0.377125
26.200000	1	0.378000
26.216667	1	0.378875
26.233333	1	0.379000
26.250000	1	0.378625
26.266667	1	0.378250
26.283333	1	0.377125
26.300000	1	0.375125
26.316667	1	0.372375
26.333333	1	0.369000
26.350000	1	0.365625
26.366667	1	0.361375
26.383333	1	0.356875
26.400000	1	0.351375
26.416667	1	0.345750
26.433333	1	0.338875
26.450000	1	0.331625
26.466667	1	0.324500
26.483333	1	0.316875
26.500000	1	0.308625
26.516667	1	0.300375
26.533333	1	0.291500
26.550000	1	0.282500
26.566667	1	0.273000
26.583333	1	0.264500
26.600000	1	0.255750
26.616667	1	0.247000
26.633333	1	0.238000
26.650000	1	0.229500
26.666667	1	0.220875
26.683333	1	0.213375
26.700000	1	0.206250
26.716667	1	0.198875
26.733333	1	0.192250
26.750000	1	0.185875
26.766667	1	0.179750
26.783333	1	0.174500
26.800000	1	0.168625
26.816667	1	0.164125
26.833333	1	0.160250
26.850000	1	0.157500
26.866667	1	0.154500
26.883333	1	0.152875
26.900000	1	0.152125
26.916667	1	0.151875
26.933333	1	0.151750
26.950000	1	0.151875
26.966667	1	0.152875
26.983333	1	0.154875
27.000000	1	0.157625
27.016667	1	0.160000
27.033333	1	0.163750
27.050000	1	0.168000
27.066667	1	0.173125
27.083333	1	0.177875
27.100000	1	0.183750
27.116667	1	0.190500
27.133333	1	0.197750
27.150000	1	0.204750
27.166667	1	0.213125
27.183333	1	0.222500
27.200000	1	0.232625
27.216667	1	0.243000
27.233333	1	0.254875
27.250000	1	0.268750
27.266667	1	0.283125
27.283333	1	0.299750
27.300000	1	0.318250
27.316667	1	0.338250
27.333333	1	0.361000
27.350000	1	0.386750
27.366667	1	0.415875
27.383333	1	0.448875
27.400000	1	0.485375
27.416667	1	0.526375
27.433333	1	0.572750
27.450000	1	0.624875
27.466667	1	0.683875
27.483333	1	0.749125
27.500000	1	0.821500
27.516667	1	0.902375
27.533333	1	0.990125
27.550000	1	1.086750
27.566667	1	1.192125
27.583333	1	1.306250
27.600000	1	1.429250
27.616667	1	1.561500
27.633333	1	1.701750
27.650000	1	1.850125
27.666667	1	2.005625
27.683333	1	2.167875
27.700000	1	2.335375
27.716667	1	2.506000
27.733333	1	2.679000
27.750000	1	2.852375
27.766667	1	3.023750
27.783333	1	3.190750
27.800000	1	3.352125
27.816667	1	3.504250
27.833333	1	3.645625
27.850000	1	3.774000
27.866667	1	3.887750
27.883333	1	3.983125
27.900000	1	4.059625
27.916667	1	4.114750
27.933333	1	4.148375
27.950000	1	4.158875
27.966667	1	4.146875
27.983333	1	4.111125
28.000000	1	4.053000
28.016667	1	3.973125
28.033333	1	3.872125
28.050000	1	3.752375
28.066667	1	3.615875
28.083333	1	3.465125
28.100000	1	3.302000
28.116667	1	3.130250
28.133333	1	2.951125
28.150000	1	2.768875
28.166667	1	2.585250
28.183333	1	2.403000
28.200000	1	2.224375
28.216667	1	2.050875
28.233333	1	1.884625
28.250000	1	1.726250
28.266667	1	1.576375
28.283333	1	1.437500
28.300000	1	1.308250
28.316667	1	1.189750
28.333333	1	1.082750
28.350000	1	0.986000
28.366667	1	0.899375
28.383333	1	0.822875
28.400000	1	0.755500
28.416667	1	0.697375
28.433333	1	0.647000
28.450000	1	0.603875
28.466667	1	0.568000
28.483333	1	0.538375
28.500000	1	0.514500
28.516667	1	0.495125
28.533333	1	0.480625
28.550000	1	0.469875
28.566667	1	0.463375
28.583333	1	0.459500
28.600000	1	0.457875
28.616667	1	0.458875
28.633333	1	0.461500
28.650000	1	0.465750
28.666667	1	0.470750
28.683333	1	0.477750
28.700000	1	0.485250
28.716667	1	0.493375
28.733333	1	0.502125
28.750000	1	0.510625
28.766667	1	0.519125
28.783333	1	0.527875
28.800000	1	0.535000
28.816667	1	0.541625
28.833333	1	0.547625
28.850000	1	0.553000
28.866667	1	0.557375
28.883333	1	0.559875
28.900000	1	0.561500
28.916667	1	0.561625
28.933333	1	0.559875
28.950000	1	0.556625
28.966667	1	0.551625
28.983333	1	0.544750
29.000000	1	0.536250
29.016667	1	0.525625
29.033333	1	0.513250
29.050000	1	0.499000
29.066667	1	0.482000
29.083333	1	0.463875
29.100000	1	0.443125
29.116667	1	0.420875
29.133333	1	0.396250
29.150000	1	0.368375
29.166667	1	0.339000
29.183333	1	0.308375
29.200000	1	0.275500
29.216667	1	0.240000
29.233333	1	0.202375
29.250000	1	0.162500
29.266667	1	0.120875
29.283333	1	0.077500
29.300000	1	0.033250
29.316667	1	-0.013375
29.333333	1	-0.061750
29.350000	1	-0.111250
29.366667	1	-0.162000
29.383333	1	-0.214125
29.400000	1	-0.267250
29.416667	1	-0.321625
29.433333	1	-0.375750
29.450000	1	-0.429500
29.466667	1	-0.483750
29.483333	1	-0.537625
29.500000	1	-0.590250
29.516667	1	-0.642125
29.533333	1	-0.692375
29.550000	1	-0.740750
29.566667	1	-0.786625
29.583333	1	-0.828750
29.600000	1	-0.868750
29.616667	1	-0.904750
29.633333	1	-0.938375
29.650000	1	-0.967250
29.666667	1	-0.992375
29.683333	1	-1.012375
29.700000	1	-1.028000
29.716667	1	-1.039250
29.733333	1	-1.045625
29.750000	1	-1.047125
29.766667	1	-1.043875
29.783333	1	-1.035875
29.800000	1	-1.022750
29.816667	1	-1.006250
29.833333	1	-0.984500
29.850000	1	-0.959375
29.866667	1	-0.930250
29.883333	1	-0.898250
29.900000	1	-0.863875
29.916667	1	-0.827500
29.933333	1	-0.789000
29.950000	1	-0.748500
29.966667	1	-0.707500
29.983333	1	-0.665750
30.000000	1	-0.622625
30.016667	1	-0.579375
30.033333	1	-0.536500
30.050000	1	-0.494125
30.066667	1	-0.453375
30.083333	1	-0.414125
30.100000	1	-0.376125
30.116667	1	-0.338875
30.133333	1	-0.303250
30.150000	1	-0.269750
30.166667	1	-0.238375
30.183333	1	-0.207875
30.200000	1	-0.179500
30.216667	1	-0.152500
30.233333	1	-0.127500
30.250000	1	-0.105000
30.266667	1	-0.083750
30.283333	1	-0.064500
30.300000	1	-0.047125
30.316667	1	-0.030625
30.333333	1	-0.015750
30.350000	1	-0.001750
30.366667	1	0.010875
30.383333	1	0.022500
30.400000	1	0.033500
30.416667	1	0.043375
30.433333	1	0.053625
30.450000	1	0.063000
30.466667	1	0.071625
30.483333	1	0.079500
30.500000	1	0.087375
30.516667	1	0.095500
30.533333	1	0.103375
30.550000	1	0.111625
30.566667	1	0.120125
30.583333	1	0.129375
30.600000	1	0.139375
30.616667	1	0.149125
30.633333	1	0.160375
30.650000	1	0.172750
30.666667	1	0.186250
30.683333	1	0.200625
30.700000	1	0.216500
30.716667	1	0.234125
30.733333	1	0.254125
30.750000	1	0.276000
30.766667	1	0.300000
30.783333	1	0.329125
30.800000	1	0.360000
30.816667	1	0.395500
30.833333	1	0.435250
30.850000	1	0.479375
30.866667	1	0.529125
30.883333	1	0.584250
30.900000	1	0.645750
30.916667	1	0.714625
30.933333	1	0.791375
30.950000	1	0.876875
30.966667	1	0.971875
30.983333	1	1.076875
31.000000	1	1.192750
31.016667	1	1.319375
31.033333	1	1.457500
31.050000	1	1.608375
31.066667	1	1.771375
31.083333	1	1.946625
31.100000	1	2.133250
31.116667	1	2.333375
31.133333	1	2.544375
31.150000	1	2.766750
31.166667	1	2.999750
31.183333	1	3.241750
31.200000	1	3.492125
31.216667	1	3.748125
31.233333	1	4.008125
31.250000	1	4.269125
31.266667	1	4.529375
31.283333	1	4.786125
31.300000	1	5.036625
31.316667	1	5.278250
31.333333	1	5.507000
31.350000	1	5.721375
31.366667	1	5.917375
31.383333	1	6.094500
31.400000	1	6.248875
31.416667	1	6.378000
31.433333	1	6.481375
31.450000	1	6.556250
31.466667	1	6.602125
31.483333	1	6.619125
31.500000	1	6.606250
31.516667	1	6.563625
31.533333	1	6.492375
31.550000	1	6.394625
31.566667	1	6.269375
31.583333	1	6.120875
31.600000	1	5.950625
31.616667	1	5.759375
31.633333	1	5.550875
31.650000	1	5.328125
31.666667	1	5.094125
31.683333	1	4.850750
31.700000	1	4.600625
31.716667	1	4.346500
31.733333	1	4.092250
31.750000	1	3.838125
31.766667	1	3.587750
31.783333	1	3.341125
31.800000	1	3.101375
31.816667	1	2.869375
31.833333	1	2.646625
31.850000	1	2.433750
31.866667	1	2.232125
31.883333	1	2.041500
31.900000	1	1.862250
31.916667	1	1.695875
31.933333	1	1.539750
31.950000	1	1.396125
31.966667	1	1.263500
31.983333	1	1.141250
32.000000	1	1.029500
32.016667	1	0.927500
32.033333	1	0.833750
32.050000	1	0.749625
32.066667	1	0.673625
32.083333	1	0.605125
32.100000	1	0.543750
32.116667	1	0.489125
32.133333	1	0.440000
32.150000	1	0.396500
32.166667	1	0.357500
32.183333	1	0.322000
32.200000	1	0.290625
32.216667	1	0.263500
32.233333	1	0.239250
32.250000	1	0.218000
32.266667	1	0.198625
32.283333	1	0.181625
32.300000	1	0.166875
32.316667	1	0.154250
32.333333	1	0.142500
32.350000	1	0.132375
32.366667	1	0.123500
32.383333	1	0.114375
32.400000	1	0.107250
32.416667	1	0.100625
32.433333	1	0.095250
32.450000	1	0.090250
32.466667	1	0.085750
32.483333	1	0.081625
32.500000	1	0.078500
32.516667	1	0.075125
32.533333	1	0.072500
32.550000	1	0.070250
32.566667	1	0.067750
32.583333	1	0.065875
32.600000	1	0.063625
32.616667	1	0.061750
32.633333	1	0.061500
32.650000	1	0.060625
32.666667	1	0.059875
32.683333	1	0.059250
32.700000	1	0.058375
32.716667	1	0.058375
32.733333	1	0.058375
32.750000	1	0.058875
32.766667	1	0.059750
32.783333	1	0.060375
32.800000	1	0.060375
32.816667	1	0.060875
32.833333	1	0.061000
32.850000	1	0.062000
32.866667	1	0.062875
32.883333	1	0.063125
32.900000	1	0.064125
32.916667	1	0.065375
32.933333	1	0.066000
32.950000	1	0.067125
32.966667	1	0.067500
32.983333	1	0.068125
33.000000	1	0.069000
33.016667	1	0.070500
33.033333	1	0.071125
33.050000	1	0.072500
33.066667	1	0.073375
33.083333	1	0.074500
33.100000	1	0.075000
33.116667	1	0.075750
33.133333	1	0.076875
33.150000	1	0.078125
33.166667	1	0.079750
33.183333	1	0.081125
33.200000	1	0.082250
33.216667	1	0.083625
33.233333	1	0.085500
33.250000	1	0.086125
33.266667	1	0.087375
33.283333	1	0.088000
33.300000	1	0.089125
33.316667	1	0.090625
33.333333	1	0.092000
33.350000	1	0.093500
33.366667	1	0.095125
33.383333	1	0.095375
33.400000	1	0.096500
33.416667	1	0.097000
33.433333	1	0.097875
33.450000	1	0.098750
33.466667	1	0.099500
33.483333	1	0.100375
33.500000	1	0.100875
33.516667	1	0.101625
33.533333	1	0.102125
33.550000	1	0.102500
33.566667	1	0.103125
33.583333	1	0.104250
33.600000	1	0.105250
33.616667	1	0.105875
33.633333	1	0.106250
33.650000	1	0.106625
33.666667	1	0.107375
33.683333	1	0.107750
33.700000	1	0.108250
33.716667	1	0.108875
33.733333	1	0.108875
33.750000	1	0.109000
33.766667	1	0.109375
33.783333	1	0.109000
33.800000	1	0.108875
33.816667	1	0.108750
33.833333	1	0.109375
33.850000	1	0.109750
33.866667	1	0.110125
33.883333	1	0.109500
33.900000	1	0.109875
33.916667	1	0.111125
33.933333	1	0.111750
33.950000	1	0.111625
33.966667	1	0.112000
33.983333	1	0.112625
34.000000	1	0.113625
34.016667	1	0.114625
34.033333	1	0.115000
34.050000	1	0.116250
34.066667	1	0.116875
34.083333	1	0.118000
34.100000	1	0.118875
34.116667	1	0.120125
34.133333	1	0.122000
34.150000	1	0.122875
34.166667	1	0.124375
34.183333	1	0.125875
34.200000	1	0.127000
34.216667	1	0.128375
34.233333	1	0.130125
34.250000	1	0.132250
34.266667	1	0.133375
34.283333	1	0.135625
34.300000	1	0.136875
34.316667	1	0.138500
34.333333	1	0.140750
34.350000	1	0.142750
34.366667	1	0.143500
34.383333	1	0.145125
34.400000	1	0.146875
34.416667	1	0.148125
34.433333	1	0.149500
34.450000	1	0.151375
34.466667	1	0.152375
34.483333	1	0.153875
34.500000	1	0.154875
34.516667	1	0.155875
34.533333	1	0.156000
34.550000	1	0.156375
34.566667	1	0.157000
34.583333	1	0.157375
34.600000	1	0.158375
34.616667	1	0.158375
34.633333	1	0.158375
34.650000	1	0.159000
34.666667	1	0.159375
34.683333	1	0.158875
34.700000	1	0.157750
34.716667	1	0.156750
34.733333	1	0.156250
34.750000	1	0.156000
34.766667	1	0.155750
34.783333	1	0.155125
34.800000	1	0.154000
34.816667	1	0.152750
34.833333	1	0.151625
34.850000	1	0.150000
34.866667	1	0.149250
34.883333	1	0.147375
34.900000	1	0.146000
34.916667	1	0.144750
34.933333	1	0.142875
34.950000	1	0.141375
34.966667	1	0.139125
34.983333	1	0.136125
35.000000	1	0.133875
35.016667	1	0.132500
35.033333	1	0.130250
35.050000	1	0.127500
35.066667	1	0.126125
35.083333	1	0.124125
35.100000	1	0.122000
35.116667	1	0.120125
35.133333	1	0.118125
35.150000	1	0.116250
35.166667	1	0.114250
35.183333	1	0.112500
35.200000	1	0.110625
35.216667	1	0.108875
35.233333	1	0.107500
35.250000	1	0.106500
35.266667	1	0.105250
35.283333	1	0.104500
35.300000	1	0.104000
35.316667	1	0.103125
35.333333	1	0.103125
35.350000	1	0.102625
35.366667	1	0.102125
35.383333	1	0.102625
35.400000	1	0.103000
35.416667	1	0.103000
35.433333	1	0.103625
35.450000	1	0.104125
35.466667	1	0.104625
35.483333	1	0.105125
35.500000	1	0.105875
35.516667	1	0.106750
35.533333	1	0.107625
35.550000	1	0.108000
35.566667	1	0.108875
35.583333	1	0.109625
35.600000	1	0.110000
35.616667	1	0.110625
35.633333	1	0.111375
35.650000	1	0.110625
35.666667	1	0.110875
35.683333	1	0.110875
35.700000	1	0.110750
35.716667	1	0.110125
35.733333	1	0.109375
35.750000	1	0.108875
35.766667	1	0.108625
35.783333	1	0.108375
35.800000	1	0.107500
35.816667	1	0.106500
35.833333	1	0.105250
35.850000	1	0.103750
35.866667	1	0.102250
35.883333	1	0.100625
35.900000	1	0.099750
35.916667	1	0.098750
35.933333	1	0.097375
35.950000	1	0.096375
35.966667	1	0.095625
35.983333	1	0.094625
36.000000	1	0.093875
36.016667	1	0.093000
36.033333	1	0.092125
36.050000	1	0.091125
36.066667	1	0.091125
36.083333	1	0.090750
36.100000	1	0.090500
36.116667	1	0.090125
36.133333	1	0.090125
36.150000	1	0.090500
36.166667	1	0.091000
36.183333	1	0.091125
36.200000	1	0.091375
36.216667	1	0.091625
36.233333	1	0.092375
36.250000	1	0.092500
36.266667	1	0.093375
36.283333	1	0.093500
36.300000	1	0.093375
36.316667	1	0.093000
36.333333	1	0.092250
36.350000	1	0.092125
36.366667	1	0.091500
36.383333	1	0.090625
36.400000	1	0.089625
36.416667	1	0.088125
36.433333	1	0.086375
36.450000	1	0.084375
36.466667	1	0.082750
36.483333	1	0.080750
36.500000	1	0.079250
36.516667	1	0.077125
36.533333	1	0.074375
36.550000	1	0.072125
36.566667	1	0.070000
36.583333	1	0.067750
36.600000	1	0.065000
36.616667	1	0.062000
36.633333	1	0.058750
36.650000	1	0.056875
36.666667	1	0.055000
36.683333	1	0.052625
36.700000	1	0.050875
36.716667	1	0.048375
36.733333	1	0.046500
36.750000	1	0.045375
36.766667	1	0.044250
36.783333	1	0.042750
36.800000	1	0.041250
36.816667	1	0.040000
36.833333	1	0.039750
36.850000	1	0.038875
36.866667	1	0.038125
36.883333	1	0.037375
36.900000	1	0.037375
36.916667	1	0.037125
36.933333	1	0.037250
36.950000	1	0.037250
36.966667	1	0.038000
36.983333	1	0.038875
37.000000	1	0.039125
37.016667	1	0.040000
37.033333	1	0.040500
37.050000	1	0.041125
37.066667	1	0.042250
37.083333	1	0.043500
37.100000	1	0.044375
37.116667	1	0.044875
37.133333	1	0.045625
37.150000	1	0.046250
37.166667	1	0.046250
37.183333	1	0.047000
37.200000	1	0.047625
37.216667	1	0.047125
37.233333	1	0.047250
37.250000	1	0.047500
37.266667	1	0.047250
37.283333	1	0.047000
37.300000	1	0.047375
37.316667	1	0.046750
37.333333	1	0.045750
37.350000	1	0.044375
37.366667	1	0.042750
37.383333	1	0.042000
37.400000	1	0.041000
37.416667	1	0.039125
37.433333	1	0.037375
37.450000	1	0.035500
37.466667	1	0.033750
37.483333	1	0.032000
37.500000	1	0.029875
37.516667	1	0.027500
37.533333	1	0.025625
37.550000	1	0.023500
37.566667	1	0.021875
37.583333	1	0.019625
37.600000	1	0.017375
37.616667	1	0.015125
37.633333	1	0.014000
37.650000	1	0.012875
37.666667	1	0.011250
37.683333	1	0.010750
37.700000	1	0.010000
37.716667	1	0.009500
37.733333	1	0.008500
37.750000	1	0.007750
37.766667	1	0.007500
37.783333	1	0.007125
37.800000	1	0.006875
37.816667	1	0.007125
37.833333	1	0.006875
37.850000	1	0.007375
37.866667	1	0.008250
37.883333	1	0.009875
37.900000	1	0.010000
37.916667	1	0.010875
37.933333	1	0.011250
37.950000	1	0.013125
37.966667	1	0.014625
37.983333	1	0.015625
38.000000	1	0.016375
38.016667	1	0.017250
38.033333	1	0.018875
38.050000	1	0.019250
38.066667	1	0.019750
38.083333	1	0.020500
38.100000	1	0.022000
38.116667	1	0.023375
38.133333	1	0.023750
38.150000	1	0.025125
38.166667	1	0.026625
38.183333	1	0.027125
38.200000	1	0.028250
38.216667	1	0.029375
38.233333	1	0.030625
38.250000	1	0.031500
38.266667	1	0.033125
38.283333	1	0.034500
38.300000	1	0.035750
38.316667	1	0.037500
38.333333	1	0.038750
38.350000	1	0.039625
38.366667	1	0.041125
38.383333	1	0.043250
38.400000	1	0.044750
38.416667	1	0.046125
38.433333	1	0.047125
38.450000	1	0.048750
38.466667	1	0.050000
38.483333	1	0.051500
38.500000	1	0.052500
38.516667	1	0.053250
38.533333	1	0.054000
38.550000	1	0.054875
38.566667	1	0.055625
38.583333	1	0.056250
38.600000	1	0.056875
38.616667	1	0.057000
38.633333	1	0.056750
38.650000	1	0.055875
38.666667	1	0.056000
38.683333	1	0.055500
38.700000	1	0.054500
38.716667	1	0.053125
38.733333	1	0.051500
38.750000	1	0.050000
38.766667	1	0.048625
38.783333	1	0.047250
38.800000	1	0.044250
38.816667	1	0.042000
38.833333	1	0.040375
38.850000	1	0.038750
38.866667	1	0.036375
38.883333	1	0.034875
38.900000	1	0.033000
38.916667	1	0.030250
38.933333	1	0.028375
38.950000	1	0.026250
38.966667	1	0.024625
38.983333	1	0.022750
39.000000	1	0.021000
39.016667	1	0.019500
39.033333	1	0.018375
39.050000	1	0.016875
39.066667	1	0.016000
39.083333	1	0.015375
39.100000	1	0.014875
39.116667	1	0.013750
39.133333	1	0.013375
39.150000	1	0.012750
39.166667	1	0.012625
39.183333	1	0.013000
39.200000	1	0.013375
39.216667	1	0.013000
39.233333	1	0.013250
39.250000	1	0.013500
39.266667	1	0.013625
39.283333	1	0.013875
39.300000	1	0.014250
39.316667	1	0.014375
39.333333	1	0.014375
39.350000	1	0.014125
39.366667	1	0.014375
39.383333	1	0.014750
39.400000	1	0.014375
39.416667	1	0.014625
39.433333	1	0.014250
39.450000	1	0.014125
39.466667	1	0.014000
39.483333	1	0.013750
39.500000	1	0.013375
39.516667	1	0.012875
39.533333	1	0.012875
39.550000	1	0.012750
39.566667	1	0.012125
39.583333	1	0.011875
39.600000	1	0.011875
39.616667	1	0.011250
39.633333	1	0.011375
39.650000	1	0.010750
39.666667	1	0.010500
39.683333	1	0.009750
39.700000	1	0.009375
39.716667	1	0.008250
39.733333	1	0.008375
39.750000	1	0.008375
39.766667	1	0.008125
39.783333	1	0.007625
39.800000	1	0.006375
39.816667	1	0.005500
39.833333	1	0.005625
39.850000	1	0.004750
39.866667	1	0.004375
39.883333	1	0.003625
39.900000	1	0.003375
39.916667	1	0.002875
39.933333	1	0.002250
39.950000	1	0.001250
39.966667	1	0.000750
39.983333	1	0.000250
40.000000	1	-0.000750
