URL	chrom://bioreactor/micro_cm7/HPLC_Ultimate_3000/Users/markusar/20240727_MA_EsirYCA.seq/685.smp/RI_1.channel/RI_1.chm
Channel	RI_1

Injection Information:
Data Vault	micro_cm7
Sequence	20240727_MA_EsirYCA
Name	Es2_2
Number	7
Position	BA7
Comment	
Processing Method	
Instrument Method	run_25B_method
Type	Unknown
Status	Finished
Inject Time	29.07.2024 17:43:29 +02:00
Volume (µl)	20.0000
Dilution Factor	1.0000
Weight	1.0000

Chromatogram Data Information:
Time Min. (min)	0.000000
Time Max. (min)	40.000000
Data Points	2401
Detector	RI
Generating Data System	Chromeleon 7.3.2.11814
Exporting Data System	Chromeleon 7.3.2.0
Operator	Instrument Controller
Signal Quantity	Refractive 
Signal Unit	µRIU
Signal Min.	-1.090250
Signal Max.	65.716500
Channel	RI_1
Driver Name	RID520Driver.dll
Channel Type	Evaluation
Min. Step (s)	1
Max. Step (s)	1
Average Step (s)	1

Signal Parameter Information:
Signal Info	

Chromatogram Data:
Time (min)	Step (s)	Value (µRIU)
0.000000	n.a.	0.071125
0.016667	1	0.068875
0.033333	1	0.067000
0.050000	1	0.065125
0.066667	1	0.062875
0.083333	1	0.060875
0.100000	1	0.058750
0.116667	1	0.056750
0.133333	1	0.054625
0.150000	1	0.052625
0.166667	1	0.050375
0.183333	1	0.048375
0.200000	1	0.046000
0.216667	1	0.044500
0.233333	1	0.042625
0.250000	1	0.041250
0.266667	1	0.039250
0.283333	1	0.037750
0.300000	1	0.037000
0.316667	1	0.035125
0.333333	1	0.034000
0.350000	1	0.031875
0.366667	1	0.029625
0.383333	1	0.027625
0.400000	1	0.024625
0.416667	1	0.024125
0.433333	1	0.024000
0.450000	1	0.025125
0.466667	1	0.026125
0.483333	1	0.027375
0.500000	1	0.028125
0.516667	1	0.028375
0.533333	1	0.028375
0.550000	1	0.027875
0.566667	1	0.025875
0.583333	1	0.022750
0.600000	1	0.020125
0.616667	1	0.018375
0.633333	1	0.016000
0.650000	1	0.014250
0.666667	1	0.013125
0.683333	1	0.012250
0.700000	1	0.012000
0.716667	1	0.011750
0.733333	1	0.011625
0.750000	1	0.011750
0.766667	1	0.011625
0.783333	1	0.010625
0.800000	1	0.010125
0.816667	1	0.010000
0.833333	1	0.009625
0.850000	1	0.009750
0.866667	1	0.009750
0.883333	1	0.008750
0.900000	1	0.008250
0.916667	1	0.007125
0.933333	1	0.006250
0.950000	1	0.005500
0.966667	1	0.005000
0.983333	1	0.004125
1.000000	1	0.003250
1.016667	1	0.002625
1.033333	1	0.001750
1.050000	1	0.001125
1.066667	1	0.000000
1.083333	1	0.000375
1.100000	1	0.000000
1.116667	1	-0.000750
1.133333	1	-0.001875
1.150000	1	-0.002750
1.166667	1	-0.003625
1.183333	1	-0.004250
1.200000	1	-0.005125
1.216667	1	-0.006250
1.233333	1	-0.007000
1.250000	1	-0.007375
1.266667	1	-0.007875
1.283333	1	-0.008375
1.300000	1	-0.009000
1.316667	1	-0.009375
1.333333	1	-0.009750
1.350000	1	-0.010125
1.366667	1	-0.010500
1.383333	1	-0.010500
1.400000	1	-0.011000
1.416667	1	-0.011250
1.433333	1	-0.011250
1.450000	1	-0.010625
1.466667	1	-0.010500
1.483333	1	-0.010125
1.500000	1	-0.010250
1.516667	1	-0.010625
1.533333	1	-0.010000
1.550000	1	-0.009375
1.566667	1	-0.008875
1.583333	1	-0.008500
1.600000	1	-0.007125
1.616667	1	-0.006000
1.633333	1	-0.004875
1.650000	1	-0.003250
1.666667	1	-0.002250
1.683333	1	-0.000500
1.700000	1	0.000750
1.716667	1	0.002625
1.733333	1	0.004125
1.750000	1	0.007000
1.766667	1	0.008625
1.783333	1	0.010750
1.800000	1	0.012875
1.816667	1	0.015000
1.833333	1	0.016250
1.850000	1	0.018625
1.866667	1	0.021125
1.883333	1	0.023000
1.900000	1	0.024875
1.916667	1	0.026875
1.933333	1	0.028875
1.950000	1	0.030625
1.966667	1	0.032625
1.983333	1	0.033625
2.000000	1	0.034375
2.016667	1	0.035625
2.033333	1	0.036750
2.050000	1	0.037375
2.066667	1	0.038125
2.083333	1	0.038750
2.100000	1	0.039750
2.116667	1	0.040250
2.133333	1	0.039625
2.150000	1	0.039250
2.166667	1	0.039375
2.183333	1	0.039250
2.200000	1	0.038875
2.216667	1	0.038750
2.233333	1	0.037000
2.250000	1	0.036000
2.266667	1	0.034875
2.283333	1	0.033875
2.300000	1	0.033250
2.316667	1	0.032375
2.333333	1	0.031875
2.350000	1	0.031000
2.366667	1	0.029750
2.383333	1	0.028125
2.400000	1	0.027125
2.416667	1	0.026125
2.433333	1	0.025500
2.450000	1	0.024500
2.466667	1	0.024500
2.483333	1	0.023625
2.500000	1	0.023250
2.516667	1	0.022750
2.533333	1	0.022875
2.550000	1	0.021750
2.566667	1	0.020750
2.583333	1	0.020875
2.600000	1	0.020500
2.616667	1	0.020000
2.633333	1	0.019125
2.650000	1	0.018625
2.666667	1	0.018000
2.683333	1	0.017625
2.700000	1	0.017000
2.716667	1	0.016375
2.733333	1	0.016125
2.750000	1	0.015125
2.766667	1	0.014625
2.783333	1	0.013750
2.800000	1	0.013500
2.816667	1	0.013125
2.833333	1	0.011750
2.850000	1	0.011500
2.866667	1	0.011625
2.883333	1	0.011375
2.900000	1	0.011250
2.916667	1	0.011250
2.933333	1	0.010875
2.950000	1	0.011250
2.966667	1	0.011875
2.983333	1	0.012625
3.000000	1	0.013250
3.016667	1	0.014125
3.033333	1	0.015000
3.050000	1	0.016375
3.066667	1	0.017625
3.083333	1	0.018875
3.100000	1	0.020000
3.116667	1	0.022000
3.133333	1	0.023500
3.150000	1	0.025500
3.166667	1	0.027750
3.183333	1	0.029625
3.200000	1	0.032250
3.216667	1	0.034000
3.233333	1	0.035625
3.250000	1	0.037625
3.266667	1	0.039625
3.283333	1	0.041750
3.300000	1	0.043625
3.316667	1	0.045375
3.333333	1	0.047625
3.350000	1	0.049375
3.366667	1	0.050875
3.383333	1	0.051500
3.400000	1	0.052375
3.416667	1	0.053125
3.433333	1	0.053875
3.450000	1	0.054250
3.466667	1	0.054625
3.483333	1	0.054125
3.500000	1	0.054375
3.516667	1	0.054500
3.533333	1	0.054250
3.550000	1	0.053875
3.566667	1	0.053250
3.583333	1	0.052500
3.600000	1	0.052375
3.616667	1	0.052625
3.633333	1	0.052250
3.650000	1	0.051625
3.666667	1	0.050500
3.683333	1	0.049625
3.700000	1	0.050125
3.716667	1	0.049500
3.733333	1	0.049875
3.750000	1	0.050250
3.766667	1	0.050750
3.783333	1	0.051750
3.800000	1	0.052250
3.816667	1	0.053875
3.833333	1	0.055375
3.850000	1	0.057875
3.866667	1	0.060000
3.883333	1	0.062625
3.900000	1	0.064875
3.916667	1	0.067500
3.933333	1	0.070125
3.950000	1	0.073625
3.966667	1	0.077000
3.983333	1	0.080625
4.000000	1	0.084875
4.016667	1	0.088875
4.033333	1	0.092875
4.050000	1	0.096750
4.066667	1	0.100875
4.083333	1	0.104875
4.100000	1	0.109375
4.116667	1	0.113750
4.133333	1	0.117625
4.150000	1	0.121875
4.166667	1	0.125250
4.183333	1	0.129000
4.200000	1	0.133375
4.216667	1	0.137625
4.233333	1	0.141625
4.250000	1	0.145375
4.266667	1	0.149375
4.283333	1	0.153250
4.300000	1	0.157000
4.316667	1	0.160000
4.333333	1	0.162750
4.350000	1	0.166500
4.366667	1	0.169875
4.383333	1	0.172750
4.400000	1	0.175625
4.416667	1	0.179000
4.433333	1	0.181375
4.450000	1	0.184125
4.466667	1	0.186750
4.483333	1	0.189250
4.500000	1	0.191375
4.516667	1	0.193625
4.533333	1	0.195625
4.550000	1	0.198500
4.566667	1	0.200875
4.583333	1	0.202875
4.600000	1	0.205000
4.616667	1	0.207000
4.633333	1	0.208875
4.650000	1	0.210750
4.666667	1	0.212375
4.683333	1	0.214250
4.700000	1	0.216125
4.716667	1	0.218500
4.733333	1	0.220375
4.750000	1	0.221875
4.766667	1	0.224000
4.783333	1	0.225750
4.800000	1	0.227750
4.816667	1	0.229750
4.833333	1	0.231500
4.850000	1	0.233500
4.866667	1	0.235375
4.883333	1	0.236875
4.900000	1	0.238500
4.916667	1	0.240375
4.933333	1	0.242000
4.950000	1	0.243625
4.966667	1	0.244625
4.983333	1	0.245500
5.000000	1	0.246750
5.016667	1	0.246750
5.033333	1	0.247750
5.050000	1	0.248250
5.066667	1	0.248875
5.083333	1	0.249125
5.100000	1	0.248500
5.116667	1	0.248375
5.133333	1	0.247875
5.150000	1	0.247250
5.166667	1	0.247000
5.183333	1	0.246000
5.200000	1	0.244875
5.216667	1	0.243875
5.233333	1	0.242500
5.250000	1	0.240625
5.266667	1	0.238375
5.283333	1	0.236625
5.300000	1	0.234250
5.316667	1	0.232375
5.333333	1	0.229875
5.350000	1	0.227750
5.366667	1	0.225375
5.383333	1	0.222875
5.400000	1	0.220500
5.416667	1	0.218250
5.433333	1	0.215375
5.450000	1	0.211875
5.466667	1	0.209000
5.483333	1	0.206500
5.500000	1	0.203625
5.516667	1	0.201000
5.533333	1	0.197500
5.550000	1	0.194625
5.566667	1	0.191750
5.583333	1	0.188250
5.600000	1	0.185000
5.616667	1	0.181625
5.633333	1	0.179125
5.650000	1	0.175625
5.666667	1	0.172625
5.683333	1	0.168875
5.700000	1	0.165250
5.716667	1	0.161000
5.733333	1	0.158250
5.750000	1	0.155125
5.766667	1	0.151375
5.783333	1	0.147625
5.800000	1	0.144000
5.816667	1	0.141000
5.833333	1	0.137500
5.850000	1	0.134250
5.866667	1	0.130625
5.883333	1	0.127375
5.900000	1	0.123875
5.916667	1	0.120750
5.933333	1	0.117875
5.950000	1	0.114125
5.966667	1	0.111125
5.983333	1	0.107875
6.000000	1	0.105125
6.016667	1	0.102500
6.033333	1	0.099375
6.050000	1	0.097375
6.066667	1	0.094750
6.083333	1	0.092375
6.100000	1	0.089750
6.116667	1	0.087500
6.133333	1	0.084875
6.150000	1	0.083125
6.166667	1	0.080375
6.183333	1	0.077750
6.200000	1	0.076125
6.216667	1	0.075000
6.233333	1	0.073250
6.250000	1	0.072000
6.266667	1	0.070125
6.283333	1	0.068625
6.300000	1	0.067875
6.316667	1	0.067000
6.333333	1	0.066375
6.350000	1	0.065000
6.366667	1	0.064500
6.383333	1	0.064750
6.400000	1	0.064500
6.416667	1	0.064250
6.433333	1	0.064500
6.450000	1	0.065500
6.466667	1	0.066125
6.483333	1	0.066625
6.500000	1	0.067250
6.516667	1	0.068625
6.533333	1	0.069875
6.550000	1	0.071125
6.566667	1	0.073125
6.583333	1	0.075500
6.600000	1	0.076625
6.616667	1	0.079125
6.633333	1	0.081750
6.650000	1	0.084750
6.666667	1	0.088250
6.683333	1	0.090875
6.700000	1	0.093250
6.716667	1	0.096375
6.733333	1	0.099750
6.750000	1	0.103250
6.766667	1	0.106875
6.783333	1	0.110500
6.800000	1	0.114375
6.816667	1	0.118250
6.833333	1	0.122125
6.850000	1	0.125250
6.866667	1	0.128625
6.883333	1	0.132125
6.900000	1	0.135375
6.916667	1	0.138625
6.933333	1	0.142250
6.950000	1	0.145000
6.966667	1	0.148250
6.983333	1	0.151750
7.000000	1	0.154250
7.016667	1	0.156500
7.033333	1	0.159125
7.050000	1	0.160750
7.066667	1	0.162250
7.083333	1	0.163500
7.100000	1	0.164750
7.116667	1	0.165500
7.133333	1	0.166375
7.150000	1	0.166500
7.166667	1	0.167000
7.183333	1	0.167250
7.200000	1	0.166875
7.216667	1	0.166000
7.233333	1	0.164750
7.250000	1	0.163500
7.266667	1	0.161750
7.283333	1	0.160625
7.300000	1	0.158750
7.316667	1	0.156875
7.333333	1	0.154625
7.350000	1	0.152000
7.366667	1	0.149000
7.383333	1	0.146250
7.400000	1	0.142750
7.416667	1	0.139875
7.433333	1	0.136750
7.450000	1	0.133500
7.466667	1	0.129125
7.483333	1	0.125375
7.500000	1	0.121125
7.516667	1	0.117000
7.533333	1	0.113375
7.550000	1	0.109750
7.566667	1	0.106500
7.583333	1	0.102625
7.600000	1	0.098750
7.616667	1	0.094250
7.633333	1	0.090000
7.650000	1	0.085375
7.666667	1	0.081875
7.683333	1	0.077500
7.700000	1	0.074000
7.716667	1	0.070000
7.733333	1	0.066750
7.750000	1	0.063000
7.766667	1	0.060125
7.783333	1	0.057125
7.800000	1	0.054000
7.816667	1	0.050875
7.833333	1	0.048000
7.850000	1	0.045375
7.866667	1	0.043125
7.883333	1	0.041250
7.900000	1	0.039625
7.916667	1	0.038750
7.933333	1	0.038125
7.950000	1	0.037375
7.966667	1	0.036125
7.983333	1	0.035375
8.000000	1	0.035125
8.016667	1	0.035125
8.033333	1	0.034625
8.050000	1	0.034250
8.066667	1	0.033750
8.083333	1	0.033875
8.100000	1	0.034000
8.116667	1	0.034625
8.133333	1	0.035000
8.150000	1	0.035625
8.166667	1	0.035500
8.183333	1	0.036250
8.200000	1	0.036625
8.216667	1	0.037000
8.233333	1	0.037125
8.250000	1	0.037250
8.266667	1	0.036875
8.283333	1	0.036875
8.300000	1	0.036875
8.316667	1	0.037000
8.333333	1	0.037375
8.350000	1	0.036375
8.366667	1	0.035625
8.383333	1	0.035250
8.400000	1	0.034750
8.416667	1	0.034500
8.433333	1	0.034250
8.450000	1	0.034125
8.466667	1	0.033875
8.483333	1	0.033875
8.500000	1	0.034375
8.516667	1	0.034875
8.533333	1	0.035125
8.550000	1	0.035250
8.566667	1	0.036500
8.583333	1	0.037000
8.600000	1	0.037625
8.616667	1	0.038375
8.633333	1	0.039125
8.650000	1	0.039375
8.666667	1	0.040750
8.683333	1	0.041750
8.700000	1	0.042250
8.716667	1	0.043375
8.733333	1	0.044250
8.750000	1	0.045625
8.766667	1	0.046750
8.783333	1	0.048125
8.800000	1	0.048875
8.816667	1	0.050000
8.833333	1	0.051000
8.850000	1	0.051500
8.866667	1	0.052125
8.883333	1	0.053250
8.900000	1	0.053500
8.916667	1	0.054375
8.933333	1	0.054875
8.950000	1	0.055250
8.966667	1	0.055625
8.983333	1	0.055375
9.000000	1	0.054375
9.016667	1	0.054000
9.033333	1	0.053625
9.050000	1	0.053000
9.066667	1	0.052375
9.083333	1	0.051375
9.100000	1	0.049500
9.116667	1	0.048875
9.133333	1	0.047875
9.150000	1	0.046250
9.166667	1	0.045000
9.183333	1	0.044625
9.200000	1	0.043500
9.216667	1	0.042125
9.233333	1	0.040750
9.250000	1	0.038875
9.266667	1	0.037125
9.283333	1	0.036125
9.300000	1	0.034375
9.316667	1	0.033625
9.333333	1	0.031875
9.350000	1	0.030750
9.366667	1	0.029500
9.383333	1	0.028250
9.400000	1	0.026750
9.416667	1	0.025375
9.433333	1	0.023750
9.450000	1	0.022750
9.466667	1	0.021750
9.483333	1	0.020500
9.500000	1	0.019750
9.516667	1	0.018500
9.533333	1	0.018125
9.550000	1	0.017500
9.566667	1	0.016625
9.583333	1	0.015750
9.600000	1	0.014250
9.616667	1	0.013250
9.633333	1	0.012375
9.650000	1	0.011875
9.666667	1	0.010875
9.683333	1	0.009750
9.700000	1	0.008875
9.716667	1	0.008125
9.733333	1	0.006875
9.750000	1	0.005625
9.766667	1	0.004375
9.783333	1	0.003125
9.800000	1	0.001875
9.816667	1	0.001375
9.833333	1	0.000000
9.850000	1	-0.001375
9.866667	1	-0.001750
9.883333	1	-0.002750
9.900000	1	-0.003750
9.916667	1	-0.003875
9.933333	1	-0.004500
9.950000	1	-0.004625
9.966667	1	-0.004750
9.983333	1	-0.004375
10.000000	1	-0.004625
10.016667	1	-0.004375
10.033333	1	-0.004250
10.050000	1	-0.003250
10.066667	1	-0.001875
10.083333	1	-0.000125
10.100000	1	0.001875
10.116667	1	0.005250
10.133333	1	0.008000
10.150000	1	0.011625
10.166667	1	0.016250
10.183333	1	0.022125
10.200000	1	0.028750
10.216667	1	0.036625
10.233333	1	0.046000
10.250000	1	0.057125
10.266667	1	0.069625
10.283333	1	0.084500
10.300000	1	0.100000
10.316667	1	0.119125
10.333333	1	0.141250
10.350000	1	0.164625
10.366667	1	0.189500
10.383333	1	0.215125
10.400000	1	0.240125
10.416667	1	0.261750
10.433333	1	0.279125
10.450000	1	0.291375
10.466667	1	0.301250
10.483333	1	0.316000
10.500000	1	0.350750
10.516667	1	0.428375
10.533333	1	0.583625
10.550000	1	0.855375
10.566667	1	1.288875
10.583333	1	1.927125
10.600000	1	2.809250
10.616667	1	3.968000
10.633333	1	5.425250
10.650000	1	7.191500
10.666667	1	9.270625
10.683333	1	11.656875
10.700000	1	14.335000
10.716667	1	17.279625
10.733333	1	20.453375
10.750000	1	23.810875
10.766667	1	27.297875
10.783333	1	30.844000
10.800000	1	34.361250
10.816667	1	37.735000
10.833333	1	40.810250
10.850000	1	43.392375
10.866667	1	45.248750
10.883333	1	46.131125
10.900000	1	45.830375
10.916667	1	44.248125
10.933333	1	41.448500
10.950000	1	37.673250
10.966667	1	33.290375
10.983333	1	28.701000
11.000000	1	24.252250
11.016667	1	20.186750
11.033333	1	16.637750
11.050000	1	13.641125
11.066667	1	11.172875
11.083333	1	9.180375
11.100000	1	7.595875
11.116667	1	6.350375
11.133333	1	5.378500
11.150000	1	4.623000
11.166667	1	4.035375
11.183333	1	3.574750
11.200000	1	3.212125
11.216667	1	2.921625
11.233333	1	2.686625
11.250000	1	2.492875
11.266667	1	2.331500
11.283333	1	2.194625
11.300000	1	2.076500
11.316667	1	1.972500
11.333333	1	1.881000
11.350000	1	1.798000
11.366667	1	1.724125
11.383333	1	1.656875
11.400000	1	1.596125
11.416667	1	1.542000
11.433333	1	1.493000
11.450000	1	1.449500
11.466667	1	1.409500
11.483333	1	1.375250
11.500000	1	1.344500
11.516667	1	1.317125
11.533333	1	1.293125
11.550000	1	1.272000
11.566667	1	1.253750
11.583333	1	1.237500
11.600000	1	1.223375
11.616667	1	1.211375
11.633333	1	1.200125
11.650000	1	1.189875
11.666667	1	1.181500
11.683333	1	1.174500
11.700000	1	1.168000
11.716667	1	1.162000
11.733333	1	1.156750
11.750000	1	1.152500
11.766667	1	1.148375
11.783333	1	1.145250
11.800000	1	1.143125
11.816667	1	1.141500
11.833333	1	1.140125
11.850000	1	1.140125
11.866667	1	1.140875
11.883333	1	1.142625
11.900000	1	1.144625
11.916667	1	1.146375
11.933333	1	1.148000
11.950000	1	1.149000
11.966667	1	1.149125
11.983333	1	1.150500
12.000000	1	1.151000
12.016667	1	1.150375
12.033333	1	1.149500
12.050000	1	1.148625
12.066667	1	1.146625
12.083333	1	1.145750
12.100000	1	1.145750
12.116667	1	1.146125
12.133333	1	1.146625
12.150000	1	1.148250
12.166667	1	1.150375
12.183333	1	1.153250
12.200000	1	1.157500
12.216667	1	1.162750
12.233333	1	1.169875
12.250000	1	1.178875
12.266667	1	1.190250
12.283333	1	1.205250
12.300000	1	1.225375
12.316667	1	1.252375
12.333333	1	1.288000
12.350000	1	1.336000
12.366667	1	1.402875
12.383333	1	1.493500
12.400000	1	1.618250
12.416667	1	1.790750
12.433333	1	2.026375
12.450000	1	2.349125
12.466667	1	2.787625
12.483333	1	3.376875
12.500000	1	4.161750
12.516667	1	5.189250
12.533333	1	6.515875
12.550000	1	8.198125
12.566667	1	10.290625
12.583333	1	12.845000
12.600000	1	15.894750
12.616667	1	19.453000
12.633333	1	23.510250
12.650000	1	28.024000
12.666667	1	32.916125
12.683333	1	38.062750
12.700000	1	43.302625
12.716667	1	48.439125
12.733333	1	53.255500
12.750000	1	57.531125
12.766667	1	61.057750
12.783333	1	63.666000
12.800000	1	65.237000
12.816667	1	65.716500
12.833333	1	65.116750
12.850000	1	63.516875
12.866667	1	61.049875
12.883333	1	57.896750
12.900000	1	54.262125
12.916667	1	50.359875
12.933333	1	46.388125
12.950000	1	42.512875
12.966667	1	38.850625
12.983333	1	35.457625
13.000000	1	32.328125
13.016667	1	29.406125
13.033333	1	26.605375
13.050000	1	23.847375
13.066667	1	21.086500
13.083333	1	18.321000
13.100000	1	15.599750
13.116667	1	13.014375
13.133333	1	10.676500
13.150000	1	8.673250
13.166667	1	7.036500
13.183333	1	5.744000
13.200000	1	4.744000
13.216667	1	3.977625
13.233333	1	3.390750
13.250000	1	2.940000
13.266667	1	2.591375
13.283333	1	2.320750
13.300000	1	2.108125
13.316667	1	1.938375
13.333333	1	1.800750
13.350000	1	1.688000
13.366667	1	1.593750
13.383333	1	1.513500
13.400000	1	1.445250
13.416667	1	1.386750
13.433333	1	1.336000
13.450000	1	1.291500
13.466667	1	1.253250
13.483333	1	1.220000
13.500000	1	1.190250
13.516667	1	1.165000
13.533333	1	1.143250
13.550000	1	1.125000
13.566667	1	1.110000
13.583333	1	1.098125
13.600000	1	1.088750
13.616667	1	1.082125
13.633333	1	1.076625
13.650000	1	1.074625
13.666667	1	1.073250
13.683333	1	1.073125
13.700000	1	1.074125
13.716667	1	1.074750
13.733333	1	1.075250
13.750000	1	1.074875
13.766667	1	1.072375
13.783333	1	1.069125
13.800000	1	1.063250
13.816667	1	1.054625
13.833333	1	1.044750
13.850000	1	1.032625
13.866667	1	1.018125
13.883333	1	1.002250
13.900000	1	0.985125
13.916667	1	0.966750
13.933333	1	0.949375
13.950000	1	0.931000
13.966667	1	0.913875
13.983333	1	0.896500
14.000000	1	0.880000
14.016667	1	0.864125
14.033333	1	0.849250
14.050000	1	0.834500
14.066667	1	0.820500
14.083333	1	0.808250
14.100000	1	0.794875
14.116667	1	0.782625
14.133333	1	0.771375
14.150000	1	0.760125
14.166667	1	0.749000
14.183333	1	0.738750
14.200000	1	0.728125
14.216667	1	0.718375
14.233333	1	0.709500
14.250000	1	0.701375
14.266667	1	0.693000
14.283333	1	0.685500
14.300000	1	0.679000
14.316667	1	0.673625
14.333333	1	0.669375
14.350000	1	0.665625
14.366667	1	0.662625
14.383333	1	0.660750
14.400000	1	0.660875
14.416667	1	0.661625
14.433333	1	0.663625
14.450000	1	0.667375
14.466667	1	0.672375
14.483333	1	0.678125
14.500000	1	0.684125
14.516667	1	0.690000
14.533333	1	0.696375
14.550000	1	0.702875
14.566667	1	0.709125
14.583333	1	0.715750
14.600000	1	0.721875
14.616667	1	0.729875
14.633333	1	0.738625
14.650000	1	0.748000
14.666667	1	0.760375
14.683333	1	0.775250
14.700000	1	0.794250
14.716667	1	0.817625
14.733333	1	0.844375
14.750000	1	0.876500
14.766667	1	0.913625
14.783333	1	0.955250
14.800000	1	1.000500
14.816667	1	1.049125
14.833333	1	1.098875
14.850000	1	1.147000
14.866667	1	1.191875
14.883333	1	1.231625
14.900000	1	1.263875
14.916667	1	1.287625
14.933333	1	1.299750
14.950000	1	1.300125
14.966667	1	1.288500
14.983333	1	1.265875
15.000000	1	1.232375
15.016667	1	1.190000
15.033333	1	1.140875
15.050000	1	1.087375
15.066667	1	1.031000
15.083333	1	0.975000
15.100000	1	0.920375
15.116667	1	0.869125
15.133333	1	0.822500
15.150000	1	0.781375
15.166667	1	0.745375
15.183333	1	0.714875
15.200000	1	0.690500
15.216667	1	0.671750
15.233333	1	0.658750
15.250000	1	0.650625
15.266667	1	0.646250
15.283333	1	0.645875
15.300000	1	0.649625
15.316667	1	0.657375
15.333333	1	0.670000
15.350000	1	0.686000
15.366667	1	0.706000
15.383333	1	0.731125
15.400000	1	0.759750
15.416667	1	0.793375
15.433333	1	0.830375
15.450000	1	0.870250
15.466667	1	0.913375
15.483333	1	0.958750
15.500000	1	1.004000
15.516667	1	1.048000
15.533333	1	1.089500
15.550000	1	1.127375
15.566667	1	1.159500
15.583333	1	1.184125
15.600000	1	1.200000
15.616667	1	1.208250
15.633333	1	1.206250
15.650000	1	1.196125
15.666667	1	1.177500
15.683333	1	1.152125
15.700000	1	1.121375
15.716667	1	1.086875
15.733333	1	1.050875
15.750000	1	1.014625
15.766667	1	0.978750
15.783333	1	0.944000
15.800000	1	0.911625
15.816667	1	0.882375
15.833333	1	0.855000
15.850000	1	0.831125
15.866667	1	0.809250
15.883333	1	0.789125
15.900000	1	0.771875
15.916667	1	0.755750
15.933333	1	0.741625
15.950000	1	0.729375
15.966667	1	0.717750
15.983333	1	0.707250
16.000000	1	0.699000
16.016667	1	0.692625
16.033333	1	0.687375
16.050000	1	0.683875
16.066667	1	0.681750
16.083333	1	0.681125
16.100000	1	0.682125
16.116667	1	0.683750
16.133333	1	0.686750
16.150000	1	0.690375
16.166667	1	0.695250
16.183333	1	0.700375
16.200000	1	0.705375
16.216667	1	0.711000
16.233333	1	0.716125
16.250000	1	0.720625
16.266667	1	0.725375
16.283333	1	0.729000
16.300000	1	0.731250
16.316667	1	0.733125
16.333333	1	0.734125
16.350000	1	0.734750
16.366667	1	0.734750
16.383333	1	0.734125
16.400000	1	0.732625
16.416667	1	0.732000
16.433333	1	0.730875
16.450000	1	0.730125
16.466667	1	0.729875
16.483333	1	0.731000
16.500000	1	0.732250
16.516667	1	0.735000
16.533333	1	0.739250
16.550000	1	0.745250
16.566667	1	0.751375
16.583333	1	0.758625
16.600000	1	0.767000
16.616667	1	0.775750
16.633333	1	0.784375
16.650000	1	0.793125
16.666667	1	0.802250
16.683333	1	0.810500
16.700000	1	0.818125
16.716667	1	0.825000
16.733333	1	0.831125
16.750000	1	0.836500
16.766667	1	0.841875
16.783333	1	0.847000
16.800000	1	0.852625
16.816667	1	0.858625
16.833333	1	0.864750
16.850000	1	0.871500
16.866667	1	0.878375
16.883333	1	0.886250
16.900000	1	0.894000
16.916667	1	0.901625
16.933333	1	0.910000
16.950000	1	0.917500
16.966667	1	0.925125
16.983333	1	0.931750
17.000000	1	0.936875
17.016667	1	0.941000
17.033333	1	0.944125
17.050000	1	0.947000
17.066667	1	0.948250
17.083333	1	0.948375
17.100000	1	0.948750
17.116667	1	0.947625
17.133333	1	0.947000
17.150000	1	0.946125
17.166667	1	0.945125
17.183333	1	0.945375
17.200000	1	0.945625
17.216667	1	0.946375
17.233333	1	0.948250
17.250000	1	0.950250
17.266667	1	0.953250
17.283333	1	0.956375
17.300000	1	0.960500
17.316667	1	0.964750
17.333333	1	0.968875
17.350000	1	0.973000
17.366667	1	0.978000
17.383333	1	0.983125
17.400000	1	0.988500
17.416667	1	0.992500
17.433333	1	0.997250
17.450000	1	1.000125
17.466667	1	1.003000
17.483333	1	1.004000
17.500000	1	1.005000
17.516667	1	1.004750
17.533333	1	1.002250
17.550000	1	0.998750
17.566667	1	0.993625
17.583333	1	0.987125
17.600000	1	0.979875
17.616667	1	0.970500
17.633333	1	0.960625
17.650000	1	0.948375
17.666667	1	0.936000
17.683333	1	0.922250
17.700000	1	0.908750
17.716667	1	0.894000
17.733333	1	0.880125
17.750000	1	0.866125
17.766667	1	0.852750
17.783333	1	0.840000
17.800000	1	0.826375
17.816667	1	0.814875
17.833333	1	0.803500
17.850000	1	0.793375
17.866667	1	0.784375
17.883333	1	0.775500
17.900000	1	0.767125
17.916667	1	0.759875
17.933333	1	0.753625
17.950000	1	0.747125
17.966667	1	0.740875
17.983333	1	0.736500
18.000000	1	0.731875
18.016667	1	0.727625
18.033333	1	0.723250
18.050000	1	0.720125
18.066667	1	0.717375
18.083333	1	0.714500
18.100000	1	0.710625
18.116667	1	0.708000
18.133333	1	0.704875
18.150000	1	0.701625
18.166667	1	0.698500
18.183333	1	0.694375
18.200000	1	0.691000
18.216667	1	0.688375
18.233333	1	0.686125
18.250000	1	0.683375
18.266667	1	0.681750
18.283333	1	0.679875
18.300000	1	0.678500
18.316667	1	0.678375
18.333333	1	0.678500
18.350000	1	0.678875
18.366667	1	0.679875
18.383333	1	0.681000
18.400000	1	0.683125
18.416667	1	0.685750
18.433333	1	0.688375
18.450000	1	0.691375
18.466667	1	0.695375
18.483333	1	0.700750
18.500000	1	0.707000
18.516667	1	0.713625
18.533333	1	0.722375
18.550000	1	0.733250
18.566667	1	0.744875
18.583333	1	0.758750
18.600000	1	0.774250
18.616667	1	0.792000
18.633333	1	0.812125
18.650000	1	0.834500
18.666667	1	0.858625
18.683333	1	0.884000
18.700000	1	0.911500
18.716667	1	0.941500
18.733333	1	0.973250
18.750000	1	1.006625
18.766667	1	1.041375
18.783333	1	1.076125
18.800000	1	1.112750
18.816667	1	1.148875
18.833333	1	1.184500
18.850000	1	1.218500
18.866667	1	1.251750
18.883333	1	1.282500
18.900000	1	1.310250
18.916667	1	1.334625
18.933333	1	1.354375
18.950000	1	1.369625
18.966667	1	1.379250
18.983333	1	1.383250
19.000000	1	1.381125
19.016667	1	1.371625
19.033333	1	1.355250
19.050000	1	1.333500
19.066667	1	1.306250
19.083333	1	1.272750
19.100000	1	1.234125
19.116667	1	1.192000
19.133333	1	1.146750
19.150000	1	1.099000
19.166667	1	1.050250
19.183333	1	1.001875
19.200000	1	0.952625
19.216667	1	0.905500
19.233333	1	0.860875
19.250000	1	0.819250
19.266667	1	0.781375
19.283333	1	0.749500
19.300000	1	0.720625
19.316667	1	0.697875
19.333333	1	0.680250
19.350000	1	0.668000
19.366667	1	0.661000
19.383333	1	0.659500
19.400000	1	0.662750
19.416667	1	0.672000
19.433333	1	0.686000
19.450000	1	0.704250
19.466667	1	0.727500
19.483333	1	0.754250
19.500000	1	0.785125
19.516667	1	0.818000
19.533333	1	0.853750
19.550000	1	0.891875
19.566667	1	0.930250
19.583333	1	0.968125
19.600000	1	1.005750
19.616667	1	1.041000
19.633333	1	1.073875
19.650000	1	1.102250
19.666667	1	1.127000
19.683333	1	1.146125
19.700000	1	1.160625
19.716667	1	1.169250
19.733333	1	1.171625
19.750000	1	1.168375
19.766667	1	1.159750
19.783333	1	1.145250
19.800000	1	1.126125
19.816667	1	1.103000
19.833333	1	1.076125
19.850000	1	1.047000
19.866667	1	1.015000
19.883333	1	0.981875
19.900000	1	0.947375
19.916667	1	0.913125
19.933333	1	0.879250
19.950000	1	0.845125
19.966667	1	0.812125
19.983333	1	0.780500
20.000000	1	0.750125
20.016667	1	0.722125
20.033333	1	0.696250
20.050000	1	0.672875
20.066667	1	0.652375
20.083333	1	0.634750
20.100000	1	0.619125
20.116667	1	0.606750
20.133333	1	0.597500
20.150000	1	0.591000
20.166667	1	0.587500
20.183333	1	0.585875
20.200000	1	0.587000
20.216667	1	0.590000
20.233333	1	0.596000
20.250000	1	0.603125
20.266667	1	0.612125
20.283333	1	0.621375
20.300000	1	0.631250
20.316667	1	0.641500
20.333333	1	0.652125
20.350000	1	0.662375
20.366667	1	0.671250
20.383333	1	0.678625
20.400000	1	0.684000
20.416667	1	0.688000
20.433333	1	0.690375
20.450000	1	0.690750
20.466667	1	0.690000
20.483333	1	0.688125
20.500000	1	0.686750
20.516667	1	0.685375
20.533333	1	0.684625
20.550000	1	0.687125
20.566667	1	0.692875
20.583333	1	0.703250
20.600000	1	0.718000
20.616667	1	0.738875
20.633333	1	0.766375
20.650000	1	0.801500
20.666667	1	0.844000
20.683333	1	0.894625
20.700000	1	0.952500
20.716667	1	1.017500
20.733333	1	1.088875
20.750000	1	1.165125
20.766667	1	1.244375
20.783333	1	1.325125
20.800000	1	1.404750
20.816667	1	1.482500
20.833333	1	1.555000
20.850000	1	1.618875
20.866667	1	1.673875
20.883333	1	1.717500
20.900000	1	1.748500
20.916667	1	1.764875
20.933333	1	1.766750
20.950000	1	1.753500
20.966667	1	1.725250
20.983333	1	1.685250
21.000000	1	1.631500
21.016667	1	1.567625
21.033333	1	1.496000
21.050000	1	1.418625
21.066667	1	1.337500
21.083333	1	1.255375
21.100000	1	1.173750
21.116667	1	1.093750
21.133333	1	1.018125
21.150000	1	0.946500
21.166667	1	0.880625
21.183333	1	0.821125
21.200000	1	0.767625
21.216667	1	0.719875
21.233333	1	0.678625
21.250000	1	0.641500
21.266667	1	0.609500
21.283333	1	0.582625
21.300000	1	0.560500
21.316667	1	0.541250
21.333333	1	0.525750
21.350000	1	0.513000
21.366667	1	0.502125
21.383333	1	0.493625
21.400000	1	0.486625
21.416667	1	0.481125
21.433333	1	0.476500
21.450000	1	0.473750
21.466667	1	0.470250
21.483333	1	0.468125
21.500000	1	0.466750
21.516667	1	0.465625
21.533333	1	0.465375
21.550000	1	0.465750
21.566667	1	0.466375
21.583333	1	0.466750
21.600000	1	0.467250
21.616667	1	0.468125
21.633333	1	0.469500
21.650000	1	0.471250
21.666667	1	0.474125
21.683333	1	0.476750
21.700000	1	0.479375
21.716667	1	0.483000
21.733333	1	0.486125
21.750000	1	0.490375
21.766667	1	0.494375
21.783333	1	0.499000
21.800000	1	0.503625
21.816667	1	0.508750
21.833333	1	0.514250
21.850000	1	0.519625
21.866667	1	0.524875
21.883333	1	0.530250
21.900000	1	0.536125
21.916667	1	0.541500
21.933333	1	0.547125
21.950000	1	0.553500
21.966667	1	0.560375
21.983333	1	0.567125
22.000000	1	0.573875
22.016667	1	0.581250
22.033333	1	0.587875
22.050000	1	0.594875
22.066667	1	0.602125
22.083333	1	0.608875
22.100000	1	0.615625
22.116667	1	0.622375
22.133333	1	0.629000
22.150000	1	0.634375
22.166667	1	0.638500
22.183333	1	0.641375
22.200000	1	0.643000
22.216667	1	0.643375
22.233333	1	0.643000
22.250000	1	0.641125
22.266667	1	0.637875
22.283333	1	0.633250
22.300000	1	0.627125
22.316667	1	0.619875
22.333333	1	0.610500
22.350000	1	0.600750
22.366667	1	0.590250
22.383333	1	0.578875
22.400000	1	0.567000
22.416667	1	0.554250
22.433333	1	0.541375
22.450000	1	0.528625
22.466667	1	0.515750
22.483333	1	0.503250
22.500000	1	0.491375
22.516667	1	0.479875
22.533333	1	0.468625
22.550000	1	0.458250
22.566667	1	0.448875
22.583333	1	0.441000
22.600000	1	0.432500
22.616667	1	0.424875
22.633333	1	0.418375
22.650000	1	0.412500
22.666667	1	0.406125
22.683333	1	0.401625
22.700000	1	0.397250
22.716667	1	0.393250
22.733333	1	0.389250
22.750000	1	0.385375
22.766667	1	0.382000
22.783333	1	0.379375
22.800000	1	0.376125
22.816667	1	0.373500
22.833333	1	0.371000
22.850000	1	0.368500
22.866667	1	0.366250
22.883333	1	0.364750
22.900000	1	0.363125
22.916667	1	0.362000
22.933333	1	0.360250
22.950000	1	0.359500
22.966667	1	0.358750
22.983333	1	0.358000
23.000000	1	0.357750
23.016667	1	0.358125
23.033333	1	0.358875
23.050000	1	0.359375
23.066667	1	0.359750
23.083333	1	0.359625
23.100000	1	0.361375
23.116667	1	0.362500
23.133333	1	0.363500
23.150000	1	0.365250
23.166667	1	0.367875
23.183333	1	0.370125
23.200000	1	0.372625
23.216667	1	0.375750
23.233333	1	0.379625
23.250000	1	0.384125
23.266667	1	0.390125
23.283333	1	0.397375
23.300000	1	0.406250
23.316667	1	0.417375
23.333333	1	0.431625
23.350000	1	0.449875
23.366667	1	0.471250
23.383333	1	0.497250
23.400000	1	0.528875
23.416667	1	0.567250
23.433333	1	0.612750
23.450000	1	0.667250
23.466667	1	0.731625
23.483333	1	0.806875
23.500000	1	0.894375
23.516667	1	0.996125
23.533333	1	1.112375
23.550000	1	1.244500
23.566667	1	1.394000
23.583333	1	1.561750
23.600000	1	1.748125
23.616667	1	1.953250
23.633333	1	2.177875
23.650000	1	2.420125
23.666667	1	2.680125
23.683333	1	2.955375
23.700000	1	3.245500
23.716667	1	3.547000
23.733333	1	3.857375
23.750000	1	4.170875
23.766667	1	4.483625
23.783333	1	4.790250
23.800000	1	5.085250
23.816667	1	5.363000
23.833333	1	5.617000
23.850000	1	5.842000
23.866667	1	6.033875
23.883333	1	6.187750
23.900000	1	6.300000
23.916667	1	6.368000
23.933333	1	6.389875
23.950000	1	6.365250
23.966667	1	6.294500
23.983333	1	6.179625
24.000000	1	6.023375
24.016667	1	5.830500
24.033333	1	5.605375
24.050000	1	5.353375
24.066667	1	5.080875
24.083333	1	4.792750
24.100000	1	4.494375
24.116667	1	4.191250
24.133333	1	3.888625
24.150000	1	3.590125
24.166667	1	3.300375
24.183333	1	3.023375
24.200000	1	2.761625
24.216667	1	2.515625
24.233333	1	2.287750
24.250000	1	2.078250
24.266667	1	1.887375
24.283333	1	1.713500
24.300000	1	1.557375
24.316667	1	1.418375
24.333333	1	1.294625
24.350000	1	1.184875
24.366667	1	1.088500
24.383333	1	1.004375
24.400000	1	0.931500
24.416667	1	0.867875
24.433333	1	0.813250
24.450000	1	0.766125
24.466667	1	0.725875
24.483333	1	0.691125
24.500000	1	0.661625
24.516667	1	0.636625
24.533333	1	0.614875
24.550000	1	0.595125
24.566667	1	0.578875
24.583333	1	0.564375
24.600000	1	0.551750
24.616667	1	0.540250
24.633333	1	0.529625
24.650000	1	0.520375
24.666667	1	0.511375
24.683333	1	0.503625
24.700000	1	0.495375
24.716667	1	0.487125
24.733333	1	0.479625
24.750000	1	0.472500
24.766667	1	0.465375
24.783333	1	0.459625
24.800000	1	0.453750
24.816667	1	0.446875
24.833333	1	0.440750
24.850000	1	0.434625
24.866667	1	0.429500
24.883333	1	0.424125
24.900000	1	0.419250
24.916667	1	0.415250
24.933333	1	0.410500
24.950000	1	0.406500
24.966667	1	0.402250
24.983333	1	0.398500
25.000000	1	0.394625
25.016667	1	0.391250
25.033333	1	0.388250
25.050000	1	0.385375
25.066667	1	0.381875
25.083333	1	0.378375
25.100000	1	0.375875
25.116667	1	0.373000
25.133333	1	0.370000
25.150000	1	0.367250
25.166667	1	0.364375
25.183333	1	0.360250
25.200000	1	0.357625
25.216667	1	0.355000
25.233333	1	0.351375
25.250000	1	0.347625
25.266667	1	0.344750
25.283333	1	0.342250
25.300000	1	0.339500
25.316667	1	0.336750
25.333333	1	0.334250
25.350000	1	0.331875
25.366667	1	0.329125
25.383333	1	0.326875
25.400000	1	0.324125
25.416667	1	0.322250
25.433333	1	0.320375
25.450000	1	0.319375
25.466667	1	0.318125
25.483333	1	0.317250
25.500000	1	0.316375
25.516667	1	0.315250
25.533333	1	0.314750
25.550000	1	0.315000
25.566667	1	0.315500
25.583333	1	0.315250
25.600000	1	0.315750
25.616667	1	0.315500
25.633333	1	0.315875
25.650000	1	0.316250
25.666667	1	0.317250
25.683333	1	0.317500
25.700000	1	0.318000
25.716667	1	0.318375
25.733333	1	0.319875
25.750000	1	0.320000
25.766667	1	0.321625
25.783333	1	0.322875
25.800000	1	0.323750
25.816667	1	0.324875
25.833333	1	0.326500
25.850000	1	0.328750
25.866667	1	0.331250
25.883333	1	0.333875
25.900000	1	0.336750
25.916667	1	0.340000
25.933333	1	0.343375
25.950000	1	0.346875
25.966667	1	0.350625
25.983333	1	0.354875
26.000000	1	0.359250
26.016667	1	0.363500
26.033333	1	0.368000
26.050000	1	0.372750
26.066667	1	0.377500
26.083333	1	0.382125
26.100000	1	0.387500
26.116667	1	0.391750
26.133333	1	0.396125
26.150000	1	0.400125
26.166667	1	0.403875
26.183333	1	0.407375
26.200000	1	0.410875
26.216667	1	0.413625
26.233333	1	0.416250
26.250000	1	0.418250
26.266667	1	0.419250
26.283333	1	0.420250
26.300000	1	0.420625
26.316667	1	0.420000
26.333333	1	0.418375
26.350000	1	0.416750
26.366667	1	0.414375
26.383333	1	0.410750
26.400000	1	0.406875
26.416667	1	0.403250
26.433333	1	0.398625
26.450000	1	0.394000
26.466667	1	0.388500
26.483333	1	0.382125
26.500000	1	0.376500
26.516667	1	0.370500
26.533333	1	0.364250
26.550000	1	0.357625
26.566667	1	0.351500
26.583333	1	0.344875
26.600000	1	0.339250
26.616667	1	0.333625
26.633333	1	0.328125
26.650000	1	0.322125
26.666667	1	0.318000
26.683333	1	0.314375
26.700000	1	0.310250
26.716667	1	0.306375
26.733333	1	0.303375
26.750000	1	0.300875
26.766667	1	0.298375
26.783333	1	0.296375
26.800000	1	0.294625
26.816667	1	0.294125
26.833333	1	0.293375
26.850000	1	0.294125
26.866667	1	0.294125
26.883333	1	0.294875
26.900000	1	0.296500
26.916667	1	0.297250
26.933333	1	0.299375
26.950000	1	0.302000
26.966667	1	0.304125
26.983333	1	0.306625
27.000000	1	0.309750
27.016667	1	0.313250
27.033333	1	0.316500
27.050000	1	0.320000
27.066667	1	0.324125
27.083333	1	0.328625
27.100000	1	0.334000
27.116667	1	0.340000
27.133333	1	0.345875
27.150000	1	0.352125
27.166667	1	0.359000
27.183333	1	0.367000
27.200000	1	0.375375
27.216667	1	0.384250
27.233333	1	0.395250
27.250000	1	0.406625
27.266667	1	0.419750
27.283333	1	0.434375
27.300000	1	0.451375
27.316667	1	0.470125
27.333333	1	0.491250
27.350000	1	0.515500
27.366667	1	0.543250
27.383333	1	0.574875
27.400000	1	0.610250
27.416667	1	0.650125
27.433333	1	0.695625
27.450000	1	0.746500
27.466667	1	0.804125
27.483333	1	0.868625
27.500000	1	0.940625
27.516667	1	1.021125
27.533333	1	1.108875
27.550000	1	1.205375
27.566667	1	1.310875
27.583333	1	1.424875
27.600000	1	1.547375
27.616667	1	1.679125
27.633333	1	1.818875
27.650000	1	1.967625
27.666667	1	2.123875
27.683333	1	2.286375
27.700000	1	2.453750
27.716667	1	2.625125
27.733333	1	2.798125
27.750000	1	2.970875
27.766667	1	3.142000
27.783333	1	3.308875
27.800000	1	3.469875
27.816667	1	3.621875
27.833333	1	3.763125
27.850000	1	3.891500
27.866667	1	4.004250
27.883333	1	4.099375
27.900000	1	4.175625
27.916667	1	4.230750
27.933333	1	4.262750
27.950000	1	4.272125
27.966667	1	4.259250
27.983333	1	4.222125
28.000000	1	4.162250
28.016667	1	4.081750
28.033333	1	3.980625
28.050000	1	3.859625
28.066667	1	3.722875
28.083333	1	3.571250
28.100000	1	3.407500
28.116667	1	3.234375
28.133333	1	3.054875
28.150000	1	2.871875
28.166667	1	2.687500
28.183333	1	2.504250
28.200000	1	2.325250
28.216667	1	2.150750
28.233333	1	1.983000
28.250000	1	1.823375
28.266667	1	1.672375
28.283333	1	1.531000
28.300000	1	1.400000
28.316667	1	1.280625
28.333333	1	1.171875
28.350000	1	1.073375
28.366667	1	0.985750
28.383333	1	0.908625
28.400000	1	0.840500
28.416667	1	0.780625
28.433333	1	0.728750
28.450000	1	0.685125
28.466667	1	0.647375
28.483333	1	0.616250
28.500000	1	0.591250
28.516667	1	0.570750
28.533333	1	0.555750
28.550000	1	0.543875
28.566667	1	0.536625
28.583333	1	0.531500
28.600000	1	0.529000
28.616667	1	0.529000
28.633333	1	0.530625
28.650000	1	0.534625
28.666667	1	0.539500
28.683333	1	0.545875
28.700000	1	0.553375
28.716667	1	0.560625
28.733333	1	0.567750
28.750000	1	0.575500
28.766667	1	0.582875
28.783333	1	0.590500
28.800000	1	0.596750
28.816667	1	0.603250
28.833333	1	0.608250
28.850000	1	0.612500
28.866667	1	0.615625
28.883333	1	0.617500
28.900000	1	0.618125
28.916667	1	0.617125
28.933333	1	0.614500
28.950000	1	0.610250
28.966667	1	0.604250
28.983333	1	0.596625
29.000000	1	0.586875
29.016667	1	0.575500
29.033333	1	0.561750
29.050000	1	0.546250
29.066667	1	0.529250
29.083333	1	0.509625
29.100000	1	0.488125
29.116667	1	0.464625
29.133333	1	0.438625
29.150000	1	0.410500
29.166667	1	0.381000
29.183333	1	0.348375
29.200000	1	0.314250
29.216667	1	0.277375
29.233333	1	0.238500
29.250000	1	0.197250
29.266667	1	0.154250
29.283333	1	0.109000
29.300000	1	0.062750
29.316667	1	0.013750
29.333333	1	-0.038000
29.350000	1	-0.089750
29.366667	1	-0.143375
29.383333	1	-0.198500
29.400000	1	-0.254125
29.416667	1	-0.311125
29.433333	1	-0.368375
29.450000	1	-0.426250
29.466667	1	-0.484250
29.483333	1	-0.541125
29.500000	1	-0.597875
29.516667	1	-0.653000
29.533333	1	-0.706500
29.550000	1	-0.758000
29.566667	1	-0.807500
29.583333	1	-0.853625
29.600000	1	-0.896625
29.616667	1	-0.936125
29.633333	1	-0.972125
29.650000	1	-1.002750
29.666667	1	-1.030000
29.683333	1	-1.052500
29.700000	1	-1.069500
29.716667	1	-1.081375
29.733333	1	-1.088750
29.750000	1	-1.090250
29.766667	1	-1.086750
29.783333	1	-1.078500
29.800000	1	-1.065500
29.816667	1	-1.047750
29.833333	1	-1.025375
29.850000	1	-0.999125
29.866667	1	-0.969375
29.883333	1	-0.935750
29.900000	1	-0.899375
29.916667	1	-0.860375
29.933333	1	-0.818750
29.950000	1	-0.776125
29.966667	1	-0.732375
29.983333	1	-0.687750
30.000000	1	-0.642375
30.016667	1	-0.596625
30.033333	1	-0.551000
30.050000	1	-0.506250
30.066667	1	-0.462000
30.083333	1	-0.418875
30.100000	1	-0.377875
30.116667	1	-0.337375
30.133333	1	-0.298750
30.150000	1	-0.262625
30.166667	1	-0.228125
30.183333	1	-0.194625
30.200000	1	-0.163625
30.216667	1	-0.134125
30.233333	1	-0.106750
30.250000	1	-0.081500
30.266667	1	-0.056750
30.283333	1	-0.034375
30.300000	1	-0.013750
30.316667	1	0.005125
30.333333	1	0.023250
30.350000	1	0.039750
30.366667	1	0.055000
30.383333	1	0.069625
30.400000	1	0.083500
30.416667	1	0.096250
30.433333	1	0.108625
30.450000	1	0.120000
30.466667	1	0.131125
30.483333	1	0.141000
30.500000	1	0.151750
30.516667	1	0.162000
30.533333	1	0.173000
30.550000	1	0.183125
30.566667	1	0.194625
30.583333	1	0.206375
30.600000	1	0.218625
30.616667	1	0.231250
30.633333	1	0.244875
30.650000	1	0.259250
30.666667	1	0.274750
30.683333	1	0.292125
30.700000	1	0.310625
30.716667	1	0.331250
30.733333	1	0.354125
30.750000	1	0.380000
30.766667	1	0.408000
30.783333	1	0.438375
30.800000	1	0.472750
30.816667	1	0.510625
30.833333	1	0.553500
30.850000	1	0.600750
30.866667	1	0.653500
30.883333	1	0.712375
30.900000	1	0.776750
30.916667	1	0.849500
30.933333	1	0.930375
30.950000	1	1.019750
30.966667	1	1.116750
30.983333	1	1.224250
31.000000	1	1.342750
31.016667	1	1.473000
31.033333	1	1.614125
31.050000	1	1.768000
31.066667	1	1.934875
31.083333	1	2.113375
31.100000	1	2.304250
31.116667	1	2.508500
31.133333	1	2.724625
31.150000	1	2.951125
31.166667	1	3.188125
31.183333	1	3.434500
31.200000	1	3.689125
31.216667	1	3.949375
31.233333	1	4.214250
31.250000	1	4.480875
31.266667	1	4.746625
31.283333	1	5.008500
31.300000	1	5.264500
31.316667	1	5.510375
31.333333	1	5.744250
31.350000	1	5.962625
31.366667	1	6.163250
31.383333	1	6.343750
31.400000	1	6.501500
31.416667	1	6.634750
31.433333	1	6.740875
31.450000	1	6.818125
31.466667	1	6.865625
31.483333	1	6.883500
31.500000	1	6.870375
31.516667	1	6.828375
31.533333	1	6.757250
31.550000	1	6.658125
31.566667	1	6.532375
31.583333	1	6.382125
31.600000	1	6.208125
31.616667	1	6.014125
31.633333	1	5.802375
31.650000	1	5.575500
31.666667	1	5.336125
31.683333	1	5.087875
31.700000	1	4.833750
31.716667	1	4.575750
31.733333	1	4.316125
31.750000	1	4.057875
31.766667	1	3.802750
31.783333	1	3.552375
31.800000	1	3.308750
31.816667	1	3.072625
31.833333	1	2.845000
31.850000	1	2.628375
31.866667	1	2.422625
31.883333	1	2.227625
31.900000	1	2.045375
31.916667	1	1.874125
31.933333	1	1.715625
31.950000	1	1.568125
31.966667	1	1.432375
31.983333	1	1.307375
32.000000	1	1.192000
32.016667	1	1.086750
32.033333	1	0.990750
32.050000	1	0.903125
32.066667	1	0.824250
32.083333	1	0.752125
32.100000	1	0.687625
32.116667	1	0.629250
32.133333	1	0.577750
32.150000	1	0.530625
32.166667	1	0.488125
32.183333	1	0.450250
32.200000	1	0.416000
32.216667	1	0.384875
32.233333	1	0.357250
32.250000	1	0.332375
32.266667	1	0.309000
32.283333	1	0.288500
32.300000	1	0.270000
32.316667	1	0.253125
32.333333	1	0.237750
32.350000	1	0.223625
32.366667	1	0.211500
32.383333	1	0.200250
32.400000	1	0.189625
32.416667	1	0.179500
32.433333	1	0.170875
32.450000	1	0.162625
32.466667	1	0.155375
32.483333	1	0.148625
32.500000	1	0.142125
32.516667	1	0.135875
32.533333	1	0.130750
32.550000	1	0.125500
32.566667	1	0.121500
32.583333	1	0.117750
32.600000	1	0.114125
32.616667	1	0.110625
32.633333	1	0.106625
32.650000	1	0.103750
32.666667	1	0.101250
32.683333	1	0.098625
32.700000	1	0.096000
32.716667	1	0.094125
32.733333	1	0.091875
32.750000	1	0.090375
32.766667	1	0.088500
32.783333	1	0.086750
32.800000	1	0.084375
32.816667	1	0.083250
32.833333	1	0.082000
32.850000	1	0.081000
32.866667	1	0.080125
32.883333	1	0.078375
32.900000	1	0.077125
32.916667	1	0.076250
32.933333	1	0.074750
32.950000	1	0.072500
32.966667	1	0.071125
32.983333	1	0.069875
33.000000	1	0.069250
33.016667	1	0.068000
33.033333	1	0.066875
33.050000	1	0.065500
33.066667	1	0.064625
33.083333	1	0.064000
33.100000	1	0.063250
33.116667	1	0.062000
33.133333	1	0.061875
33.150000	1	0.061750
33.166667	1	0.061625
33.183333	1	0.062000
33.200000	1	0.063000
33.216667	1	0.063625
33.233333	1	0.064375
33.250000	1	0.065125
33.266667	1	0.066500
33.283333	1	0.068125
33.300000	1	0.070625
33.316667	1	0.073125
33.333333	1	0.075750
33.350000	1	0.078500
33.366667	1	0.081250
33.383333	1	0.084375
33.400000	1	0.088125
33.416667	1	0.091625
33.433333	1	0.095500
33.450000	1	0.099250
33.466667	1	0.103250
33.483333	1	0.107250
33.500000	1	0.111375
33.516667	1	0.115625
33.533333	1	0.120000
33.550000	1	0.124625
33.566667	1	0.129000
33.583333	1	0.133000
33.600000	1	0.137500
33.616667	1	0.141750
33.633333	1	0.146125
33.650000	1	0.150500
33.666667	1	0.154625
33.683333	1	0.159375
33.700000	1	0.164000
33.716667	1	0.168750
33.733333	1	0.173000
33.750000	1	0.177750
33.766667	1	0.182000
33.783333	1	0.186000
33.800000	1	0.190625
33.816667	1	0.194750
33.833333	1	0.198500
33.850000	1	0.202125
33.866667	1	0.205875
33.883333	1	0.210000
33.900000	1	0.213750
33.916667	1	0.217375
33.933333	1	0.220500
33.950000	1	0.223625
33.966667	1	0.226125
33.983333	1	0.229125
34.000000	1	0.232125
34.016667	1	0.234375
34.033333	1	0.237500
34.050000	1	0.239500
34.066667	1	0.240625
34.083333	1	0.242375
34.100000	1	0.243375
34.116667	1	0.245000
34.133333	1	0.246000
34.150000	1	0.247125
34.166667	1	0.248250
34.183333	1	0.249750
34.200000	1	0.250750
34.216667	1	0.250875
34.233333	1	0.251250
34.250000	1	0.251750
34.266667	1	0.252000
34.283333	1	0.252375
34.300000	1	0.252875
34.316667	1	0.252875
34.333333	1	0.252250
34.350000	1	0.252500
34.366667	1	0.252875
34.383333	1	0.252875
34.400000	1	0.252750
34.416667	1	0.253000
34.433333	1	0.253500
34.450000	1	0.253125
34.466667	1	0.252750
34.483333	1	0.252500
34.500000	1	0.252500
34.516667	1	0.252875
34.533333	1	0.253000
34.550000	1	0.252875
34.566667	1	0.252500
34.583333	1	0.252375
34.600000	1	0.252125
34.616667	1	0.252625
34.633333	1	0.252125
34.650000	1	0.252000
34.666667	1	0.252000
34.683333	1	0.251375
34.700000	1	0.250500
34.716667	1	0.249375
34.733333	1	0.248875
34.750000	1	0.247750
34.766667	1	0.247250
34.783333	1	0.245875
34.800000	1	0.244500
34.816667	1	0.243125
34.833333	1	0.241000
34.850000	1	0.239375
34.866667	1	0.238125
34.883333	1	0.236500
34.900000	1	0.234000
34.916667	1	0.232250
34.933333	1	0.230875
34.950000	1	0.229375
34.966667	1	0.227625
34.983333	1	0.226125
35.000000	1	0.224000
35.016667	1	0.221125
35.033333	1	0.218625
35.050000	1	0.217625
35.066667	1	0.215875
35.083333	1	0.214000
35.100000	1	0.212625
35.116667	1	0.210750
35.133333	1	0.209500
35.150000	1	0.208625
35.166667	1	0.207750
35.183333	1	0.206500
35.200000	1	0.205375
35.216667	1	0.204500
35.233333	1	0.203125
35.250000	1	0.202625
35.266667	1	0.202375
35.283333	1	0.202000
35.300000	1	0.202125
35.316667	1	0.202000
35.333333	1	0.201625
35.350000	1	0.201375
35.366667	1	0.201000
35.383333	1	0.201250
35.400000	1	0.201500
35.416667	1	0.200875
35.433333	1	0.200875
35.450000	1	0.200875
35.466667	1	0.201125
35.483333	1	0.200750
35.500000	1	0.201250
35.516667	1	0.201125
35.533333	1	0.201250
35.550000	1	0.201625
35.566667	1	0.201125
35.583333	1	0.201500
35.600000	1	0.201125
35.616667	1	0.200875
35.633333	1	0.201000
35.650000	1	0.200625
35.666667	1	0.200375
35.683333	1	0.199875
35.700000	1	0.198875
35.716667	1	0.198875
35.733333	1	0.198625
35.750000	1	0.198000
35.766667	1	0.196875
35.783333	1	0.195875
35.800000	1	0.194625
35.816667	1	0.193125
35.833333	1	0.192375
35.850000	1	0.191000
35.866667	1	0.188625
35.883333	1	0.187125
35.900000	1	0.184875
35.916667	1	0.183000
35.933333	1	0.180500
35.950000	1	0.178625
35.966667	1	0.175750
35.983333	1	0.172875
36.000000	1	0.170250
36.016667	1	0.167875
36.033333	1	0.165250
36.050000	1	0.162250
36.066667	1	0.159875
36.083333	1	0.157000
36.100000	1	0.154375
36.116667	1	0.151875
36.133333	1	0.150125
36.150000	1	0.148500
36.166667	1	0.147000
36.183333	1	0.145125
36.200000	1	0.144000
36.216667	1	0.142750
36.233333	1	0.141625
36.250000	1	0.140875
36.266667	1	0.140500
36.283333	1	0.139875
36.300000	1	0.140000
36.316667	1	0.140375
36.333333	1	0.141125
36.350000	1	0.141625
36.366667	1	0.141500
36.383333	1	0.142375
36.400000	1	0.142500
36.416667	1	0.142875
36.433333	1	0.143750
36.450000	1	0.143875
36.466667	1	0.144125
36.483333	1	0.144250
36.500000	1	0.145000
36.516667	1	0.146125
36.533333	1	0.146500
36.550000	1	0.146625
36.566667	1	0.145375
36.583333	1	0.145500
36.600000	1	0.145125
36.616667	1	0.144625
36.633333	1	0.143500
36.650000	1	0.142375
36.666667	1	0.140625
36.683333	1	0.139000
36.700000	1	0.138250
36.716667	1	0.137250
36.733333	1	0.135125
36.750000	1	0.133125
36.766667	1	0.131750
36.783333	1	0.129250
36.800000	1	0.127500
36.816667	1	0.125500
36.833333	1	0.123375
36.850000	1	0.121250
36.866667	1	0.119375
36.883333	1	0.117750
36.900000	1	0.115875
36.916667	1	0.114125
36.933333	1	0.112875
36.950000	1	0.111125
36.966667	1	0.110125
36.983333	1	0.108625
37.000000	1	0.107875
37.016667	1	0.107125
37.033333	1	0.105750
37.050000	1	0.105375
37.066667	1	0.104750
37.083333	1	0.104875
37.100000	1	0.104750
37.116667	1	0.105000
37.133333	1	0.104875
37.150000	1	0.104875
37.166667	1	0.104750
37.183333	1	0.106125
37.200000	1	0.106250
37.216667	1	0.106750
37.233333	1	0.107000
37.250000	1	0.108000
37.266667	1	0.109000
37.283333	1	0.109625
37.300000	1	0.110125
37.316667	1	0.110000
37.333333	1	0.109625
37.350000	1	0.110250
37.366667	1	0.109875
37.383333	1	0.110000
37.400000	1	0.109750
37.416667	1	0.110875
37.433333	1	0.109500
37.450000	1	0.108500
37.466667	1	0.107750
37.483333	1	0.106625
37.500000	1	0.105375
37.516667	1	0.103625
37.533333	1	0.101625
37.550000	1	0.099625
37.566667	1	0.097500
37.583333	1	0.095000
37.600000	1	0.092500
37.616667	1	0.090250
37.633333	1	0.087500
37.650000	1	0.084500
37.666667	1	0.082000
37.683333	1	0.079125
37.700000	1	0.076375
37.716667	1	0.073750
37.733333	1	0.071250
37.750000	1	0.068250
37.766667	1	0.065250
37.783333	1	0.062125
37.800000	1	0.060625
37.816667	1	0.058750
37.833333	1	0.056625
37.850000	1	0.054750
37.866667	1	0.053250
37.883333	1	0.052125
37.900000	1	0.051125
37.916667	1	0.051250
37.933333	1	0.051000
37.950000	1	0.050625
37.966667	1	0.050750
37.983333	1	0.051250
38.000000	1	0.051875
38.016667	1	0.053375
38.033333	1	0.055125
38.050000	1	0.056500
38.066667	1	0.058875
38.083333	1	0.061750
38.100000	1	0.064375
38.116667	1	0.066125
38.133333	1	0.068750
38.150000	1	0.071750
38.166667	1	0.075125
38.183333	1	0.077750
38.200000	1	0.081125
38.216667	1	0.084500
38.233333	1	0.087875
38.250000	1	0.091375
38.266667	1	0.095250
38.283333	1	0.098250
38.300000	1	0.101500
38.316667	1	0.104750
38.333333	1	0.108000
38.350000	1	0.111125
38.366667	1	0.114250
38.383333	1	0.117000
38.400000	1	0.119750
38.416667	1	0.122750
38.433333	1	0.125000
38.450000	1	0.127125
38.466667	1	0.129375
38.483333	1	0.131750
38.500000	1	0.133875
38.516667	1	0.135625
38.533333	1	0.137500
38.550000	1	0.138625
38.566667	1	0.140000
38.583333	1	0.140500
38.600000	1	0.141750
38.616667	1	0.142500
38.633333	1	0.144000
38.650000	1	0.145125
38.666667	1	0.145625
38.683333	1	0.146000
38.700000	1	0.146750
38.716667	1	0.146875
38.733333	1	0.146875
38.750000	1	0.146625
38.766667	1	0.146375
38.783333	1	0.146000
38.800000	1	0.145875
38.816667	1	0.145250
38.833333	1	0.144500
38.850000	1	0.143750
38.866667	1	0.143375
38.883333	1	0.141875
38.900000	1	0.140125
38.916667	1	0.138875
38.933333	1	0.137250
38.950000	1	0.135375
38.966667	1	0.133875
38.983333	1	0.132375
39.000000	1	0.130875
39.016667	1	0.129000
39.033333	1	0.127125
39.050000	1	0.125250
39.066667	1	0.123375
39.083333	1	0.120875
39.100000	1	0.118625
39.116667	1	0.116500
39.133333	1	0.114500
39.150000	1	0.112375
39.166667	1	0.109875
39.183333	1	0.107375
39.200000	1	0.104875
39.216667	1	0.102875
39.233333	1	0.100625
39.250000	1	0.098625
39.266667	1	0.096250
39.283333	1	0.093875
39.300000	1	0.091750
39.316667	1	0.089500
39.333333	1	0.087250
39.350000	1	0.085500
39.366667	1	0.083125
39.383333	1	0.081500
39.400000	1	0.080000
39.416667	1	0.078750
39.433333	1	0.077750
39.450000	1	0.076625
39.466667	1	0.075750
39.483333	1	0.074375
39.500000	1	0.073500
39.516667	1	0.073000
39.533333	1	0.072750
39.550000	1	0.073125
39.566667	1	0.073250
39.583333	1	0.073000
39.600000	1	0.073375
39.616667	1	0.073750
39.633333	1	0.074250
39.650000	1	0.075125
39.666667	1	0.075250
39.683333	1	0.075875
39.700000	1	0.077250
39.716667	1	0.079000
39.733333	1	0.080000
39.750000	1	0.081000
39.766667	1	0.082250
39.783333	1	0.083250
39.800000	1	0.085000
39.816667	1	0.086875
39.833333	1	0.088250
39.850000	1	0.089250
39.866667	1	0.090375
39.883333	1	0.091125
39.900000	1	0.092125
39.916667	1	0.093625
39.933333	1	0.094500
39.950000	1	0.095000
39.966667	1	0.095500
39.983333	1	0.096250
40.000000	1	0.096625
