URL	chrom://bioreactor/micro_cm7/HPLC_Ultimate_3000/Users/markusar/20240727_MA_EsirYCA.seq/335.smp/RI_1.channel/RI_1.chm
Channel	RI_1

Injection Information:
Data Vault	micro_cm7
Sequence	20240727_MA_EsirYCA
Name	Es2_1
Number	6
Position	BA6
Comment	
Processing Method	
Instrument Method	run_25B_method
Type	Unknown
Status	Finished
Inject Time	29.07.2024 17:02:31 +02:00
Volume (µl)	20.0000
Dilution Factor	1.0000
Weight	1.0000

Chromatogram Data Information:
Time Min. (min)	0.000000
Time Max. (min)	40.000000
Data Points	2401
Detector	RI
Generating Data System	Chromeleon 7.3.2.11814
Exporting Data System	Chromeleon 7.3.2.0
Operator	Instrument Controller
Signal Quantity	Refractive 
Signal Unit	µRIU
Signal Min.	-1.383375
Signal Max.	71.495500
Channel	RI_1
Driver Name	RID520Driver.dll
Channel Type	Evaluation
Min. Step (s)	1
Max. Step (s)	1
Average Step (s)	1

Signal Parameter Information:
Signal Info	

Chromatogram Data:
Time (min)	Step (s)	Value (µRIU)
0.000000	n.a.	0.002625
0.016667	1	0.003250
0.033333	1	0.005375
0.050000	1	0.006375
0.066667	1	0.007500
0.083333	1	0.009125
0.100000	1	0.011375
0.116667	1	0.013125
0.133333	1	0.014750
0.150000	1	0.017250
0.166667	1	0.019875
0.183333	1	0.021750
0.200000	1	0.024125
0.216667	1	0.027125
0.233333	1	0.029625
0.250000	1	0.031625
0.266667	1	0.033875
0.283333	1	0.036500
0.300000	1	0.038375
0.316667	1	0.040000
0.333333	1	0.041375
0.350000	1	0.042250
0.366667	1	0.043625
0.383333	1	0.044000
0.400000	1	0.044500
0.416667	1	0.045500
0.433333	1	0.047250
0.450000	1	0.048875
0.466667	1	0.051250
0.483333	1	0.053250
0.500000	1	0.054375
0.516667	1	0.055375
0.533333	1	0.054875
0.550000	1	0.054500
0.566667	1	0.051750
0.583333	1	0.048375
0.600000	1	0.044750
0.616667	1	0.041625
0.633333	1	0.038375
0.650000	1	0.036125
0.666667	1	0.034000
0.683333	1	0.032125
0.700000	1	0.029750
0.716667	1	0.028250
0.733333	1	0.026375
0.750000	1	0.025000
0.766667	1	0.023500
0.783333	1	0.021875
0.800000	1	0.020750
0.816667	1	0.019750
0.833333	1	0.018625
0.850000	1	0.017875
0.866667	1	0.017500
0.883333	1	0.016500
0.900000	1	0.015625
0.916667	1	0.015500
0.933333	1	0.015875
0.950000	1	0.014875
0.966667	1	0.014625
0.983333	1	0.014250
1.000000	1	0.014875
1.016667	1	0.014875
1.033333	1	0.015375
1.050000	1	0.015750
1.066667	1	0.016125
1.083333	1	0.016250
1.100000	1	0.016500
1.116667	1	0.017125
1.133333	1	0.017500
1.150000	1	0.018250
1.166667	1	0.018375
1.183333	1	0.019375
1.200000	1	0.019625
1.216667	1	0.020125
1.233333	1	0.020125
1.250000	1	0.020625
1.266667	1	0.021250
1.283333	1	0.021375
1.300000	1	0.021375
1.316667	1	0.021375
1.333333	1	0.020750
1.350000	1	0.020875
1.366667	1	0.020125
1.383333	1	0.020125
1.400000	1	0.020125
1.416667	1	0.020375
1.433333	1	0.020250
1.450000	1	0.020375
1.466667	1	0.020375
1.483333	1	0.020250
1.500000	1	0.020125
1.516667	1	0.019625
1.533333	1	0.019625
1.550000	1	0.019500
1.566667	1	0.019500
1.583333	1	0.019375
1.600000	1	0.018875
1.616667	1	0.018625
1.633333	1	0.018875
1.650000	1	0.018750
1.666667	1	0.017875
1.683333	1	0.018125
1.700000	1	0.017750
1.716667	1	0.017250
1.733333	1	0.016250
1.750000	1	0.014875
1.766667	1	0.014125
1.783333	1	0.012625
1.800000	1	0.012000
1.816667	1	0.010750
1.833333	1	0.009500
1.850000	1	0.009000
1.866667	1	0.008000
1.883333	1	0.006125
1.900000	1	0.004500
1.916667	1	0.003250
1.933333	1	0.001875
1.950000	1	0.000750
1.966667	1	-0.000250
1.983333	1	-0.000625
2.000000	1	-0.000750
2.016667	1	-0.001625
2.033333	1	-0.002125
2.050000	1	-0.001750
2.066667	1	-0.001500
2.083333	1	-0.001000
2.100000	1	-0.000375
2.116667	1	0.000125
2.133333	1	0.000750
2.150000	1	0.001125
2.166667	1	0.002250
2.183333	1	0.003500
2.200000	1	0.005125
2.216667	1	0.007000
2.233333	1	0.009000
2.250000	1	0.010375
2.266667	1	0.012500
2.283333	1	0.014125
2.300000	1	0.015250
2.316667	1	0.017375
2.333333	1	0.018375
2.350000	1	0.019875
2.366667	1	0.021625
2.383333	1	0.022625
2.400000	1	0.023750
2.416667	1	0.024875
2.433333	1	0.025250
2.450000	1	0.025000
2.466667	1	0.025750
2.483333	1	0.026250
2.500000	1	0.026500
2.516667	1	0.027000
2.533333	1	0.026500
2.550000	1	0.025875
2.566667	1	0.025875
2.583333	1	0.025125
2.600000	1	0.025000
2.616667	1	0.024125
2.633333	1	0.022875
2.650000	1	0.021750
2.666667	1	0.021250
2.683333	1	0.020500
2.700000	1	0.020000
2.716667	1	0.019500
2.733333	1	0.018625
2.750000	1	0.018000
2.766667	1	0.017500
2.783333	1	0.017375
2.800000	1	0.017750
2.816667	1	0.017875
2.833333	1	0.017875
2.850000	1	0.018750
2.866667	1	0.019125
2.883333	1	0.019875
2.900000	1	0.021000
2.916667	1	0.022750
2.933333	1	0.025125
2.950000	1	0.026750
2.966667	1	0.028625
2.983333	1	0.031750
3.000000	1	0.035000
3.016667	1	0.038125
3.033333	1	0.042000
3.050000	1	0.046000
3.066667	1	0.049375
3.083333	1	0.053875
3.100000	1	0.058375
3.116667	1	0.061750
3.133333	1	0.065625
3.150000	1	0.069750
3.166667	1	0.073750
3.183333	1	0.078250
3.200000	1	0.082375
3.216667	1	0.086750
3.233333	1	0.091000
3.250000	1	0.095500
3.266667	1	0.098875
3.283333	1	0.102625
3.300000	1	0.106250
3.316667	1	0.109500
3.333333	1	0.111750
3.350000	1	0.113875
3.366667	1	0.116000
3.383333	1	0.117875
3.400000	1	0.119250
3.416667	1	0.121000
3.433333	1	0.121625
3.450000	1	0.122750
3.466667	1	0.123500
3.483333	1	0.124250
3.500000	1	0.124500
3.516667	1	0.124500
3.533333	1	0.124250
3.550000	1	0.124500
3.566667	1	0.124000
3.583333	1	0.123750
3.600000	1	0.122625
3.616667	1	0.121250
3.633333	1	0.119375
3.650000	1	0.118875
3.666667	1	0.117625
3.683333	1	0.116250
3.700000	1	0.115500
3.716667	1	0.114375
3.733333	1	0.112750
3.750000	1	0.111375
3.766667	1	0.110125
3.783333	1	0.108375
3.800000	1	0.107625
3.816667	1	0.106500
3.833333	1	0.105875
3.850000	1	0.105250
3.866667	1	0.104750
3.883333	1	0.103375
3.900000	1	0.102875
3.916667	1	0.102250
3.933333	1	0.102125
3.950000	1	0.101875
3.966667	1	0.101750
3.983333	1	0.102000
4.000000	1	0.101875
4.016667	1	0.102000
4.033333	1	0.102000
4.050000	1	0.102375
4.066667	1	0.102625
4.083333	1	0.103250
4.100000	1	0.103625
4.116667	1	0.104000
4.133333	1	0.104875
4.150000	1	0.105625
4.166667	1	0.105625
4.183333	1	0.106750
4.200000	1	0.107125
4.216667	1	0.107375
4.233333	1	0.107750
4.250000	1	0.107750
4.266667	1	0.108125
4.283333	1	0.108250
4.300000	1	0.108000
4.316667	1	0.107750
4.333333	1	0.107750
4.350000	1	0.107875
4.366667	1	0.108375
4.383333	1	0.108250
4.400000	1	0.108375
4.416667	1	0.108250
4.433333	1	0.108625
4.450000	1	0.108875
4.466667	1	0.109250
4.483333	1	0.109125
4.500000	1	0.109250
4.516667	1	0.109250
4.533333	1	0.109500
4.550000	1	0.110625
4.566667	1	0.112000
4.583333	1	0.112750
4.600000	1	0.114250
4.616667	1	0.116250
4.633333	1	0.118625
4.650000	1	0.120125
4.666667	1	0.123000
4.683333	1	0.126750
4.700000	1	0.130500
4.716667	1	0.134125
4.733333	1	0.137875
4.750000	1	0.142500
4.766667	1	0.146375
4.783333	1	0.151125
4.800000	1	0.156375
4.816667	1	0.162000
4.833333	1	0.167500
4.850000	1	0.173125
4.866667	1	0.178875
4.883333	1	0.184125
4.900000	1	0.190000
4.916667	1	0.195625
4.933333	1	0.201250
4.950000	1	0.207125
4.966667	1	0.212875
4.983333	1	0.218000
5.000000	1	0.223625
5.016667	1	0.229375
5.033333	1	0.234375
5.050000	1	0.239625
5.066667	1	0.244875
5.083333	1	0.249875
5.100000	1	0.254500
5.116667	1	0.258125
5.133333	1	0.262000
5.150000	1	0.266125
5.166667	1	0.268500
5.183333	1	0.271750
5.200000	1	0.274625
5.216667	1	0.276500
5.233333	1	0.279250
5.250000	1	0.279875
5.266667	1	0.280625
5.283333	1	0.281500
5.300000	1	0.281625
5.316667	1	0.281625
5.333333	1	0.281250
5.350000	1	0.280375
5.366667	1	0.278625
5.383333	1	0.276625
5.400000	1	0.274625
5.416667	1	0.272000
5.433333	1	0.269000
5.450000	1	0.266625
5.466667	1	0.262750
5.483333	1	0.259375
5.500000	1	0.255500
5.516667	1	0.250375
5.533333	1	0.246000
5.550000	1	0.241875
5.566667	1	0.237500
5.583333	1	0.232875
5.600000	1	0.228250
5.616667	1	0.223750
5.633333	1	0.218625
5.650000	1	0.213625
5.666667	1	0.208625
5.683333	1	0.203125
5.700000	1	0.198500
5.716667	1	0.193625
5.733333	1	0.188875
5.750000	1	0.184750
5.766667	1	0.180875
5.783333	1	0.175875
5.800000	1	0.171375
5.816667	1	0.166500
5.833333	1	0.162250
5.850000	1	0.157500
5.866667	1	0.153125
5.883333	1	0.148875
5.900000	1	0.144750
5.916667	1	0.140000
5.933333	1	0.135875
5.950000	1	0.131125
5.966667	1	0.126875
5.983333	1	0.122250
6.000000	1	0.117875
6.016667	1	0.113125
6.033333	1	0.109000
6.050000	1	0.104625
6.066667	1	0.100250
6.083333	1	0.096250
6.100000	1	0.092375
6.116667	1	0.088250
6.133333	1	0.084750
6.150000	1	0.081125
6.166667	1	0.078375
6.183333	1	0.075250
6.200000	1	0.071625
6.216667	1	0.069125
6.233333	1	0.067125
6.250000	1	0.065375
6.266667	1	0.064125
6.283333	1	0.062375
6.300000	1	0.060375
6.316667	1	0.059250
6.333333	1	0.059000
6.350000	1	0.058750
6.366667	1	0.058750
6.383333	1	0.059250
6.400000	1	0.060375
6.416667	1	0.061125
6.433333	1	0.062500
6.450000	1	0.062875
6.466667	1	0.063625
6.483333	1	0.065125
6.500000	1	0.066500
6.516667	1	0.067625
6.533333	1	0.069250
6.550000	1	0.070500
6.566667	1	0.071875
6.583333	1	0.073625
6.600000	1	0.074875
6.616667	1	0.076500
6.633333	1	0.078125
6.650000	1	0.080250
6.666667	1	0.081625
6.683333	1	0.083250
6.700000	1	0.084750
6.716667	1	0.086375
6.733333	1	0.087875
6.750000	1	0.089250
6.766667	1	0.090875
6.783333	1	0.092250
6.800000	1	0.093500
6.816667	1	0.095250
6.833333	1	0.097625
6.850000	1	0.099750
6.866667	1	0.101375
6.883333	1	0.103500
6.900000	1	0.105625
6.916667	1	0.108000
6.933333	1	0.110750
6.950000	1	0.113500
6.966667	1	0.116375
6.983333	1	0.119500
7.000000	1	0.122125
7.016667	1	0.125250
7.033333	1	0.128625
7.050000	1	0.132125
7.066667	1	0.135375
7.083333	1	0.138875
7.100000	1	0.142000
7.116667	1	0.145125
7.133333	1	0.147875
7.150000	1	0.150375
7.166667	1	0.152625
7.183333	1	0.154250
7.200000	1	0.157125
7.216667	1	0.158375
7.233333	1	0.159625
7.250000	1	0.160625
7.266667	1	0.160875
7.283333	1	0.160625
7.300000	1	0.160750
7.316667	1	0.160750
7.333333	1	0.160125
7.350000	1	0.160000
7.366667	1	0.158500
7.383333	1	0.156625
7.400000	1	0.155375
7.416667	1	0.152750
7.433333	1	0.150000
7.450000	1	0.146875
7.466667	1	0.143750
7.483333	1	0.140250
7.500000	1	0.137500
7.516667	1	0.134375
7.533333	1	0.131375
7.550000	1	0.128125
7.566667	1	0.125125
7.583333	1	0.122000
7.600000	1	0.117875
7.616667	1	0.114500
7.633333	1	0.110375
7.650000	1	0.107000
7.666667	1	0.103875
7.683333	1	0.100500
7.700000	1	0.097375
7.716667	1	0.094250
7.733333	1	0.090625
7.750000	1	0.087875
7.766667	1	0.084625
7.783333	1	0.081875
7.800000	1	0.079375
7.816667	1	0.076875
7.833333	1	0.074125
7.850000	1	0.071125
7.866667	1	0.068375
7.883333	1	0.066750
7.900000	1	0.065125
7.916667	1	0.063375
7.933333	1	0.062000
7.950000	1	0.060125
7.966667	1	0.058500
7.983333	1	0.057250
8.000000	1	0.055375
8.016667	1	0.053500
8.033333	1	0.052500
8.050000	1	0.051375
8.066667	1	0.050625
8.083333	1	0.049750
8.100000	1	0.049125
8.116667	1	0.047625
8.133333	1	0.046750
8.150000	1	0.046250
8.166667	1	0.046000
8.183333	1	0.045500
8.200000	1	0.045125
8.216667	1	0.044125
8.233333	1	0.043250
8.250000	1	0.043250
8.266667	1	0.043000
8.283333	1	0.043125
8.300000	1	0.042625
8.316667	1	0.042625
8.333333	1	0.042125
8.350000	1	0.042500
8.366667	1	0.042500
8.383333	1	0.042375
8.400000	1	0.041750
8.416667	1	0.041875
8.433333	1	0.040875
8.450000	1	0.040750
8.466667	1	0.040000
8.483333	1	0.039125
8.500000	1	0.038125
8.516667	1	0.037250
8.533333	1	0.036375
8.550000	1	0.035500
8.566667	1	0.034500
8.583333	1	0.034250
8.600000	1	0.033750
8.616667	1	0.032625
8.633333	1	0.031875
8.650000	1	0.030625
8.666667	1	0.029500
8.683333	1	0.028750
8.700000	1	0.027750
8.716667	1	0.026375
8.733333	1	0.025750
8.750000	1	0.025000
8.766667	1	0.024250
8.783333	1	0.023250
8.800000	1	0.022500
8.816667	1	0.021500
8.833333	1	0.021500
8.850000	1	0.021000
8.866667	1	0.020375
8.883333	1	0.020250
8.900000	1	0.020000
8.916667	1	0.019625
8.933333	1	0.019625
8.950000	1	0.019125
8.966667	1	0.018375
8.983333	1	0.018250
9.000000	1	0.018000
9.016667	1	0.017500
9.033333	1	0.017250
9.050000	1	0.016750
9.066667	1	0.016500
9.083333	1	0.016000
9.100000	1	0.015500
9.116667	1	0.015250
9.133333	1	0.014375
9.150000	1	0.013125
9.166667	1	0.012375
9.183333	1	0.011250
9.200000	1	0.009750
9.216667	1	0.009000
9.233333	1	0.007625
9.250000	1	0.006625
9.266667	1	0.005500
9.283333	1	0.004875
9.300000	1	0.003375
9.316667	1	0.001750
9.333333	1	0.000250
9.350000	1	-0.001125
9.366667	1	-0.002875
9.383333	1	-0.004625
9.400000	1	-0.006000
9.416667	1	-0.008000
9.433333	1	-0.008750
9.450000	1	-0.010250
9.466667	1	-0.011375
9.483333	1	-0.012875
9.500000	1	-0.014250
9.516667	1	-0.015375
9.533333	1	-0.016625
9.550000	1	-0.018125
9.566667	1	-0.019000
9.583333	1	-0.020000
9.600000	1	-0.020000
9.616667	1	-0.020875
9.633333	1	-0.021500
9.650000	1	-0.021875
9.666667	1	-0.022375
9.683333	1	-0.022500
9.700000	1	-0.022750
9.716667	1	-0.022375
9.733333	1	-0.021625
9.750000	1	-0.021750
9.766667	1	-0.021375
9.783333	1	-0.020750
9.800000	1	-0.019625
9.816667	1	-0.019000
9.833333	1	-0.018000
9.850000	1	-0.017125
9.866667	1	-0.016000
9.883333	1	-0.014875
9.900000	1	-0.013125
9.916667	1	-0.011375
9.933333	1	-0.009875
9.950000	1	-0.008000
9.966667	1	-0.006750
9.983333	1	-0.004625
10.000000	1	-0.002125
10.016667	1	0.000375
10.033333	1	0.002375
10.050000	1	0.005125
10.066667	1	0.007250
10.083333	1	0.010000
10.100000	1	0.012750
10.116667	1	0.016000
10.133333	1	0.019125
10.150000	1	0.022875
10.166667	1	0.027000
10.183333	1	0.032000
10.200000	1	0.038000
10.216667	1	0.045000
10.233333	1	0.052875
10.250000	1	0.062000
10.266667	1	0.073625
10.283333	1	0.087375
10.300000	1	0.102750
10.316667	1	0.120250
10.333333	1	0.140875
10.350000	1	0.163500
10.366667	1	0.187500
10.383333	1	0.212000
10.400000	1	0.235500
10.416667	1	0.254750
10.433333	1	0.269250
10.450000	1	0.279625
10.466667	1	0.289500
10.483333	1	0.308375
10.500000	1	0.354625
10.516667	1	0.455000
10.533333	1	0.646125
10.550000	1	0.969500
10.566667	1	1.468750
10.583333	1	2.187000
10.600000	1	3.161125
10.616667	1	4.419375
10.633333	1	5.979750
10.650000	1	7.850000
10.666667	1	10.029125
10.683333	1	12.508625
10.700000	1	15.269875
10.716667	1	18.282125
10.733333	1	21.507500
10.750000	1	24.896375
10.766667	1	28.391625
10.783333	1	31.916250
10.800000	1	35.372875
10.816667	1	38.637500
10.833333	1	41.543250
10.850000	1	43.882500
10.866667	1	45.419000
10.883333	1	45.913625
10.900000	1	45.190000
10.916667	1	43.198625
10.933333	1	40.064500
10.950000	1	36.073375
10.966667	1	31.613000
10.983333	1	27.070375
11.000000	1	22.757500
11.016667	1	18.877625
11.033333	1	15.530125
11.050000	1	12.728875
11.066667	1	10.436500
11.083333	1	8.594250
11.100000	1	7.133375
11.116667	1	5.987250
11.133333	1	5.093500
11.150000	1	4.399250
11.166667	1	3.857500
11.183333	1	3.432750
11.200000	1	3.095750
11.216667	1	2.826125
11.233333	1	2.606750
11.250000	1	2.426250
11.266667	1	2.274500
11.283333	1	2.146375
11.300000	1	2.035250
11.316667	1	1.937625
11.333333	1	1.851375
11.350000	1	1.773250
11.366667	1	1.702625
11.383333	1	1.639375
11.400000	1	1.582125
11.416667	1	1.530250
11.433333	1	1.483875
11.450000	1	1.442875
11.466667	1	1.406875
11.483333	1	1.374500
11.500000	1	1.346125
11.516667	1	1.320125
11.533333	1	1.298250
11.550000	1	1.278625
11.566667	1	1.261750
11.583333	1	1.247250
11.600000	1	1.234375
11.616667	1	1.222500
11.633333	1	1.212500
11.650000	1	1.203875
11.666667	1	1.196125
11.683333	1	1.190125
11.700000	1	1.183875
11.716667	1	1.178875
11.733333	1	1.174875
11.750000	1	1.171500
11.766667	1	1.169000
11.783333	1	1.167250
11.800000	1	1.166125
11.816667	1	1.165500
11.833333	1	1.165750
11.850000	1	1.166500
11.866667	1	1.167875
11.883333	1	1.170375
11.900000	1	1.172875
11.916667	1	1.175125
11.933333	1	1.176750
11.950000	1	1.178750
11.966667	1	1.179625
11.983333	1	1.180375
12.000000	1	1.180500
12.016667	1	1.179750
12.033333	1	1.179000
12.050000	1	1.178500
12.066667	1	1.177500
12.083333	1	1.176625
12.100000	1	1.175750
12.116667	1	1.176250
12.133333	1	1.177250
12.150000	1	1.177625
12.166667	1	1.178875
12.183333	1	1.181625
12.200000	1	1.185375
12.216667	1	1.190125
12.233333	1	1.196375
12.250000	1	1.205625
12.266667	1	1.217750
12.283333	1	1.233125
12.300000	1	1.254750
12.316667	1	1.284125
12.333333	1	1.325125
12.350000	1	1.380750
12.366667	1	1.458750
12.383333	1	1.566500
12.400000	1	1.715500
12.416667	1	1.921000
12.433333	1	2.203000
12.450000	1	2.589875
12.466667	1	3.114125
12.483333	1	3.818625
12.500000	1	4.751500
12.516667	1	5.969750
12.533333	1	7.534250
12.550000	1	9.507875
12.566667	1	11.948500
12.583333	1	14.907875
12.600000	1	18.417250
12.616667	1	22.479875
12.633333	1	27.076000
12.650000	1	32.146750
12.666667	1	37.591750
12.683333	1	43.263875
12.700000	1	48.971625
12.716667	1	54.491875
12.733333	1	59.581125
12.750000	1	64.003625
12.766667	1	67.547750
12.783333	1	70.039000
12.800000	1	71.368750
12.816667	1	71.495500
12.833333	1	70.452750
12.850000	1	68.342625
12.866667	1	65.327000
12.883333	1	61.612875
12.900000	1	57.432375
12.916667	1	53.016375
12.933333	1	48.579250
12.950000	1	44.290500
12.966667	1	40.262000
12.983333	1	36.540375
13.000000	1	33.109250
13.016667	1	29.903750
13.033333	1	26.842125
13.050000	1	23.855250
13.066667	1	20.908625
13.083333	1	18.010250
13.100000	1	15.212875
13.116667	1	12.609625
13.133333	1	10.300125
13.150000	1	8.352625
13.166667	1	6.779625
13.183333	1	5.544750
13.200000	1	4.591125
13.216667	1	3.859375
13.233333	1	3.297500
13.250000	1	2.864250
13.266667	1	2.528750
13.283333	1	2.266375
13.300000	1	2.058625
13.316667	1	1.892125
13.333333	1	1.756500
13.350000	1	1.644750
13.366667	1	1.551125
13.383333	1	1.471750
13.400000	1	1.403500
13.416667	1	1.344500
13.433333	1	1.294000
13.450000	1	1.249750
13.466667	1	1.211000
13.483333	1	1.177750
13.500000	1	1.148500
13.516667	1	1.123375
13.533333	1	1.102625
13.550000	1	1.084625
13.566667	1	1.069625
13.583333	1	1.058750
13.600000	1	1.050250
13.616667	1	1.044875
13.633333	1	1.040500
13.650000	1	1.038250
13.666667	1	1.036750
13.683333	1	1.037250
13.700000	1	1.037500
13.716667	1	1.037875
13.733333	1	1.038250
13.750000	1	1.037125
13.766667	1	1.034875
13.783333	1	1.030375
13.800000	1	1.023750
13.816667	1	1.015500
13.833333	1	1.004375
13.850000	1	0.991500
13.866667	1	0.977375
13.883333	1	0.961375
13.900000	1	0.944250
13.916667	1	0.926500
13.933333	1	0.908125
13.950000	1	0.890625
13.966667	1	0.873500
13.983333	1	0.856875
14.000000	1	0.840250
14.016667	1	0.825250
14.033333	1	0.810875
14.050000	1	0.797125
14.066667	1	0.783875
14.083333	1	0.771250
14.100000	1	0.759000
14.116667	1	0.746500
14.133333	1	0.735500
14.150000	1	0.724750
14.166667	1	0.714750
14.183333	1	0.704750
14.200000	1	0.695250
14.216667	1	0.686500
14.233333	1	0.678250
14.250000	1	0.670750
14.266667	1	0.663750
14.283333	1	0.657750
14.300000	1	0.653000
14.316667	1	0.648125
14.333333	1	0.644125
14.350000	1	0.641750
14.366667	1	0.640750
14.383333	1	0.641375
14.400000	1	0.643375
14.416667	1	0.646625
14.433333	1	0.650375
14.450000	1	0.655875
14.466667	1	0.662000
14.483333	1	0.669000
14.500000	1	0.675875
14.516667	1	0.683125
14.533333	1	0.691500
14.550000	1	0.700000
14.566667	1	0.708000
14.583333	1	0.716250
14.600000	1	0.724750
14.616667	1	0.733750
14.633333	1	0.743500
14.650000	1	0.755125
14.666667	1	0.770125
14.683333	1	0.787750
14.700000	1	0.808375
14.716667	1	0.833500
14.733333	1	0.863375
14.750000	1	0.897750
14.766667	1	0.937250
14.783333	1	0.980625
14.800000	1	1.027125
14.816667	1	1.075750
14.833333	1	1.124625
14.850000	1	1.172625
14.866667	1	1.216750
14.883333	1	1.254125
14.900000	1	1.284625
14.916667	1	1.304250
14.933333	1	1.313250
14.950000	1	1.310375
14.966667	1	1.295375
14.983333	1	1.269625
15.000000	1	1.233500
15.016667	1	1.189375
15.033333	1	1.138125
15.050000	1	1.083250
15.066667	1	1.026875
15.083333	1	0.970500
15.100000	1	0.915625
15.116667	1	0.864500
15.133333	1	0.817875
15.150000	1	0.776875
15.166667	1	0.740500
15.183333	1	0.710125
15.200000	1	0.685000
15.216667	1	0.665750
15.233333	1	0.650750
15.250000	1	0.640500
15.266667	1	0.634875
15.283333	1	0.632500
15.300000	1	0.633875
15.316667	1	0.639750
15.333333	1	0.649000
15.350000	1	0.663125
15.366667	1	0.680875
15.383333	1	0.703250
15.400000	1	0.729750
15.416667	1	0.760625
15.433333	1	0.795000
15.450000	1	0.833375
15.466667	1	0.874000
15.483333	1	0.916125
15.500000	1	0.958625
15.516667	1	0.999875
15.533333	1	1.038500
15.550000	1	1.072750
15.566667	1	1.100625
15.583333	1	1.121250
15.600000	1	1.134000
15.616667	1	1.137875
15.633333	1	1.133250
15.650000	1	1.120250
15.666667	1	1.100125
15.683333	1	1.073250
15.700000	1	1.043125
15.716667	1	1.009125
15.733333	1	0.974000
15.750000	1	0.938625
15.766667	1	0.904375
15.783333	1	0.872500
15.800000	1	0.843375
15.816667	1	0.816125
15.833333	1	0.791875
15.850000	1	0.770500
15.866667	1	0.751625
15.883333	1	0.734750
15.900000	1	0.720375
15.916667	1	0.706375
15.933333	1	0.694750
15.950000	1	0.684625
15.966667	1	0.676625
15.983333	1	0.669500
16.000000	1	0.663875
16.016667	1	0.660000
16.033333	1	0.657000
16.050000	1	0.656000
16.066667	1	0.656125
16.083333	1	0.657625
16.100000	1	0.660500
16.116667	1	0.664250
16.133333	1	0.669000
16.150000	1	0.674000
16.166667	1	0.680250
16.183333	1	0.686250
16.200000	1	0.693125
16.216667	1	0.699500
16.233333	1	0.705000
16.250000	1	0.709500
16.266667	1	0.713375
16.283333	1	0.716625
16.300000	1	0.718750
16.316667	1	0.720375
16.333333	1	0.721125
16.350000	1	0.721375
16.366667	1	0.721000
16.383333	1	0.720250
16.400000	1	0.718750
16.416667	1	0.718125
16.433333	1	0.717125
16.450000	1	0.716375
16.466667	1	0.717000
16.483333	1	0.718625
16.500000	1	0.721500
16.516667	1	0.725500
16.533333	1	0.730750
16.550000	1	0.736875
16.566667	1	0.745375
16.583333	1	0.754750
16.600000	1	0.764250
16.616667	1	0.774375
16.633333	1	0.785000
16.650000	1	0.795875
16.666667	1	0.805750
16.683333	1	0.815875
16.700000	1	0.824875
16.716667	1	0.833000
16.733333	1	0.841375
16.750000	1	0.848250
16.766667	1	0.854750
16.783333	1	0.860375
16.800000	1	0.866125
16.816667	1	0.871875
16.833333	1	0.878000
16.850000	1	0.884500
16.866667	1	0.891000
16.883333	1	0.898250
16.900000	1	0.905625
16.916667	1	0.912625
16.933333	1	0.918500
16.950000	1	0.924500
16.966667	1	0.930625
16.983333	1	0.934875
17.000000	1	0.938500
17.016667	1	0.941125
17.033333	1	0.942000
17.050000	1	0.942000
17.066667	1	0.942000
17.083333	1	0.939750
17.100000	1	0.937625
17.116667	1	0.934875
17.133333	1	0.932125
17.150000	1	0.929875
17.166667	1	0.928000
17.183333	1	0.925875
17.200000	1	0.925500
17.216667	1	0.925500
17.233333	1	0.925375
17.250000	1	0.925875
17.266667	1	0.927375
17.283333	1	0.928875
17.300000	1	0.930375
17.316667	1	0.933750
17.333333	1	0.936125
17.350000	1	0.938875
17.366667	1	0.941000
17.383333	1	0.943000
17.400000	1	0.945250
17.416667	1	0.947625
17.433333	1	0.948875
17.450000	1	0.950125
17.466667	1	0.950125
17.483333	1	0.949125
17.500000	1	0.946125
17.516667	1	0.942500
17.533333	1	0.938125
17.550000	1	0.932250
17.566667	1	0.924875
17.583333	1	0.916125
17.600000	1	0.906000
17.616667	1	0.894625
17.633333	1	0.881750
17.650000	1	0.867875
17.666667	1	0.853625
17.683333	1	0.838500
17.700000	1	0.822625
17.716667	1	0.806750
17.733333	1	0.791875
17.750000	1	0.776750
17.766667	1	0.762625
17.783333	1	0.748250
17.800000	1	0.734750
17.816667	1	0.722125
17.833333	1	0.710875
17.850000	1	0.700375
17.866667	1	0.690125
17.883333	1	0.680500
17.900000	1	0.672500
17.916667	1	0.664625
17.933333	1	0.658000
17.950000	1	0.652375
17.966667	1	0.647875
17.983333	1	0.643125
18.000000	1	0.639750
18.016667	1	0.635875
18.033333	1	0.632750
18.050000	1	0.630125
18.066667	1	0.627000
18.083333	1	0.624625
18.100000	1	0.621750
18.116667	1	0.619000
18.133333	1	0.616125
18.150000	1	0.614875
18.166667	1	0.612750
18.183333	1	0.611375
18.200000	1	0.610500
18.216667	1	0.609750
18.233333	1	0.609375
18.250000	1	0.609750
18.266667	1	0.610250
18.283333	1	0.611500
18.300000	1	0.613000
18.316667	1	0.615750
18.333333	1	0.618750
18.350000	1	0.621750
18.366667	1	0.625500
18.383333	1	0.629375
18.400000	1	0.634625
18.416667	1	0.639875
18.433333	1	0.645750
18.450000	1	0.652000
18.466667	1	0.658250
18.483333	1	0.664875
18.500000	1	0.673125
18.516667	1	0.682500
18.533333	1	0.692875
18.550000	1	0.704250
18.566667	1	0.717375
18.583333	1	0.732625
18.600000	1	0.749250
18.616667	1	0.767750
18.633333	1	0.788125
18.650000	1	0.810750
18.666667	1	0.835000
18.683333	1	0.860500
18.700000	1	0.888250
18.716667	1	0.918000
18.733333	1	0.949375
18.750000	1	0.982500
18.766667	1	1.016250
18.783333	1	1.051000
18.800000	1	1.086375
18.816667	1	1.121250
18.833333	1	1.155875
18.850000	1	1.190375
18.866667	1	1.222125
18.883333	1	1.251000
18.900000	1	1.277875
18.916667	1	1.300250
18.933333	1	1.318000
18.950000	1	1.331000
18.966667	1	1.338625
18.983333	1	1.340625
19.000000	1	1.336625
19.016667	1	1.325000
19.033333	1	1.306500
19.050000	1	1.282625
19.066667	1	1.252875
19.083333	1	1.217875
19.100000	1	1.178875
19.116667	1	1.135125
19.133333	1	1.089375
19.150000	1	1.041625
19.166667	1	0.992750
19.183333	1	0.944500
19.200000	1	0.897000
19.216667	1	0.851375
19.233333	1	0.808500
19.250000	1	0.769375
19.266667	1	0.733375
19.283333	1	0.702750
19.300000	1	0.676000
19.316667	1	0.655625
19.333333	1	0.640000
19.350000	1	0.630250
19.366667	1	0.625500
19.383333	1	0.625750
19.400000	1	0.631750
19.416667	1	0.643375
19.433333	1	0.658625
19.450000	1	0.678750
19.466667	1	0.703000
19.483333	1	0.731875
19.500000	1	0.763500
19.516667	1	0.797875
19.533333	1	0.834375
19.550000	1	0.871875
19.566667	1	0.911125
19.583333	1	0.949000
19.600000	1	0.985750
19.616667	1	1.020500
19.633333	1	1.051875
19.650000	1	1.079750
19.666667	1	1.102375
19.683333	1	1.120375
19.700000	1	1.132375
19.716667	1	1.138750
19.733333	1	1.139625
19.750000	1	1.135000
19.766667	1	1.124500
19.783333	1	1.108625
19.800000	1	1.088250
19.816667	1	1.063875
19.833333	1	1.036625
19.850000	1	1.006125
19.866667	1	0.973500
19.883333	1	0.939375
19.900000	1	0.905375
19.916667	1	0.870500
19.933333	1	0.836125
19.950000	1	0.802125
19.966667	1	0.769250
19.983333	1	0.737750
20.000000	1	0.708875
20.016667	1	0.681875
20.033333	1	0.657000
20.050000	1	0.634500
20.066667	1	0.614750
20.083333	1	0.597625
20.100000	1	0.583625
20.116667	1	0.572375
20.133333	1	0.564375
20.150000	1	0.558875
20.166667	1	0.556625
20.183333	1	0.556500
20.200000	1	0.559750
20.216667	1	0.565875
20.233333	1	0.573125
20.250000	1	0.581875
20.266667	1	0.592500
20.283333	1	0.604125
20.300000	1	0.616500
20.316667	1	0.628625
20.333333	1	0.641000
20.350000	1	0.652375
20.366667	1	0.663125
20.383333	1	0.672500
20.400000	1	0.680375
20.416667	1	0.685750
20.433333	1	0.690000
20.450000	1	0.692625
20.466667	1	0.694375
20.483333	1	0.694875
20.500000	1	0.695750
20.516667	1	0.697125
20.533333	1	0.700375
20.550000	1	0.706500
20.566667	1	0.715875
20.583333	1	0.729875
20.600000	1	0.748250
20.616667	1	0.773125
20.633333	1	0.804500
20.650000	1	0.843125
20.666667	1	0.888625
20.683333	1	0.941000
20.700000	1	1.000625
20.716667	1	1.066500
20.733333	1	1.138000
20.750000	1	1.214250
20.766667	1	1.291750
20.783333	1	1.369750
20.800000	1	1.446000
20.816667	1	1.518500
20.833333	1	1.584750
20.850000	1	1.642625
20.866667	1	1.690375
20.883333	1	1.725750
20.900000	1	1.747250
20.916667	1	1.754500
20.933333	1	1.746375
20.950000	1	1.724250
20.966667	1	1.687375
20.983333	1	1.637750
21.000000	1	1.576750
21.016667	1	1.506500
21.033333	1	1.429125
21.050000	1	1.347500
21.066667	1	1.263125
21.083333	1	1.178250
21.100000	1	1.094750
21.116667	1	1.014125
21.133333	1	0.937625
21.150000	1	0.866125
21.166667	1	0.800250
21.183333	1	0.740625
21.200000	1	0.687375
21.216667	1	0.641000
21.233333	1	0.600625
21.250000	1	0.565625
21.266667	1	0.535250
21.283333	1	0.509125
21.300000	1	0.487500
21.316667	1	0.469625
21.333333	1	0.455250
21.350000	1	0.443750
21.366667	1	0.434500
21.383333	1	0.426000
21.400000	1	0.419875
21.416667	1	0.415125
21.433333	1	0.411125
21.450000	1	0.408750
21.466667	1	0.407125
21.483333	1	0.405125
21.500000	1	0.404125
21.516667	1	0.403125
21.533333	1	0.402625
21.550000	1	0.403500
21.566667	1	0.403500
21.583333	1	0.404125
21.600000	1	0.404375
21.616667	1	0.406125
21.633333	1	0.407625
21.650000	1	0.409125
21.666667	1	0.411625
21.683333	1	0.414125
21.700000	1	0.416875
21.716667	1	0.419250
21.733333	1	0.422625
21.750000	1	0.425625
21.766667	1	0.428125
21.783333	1	0.432125
21.800000	1	0.435875
21.816667	1	0.439750
21.833333	1	0.443875
21.850000	1	0.447250
21.866667	1	0.451500
21.883333	1	0.455375
21.900000	1	0.459250
21.916667	1	0.463375
21.933333	1	0.467250
21.950000	1	0.472250
21.966667	1	0.477375
21.983333	1	0.482000
22.000000	1	0.487625
22.016667	1	0.492375
22.033333	1	0.497625
22.050000	1	0.503250
22.066667	1	0.508750
22.083333	1	0.514000
22.100000	1	0.519625
22.116667	1	0.524375
22.133333	1	0.528875
22.150000	1	0.532500
22.166667	1	0.535125
22.183333	1	0.537125
22.200000	1	0.537250
22.216667	1	0.537500
22.233333	1	0.536000
22.250000	1	0.533375
22.266667	1	0.529750
22.283333	1	0.524375
22.300000	1	0.517125
22.316667	1	0.509250
22.333333	1	0.500000
22.350000	1	0.489250
22.366667	1	0.477875
22.383333	1	0.465625
22.400000	1	0.452250
22.416667	1	0.438500
22.433333	1	0.424375
22.450000	1	0.410000
22.466667	1	0.395750
22.483333	1	0.382375
22.500000	1	0.368875
22.516667	1	0.357000
22.533333	1	0.345000
22.550000	1	0.333500
22.566667	1	0.323125
22.583333	1	0.313000
22.600000	1	0.303375
22.616667	1	0.295000
22.633333	1	0.287500
22.650000	1	0.280625
22.666667	1	0.274750
22.683333	1	0.269250
22.700000	1	0.263625
22.716667	1	0.259625
22.733333	1	0.256375
22.750000	1	0.253125
22.766667	1	0.249625
22.783333	1	0.247125
22.800000	1	0.244625
22.816667	1	0.242875
22.833333	1	0.241500
22.850000	1	0.240125
22.866667	1	0.239000
22.883333	1	0.238750
22.900000	1	0.238500
22.916667	1	0.238250
22.933333	1	0.238500
22.950000	1	0.239750
22.966667	1	0.240750
22.983333	1	0.241625
23.000000	1	0.242375
23.016667	1	0.244500
23.033333	1	0.246125
23.050000	1	0.248500
23.066667	1	0.251000
23.083333	1	0.252750
23.100000	1	0.254750
23.116667	1	0.257125
23.133333	1	0.259875
23.150000	1	0.262625
23.166667	1	0.266125
23.183333	1	0.268875
23.200000	1	0.272875
23.216667	1	0.276875
23.233333	1	0.281750
23.250000	1	0.286625
23.266667	1	0.293125
23.283333	1	0.302125
23.300000	1	0.312375
23.316667	1	0.324750
23.333333	1	0.340375
23.350000	1	0.359000
23.366667	1	0.381750
23.383333	1	0.408500
23.400000	1	0.441250
23.416667	1	0.481250
23.433333	1	0.528250
23.450000	1	0.583625
23.466667	1	0.648750
23.483333	1	0.724125
23.500000	1	0.812500
23.516667	1	0.913750
23.533333	1	1.028625
23.550000	1	1.158875
23.566667	1	1.305500
23.583333	1	1.468875
23.600000	1	1.649750
23.616667	1	1.847125
23.633333	1	2.061375
23.650000	1	2.292625
23.666667	1	2.538875
23.683333	1	2.800125
23.700000	1	3.072375
23.716667	1	3.353750
23.733333	1	3.641375
23.750000	1	3.931250
23.766667	1	4.217875
23.783333	1	4.497000
23.800000	1	4.763250
23.816667	1	5.011375
23.833333	1	5.236875
23.850000	1	5.433625
23.866667	1	5.598375
23.883333	1	5.727500
23.900000	1	5.817625
23.916667	1	5.866125
23.933333	1	5.871750
23.950000	1	5.834375
23.966667	1	5.755875
23.983333	1	5.637000
24.000000	1	5.481375
24.016667	1	5.293625
24.033333	1	5.078125
24.050000	1	4.839125
24.066667	1	4.582500
24.083333	1	4.313375
24.100000	1	4.036500
24.116667	1	3.757125
24.133333	1	3.479875
24.150000	1	3.207750
24.166667	1	2.944375
24.183333	1	2.693250
24.200000	1	2.456375
24.216667	1	2.236000
24.233333	1	2.031125
24.250000	1	1.843375
24.266667	1	1.672250
24.283333	1	1.517125
24.300000	1	1.377375
24.316667	1	1.253500
24.333333	1	1.142750
24.350000	1	1.044625
24.366667	1	0.958500
24.383333	1	0.883625
24.400000	1	0.818375
24.416667	1	0.761250
24.433333	1	0.712625
24.450000	1	0.670750
24.466667	1	0.633750
24.483333	1	0.602500
24.500000	1	0.576250
24.516667	1	0.553625
24.533333	1	0.533500
24.550000	1	0.516375
24.566667	1	0.501125
24.583333	1	0.487500
24.600000	1	0.475250
24.616667	1	0.464375
24.633333	1	0.454125
24.650000	1	0.444750
24.666667	1	0.435625
24.683333	1	0.427375
24.700000	1	0.418750
24.716667	1	0.411250
24.733333	1	0.403000
24.750000	1	0.395250
24.766667	1	0.387750
24.783333	1	0.380375
24.800000	1	0.373750
24.816667	1	0.366875
24.833333	1	0.359875
24.850000	1	0.354125
24.866667	1	0.348125
24.883333	1	0.342875
24.900000	1	0.337875
24.916667	1	0.333000
24.933333	1	0.328875
24.950000	1	0.324875
24.966667	1	0.321750
24.983333	1	0.318000
25.000000	1	0.315000
25.016667	1	0.312875
25.033333	1	0.310375
25.050000	1	0.307625
25.066667	1	0.305750
25.083333	1	0.303750
25.100000	1	0.302250
25.116667	1	0.301000
25.133333	1	0.300000
25.150000	1	0.298750
25.166667	1	0.297500
25.183333	1	0.296625
25.200000	1	0.296000
25.216667	1	0.295000
25.233333	1	0.294625
25.250000	1	0.294000
25.266667	1	0.292750
25.283333	1	0.292250
25.300000	1	0.291375
25.316667	1	0.290250
25.333333	1	0.290000
25.350000	1	0.289125
25.366667	1	0.288375
25.383333	1	0.287500
25.400000	1	0.286625
25.416667	1	0.286500
25.433333	1	0.285250
25.450000	1	0.284875
25.466667	1	0.284750
25.483333	1	0.284375
25.500000	1	0.284125
25.516667	1	0.284125
25.533333	1	0.283750
25.550000	1	0.283875
25.566667	1	0.283500
25.583333	1	0.283250
25.600000	1	0.282500
25.616667	1	0.282500
25.633333	1	0.282625
25.650000	1	0.282750
25.666667	1	0.282750
25.683333	1	0.282375
25.700000	1	0.282875
25.716667	1	0.283625
25.733333	1	0.283875
25.750000	1	0.283875
25.766667	1	0.284250
25.783333	1	0.284750
25.800000	1	0.284625
25.816667	1	0.284875
25.833333	1	0.286000
25.850000	1	0.287000
25.866667	1	0.287375
25.883333	1	0.288625
25.900000	1	0.290125
25.916667	1	0.291000
25.933333	1	0.293375
25.950000	1	0.296000
25.966667	1	0.297750
25.983333	1	0.299750
26.000000	1	0.301875
26.016667	1	0.303750
26.033333	1	0.306250
26.050000	1	0.309875
26.066667	1	0.314000
26.083333	1	0.317875
26.100000	1	0.321250
26.116667	1	0.325000
26.133333	1	0.328125
26.150000	1	0.331375
26.166667	1	0.334625
26.183333	1	0.337250
26.200000	1	0.340250
26.216667	1	0.342250
26.233333	1	0.344250
26.250000	1	0.346375
26.266667	1	0.347750
26.283333	1	0.348500
26.300000	1	0.348750
26.316667	1	0.348250
26.333333	1	0.346375
26.350000	1	0.344875
26.366667	1	0.342375
26.383333	1	0.339625
26.400000	1	0.336000
26.416667	1	0.332375
26.433333	1	0.327500
26.450000	1	0.323375
26.466667	1	0.318250
26.483333	1	0.312500
26.500000	1	0.306625
26.516667	1	0.300500
26.533333	1	0.293625
26.550000	1	0.287250
26.566667	1	0.280875
26.583333	1	0.274375
26.600000	1	0.268375
26.616667	1	0.261875
26.633333	1	0.256250
26.650000	1	0.250000
26.666667	1	0.245000
26.683333	1	0.240500
26.700000	1	0.236125
26.716667	1	0.231750
26.733333	1	0.227875
26.750000	1	0.224500
26.766667	1	0.221750
26.783333	1	0.219750
26.800000	1	0.218250
26.816667	1	0.217000
26.833333	1	0.216750
26.850000	1	0.216625
26.866667	1	0.216875
26.883333	1	0.217250
26.900000	1	0.218500
26.916667	1	0.220250
26.933333	1	0.221875
26.950000	1	0.224125
26.966667	1	0.226000
26.983333	1	0.228750
27.000000	1	0.231375
27.016667	1	0.234500
27.033333	1	0.237625
27.050000	1	0.241375
27.066667	1	0.245500
27.083333	1	0.250125
27.100000	1	0.254875
27.116667	1	0.259625
27.133333	1	0.264625
27.150000	1	0.270250
27.166667	1	0.276875
27.183333	1	0.284000
27.200000	1	0.291500
27.216667	1	0.300000
27.233333	1	0.309125
27.250000	1	0.319625
27.266667	1	0.332375
27.283333	1	0.346625
27.300000	1	0.363000
27.316667	1	0.381625
27.333333	1	0.403125
27.350000	1	0.427500
27.366667	1	0.455750
27.383333	1	0.487750
27.400000	1	0.524625
27.416667	1	0.567375
27.433333	1	0.614500
27.450000	1	0.668625
27.466667	1	0.729000
27.483333	1	0.797625
27.500000	1	0.874125
27.516667	1	0.958500
27.533333	1	1.050875
27.550000	1	1.152125
27.566667	1	1.262125
27.583333	1	1.381875
27.600000	1	1.510000
27.616667	1	1.647500
27.633333	1	1.792500
27.650000	1	1.945875
27.666667	1	2.106000
27.683333	1	2.272625
27.700000	1	2.443375
27.716667	1	2.617000
27.733333	1	2.791625
27.750000	1	2.965000
27.766667	1	3.135375
27.783333	1	3.301875
27.800000	1	3.460375
27.816667	1	3.609875
27.833333	1	3.747250
27.850000	1	3.870625
27.866667	1	3.977625
27.883333	1	4.066875
27.900000	1	4.135250
27.916667	1	4.182125
27.933333	1	4.206125
27.950000	1	4.207125
27.966667	1	4.185125
27.983333	1	4.140250
28.000000	1	4.072875
28.016667	1	3.984000
28.033333	1	3.876000
28.050000	1	3.749250
28.066667	1	3.606500
28.083333	1	3.449750
28.100000	1	3.283000
28.116667	1	3.108125
28.133333	1	2.927375
28.150000	1	2.744125
28.166667	1	2.561125
28.183333	1	2.379625
28.200000	1	2.202750
28.216667	1	2.031875
28.233333	1	1.868250
28.250000	1	1.712250
28.266667	1	1.566500
28.283333	1	1.430750
28.300000	1	1.305500
28.316667	1	1.191500
28.333333	1	1.088125
28.350000	1	0.995500
28.366667	1	0.912750
28.383333	1	0.839500
28.400000	1	0.776250
28.416667	1	0.720875
28.433333	1	0.673000
28.450000	1	0.632750
28.466667	1	0.599500
28.483333	1	0.572125
28.500000	1	0.550500
28.516667	1	0.534125
28.533333	1	0.522000
28.550000	1	0.512625
28.566667	1	0.506625
28.583333	1	0.503625
28.600000	1	0.503625
28.616667	1	0.505750
28.633333	1	0.509625
28.650000	1	0.514750
28.666667	1	0.521125
28.683333	1	0.528125
28.700000	1	0.535375
28.716667	1	0.543875
28.733333	1	0.551625
28.750000	1	0.559375
28.766667	1	0.566500
28.783333	1	0.573000
28.800000	1	0.578875
28.816667	1	0.583625
28.833333	1	0.587500
28.850000	1	0.589750
28.866667	1	0.591000
28.883333	1	0.589875
28.900000	1	0.587875
28.916667	1	0.583625
28.933333	1	0.578000
28.950000	1	0.571000
28.966667	1	0.561500
28.983333	1	0.551125
29.000000	1	0.538625
29.016667	1	0.523500
29.033333	1	0.505750
29.050000	1	0.486000
29.066667	1	0.464000
29.083333	1	0.439125
29.100000	1	0.412250
29.116667	1	0.383750
29.133333	1	0.351750
29.150000	1	0.319000
29.166667	1	0.282875
29.183333	1	0.245625
29.200000	1	0.205500
29.216667	1	0.163000
29.233333	1	0.118250
29.250000	1	0.071000
29.266667	1	0.020875
29.283333	1	-0.031250
29.300000	1	-0.085625
29.316667	1	-0.141625
29.333333	1	-0.199750
29.350000	1	-0.259750
29.366667	1	-0.321625
29.383333	1	-0.384625
29.400000	1	-0.449125
29.416667	1	-0.514375
29.433333	1	-0.580500
29.450000	1	-0.647125
29.466667	1	-0.713250
29.483333	1	-0.778750
29.500000	1	-0.843125
29.516667	1	-0.905500
29.533333	1	-0.966875
29.550000	1	-1.024875
29.566667	1	-1.080125
29.583333	1	-1.132250
29.600000	1	-1.180250
29.616667	1	-1.223625
29.633333	1	-1.262125
29.650000	1	-1.297000
29.666667	1	-1.325625
29.683333	1	-1.349000
29.700000	1	-1.366250
29.716667	1	-1.377375
29.733333	1	-1.383375
29.750000	1	-1.382375
29.766667	1	-1.375500
29.783333	1	-1.363750
29.800000	1	-1.345000
29.816667	1	-1.321250
29.833333	1	-1.292875
29.850000	1	-1.259625
29.866667	1	-1.222375
29.883333	1	-1.181125
29.900000	1	-1.136250
29.916667	1	-1.088875
29.933333	1	-1.039125
29.950000	1	-0.987375
29.966667	1	-0.934625
29.983333	1	-0.880125
30.000000	1	-0.825625
30.016667	1	-0.771375
30.033333	1	-0.716875
30.050000	1	-0.663375
30.066667	1	-0.611000
30.083333	1	-0.560500
30.100000	1	-0.511125
30.116667	1	-0.463250
30.133333	1	-0.417875
30.150000	1	-0.374125
30.166667	1	-0.332625
30.183333	1	-0.293375
30.200000	1	-0.256875
30.216667	1	-0.223125
30.233333	1	-0.190875
30.250000	1	-0.160500
30.266667	1	-0.133125
30.283333	1	-0.107000
30.300000	1	-0.083125
30.316667	1	-0.060625
30.333333	1	-0.039625
30.350000	1	-0.021750
30.366667	1	-0.003750
30.383333	1	0.012000
30.400000	1	0.026625
30.416667	1	0.040625
30.433333	1	0.054000
30.450000	1	0.066500
30.466667	1	0.078375
30.483333	1	0.089000
30.500000	1	0.099875
30.516667	1	0.109875
30.533333	1	0.120375
30.550000	1	0.131000
30.566667	1	0.141875
30.583333	1	0.152625
30.600000	1	0.164625
30.616667	1	0.176625
30.633333	1	0.189750
30.650000	1	0.204000
30.666667	1	0.219125
30.683333	1	0.235750
30.700000	1	0.253750
30.716667	1	0.274000
30.733333	1	0.296250
30.750000	1	0.320875
30.766667	1	0.349000
30.783333	1	0.379500
30.800000	1	0.414375
30.816667	1	0.452875
30.833333	1	0.497125
30.850000	1	0.545625
30.866667	1	0.600250
30.883333	1	0.661000
30.900000	1	0.729000
30.916667	1	0.804750
30.933333	1	0.888125
30.950000	1	0.980500
30.966667	1	1.083250
30.983333	1	1.196750
31.000000	1	1.321125
31.016667	1	1.458000
31.033333	1	1.607000
31.050000	1	1.768750
31.066667	1	1.943250
31.083333	1	2.130250
31.100000	1	2.330375
31.116667	1	2.543125
31.133333	1	2.767375
31.150000	1	3.002000
31.166667	1	3.248125
31.183333	1	3.502875
31.200000	1	3.765375
31.216667	1	4.033500
31.233333	1	4.304125
31.250000	1	4.576000
31.266667	1	4.845250
31.283333	1	5.111000
31.300000	1	5.369000
31.316667	1	5.615375
31.333333	1	5.847875
31.350000	1	6.064375
31.366667	1	6.261500
31.383333	1	6.437375
31.400000	1	6.589500
31.416667	1	6.714875
31.433333	1	6.812375
31.450000	1	6.880000
31.466667	1	6.917625
31.483333	1	6.924250
31.500000	1	6.900875
31.516667	1	6.846375
31.533333	1	6.763500
31.550000	1	6.652250
31.566667	1	6.515125
31.583333	1	6.353875
31.600000	1	6.169750
31.616667	1	5.965750
31.633333	1	5.744375
31.650000	1	5.510125
31.666667	1	5.264750
31.683333	1	5.010625
31.700000	1	4.751250
31.716667	1	4.488500
31.733333	1	4.226500
31.750000	1	3.965625
31.766667	1	3.708125
31.783333	1	3.456375
31.800000	1	3.211000
31.816667	1	2.975250
31.833333	1	2.748500
31.850000	1	2.532750
31.866667	1	2.328750
31.883333	1	2.136250
31.900000	1	1.955750
31.916667	1	1.787750
31.933333	1	1.631875
31.950000	1	1.487750
31.966667	1	1.355250
31.983333	1	1.233250
32.000000	1	1.122250
32.016667	1	1.020500
32.033333	1	0.928375
32.050000	1	0.844125
32.066667	1	0.768000
32.083333	1	0.700000
32.100000	1	0.638750
32.116667	1	0.583250
32.133333	1	0.534125
32.150000	1	0.490125
32.166667	1	0.451375
32.183333	1	0.416125
32.200000	1	0.385375
32.216667	1	0.356750
32.233333	1	0.331500
32.250000	1	0.309000
32.266667	1	0.289625
32.283333	1	0.271125
32.300000	1	0.254625
32.316667	1	0.239125
32.333333	1	0.226000
32.350000	1	0.213000
32.366667	1	0.201125
32.383333	1	0.190750
32.400000	1	0.180875
32.416667	1	0.171625
32.433333	1	0.162625
32.450000	1	0.154625
32.466667	1	0.147000
32.483333	1	0.140125
32.500000	1	0.132000
32.516667	1	0.125625
32.533333	1	0.118750
32.550000	1	0.112750
32.566667	1	0.106750
32.583333	1	0.100750
32.600000	1	0.095375
32.616667	1	0.090625
32.633333	1	0.085875
32.650000	1	0.080875
32.666667	1	0.076500
32.683333	1	0.072875
32.700000	1	0.069125
32.716667	1	0.066125
32.733333	1	0.063250
32.750000	1	0.061375
32.766667	1	0.058875
32.783333	1	0.057000
32.800000	1	0.054875
32.816667	1	0.053750
32.833333	1	0.052375
32.850000	1	0.051000
32.866667	1	0.050750
32.883333	1	0.049750
32.900000	1	0.049250
32.916667	1	0.049125
32.933333	1	0.049750
32.950000	1	0.050750
32.966667	1	0.051500
32.983333	1	0.052250
33.000000	1	0.053000
33.016667	1	0.053875
33.033333	1	0.054750
33.050000	1	0.055500
33.066667	1	0.056375
33.083333	1	0.057250
33.100000	1	0.057500
33.116667	1	0.058625
33.133333	1	0.059125
33.150000	1	0.060000
33.166667	1	0.061000
33.183333	1	0.062250
33.200000	1	0.063375
33.216667	1	0.064500
33.233333	1	0.064750
33.250000	1	0.064625
33.266667	1	0.064500
33.283333	1	0.064875
33.300000	1	0.064625
33.316667	1	0.064500
33.333333	1	0.064250
33.350000	1	0.063750
33.366667	1	0.064125
33.383333	1	0.064000
33.400000	1	0.063750
33.416667	1	0.063125
33.433333	1	0.062875
33.450000	1	0.062250
33.466667	1	0.061875
33.483333	1	0.061625
33.500000	1	0.062375
33.516667	1	0.062125
33.533333	1	0.062500
33.550000	1	0.063250
33.566667	1	0.065000
33.583333	1	0.066000
33.600000	1	0.067125
33.616667	1	0.068250
33.633333	1	0.070000
33.650000	1	0.072125
33.666667	1	0.073875
33.683333	1	0.076375
33.700000	1	0.078625
33.716667	1	0.082000
33.733333	1	0.085375
33.750000	1	0.089250
33.766667	1	0.092750
33.783333	1	0.096750
33.800000	1	0.100625
33.816667	1	0.104750
33.833333	1	0.109875
33.850000	1	0.114000
33.866667	1	0.117750
33.883333	1	0.122250
33.900000	1	0.126875
33.916667	1	0.131500
33.933333	1	0.134750
33.950000	1	0.138875
33.966667	1	0.142250
33.983333	1	0.144875
34.000000	1	0.147625
34.016667	1	0.150250
34.033333	1	0.152625
34.050000	1	0.154375
34.066667	1	0.155375
34.083333	1	0.156125
34.100000	1	0.156625
34.116667	1	0.157250
34.133333	1	0.157125
34.150000	1	0.156625
34.166667	1	0.156125
34.183333	1	0.154250
34.200000	1	0.153125
34.216667	1	0.151875
34.233333	1	0.149625
34.250000	1	0.146500
34.266667	1	0.143250
34.283333	1	0.140125
34.300000	1	0.137750
34.316667	1	0.135125
34.333333	1	0.132250
34.350000	1	0.129375
34.366667	1	0.127000
34.383333	1	0.124000
34.400000	1	0.121125
34.416667	1	0.118875
34.433333	1	0.116625
34.450000	1	0.114000
34.466667	1	0.112625
34.483333	1	0.110875
34.500000	1	0.109375
34.516667	1	0.108750
34.533333	1	0.107875
34.550000	1	0.107625
34.566667	1	0.107875
34.583333	1	0.108000
34.600000	1	0.108250
34.616667	1	0.108875
34.633333	1	0.109750
34.650000	1	0.110750
34.666667	1	0.112125
34.683333	1	0.114125
34.700000	1	0.116500
34.716667	1	0.118000
34.733333	1	0.120250
34.750000	1	0.122875
34.766667	1	0.126500
34.783333	1	0.129000
34.800000	1	0.131875
34.816667	1	0.135250
34.833333	1	0.138750
34.850000	1	0.141375
34.866667	1	0.144625
34.883333	1	0.147625
34.900000	1	0.150500
34.916667	1	0.153750
34.933333	1	0.157375
34.950000	1	0.160125
34.966667	1	0.163125
34.983333	1	0.165500
35.000000	1	0.167750
35.016667	1	0.169750
35.033333	1	0.172250
35.050000	1	0.173750
35.066667	1	0.175625
35.083333	1	0.176625
35.100000	1	0.178375
35.116667	1	0.179750
35.133333	1	0.179750
35.150000	1	0.180125
35.166667	1	0.180250
35.183333	1	0.180375
35.200000	1	0.180375
35.216667	1	0.180500
35.233333	1	0.179625
35.250000	1	0.178750
35.266667	1	0.178625
35.283333	1	0.178000
35.300000	1	0.176500
35.316667	1	0.175500
35.333333	1	0.174875
35.350000	1	0.174625
35.366667	1	0.173625
35.383333	1	0.172750
35.400000	1	0.171875
35.416667	1	0.170250
35.433333	1	0.168625
35.450000	1	0.167625
35.466667	1	0.166625
35.483333	1	0.165625
35.500000	1	0.165625
35.516667	1	0.165125
35.533333	1	0.164750
35.550000	1	0.164375
35.566667	1	0.164250
35.583333	1	0.164125
35.600000	1	0.164625
35.616667	1	0.164625
35.633333	1	0.165000
35.650000	1	0.164875
35.666667	1	0.165500
35.683333	1	0.166500
35.700000	1	0.167500
35.716667	1	0.168250
35.733333	1	0.168875
35.750000	1	0.169625
35.766667	1	0.170750
35.783333	1	0.171500
35.800000	1	0.172750
35.816667	1	0.174250
35.833333	1	0.175125
35.850000	1	0.176375
35.866667	1	0.177500
35.883333	1	0.179125
35.900000	1	0.180750
35.916667	1	0.182125
35.933333	1	0.183250
35.950000	1	0.184625
35.966667	1	0.186250
35.983333	1	0.188000
36.000000	1	0.189125
36.016667	1	0.190000
36.033333	1	0.190750
36.050000	1	0.192125
36.066667	1	0.192875
36.083333	1	0.194375
36.100000	1	0.195750
36.116667	1	0.196250
36.133333	1	0.196875
36.150000	1	0.197250
36.166667	1	0.197875
36.183333	1	0.198125
36.200000	1	0.198750
36.216667	1	0.198500
36.233333	1	0.198125
36.250000	1	0.197250
36.266667	1	0.196250
36.283333	1	0.195125
36.300000	1	0.193875
36.316667	1	0.193000
36.333333	1	0.190875
36.350000	1	0.188375
36.366667	1	0.186125
36.383333	1	0.183625
36.400000	1	0.180875
36.416667	1	0.177875
36.433333	1	0.174750
36.450000	1	0.170875
36.466667	1	0.167625
36.483333	1	0.164000
36.500000	1	0.160375
36.516667	1	0.156500
36.533333	1	0.152625
36.550000	1	0.149000
36.566667	1	0.144750
36.583333	1	0.140625
36.600000	1	0.137375
36.616667	1	0.134750
36.633333	1	0.130875
36.650000	1	0.126750
36.666667	1	0.124250
36.683333	1	0.121250
36.700000	1	0.118250
36.716667	1	0.116375
36.733333	1	0.115125
36.750000	1	0.114125
36.766667	1	0.112375
36.783333	1	0.111125
36.800000	1	0.109625
36.816667	1	0.109125
36.833333	1	0.108500
36.850000	1	0.108000
36.866667	1	0.107375
36.883333	1	0.107000
36.900000	1	0.107000
36.916667	1	0.107125
36.933333	1	0.107625
36.950000	1	0.107625
36.966667	1	0.108000
36.983333	1	0.107250
37.000000	1	0.108250
37.016667	1	0.108750
37.033333	1	0.108875
37.050000	1	0.108875
37.066667	1	0.109000
37.083333	1	0.109500
37.100000	1	0.109625
37.116667	1	0.109625
37.133333	1	0.110250
37.150000	1	0.110125
37.166667	1	0.110125
37.183333	1	0.109375
37.200000	1	0.108875
37.216667	1	0.108625
37.233333	1	0.108375
37.250000	1	0.106750
37.266667	1	0.105625
37.283333	1	0.104750
37.300000	1	0.103375
37.316667	1	0.102000
37.333333	1	0.100250
37.350000	1	0.098625
37.366667	1	0.096625
37.383333	1	0.094125
37.400000	1	0.090875
37.416667	1	0.088375
37.433333	1	0.084625
37.450000	1	0.082000
37.466667	1	0.078500
37.483333	1	0.075750
37.500000	1	0.072375
37.516667	1	0.068625
37.533333	1	0.064750
37.550000	1	0.060625
37.566667	1	0.056750
37.583333	1	0.053250
37.600000	1	0.048875
37.616667	1	0.045125
37.633333	1	0.041000
37.650000	1	0.037625
37.666667	1	0.034000
37.683333	1	0.029875
37.700000	1	0.026500
37.716667	1	0.023500
37.733333	1	0.020250
37.750000	1	0.017750
37.766667	1	0.014625
37.783333	1	0.012125
37.800000	1	0.010250
37.816667	1	0.007500
37.833333	1	0.005500
37.850000	1	0.004125
37.866667	1	0.003250
37.883333	1	0.001625
37.900000	1	0.000250
37.916667	1	0.000000
37.933333	1	-0.000125
37.950000	1	-0.000500
37.966667	1	-0.000625
37.983333	1	-0.000750
38.000000	1	-0.000375
38.016667	1	0.000375
38.033333	1	0.001375
38.050000	1	0.003125
38.066667	1	0.004375
38.083333	1	0.006125
38.100000	1	0.007875
38.116667	1	0.009875
38.133333	1	0.012000
38.150000	1	0.014250
38.166667	1	0.017000
38.183333	1	0.020250
38.200000	1	0.022875
38.216667	1	0.024875
38.233333	1	0.027500
38.250000	1	0.031125
38.266667	1	0.034000
38.283333	1	0.037000
38.300000	1	0.040125
38.316667	1	0.043625
38.333333	1	0.046375
38.350000	1	0.049750
38.366667	1	0.052000
38.383333	1	0.054625
38.400000	1	0.056875
38.416667	1	0.059125
38.433333	1	0.061375
38.450000	1	0.063625
38.466667	1	0.066125
38.483333	1	0.068375
38.500000	1	0.069750
38.516667	1	0.071750
38.533333	1	0.072875
38.550000	1	0.073625
38.566667	1	0.075250
38.583333	1	0.076000
38.600000	1	0.077375
38.616667	1	0.078000
38.633333	1	0.078625
38.650000	1	0.079250
38.666667	1	0.079875
38.683333	1	0.079625
38.700000	1	0.080500
38.716667	1	0.080625
38.733333	1	0.080625
38.750000	1	0.080500
38.766667	1	0.080750
38.783333	1	0.080000
38.800000	1	0.079125
38.816667	1	0.078750
38.833333	1	0.077750
38.850000	1	0.077250
38.866667	1	0.076375
38.883333	1	0.076125
38.900000	1	0.074000
38.916667	1	0.073500
38.933333	1	0.072125
38.950000	1	0.070750
38.966667	1	0.069250
38.983333	1	0.068125
39.000000	1	0.066750
39.016667	1	0.065125
39.033333	1	0.063125
39.050000	1	0.061125
39.066667	1	0.059625
39.083333	1	0.057500
39.100000	1	0.055125
39.116667	1	0.053000
39.133333	1	0.050625
39.150000	1	0.048375
39.166667	1	0.045500
39.183333	1	0.043500
39.200000	1	0.040500
39.216667	1	0.037250
39.233333	1	0.035250
39.250000	1	0.033125
39.266667	1	0.030625
39.283333	1	0.027875
39.300000	1	0.024750
39.316667	1	0.021750
39.333333	1	0.018625
39.350000	1	0.015875
39.366667	1	0.013875
39.383333	1	0.011000
39.400000	1	0.008625
39.416667	1	0.005750
39.433333	1	0.004375
39.450000	1	0.002125
39.466667	1	-0.000125
39.483333	1	-0.003000
39.500000	1	-0.004375
39.516667	1	-0.006000
39.533333	1	-0.008625
39.550000	1	-0.009875
39.566667	1	-0.010125
39.583333	1	-0.010875
39.600000	1	-0.011875
39.616667	1	-0.012125
39.633333	1	-0.012625
39.650000	1	-0.012375
39.666667	1	-0.013125
39.683333	1	-0.013375
39.700000	1	-0.013625
39.716667	1	-0.013000
39.733333	1	-0.012375
39.750000	1	-0.011500
39.766667	1	-0.010750
39.783333	1	-0.009875
39.800000	1	-0.008750
39.816667	1	-0.007250
39.833333	1	-0.006000
39.850000	1	-0.004250
39.866667	1	-0.003000
39.883333	1	-0.000875
39.900000	1	0.000875
39.916667	1	0.002500
39.933333	1	0.005000
39.950000	1	0.007750
39.966667	1	0.010250
39.983333	1	0.012500
40.000000	1	0.015250
