URL	chrom://bioreactor/micro_cm7/HPLC_Ultimate_3000/Users/markusar/20240727_MA_EsirYCA.seq/647.smp/RI_1.channel/RI_1.chm
Channel	RI_1

Injection Information:
Data Vault	micro_cm7
Sequence	20240727_MA_EsirYCA
Name	Es3_2
Number	11
Position	BA11
Comment	
Processing Method	
Instrument Method	run_25B_method
Type	Unknown
Status	Finished
Inject Time	29.07.2024 20:27:22 +02:00
Volume (µl)	20.0000
Dilution Factor	1.0000
Weight	1.0000

Chromatogram Data Information:
Time Min. (min)	0.000000
Time Max. (min)	40.000000
Data Points	2401
Detector	RI
Generating Data System	Chromeleon 7.3.2.11814
Exporting Data System	Chromeleon 7.3.2.0
Operator	Instrument Controller
Signal Quantity	Refractive 
Signal Unit	µRIU
Signal Min.	-0.941750
Signal Max.	66.862625
Channel	RI_1
Driver Name	RID520Driver.dll
Channel Type	Evaluation
Min. Step (s)	1
Max. Step (s)	1
Average Step (s)	1

Signal Parameter Information:
Signal Info	

Chromatogram Data:
Time (min)	Step (s)	Value (µRIU)
0.000000	n.a.	0.014125
0.016667	1	0.014000
0.033333	1	0.014625
0.050000	1	0.014750
0.066667	1	0.014750
0.083333	1	0.014625
0.100000	1	0.015125
0.116667	1	0.016000
0.133333	1	0.016125
0.150000	1	0.016125
0.166667	1	0.016875
0.183333	1	0.017250
0.200000	1	0.018250
0.216667	1	0.018625
0.233333	1	0.019625
0.250000	1	0.019750
0.266667	1	0.019625
0.283333	1	0.019875
0.300000	1	0.020750
0.316667	1	0.021375
0.333333	1	0.022125
0.350000	1	0.021875
0.366667	1	0.021875
0.383333	1	0.021375
0.400000	1	0.020250
0.416667	1	0.020750
0.433333	1	0.022125
0.450000	1	0.024250
0.466667	1	0.026875
0.483333	1	0.028750
0.500000	1	0.030250
0.516667	1	0.031250
0.533333	1	0.031750
0.550000	1	0.030625
0.566667	1	0.029125
0.583333	1	0.026750
0.600000	1	0.023875
0.616667	1	0.022125
0.633333	1	0.020500
0.650000	1	0.019125
0.666667	1	0.018625
0.683333	1	0.018375
0.700000	1	0.018375
0.716667	1	0.017875
0.733333	1	0.017500
0.750000	1	0.018125
0.766667	1	0.018000
0.783333	1	0.017750
0.800000	1	0.017500
0.816667	1	0.017875
0.833333	1	0.018125
0.850000	1	0.018625
0.866667	1	0.018625
0.883333	1	0.018750
0.900000	1	0.018875
0.916667	1	0.018875
0.933333	1	0.018500
0.950000	1	0.018375
0.966667	1	0.018125
0.983333	1	0.017625
1.000000	1	0.018000
1.016667	1	0.017625
1.033333	1	0.017875
1.050000	1	0.017000
1.066667	1	0.016875
1.083333	1	0.016875
1.100000	1	0.016125
1.116667	1	0.016500
1.133333	1	0.015625
1.150000	1	0.015250
1.166667	1	0.014250
1.183333	1	0.013750
1.200000	1	0.013000
1.216667	1	0.012625
1.233333	1	0.012875
1.250000	1	0.012375
1.266667	1	0.012375
1.283333	1	0.011500
1.300000	1	0.011375
1.316667	1	0.010750
1.333333	1	0.010750
1.350000	1	0.010750
1.366667	1	0.010375
1.383333	1	0.010000
1.400000	1	0.010000
1.416667	1	0.010000
1.433333	1	0.009875
1.450000	1	0.009500
1.466667	1	0.010250
1.483333	1	0.009875
1.500000	1	0.010250
1.516667	1	0.009875
1.533333	1	0.009750
1.550000	1	0.009250
1.566667	1	0.009000
1.583333	1	0.008625
1.600000	1	0.007750
1.616667	1	0.006625
1.633333	1	0.006625
1.650000	1	0.005875
1.666667	1	0.006375
1.683333	1	0.005875
1.700000	1	0.005000
1.716667	1	0.003875
1.733333	1	0.002375
1.750000	1	0.001500
1.766667	1	0.001625
1.783333	1	0.001375
1.800000	1	0.000250
1.816667	1	-0.000250
1.833333	1	-0.001625
1.850000	1	-0.002125
1.866667	1	-0.002750
1.883333	1	-0.003375
1.900000	1	-0.004500
1.916667	1	-0.004625
1.933333	1	-0.005375
1.950000	1	-0.006250
1.966667	1	-0.006750
1.983333	1	-0.007375
2.000000	1	-0.008125
2.016667	1	-0.008625
2.033333	1	-0.009250
2.050000	1	-0.009375
2.066667	1	-0.009375
2.083333	1	-0.009500
2.100000	1	-0.009875
2.116667	1	-0.010125
2.133333	1	-0.010375
2.150000	1	-0.010500
2.166667	1	-0.010500
2.183333	1	-0.011625
2.200000	1	-0.011250
2.216667	1	-0.011500
2.233333	1	-0.011125
2.250000	1	-0.010500
2.266667	1	-0.010125
2.283333	1	-0.010500
2.300000	1	-0.009375
2.316667	1	-0.008500
2.333333	1	-0.007750
2.350000	1	-0.007250
2.366667	1	-0.006000
2.383333	1	-0.005500
2.400000	1	-0.004250
2.416667	1	-0.003125
2.433333	1	-0.001625
2.450000	1	0.000250
2.466667	1	0.002125
2.483333	1	0.004125
2.500000	1	0.006625
2.516667	1	0.009125
2.533333	1	0.010750
2.550000	1	0.013250
2.566667	1	0.015875
2.583333	1	0.018375
2.600000	1	0.021250
2.616667	1	0.024125
2.633333	1	0.026375
2.650000	1	0.029000
2.666667	1	0.031500
2.683333	1	0.033625
2.700000	1	0.036000
2.716667	1	0.038375
2.733333	1	0.040250
2.750000	1	0.042375
2.766667	1	0.044250
2.783333	1	0.046125
2.800000	1	0.047750
2.816667	1	0.049250
2.833333	1	0.051000
2.850000	1	0.052500
2.866667	1	0.054000
2.883333	1	0.055250
2.900000	1	0.056375
2.916667	1	0.057000
2.933333	1	0.057250
2.950000	1	0.057875
2.966667	1	0.058250
2.983333	1	0.058375
3.000000	1	0.058500
3.016667	1	0.058875
3.033333	1	0.058250
3.050000	1	0.058000
3.066667	1	0.057500
3.083333	1	0.056625
3.100000	1	0.055500
3.116667	1	0.054625
3.133333	1	0.053375
3.150000	1	0.052250
3.166667	1	0.050875
3.183333	1	0.049500
3.200000	1	0.048750
3.216667	1	0.047375
3.233333	1	0.046250
3.250000	1	0.045125
3.266667	1	0.043125
3.283333	1	0.042000
3.300000	1	0.040500
3.316667	1	0.038625
3.333333	1	0.037000
3.350000	1	0.035375
3.366667	1	0.034375
3.383333	1	0.033000
3.400000	1	0.031375
3.416667	1	0.030625
3.433333	1	0.029875
3.450000	1	0.029000
3.466667	1	0.028750
3.483333	1	0.028500
3.500000	1	0.028625
3.516667	1	0.028250
3.533333	1	0.028375
3.550000	1	0.028875
3.566667	1	0.030125
3.583333	1	0.031000
3.600000	1	0.032000
3.616667	1	0.033250
3.633333	1	0.034250
3.650000	1	0.036000
3.666667	1	0.038250
3.683333	1	0.040500
3.700000	1	0.042875
3.716667	1	0.045125
3.733333	1	0.047500
3.750000	1	0.049625
3.766667	1	0.052375
3.783333	1	0.055125
3.800000	1	0.058375
3.816667	1	0.062125
3.833333	1	0.065875
3.850000	1	0.069250
3.866667	1	0.072375
3.883333	1	0.074875
3.900000	1	0.077625
3.916667	1	0.080750
3.933333	1	0.083750
3.950000	1	0.087375
3.966667	1	0.090500
3.983333	1	0.093625
4.000000	1	0.096750
4.016667	1	0.099875
4.033333	1	0.102875
4.050000	1	0.105875
4.066667	1	0.108250
4.083333	1	0.110750
4.100000	1	0.113125
4.116667	1	0.115125
4.133333	1	0.117000
4.150000	1	0.118125
4.166667	1	0.120375
4.183333	1	0.122125
4.200000	1	0.123875
4.216667	1	0.125375
4.233333	1	0.126875
4.250000	1	0.127750
4.266667	1	0.128000
4.283333	1	0.128750
4.300000	1	0.129625
4.316667	1	0.130125
4.333333	1	0.130750
4.350000	1	0.130875
4.366667	1	0.131000
4.383333	1	0.131375
4.400000	1	0.131125
4.416667	1	0.131000
4.433333	1	0.131625
4.450000	1	0.131375
4.466667	1	0.131000
4.483333	1	0.130375
4.500000	1	0.129750
4.516667	1	0.129750
4.533333	1	0.129375
4.550000	1	0.129625
4.566667	1	0.129250
4.583333	1	0.128625
4.600000	1	0.128250
4.616667	1	0.128375
4.633333	1	0.128250
4.650000	1	0.128500
4.666667	1	0.129125
4.683333	1	0.129500
4.700000	1	0.130375
4.716667	1	0.130625
4.733333	1	0.131375
4.750000	1	0.133250
4.766667	1	0.134375
4.783333	1	0.136375
4.800000	1	0.137875
4.816667	1	0.140250
4.833333	1	0.142750
4.850000	1	0.145250
4.866667	1	0.147625
4.883333	1	0.150875
4.900000	1	0.153625
4.916667	1	0.157375
4.933333	1	0.160500
4.950000	1	0.165125
4.966667	1	0.168750
4.983333	1	0.172250
5.000000	1	0.176750
5.016667	1	0.180000
5.033333	1	0.184125
5.050000	1	0.188000
5.066667	1	0.192000
5.083333	1	0.195625
5.100000	1	0.199250
5.116667	1	0.202375
5.133333	1	0.205625
5.150000	1	0.208625
5.166667	1	0.211375
5.183333	1	0.214750
5.200000	1	0.217750
5.216667	1	0.219500
5.233333	1	0.220875
5.250000	1	0.223500
5.266667	1	0.225750
5.283333	1	0.227250
5.300000	1	0.228375
5.316667	1	0.228875
5.333333	1	0.229375
5.350000	1	0.230625
5.366667	1	0.230625
5.383333	1	0.230875
5.400000	1	0.230125
5.416667	1	0.229375
5.433333	1	0.228000
5.450000	1	0.226875
5.466667	1	0.225250
5.483333	1	0.223125
5.500000	1	0.221375
5.516667	1	0.218750
5.533333	1	0.216250
5.550000	1	0.213625
5.566667	1	0.210375
5.583333	1	0.207000
5.600000	1	0.203750
5.616667	1	0.200250
5.633333	1	0.196875
5.650000	1	0.192500
5.666667	1	0.188000
5.683333	1	0.183250
5.700000	1	0.179125
5.716667	1	0.174125
5.733333	1	0.169625
5.750000	1	0.164625
5.766667	1	0.159750
5.783333	1	0.155000
5.800000	1	0.150250
5.816667	1	0.145625
5.833333	1	0.140500
5.850000	1	0.135000
5.866667	1	0.130250
5.883333	1	0.125375
5.900000	1	0.120750
5.916667	1	0.116500
5.933333	1	0.112500
5.950000	1	0.107875
5.966667	1	0.103375
5.983333	1	0.099000
6.000000	1	0.095375
6.016667	1	0.091125
6.033333	1	0.087875
6.050000	1	0.084125
6.066667	1	0.081125
6.083333	1	0.077500
6.100000	1	0.074125
6.116667	1	0.071750
6.133333	1	0.069125
6.150000	1	0.066750
6.166667	1	0.065125
6.183333	1	0.062625
6.200000	1	0.060750
6.216667	1	0.059500
6.233333	1	0.057750
6.250000	1	0.056125
6.266667	1	0.054625
6.283333	1	0.053625
6.300000	1	0.052500
6.316667	1	0.051250
6.333333	1	0.050625
6.350000	1	0.050250
6.366667	1	0.049875
6.383333	1	0.049875
6.400000	1	0.050375
6.416667	1	0.050500
6.433333	1	0.051250
6.450000	1	0.051375
6.466667	1	0.052375
6.483333	1	0.052875
6.500000	1	0.053375
6.516667	1	0.054125
6.533333	1	0.055625
6.550000	1	0.056375
6.566667	1	0.058125
6.583333	1	0.060250
6.600000	1	0.062125
6.616667	1	0.064625
6.633333	1	0.066000
6.650000	1	0.068000
6.666667	1	0.070625
6.683333	1	0.073250
6.700000	1	0.075500
6.716667	1	0.078000
6.733333	1	0.080500
6.750000	1	0.083375
6.766667	1	0.086500
6.783333	1	0.089625
6.800000	1	0.092000
6.816667	1	0.095000
6.833333	1	0.097750
6.850000	1	0.100625
6.866667	1	0.103250
6.883333	1	0.105875
6.900000	1	0.107875
6.916667	1	0.110125
6.933333	1	0.112625
6.950000	1	0.114750
6.966667	1	0.116625
6.983333	1	0.118750
7.000000	1	0.120625
7.016667	1	0.122125
7.033333	1	0.124875
7.050000	1	0.126375
7.066667	1	0.128000
7.083333	1	0.129000
7.100000	1	0.130000
7.116667	1	0.131750
7.133333	1	0.132875
7.150000	1	0.133750
7.166667	1	0.133750
7.183333	1	0.134250
7.200000	1	0.134000
7.216667	1	0.134375
7.233333	1	0.134625
7.250000	1	0.134750
7.266667	1	0.134375
7.283333	1	0.134000
7.300000	1	0.132875
7.316667	1	0.132250
7.333333	1	0.131375
7.350000	1	0.129875
7.366667	1	0.128250
7.383333	1	0.126500
7.400000	1	0.124875
7.416667	1	0.122750
7.433333	1	0.119750
7.450000	1	0.117250
7.466667	1	0.114875
7.483333	1	0.112625
7.500000	1	0.109750
7.516667	1	0.106250
7.533333	1	0.102250
7.550000	1	0.098875
7.566667	1	0.095250
7.583333	1	0.091250
7.600000	1	0.086750
7.616667	1	0.083125
7.633333	1	0.079000
7.650000	1	0.075625
7.666667	1	0.071375
7.683333	1	0.067625
7.700000	1	0.063875
7.716667	1	0.060000
7.733333	1	0.056000
7.750000	1	0.052500
7.766667	1	0.048875
7.783333	1	0.044500
7.800000	1	0.041000
7.816667	1	0.038125
7.833333	1	0.035250
7.850000	1	0.031750
7.866667	1	0.028875
7.883333	1	0.026750
7.900000	1	0.025125
7.916667	1	0.023250
7.933333	1	0.021125
7.950000	1	0.019625
7.966667	1	0.018625
7.983333	1	0.017375
8.000000	1	0.016625
8.016667	1	0.015125
8.033333	1	0.015125
8.050000	1	0.015125
8.066667	1	0.014875
8.083333	1	0.014625
8.100000	1	0.015000
8.116667	1	0.014500
8.133333	1	0.014000
8.150000	1	0.014625
8.166667	1	0.015125
8.183333	1	0.015250
8.200000	1	0.015125
8.216667	1	0.015125
8.233333	1	0.015375
8.250000	1	0.015875
8.266667	1	0.016125
8.283333	1	0.016625
8.300000	1	0.016750
8.316667	1	0.016875
8.333333	1	0.016500
8.350000	1	0.016250
8.366667	1	0.016000
8.383333	1	0.015625
8.400000	1	0.015750
8.416667	1	0.015250
8.433333	1	0.015000
8.450000	1	0.014500
8.466667	1	0.013625
8.483333	1	0.012875
8.500000	1	0.012750
8.516667	1	0.012375
8.533333	1	0.011750
8.550000	1	0.011375
8.566667	1	0.010750
8.583333	1	0.009500
8.600000	1	0.008875
8.616667	1	0.008125
8.633333	1	0.007750
8.650000	1	0.006750
8.666667	1	0.005750
8.683333	1	0.005000
8.700000	1	0.004375
8.716667	1	0.003875
8.733333	1	0.003125
8.750000	1	0.002250
8.766667	1	0.002125
8.783333	1	0.001750
8.800000	1	0.000750
8.816667	1	0.000375
8.833333	1	0.000000
8.850000	1	-0.000375
8.866667	1	-0.001000
8.883333	1	-0.001125
8.900000	1	-0.001250
8.916667	1	-0.001250
8.933333	1	-0.001500
8.950000	1	-0.000875
8.966667	1	-0.000875
8.983333	1	-0.001250
9.000000	1	-0.001125
9.016667	1	-0.000625
9.033333	1	-0.000625
9.050000	1	0.000375
9.066667	1	0.000500
9.083333	1	0.001000
9.100000	1	0.001750
9.116667	1	0.002875
9.133333	1	0.003375
9.150000	1	0.003875
9.166667	1	0.004000
9.183333	1	0.004000
9.200000	1	0.004000
9.216667	1	0.004375
9.233333	1	0.004625
9.250000	1	0.005125
9.266667	1	0.005875
9.283333	1	0.006500
9.300000	1	0.006750
9.316667	1	0.007625
9.333333	1	0.007625
9.350000	1	0.008250
9.366667	1	0.008625
9.383333	1	0.009125
9.400000	1	0.009250
9.416667	1	0.009625
9.433333	1	0.009750
9.450000	1	0.009875
9.466667	1	0.010250
9.483333	1	0.010750
9.500000	1	0.011125
9.516667	1	0.011375
9.533333	1	0.011875
9.550000	1	0.012250
9.566667	1	0.012750
9.583333	1	0.012375
9.600000	1	0.012125
9.616667	1	0.012500
9.633333	1	0.011625
9.650000	1	0.011000
9.666667	1	0.011000
9.683333	1	0.010250
9.700000	1	0.009750
9.716667	1	0.008875
9.733333	1	0.008625
9.750000	1	0.008000
9.766667	1	0.008000
9.783333	1	0.007500
9.800000	1	0.006375
9.816667	1	0.005875
9.833333	1	0.005250
9.850000	1	0.004750
9.866667	1	0.004125
9.883333	1	0.003375
9.900000	1	0.003000
9.916667	1	0.002250
9.933333	1	0.001875
9.950000	1	0.002250
9.966667	1	0.002750
9.983333	1	0.003250
10.000000	1	0.004000
10.016667	1	0.004750
10.033333	1	0.006500
10.050000	1	0.008250
10.066667	1	0.011000
10.083333	1	0.014500
10.100000	1	0.018750
10.116667	1	0.023625
10.133333	1	0.028750
10.150000	1	0.033750
10.166667	1	0.039250
10.183333	1	0.046625
10.200000	1	0.054500
10.216667	1	0.063250
10.233333	1	0.072125
10.250000	1	0.083000
10.266667	1	0.095625
10.283333	1	0.109375
10.300000	1	0.126375
10.316667	1	0.144125
10.333333	1	0.164875
10.350000	1	0.186750
10.366667	1	0.210500
10.383333	1	0.234500
10.400000	1	0.257250
10.416667	1	0.276625
10.433333	1	0.291125
10.450000	1	0.300250
10.466667	1	0.307500
10.483333	1	0.321875
10.500000	1	0.358750
10.516667	1	0.446125
10.533333	1	0.617750
10.550000	1	0.916875
10.566667	1	1.388000
10.583333	1	2.074625
10.600000	1	3.017000
10.616667	1	4.244750
10.633333	1	5.778250
10.650000	1	7.626250
10.666667	1	9.793250
10.683333	1	12.268500
10.700000	1	15.036750
10.716667	1	18.068000
10.733333	1	21.323500
10.750000	1	24.755000
10.766667	1	28.304125
10.783333	1	31.894375
10.800000	1	35.431875
10.816667	1	38.790125
10.833333	1	41.802375
10.850000	1	44.259000
10.866667	1	45.916875
10.883333	1	46.527500
10.900000	1	45.900500
10.916667	1	43.975125
10.933333	1	40.866375
10.950000	1	36.859875
10.966667	1	32.346500
10.983333	1	27.726000
11.000000	1	23.324875
11.016667	1	19.358000
11.033333	1	15.929500
11.050000	1	13.055750
11.066667	1	10.702375
11.083333	1	8.810750
11.100000	1	7.310250
11.116667	1	6.132250
11.133333	1	5.213125
11.150000	1	4.497625
11.166667	1	3.939375
11.183333	1	3.501625
11.200000	1	3.154750
11.216667	1	2.875750
11.233333	1	2.649000
11.250000	1	2.460875
11.266667	1	2.303625
11.283333	1	2.169750
11.300000	1	2.053625
11.316667	1	1.952250
11.333333	1	1.861500
11.350000	1	1.780000
11.366667	1	1.707125
11.383333	1	1.640875
11.400000	1	1.580750
11.416667	1	1.526750
11.433333	1	1.478625
11.450000	1	1.435875
11.466667	1	1.398375
11.483333	1	1.364250
11.500000	1	1.333875
11.516667	1	1.307375
11.533333	1	1.284375
11.550000	1	1.263375
11.566667	1	1.244750
11.583333	1	1.228500
11.600000	1	1.214125
11.616667	1	1.202000
11.633333	1	1.190875
11.650000	1	1.180750
11.666667	1	1.172125
11.683333	1	1.164500
11.700000	1	1.157500
11.716667	1	1.151750
11.733333	1	1.146625
11.750000	1	1.142625
11.766667	1	1.139625
11.783333	1	1.137625
11.800000	1	1.135625
11.816667	1	1.134875
11.833333	1	1.135000
11.850000	1	1.136375
11.866667	1	1.137375
11.883333	1	1.140250
11.900000	1	1.142750
11.916667	1	1.145750
11.933333	1	1.148125
11.950000	1	1.150375
11.966667	1	1.152750
11.983333	1	1.154000
12.000000	1	1.154250
12.016667	1	1.153875
12.033333	1	1.154125
12.050000	1	1.154125
12.066667	1	1.153875
12.083333	1	1.153875
12.100000	1	1.153625
12.116667	1	1.153750
12.133333	1	1.154250
12.150000	1	1.155750
12.166667	1	1.158625
12.183333	1	1.160875
12.200000	1	1.165000
12.216667	1	1.169750
12.233333	1	1.176125
12.250000	1	1.184250
12.266667	1	1.195250
12.283333	1	1.209500
12.300000	1	1.228875
12.316667	1	1.255250
12.333333	1	1.290000
12.350000	1	1.339750
12.366667	1	1.408125
12.383333	1	1.502750
12.400000	1	1.635500
12.416667	1	1.818750
12.433333	1	2.071875
12.450000	1	2.420875
12.466667	1	2.895625
12.483333	1	3.536375
12.500000	1	4.388500
12.516667	1	5.504750
12.533333	1	6.942500
12.550000	1	8.759750
12.566667	1	11.013125
12.583333	1	13.750750
12.600000	1	17.002375
12.616667	1	20.775375
12.633333	1	25.052500
12.650000	1	29.780000
12.666667	1	34.865250
12.683333	1	40.169625
12.700000	1	45.515750
12.716667	1	50.694375
12.733333	1	55.478000
12.750000	1	59.646375
12.766667	1	63.000125
12.783333	1	65.378625
12.800000	1	66.679625
12.816667	1	66.862625
12.833333	1	65.960125
12.850000	1	64.064750
12.866667	1	61.329125
12.883333	1	57.944875
12.900000	1	54.128250
12.916667	1	50.094750
12.933333	1	46.042125
12.950000	1	42.128625
12.966667	1	38.457875
12.983333	1	35.073500
13.000000	1	31.957375
13.016667	1	29.042375
13.033333	1	26.239875
13.050000	1	23.472875
13.066667	1	20.701125
13.083333	1	17.930750
13.100000	1	15.218500
13.116667	1	12.660625
13.133333	1	10.367500
13.150000	1	8.417500
13.166667	1	6.832750
13.183333	1	5.585000
13.200000	1	4.620125
13.216667	1	3.879375
13.233333	1	3.310875
13.250000	1	2.873250
13.266667	1	2.533375
13.283333	1	2.268750
13.300000	1	2.060500
13.316667	1	1.893750
13.333333	1	1.758875
13.350000	1	1.646875
13.366667	1	1.552750
13.383333	1	1.472625
13.400000	1	1.404000
13.416667	1	1.344500
13.433333	1	1.292875
13.450000	1	1.247875
13.466667	1	1.207500
13.483333	1	1.172625
13.500000	1	1.142250
13.516667	1	1.115625
13.533333	1	1.092000
13.550000	1	1.071875
13.566667	1	1.055375
13.583333	1	1.041250
13.600000	1	1.030500
13.616667	1	1.021625
13.633333	1	1.014250
13.650000	1	1.009500
13.666667	1	1.006125
13.683333	1	1.003125
13.700000	1	1.000750
13.716667	1	0.998500
13.733333	1	0.996250
13.750000	1	0.992625
13.766667	1	0.988125
13.783333	1	0.982625
13.800000	1	0.974875
13.816667	1	0.965000
13.833333	1	0.953125
13.850000	1	0.939375
13.866667	1	0.924000
13.883333	1	0.908625
13.900000	1	0.891375
13.916667	1	0.873750
13.933333	1	0.856250
13.950000	1	0.839000
13.966667	1	0.823125
13.983333	1	0.807500
14.000000	1	0.793500
14.016667	1	0.780125
14.033333	1	0.767875
14.050000	1	0.756750
14.066667	1	0.746500
14.083333	1	0.736625
14.100000	1	0.727875
14.116667	1	0.719000
14.133333	1	0.711375
14.150000	1	0.704250
14.166667	1	0.698000
14.183333	1	0.691750
14.200000	1	0.685750
14.216667	1	0.680250
14.233333	1	0.675250
14.250000	1	0.671250
14.266667	1	0.667500
14.283333	1	0.665125
14.300000	1	0.662250
14.316667	1	0.660375
14.333333	1	0.660000
14.350000	1	0.659875
14.366667	1	0.660875
14.383333	1	0.663500
14.400000	1	0.667500
14.416667	1	0.671500
14.433333	1	0.677375
14.450000	1	0.683875
14.466667	1	0.691750
14.483333	1	0.701000
14.500000	1	0.709875
14.516667	1	0.718875
14.533333	1	0.728250
14.550000	1	0.737750
14.566667	1	0.746500
14.583333	1	0.755875
14.600000	1	0.765250
14.616667	1	0.775750
14.633333	1	0.786500
14.650000	1	0.798625
14.666667	1	0.813500
14.683333	1	0.831375
14.700000	1	0.853125
14.716667	1	0.878500
14.733333	1	0.908500
14.750000	1	0.942875
14.766667	1	0.982375
14.783333	1	1.026000
14.800000	1	1.073750
14.816667	1	1.122625
14.833333	1	1.172250
14.850000	1	1.220500
14.866667	1	1.264250
14.883333	1	1.301625
14.900000	1	1.331250
14.916667	1	1.350750
14.933333	1	1.358875
14.950000	1	1.354750
14.966667	1	1.338625
14.983333	1	1.310000
15.000000	1	1.272125
15.016667	1	1.225625
15.033333	1	1.172125
15.050000	1	1.114625
15.066667	1	1.055125
15.083333	1	0.995125
15.100000	1	0.937000
15.116667	1	0.883125
15.133333	1	0.833375
15.150000	1	0.789500
15.166667	1	0.751000
15.183333	1	0.718125
15.200000	1	0.691000
15.216667	1	0.669375
15.233333	1	0.652500
15.250000	1	0.640250
15.266667	1	0.632375
15.283333	1	0.628625
15.300000	1	0.629250
15.316667	1	0.634250
15.333333	1	0.643250
15.350000	1	0.656125
15.366667	1	0.674000
15.383333	1	0.696250
15.400000	1	0.722625
15.416667	1	0.753500
15.433333	1	0.788250
15.450000	1	0.826625
15.466667	1	0.867500
15.483333	1	0.909875
15.500000	1	0.952875
15.516667	1	0.994750
15.533333	1	1.034000
15.550000	1	1.068875
15.566667	1	1.097500
15.583333	1	1.119000
15.600000	1	1.132250
15.616667	1	1.136875
15.633333	1	1.131875
15.650000	1	1.118000
15.666667	1	1.097125
15.683333	1	1.069750
15.700000	1	1.037875
15.716667	1	1.003000
15.733333	1	0.966375
15.750000	1	0.929375
15.766667	1	0.893875
15.783333	1	0.860000
15.800000	1	0.828000
15.816667	1	0.799000
15.833333	1	0.772375
15.850000	1	0.748375
15.866667	1	0.726125
15.883333	1	0.706625
15.900000	1	0.689250
15.916667	1	0.672875
15.933333	1	0.658500
15.950000	1	0.645000
15.966667	1	0.633625
15.983333	1	0.623375
16.000000	1	0.614500
16.016667	1	0.607750
16.033333	1	0.601875
16.050000	1	0.597875
16.066667	1	0.595500
16.083333	1	0.594625
16.100000	1	0.595875
16.116667	1	0.597625
16.133333	1	0.600125
16.150000	1	0.603500
16.166667	1	0.608500
16.183333	1	0.614125
16.200000	1	0.619750
16.216667	1	0.625000
16.233333	1	0.630625
16.250000	1	0.634750
16.266667	1	0.638875
16.283333	1	0.642000
16.300000	1	0.644375
16.316667	1	0.646375
16.333333	1	0.647375
16.350000	1	0.647750
16.366667	1	0.648250
16.383333	1	0.648250
16.400000	1	0.647500
16.416667	1	0.646875
16.433333	1	0.646625
16.450000	1	0.646625
16.466667	1	0.648125
16.483333	1	0.650375
16.500000	1	0.652750
16.516667	1	0.657125
16.533333	1	0.662750
16.550000	1	0.669875
16.566667	1	0.677875
16.583333	1	0.686500
16.600000	1	0.695875
16.616667	1	0.706125
16.633333	1	0.716375
16.650000	1	0.726875
16.666667	1	0.736750
16.683333	1	0.746125
16.700000	1	0.755000
16.716667	1	0.762875
16.733333	1	0.770250
16.750000	1	0.776500
16.766667	1	0.781875
16.783333	1	0.786750
16.800000	1	0.791875
16.816667	1	0.796500
16.833333	1	0.802875
16.850000	1	0.809000
16.866667	1	0.814375
16.883333	1	0.820625
16.900000	1	0.827000
16.916667	1	0.833250
16.933333	1	0.839500
16.950000	1	0.845125
16.966667	1	0.850000
16.983333	1	0.855125
17.000000	1	0.857875
17.016667	1	0.859625
17.033333	1	0.860625
17.050000	1	0.859500
17.066667	1	0.858375
17.083333	1	0.857000
17.100000	1	0.855125
17.116667	1	0.853000
17.133333	1	0.851625
17.150000	1	0.850125
17.166667	1	0.848625
17.183333	1	0.848125
17.200000	1	0.847875
17.216667	1	0.849500
17.233333	1	0.851125
17.250000	1	0.854125
17.266667	1	0.857875
17.283333	1	0.862250
17.300000	1	0.867125
17.316667	1	0.872500
17.333333	1	0.879250
17.350000	1	0.885750
17.366667	1	0.892125
17.383333	1	0.898750
17.400000	1	0.905250
17.416667	1	0.911750
17.433333	1	0.917375
17.450000	1	0.922375
17.466667	1	0.926750
17.483333	1	0.930125
17.500000	1	0.932875
17.516667	1	0.934000
17.533333	1	0.932750
17.550000	1	0.931250
17.566667	1	0.928875
17.583333	1	0.924125
17.600000	1	0.917500
17.616667	1	0.909125
17.633333	1	0.899625
17.650000	1	0.888750
17.666667	1	0.877125
17.683333	1	0.864875
17.700000	1	0.851750
17.716667	1	0.838750
17.733333	1	0.825500
17.750000	1	0.812375
17.766667	1	0.799625
17.783333	1	0.787500
17.800000	1	0.776250
17.816667	1	0.766000
17.833333	1	0.755625
17.850000	1	0.745125
17.866667	1	0.735750
17.883333	1	0.727125
17.900000	1	0.719375
17.916667	1	0.712375
17.933333	1	0.706250
17.950000	1	0.699500
17.966667	1	0.693625
17.983333	1	0.688375
18.000000	1	0.683875
18.016667	1	0.680250
18.033333	1	0.676125
18.050000	1	0.672000
18.066667	1	0.668500
18.083333	1	0.664875
18.100000	1	0.660875
18.116667	1	0.656875
18.133333	1	0.652500
18.150000	1	0.648500
18.166667	1	0.644250
18.183333	1	0.640250
18.200000	1	0.636000
18.216667	1	0.632500
18.233333	1	0.628625
18.250000	1	0.625375
18.266667	1	0.622875
18.283333	1	0.620625
18.300000	1	0.619500
18.316667	1	0.617875
18.333333	1	0.617500
18.350000	1	0.617000
18.366667	1	0.617500
18.383333	1	0.618000
18.400000	1	0.619375
18.416667	1	0.621125
18.433333	1	0.624500
18.450000	1	0.627750
18.466667	1	0.631125
18.483333	1	0.635750
18.500000	1	0.641125
18.516667	1	0.648000
18.533333	1	0.656875
18.550000	1	0.667750
18.566667	1	0.680000
18.583333	1	0.693875
18.600000	1	0.709500
18.616667	1	0.727750
18.633333	1	0.748000
18.650000	1	0.769750
18.666667	1	0.794375
18.683333	1	0.820750
18.700000	1	0.849500
18.716667	1	0.879750
18.733333	1	0.912000
18.750000	1	0.946000
18.766667	1	0.981375
18.783333	1	1.017375
18.800000	1	1.053250
18.816667	1	1.090625
18.833333	1	1.126500
18.850000	1	1.161500
18.866667	1	1.193875
18.883333	1	1.224375
18.900000	1	1.252750
18.916667	1	1.275750
18.933333	1	1.295375
18.950000	1	1.309625
18.966667	1	1.318750
18.983333	1	1.321250
19.000000	1	1.317250
19.016667	1	1.307500
19.033333	1	1.291500
19.050000	1	1.268750
19.066667	1	1.240250
19.083333	1	1.206250
19.100000	1	1.167375
19.116667	1	1.125750
19.133333	1	1.080125
19.150000	1	1.033500
19.166667	1	0.985000
19.183333	1	0.937375
19.200000	1	0.890000
19.216667	1	0.845500
19.233333	1	0.802875
19.250000	1	0.764250
19.266667	1	0.729375
19.283333	1	0.698000
19.300000	1	0.672500
19.316667	1	0.652000
19.333333	1	0.637000
19.350000	1	0.627625
19.366667	1	0.623000
19.383333	1	0.624000
19.400000	1	0.629750
19.416667	1	0.641000
19.433333	1	0.656875
19.450000	1	0.678375
19.466667	1	0.702875
19.483333	1	0.731250
19.500000	1	0.763250
19.516667	1	0.798500
19.533333	1	0.835625
19.550000	1	0.873750
19.566667	1	0.913000
19.583333	1	0.950875
19.600000	1	0.988750
19.616667	1	1.024250
19.633333	1	1.056000
19.650000	1	1.084375
19.666667	1	1.108375
19.683333	1	1.126500
19.700000	1	1.139375
19.716667	1	1.146250
19.733333	1	1.147625
19.750000	1	1.142875
19.766667	1	1.133125
19.783333	1	1.116750
19.800000	1	1.097000
19.816667	1	1.072875
19.833333	1	1.044875
19.850000	1	1.014000
19.866667	1	0.981500
19.883333	1	0.947000
19.900000	1	0.911875
19.916667	1	0.876375
19.933333	1	0.840000
19.950000	1	0.805250
19.966667	1	0.772125
19.983333	1	0.740375
20.000000	1	0.710125
20.016667	1	0.681750
20.033333	1	0.655000
20.050000	1	0.631625
20.066667	1	0.611000
20.083333	1	0.592875
20.100000	1	0.578125
20.116667	1	0.566375
20.133333	1	0.558000
20.150000	1	0.551875
20.166667	1	0.549125
20.183333	1	0.549000
20.200000	1	0.552250
20.216667	1	0.558000
20.233333	1	0.565250
20.250000	1	0.575250
20.266667	1	0.586750
20.283333	1	0.598250
20.300000	1	0.611000
20.316667	1	0.624500
20.333333	1	0.637750
20.350000	1	0.650000
20.366667	1	0.661750
20.383333	1	0.672250
20.400000	1	0.681250
20.416667	1	0.688375
20.433333	1	0.692875
20.450000	1	0.696250
20.466667	1	0.698875
20.483333	1	0.700000
20.500000	1	0.701250
20.516667	1	0.702750
20.533333	1	0.706250
20.550000	1	0.712125
20.566667	1	0.721000
20.583333	1	0.735125
20.600000	1	0.753500
20.616667	1	0.777625
20.633333	1	0.809625
20.650000	1	0.848250
20.666667	1	0.894250
20.683333	1	0.947750
20.700000	1	1.008250
20.716667	1	1.074500
20.733333	1	1.146000
20.750000	1	1.223250
20.766667	1	1.302375
20.783333	1	1.382375
20.800000	1	1.460750
20.816667	1	1.536125
20.833333	1	1.605125
20.850000	1	1.665500
20.866667	1	1.715500
20.883333	1	1.752875
20.900000	1	1.776750
20.916667	1	1.786250
20.933333	1	1.781125
20.950000	1	1.761000
20.966667	1	1.726125
20.983333	1	1.677875
21.000000	1	1.618000
21.016667	1	1.548000
21.033333	1	1.470875
21.050000	1	1.387875
21.066667	1	1.302375
21.083333	1	1.216125
21.100000	1	1.131250
21.116667	1	1.048500
21.133333	1	0.969875
21.150000	1	0.896500
21.166667	1	0.828750
21.183333	1	0.767375
21.200000	1	0.711875
21.216667	1	0.662625
21.233333	1	0.619750
21.250000	1	0.582000
21.266667	1	0.549375
21.283333	1	0.522250
21.300000	1	0.499125
21.316667	1	0.479625
21.333333	1	0.463250
21.350000	1	0.449500
21.366667	1	0.437750
21.383333	1	0.428375
21.400000	1	0.420500
21.416667	1	0.414375
21.433333	1	0.409625
21.450000	1	0.405500
21.466667	1	0.402125
21.483333	1	0.400250
21.500000	1	0.398500
21.516667	1	0.397375
21.533333	1	0.395750
21.550000	1	0.394875
21.566667	1	0.394625
21.583333	1	0.394375
21.600000	1	0.394625
21.616667	1	0.394625
21.633333	1	0.395750
21.650000	1	0.397125
21.666667	1	0.398500
21.683333	1	0.399750
21.700000	1	0.401625
21.716667	1	0.404250
21.733333	1	0.406875
21.750000	1	0.410250
21.766667	1	0.413625
21.783333	1	0.416375
21.800000	1	0.420125
21.816667	1	0.423875
21.833333	1	0.428500
21.850000	1	0.432125
21.866667	1	0.436875
21.883333	1	0.442125
21.900000	1	0.447500
21.916667	1	0.452875
21.933333	1	0.458250
21.950000	1	0.463750
21.966667	1	0.469750
21.983333	1	0.476250
22.000000	1	0.483000
22.016667	1	0.489250
22.033333	1	0.496375
22.050000	1	0.503625
22.066667	1	0.510750
22.083333	1	0.517375
22.100000	1	0.524250
22.116667	1	0.531250
22.133333	1	0.537625
22.150000	1	0.543625
22.166667	1	0.548375
22.183333	1	0.552375
22.200000	1	0.554875
22.216667	1	0.556250
22.233333	1	0.556125
22.250000	1	0.555125
22.266667	1	0.552625
22.283333	1	0.549375
22.300000	1	0.543875
22.316667	1	0.537875
22.333333	1	0.531125
22.350000	1	0.522125
22.366667	1	0.512875
22.383333	1	0.501500
22.400000	1	0.490375
22.416667	1	0.478375
22.433333	1	0.466750
22.450000	1	0.454375
22.466667	1	0.443000
22.483333	1	0.431500
22.500000	1	0.420125
22.516667	1	0.409125
22.533333	1	0.399375
22.550000	1	0.389500
22.566667	1	0.380375
22.583333	1	0.371500
22.600000	1	0.363625
22.616667	1	0.356375
22.633333	1	0.349750
22.650000	1	0.343375
22.666667	1	0.337750
22.683333	1	0.333000
22.700000	1	0.328250
22.716667	1	0.323500
22.733333	1	0.319250
22.750000	1	0.315750
22.766667	1	0.311875
22.783333	1	0.308375
22.800000	1	0.304875
22.816667	1	0.301250
22.833333	1	0.297875
22.850000	1	0.294750
22.866667	1	0.292625
22.883333	1	0.290875
22.900000	1	0.288750
22.916667	1	0.286125
22.933333	1	0.283250
22.950000	1	0.281750
22.966667	1	0.280000
22.983333	1	0.279125
23.000000	1	0.278125
23.016667	1	0.277125
23.033333	1	0.277000
23.050000	1	0.276875
23.066667	1	0.277625
23.083333	1	0.278375
23.100000	1	0.279375
23.116667	1	0.279875
23.133333	1	0.280625
23.150000	1	0.281875
23.166667	1	0.283250
23.183333	1	0.284875
23.200000	1	0.287250
23.216667	1	0.289375
23.233333	1	0.292250
23.250000	1	0.295750
23.266667	1	0.300625
23.283333	1	0.307000
23.300000	1	0.315500
23.316667	1	0.326125
23.333333	1	0.339375
23.350000	1	0.355625
23.366667	1	0.375875
23.383333	1	0.400500
23.400000	1	0.431625
23.416667	1	0.469250
23.433333	1	0.514375
23.450000	1	0.568250
23.466667	1	0.632000
23.483333	1	0.707250
23.500000	1	0.795750
23.516667	1	0.899000
23.533333	1	1.016625
23.550000	1	1.150125
23.566667	1	1.302000
23.583333	1	1.471875
23.600000	1	1.660500
23.616667	1	1.868750
23.633333	1	2.095875
23.650000	1	2.341125
23.666667	1	2.603750
23.683333	1	2.882625
23.700000	1	3.175875
23.716667	1	3.479875
23.733333	1	3.791375
23.750000	1	4.106375
23.766667	1	4.418500
23.783333	1	4.724375
23.800000	1	5.017500
23.816667	1	5.292375
23.833333	1	5.543125
23.850000	1	5.763625
23.866667	1	5.950750
23.883333	1	6.099000
23.900000	1	6.205250
23.916667	1	6.266625
23.933333	1	6.282125
23.950000	1	6.251000
23.966667	1	6.174500
23.983333	1	6.054500
24.000000	1	5.895250
24.016667	1	5.699250
24.033333	1	5.473375
24.050000	1	5.221375
24.066667	1	4.949750
24.083333	1	4.663250
24.100000	1	4.367375
24.116667	1	4.068375
24.133333	1	3.769875
24.150000	1	3.477750
24.166667	1	3.194250
24.183333	1	2.923875
24.200000	1	2.668250
24.216667	1	2.427625
24.233333	1	2.205625
24.250000	1	2.002125
24.266667	1	1.816250
24.283333	1	1.648375
24.300000	1	1.497250
24.316667	1	1.362000
24.333333	1	1.241625
24.350000	1	1.135625
24.366667	1	1.042625
24.383333	1	0.961875
24.400000	1	0.891750
24.416667	1	0.830750
24.433333	1	0.778375
24.450000	1	0.732875
24.466667	1	0.694375
24.483333	1	0.661500
24.500000	1	0.633250
24.516667	1	0.609125
24.533333	1	0.588875
24.550000	1	0.571625
24.566667	1	0.556625
24.583333	1	0.543000
24.600000	1	0.531625
24.616667	1	0.521875
24.633333	1	0.512875
24.650000	1	0.504375
24.666667	1	0.496750
24.683333	1	0.490125
24.700000	1	0.483000
24.716667	1	0.475750
24.733333	1	0.469250
24.750000	1	0.463000
24.766667	1	0.457125
24.783333	1	0.450625
24.800000	1	0.444875
24.816667	1	0.438750
24.833333	1	0.432500
24.850000	1	0.426250
24.866667	1	0.419875
24.883333	1	0.414125
24.900000	1	0.408750
24.916667	1	0.403375
24.933333	1	0.398375
24.950000	1	0.392875
24.966667	1	0.387625
24.983333	1	0.382250
25.000000	1	0.376625
25.016667	1	0.371125
25.033333	1	0.365500
25.050000	1	0.359875
25.066667	1	0.354875
25.083333	1	0.349875
25.100000	1	0.345125
25.116667	1	0.339750
25.133333	1	0.334875
25.150000	1	0.329500
25.166667	1	0.324625
25.183333	1	0.319625
25.200000	1	0.314500
25.216667	1	0.310250
25.233333	1	0.305500
25.250000	1	0.301000
25.266667	1	0.297375
25.283333	1	0.293375
25.300000	1	0.289000
25.316667	1	0.285375
25.333333	1	0.282500
25.350000	1	0.279875
25.366667	1	0.277750
25.383333	1	0.275000
25.400000	1	0.272625
25.416667	1	0.271875
25.433333	1	0.270750
25.450000	1	0.270375
25.466667	1	0.269750
25.483333	1	0.269875
25.500000	1	0.270375
25.516667	1	0.271250
25.533333	1	0.271500
25.550000	1	0.273125
25.566667	1	0.273750
25.583333	1	0.274500
25.600000	1	0.275125
25.616667	1	0.276750
25.633333	1	0.278500
25.650000	1	0.280125
25.666667	1	0.281875
25.683333	1	0.284000
25.700000	1	0.285375
25.716667	1	0.287000
25.733333	1	0.288375
25.750000	1	0.289875
25.766667	1	0.290750
25.783333	1	0.292875
25.800000	1	0.294625
25.816667	1	0.296250
25.833333	1	0.298500
25.850000	1	0.300250
25.866667	1	0.302750
25.883333	1	0.305125
25.900000	1	0.308000
25.916667	1	0.311375
25.933333	1	0.314750
25.950000	1	0.318250
25.966667	1	0.321750
25.983333	1	0.325250
26.000000	1	0.329250
26.016667	1	0.333750
26.033333	1	0.338125
26.050000	1	0.343250
26.066667	1	0.347875
26.083333	1	0.352750
26.100000	1	0.357250
26.116667	1	0.361750
26.133333	1	0.365875
26.150000	1	0.370000
26.166667	1	0.374500
26.183333	1	0.378625
26.200000	1	0.382875
26.216667	1	0.386500
26.233333	1	0.389000
26.250000	1	0.390750
26.266667	1	0.392000
26.283333	1	0.392750
26.300000	1	0.392375
26.316667	1	0.392250
26.333333	1	0.390750
26.350000	1	0.388875
26.366667	1	0.386125
26.383333	1	0.382625
26.400000	1	0.378000
26.416667	1	0.372000
26.433333	1	0.367000
26.450000	1	0.361375
26.466667	1	0.354500
26.483333	1	0.347250
26.500000	1	0.338750
26.516667	1	0.330625
26.533333	1	0.322125
26.550000	1	0.313375
26.566667	1	0.304875
26.583333	1	0.296250
26.600000	1	0.287375
26.616667	1	0.278875
26.633333	1	0.270500
26.650000	1	0.262500
26.666667	1	0.254625
26.683333	1	0.246750
26.700000	1	0.239125
26.716667	1	0.232000
26.733333	1	0.225250
26.750000	1	0.219000
26.766667	1	0.213375
26.783333	1	0.208500
26.800000	1	0.203750
26.816667	1	0.199000
26.833333	1	0.195625
26.850000	1	0.192625
26.866667	1	0.189625
26.883333	1	0.187875
26.900000	1	0.186000
26.916667	1	0.185125
26.933333	1	0.183750
26.950000	1	0.183125
26.966667	1	0.183375
26.983333	1	0.184250
27.000000	1	0.184875
27.016667	1	0.186000
27.033333	1	0.188000
27.050000	1	0.190000
27.066667	1	0.193000
27.083333	1	0.196250
27.100000	1	0.199625
27.116667	1	0.204375
27.133333	1	0.209250
27.150000	1	0.214250
27.166667	1	0.221500
27.183333	1	0.228250
27.200000	1	0.235875
27.216667	1	0.245000
27.233333	1	0.255500
27.250000	1	0.268125
27.266667	1	0.280500
27.283333	1	0.295750
27.300000	1	0.313125
27.316667	1	0.332750
27.333333	1	0.355000
27.350000	1	0.380625
27.366667	1	0.409875
27.383333	1	0.442875
27.400000	1	0.480125
27.416667	1	0.522750
27.433333	1	0.570375
27.450000	1	0.623875
27.466667	1	0.684875
27.483333	1	0.751875
27.500000	1	0.826500
27.516667	1	0.909875
27.533333	1	1.001375
27.550000	1	1.101250
27.566667	1	1.209750
27.583333	1	1.327500
27.600000	1	1.454000
27.616667	1	1.589750
27.633333	1	1.733875
27.650000	1	1.886000
27.666667	1	2.045625
27.683333	1	2.210750
27.700000	1	2.381750
27.716667	1	2.556500
27.733333	1	2.732000
27.750000	1	2.908000
27.766667	1	3.080750
27.783333	1	3.249375
27.800000	1	3.411375
27.816667	1	3.564500
27.833333	1	3.706250
27.850000	1	3.834500
27.866667	1	3.946750
27.883333	1	4.040625
27.900000	1	4.114750
27.916667	1	4.167250
27.933333	1	4.197750
27.950000	1	4.205250
27.966667	1	4.189125
27.983333	1	4.149375
28.000000	1	4.087375
28.016667	1	4.004000
28.033333	1	3.899625
28.050000	1	3.776500
28.066667	1	3.637500
28.083333	1	3.483375
28.100000	1	3.318625
28.116667	1	3.144750
28.133333	1	2.964250
28.150000	1	2.780750
28.166667	1	2.596250
28.183333	1	2.413625
28.200000	1	2.234875
28.216667	1	2.062500
28.233333	1	1.896375
28.250000	1	1.738125
28.266667	1	1.590375
28.283333	1	1.451375
28.300000	1	1.323125
28.316667	1	1.206125
28.333333	1	1.099875
28.350000	1	1.003500
28.366667	1	0.918125
28.383333	1	0.843125
28.400000	1	0.776875
28.416667	1	0.719750
28.433333	1	0.670500
28.450000	1	0.629375
28.466667	1	0.593875
28.483333	1	0.565500
28.500000	1	0.542750
28.516667	1	0.525000
28.533333	1	0.511625
28.550000	1	0.501625
28.566667	1	0.496375
28.583333	1	0.493750
28.600000	1	0.494000
28.616667	1	0.496125
28.633333	1	0.500750
28.650000	1	0.506625
28.666667	1	0.514375
28.683333	1	0.522625
28.700000	1	0.532125
28.716667	1	0.542125
28.733333	1	0.552500
28.750000	1	0.562375
28.766667	1	0.571875
28.783333	1	0.581125
28.800000	1	0.590500
28.816667	1	0.599250
28.833333	1	0.607750
28.850000	1	0.614500
28.866667	1	0.619625
28.883333	1	0.624250
28.900000	1	0.627375
28.916667	1	0.628625
28.933333	1	0.628625
28.950000	1	0.626750
28.966667	1	0.623375
28.983333	1	0.618625
29.000000	1	0.611750
29.016667	1	0.602375
29.033333	1	0.591125
29.050000	1	0.578500
29.066667	1	0.562875
29.083333	1	0.545000
29.100000	1	0.526375
29.116667	1	0.505000
29.133333	1	0.481125
29.150000	1	0.455375
29.166667	1	0.427625
29.183333	1	0.397500
29.200000	1	0.365000
29.216667	1	0.330875
29.233333	1	0.294500
29.250000	1	0.255875
29.266667	1	0.214875
29.283333	1	0.172375
29.300000	1	0.128125
29.316667	1	0.082250
29.333333	1	0.034250
29.350000	1	-0.014750
29.366667	1	-0.065375
29.383333	1	-0.117125
29.400000	1	-0.169375
29.416667	1	-0.223500
29.433333	1	-0.278000
29.450000	1	-0.331750
29.466667	1	-0.386375
29.483333	1	-0.440125
29.500000	1	-0.492625
29.516667	1	-0.544500
29.533333	1	-0.595250
29.550000	1	-0.643125
29.566667	1	-0.688625
29.583333	1	-0.731500
29.600000	1	-0.771000
29.616667	1	-0.807375
29.633333	1	-0.839750
29.650000	1	-0.867750
29.666667	1	-0.891625
29.683333	1	-0.911375
29.700000	1	-0.926500
29.716667	1	-0.936125
29.733333	1	-0.941250
29.750000	1	-0.941750
29.766667	1	-0.937125
29.783333	1	-0.927875
29.800000	1	-0.913625
29.816667	1	-0.895625
29.833333	1	-0.873375
29.850000	1	-0.847875
29.866667	1	-0.818250
29.883333	1	-0.786500
29.900000	1	-0.751250
29.916667	1	-0.714500
29.933333	1	-0.676000
29.950000	1	-0.635750
29.966667	1	-0.594750
29.983333	1	-0.552625
30.000000	1	-0.510125
30.016667	1	-0.467750
30.033333	1	-0.425625
30.050000	1	-0.384375
30.066667	1	-0.343625
30.083333	1	-0.304500
30.100000	1	-0.266000
30.116667	1	-0.229875
30.133333	1	-0.194500
30.150000	1	-0.160750
30.166667	1	-0.128375
30.183333	1	-0.098875
30.200000	1	-0.071125
30.216667	1	-0.044250
30.233333	1	-0.019625
30.250000	1	0.003875
30.266667	1	0.025625
30.283333	1	0.045250
30.300000	1	0.064250
30.316667	1	0.081750
30.333333	1	0.097625
30.350000	1	0.112750
30.366667	1	0.127250
30.383333	1	0.141250
30.400000	1	0.153625
30.416667	1	0.165375
30.433333	1	0.176375
30.450000	1	0.187375
30.466667	1	0.198125
30.483333	1	0.208625
30.500000	1	0.218500
30.516667	1	0.228375
30.533333	1	0.237875
30.550000	1	0.248000
30.566667	1	0.258375
30.583333	1	0.269125
30.600000	1	0.280625
30.616667	1	0.292750
30.633333	1	0.305750
30.650000	1	0.320000
30.666667	1	0.334625
30.683333	1	0.350250
30.700000	1	0.367875
30.716667	1	0.387125
30.733333	1	0.408750
30.750000	1	0.431500
30.766667	1	0.457250
30.783333	1	0.486375
30.800000	1	0.518125
30.816667	1	0.553375
30.833333	1	0.593000
30.850000	1	0.637125
30.866667	1	0.686750
30.883333	1	0.741125
30.900000	1	0.802250
30.916667	1	0.869500
30.933333	1	0.945000
30.950000	1	1.028000
30.966667	1	1.119875
30.983333	1	1.220750
31.000000	1	1.331500
31.016667	1	1.452875
31.033333	1	1.584625
31.050000	1	1.728250
31.066667	1	1.882750
31.083333	1	2.048750
31.100000	1	2.225625
31.116667	1	2.414125
31.133333	1	2.612625
31.150000	1	2.821375
31.166667	1	3.039125
31.183333	1	3.266125
31.200000	1	3.499375
31.216667	1	3.737500
31.233333	1	3.978500
31.250000	1	4.220750
31.266667	1	4.460875
31.283333	1	4.697500
31.300000	1	4.927250
31.316667	1	5.147500
31.333333	1	5.356000
31.350000	1	5.550500
31.366667	1	5.727500
31.383333	1	5.886000
31.400000	1	6.022625
31.416667	1	6.135625
31.433333	1	6.224375
31.450000	1	6.286750
31.466667	1	6.321875
31.483333	1	6.329625
31.500000	1	6.309000
31.516667	1	6.262000
31.533333	1	6.189000
31.550000	1	6.090250
31.566667	1	5.968625
31.583333	1	5.824375
31.600000	1	5.660500
31.616667	1	5.478625
31.633333	1	5.280625
31.650000	1	5.069125
31.666667	1	4.847375
31.683333	1	4.618625
31.700000	1	4.384625
31.716667	1	4.148375
31.733333	1	3.911125
31.750000	1	3.675000
31.766667	1	3.442250
31.783333	1	3.213125
31.800000	1	2.990750
31.816667	1	2.776250
31.833333	1	2.569875
31.850000	1	2.373500
31.866667	1	2.186875
31.883333	1	2.011750
31.900000	1	1.846625
31.916667	1	1.692750
31.933333	1	1.549375
31.950000	1	1.417250
31.966667	1	1.294625
31.983333	1	1.181750
32.000000	1	1.078750
32.016667	1	0.984250
32.033333	1	0.898250
32.050000	1	0.819750
32.066667	1	0.750250
32.083333	1	0.686875
32.100000	1	0.629750
32.116667	1	0.578250
32.133333	1	0.532500
32.150000	1	0.491625
32.166667	1	0.455875
32.183333	1	0.423125
32.200000	1	0.394125
32.216667	1	0.368000
32.233333	1	0.345000
32.250000	1	0.325625
32.266667	1	0.307875
32.283333	1	0.292250
32.300000	1	0.278625
32.316667	1	0.266000
32.333333	1	0.255375
32.350000	1	0.246125
32.366667	1	0.238000
32.383333	1	0.231375
32.400000	1	0.224375
32.416667	1	0.217875
32.433333	1	0.212625
32.450000	1	0.208250
32.466667	1	0.203875
32.483333	1	0.200000
32.500000	1	0.196000
32.516667	1	0.193000
32.533333	1	0.190250
32.550000	1	0.188000
32.566667	1	0.185125
32.583333	1	0.182625
32.600000	1	0.180875
32.616667	1	0.178250
32.633333	1	0.176000
32.650000	1	0.174500
32.666667	1	0.172750
32.683333	1	0.170500
32.700000	1	0.168500
32.716667	1	0.166750
32.733333	1	0.165625
32.750000	1	0.164125
32.766667	1	0.162625
32.783333	1	0.160875
32.800000	1	0.159500
32.816667	1	0.158250
32.833333	1	0.156875
32.850000	1	0.156000
32.866667	1	0.154375
32.883333	1	0.152875
32.900000	1	0.150875
32.916667	1	0.149375
32.933333	1	0.148500
32.950000	1	0.147375
32.966667	1	0.146750
32.983333	1	0.145500
33.000000	1	0.144375
33.016667	1	0.142375
33.033333	1	0.141375
33.050000	1	0.140125
33.066667	1	0.139625
33.083333	1	0.138625
33.100000	1	0.137000
33.116667	1	0.136500
33.133333	1	0.135375
33.150000	1	0.134375
33.166667	1	0.133375
33.183333	1	0.132375
33.200000	1	0.132000
33.216667	1	0.131250
33.233333	1	0.130375
33.250000	1	0.129625
33.266667	1	0.128375
33.283333	1	0.127375
33.300000	1	0.127500
33.316667	1	0.126750
33.333333	1	0.125875
33.350000	1	0.125000
33.366667	1	0.124375
33.383333	1	0.123750
33.400000	1	0.124000
33.416667	1	0.123500
33.433333	1	0.123750
33.450000	1	0.124875
33.466667	1	0.125250
33.483333	1	0.125000
33.500000	1	0.125750
33.516667	1	0.126375
33.533333	1	0.128250
33.550000	1	0.129875
33.566667	1	0.131500
33.583333	1	0.132375
33.600000	1	0.134750
33.616667	1	0.137000
33.633333	1	0.139250
33.650000	1	0.141375
33.666667	1	0.144000
33.683333	1	0.146000
33.700000	1	0.149000
33.716667	1	0.151750
33.733333	1	0.154375
33.750000	1	0.157500
33.766667	1	0.160625
33.783333	1	0.163500
33.800000	1	0.166250
33.816667	1	0.168875
33.833333	1	0.172250
33.850000	1	0.175000
33.866667	1	0.177375
33.883333	1	0.180625
33.900000	1	0.183375
33.916667	1	0.185875
33.933333	1	0.188125
33.950000	1	0.190125
33.966667	1	0.192750
33.983333	1	0.194250
34.000000	1	0.196000
34.016667	1	0.197750
34.033333	1	0.198500
34.050000	1	0.199000
34.066667	1	0.199625
34.083333	1	0.200250
34.100000	1	0.201250
34.116667	1	0.201250
34.133333	1	0.201750
34.150000	1	0.202250
34.166667	1	0.202875
34.183333	1	0.203000
34.200000	1	0.202750
34.216667	1	0.202000
34.233333	1	0.202250
34.250000	1	0.201750
34.266667	1	0.201750
34.283333	1	0.201375
34.300000	1	0.201375
34.316667	1	0.201750
34.333333	1	0.201875
34.350000	1	0.201875
34.366667	1	0.201625
34.383333	1	0.202375
34.400000	1	0.203125
34.416667	1	0.203250
34.433333	1	0.203875
34.450000	1	0.204250
34.466667	1	0.204375
34.483333	1	0.204500
34.500000	1	0.205250
34.516667	1	0.205500
34.533333	1	0.206125
34.550000	1	0.207000
34.566667	1	0.207750
34.583333	1	0.208250
34.600000	1	0.208500
34.616667	1	0.209000
34.633333	1	0.209500
34.650000	1	0.209500
34.666667	1	0.209625
34.683333	1	0.209875
34.700000	1	0.210500
34.716667	1	0.210875
34.733333	1	0.211375
34.750000	1	0.211625
34.766667	1	0.211250
34.783333	1	0.211625
34.800000	1	0.211625
34.816667	1	0.211625
34.833333	1	0.211750
34.850000	1	0.211000
34.866667	1	0.209875
34.883333	1	0.209750
34.900000	1	0.208875
34.916667	1	0.209250
34.933333	1	0.208750
34.950000	1	0.208375
34.966667	1	0.208250
34.983333	1	0.208000
35.000000	1	0.207000
35.016667	1	0.206875
35.033333	1	0.206125
35.050000	1	0.205375
35.066667	1	0.205500
35.083333	1	0.204875
35.100000	1	0.204500
35.116667	1	0.204500
35.133333	1	0.204000
35.150000	1	0.203625
35.166667	1	0.203500
35.183333	1	0.203250
35.200000	1	0.202375
35.216667	1	0.202250
35.233333	1	0.201000
35.250000	1	0.200500
35.266667	1	0.199375
35.283333	1	0.199000
35.300000	1	0.198125
35.316667	1	0.197250
35.333333	1	0.196000
35.350000	1	0.195125
35.366667	1	0.194250
35.383333	1	0.193250
35.400000	1	0.192250
35.416667	1	0.191375
35.433333	1	0.189000
35.450000	1	0.187125
35.466667	1	0.185000
35.483333	1	0.183000
35.500000	1	0.181000
35.516667	1	0.179000
35.533333	1	0.177875
35.550000	1	0.174750
35.566667	1	0.172875
35.583333	1	0.170375
35.600000	1	0.168000
35.616667	1	0.165500
35.633333	1	0.163000
35.650000	1	0.160750
35.666667	1	0.158750
35.683333	1	0.157000
35.700000	1	0.154875
35.716667	1	0.153000
35.733333	1	0.151250
35.750000	1	0.149000
35.766667	1	0.147000
35.783333	1	0.145625
35.800000	1	0.144625
35.816667	1	0.143750
35.833333	1	0.142625
35.850000	1	0.141125
35.866667	1	0.140250
35.883333	1	0.139750
35.900000	1	0.139125
35.916667	1	0.139500
35.933333	1	0.139250
35.950000	1	0.139000
35.966667	1	0.138750
35.983333	1	0.138625
36.000000	1	0.138000
36.016667	1	0.137500
36.033333	1	0.137875
36.050000	1	0.138000
36.066667	1	0.138250
36.083333	1	0.138500
36.100000	1	0.138625
36.116667	1	0.138625
36.133333	1	0.139375
36.150000	1	0.139375
36.166667	1	0.140250
36.183333	1	0.140250
36.200000	1	0.139500
36.216667	1	0.139250
36.233333	1	0.138500
36.250000	1	0.138000
36.266667	1	0.137500
36.283333	1	0.136750
36.300000	1	0.136250
36.316667	1	0.134375
36.333333	1	0.133625
36.350000	1	0.132125
36.366667	1	0.130125
36.383333	1	0.128000
36.400000	1	0.126000
36.416667	1	0.124000
36.433333	1	0.121750
36.450000	1	0.119000
36.466667	1	0.115750
36.483333	1	0.112875
36.500000	1	0.110000
36.516667	1	0.107000
36.533333	1	0.104125
36.550000	1	0.101000
36.566667	1	0.097500
36.583333	1	0.094375
36.600000	1	0.091125
36.616667	1	0.087625
36.633333	1	0.084375
36.650000	1	0.080500
36.666667	1	0.077000
36.683333	1	0.074125
36.700000	1	0.070875
36.716667	1	0.068125
36.733333	1	0.065500
36.750000	1	0.063125
36.766667	1	0.061250
36.783333	1	0.058750
36.800000	1	0.056125
36.816667	1	0.054125
36.833333	1	0.052500
36.850000	1	0.051125
36.866667	1	0.049875
36.883333	1	0.049000
36.900000	1	0.047625
36.916667	1	0.046750
36.933333	1	0.046625
36.950000	1	0.046375
36.966667	1	0.046125
36.983333	1	0.046000
37.000000	1	0.047000
37.016667	1	0.047125
37.033333	1	0.048000
37.050000	1	0.048750
37.066667	1	0.050125
37.083333	1	0.051500
37.100000	1	0.053125
37.116667	1	0.054875
37.133333	1	0.057625
37.150000	1	0.059500
37.166667	1	0.061625
37.183333	1	0.063500
37.200000	1	0.065750
37.216667	1	0.067750
37.233333	1	0.069500
37.250000	1	0.071625
37.266667	1	0.073875
37.283333	1	0.076375
37.300000	1	0.078250
37.316667	1	0.080125
37.333333	1	0.081750
37.350000	1	0.083375
37.366667	1	0.085000
37.383333	1	0.086375
37.400000	1	0.086875
37.416667	1	0.087500
37.433333	1	0.087500
37.450000	1	0.088250
37.466667	1	0.088125
37.483333	1	0.088375
37.500000	1	0.088500
37.516667	1	0.088750
37.533333	1	0.088000
37.550000	1	0.087250
37.566667	1	0.086625
37.583333	1	0.086000
37.600000	1	0.085250
37.616667	1	0.084375
37.633333	1	0.083750
37.650000	1	0.082500
37.666667	1	0.081250
37.683333	1	0.079750
37.700000	1	0.079375
37.716667	1	0.078375
37.733333	1	0.077750
37.750000	1	0.076750
37.766667	1	0.075875
37.783333	1	0.075125
37.800000	1	0.075000
37.816667	1	0.074750
37.833333	1	0.074375
37.850000	1	0.073875
37.866667	1	0.073375
37.883333	1	0.073750
37.900000	1	0.073000
37.916667	1	0.072250
37.933333	1	0.071750
37.950000	1	0.070875
37.966667	1	0.070875
37.983333	1	0.071125
38.000000	1	0.070375
38.016667	1	0.069500
38.033333	1	0.068750
38.050000	1	0.068875
38.066667	1	0.068500
38.083333	1	0.068125
38.100000	1	0.067750
38.116667	1	0.066375
38.133333	1	0.066000
38.150000	1	0.064875
38.166667	1	0.064250
38.183333	1	0.063375
38.200000	1	0.062625
38.216667	1	0.061500
38.233333	1	0.060625
38.250000	1	0.059750
38.266667	1	0.058125
38.283333	1	0.056625
38.300000	1	0.055500
38.316667	1	0.054500
38.333333	1	0.053000
38.350000	1	0.052500
38.366667	1	0.051375
38.383333	1	0.050125
38.400000	1	0.049375
38.416667	1	0.048125
38.433333	1	0.048375
38.450000	1	0.047625
38.466667	1	0.046875
38.483333	1	0.046625
38.500000	1	0.046750
38.516667	1	0.046875
38.533333	1	0.046625
38.550000	1	0.046500
38.566667	1	0.047125
38.583333	1	0.048000
38.600000	1	0.048625
38.616667	1	0.048375
38.633333	1	0.049000
38.650000	1	0.048750
38.666667	1	0.049000
38.683333	1	0.049875
38.700000	1	0.050375
38.716667	1	0.051375
38.733333	1	0.052625
38.750000	1	0.052750
38.766667	1	0.053375
38.783333	1	0.054250
38.800000	1	0.054375
38.816667	1	0.054875
38.833333	1	0.054250
38.850000	1	0.054250
38.866667	1	0.054000
38.883333	1	0.054500
38.900000	1	0.053750
38.916667	1	0.052875
38.933333	1	0.051625
38.950000	1	0.050625
38.966667	1	0.049375
38.983333	1	0.048250
39.000000	1	0.047000
39.016667	1	0.045375
39.033333	1	0.043500
39.050000	1	0.041875
39.066667	1	0.040750
39.083333	1	0.038500
39.100000	1	0.036750
39.116667	1	0.035125
39.133333	1	0.033000
39.150000	1	0.030625
39.166667	1	0.028250
39.183333	1	0.026000
39.200000	1	0.024250
39.216667	1	0.022625
39.233333	1	0.020625
39.250000	1	0.018250
39.266667	1	0.016750
39.283333	1	0.015250
39.300000	1	0.013750
39.316667	1	0.011750
39.333333	1	0.010250
39.350000	1	0.008875
39.366667	1	0.007375
39.383333	1	0.005625
39.400000	1	0.003750
39.416667	1	0.002375
39.433333	1	0.001375
39.450000	1	0.000875
39.466667	1	-0.000125
39.483333	1	-0.000375
39.500000	1	-0.001375
39.516667	1	-0.002250
39.533333	1	-0.002875
39.550000	1	-0.002875
39.566667	1	-0.003625
39.583333	1	-0.004000
39.600000	1	-0.004000
39.616667	1	-0.003750
39.633333	1	-0.003625
39.650000	1	-0.002750
39.666667	1	-0.002625
39.683333	1	-0.002250
39.700000	1	-0.001500
39.716667	1	-0.000375
39.733333	1	0.000500
39.750000	1	0.002000
39.766667	1	0.002750
39.783333	1	0.003375
39.800000	1	0.005125
39.816667	1	0.006500
39.833333	1	0.008625
39.850000	1	0.010125
39.866667	1	0.011625
39.883333	1	0.013375
39.900000	1	0.014500
39.916667	1	0.016250
39.933333	1	0.018500
39.950000	1	0.019875
39.966667	1	0.021875
39.983333	1	0.023875
40.000000	1	0.026000
