URL	chrom://bioreactor/micro_cm7/HPLC_Ultimate_3000/Users/markusar/20240727_MA_EsirYCA.seq/403.smp/RI_1.channel/RI_1.chm
Channel	RI_1

Injection Information:
Data Vault	micro_cm7
Sequence	20240727_MA_EsirYCA
Name	Es3_3
Number	12
Position	BA12
Comment	
Processing Method	
Instrument Method	run_25B_method
Type	Unknown
Status	Finished
Inject Time	29.07.2024 21:08:21 +02:00
Volume (µl)	20.0000
Dilution Factor	1.0000
Weight	1.0000

Chromatogram Data Information:
Time Min. (min)	0.000000
Time Max. (min)	40.000000
Data Points	2401
Detector	RI
Generating Data System	Chromeleon 7.3.2.11814
Exporting Data System	Chromeleon 7.3.2.0
Operator	Instrument Controller
Signal Quantity	Refractive 
Signal Unit	µRIU
Signal Min.	-0.955875
Signal Max.	64.567500
Channel	RI_1
Driver Name	RID520Driver.dll
Channel Type	Evaluation
Min. Step (s)	1
Max. Step (s)	1
Average Step (s)	1

Signal Parameter Information:
Signal Info	

Chromatogram Data:
Time (min)	Step (s)	Value (µRIU)
0.000000	n.a.	0.007000
0.016667	1	0.008875
0.033333	1	0.011000
0.050000	1	0.012750
0.066667	1	0.015125
0.083333	1	0.017375
0.100000	1	0.019625
0.116667	1	0.021875
0.133333	1	0.023625
0.150000	1	0.026125
0.166667	1	0.028000
0.183333	1	0.030125
0.200000	1	0.031875
0.216667	1	0.033875
0.233333	1	0.035500
0.250000	1	0.036625
0.266667	1	0.037375
0.283333	1	0.038500
0.300000	1	0.039750
0.316667	1	0.040250
0.333333	1	0.040250
0.350000	1	0.039500
0.366667	1	0.038625
0.383333	1	0.037000
0.400000	1	0.036750
0.416667	1	0.036000
0.433333	1	0.035750
0.450000	1	0.036125
0.466667	1	0.035875
0.483333	1	0.035125
0.500000	1	0.035250
0.516667	1	0.034500
0.533333	1	0.032375
0.550000	1	0.030250
0.566667	1	0.026375
0.583333	1	0.021500
0.600000	1	0.015875
0.616667	1	0.011125
0.633333	1	0.006000
0.650000	1	0.001875
0.666667	1	-0.001500
0.683333	1	-0.005000
0.700000	1	-0.008125
0.716667	1	-0.011750
0.733333	1	-0.014875
0.750000	1	-0.017875
0.766667	1	-0.020500
0.783333	1	-0.024125
0.800000	1	-0.028000
0.816667	1	-0.031250
0.833333	1	-0.034125
0.850000	1	-0.036500
0.866667	1	-0.039125
0.883333	1	-0.041750
0.900000	1	-0.044125
0.916667	1	-0.046750
0.933333	1	-0.049250
0.950000	1	-0.051375
0.966667	1	-0.054125
0.983333	1	-0.055875
1.000000	1	-0.057625
1.016667	1	-0.059000
1.033333	1	-0.060375
1.050000	1	-0.061375
1.066667	1	-0.062125
1.083333	1	-0.063375
1.100000	1	-0.063625
1.116667	1	-0.063750
1.133333	1	-0.064250
1.150000	1	-0.064250
1.166667	1	-0.064375
1.183333	1	-0.063750
1.200000	1	-0.062250
1.216667	1	-0.061250
1.233333	1	-0.059375
1.250000	1	-0.058750
1.266667	1	-0.056500
1.283333	1	-0.054750
1.300000	1	-0.053875
1.316667	1	-0.052625
1.333333	1	-0.050125
1.350000	1	-0.048000
1.366667	1	-0.045875
1.383333	1	-0.044000
1.400000	1	-0.042000
1.416667	1	-0.040000
1.433333	1	-0.038250
1.450000	1	-0.036500
1.466667	1	-0.034250
1.483333	1	-0.032500
1.500000	1	-0.029875
1.516667	1	-0.028625
1.533333	1	-0.027125
1.550000	1	-0.025750
1.566667	1	-0.024500
1.583333	1	-0.022875
1.600000	1	-0.021875
1.616667	1	-0.020750
1.633333	1	-0.019875
1.650000	1	-0.019500
1.666667	1	-0.018500
1.683333	1	-0.018125
1.700000	1	-0.018125
1.716667	1	-0.018125
1.733333	1	-0.018125
1.750000	1	-0.019000
1.766667	1	-0.019000
1.783333	1	-0.019000
1.800000	1	-0.019625
1.816667	1	-0.019875
1.833333	1	-0.019625
1.850000	1	-0.019750
1.866667	1	-0.020125
1.883333	1	-0.021000
1.900000	1	-0.021250
1.916667	1	-0.021375
1.933333	1	-0.021375
1.950000	1	-0.021625
1.966667	1	-0.021875
1.983333	1	-0.021625
2.000000	1	-0.022000
2.016667	1	-0.021750
2.033333	1	-0.022125
2.050000	1	-0.021750
2.066667	1	-0.022125
2.083333	1	-0.022125
2.100000	1	-0.021875
2.116667	1	-0.022000
2.133333	1	-0.021500
2.150000	1	-0.021125
2.166667	1	-0.021250
2.183333	1	-0.020875
2.200000	1	-0.020375
2.216667	1	-0.020250
2.233333	1	-0.020625
2.250000	1	-0.020500
2.266667	1	-0.020625
2.283333	1	-0.020500
2.300000	1	-0.020750
2.316667	1	-0.021250
2.333333	1	-0.021250
2.350000	1	-0.021375
2.366667	1	-0.021750
2.383333	1	-0.022125
2.400000	1	-0.022000
2.416667	1	-0.022250
2.433333	1	-0.022500
2.450000	1	-0.021875
2.466667	1	-0.021750
2.483333	1	-0.021125
2.500000	1	-0.020625
2.516667	1	-0.020125
2.533333	1	-0.019750
2.550000	1	-0.018750
2.566667	1	-0.018125
2.583333	1	-0.017375
2.600000	1	-0.016125
2.616667	1	-0.014750
2.633333	1	-0.013000
2.650000	1	-0.011875
2.666667	1	-0.010625
2.683333	1	-0.009875
2.700000	1	-0.007875
2.716667	1	-0.006625
2.733333	1	-0.004875
2.750000	1	-0.003125
2.766667	1	-0.001125
2.783333	1	0.000375
2.800000	1	0.002500
2.816667	1	0.003875
2.833333	1	0.005375
2.850000	1	0.006625
2.866667	1	0.008625
2.883333	1	0.010500
2.900000	1	0.012875
2.916667	1	0.015125
2.933333	1	0.017375
2.950000	1	0.019750
2.966667	1	0.021500
2.983333	1	0.023250
3.000000	1	0.025375
3.016667	1	0.028375
3.033333	1	0.030625
3.050000	1	0.032500
3.066667	1	0.035250
3.083333	1	0.037750
3.100000	1	0.039375
3.116667	1	0.042250
3.133333	1	0.044125
3.150000	1	0.046875
3.166667	1	0.049625
3.183333	1	0.052000
3.200000	1	0.055125
3.216667	1	0.057500
3.233333	1	0.060250
3.250000	1	0.062875
3.266667	1	0.065125
3.283333	1	0.067500
3.300000	1	0.069625
3.316667	1	0.071875
3.333333	1	0.074000
3.350000	1	0.076500
3.366667	1	0.078750
3.383333	1	0.081000
3.400000	1	0.082750
3.416667	1	0.084750
3.433333	1	0.086625
3.450000	1	0.088125
3.466667	1	0.088500
3.483333	1	0.089000
3.500000	1	0.090375
3.516667	1	0.091125
3.533333	1	0.092000
3.550000	1	0.092125
3.566667	1	0.092250
3.583333	1	0.092250
3.600000	1	0.092375
3.616667	1	0.092125
3.633333	1	0.092125
3.650000	1	0.091625
3.666667	1	0.091125
3.683333	1	0.090125
3.700000	1	0.089000
3.716667	1	0.088125
3.733333	1	0.086625
3.750000	1	0.085750
3.766667	1	0.084625
3.783333	1	0.083625
3.800000	1	0.081875
3.816667	1	0.080500
3.833333	1	0.079500
3.850000	1	0.078375
3.866667	1	0.076750
3.883333	1	0.075625
3.900000	1	0.074250
3.916667	1	0.073625
3.933333	1	0.071875
3.950000	1	0.070375
3.966667	1	0.070000
3.983333	1	0.068375
4.000000	1	0.067875
4.016667	1	0.067125
4.033333	1	0.066500
4.050000	1	0.065500
4.066667	1	0.065000
4.083333	1	0.063750
4.100000	1	0.063625
4.116667	1	0.063125
4.133333	1	0.063375
4.150000	1	0.063375
4.166667	1	0.063125
4.183333	1	0.063000
4.200000	1	0.063125
4.216667	1	0.064250
4.233333	1	0.064500
4.250000	1	0.064750
4.266667	1	0.066250
4.283333	1	0.067125
4.300000	1	0.067875
4.316667	1	0.069250
4.333333	1	0.070375
4.350000	1	0.071250
4.366667	1	0.072875
4.383333	1	0.074875
4.400000	1	0.076500
4.416667	1	0.078125
4.433333	1	0.080000
4.450000	1	0.081750
4.466667	1	0.083625
4.483333	1	0.085500
4.500000	1	0.087125
4.516667	1	0.089250
4.533333	1	0.091625
4.550000	1	0.093875
4.566667	1	0.096500
4.583333	1	0.099125
4.600000	1	0.100875
4.616667	1	0.103625
4.633333	1	0.106375
4.650000	1	0.109500
4.666667	1	0.112250
4.683333	1	0.115750
4.700000	1	0.119250
4.716667	1	0.122625
4.733333	1	0.125625
4.750000	1	0.129125
4.766667	1	0.132875
4.783333	1	0.137125
4.800000	1	0.141375
4.816667	1	0.146125
4.833333	1	0.150000
4.850000	1	0.154875
4.866667	1	0.159250
4.883333	1	0.163125
4.900000	1	0.167500
4.916667	1	0.171750
4.933333	1	0.175750
4.950000	1	0.180000
4.966667	1	0.184750
4.983333	1	0.188875
5.000000	1	0.193250
5.016667	1	0.197250
5.033333	1	0.200875
5.050000	1	0.205000
5.066667	1	0.208750
5.083333	1	0.211875
5.100000	1	0.214375
5.116667	1	0.217250
5.133333	1	0.219875
5.150000	1	0.222750
5.166667	1	0.225000
5.183333	1	0.227125
5.200000	1	0.228250
5.216667	1	0.229625
5.233333	1	0.230625
5.250000	1	0.231625
5.266667	1	0.232375
5.283333	1	0.232625
5.300000	1	0.232875
5.316667	1	0.232500
5.333333	1	0.232250
5.350000	1	0.230875
5.366667	1	0.230750
5.383333	1	0.229375
5.400000	1	0.228000
5.416667	1	0.225750
5.433333	1	0.223625
5.450000	1	0.221000
5.466667	1	0.217500
5.483333	1	0.214750
5.500000	1	0.211375
5.516667	1	0.207500
5.533333	1	0.203875
5.550000	1	0.200125
5.566667	1	0.196750
5.583333	1	0.193000
5.600000	1	0.188125
5.616667	1	0.182750
5.633333	1	0.178625
5.650000	1	0.173875
5.666667	1	0.168750
5.683333	1	0.163375
5.700000	1	0.157750
5.716667	1	0.152250
5.733333	1	0.145750
5.750000	1	0.140250
5.766667	1	0.134625
5.783333	1	0.129750
5.800000	1	0.124250
5.816667	1	0.118375
5.833333	1	0.112375
5.850000	1	0.106250
5.866667	1	0.100375
5.883333	1	0.094625
5.900000	1	0.088500
5.916667	1	0.082500
5.933333	1	0.076500
5.950000	1	0.070875
5.966667	1	0.065875
5.983333	1	0.060250
6.000000	1	0.055625
6.016667	1	0.050375
6.033333	1	0.045250
6.050000	1	0.039875
6.066667	1	0.034875
6.083333	1	0.030875
6.100000	1	0.027000
6.116667	1	0.023125
6.133333	1	0.019500
6.150000	1	0.017125
6.166667	1	0.014375
6.183333	1	0.011500
6.200000	1	0.009000
6.216667	1	0.006750
6.233333	1	0.004500
6.250000	1	0.002250
6.266667	1	0.000500
6.283333	1	-0.000875
6.300000	1	-0.002500
6.316667	1	-0.003625
6.333333	1	-0.004375
6.350000	1	-0.005125
6.366667	1	-0.005750
6.383333	1	-0.005375
6.400000	1	-0.006500
6.416667	1	-0.006625
6.433333	1	-0.006875
6.450000	1	-0.007375
6.466667	1	-0.008250
6.483333	1	-0.007500
6.500000	1	-0.007125
6.516667	1	-0.006125
6.533333	1	-0.005750
6.550000	1	-0.004625
6.566667	1	-0.004000
6.583333	1	-0.003125
6.600000	1	-0.001500
6.616667	1	0.000250
6.633333	1	0.001875
6.650000	1	0.004125
6.666667	1	0.006000
6.683333	1	0.008625
6.700000	1	0.011750
6.716667	1	0.014875
6.733333	1	0.017625
6.750000	1	0.021625
6.766667	1	0.025375
6.783333	1	0.029500
6.800000	1	0.033250
6.816667	1	0.038000
6.833333	1	0.043000
6.850000	1	0.047625
6.866667	1	0.052125
6.883333	1	0.056875
6.900000	1	0.061500
6.916667	1	0.066250
6.933333	1	0.071125
6.950000	1	0.076500
6.966667	1	0.081000
6.983333	1	0.085250
7.000000	1	0.089500
7.016667	1	0.093750
7.033333	1	0.097500
7.050000	1	0.101000
7.066667	1	0.103750
7.083333	1	0.106250
7.100000	1	0.108750
7.116667	1	0.111125
7.133333	1	0.113125
7.150000	1	0.114375
7.166667	1	0.115750
7.183333	1	0.116250
7.200000	1	0.116875
7.216667	1	0.117125
7.233333	1	0.117500
7.250000	1	0.116875
7.266667	1	0.116250
7.283333	1	0.115750
7.300000	1	0.114500
7.316667	1	0.113750
7.333333	1	0.112000
7.350000	1	0.110625
7.366667	1	0.108375
7.383333	1	0.106375
7.400000	1	0.103875
7.416667	1	0.101125
7.433333	1	0.099000
7.450000	1	0.095750
7.466667	1	0.093000
7.483333	1	0.089125
7.500000	1	0.086125
7.516667	1	0.082375
7.533333	1	0.079500
7.550000	1	0.075625
7.566667	1	0.072000
7.583333	1	0.068000
7.600000	1	0.064750
7.616667	1	0.060750
7.633333	1	0.056250
7.650000	1	0.052250
7.666667	1	0.048375
7.683333	1	0.044750
7.700000	1	0.040500
7.716667	1	0.037000
7.733333	1	0.033625
7.750000	1	0.029625
7.766667	1	0.026500
7.783333	1	0.023375
7.800000	1	0.020500
7.816667	1	0.018000
7.833333	1	0.015875
7.850000	1	0.014125
7.866667	1	0.012250
7.883333	1	0.010250
7.900000	1	0.009625
7.916667	1	0.008375
7.933333	1	0.007500
7.950000	1	0.006250
7.966667	1	0.006625
7.983333	1	0.006500
8.000000	1	0.005875
8.016667	1	0.006375
8.033333	1	0.006125
8.050000	1	0.006250
8.066667	1	0.006375
8.083333	1	0.006500
8.100000	1	0.006250
8.116667	1	0.006500
8.133333	1	0.007250
8.150000	1	0.007750
8.166667	1	0.008000
8.183333	1	0.008500
8.200000	1	0.008750
8.216667	1	0.009250
8.233333	1	0.010125
8.250000	1	0.010125
8.266667	1	0.010250
8.283333	1	0.009750
8.300000	1	0.010250
8.316667	1	0.010375
8.333333	1	0.009875
8.350000	1	0.010125
8.366667	1	0.009875
8.383333	1	0.009125
8.400000	1	0.009000
8.416667	1	0.008500
8.433333	1	0.008000
8.450000	1	0.007375
8.466667	1	0.006125
8.483333	1	0.005625
8.500000	1	0.005625
8.516667	1	0.004750
8.533333	1	0.004625
8.550000	1	0.004000
8.566667	1	0.003000
8.583333	1	0.002250
8.600000	1	0.002875
8.616667	1	0.002750
8.633333	1	0.002500
8.650000	1	0.002000
8.666667	1	0.002500
8.683333	1	0.002875
8.700000	1	0.003000
8.716667	1	0.002500
8.733333	1	0.002625
8.750000	1	0.002750
8.766667	1	0.002750
8.783333	1	0.003000
8.800000	1	0.003000
8.816667	1	0.002500
8.833333	1	0.001750
8.850000	1	0.001500
8.866667	1	0.001250
8.883333	1	0.001125
8.900000	1	0.000750
8.916667	1	0.000875
8.933333	1	0.000375
8.950000	1	-0.000125
8.966667	1	-0.000750
8.983333	1	-0.001500
9.000000	1	-0.002625
9.016667	1	-0.003250
9.033333	1	-0.004625
9.050000	1	-0.006125
9.066667	1	-0.008125
9.083333	1	-0.009625
9.100000	1	-0.010875
9.116667	1	-0.012625
9.133333	1	-0.013875
9.150000	1	-0.015625
9.166667	1	-0.017250
9.183333	1	-0.018875
9.200000	1	-0.020125
9.216667	1	-0.022000
9.233333	1	-0.024000
9.250000	1	-0.025875
9.266667	1	-0.028125
9.283333	1	-0.030375
9.300000	1	-0.031875
9.316667	1	-0.033750
9.333333	1	-0.035500
9.350000	1	-0.037500
9.366667	1	-0.039375
9.383333	1	-0.041375
9.400000	1	-0.044000
9.416667	1	-0.045875
9.433333	1	-0.047500
9.450000	1	-0.049625
9.466667	1	-0.051625
9.483333	1	-0.053375
9.500000	1	-0.055250
9.516667	1	-0.056625
9.533333	1	-0.058500
9.550000	1	-0.060750
9.566667	1	-0.062000
9.583333	1	-0.063250
9.600000	1	-0.064625
9.616667	1	-0.064875
9.633333	1	-0.065750
9.650000	1	-0.066375
9.666667	1	-0.066875
9.683333	1	-0.067125
9.700000	1	-0.066750
9.716667	1	-0.066375
9.733333	1	-0.065875
9.750000	1	-0.065750
9.766667	1	-0.064000
9.783333	1	-0.063500
9.800000	1	-0.061500
9.816667	1	-0.059500
9.833333	1	-0.057375
9.850000	1	-0.055125
9.866667	1	-0.053125
9.883333	1	-0.050125
9.900000	1	-0.047625
9.916667	1	-0.045250
9.933333	1	-0.042000
9.950000	1	-0.039250
9.966667	1	-0.036125
9.983333	1	-0.033000
10.000000	1	-0.030125
10.016667	1	-0.027125
10.033333	1	-0.024125
10.050000	1	-0.020750
10.066667	1	-0.017625
10.083333	1	-0.014000
10.100000	1	-0.010000
10.116667	1	-0.005500
10.133333	1	-0.001250
10.150000	1	0.004125
10.166667	1	0.009750
10.183333	1	0.016000
10.200000	1	0.023750
10.216667	1	0.032125
10.233333	1	0.041750
10.250000	1	0.052750
10.266667	1	0.066125
10.283333	1	0.082125
10.300000	1	0.100375
10.316667	1	0.121250
10.333333	1	0.144500
10.350000	1	0.170000
10.366667	1	0.197250
10.383333	1	0.225625
10.400000	1	0.252875
10.416667	1	0.276625
10.433333	1	0.294875
10.450000	1	0.307500
10.466667	1	0.318500
10.483333	1	0.337375
10.500000	1	0.379875
10.516667	1	0.474750
10.533333	1	0.657750
10.550000	1	0.970750
10.566667	1	1.460375
10.583333	1	2.170250
10.600000	1	3.139500
10.616667	1	4.398750
10.633333	1	5.966875
10.650000	1	7.854875
10.666667	1	10.063375
10.683333	1	12.585250
10.700000	1	15.401375
10.716667	1	18.482250
10.733333	1	21.788250
10.750000	1	25.271500
10.766667	1	28.871250
10.783333	1	32.511000
10.800000	1	36.095000
10.816667	1	39.495250
10.833333	1	42.539625
10.850000	1	45.016000
10.866667	1	46.675000
10.883333	1	47.265500
10.900000	1	46.595125
10.916667	1	44.604750
10.933333	1	41.416875
10.950000	1	37.325500
10.966667	1	32.730875
10.983333	1	28.038375
11.000000	1	23.576500
11.016667	1	19.560625
11.033333	1	16.096500
11.050000	1	13.196000
11.066667	1	10.822625
11.083333	1	8.915625
11.100000	1	7.404500
11.116667	1	6.219125
11.133333	1	5.294625
11.150000	1	4.575000
11.166667	1	4.013750
11.183333	1	3.572750
11.200000	1	3.223000
11.216667	1	2.941625
11.233333	1	2.712625
11.250000	1	2.522500
11.266667	1	2.362875
11.283333	1	2.225875
11.300000	1	2.107625
11.316667	1	2.003750
11.333333	1	1.911000
11.350000	1	1.827750
11.366667	1	1.751875
11.383333	1	1.684125
11.400000	1	1.622500
11.416667	1	1.567375
11.433333	1	1.517750
11.450000	1	1.473625
11.466667	1	1.434250
11.483333	1	1.399250
11.500000	1	1.368250
11.516667	1	1.341500
11.533333	1	1.317625
11.550000	1	1.296750
11.566667	1	1.277875
11.583333	1	1.261875
11.600000	1	1.247750
11.616667	1	1.234500
11.633333	1	1.223750
11.650000	1	1.213125
11.666667	1	1.205125
11.683333	1	1.196750
11.700000	1	1.190500
11.716667	1	1.184000
11.733333	1	1.178000
11.750000	1	1.173000
11.766667	1	1.168875
11.783333	1	1.165125
11.800000	1	1.162500
11.816667	1	1.160250
11.833333	1	1.159125
11.850000	1	1.158375
11.866667	1	1.158500
11.883333	1	1.159375
11.900000	1	1.160750
11.916667	1	1.162125
11.933333	1	1.163375
11.950000	1	1.163750
11.966667	1	1.163750
11.983333	1	1.163750
12.000000	1	1.162375
12.016667	1	1.160625
12.033333	1	1.159625
12.050000	1	1.157625
12.066667	1	1.156125
12.083333	1	1.154500
12.100000	1	1.153625
12.116667	1	1.154125
12.133333	1	1.153625
12.150000	1	1.154500
12.166667	1	1.156000
12.183333	1	1.158750
12.200000	1	1.162125
12.216667	1	1.166750
12.233333	1	1.173125
12.250000	1	1.182125
12.266667	1	1.192750
12.283333	1	1.207750
12.300000	1	1.226875
12.316667	1	1.253625
12.333333	1	1.289750
12.350000	1	1.339375
12.366667	1	1.406750
12.383333	1	1.501125
12.400000	1	1.632500
12.416667	1	1.813750
12.433333	1	2.064250
12.450000	1	2.408125
12.466667	1	2.877000
12.483333	1	3.507875
12.500000	1	4.346875
12.516667	1	5.443875
12.533333	1	6.855875
12.550000	1	8.636750
12.566667	1	10.843000
12.583333	1	13.519250
12.600000	1	16.694250
12.616667	1	20.371625
12.633333	1	24.533000
12.650000	1	29.124875
12.666667	1	34.053500
12.683333	1	39.182750
12.700000	1	44.337625
12.716667	1	49.317500
12.733333	1	53.902625
12.750000	1	57.879000
12.766667	1	61.055750
12.783333	1	63.281750
12.800000	1	64.461375
12.816667	1	64.567500
12.833333	1	63.634625
12.850000	1	61.760875
12.866667	1	59.095625
12.883333	1	55.826375
12.900000	1	52.160625
12.916667	1	48.305625
12.933333	1	44.449375
12.950000	1	40.738375
12.966667	1	37.270625
12.983333	1	34.083500
13.000000	1	31.156125
13.016667	1	28.417125
13.033333	1	25.774500
13.050000	1	23.147500
13.066667	1	20.492125
13.083333	1	17.812625
13.100000	1	15.164125
13.116667	1	12.644250
13.133333	1	10.367000
13.150000	1	8.419500
13.166667	1	6.830625
13.183333	1	5.576375
13.200000	1	4.607250
13.216667	1	3.863125
13.233333	1	3.292625
13.250000	1	2.854250
13.266667	1	2.516125
13.283333	1	2.252250
13.300000	1	2.044500
13.316667	1	1.878750
13.333333	1	1.744625
13.350000	1	1.634000
13.366667	1	1.541625
13.383333	1	1.463625
13.400000	1	1.396250
13.416667	1	1.338750
13.433333	1	1.288750
13.450000	1	1.245625
13.466667	1	1.207250
13.483333	1	1.173750
13.500000	1	1.144625
13.516667	1	1.118875
13.533333	1	1.097125
13.550000	1	1.078875
13.566667	1	1.064000
13.583333	1	1.051625
13.600000	1	1.042125
13.616667	1	1.035500
13.633333	1	1.030500
13.650000	1	1.027500
13.666667	1	1.025750
13.683333	1	1.024875
13.700000	1	1.024750
13.716667	1	1.024625
13.733333	1	1.024250
13.750000	1	1.022625
13.766667	1	1.020125
13.783333	1	1.015875
13.800000	1	1.010000
13.816667	1	1.001500
13.833333	1	0.990625
13.850000	1	0.978250
13.866667	1	0.964000
13.883333	1	0.948500
13.900000	1	0.931875
13.916667	1	0.914875
13.933333	1	0.898000
13.950000	1	0.881250
13.966667	1	0.865250
13.983333	1	0.849875
14.000000	1	0.835125
14.016667	1	0.820625
14.033333	1	0.808000
14.050000	1	0.795750
14.066667	1	0.783750
14.083333	1	0.773000
14.100000	1	0.762500
14.116667	1	0.753000
14.133333	1	0.743125
14.150000	1	0.734125
14.166667	1	0.725000
14.183333	1	0.716875
14.200000	1	0.709250
14.216667	1	0.701625
14.233333	1	0.694625
14.250000	1	0.688500
14.266667	1	0.682875
14.283333	1	0.677250
14.300000	1	0.672750
14.316667	1	0.668875
14.333333	1	0.666500
14.350000	1	0.664250
14.366667	1	0.662625
14.383333	1	0.662000
14.400000	1	0.663625
14.416667	1	0.666000
14.433333	1	0.669500
14.450000	1	0.674250
14.466667	1	0.680250
14.483333	1	0.685625
14.500000	1	0.692875
14.516667	1	0.699125
14.533333	1	0.706625
14.550000	1	0.713625
14.566667	1	0.720875
14.583333	1	0.728750
14.600000	1	0.736625
14.616667	1	0.744875
14.633333	1	0.754500
14.650000	1	0.765625
14.666667	1	0.779625
14.683333	1	0.796875
14.700000	1	0.818000
14.716667	1	0.843500
14.733333	1	0.873500
14.750000	1	0.909000
14.766667	1	0.949250
14.783333	1	0.993875
14.800000	1	1.041625
14.816667	1	1.092000
14.833333	1	1.143000
14.850000	1	1.191750
14.866667	1	1.236625
14.883333	1	1.275875
14.900000	1	1.306250
14.916667	1	1.326875
14.933333	1	1.335125
14.950000	1	1.331000
14.966667	1	1.314500
14.983333	1	1.287250
15.000000	1	1.249500
15.016667	1	1.202125
15.033333	1	1.148625
15.050000	1	1.091625
15.066667	1	1.031750
15.083333	1	0.972500
15.100000	1	0.915375
15.116667	1	0.862500
15.133333	1	0.814250
15.150000	1	0.770500
15.166667	1	0.733625
15.183333	1	0.701625
15.200000	1	0.676125
15.216667	1	0.655750
15.233333	1	0.640500
15.250000	1	0.629875
15.266667	1	0.623375
15.283333	1	0.621375
15.300000	1	0.623625
15.316667	1	0.629750
15.333333	1	0.639875
15.350000	1	0.654000
15.366667	1	0.673000
15.383333	1	0.695250
15.400000	1	0.722750
15.416667	1	0.754625
15.433333	1	0.790125
15.450000	1	0.829250
15.466667	1	0.870500
15.483333	1	0.913500
15.500000	1	0.956250
15.516667	1	0.998000
15.533333	1	1.036625
15.550000	1	1.069875
15.566667	1	1.097375
15.583333	1	1.117375
15.600000	1	1.129000
15.616667	1	1.131000
15.633333	1	1.125000
15.650000	1	1.110125
15.666667	1	1.087250
15.683333	1	1.058625
15.700000	1	1.024375
15.716667	1	0.987875
15.733333	1	0.949625
15.750000	1	0.911375
15.766667	1	0.874250
15.783333	1	0.839875
15.800000	1	0.807750
15.816667	1	0.778125
15.833333	1	0.750750
15.850000	1	0.726750
15.866667	1	0.705375
15.883333	1	0.685250
15.900000	1	0.667375
15.916667	1	0.651125
15.933333	1	0.637125
15.950000	1	0.625000
15.966667	1	0.614250
15.983333	1	0.604750
16.000000	1	0.596625
16.016667	1	0.590500
16.033333	1	0.585625
16.050000	1	0.583250
16.066667	1	0.581875
16.083333	1	0.581875
16.100000	1	0.583500
16.116667	1	0.586500
16.133333	1	0.590875
16.150000	1	0.595500
16.166667	1	0.601000
16.183333	1	0.607625
16.200000	1	0.613875
16.216667	1	0.620250
16.233333	1	0.626625
16.250000	1	0.632625
16.266667	1	0.638125
16.283333	1	0.643375
16.300000	1	0.646875
16.316667	1	0.650625
16.333333	1	0.654000
16.350000	1	0.656125
16.366667	1	0.657625
16.383333	1	0.659625
16.400000	1	0.661000
16.416667	1	0.662375
16.433333	1	0.663750
16.450000	1	0.665750
16.466667	1	0.668500
16.483333	1	0.672000
16.500000	1	0.676500
16.516667	1	0.682500
16.533333	1	0.690250
16.550000	1	0.699000
16.566667	1	0.708750
16.583333	1	0.719250
16.600000	1	0.731375
16.616667	1	0.743500
16.633333	1	0.756250
16.650000	1	0.768625
16.666667	1	0.780625
16.683333	1	0.791500
16.700000	1	0.801875
16.716667	1	0.810625
16.733333	1	0.819500
16.750000	1	0.827625
16.766667	1	0.834250
16.783333	1	0.840625
16.800000	1	0.847500
16.816667	1	0.854375
16.833333	1	0.860875
16.850000	1	0.868125
16.866667	1	0.875250
16.883333	1	0.881750
16.900000	1	0.889000
16.916667	1	0.895875
16.933333	1	0.901875
16.950000	1	0.908625
16.966667	1	0.913500
16.983333	1	0.917500
17.000000	1	0.920750
17.016667	1	0.922625
17.033333	1	0.923000
17.050000	1	0.922500
17.066667	1	0.921125
17.083333	1	0.919125
17.100000	1	0.916750
17.116667	1	0.914250
17.133333	1	0.911875
17.150000	1	0.909625
17.166667	1	0.908000
17.183333	1	0.906500
17.200000	1	0.906250
17.216667	1	0.907125
17.233333	1	0.908375
17.250000	1	0.910125
17.266667	1	0.912250
17.283333	1	0.915500
17.300000	1	0.919375
17.316667	1	0.924000
17.333333	1	0.928375
17.350000	1	0.933250
17.366667	1	0.938500
17.383333	1	0.943750
17.400000	1	0.948875
17.416667	1	0.953875
17.433333	1	0.957500
17.450000	1	0.960875
17.466667	1	0.963375
17.483333	1	0.964000
17.500000	1	0.964000
17.516667	1	0.961875
17.533333	1	0.957875
17.550000	1	0.952625
17.566667	1	0.945625
17.583333	1	0.937375
17.600000	1	0.927250
17.616667	1	0.916125
17.633333	1	0.904125
17.650000	1	0.889875
17.666667	1	0.874750
17.683333	1	0.859625
17.700000	1	0.843750
17.716667	1	0.827875
17.733333	1	0.811750
17.750000	1	0.795250
17.766667	1	0.779875
17.783333	1	0.765375
17.800000	1	0.751250
17.816667	1	0.737625
17.833333	1	0.725250
17.850000	1	0.713625
17.866667	1	0.703500
17.883333	1	0.693875
17.900000	1	0.685125
17.916667	1	0.676625
17.933333	1	0.669500
17.950000	1	0.663250
17.966667	1	0.657375
17.983333	1	0.652625
18.000000	1	0.648000
18.016667	1	0.644750
18.033333	1	0.642000
18.050000	1	0.639250
18.066667	1	0.636250
18.083333	1	0.634000
18.100000	1	0.631625
18.116667	1	0.629375
18.133333	1	0.627750
18.150000	1	0.625125
18.166667	1	0.622750
18.183333	1	0.621375
18.200000	1	0.619750
18.216667	1	0.618125
18.233333	1	0.617250
18.250000	1	0.617500
18.266667	1	0.617500
18.283333	1	0.617625
18.300000	1	0.618750
18.316667	1	0.620375
18.333333	1	0.622250
18.350000	1	0.624500
18.366667	1	0.627375
18.383333	1	0.630625
18.400000	1	0.634000
18.416667	1	0.637750
18.433333	1	0.641875
18.450000	1	0.647125
18.466667	1	0.652375
18.483333	1	0.658625
18.500000	1	0.665750
18.516667	1	0.674625
18.533333	1	0.684375
18.550000	1	0.695875
18.566667	1	0.709125
18.583333	1	0.723250
18.600000	1	0.740125
18.616667	1	0.758750
18.633333	1	0.779875
18.650000	1	0.802375
18.666667	1	0.827125
18.683333	1	0.853625
18.700000	1	0.881750
18.716667	1	0.912000
18.733333	1	0.943750
18.750000	1	0.977750
18.766667	1	1.012375
18.783333	1	1.048000
18.800000	1	1.084250
18.816667	1	1.119875
18.833333	1	1.155750
18.850000	1	1.189500
18.866667	1	1.221875
18.883333	1	1.251625
18.900000	1	1.277875
18.916667	1	1.300125
18.933333	1	1.317250
18.950000	1	1.330750
18.966667	1	1.338000
18.983333	1	1.339000
19.000000	1	1.333500
19.016667	1	1.321250
19.033333	1	1.302250
19.050000	1	1.277250
19.066667	1	1.245875
19.083333	1	1.209250
19.100000	1	1.168000
19.116667	1	1.123000
19.133333	1	1.074875
19.150000	1	1.025750
19.166667	1	0.974750
19.183333	1	0.924625
19.200000	1	0.875375
19.216667	1	0.828000
19.233333	1	0.783625
19.250000	1	0.743000
19.266667	1	0.706375
19.283333	1	0.674125
19.300000	1	0.646875
19.316667	1	0.625500
19.333333	1	0.609375
19.350000	1	0.599125
19.366667	1	0.594500
19.383333	1	0.594875
19.400000	1	0.601500
19.416667	1	0.612875
19.433333	1	0.629500
19.450000	1	0.651250
19.466667	1	0.677625
19.483333	1	0.707375
19.500000	1	0.741000
19.516667	1	0.777625
19.533333	1	0.816375
19.550000	1	0.856000
19.566667	1	0.896250
19.583333	1	0.936750
19.600000	1	0.976125
19.616667	1	1.012750
19.633333	1	1.046250
19.650000	1	1.076125
19.666667	1	1.101125
19.683333	1	1.121000
19.700000	1	1.134500
19.716667	1	1.142375
19.733333	1	1.144500
19.750000	1	1.140250
19.766667	1	1.130625
19.783333	1	1.114625
19.800000	1	1.093875
19.816667	1	1.069375
19.833333	1	1.040875
19.850000	1	1.009250
19.866667	1	0.975125
19.883333	1	0.939625
19.900000	1	0.902875
19.916667	1	0.866500
19.933333	1	0.829875
19.950000	1	0.793875
19.966667	1	0.758625
19.983333	1	0.725000
20.000000	1	0.693625
20.016667	1	0.663875
20.033333	1	0.637125
20.050000	1	0.612750
20.066667	1	0.591250
20.083333	1	0.572750
20.100000	1	0.557500
20.116667	1	0.545125
20.133333	1	0.536625
20.150000	1	0.530625
20.166667	1	0.527625
20.183333	1	0.528125
20.200000	1	0.531375
20.216667	1	0.537625
20.233333	1	0.546000
20.250000	1	0.556625
20.266667	1	0.568625
20.283333	1	0.582625
20.300000	1	0.597000
20.316667	1	0.612000
20.333333	1	0.626250
20.350000	1	0.640250
20.366667	1	0.653500
20.383333	1	0.664500
20.400000	1	0.674000
20.416667	1	0.681875
20.433333	1	0.687750
20.450000	1	0.692625
20.466667	1	0.696250
20.483333	1	0.698750
20.500000	1	0.701125
20.516667	1	0.704125
20.533333	1	0.708875
20.550000	1	0.716000
20.566667	1	0.726000
20.583333	1	0.740000
20.600000	1	0.760125
20.616667	1	0.785500
20.633333	1	0.817750
20.650000	1	0.856875
20.666667	1	0.903875
20.683333	1	0.957875
20.700000	1	1.018875
20.716667	1	1.086125
20.733333	1	1.158375
20.750000	1	1.235250
20.766667	1	1.314375
20.783333	1	1.393750
20.800000	1	1.472125
20.816667	1	1.545875
20.833333	1	1.613375
20.850000	1	1.672000
20.866667	1	1.720000
20.883333	1	1.755250
20.900000	1	1.776500
20.916667	1	1.782875
20.933333	1	1.774500
20.950000	1	1.750125
20.966667	1	1.711750
20.983333	1	1.659250
21.000000	1	1.595125
21.016667	1	1.521500
21.033333	1	1.440875
21.050000	1	1.355375
21.066667	1	1.266500
21.083333	1	1.177250
21.100000	1	1.089625
21.116667	1	1.006000
21.133333	1	0.926250
21.150000	1	0.851250
21.166667	1	0.782750
21.183333	1	0.720250
21.200000	1	0.664000
21.216667	1	0.614500
21.233333	1	0.571000
21.250000	1	0.534125
21.266667	1	0.502500
21.283333	1	0.475875
21.300000	1	0.453125
21.316667	1	0.434750
21.333333	1	0.419500
21.350000	1	0.406875
21.366667	1	0.397500
21.383333	1	0.390250
21.400000	1	0.383875
21.416667	1	0.379875
21.433333	1	0.376625
21.450000	1	0.374625
21.466667	1	0.373375
21.483333	1	0.372500
21.500000	1	0.372000
21.516667	1	0.372875
21.533333	1	0.373875
21.550000	1	0.375000
21.566667	1	0.376375
21.583333	1	0.377875
21.600000	1	0.380375
21.616667	1	0.382375
21.633333	1	0.384875
21.650000	1	0.388125
21.666667	1	0.390875
21.683333	1	0.395000
21.700000	1	0.398625
21.716667	1	0.402875
21.733333	1	0.407125
21.750000	1	0.411625
21.766667	1	0.416500
21.783333	1	0.421500
21.800000	1	0.426250
21.816667	1	0.430625
21.833333	1	0.435250
21.850000	1	0.440750
21.866667	1	0.445875
21.883333	1	0.451625
21.900000	1	0.457250
21.916667	1	0.463250
21.933333	1	0.469000
21.950000	1	0.475500
21.966667	1	0.481000
21.983333	1	0.487750
22.000000	1	0.494125
22.016667	1	0.500875
22.033333	1	0.507500
22.050000	1	0.514250
22.066667	1	0.521125
22.083333	1	0.527875
22.100000	1	0.534875
22.116667	1	0.540125
22.133333	1	0.545375
22.150000	1	0.550250
22.166667	1	0.554875
22.183333	1	0.557625
22.200000	1	0.559625
22.216667	1	0.560000
22.233333	1	0.559375
22.250000	1	0.557375
22.266667	1	0.554000
22.283333	1	0.549250
22.300000	1	0.543625
22.316667	1	0.536500
22.333333	1	0.528375
22.350000	1	0.519250
22.366667	1	0.508500
22.383333	1	0.496875
22.400000	1	0.485875
22.416667	1	0.473750
22.433333	1	0.461625
22.450000	1	0.449000
22.466667	1	0.436375
22.483333	1	0.424375
22.500000	1	0.411875
22.516667	1	0.401000
22.533333	1	0.391125
22.550000	1	0.381375
22.566667	1	0.372125
22.583333	1	0.363500
22.600000	1	0.356000
22.616667	1	0.348750
22.633333	1	0.342625
22.650000	1	0.337000
22.666667	1	0.331500
22.683333	1	0.327125
22.700000	1	0.322875
22.716667	1	0.318875
22.733333	1	0.314750
22.750000	1	0.311750
22.766667	1	0.309250
22.783333	1	0.307125
22.800000	1	0.305125
22.816667	1	0.302500
22.833333	1	0.301000
22.850000	1	0.299000
22.866667	1	0.297750
22.883333	1	0.296625
22.900000	1	0.296125
22.916667	1	0.295250
22.933333	1	0.295500
22.950000	1	0.295750
22.966667	1	0.295500
22.983333	1	0.295750
23.000000	1	0.296375
23.016667	1	0.297625
23.033333	1	0.298000
23.050000	1	0.298750
23.066667	1	0.299750
23.083333	1	0.301500
23.100000	1	0.302625
23.116667	1	0.304625
23.133333	1	0.306375
23.150000	1	0.308750
23.166667	1	0.310750
23.183333	1	0.312000
23.200000	1	0.315000
23.216667	1	0.318125
23.233333	1	0.321875
23.250000	1	0.326125
23.266667	1	0.331875
23.283333	1	0.339500
23.300000	1	0.348375
23.316667	1	0.359625
23.333333	1	0.373625
23.350000	1	0.391000
23.366667	1	0.413250
23.383333	1	0.440500
23.400000	1	0.474125
23.416667	1	0.514875
23.433333	1	0.564000
23.450000	1	0.622250
23.466667	1	0.691625
23.483333	1	0.772500
23.500000	1	0.868250
23.516667	1	0.978750
23.533333	1	1.105250
23.550000	1	1.249750
23.566667	1	1.412000
23.583333	1	1.594125
23.600000	1	1.796000
23.616667	1	2.017375
23.633333	1	2.259250
23.650000	1	2.520250
23.666667	1	2.799750
23.683333	1	3.095375
23.700000	1	3.406000
23.716667	1	3.727875
23.733333	1	4.057625
23.750000	1	4.389500
23.766667	1	4.719500
23.783333	1	5.042000
23.800000	1	5.349375
23.816667	1	5.636625
23.833333	1	5.898500
23.850000	1	6.128250
23.866667	1	6.320750
23.883333	1	6.472875
23.900000	1	6.580125
23.916667	1	6.640000
23.933333	1	6.650375
23.950000	1	6.611625
23.966667	1	6.525250
23.983333	1	6.393625
24.000000	1	6.218875
24.016667	1	6.007500
24.033333	1	5.763625
24.050000	1	5.493250
24.066667	1	5.202000
24.083333	1	4.895250
24.100000	1	4.579125
24.116667	1	4.260125
24.133333	1	3.942250
24.150000	1	3.630500
24.166667	1	3.329000
24.183333	1	3.040250
24.200000	1	2.767500
24.216667	1	2.512000
24.233333	1	2.275875
24.250000	1	2.059000
24.266667	1	1.861500
24.283333	1	1.682500
24.300000	1	1.521500
24.316667	1	1.377375
24.333333	1	1.249125
24.350000	1	1.135250
24.366667	1	1.035875
24.383333	1	0.948250
24.400000	1	0.872000
24.416667	1	0.805875
24.433333	1	0.749125
24.450000	1	0.700625
24.466667	1	0.659125
24.483333	1	0.623125
24.500000	1	0.593000
24.516667	1	0.566375
24.533333	1	0.544125
24.550000	1	0.524750
24.566667	1	0.508000
24.583333	1	0.493000
24.600000	1	0.479625
24.616667	1	0.469125
24.633333	1	0.458750
24.650000	1	0.449375
24.666667	1	0.440875
24.683333	1	0.432625
24.700000	1	0.425000
24.716667	1	0.418125
24.733333	1	0.410750
24.750000	1	0.403750
24.766667	1	0.397250
24.783333	1	0.391250
24.800000	1	0.385250
24.816667	1	0.379250
24.833333	1	0.373625
24.850000	1	0.368000
24.866667	1	0.362625
24.883333	1	0.357750
24.900000	1	0.353250
24.916667	1	0.348875
24.933333	1	0.344750
24.950000	1	0.340875
24.966667	1	0.337250
24.983333	1	0.334000
25.000000	1	0.331000
25.016667	1	0.327750
25.033333	1	0.325750
25.050000	1	0.323500
25.066667	1	0.321750
25.083333	1	0.319375
25.100000	1	0.317625
25.116667	1	0.316750
25.133333	1	0.315375
25.150000	1	0.313375
25.166667	1	0.312000
25.183333	1	0.311125
25.200000	1	0.309750
25.216667	1	0.308875
25.233333	1	0.307625
25.250000	1	0.306500
25.266667	1	0.305875
25.283333	1	0.305250
25.300000	1	0.304625
25.316667	1	0.303500
25.333333	1	0.302875
25.350000	1	0.302750
25.366667	1	0.302875
25.383333	1	0.302250
25.400000	1	0.302250
25.416667	1	0.302750
25.433333	1	0.302250
25.450000	1	0.302000
25.466667	1	0.302500
25.483333	1	0.302625
25.500000	1	0.302500
25.516667	1	0.302750
25.533333	1	0.302625
25.550000	1	0.302625
25.566667	1	0.302500
25.583333	1	0.301375
25.600000	1	0.300875
25.616667	1	0.300250
25.633333	1	0.300125
25.650000	1	0.299000
25.666667	1	0.298125
25.683333	1	0.297000
25.700000	1	0.295750
25.716667	1	0.294750
25.733333	1	0.293500
25.750000	1	0.292250
25.766667	1	0.290500
25.783333	1	0.288625
25.800000	1	0.286750
25.816667	1	0.284875
25.833333	1	0.283250
25.850000	1	0.281875
25.866667	1	0.280250
25.883333	1	0.279125
25.900000	1	0.277750
25.916667	1	0.276875
25.933333	1	0.276250
25.950000	1	0.276250
25.966667	1	0.276625
25.983333	1	0.277625
26.000000	1	0.278250
26.016667	1	0.280125
26.033333	1	0.281125
26.050000	1	0.283125
26.066667	1	0.285750
26.083333	1	0.288625
26.100000	1	0.291250
26.116667	1	0.294250
26.133333	1	0.297250
26.150000	1	0.301375
26.166667	1	0.305000
26.183333	1	0.309250
26.200000	1	0.312875
26.216667	1	0.316500
26.233333	1	0.319625
26.250000	1	0.322875
26.266667	1	0.325375
26.283333	1	0.327750
26.300000	1	0.329250
26.316667	1	0.330000
26.333333	1	0.329875
26.350000	1	0.329125
26.366667	1	0.328375
26.383333	1	0.327375
26.400000	1	0.325125
26.416667	1	0.323125
26.433333	1	0.320000
26.450000	1	0.316375
26.466667	1	0.312500
26.483333	1	0.307250
26.500000	1	0.301875
26.516667	1	0.297250
26.533333	1	0.291750
26.550000	1	0.285250
26.566667	1	0.278625
26.583333	1	0.272250
26.600000	1	0.266125
26.616667	1	0.260250
26.633333	1	0.253750
26.650000	1	0.247750
26.666667	1	0.242375
26.683333	1	0.236500
26.700000	1	0.231375
26.716667	1	0.226750
26.733333	1	0.222000
26.750000	1	0.217125
26.766667	1	0.213500
26.783333	1	0.210375
26.800000	1	0.208125
26.816667	1	0.205875
26.833333	1	0.204125
26.850000	1	0.203125
26.866667	1	0.202500
26.883333	1	0.202625
26.900000	1	0.202875
26.916667	1	0.203875
26.933333	1	0.205625
26.950000	1	0.207750
26.966667	1	0.210000
26.983333	1	0.212750
27.000000	1	0.215750
27.016667	1	0.219250
27.033333	1	0.223125
27.050000	1	0.227375
27.066667	1	0.232250
27.083333	1	0.237375
27.100000	1	0.243375
27.116667	1	0.249375
27.133333	1	0.255250
27.150000	1	0.261500
27.166667	1	0.270125
27.183333	1	0.277500
27.200000	1	0.286125
27.216667	1	0.296000
27.233333	1	0.306750
27.250000	1	0.319000
27.266667	1	0.332250
27.283333	1	0.347125
27.300000	1	0.363625
27.316667	1	0.382625
27.333333	1	0.404125
27.350000	1	0.428875
27.366667	1	0.457000
27.383333	1	0.489000
27.400000	1	0.524875
27.416667	1	0.566000
27.433333	1	0.612375
27.450000	1	0.665000
27.466667	1	0.724250
27.483333	1	0.790500
27.500000	1	0.864000
27.516667	1	0.945750
27.533333	1	1.035250
27.550000	1	1.134625
27.566667	1	1.243125
27.583333	1	1.360250
27.600000	1	1.487125
27.616667	1	1.623125
27.633333	1	1.767375
27.650000	1	1.920375
27.666667	1	2.080125
27.683333	1	2.247000
27.700000	1	2.419375
27.716667	1	2.594000
27.733333	1	2.771250
27.750000	1	2.947875
27.766667	1	3.122500
27.783333	1	3.293250
27.800000	1	3.456250
27.816667	1	3.610125
27.833333	1	3.752875
27.850000	1	3.882125
27.866667	1	3.995875
27.883333	1	4.091250
27.900000	1	4.166500
27.916667	1	4.220500
27.933333	1	4.251375
27.950000	1	4.258375
27.966667	1	4.241875
27.983333	1	4.202500
28.000000	1	4.139875
28.016667	1	4.055375
28.033333	1	3.950250
28.050000	1	3.825750
28.066667	1	3.684875
28.083333	1	3.528375
28.100000	1	3.360750
28.116667	1	3.184375
28.133333	1	3.002000
28.150000	1	2.817000
28.166667	1	2.630125
28.183333	1	2.445125
28.200000	1	2.264000
28.216667	1	2.088750
28.233333	1	1.920000
28.250000	1	1.759875
28.266667	1	1.608875
28.283333	1	1.467750
28.300000	1	1.337750
28.316667	1	1.219125
28.333333	1	1.111000
28.350000	1	1.013875
28.366667	1	0.928125
28.383333	1	0.851500
28.400000	1	0.784625
28.416667	1	0.727125
28.433333	1	0.678000
28.450000	1	0.635625
28.466667	1	0.601000
28.483333	1	0.571875
28.500000	1	0.548625
28.516667	1	0.530750
28.533333	1	0.517000
28.550000	1	0.507500
28.566667	1	0.501250
28.583333	1	0.498375
28.600000	1	0.498125
28.616667	1	0.499500
28.633333	1	0.503000
28.650000	1	0.508000
28.666667	1	0.514375
28.683333	1	0.521250
28.700000	1	0.528375
28.716667	1	0.537375
28.733333	1	0.545375
28.750000	1	0.553375
28.766667	1	0.560625
28.783333	1	0.568125
28.800000	1	0.574875
28.816667	1	0.580500
28.833333	1	0.585000
28.850000	1	0.589000
28.866667	1	0.591125
28.883333	1	0.592500
28.900000	1	0.591750
28.916667	1	0.590250
28.933333	1	0.586500
28.950000	1	0.581000
28.966667	1	0.574500
28.983333	1	0.566125
29.000000	1	0.556250
29.016667	1	0.544750
29.033333	1	0.530125
29.050000	1	0.514375
29.066667	1	0.496750
29.083333	1	0.477375
29.100000	1	0.455625
29.116667	1	0.432125
29.133333	1	0.407375
29.150000	1	0.380000
29.166667	1	0.350875
29.183333	1	0.320125
29.200000	1	0.287500
29.216667	1	0.253500
29.233333	1	0.217500
29.250000	1	0.179875
29.266667	1	0.140250
29.283333	1	0.099000
29.300000	1	0.055750
29.316667	1	0.011375
29.333333	1	-0.034125
29.350000	1	-0.081000
29.366667	1	-0.129875
29.383333	1	-0.178625
29.400000	1	-0.228875
29.416667	1	-0.279125
29.433333	1	-0.330125
29.450000	1	-0.381000
29.466667	1	-0.432000
29.483333	1	-0.482625
29.500000	1	-0.532125
29.516667	1	-0.580000
29.533333	1	-0.627125
29.550000	1	-0.671750
29.566667	1	-0.714375
29.583333	1	-0.754875
29.600000	1	-0.792250
29.616667	1	-0.826750
29.633333	1	-0.856625
29.650000	1	-0.883500
29.666667	1	-0.906125
29.683333	1	-0.924875
29.700000	1	-0.939625
29.716667	1	-0.949750
29.733333	1	-0.954250
29.750000	1	-0.955875
29.766667	1	-0.952250
29.783333	1	-0.945000
29.800000	1	-0.933125
29.816667	1	-0.917250
29.833333	1	-0.898125
29.850000	1	-0.875000
29.866667	1	-0.849125
29.883333	1	-0.819875
29.900000	1	-0.788500
29.916667	1	-0.755875
29.933333	1	-0.721250
29.950000	1	-0.685250
29.966667	1	-0.648500
29.983333	1	-0.610750
30.000000	1	-0.573125
30.016667	1	-0.534500
30.033333	1	-0.496750
30.050000	1	-0.459875
30.066667	1	-0.424000
30.083333	1	-0.388375
30.100000	1	-0.354250
30.116667	1	-0.321000
30.133333	1	-0.289750
30.150000	1	-0.259750
30.166667	1	-0.231625
30.183333	1	-0.204500
30.200000	1	-0.179250
30.216667	1	-0.155875
30.233333	1	-0.133375
30.250000	1	-0.112000
30.266667	1	-0.092375
30.283333	1	-0.074250
30.300000	1	-0.057625
30.316667	1	-0.041375
30.333333	1	-0.026500
30.350000	1	-0.012375
30.366667	1	0.000125
30.383333	1	0.012500
30.400000	1	0.024500
30.416667	1	0.035375
30.433333	1	0.046000
30.450000	1	0.056750
30.466667	1	0.066625
30.483333	1	0.076250
30.500000	1	0.086125
30.516667	1	0.095875
30.533333	1	0.106875
30.550000	1	0.116500
30.566667	1	0.126875
30.583333	1	0.137875
30.600000	1	0.148500
30.616667	1	0.160750
30.633333	1	0.173250
30.650000	1	0.186500
30.666667	1	0.199625
30.683333	1	0.215000
30.700000	1	0.230500
30.716667	1	0.247375
30.733333	1	0.265375
30.750000	1	0.285500
30.766667	1	0.307375
30.783333	1	0.331750
30.800000	1	0.358750
30.816667	1	0.388875
30.833333	1	0.421375
30.850000	1	0.458750
30.866667	1	0.499375
30.883333	1	0.544500
30.900000	1	0.595250
30.916667	1	0.651500
30.933333	1	0.712250
30.950000	1	0.780375
30.966667	1	0.855375
30.983333	1	0.938125
31.000000	1	1.029250
31.016667	1	1.128875
31.033333	1	1.237375
31.050000	1	1.354125
31.066667	1	1.481125
31.083333	1	1.616875
31.100000	1	1.762125
31.116667	1	1.916375
31.133333	1	2.079250
31.150000	1	2.249625
31.166667	1	2.427625
31.183333	1	2.612375
31.200000	1	2.802625
31.216667	1	2.997250
31.233333	1	3.193500
31.250000	1	3.390125
31.266667	1	3.585375
31.283333	1	3.777500
31.300000	1	3.964125
31.316667	1	4.143250
31.333333	1	4.312625
31.350000	1	4.469000
31.366667	1	4.612375
31.383333	1	4.740125
31.400000	1	4.850750
31.416667	1	4.942375
31.433333	1	5.013625
31.450000	1	5.063625
31.466667	1	5.091000
31.483333	1	5.096125
31.500000	1	5.078625
31.516667	1	5.038875
31.533333	1	4.978375
31.550000	1	4.896625
31.566667	1	4.795750
31.583333	1	4.676625
31.600000	1	4.540750
31.616667	1	4.390375
31.633333	1	4.227000
31.650000	1	4.052750
31.666667	1	3.870250
31.683333	1	3.682750
31.700000	1	3.489625
31.716667	1	3.295250
31.733333	1	3.100375
31.750000	1	2.907500
31.766667	1	2.716750
31.783333	1	2.529375
31.800000	1	2.348000
31.816667	1	2.172750
31.833333	1	2.005250
31.850000	1	1.845000
31.866667	1	1.694375
31.883333	1	1.551250
31.900000	1	1.417750
31.916667	1	1.293625
31.933333	1	1.178375
31.950000	1	1.071375
31.966667	1	0.972875
31.983333	1	0.882375
32.000000	1	0.799625
32.016667	1	0.724875
32.033333	1	0.656250
32.050000	1	0.594125
32.066667	1	0.538000
32.083333	1	0.488250
32.100000	1	0.442250
32.116667	1	0.401500
32.133333	1	0.365500
32.150000	1	0.333375
32.166667	1	0.304500
32.183333	1	0.278625
32.200000	1	0.255625
32.216667	1	0.235000
32.233333	1	0.216625
32.250000	1	0.199000
32.266667	1	0.183875
32.283333	1	0.170750
32.300000	1	0.158500
32.316667	1	0.147625
32.333333	1	0.137500
32.350000	1	0.128000
32.366667	1	0.119375
32.383333	1	0.111000
32.400000	1	0.103375
32.416667	1	0.096000
32.433333	1	0.089375
32.450000	1	0.083375
32.466667	1	0.077875
32.483333	1	0.071625
32.500000	1	0.066500
32.516667	1	0.061375
32.533333	1	0.056625
32.550000	1	0.052000
32.566667	1	0.047625
32.583333	1	0.043125
32.600000	1	0.039250
32.616667	1	0.034750
32.633333	1	0.031500
32.650000	1	0.027625
32.666667	1	0.024625
32.683333	1	0.021250
32.700000	1	0.018125
32.716667	1	0.015250
32.733333	1	0.012625
32.750000	1	0.011000
32.766667	1	0.008000
32.783333	1	0.005625
32.800000	1	0.003500
32.816667	1	0.001375
32.833333	1	-0.000125
32.850000	1	-0.001625
32.866667	1	-0.003375
32.883333	1	-0.004250
32.900000	1	-0.005625
32.916667	1	-0.006500
32.933333	1	-0.007125
32.950000	1	-0.007750
32.966667	1	-0.007500
32.983333	1	-0.007250
33.000000	1	-0.007500
33.016667	1	-0.007500
33.033333	1	-0.006750
33.050000	1	-0.005500
33.066667	1	-0.004250
33.083333	1	-0.003000
33.100000	1	-0.001750
33.116667	1	-0.000125
33.133333	1	0.001375
33.150000	1	0.004125
33.166667	1	0.005875
33.183333	1	0.008375
33.200000	1	0.010500
33.216667	1	0.013000
33.233333	1	0.016750
33.250000	1	0.019000
33.266667	1	0.022500
33.283333	1	0.026250
33.300000	1	0.029250
33.316667	1	0.032500
33.333333	1	0.035125
33.350000	1	0.038375
33.366667	1	0.042125
33.383333	1	0.045375
33.400000	1	0.048375
33.416667	1	0.051250
33.433333	1	0.054375
33.450000	1	0.057500
33.466667	1	0.060500
33.483333	1	0.063125
33.500000	1	0.066625
33.516667	1	0.069875
33.533333	1	0.072375
33.550000	1	0.074750
33.566667	1	0.077500
33.583333	1	0.080750
33.600000	1	0.083125
33.616667	1	0.086000
33.633333	1	0.089250
33.650000	1	0.092000
33.666667	1	0.095125
33.683333	1	0.098000
33.700000	1	0.100750
33.716667	1	0.104000
33.733333	1	0.106750
33.750000	1	0.110000
33.766667	1	0.113250
33.783333	1	0.116625
33.800000	1	0.119500
33.816667	1	0.121875
33.833333	1	0.125250
33.850000	1	0.127875
33.866667	1	0.130625
33.883333	1	0.133125
33.900000	1	0.135875
33.916667	1	0.138375
33.933333	1	0.140875
33.950000	1	0.143000
33.966667	1	0.145750
33.983333	1	0.148000
34.000000	1	0.150125
34.016667	1	0.151625
34.033333	1	0.152875
34.050000	1	0.155125
34.066667	1	0.156875
34.083333	1	0.158000
34.100000	1	0.159500
34.116667	1	0.160375
34.133333	1	0.161875
34.150000	1	0.162500
34.166667	1	0.163500
34.183333	1	0.164125
34.200000	1	0.165125
34.216667	1	0.166375
34.233333	1	0.167125
34.250000	1	0.167625
34.266667	1	0.168375
34.283333	1	0.169250
34.300000	1	0.170000
34.316667	1	0.170500
34.333333	1	0.171625
34.350000	1	0.172500
34.366667	1	0.173625
34.383333	1	0.174250
34.400000	1	0.174625
34.416667	1	0.175250
34.433333	1	0.176500
34.450000	1	0.177250
34.466667	1	0.178375
34.483333	1	0.179625
34.500000	1	0.180500
34.516667	1	0.181250
34.533333	1	0.182125
34.550000	1	0.183000
34.566667	1	0.184000
34.583333	1	0.184125
34.600000	1	0.184375
34.616667	1	0.184375
34.633333	1	0.184500
34.650000	1	0.185000
34.666667	1	0.184750
34.683333	1	0.184625
34.700000	1	0.184500
34.716667	1	0.184250
34.733333	1	0.183625
34.750000	1	0.182875
34.766667	1	0.182375
34.783333	1	0.181000
34.800000	1	0.180000
34.816667	1	0.178625
34.833333	1	0.177500
34.850000	1	0.175500
34.866667	1	0.173500
34.883333	1	0.171500
34.900000	1	0.169500
34.916667	1	0.168250
34.933333	1	0.166000
34.950000	1	0.164250
34.966667	1	0.162125
34.983333	1	0.160125
35.000000	1	0.158250
35.016667	1	0.155250
35.033333	1	0.153750
35.050000	1	0.152125
35.066667	1	0.149500
35.083333	1	0.147500
35.100000	1	0.145250
35.116667	1	0.143125
35.133333	1	0.142125
35.150000	1	0.140500
35.166667	1	0.139375
35.183333	1	0.138375
35.200000	1	0.137375
35.216667	1	0.135750
35.233333	1	0.134625
35.250000	1	0.134500
35.266667	1	0.133875
35.283333	1	0.133250
35.300000	1	0.133250
35.316667	1	0.133500
35.333333	1	0.133750
35.350000	1	0.134000
35.366667	1	0.134750
35.383333	1	0.135000
35.400000	1	0.135125
35.416667	1	0.136125
35.433333	1	0.136875
35.450000	1	0.137250
35.466667	1	0.138000
35.483333	1	0.139250
35.500000	1	0.140500
35.516667	1	0.141375
35.533333	1	0.142000
35.550000	1	0.143125
35.566667	1	0.144375
35.583333	1	0.144500
35.600000	1	0.145000
35.616667	1	0.145250
35.633333	1	0.146125
35.650000	1	0.147000
35.666667	1	0.146750
35.683333	1	0.147750
35.700000	1	0.148125
35.716667	1	0.147750
35.733333	1	0.147500
35.750000	1	0.146750
35.766667	1	0.146625
35.783333	1	0.145750
35.800000	1	0.144625
35.816667	1	0.142875
35.833333	1	0.141375
35.850000	1	0.139875
35.866667	1	0.138625
35.883333	1	0.137250
35.900000	1	0.135625
35.916667	1	0.134250
35.933333	1	0.132750
35.950000	1	0.130750
35.966667	1	0.128250
35.983333	1	0.125625
36.000000	1	0.124250
36.016667	1	0.122625
36.033333	1	0.120750
36.050000	1	0.119125
36.066667	1	0.117000
36.083333	1	0.115750
36.100000	1	0.113500
36.116667	1	0.112125
36.133333	1	0.111000
36.150000	1	0.109750
36.166667	1	0.108375
36.183333	1	0.107250
36.200000	1	0.105625
36.216667	1	0.105000
36.233333	1	0.104625
36.250000	1	0.103625
36.266667	1	0.103125
36.283333	1	0.103000
36.300000	1	0.102375
36.316667	1	0.101875
36.333333	1	0.101625
36.350000	1	0.101750
36.366667	1	0.101250
36.383333	1	0.100625
36.400000	1	0.099875
36.416667	1	0.099375
36.433333	1	0.098750
36.450000	1	0.097875
36.466667	1	0.097250
36.483333	1	0.096625
36.500000	1	0.095250
36.516667	1	0.093750
36.533333	1	0.092500
36.550000	1	0.091125
36.566667	1	0.089625
36.583333	1	0.088125
36.600000	1	0.086375
36.616667	1	0.084750
36.633333	1	0.082375
36.650000	1	0.079875
36.666667	1	0.078125
36.683333	1	0.076250
36.700000	1	0.074250
36.716667	1	0.071875
36.733333	1	0.069500
36.750000	1	0.066875
36.766667	1	0.064750
36.783333	1	0.062250
36.800000	1	0.060625
36.816667	1	0.058500
36.833333	1	0.056875
36.850000	1	0.055000
36.866667	1	0.054500
36.883333	1	0.053375
36.900000	1	0.052500
36.916667	1	0.051250
36.933333	1	0.050875
36.950000	1	0.050000
36.966667	1	0.049375
36.983333	1	0.049250
37.000000	1	0.048875
37.016667	1	0.049125
37.033333	1	0.049750
37.050000	1	0.049875
37.066667	1	0.049500
37.083333	1	0.050000
37.100000	1	0.049875
37.116667	1	0.049875
37.133333	1	0.049500
37.150000	1	0.049125
37.166667	1	0.049250
37.183333	1	0.048625
37.200000	1	0.047750
37.216667	1	0.046500
37.233333	1	0.045125
37.250000	1	0.043875
37.266667	1	0.042250
37.283333	1	0.040500
37.300000	1	0.038500
37.316667	1	0.037000
37.333333	1	0.034875
37.350000	1	0.032750
37.366667	1	0.030000
37.383333	1	0.027500
37.400000	1	0.025250
37.416667	1	0.022625
37.433333	1	0.019750
37.450000	1	0.018000
37.466667	1	0.015625
37.483333	1	0.012875
37.500000	1	0.010375
37.516667	1	0.008375
37.533333	1	0.006750
37.550000	1	0.004875
37.566667	1	0.002250
37.583333	1	0.000875
37.600000	1	0.000125
37.616667	1	-0.001375
37.633333	1	-0.002625
37.650000	1	-0.002625
37.666667	1	-0.002875
37.683333	1	-0.002625
37.700000	1	-0.002500
37.716667	1	-0.002000
37.733333	1	-0.001625
37.750000	1	0.000000
37.766667	1	0.001000
37.783333	1	0.002250
37.800000	1	0.003750
37.816667	1	0.004875
37.833333	1	0.006500
37.850000	1	0.008875
37.866667	1	0.011500
37.883333	1	0.013125
37.900000	1	0.015125
37.916667	1	0.017750
37.933333	1	0.020250
37.950000	1	0.022375
37.966667	1	0.024625
37.983333	1	0.026875
38.000000	1	0.029125
38.016667	1	0.030750
38.033333	1	0.033000
38.050000	1	0.035000
38.066667	1	0.036875
38.083333	1	0.038500
38.100000	1	0.040500
38.116667	1	0.042500
38.133333	1	0.043625
38.150000	1	0.045125
38.166667	1	0.046375
38.183333	1	0.048000
38.200000	1	0.049500
38.216667	1	0.050375
38.233333	1	0.052125
38.250000	1	0.053000
38.266667	1	0.053875
38.283333	1	0.054625
38.300000	1	0.055125
38.316667	1	0.056125
38.333333	1	0.056750
38.350000	1	0.057250
38.366667	1	0.057875
38.383333	1	0.058625
38.400000	1	0.059375
38.416667	1	0.059375
38.433333	1	0.059125
38.450000	1	0.058875
38.466667	1	0.058750
38.483333	1	0.059125
38.500000	1	0.059500
38.516667	1	0.059375
38.533333	1	0.059500
38.550000	1	0.060125
38.566667	1	0.060250
38.583333	1	0.060500
38.600000	1	0.060750
38.616667	1	0.061625
38.633333	1	0.062250
38.650000	1	0.062625
38.666667	1	0.063125
38.683333	1	0.063500
38.700000	1	0.063375
38.716667	1	0.063875
38.733333	1	0.064875
38.750000	1	0.065500
38.766667	1	0.065875
38.783333	1	0.065625
38.800000	1	0.065875
38.816667	1	0.065875
38.833333	1	0.066250
38.850000	1	0.066500
38.866667	1	0.067000
38.883333	1	0.067625
38.900000	1	0.067375
38.916667	1	0.066875
38.933333	1	0.067125
38.950000	1	0.067000
38.966667	1	0.066125
38.983333	1	0.065375
39.000000	1	0.064500
39.016667	1	0.064375
39.033333	1	0.064000
39.050000	1	0.062625
39.066667	1	0.061500
39.083333	1	0.060125
39.100000	1	0.058125
39.116667	1	0.056750
39.133333	1	0.054875
39.150000	1	0.053250
39.166667	1	0.051500
39.183333	1	0.049375
39.200000	1	0.047375
39.216667	1	0.045500
39.233333	1	0.044250
39.250000	1	0.043250
39.266667	1	0.041125
39.283333	1	0.038750
39.300000	1	0.036875
39.316667	1	0.035250
39.333333	1	0.033500
39.350000	1	0.031500
39.366667	1	0.029875
39.383333	1	0.027750
39.400000	1	0.025375
39.416667	1	0.023250
39.433333	1	0.022000
39.450000	1	0.020375
39.466667	1	0.019375
39.483333	1	0.017625
39.500000	1	0.016625
39.516667	1	0.015250
39.533333	1	0.014000
39.550000	1	0.013375
39.566667	1	0.012250
39.583333	1	0.011875
39.600000	1	0.010500
39.616667	1	0.010000
39.633333	1	0.009000
39.650000	1	0.008875
39.666667	1	0.009000
39.683333	1	0.008000
39.700000	1	0.008125
39.716667	1	0.008250
39.733333	1	0.008500
39.750000	1	0.008250
39.766667	1	0.007875
39.783333	1	0.007625
39.800000	1	0.007875
39.816667	1	0.008250
39.833333	1	0.008875
39.850000	1	0.009250
39.866667	1	0.009750
39.883333	1	0.009625
39.900000	1	0.010000
39.916667	1	0.010750
39.933333	1	0.010500
39.950000	1	0.010250
39.966667	1	0.010625
39.983333	1	0.010500
40.000000	1	0.009875
