URL	chrom://bioreactor/micro_cm7/HPLC_Ultimate_3000/Users/markusar/20240727_MA_EsirYCA.seq/217.smp/RI_1.channel/RI_1.chm
Channel	RI_1

Injection Information:
Data Vault	micro_cm7
Sequence	20240727_MA_EsirYCA
Name	Es3_1
Number	10
Position	BA10
Comment	
Processing Method	
Instrument Method	run_25B_method
Type	Unknown
Status	Finished
Inject Time	29.07.2024 19:46:24 +02:00
Volume (µl)	20.0000
Dilution Factor	1.0000
Weight	1.0000

Chromatogram Data Information:
Time Min. (min)	0.000000
Time Max. (min)	40.000000
Data Points	2401
Detector	RI
Generating Data System	Chromeleon 7.3.2.11814
Exporting Data System	Chromeleon 7.3.2.0
Operator	Instrument Controller
Signal Quantity	Refractive 
Signal Unit	µRIU
Signal Min.	-1.160125
Signal Max.	72.612000
Channel	RI_1
Driver Name	RID520Driver.dll
Channel Type	Evaluation
Min. Step (s)	1
Max. Step (s)	1
Average Step (s)	1

Signal Parameter Information:
Signal Info	

Chromatogram Data:
Time (min)	Step (s)	Value (µRIU)
0.000000	n.a.	0.028750
0.016667	1	0.027250
0.033333	1	0.025750
0.050000	1	0.024000
0.066667	1	0.022125
0.083333	1	0.020625
0.100000	1	0.018625
0.116667	1	0.017125
0.133333	1	0.015875
0.150000	1	0.013750
0.166667	1	0.011875
0.183333	1	0.010250
0.200000	1	0.009000
0.216667	1	0.007750
0.233333	1	0.006875
0.250000	1	0.006000
0.266667	1	0.005125
0.283333	1	0.003875
0.300000	1	0.003750
0.316667	1	0.003250
0.333333	1	0.002500
0.350000	1	0.002000
0.366667	1	0.000875
0.383333	1	0.000000
0.400000	1	-0.001250
0.416667	1	-0.001750
0.433333	1	-0.000875
0.450000	1	0.000875
0.466667	1	0.002875
0.483333	1	0.004250
0.500000	1	0.005125
0.516667	1	0.006250
0.533333	1	0.006500
0.550000	1	0.004625
0.566667	1	0.002750
0.583333	1	0.000125
0.600000	1	-0.003375
0.616667	1	-0.006625
0.633333	1	-0.010000
0.650000	1	-0.012250
0.666667	1	-0.014625
0.683333	1	-0.016125
0.700000	1	-0.018000
0.716667	1	-0.019875
0.733333	1	-0.022000
0.750000	1	-0.023625
0.766667	1	-0.025625
0.783333	1	-0.027500
0.800000	1	-0.029125
0.816667	1	-0.030875
0.833333	1	-0.032125
0.850000	1	-0.033750
0.866667	1	-0.035500
0.883333	1	-0.036875
0.900000	1	-0.038000
0.916667	1	-0.040000
0.933333	1	-0.041375
0.950000	1	-0.042250
0.966667	1	-0.043250
0.983333	1	-0.044875
1.000000	1	-0.045125
1.016667	1	-0.045500
1.033333	1	-0.045625
1.050000	1	-0.045750
1.066667	1	-0.046000
1.083333	1	-0.045750
1.100000	1	-0.045375
1.116667	1	-0.045000
1.133333	1	-0.044000
1.150000	1	-0.043125
1.166667	1	-0.042125
1.183333	1	-0.041125
1.200000	1	-0.039250
1.216667	1	-0.037875
1.233333	1	-0.035875
1.250000	1	-0.034375
1.266667	1	-0.032750
1.283333	1	-0.029750
1.300000	1	-0.028000
1.316667	1	-0.025750
1.333333	1	-0.023750
1.350000	1	-0.021125
1.366667	1	-0.018625
1.383333	1	-0.015625
1.400000	1	-0.013250
1.416667	1	-0.010625
1.433333	1	-0.007375
1.450000	1	-0.004750
1.466667	1	-0.001625
1.483333	1	0.000875
1.500000	1	0.003125
1.516667	1	0.005625
1.533333	1	0.008000
1.550000	1	0.010500
1.566667	1	0.012250
1.583333	1	0.014250
1.600000	1	0.016500
1.616667	1	0.018250
1.633333	1	0.020375
1.650000	1	0.022125
1.666667	1	0.023750
1.683333	1	0.025125
1.700000	1	0.026375
1.716667	1	0.027000
1.733333	1	0.028000
1.750000	1	0.028875
1.766667	1	0.029375
1.783333	1	0.029875
1.800000	1	0.030500
1.816667	1	0.030750
1.833333	1	0.031125
1.850000	1	0.031500
1.866667	1	0.031250
1.883333	1	0.031750
1.900000	1	0.032000
1.916667	1	0.031500
1.933333	1	0.031250
1.950000	1	0.030500
1.966667	1	0.029750
1.983333	1	0.028250
2.000000	1	0.027750
2.016667	1	0.027000
2.033333	1	0.026250
2.050000	1	0.025250
2.066667	1	0.024000
2.083333	1	0.023125
2.100000	1	0.021250
2.116667	1	0.019625
2.133333	1	0.018125
2.150000	1	0.017000
2.166667	1	0.015250
2.183333	1	0.013750
2.200000	1	0.012000
2.216667	1	0.009750
2.233333	1	0.007125
2.250000	1	0.005125
2.266667	1	0.003250
2.283333	1	0.001500
2.300000	1	-0.000750
2.316667	1	-0.002750
2.333333	1	-0.005500
2.350000	1	-0.008000
2.366667	1	-0.009500
2.383333	1	-0.011250
2.400000	1	-0.013000
2.416667	1	-0.014375
2.433333	1	-0.016125
2.450000	1	-0.017625
2.466667	1	-0.018625
2.483333	1	-0.019750
2.500000	1	-0.020375
2.516667	1	-0.021000
2.533333	1	-0.021625
2.550000	1	-0.022375
2.566667	1	-0.022875
2.583333	1	-0.022875
2.600000	1	-0.022250
2.616667	1	-0.022250
2.633333	1	-0.022250
2.650000	1	-0.021500
2.666667	1	-0.020750
2.683333	1	-0.019250
2.700000	1	-0.018875
2.716667	1	-0.017625
2.733333	1	-0.016500
2.750000	1	-0.015375
2.766667	1	-0.014250
2.783333	1	-0.013000
2.800000	1	-0.011625
2.816667	1	-0.009500
2.833333	1	-0.008250
2.850000	1	-0.006750
2.866667	1	-0.005625
2.883333	1	-0.004500
2.900000	1	-0.003250
2.916667	1	-0.002125
2.933333	1	-0.001000
2.950000	1	-0.000250
2.966667	1	0.001125
2.983333	1	0.002000
3.000000	1	0.003500
3.016667	1	0.005375
3.033333	1	0.006750
3.050000	1	0.008000
3.066667	1	0.009000
3.083333	1	0.010875
3.100000	1	0.012750
3.116667	1	0.014500
3.133333	1	0.016500
3.150000	1	0.017875
3.166667	1	0.019875
3.183333	1	0.021625
3.200000	1	0.023250
3.216667	1	0.025125
3.233333	1	0.026625
3.250000	1	0.029250
3.266667	1	0.032500
3.283333	1	0.034750
3.300000	1	0.037125
3.316667	1	0.039375
3.333333	1	0.041500
3.350000	1	0.043625
3.366667	1	0.046000
3.383333	1	0.048375
3.400000	1	0.051500
3.416667	1	0.054500
3.433333	1	0.056750
3.450000	1	0.058625
3.466667	1	0.060500
3.483333	1	0.062500
3.500000	1	0.064500
3.516667	1	0.066625
3.533333	1	0.068125
3.550000	1	0.069875
3.566667	1	0.071750
3.583333	1	0.072500
3.600000	1	0.073750
3.616667	1	0.075000
3.633333	1	0.075500
3.650000	1	0.076250
3.666667	1	0.077250
3.683333	1	0.077250
3.700000	1	0.077375
3.716667	1	0.077750
3.733333	1	0.078375
3.750000	1	0.078125
3.766667	1	0.077875
3.783333	1	0.076875
3.800000	1	0.076750
3.816667	1	0.076125
3.833333	1	0.075125
3.850000	1	0.074125
3.866667	1	0.073500
3.883333	1	0.072875
3.900000	1	0.072625
3.916667	1	0.071875
3.933333	1	0.069875
3.950000	1	0.068875
3.966667	1	0.068250
3.983333	1	0.067125
4.000000	1	0.066500
4.016667	1	0.065375
4.033333	1	0.064375
4.050000	1	0.063000
4.066667	1	0.063125
4.083333	1	0.063000
4.100000	1	0.062625
4.116667	1	0.062000
4.133333	1	0.061750
4.150000	1	0.061500
4.166667	1	0.061000
4.183333	1	0.062250
4.200000	1	0.062750
4.216667	1	0.063000
4.233333	1	0.063625
4.250000	1	0.064500
4.266667	1	0.065500
4.283333	1	0.066375
4.300000	1	0.067000
4.316667	1	0.068625
4.333333	1	0.070750
4.350000	1	0.072375
4.366667	1	0.074250
4.383333	1	0.076875
4.400000	1	0.079000
4.416667	1	0.081375
4.433333	1	0.083750
4.450000	1	0.086375
4.466667	1	0.089250
4.483333	1	0.092375
4.500000	1	0.094875
4.516667	1	0.098500
4.533333	1	0.102125
4.550000	1	0.105625
4.566667	1	0.109750
4.583333	1	0.112625
4.600000	1	0.117125
4.616667	1	0.121375
4.633333	1	0.126000
4.650000	1	0.131000
4.666667	1	0.135000
4.683333	1	0.140250
4.700000	1	0.145125
4.716667	1	0.149500
4.733333	1	0.154500
4.750000	1	0.159250
4.766667	1	0.164375
4.783333	1	0.168500
4.800000	1	0.173000
4.816667	1	0.177750
4.833333	1	0.183375
4.850000	1	0.187875
4.866667	1	0.191625
4.883333	1	0.196000
4.900000	1	0.199625
4.916667	1	0.203625
4.933333	1	0.207375
4.950000	1	0.211000
4.966667	1	0.214000
4.983333	1	0.217125
5.000000	1	0.220375
5.016667	1	0.222500
5.033333	1	0.225000
5.050000	1	0.227000
5.066667	1	0.229000
5.083333	1	0.230125
5.100000	1	0.231125
5.116667	1	0.231750
5.133333	1	0.233125
5.150000	1	0.233375
5.166667	1	0.234250
5.183333	1	0.234750
5.200000	1	0.234500
5.216667	1	0.234625
5.233333	1	0.233875
5.250000	1	0.233125
5.266667	1	0.232750
5.283333	1	0.231250
5.300000	1	0.230125
5.316667	1	0.228500
5.333333	1	0.226375
5.350000	1	0.224250
5.366667	1	0.221625
5.383333	1	0.219250
5.400000	1	0.215375
5.416667	1	0.211750
5.433333	1	0.208250
5.450000	1	0.204625
5.466667	1	0.200875
5.483333	1	0.197250
5.500000	1	0.192875
5.516667	1	0.188375
5.533333	1	0.184125
5.550000	1	0.179375
5.566667	1	0.174750
5.583333	1	0.170375
5.600000	1	0.164625
5.616667	1	0.159875
5.633333	1	0.154375
5.650000	1	0.148750
5.666667	1	0.143250
5.683333	1	0.137125
5.700000	1	0.131500
5.716667	1	0.125125
5.733333	1	0.119875
5.750000	1	0.114375
5.766667	1	0.109375
5.783333	1	0.103500
5.800000	1	0.097625
5.816667	1	0.092125
5.833333	1	0.086625
5.850000	1	0.081250
5.866667	1	0.076250
5.883333	1	0.071375
5.900000	1	0.066625
5.916667	1	0.062375
5.933333	1	0.058125
5.950000	1	0.053625
5.966667	1	0.049250
5.983333	1	0.045250
6.000000	1	0.041625
6.016667	1	0.038375
6.033333	1	0.035000
6.050000	1	0.031250
6.066667	1	0.028250
6.083333	1	0.023875
6.100000	1	0.021000
6.116667	1	0.017875
6.133333	1	0.015750
6.150000	1	0.013500
6.166667	1	0.010875
6.183333	1	0.008375
6.200000	1	0.007000
6.216667	1	0.005375
6.233333	1	0.003125
6.250000	1	0.001625
6.266667	1	0.000250
6.283333	1	-0.000750
6.300000	1	-0.002125
6.316667	1	-0.003250
6.333333	1	-0.003250
6.350000	1	-0.003750
6.366667	1	-0.004125
6.383333	1	-0.004125
6.400000	1	-0.003875
6.416667	1	-0.002625
6.433333	1	-0.002000
6.450000	1	-0.001250
6.466667	1	0.000000
6.483333	1	0.001375
6.500000	1	0.002875
6.516667	1	0.005375
6.533333	1	0.007500
6.550000	1	0.009875
6.566667	1	0.011375
6.583333	1	0.014375
6.600000	1	0.017500
6.616667	1	0.019500
6.633333	1	0.021750
6.650000	1	0.024125
6.666667	1	0.027125
6.683333	1	0.029875
6.700000	1	0.032750
6.716667	1	0.036375
6.733333	1	0.039875
6.750000	1	0.043125
6.766667	1	0.046250
6.783333	1	0.049750
6.800000	1	0.053500
6.816667	1	0.057250
6.833333	1	0.061375
6.850000	1	0.064750
6.866667	1	0.068875
6.883333	1	0.072375
6.900000	1	0.075875
6.916667	1	0.080000
6.933333	1	0.083500
6.950000	1	0.087750
6.966667	1	0.091125
6.983333	1	0.095625
7.000000	1	0.099500
7.016667	1	0.104250
7.033333	1	0.108375
7.050000	1	0.111625
7.066667	1	0.115000
7.083333	1	0.118000
7.100000	1	0.121000
7.116667	1	0.123750
7.133333	1	0.126375
7.150000	1	0.128375
7.166667	1	0.129625
7.183333	1	0.131125
7.200000	1	0.132625
7.216667	1	0.133625
7.233333	1	0.134250
7.250000	1	0.134875
7.266667	1	0.134125
7.283333	1	0.133000
7.300000	1	0.131625
7.316667	1	0.129875
7.333333	1	0.128000
7.350000	1	0.125000
7.366667	1	0.122000
7.383333	1	0.118875
7.400000	1	0.115250
7.416667	1	0.111375
7.433333	1	0.107375
7.450000	1	0.103250
7.466667	1	0.098750
7.483333	1	0.093875
7.500000	1	0.088875
7.516667	1	0.083875
7.533333	1	0.078875
7.550000	1	0.073250
7.566667	1	0.068125
7.583333	1	0.063000
7.600000	1	0.057375
7.616667	1	0.052375
7.633333	1	0.047000
7.650000	1	0.041875
7.666667	1	0.036750
7.683333	1	0.031750
7.700000	1	0.026500
7.716667	1	0.021375
7.733333	1	0.017000
7.750000	1	0.013125
7.766667	1	0.009000
7.783333	1	0.005500
7.800000	1	0.001750
7.816667	1	-0.001875
7.833333	1	-0.004875
7.850000	1	-0.008375
7.866667	1	-0.010875
7.883333	1	-0.013125
7.900000	1	-0.015750
7.916667	1	-0.017875
7.933333	1	-0.019875
7.950000	1	-0.021875
7.966667	1	-0.023500
7.983333	1	-0.024625
8.000000	1	-0.025625
8.016667	1	-0.026750
8.033333	1	-0.028375
8.050000	1	-0.029375
8.066667	1	-0.030250
8.083333	1	-0.031125
8.100000	1	-0.031500
8.116667	1	-0.031875
8.133333	1	-0.031750
8.150000	1	-0.032500
8.166667	1	-0.032500
8.183333	1	-0.033000
8.200000	1	-0.033375
8.216667	1	-0.032750
8.233333	1	-0.032125
8.250000	1	-0.031375
8.266667	1	-0.030500
8.283333	1	-0.029875
8.300000	1	-0.029375
8.316667	1	-0.027625
8.333333	1	-0.026125
8.350000	1	-0.025000
8.366667	1	-0.023000
8.383333	1	-0.021625
8.400000	1	-0.019750
8.416667	1	-0.017375
8.433333	1	-0.015125
8.450000	1	-0.012875
8.466667	1	-0.010625
8.483333	1	-0.007750
8.500000	1	-0.004750
8.516667	1	-0.001875
8.533333	1	0.000500
8.550000	1	0.003500
8.566667	1	0.006375
8.583333	1	0.009500
8.600000	1	0.012750
8.616667	1	0.015000
8.633333	1	0.017625
8.650000	1	0.020500
8.666667	1	0.022875
8.683333	1	0.025750
8.700000	1	0.028000
8.716667	1	0.030125
8.733333	1	0.031750
8.750000	1	0.033250
8.766667	1	0.034625
8.783333	1	0.035875
8.800000	1	0.037625
8.816667	1	0.038375
8.833333	1	0.039000
8.850000	1	0.039875
8.866667	1	0.039875
8.883333	1	0.039875
8.900000	1	0.039250
8.916667	1	0.038000
8.933333	1	0.037125
8.950000	1	0.036125
8.966667	1	0.034125
8.983333	1	0.031750
9.000000	1	0.029625
9.016667	1	0.026875
9.033333	1	0.024375
9.050000	1	0.021125
9.066667	1	0.017500
9.083333	1	0.013500
9.100000	1	0.010000
9.116667	1	0.006375
9.133333	1	0.002875
9.150000	1	-0.000250
9.166667	1	-0.003750
9.183333	1	-0.007500
9.200000	1	-0.011000
9.216667	1	-0.014625
9.233333	1	-0.018500
9.250000	1	-0.021500
9.266667	1	-0.024750
9.283333	1	-0.027250
9.300000	1	-0.029500
9.316667	1	-0.032125
9.333333	1	-0.034000
9.350000	1	-0.035875
9.366667	1	-0.037500
9.383333	1	-0.038125
9.400000	1	-0.039750
9.416667	1	-0.040750
9.433333	1	-0.041250
9.450000	1	-0.041750
9.466667	1	-0.041875
9.483333	1	-0.042750
9.500000	1	-0.042375
9.516667	1	-0.041625
9.533333	1	-0.041500
9.550000	1	-0.040875
9.566667	1	-0.040375
9.583333	1	-0.039125
9.600000	1	-0.038625
9.616667	1	-0.038250
9.633333	1	-0.037375
9.650000	1	-0.036875
9.666667	1	-0.036000
9.683333	1	-0.035125
9.700000	1	-0.034125
9.716667	1	-0.033000
9.733333	1	-0.032375
9.750000	1	-0.031500
9.766667	1	-0.030875
9.783333	1	-0.030750
9.800000	1	-0.030000
9.816667	1	-0.029750
9.833333	1	-0.029375
9.850000	1	-0.029125
9.866667	1	-0.028875
9.883333	1	-0.028125
9.900000	1	-0.028250
9.916667	1	-0.027375
9.933333	1	-0.027750
9.950000	1	-0.026750
9.966667	1	-0.026500
9.983333	1	-0.025750
10.000000	1	-0.025125
10.016667	1	-0.024375
10.033333	1	-0.023000
10.050000	1	-0.022000
10.066667	1	-0.020500
10.083333	1	-0.018375
10.100000	1	-0.015875
10.116667	1	-0.012250
10.133333	1	-0.008125
10.150000	1	-0.003875
10.166667	1	0.001625
10.183333	1	0.007750
10.200000	1	0.015500
10.216667	1	0.023750
10.233333	1	0.033500
10.250000	1	0.044750
10.266667	1	0.058750
10.283333	1	0.073250
10.300000	1	0.090500
10.316667	1	0.110750
10.333333	1	0.132500
10.350000	1	0.156500
10.366667	1	0.182625
10.383333	1	0.209500
10.400000	1	0.235250
10.416667	1	0.258375
10.433333	1	0.276875
10.450000	1	0.290125
10.466667	1	0.299625
10.483333	1	0.313125
10.500000	1	0.344375
10.516667	1	0.416875
10.533333	1	0.564250
10.550000	1	0.827500
10.566667	1	1.250375
10.583333	1	1.878375
10.600000	1	2.750250
10.616667	1	3.900875
10.633333	1	5.353000
10.650000	1	7.117625
10.666667	1	9.199250
10.683333	1	11.594375
10.700000	1	14.286500
10.716667	1	17.250750
10.733333	1	20.451500
10.750000	1	23.843125
10.766667	1	27.369625
10.783333	1	30.960750
10.800000	1	34.527125
10.816667	1	37.952250
10.833333	1	41.081750
10.850000	1	43.715000
10.866667	1	45.617000
10.883333	1	46.534375
10.900000	1	46.255375
10.916667	1	44.675625
10.933333	1	41.861625
10.950000	1	38.056250
10.966667	1	33.634125
10.983333	1	29.001625
11.000000	1	24.509875
11.016667	1	20.405125
11.033333	1	16.821250
11.050000	1	13.794000
11.066667	1	11.301750
11.083333	1	9.289125
11.100000	1	7.688000
11.116667	1	6.428500
11.133333	1	5.444875
11.150000	1	4.680250
11.166667	1	4.083875
11.183333	1	3.617375
11.200000	1	3.249375
11.216667	1	2.955125
11.233333	1	2.717375
11.250000	1	2.522750
11.266667	1	2.359625
11.283333	1	2.222500
11.300000	1	2.104250
11.316667	1	2.000375
11.333333	1	1.908250
11.350000	1	1.825375
11.366667	1	1.751250
11.383333	1	1.684500
11.400000	1	1.623625
11.416667	1	1.568625
11.433333	1	1.519625
11.450000	1	1.475750
11.466667	1	1.436750
11.483333	1	1.401750
11.500000	1	1.370375
11.516667	1	1.342875
11.533333	1	1.318750
11.550000	1	1.297250
11.566667	1	1.278000
11.583333	1	1.261875
11.600000	1	1.246625
11.616667	1	1.233250
11.633333	1	1.221750
11.650000	1	1.211375
11.666667	1	1.201750
11.683333	1	1.194000
11.700000	1	1.187125
11.716667	1	1.180750
11.733333	1	1.175375
11.750000	1	1.170125
11.766667	1	1.165500
11.783333	1	1.161625
11.800000	1	1.158125
11.816667	1	1.155875
11.833333	1	1.153500
11.850000	1	1.152000
11.866667	1	1.150250
11.883333	1	1.149500
11.900000	1	1.148750
11.916667	1	1.147000
11.933333	1	1.145500
11.950000	1	1.144000
11.966667	1	1.141500
11.983333	1	1.138750
12.000000	1	1.136000
12.016667	1	1.132375
12.033333	1	1.129375
12.050000	1	1.126000
12.066667	1	1.122625
12.083333	1	1.119000
12.100000	1	1.115500
12.116667	1	1.113875
12.133333	1	1.112250
12.150000	1	1.112125
12.166667	1	1.113000
12.183333	1	1.113625
12.200000	1	1.115000
12.216667	1	1.118250
12.233333	1	1.123375
12.250000	1	1.130125
12.266667	1	1.140125
12.283333	1	1.152625
12.300000	1	1.171000
12.316667	1	1.196375
12.333333	1	1.231375
12.350000	1	1.278750
12.366667	1	1.345750
12.383333	1	1.438750
12.400000	1	1.568750
12.416667	1	1.749125
12.433333	1	1.998000
12.450000	1	2.341250
12.466667	1	2.811250
12.483333	1	3.446875
12.500000	1	4.297125
12.516667	1	5.417000
12.533333	1	6.866875
12.550000	1	8.711625
12.566667	1	11.015250
12.583333	1	13.834625
12.600000	1	17.210625
12.616667	1	21.156125
12.633333	1	25.660875
12.650000	1	30.680500
12.666667	1	36.126000
12.683333	1	41.860625
12.700000	1	47.700625
12.716667	1	53.425250
12.733333	1	58.788250
12.750000	1	63.542000
12.766667	1	67.462875
12.783333	1	70.360375
12.800000	1	72.097625
12.816667	1	72.612000
12.833333	1	71.914875
12.850000	1	70.087875
12.866667	1	67.281500
12.883333	1	63.694500
12.900000	1	59.560000
12.916667	1	55.116375
12.933333	1	50.593125
12.950000	1	46.178500
12.966667	1	42.009375
12.983333	1	38.157500
13.000000	1	34.633250
13.016667	1	31.384750
13.033333	1	28.321625
13.050000	1	25.354625
13.066667	1	22.424500
13.083333	1	19.513750
13.100000	1	16.657875
13.116667	1	13.939125
13.133333	1	11.464250
13.150000	1	9.325625
13.166667	1	7.563875
13.183333	1	6.163875
13.200000	1	5.075125
13.216667	1	4.236625
13.233333	1	3.592250
13.250000	1	3.095875
13.266667	1	2.712000
13.283333	1	2.412875
13.300000	1	2.177500
13.316667	1	1.989875
13.333333	1	1.837625
13.350000	1	1.713125
13.366667	1	1.609375
13.383333	1	1.521250
13.400000	1	1.445875
13.416667	1	1.380875
13.433333	1	1.324875
13.450000	1	1.275000
13.466667	1	1.231500
13.483333	1	1.193500
13.500000	1	1.160500
13.516667	1	1.131625
13.533333	1	1.106875
13.550000	1	1.085875
13.566667	1	1.068000
13.583333	1	1.053750
13.600000	1	1.042625
13.616667	1	1.033750
13.633333	1	1.027625
13.650000	1	1.023500
13.666667	1	1.021125
13.683333	1	1.019125
13.700000	1	1.018250
13.716667	1	1.017000
13.733333	1	1.016250
13.750000	1	1.015000
13.766667	1	1.013125
13.783333	1	1.008875
13.800000	1	1.002375
13.816667	1	0.994875
13.833333	1	0.984625
13.850000	1	0.971875
13.866667	1	0.958250
13.883333	1	0.942250
13.900000	1	0.926125
13.916667	1	0.909125
13.933333	1	0.891625
13.950000	1	0.873750
13.966667	1	0.857125
13.983333	1	0.841875
14.000000	1	0.826750
14.016667	1	0.812250
14.033333	1	0.798250
14.050000	1	0.785625
14.066667	1	0.773875
14.083333	1	0.762250
14.100000	1	0.751875
14.116667	1	0.741875
14.133333	1	0.731625
14.150000	1	0.722250
14.166667	1	0.714125
14.183333	1	0.705875
14.200000	1	0.698125
14.216667	1	0.690625
14.233333	1	0.683625
14.250000	1	0.677000
14.266667	1	0.671375
14.283333	1	0.665750
14.300000	1	0.661000
14.316667	1	0.657000
14.333333	1	0.653500
14.350000	1	0.651250
14.366667	1	0.649625
14.383333	1	0.649500
14.400000	1	0.650250
14.416667	1	0.652250
14.433333	1	0.655500
14.450000	1	0.659125
14.466667	1	0.663875
14.483333	1	0.669875
14.500000	1	0.676375
14.516667	1	0.682500
14.533333	1	0.688750
14.550000	1	0.695250
14.566667	1	0.701750
14.583333	1	0.708000
14.600000	1	0.714875
14.616667	1	0.722500
14.633333	1	0.730750
14.650000	1	0.740625
14.666667	1	0.751875
14.683333	1	0.767625
14.700000	1	0.786250
14.716667	1	0.809250
14.733333	1	0.836125
14.750000	1	0.867875
14.766667	1	0.904750
14.783333	1	0.946500
14.800000	1	0.992250
14.816667	1	1.041125
14.833333	1	1.090625
14.850000	1	1.140125
14.866667	1	1.185125
14.883333	1	1.225500
14.900000	1	1.258625
14.916667	1	1.281875
14.933333	1	1.294250
14.950000	1	1.293625
14.966667	1	1.281500
14.983333	1	1.257250
15.000000	1	1.221750
15.016667	1	1.177875
15.033333	1	1.127000
15.050000	1	1.071250
15.066667	1	1.012500
15.083333	1	0.954125
15.100000	1	0.897625
15.116667	1	0.843500
15.133333	1	0.795000
15.150000	1	0.750750
15.166667	1	0.713000
15.183333	1	0.681375
15.200000	1	0.655875
15.216667	1	0.635875
15.233333	1	0.621000
15.250000	1	0.611375
15.266667	1	0.606500
15.283333	1	0.605750
15.300000	1	0.608750
15.316667	1	0.616000
15.333333	1	0.627500
15.350000	1	0.643750
15.366667	1	0.663125
15.383333	1	0.686875
15.400000	1	0.715375
15.416667	1	0.748375
15.433333	1	0.785250
15.450000	1	0.825625
15.466667	1	0.868875
15.483333	1	0.913875
15.500000	1	0.959375
15.516667	1	1.004250
15.533333	1	1.046250
15.550000	1	1.084000
15.566667	1	1.116250
15.583333	1	1.141125
15.600000	1	1.157750
15.616667	1	1.165250
15.633333	1	1.163125
15.650000	1	1.153375
15.666667	1	1.134500
15.683333	1	1.109500
15.700000	1	1.078250
15.716667	1	1.043625
15.733333	1	1.007875
15.750000	1	0.971375
15.766667	1	0.935375
15.783333	1	0.900500
15.800000	1	0.868000
15.816667	1	0.837875
15.833333	1	0.810250
15.850000	1	0.784625
15.866667	1	0.762625
15.883333	1	0.742125
15.900000	1	0.723875
15.916667	1	0.707500
15.933333	1	0.692500
15.950000	1	0.679500
15.966667	1	0.667625
15.983333	1	0.657250
16.000000	1	0.648000
16.016667	1	0.641000
16.033333	1	0.635625
16.050000	1	0.631500
16.066667	1	0.629875
16.083333	1	0.629250
16.100000	1	0.629125
16.116667	1	0.630750
16.133333	1	0.633500
16.150000	1	0.637250
16.166667	1	0.641750
16.183333	1	0.646250
16.200000	1	0.651000
16.216667	1	0.656500
16.233333	1	0.661875
16.250000	1	0.667000
16.266667	1	0.672000
16.283333	1	0.675000
16.300000	1	0.678125
16.316667	1	0.679875
16.333333	1	0.680750
16.350000	1	0.681125
16.366667	1	0.680875
16.383333	1	0.680625
16.400000	1	0.679375
16.416667	1	0.679250
16.433333	1	0.678625
16.450000	1	0.678375
16.466667	1	0.678750
16.483333	1	0.680500
16.500000	1	0.683250
16.516667	1	0.687375
16.533333	1	0.692875
16.550000	1	0.699250
16.566667	1	0.707750
16.583333	1	0.716750
16.600000	1	0.727375
16.616667	1	0.738375
16.633333	1	0.749250
16.650000	1	0.761000
16.666667	1	0.771875
16.683333	1	0.782250
16.700000	1	0.792000
16.716667	1	0.799875
16.733333	1	0.807125
16.750000	1	0.814500
16.766667	1	0.820750
16.783333	1	0.826750
16.800000	1	0.832500
16.816667	1	0.838500
16.833333	1	0.844500
16.850000	1	0.850750
16.866667	1	0.856750
16.883333	1	0.862875
16.900000	1	0.869000
16.916667	1	0.875500
16.933333	1	0.881375
16.950000	1	0.887500
16.966667	1	0.892750
16.983333	1	0.897250
17.000000	1	0.900000
17.016667	1	0.902500
17.033333	1	0.903250
17.050000	1	0.903125
17.066667	1	0.902250
17.083333	1	0.899875
17.100000	1	0.897000
17.116667	1	0.894625
17.133333	1	0.892250
17.150000	1	0.889625
17.166667	1	0.887625
17.183333	1	0.886500
17.200000	1	0.886750
17.216667	1	0.886500
17.233333	1	0.887125
17.250000	1	0.888500
17.266667	1	0.891125
17.283333	1	0.894500
17.300000	1	0.898000
17.316667	1	0.902625
17.333333	1	0.907000
17.350000	1	0.912125
17.366667	1	0.917250
17.383333	1	0.922375
17.400000	1	0.927375
17.416667	1	0.933000
17.433333	1	0.937625
17.450000	1	0.941750
17.466667	1	0.944500
17.483333	1	0.946250
17.500000	1	0.946625
17.516667	1	0.946125
17.533333	1	0.944125
17.550000	1	0.940500
17.566667	1	0.935125
17.583333	1	0.929000
17.600000	1	0.920625
17.616667	1	0.911000
17.633333	1	0.900375
17.650000	1	0.887750
17.666667	1	0.873875
17.683333	1	0.859000
17.700000	1	0.843500
17.716667	1	0.827375
17.733333	1	0.812125
17.750000	1	0.796125
17.766667	1	0.780750
17.783333	1	0.765125
17.800000	1	0.750375
17.816667	1	0.736375
17.833333	1	0.722625
17.850000	1	0.709750
17.866667	1	0.697250
17.883333	1	0.685750
17.900000	1	0.675375
17.916667	1	0.665500
17.933333	1	0.655750
17.950000	1	0.647250
17.966667	1	0.639875
17.983333	1	0.633375
18.000000	1	0.627500
18.016667	1	0.621875
18.033333	1	0.616000
18.050000	1	0.610625
18.066667	1	0.605875
18.083333	1	0.601500
18.100000	1	0.597625
18.116667	1	0.594250
18.133333	1	0.590250
18.150000	1	0.587125
18.166667	1	0.584125
18.183333	1	0.581125
18.200000	1	0.578625
18.216667	1	0.576250
18.233333	1	0.574750
18.250000	1	0.574125
18.266667	1	0.573625
18.283333	1	0.574125
18.300000	1	0.574500
18.316667	1	0.575750
18.333333	1	0.577625
18.350000	1	0.580000
18.366667	1	0.582750
18.383333	1	0.586500
18.400000	1	0.590000
18.416667	1	0.593625
18.433333	1	0.598375
18.450000	1	0.603125
18.466667	1	0.608625
18.483333	1	0.614250
18.500000	1	0.620625
18.516667	1	0.627625
18.533333	1	0.636500
18.550000	1	0.646125
18.566667	1	0.657000
18.583333	1	0.669750
18.600000	1	0.684875
18.616667	1	0.702375
18.633333	1	0.720625
18.650000	1	0.741500
18.666667	1	0.764500
18.683333	1	0.789125
18.700000	1	0.815375
18.716667	1	0.844000
18.733333	1	0.874000
18.750000	1	0.905875
18.766667	1	0.938625
18.783333	1	0.972250
18.800000	1	1.007875
18.816667	1	1.042500
18.833333	1	1.077250
18.850000	1	1.111125
18.866667	1	1.143875
18.883333	1	1.174125
18.900000	1	1.201625
18.916667	1	1.226000
18.933333	1	1.246250
18.950000	1	1.261750
18.966667	1	1.272625
18.983333	1	1.277000
19.000000	1	1.275500
19.016667	1	1.267500
19.033333	1	1.253500
19.050000	1	1.233000
19.066667	1	1.207000
19.083333	1	1.175625
19.100000	1	1.139125
19.116667	1	1.098375
19.133333	1	1.055000
19.150000	1	1.009250
19.166667	1	0.962125
19.183333	1	0.914000
19.200000	1	0.867750
19.216667	1	0.822750
19.233333	1	0.780125
19.250000	1	0.741000
19.266667	1	0.705375
19.283333	1	0.673500
19.300000	1	0.647250
19.316667	1	0.625875
19.333333	1	0.609500
19.350000	1	0.598750
19.366667	1	0.593375
19.383333	1	0.593625
19.400000	1	0.598000
19.416667	1	0.608500
19.433333	1	0.623500
19.450000	1	0.643375
19.466667	1	0.668000
19.483333	1	0.697000
19.500000	1	0.728375
19.516667	1	0.763375
19.533333	1	0.799875
19.550000	1	0.838875
19.566667	1	0.878125
19.583333	1	0.918375
19.600000	1	0.957000
19.616667	1	0.993625
19.633333	1	1.027625
19.650000	1	1.058250
19.666667	1	1.083625
19.683333	1	1.103875
19.700000	1	1.119125
19.716667	1	1.129250
19.733333	1	1.132875
19.750000	1	1.130500
19.766667	1	1.122625
19.783333	1	1.108875
19.800000	1	1.090875
19.816667	1	1.068875
19.833333	1	1.042500
19.850000	1	1.013250
19.866667	1	0.982500
19.883333	1	0.949250
19.900000	1	0.914250
19.916667	1	0.880000
19.933333	1	0.845125
19.950000	1	0.810750
19.966667	1	0.777625
19.983333	1	0.745500
20.000000	1	0.716250
20.016667	1	0.688375
20.033333	1	0.662000
20.050000	1	0.638125
20.066667	1	0.618000
20.083333	1	0.600250
20.100000	1	0.584500
20.116667	1	0.572625
20.133333	1	0.563000
20.150000	1	0.557125
20.166667	1	0.553875
20.183333	1	0.553875
20.200000	1	0.556375
20.216667	1	0.561125
20.233333	1	0.568125
20.250000	1	0.576625
20.266667	1	0.586625
20.283333	1	0.598375
20.300000	1	0.610500
20.316667	1	0.623625
20.333333	1	0.635875
20.350000	1	0.647750
20.366667	1	0.658375
20.383333	1	0.668125
20.400000	1	0.676500
20.416667	1	0.683000
20.433333	1	0.687250
20.450000	1	0.690625
20.466667	1	0.692125
20.483333	1	0.692750
20.500000	1	0.692875
20.516667	1	0.693750
20.533333	1	0.695500
20.550000	1	0.699625
20.566667	1	0.706875
20.583333	1	0.717750
20.600000	1	0.733750
20.616667	1	0.755250
20.633333	1	0.783750
20.650000	1	0.819375
20.666667	1	0.862250
20.683333	1	0.912125
20.700000	1	0.969500
20.716667	1	1.032750
20.733333	1	1.102125
20.750000	1	1.176750
20.766667	1	1.254125
20.783333	1	1.332125
20.800000	1	1.409375
20.816667	1	1.484250
20.833333	1	1.553250
20.850000	1	1.614875
20.866667	1	1.666500
20.883333	1	1.706000
20.900000	1	1.732750
20.916667	1	1.745125
20.933333	1	1.741625
20.950000	1	1.723625
20.966667	1	1.691000
20.983333	1	1.645500
21.000000	1	1.586375
21.016667	1	1.517250
21.033333	1	1.440000
21.050000	1	1.357250
21.066667	1	1.271375
21.083333	1	1.183750
21.100000	1	1.097250
21.116667	1	1.013500
21.133333	1	0.933625
21.150000	1	0.858125
21.166667	1	0.789125
21.183333	1	0.725375
21.200000	1	0.668250
21.216667	1	0.617375
21.233333	1	0.573125
21.250000	1	0.533875
21.266667	1	0.500750
21.283333	1	0.473125
21.300000	1	0.449375
21.316667	1	0.429375
21.333333	1	0.413000
21.350000	1	0.400375
21.366667	1	0.389875
21.383333	1	0.381750
21.400000	1	0.375125
21.416667	1	0.370125
21.433333	1	0.366625
21.450000	1	0.363250
21.466667	1	0.361250
21.483333	1	0.360125
21.500000	1	0.359750
21.516667	1	0.359000
21.533333	1	0.359250
21.550000	1	0.360750
21.566667	1	0.361250
21.583333	1	0.362500
21.600000	1	0.364500
21.616667	1	0.367000
21.633333	1	0.369750
21.650000	1	0.372000
21.666667	1	0.375250
21.683333	1	0.378375
21.700000	1	0.382500
21.716667	1	0.385750
21.733333	1	0.390125
21.750000	1	0.394250
21.766667	1	0.398875
21.783333	1	0.404250
21.800000	1	0.409250
21.816667	1	0.414375
21.833333	1	0.420125
21.850000	1	0.425250
21.866667	1	0.430875
21.883333	1	0.437000
21.900000	1	0.443250
21.916667	1	0.448750
21.933333	1	0.454625
21.950000	1	0.461000
21.966667	1	0.467500
21.983333	1	0.474250
22.000000	1	0.480875
22.016667	1	0.487625
22.033333	1	0.494375
22.050000	1	0.501125
22.066667	1	0.508250
22.083333	1	0.515375
22.100000	1	0.522250
22.116667	1	0.528750
22.133333	1	0.534750
22.150000	1	0.540000
22.166667	1	0.544500
22.183333	1	0.548750
22.200000	1	0.551000
22.216667	1	0.553125
22.233333	1	0.553375
22.250000	1	0.552875
22.266667	1	0.550250
22.283333	1	0.546625
22.300000	1	0.541250
22.316667	1	0.534625
22.333333	1	0.527375
22.350000	1	0.518500
22.366667	1	0.509125
22.383333	1	0.498000
22.400000	1	0.486750
22.416667	1	0.474875
22.433333	1	0.462500
22.450000	1	0.450500
22.466667	1	0.438125
22.483333	1	0.427000
22.500000	1	0.416000
22.516667	1	0.405125
22.533333	1	0.394500
22.550000	1	0.384375
22.566667	1	0.375250
22.583333	1	0.366625
22.600000	1	0.358500
22.616667	1	0.351125
22.633333	1	0.345000
22.650000	1	0.339125
22.666667	1	0.333125
22.683333	1	0.327375
22.700000	1	0.323250
22.716667	1	0.319625
22.733333	1	0.316125
22.750000	1	0.312375
22.766667	1	0.309875
22.783333	1	0.306750
22.800000	1	0.304625
22.816667	1	0.302250
22.833333	1	0.300375
22.850000	1	0.299125
22.866667	1	0.297500
22.883333	1	0.296750
22.900000	1	0.296125
22.916667	1	0.295875
22.933333	1	0.295875
22.950000	1	0.296000
22.966667	1	0.296000
22.983333	1	0.296250
23.000000	1	0.296750
23.016667	1	0.297625
23.033333	1	0.298750
23.050000	1	0.300375
23.066667	1	0.302500
23.083333	1	0.304375
23.100000	1	0.306750
23.116667	1	0.308875
23.133333	1	0.311250
23.150000	1	0.314125
23.166667	1	0.316625
23.183333	1	0.319875
23.200000	1	0.322500
23.216667	1	0.325375
23.233333	1	0.329000
23.250000	1	0.333750
23.266667	1	0.338625
23.283333	1	0.345000
23.300000	1	0.353125
23.316667	1	0.362500
23.333333	1	0.374125
23.350000	1	0.388625
23.366667	1	0.406625
23.383333	1	0.428375
23.400000	1	0.454500
23.416667	1	0.486750
23.433333	1	0.526000
23.450000	1	0.572125
23.466667	1	0.628000
23.483333	1	0.693000
23.500000	1	0.769750
23.516667	1	0.858500
23.533333	1	0.961750
23.550000	1	1.079000
23.566667	1	1.212625
23.583333	1	1.362625
23.600000	1	1.529250
23.616667	1	1.713750
23.633333	1	1.916125
23.650000	1	2.135625
23.666667	1	2.371625
23.683333	1	2.621750
23.700000	1	2.886250
23.716667	1	3.161625
23.733333	1	3.444875
23.750000	1	3.732375
23.766667	1	4.020250
23.783333	1	4.302875
23.800000	1	4.574875
23.816667	1	4.831625
23.833333	1	5.068125
23.850000	1	5.279750
23.866667	1	5.460375
23.883333	1	5.606250
23.900000	1	5.714625
23.916667	1	5.782625
23.933333	1	5.808750
23.950000	1	5.790625
23.966667	1	5.730750
23.983333	1	5.631000
24.000000	1	5.493500
24.016667	1	5.321250
24.033333	1	5.118625
24.050000	1	4.891125
24.066667	1	4.643625
24.083333	1	4.381375
24.100000	1	4.109875
24.116667	1	3.832625
24.133333	1	3.554750
24.150000	1	3.280750
24.166667	1	3.015250
24.183333	1	2.760125
24.200000	1	2.518000
24.216667	1	2.291125
24.233333	1	2.080875
24.250000	1	1.886750
24.266667	1	1.709750
24.283333	1	1.549125
24.300000	1	1.404250
24.316667	1	1.275625
24.333333	1	1.160375
24.350000	1	1.059125
24.366667	1	0.970875
24.383333	1	0.893875
24.400000	1	0.826500
24.416667	1	0.768750
24.433333	1	0.719375
24.450000	1	0.676750
24.466667	1	0.641000
24.483333	1	0.610500
24.500000	1	0.584875
24.516667	1	0.564250
24.533333	1	0.546125
24.550000	1	0.530500
24.566667	1	0.516875
24.583333	1	0.505875
24.600000	1	0.496000
24.616667	1	0.487375
24.633333	1	0.479125
24.650000	1	0.472000
24.666667	1	0.464875
24.683333	1	0.457625
24.700000	1	0.450875
24.716667	1	0.444125
24.733333	1	0.437875
24.750000	1	0.431125
24.766667	1	0.424500
24.783333	1	0.416750
24.800000	1	0.409750
24.816667	1	0.402125
24.833333	1	0.394875
24.850000	1	0.387750
24.866667	1	0.381000
24.883333	1	0.374625
24.900000	1	0.368000
24.916667	1	0.362250
24.933333	1	0.356375
24.950000	1	0.351250
24.966667	1	0.345125
24.983333	1	0.339875
25.000000	1	0.334750
25.016667	1	0.330625
25.033333	1	0.325875
25.050000	1	0.321000
25.066667	1	0.317250
25.083333	1	0.314250
25.100000	1	0.311000
25.116667	1	0.308250
25.133333	1	0.305000
25.150000	1	0.301375
25.166667	1	0.298125
25.183333	1	0.295125
25.200000	1	0.292125
25.216667	1	0.289875
25.233333	1	0.287875
25.250000	1	0.285875
25.266667	1	0.283250
25.283333	1	0.281750
25.300000	1	0.280125
25.316667	1	0.278375
25.333333	1	0.276375
25.350000	1	0.274250
25.366667	1	0.273375
25.383333	1	0.271625
25.400000	1	0.270500
25.416667	1	0.269375
25.433333	1	0.269250
25.450000	1	0.268625
25.466667	1	0.268500
25.483333	1	0.268375
25.500000	1	0.269000
25.516667	1	0.268875
25.533333	1	0.269250
25.550000	1	0.269875
25.566667	1	0.270125
25.583333	1	0.271125
25.600000	1	0.271875
25.616667	1	0.272625
25.633333	1	0.273125
25.650000	1	0.273500
25.666667	1	0.274375
25.683333	1	0.275125
25.700000	1	0.276500
25.716667	1	0.278000
25.733333	1	0.278750
25.750000	1	0.280250
25.766667	1	0.281375
25.783333	1	0.282375
25.800000	1	0.284000
25.816667	1	0.285875
25.833333	1	0.287375
25.850000	1	0.289375
25.866667	1	0.291375
25.883333	1	0.294000
25.900000	1	0.297000
25.916667	1	0.300375
25.933333	1	0.303625
25.950000	1	0.307250
25.966667	1	0.310750
25.983333	1	0.315000
26.000000	1	0.319500
26.016667	1	0.324000
26.033333	1	0.328750
26.050000	1	0.333625
26.066667	1	0.339750
26.083333	1	0.344750
26.100000	1	0.350250
26.116667	1	0.355250
26.133333	1	0.360250
26.150000	1	0.364875
26.166667	1	0.369500
26.183333	1	0.374125
26.200000	1	0.377875
26.216667	1	0.380500
26.233333	1	0.382875
26.250000	1	0.384500
26.266667	1	0.385250
26.283333	1	0.385750
26.300000	1	0.385875
26.316667	1	0.384750
26.333333	1	0.382875
26.350000	1	0.380500
26.366667	1	0.376000
26.383333	1	0.371750
26.400000	1	0.366500
26.416667	1	0.360750
26.433333	1	0.353750
26.450000	1	0.346250
26.466667	1	0.339125
26.483333	1	0.330750
26.500000	1	0.322250
26.516667	1	0.312500
26.533333	1	0.303250
26.550000	1	0.294500
26.566667	1	0.284875
26.583333	1	0.274875
26.600000	1	0.266125
26.616667	1	0.257375
26.633333	1	0.248750
26.650000	1	0.239750
26.666667	1	0.232000
26.683333	1	0.224625
26.700000	1	0.217750
26.716667	1	0.211500
26.733333	1	0.205125
26.750000	1	0.199500
26.766667	1	0.194375
26.783333	1	0.189875
26.800000	1	0.186000
26.816667	1	0.183750
26.833333	1	0.182000
26.850000	1	0.180375
26.866667	1	0.180000
26.883333	1	0.179125
26.900000	1	0.178750
26.916667	1	0.178750
26.933333	1	0.179750
26.950000	1	0.181625
26.966667	1	0.183625
26.983333	1	0.186500
27.000000	1	0.189750
27.016667	1	0.193250
27.033333	1	0.197375
27.050000	1	0.201875
27.066667	1	0.206625
27.083333	1	0.211250
27.100000	1	0.217125
27.116667	1	0.222625
27.133333	1	0.228500
27.150000	1	0.235500
27.166667	1	0.243375
27.183333	1	0.251625
27.200000	1	0.260875
27.216667	1	0.270875
27.233333	1	0.282375
27.250000	1	0.294500
27.266667	1	0.309000
27.283333	1	0.324125
27.300000	1	0.341500
27.316667	1	0.360875
27.333333	1	0.383000
27.350000	1	0.407875
27.366667	1	0.436375
27.383333	1	0.468000
27.400000	1	0.504125
27.416667	1	0.545375
27.433333	1	0.590875
27.450000	1	0.642250
27.466667	1	0.700625
27.483333	1	0.765375
27.500000	1	0.837875
27.516667	1	0.917875
27.533333	1	1.005875
27.550000	1	1.102250
27.566667	1	1.207125
27.583333	1	1.321000
27.600000	1	1.443875
27.616667	1	1.575750
27.633333	1	1.715375
27.650000	1	1.863500
27.666667	1	2.019125
27.683333	1	2.180750
27.700000	1	2.347500
27.716667	1	2.518250
27.733333	1	2.690875
27.750000	1	2.864125
27.766667	1	3.034625
27.783333	1	3.201375
27.800000	1	3.362250
27.816667	1	3.514875
27.833333	1	3.656375
27.850000	1	3.785125
27.866667	1	3.898125
27.883333	1	3.994625
27.900000	1	4.071625
27.916667	1	4.127750
27.933333	1	4.162125
27.950000	1	4.173625
27.966667	1	4.160875
27.983333	1	4.125500
28.000000	1	4.067750
28.016667	1	3.987875
28.033333	1	3.886625
28.050000	1	3.766625
28.066667	1	3.630625
28.083333	1	3.479500
28.100000	1	3.315875
28.116667	1	3.144000
28.133333	1	2.965000
28.150000	1	2.782375
28.166667	1	2.598250
28.183333	1	2.415250
28.200000	1	2.236500
28.216667	1	2.062375
28.233333	1	1.895625
28.250000	1	1.736375
28.266667	1	1.587250
28.283333	1	1.447125
28.300000	1	1.318875
28.316667	1	1.200750
28.333333	1	1.093750
28.350000	1	0.998250
28.366667	1	0.912625
28.383333	1	0.837000
28.400000	1	0.771625
28.416667	1	0.714625
28.433333	1	0.666000
28.450000	1	0.625125
28.466667	1	0.590625
28.483333	1	0.563500
28.500000	1	0.541750
28.516667	1	0.525000
28.533333	1	0.512125
28.550000	1	0.503375
28.566667	1	0.497625
28.583333	1	0.495750
28.600000	1	0.496625
28.616667	1	0.499250
28.633333	1	0.504000
28.650000	1	0.509625
28.666667	1	0.516625
28.683333	1	0.524500
28.700000	1	0.532875
28.716667	1	0.541500
28.733333	1	0.550125
28.750000	1	0.558125
28.766667	1	0.565500
28.783333	1	0.573000
28.800000	1	0.579625
28.816667	1	0.585625
28.833333	1	0.590500
28.850000	1	0.593250
28.866667	1	0.596500
28.883333	1	0.597750
28.900000	1	0.597125
28.916667	1	0.595125
28.933333	1	0.590750
28.950000	1	0.585500
28.966667	1	0.578125
28.983333	1	0.568875
29.000000	1	0.557375
29.016667	1	0.544000
29.033333	1	0.528875
29.050000	1	0.511250
29.066667	1	0.492250
29.083333	1	0.469625
29.100000	1	0.445625
29.116667	1	0.420000
29.133333	1	0.391375
29.150000	1	0.361250
29.166667	1	0.328250
29.183333	1	0.293500
29.200000	1	0.256750
29.216667	1	0.217750
29.233333	1	0.176375
29.250000	1	0.132500
29.266667	1	0.086875
29.283333	1	0.038375
29.300000	1	-0.011250
29.316667	1	-0.062125
29.333333	1	-0.115250
29.350000	1	-0.169750
29.366667	1	-0.226250
29.383333	1	-0.282500
29.400000	1	-0.340125
29.416667	1	-0.398625
29.433333	1	-0.457250
29.450000	1	-0.516375
29.466667	1	-0.574750
29.483333	1	-0.632250
29.500000	1	-0.689125
29.516667	1	-0.744250
29.533333	1	-0.798375
29.550000	1	-0.849375
29.566667	1	-0.897375
29.583333	1	-0.943250
29.600000	1	-0.985125
29.616667	1	-1.023750
29.633333	1	-1.057750
29.650000	1	-1.087500
29.666667	1	-1.112250
29.683333	1	-1.132125
29.700000	1	-1.146500
29.716667	1	-1.156250
29.733333	1	-1.160125
29.750000	1	-1.159125
29.766667	1	-1.152500
29.783333	1	-1.140750
29.800000	1	-1.124000
29.816667	1	-1.102750
29.833333	1	-1.077250
29.850000	1	-1.048000
29.866667	1	-1.014250
29.883333	1	-0.976875
29.900000	1	-0.937250
29.916667	1	-0.894375
29.933333	1	-0.850500
29.950000	1	-0.805375
29.966667	1	-0.758625
29.983333	1	-0.710625
30.000000	1	-0.661875
30.016667	1	-0.613625
30.033333	1	-0.565625
30.050000	1	-0.519250
30.066667	1	-0.473250
30.083333	1	-0.428375
30.100000	1	-0.385375
30.116667	1	-0.344375
30.133333	1	-0.305500
30.150000	1	-0.268250
30.166667	1	-0.232875
30.183333	1	-0.200000
30.200000	1	-0.168250
30.216667	1	-0.139625
30.233333	1	-0.113125
30.250000	1	-0.087500
30.266667	1	-0.064125
30.283333	1	-0.043000
30.300000	1	-0.023125
30.316667	1	-0.005000
30.333333	1	0.011500
30.350000	1	0.026750
30.366667	1	0.040500
30.383333	1	0.053250
30.400000	1	0.064625
30.416667	1	0.076250
30.433333	1	0.086250
30.450000	1	0.095500
30.466667	1	0.104750
30.483333	1	0.113750
30.500000	1	0.122125
30.516667	1	0.130625
30.533333	1	0.139875
30.550000	1	0.148625
30.566667	1	0.156625
30.583333	1	0.165875
30.600000	1	0.174875
30.616667	1	0.185500
30.633333	1	0.196375
30.650000	1	0.208250
30.666667	1	0.220375
30.683333	1	0.234375
30.700000	1	0.249125
30.716667	1	0.265875
30.733333	1	0.284250
30.750000	1	0.304375
30.766667	1	0.327000
30.783333	1	0.351375
30.800000	1	0.378125
30.816667	1	0.408625
30.833333	1	0.442500
30.850000	1	0.480500
30.866667	1	0.522875
30.883333	1	0.569750
30.900000	1	0.621875
30.916667	1	0.679625
30.933333	1	0.743625
30.950000	1	0.815000
30.966667	1	0.892875
30.983333	1	0.979000
31.000000	1	1.074125
31.016667	1	1.177875
31.033333	1	1.291500
31.050000	1	1.414625
31.066667	1	1.547875
31.083333	1	1.690375
31.100000	1	1.843000
31.116667	1	2.006000
31.133333	1	2.177750
31.150000	1	2.358750
31.166667	1	2.548250
31.183333	1	2.745750
31.200000	1	2.949500
31.216667	1	3.158250
31.233333	1	3.369625
31.250000	1	3.583125
31.266667	1	3.795875
31.283333	1	4.006250
31.300000	1	4.211125
31.316667	1	4.409125
31.333333	1	4.597750
31.350000	1	4.774000
31.366667	1	4.936250
31.383333	1	5.082750
31.400000	1	5.210625
31.416667	1	5.318250
31.433333	1	5.404000
31.450000	1	5.467375
31.466667	1	5.507125
31.483333	1	5.522500
31.500000	1	5.513500
31.516667	1	5.480125
31.533333	1	5.423375
31.550000	1	5.343750
31.566667	1	5.242375
31.583333	1	5.120500
31.600000	1	4.980625
31.616667	1	4.823125
31.633333	1	4.651875
31.650000	1	4.466750
31.666667	1	4.272125
31.683333	1	4.069750
31.700000	1	3.862000
31.716667	1	3.651250
31.733333	1	3.439375
31.750000	1	3.228000
31.766667	1	3.018625
31.783333	1	2.813500
31.800000	1	2.613125
31.816667	1	2.419500
31.833333	1	2.232625
31.850000	1	2.054250
31.866667	1	1.885375
31.883333	1	1.725875
31.900000	1	1.574625
31.916667	1	1.434375
31.933333	1	1.303000
31.950000	1	1.181750
31.966667	1	1.069375
31.983333	1	0.966625
32.000000	1	0.871875
32.016667	1	0.785625
32.033333	1	0.707000
32.050000	1	0.634625
32.066667	1	0.570250
32.083333	1	0.511375
32.100000	1	0.458500
32.116667	1	0.412250
32.133333	1	0.370375
32.150000	1	0.333125
32.166667	1	0.299875
32.183333	1	0.270500
32.200000	1	0.244125
32.216667	1	0.221375
32.233333	1	0.201000
32.250000	1	0.183000
32.266667	1	0.167875
32.283333	1	0.153375
32.300000	1	0.141500
32.316667	1	0.130875
32.333333	1	0.121625
32.350000	1	0.114000
32.366667	1	0.107375
32.383333	1	0.101250
32.400000	1	0.095750
32.416667	1	0.091625
32.433333	1	0.087750
32.450000	1	0.084125
32.466667	1	0.080750
32.483333	1	0.078375
32.500000	1	0.076375
32.516667	1	0.074875
32.533333	1	0.073250
32.550000	1	0.072125
32.566667	1	0.071625
32.583333	1	0.070250
32.600000	1	0.069000
32.616667	1	0.068500
32.633333	1	0.067875
32.650000	1	0.067000
32.666667	1	0.066250
32.683333	1	0.066500
32.700000	1	0.066250
32.716667	1	0.066500
32.733333	1	0.066500
32.750000	1	0.066875
32.766667	1	0.066750
32.783333	1	0.066750
32.800000	1	0.066250
32.816667	1	0.065875
32.833333	1	0.065625
32.850000	1	0.064500
32.866667	1	0.064000
32.883333	1	0.063250
32.900000	1	0.062500
32.916667	1	0.062375
32.933333	1	0.062125
32.950000	1	0.061000
32.966667	1	0.060250
32.983333	1	0.058875
33.000000	1	0.057750
33.016667	1	0.056000
33.033333	1	0.054750
33.050000	1	0.052875
33.066667	1	0.051625
33.083333	1	0.050000
33.100000	1	0.048625
33.116667	1	0.046750
33.133333	1	0.045125
33.150000	1	0.043500
33.166667	1	0.042250
33.183333	1	0.040875
33.200000	1	0.039625
33.216667	1	0.038250
33.233333	1	0.036750
33.250000	1	0.035500
33.266667	1	0.034875
33.283333	1	0.034250
33.300000	1	0.033250
33.316667	1	0.032125
33.333333	1	0.031375
33.350000	1	0.031375
33.366667	1	0.031125
33.383333	1	0.031375
33.400000	1	0.031375
33.416667	1	0.032125
33.433333	1	0.032375
33.450000	1	0.033375
33.466667	1	0.034750
33.483333	1	0.035750
33.500000	1	0.036625
33.516667	1	0.037875
33.533333	1	0.038750
33.550000	1	0.040625
33.566667	1	0.042375
33.583333	1	0.043750
33.600000	1	0.045875
33.616667	1	0.047875
33.633333	1	0.049875
33.650000	1	0.051250
33.666667	1	0.053375
33.683333	1	0.055375
33.700000	1	0.057750
33.716667	1	0.058875
33.733333	1	0.060250
33.750000	1	0.061875
33.766667	1	0.064625
33.783333	1	0.066375
33.800000	1	0.068500
33.816667	1	0.070750
33.833333	1	0.072375
33.850000	1	0.073625
33.866667	1	0.075625
33.883333	1	0.077250
33.900000	1	0.079375
33.916667	1	0.080750
33.933333	1	0.082000
33.950000	1	0.083500
33.966667	1	0.084625
33.983333	1	0.086125
34.000000	1	0.087250
34.016667	1	0.088375
34.033333	1	0.089750
34.050000	1	0.091125
34.066667	1	0.090875
34.083333	1	0.091625
34.100000	1	0.091500
34.116667	1	0.091750
34.133333	1	0.091375
34.150000	1	0.091500
34.166667	1	0.091625
34.183333	1	0.091750
34.200000	1	0.091250
34.216667	1	0.091500
34.233333	1	0.092125
34.250000	1	0.092750
34.266667	1	0.093125
34.283333	1	0.093500
34.300000	1	0.094500
34.316667	1	0.095125
34.333333	1	0.095375
34.350000	1	0.096250
34.366667	1	0.098125
34.383333	1	0.099250
34.400000	1	0.101125
34.416667	1	0.103250
34.433333	1	0.105375
34.450000	1	0.108250
34.466667	1	0.110500
34.483333	1	0.112375
34.500000	1	0.114875
34.516667	1	0.117750
34.533333	1	0.120875
34.550000	1	0.123875
34.566667	1	0.127000
34.583333	1	0.130125
34.600000	1	0.133125
34.616667	1	0.136625
34.633333	1	0.139125
34.650000	1	0.141375
34.666667	1	0.145000
34.683333	1	0.148250
34.700000	1	0.150750
34.716667	1	0.153000
34.733333	1	0.155625
34.750000	1	0.157375
34.766667	1	0.159750
34.783333	1	0.161125
34.800000	1	0.162500
34.816667	1	0.163000
34.833333	1	0.163750
34.850000	1	0.164125
34.866667	1	0.164500
34.883333	1	0.164625
34.900000	1	0.164250
34.916667	1	0.163875
34.933333	1	0.162875
34.950000	1	0.162000
34.966667	1	0.161125
34.983333	1	0.160250
35.000000	1	0.159125
35.016667	1	0.157375
35.033333	1	0.154750
35.050000	1	0.152750
35.066667	1	0.151125
35.083333	1	0.149625
35.100000	1	0.148125
35.116667	1	0.146625
35.133333	1	0.144875
35.150000	1	0.143875
35.166667	1	0.141875
35.183333	1	0.140875
35.200000	1	0.140000
35.216667	1	0.138750
35.233333	1	0.138375
35.250000	1	0.138375
35.266667	1	0.137750
35.283333	1	0.137250
35.300000	1	0.136750
35.316667	1	0.136750
35.333333	1	0.137500
35.350000	1	0.137750
35.366667	1	0.139000
35.383333	1	0.139750
35.400000	1	0.140625
35.416667	1	0.140875
35.433333	1	0.141375
35.450000	1	0.141750
35.466667	1	0.143625
35.483333	1	0.144500
35.500000	1	0.144625
35.516667	1	0.146000
35.533333	1	0.147000
35.550000	1	0.148125
35.566667	1	0.148750
35.583333	1	0.149500
35.600000	1	0.150500
35.616667	1	0.151125
35.633333	1	0.151875
35.650000	1	0.152625
35.666667	1	0.153000
35.683333	1	0.153375
35.700000	1	0.153875
35.716667	1	0.154250
35.733333	1	0.154625
35.750000	1	0.154750
35.766667	1	0.155375
35.783333	1	0.155375
35.800000	1	0.155750
35.816667	1	0.155375
35.833333	1	0.155125
35.850000	1	0.154875
35.866667	1	0.154750
35.883333	1	0.154000
35.900000	1	0.153875
35.916667	1	0.153250
35.933333	1	0.153500
35.950000	1	0.153375
35.966667	1	0.153375
35.983333	1	0.152750
36.000000	1	0.152125
36.016667	1	0.151125
36.033333	1	0.150125
36.050000	1	0.150375
36.066667	1	0.149750
36.083333	1	0.149625
36.100000	1	0.148750
36.116667	1	0.149000
36.133333	1	0.149000
36.150000	1	0.149625
36.166667	1	0.149250
36.183333	1	0.148625
36.200000	1	0.147750
36.216667	1	0.147750
36.233333	1	0.147500
36.250000	1	0.147125
36.266667	1	0.147250
36.283333	1	0.147125
36.300000	1	0.147125
36.316667	1	0.147000
36.333333	1	0.147000
36.350000	1	0.146875
36.366667	1	0.146125
36.383333	1	0.145875
36.400000	1	0.144875
36.416667	1	0.144125
36.433333	1	0.143500
36.450000	1	0.142250
36.466667	1	0.142000
36.483333	1	0.140750
36.500000	1	0.139750
36.516667	1	0.138625
36.533333	1	0.138125
36.550000	1	0.136750
36.566667	1	0.135500
36.583333	1	0.134000
36.600000	1	0.131625
36.616667	1	0.129250
36.633333	1	0.127000
36.650000	1	0.124625
36.666667	1	0.122625
36.683333	1	0.120875
36.700000	1	0.119125
36.716667	1	0.117250
36.733333	1	0.115750
36.750000	1	0.113625
36.766667	1	0.111625
36.783333	1	0.109750
36.800000	1	0.107625
36.816667	1	0.105500
36.833333	1	0.103250
36.850000	1	0.101500
36.866667	1	0.099500
36.883333	1	0.098125
36.900000	1	0.096375
36.916667	1	0.095000
36.933333	1	0.093750
36.950000	1	0.092375
36.966667	1	0.090750
36.983333	1	0.089750
37.000000	1	0.088250
37.016667	1	0.087000
37.033333	1	0.085625
37.050000	1	0.084625
37.066667	1	0.083250
37.083333	1	0.082250
37.100000	1	0.081375
37.116667	1	0.080250
37.133333	1	0.079500
37.150000	1	0.078250
37.166667	1	0.076875
37.183333	1	0.075500
37.200000	1	0.075000
37.216667	1	0.073875
37.233333	1	0.073250
37.250000	1	0.071875
37.266667	1	0.070875
37.283333	1	0.069750
37.300000	1	0.068250
37.316667	1	0.067250
37.333333	1	0.066500
37.350000	1	0.065625
37.366667	1	0.064625
37.383333	1	0.063375
37.400000	1	0.061250
37.416667	1	0.059500
37.433333	1	0.058375
37.450000	1	0.057500
37.466667	1	0.056000
37.483333	1	0.055125
37.500000	1	0.053625
37.516667	1	0.052250
37.533333	1	0.049875
37.550000	1	0.048375
37.566667	1	0.046250
37.583333	1	0.045125
37.600000	1	0.042750
37.616667	1	0.040375
37.633333	1	0.037875
37.650000	1	0.035250
37.666667	1	0.032875
37.683333	1	0.030625
37.700000	1	0.028375
37.716667	1	0.025500
37.733333	1	0.023000
37.750000	1	0.020375
37.766667	1	0.017000
37.783333	1	0.014375
37.800000	1	0.012125
37.816667	1	0.009625
37.833333	1	0.006625
37.850000	1	0.004250
37.866667	1	0.002500
37.883333	1	0.001000
37.900000	1	-0.000250
37.916667	1	-0.001625
37.933333	1	-0.002625
37.950000	1	-0.003750
37.966667	1	-0.005125
37.983333	1	-0.006250
38.000000	1	-0.006000
38.016667	1	-0.006375
38.033333	1	-0.006250
38.050000	1	-0.006500
38.066667	1	-0.006500
38.083333	1	-0.005250
38.100000	1	-0.004625
38.116667	1	-0.004000
38.133333	1	-0.003125
38.150000	1	-0.002375
38.166667	1	-0.001500
38.183333	1	-0.000750
38.200000	1	0.000750
38.216667	1	0.002250
38.233333	1	0.002500
38.250000	1	0.004000
38.266667	1	0.005250
38.283333	1	0.006750
38.300000	1	0.008000
38.316667	1	0.009625
38.333333	1	0.010375
38.350000	1	0.011125
38.366667	1	0.012000
38.383333	1	0.012500
38.400000	1	0.013750
38.416667	1	0.014625
38.433333	1	0.015125
38.450000	1	0.016625
38.466667	1	0.017500
38.483333	1	0.018250
38.500000	1	0.018500
38.516667	1	0.019875
38.533333	1	0.021000
38.550000	1	0.021750
38.566667	1	0.022000
38.583333	1	0.022375
38.600000	1	0.023000
38.616667	1	0.023375
38.633333	1	0.024750
38.650000	1	0.024875
38.666667	1	0.025875
38.683333	1	0.026500
38.700000	1	0.027250
38.716667	1	0.027875
38.733333	1	0.028500
38.750000	1	0.029250
38.766667	1	0.030000
38.783333	1	0.030000
38.800000	1	0.030625
38.816667	1	0.031375
38.833333	1	0.032125
38.850000	1	0.033000
38.866667	1	0.033250
38.883333	1	0.034125
38.900000	1	0.034625
38.916667	1	0.035375
38.933333	1	0.036000
38.950000	1	0.036500
38.966667	1	0.036875
38.983333	1	0.036875
39.000000	1	0.036875
39.016667	1	0.036750
39.033333	1	0.035875
39.050000	1	0.036625
39.066667	1	0.036500
39.083333	1	0.035875
39.100000	1	0.035375
39.116667	1	0.034750
39.133333	1	0.034125
39.150000	1	0.033750
39.166667	1	0.033125
39.183333	1	0.032625
39.200000	1	0.032125
39.216667	1	0.030625
39.233333	1	0.029250
39.250000	1	0.028625
39.266667	1	0.027625
39.283333	1	0.026625
39.300000	1	0.025875
39.316667	1	0.025250
39.333333	1	0.023875
39.350000	1	0.023250
39.366667	1	0.022000
39.383333	1	0.020875
39.400000	1	0.020000
39.416667	1	0.019000
39.433333	1	0.018875
39.450000	1	0.018500
39.466667	1	0.018500
39.483333	1	0.017875
39.500000	1	0.017750
39.516667	1	0.017500
39.533333	1	0.016750
39.550000	1	0.016375
39.566667	1	0.016250
39.583333	1	0.015625
39.600000	1	0.015250
39.616667	1	0.015500
39.633333	1	0.015125
39.650000	1	0.014750
39.666667	1	0.014500
39.683333	1	0.014000
39.700000	1	0.013500
39.716667	1	0.012875
39.733333	1	0.012250
39.750000	1	0.011375
39.766667	1	0.010125
39.783333	1	0.009625
39.800000	1	0.009000
39.816667	1	0.008125
39.833333	1	0.007250
39.850000	1	0.006250
39.866667	1	0.004750
39.883333	1	0.004250
39.900000	1	0.003750
39.916667	1	0.002750
39.933333	1	0.002000
39.950000	1	0.001875
39.966667	1	0.000625
39.983333	1	-0.000375
40.000000	1	-0.000500
