URL	chrom://bioreactor/micro_cm7/HPLC_Ultimate_3000/Users/markusar/20240716_MA_pHrange2.seq/540.smp/RI_1.channel/RI_1.chm
Channel	RI_1

Injection Information:
Data Vault	micro_cm7
Sequence	20240716_MA_pHrange2
Name	Fp1_25H_3
Number	46
Position	BD10
Comment	
Processing Method	
Instrument Method	run_25B_method
Type	Unknown
Status	Finished
Inject Time	18.07.2024 00:50:04 +02:00
Volume (µl)	20.0000
Dilution Factor	1.0000
Weight	1.0000

Chromatogram Data Information:
Time Min. (min)	0.000000
Time Max. (min)	40.000000
Data Points	2401
Detector	RI
Generating Data System	Chromeleon 7.3.2.11814
Exporting Data System	Chromeleon 7.3.2.0
Operator	Instrument Controller
Signal Quantity	Refractive 
Signal Unit	µRIU
Signal Min.	-0.120375
Signal Max.	83.612375
Channel	RI_1
Driver Name	RID520Driver.dll
Channel Type	Evaluation
Min. Step (s)	1
Max. Step (s)	1
Average Step (s)	1

Signal Parameter Information:
Signal Info	

Chromatogram Data:
Time (min)	Step (s)	Value (µRIU)
0.000000	n.a.	-0.002625
0.016667	1	-0.002000
0.033333	1	-0.001750
0.050000	1	-0.001125
0.066667	1	-0.000125
0.083333	1	0.001250
0.100000	1	0.001500
0.116667	1	0.002500
0.133333	1	0.003250
0.150000	1	0.004375
0.166667	1	0.005125
0.183333	1	0.005250
0.200000	1	0.005750
0.216667	1	0.006125
0.233333	1	0.006750
0.250000	1	0.008125
0.266667	1	0.008750
0.283333	1	0.009125
0.300000	1	0.010000
0.316667	1	0.010125
0.333333	1	0.010375
0.350000	1	0.010500
0.366667	1	0.010125
0.383333	1	0.009500
0.400000	1	0.009125
0.416667	1	0.009500
0.433333	1	0.011125
0.450000	1	0.012250
0.466667	1	0.014500
0.483333	1	0.016375
0.500000	1	0.017250
0.516667	1	0.018125
0.533333	1	0.017875
0.550000	1	0.018000
0.566667	1	0.016625
0.583333	1	0.014375
0.600000	1	0.013125
0.616667	1	0.011625
0.633333	1	0.010375
0.650000	1	0.009625
0.666667	1	0.009375
0.683333	1	0.008375
0.700000	1	0.008250
0.716667	1	0.007625
0.733333	1	0.007625
0.750000	1	0.007750
0.766667	1	0.007250
0.783333	1	0.007000
0.800000	1	0.006125
0.816667	1	0.005750
0.833333	1	0.005250
0.850000	1	0.004250
0.866667	1	0.003250
0.883333	1	0.002750
0.900000	1	0.002500
0.916667	1	0.002000
0.933333	1	0.000875
0.950000	1	0.000750
0.966667	1	0.000375
0.983333	1	-0.000125
1.000000	1	-0.001000
1.016667	1	-0.000875
1.033333	1	-0.001125
1.050000	1	-0.000875
1.066667	1	-0.001500
1.083333	1	-0.001625
1.100000	1	-0.001625
1.116667	1	-0.001625
1.133333	1	-0.001250
1.150000	1	-0.001125
1.166667	1	-0.001875
1.183333	1	-0.001625
1.200000	1	-0.002000
1.216667	1	-0.001625
1.233333	1	-0.001625
1.250000	1	-0.000750
1.266667	1	-0.000750
1.283333	1	0.000000
1.300000	1	0.000750
1.316667	1	0.001000
1.333333	1	0.001375
1.350000	1	0.001625
1.366667	1	0.002375
1.383333	1	0.002125
1.400000	1	0.002375
1.416667	1	0.003000
1.433333	1	0.003500
1.450000	1	0.003875
1.466667	1	0.003375
1.483333	1	0.003875
1.500000	1	0.004625
1.516667	1	0.003875
1.533333	1	0.004000
1.550000	1	0.004000
1.566667	1	0.004000
1.583333	1	0.003500
1.600000	1	0.003125
1.616667	1	0.002875
1.633333	1	0.002375
1.650000	1	0.002000
1.666667	1	0.001000
1.683333	1	0.000000
1.700000	1	-0.001125
1.716667	1	-0.002250
1.733333	1	-0.003750
1.750000	1	-0.005625
1.766667	1	-0.006875
1.783333	1	-0.008000
1.800000	1	-0.009625
1.816667	1	-0.011375
1.833333	1	-0.013000
1.850000	1	-0.014250
1.866667	1	-0.015250
1.883333	1	-0.016375
1.900000	1	-0.018000
1.916667	1	-0.019375
1.933333	1	-0.020125
1.950000	1	-0.021625
1.966667	1	-0.022750
1.983333	1	-0.024250
2.000000	1	-0.025750
2.016667	1	-0.026875
2.033333	1	-0.028000
2.050000	1	-0.028875
2.066667	1	-0.029625
2.083333	1	-0.029875
2.100000	1	-0.030250
2.116667	1	-0.031625
2.133333	1	-0.032125
2.150000	1	-0.032625
2.166667	1	-0.033375
2.183333	1	-0.034000
2.200000	1	-0.034750
2.216667	1	-0.035625
2.233333	1	-0.035625
2.250000	1	-0.036750
2.266667	1	-0.036875
2.283333	1	-0.037500
2.300000	1	-0.037375
2.316667	1	-0.037875
2.333333	1	-0.037500
2.350000	1	-0.037750
2.366667	1	-0.038000
2.383333	1	-0.038500
2.400000	1	-0.038250
2.416667	1	-0.038375
2.433333	1	-0.038500
2.450000	1	-0.038250
2.466667	1	-0.038750
2.483333	1	-0.039000
2.500000	1	-0.039000
2.516667	1	-0.038875
2.533333	1	-0.039250
2.550000	1	-0.039625
2.566667	1	-0.039125
2.583333	1	-0.039000
2.600000	1	-0.038625
2.616667	1	-0.038750
2.633333	1	-0.037750
2.650000	1	-0.037750
2.666667	1	-0.037125
2.683333	1	-0.036500
2.700000	1	-0.035625
2.716667	1	-0.034000
2.733333	1	-0.033125
2.750000	1	-0.032250
2.766667	1	-0.031125
2.783333	1	-0.029750
2.800000	1	-0.029000
2.816667	1	-0.027875
2.833333	1	-0.026625
2.850000	1	-0.025125
2.866667	1	-0.023500
2.883333	1	-0.022000
2.900000	1	-0.020000
2.916667	1	-0.018250
2.933333	1	-0.016500
2.950000	1	-0.015250
2.966667	1	-0.013250
2.983333	1	-0.011125
3.000000	1	-0.010500
3.016667	1	-0.009250
3.033333	1	-0.007625
3.050000	1	-0.005625
3.066667	1	-0.003875
3.083333	1	-0.002625
3.100000	1	-0.001375
3.116667	1	-0.000875
3.133333	1	-0.000375
3.150000	1	-0.000250
3.166667	1	0.000000
3.183333	1	0.000500
3.200000	1	0.000625
3.216667	1	0.000750
3.233333	1	0.000625
3.250000	1	-0.000250
3.266667	1	-0.000125
3.283333	1	-0.001125
3.300000	1	-0.002250
3.316667	1	-0.003875
3.333333	1	-0.005125
3.350000	1	-0.006125
3.366667	1	-0.007000
3.383333	1	-0.007750
3.400000	1	-0.009125
3.416667	1	-0.010000
3.433333	1	-0.011375
3.450000	1	-0.012750
3.466667	1	-0.013375
3.483333	1	-0.013875
3.500000	1	-0.014125
3.516667	1	-0.014125
3.533333	1	-0.014125
3.550000	1	-0.014500
3.566667	1	-0.013875
3.583333	1	-0.013125
3.600000	1	-0.012500
3.616667	1	-0.011875
3.633333	1	-0.010750
3.650000	1	-0.009000
3.666667	1	-0.007250
3.683333	1	-0.005375
3.700000	1	-0.004250
3.716667	1	-0.002750
3.733333	1	-0.000875
3.750000	1	0.001000
3.766667	1	0.002875
3.783333	1	0.005375
3.800000	1	0.007250
3.816667	1	0.008875
3.833333	1	0.011250
3.850000	1	0.013375
3.866667	1	0.015250
3.883333	1	0.017250
3.900000	1	0.019125
3.916667	1	0.021250
3.933333	1	0.022875
3.950000	1	0.024000
3.966667	1	0.025250
3.983333	1	0.027000
4.000000	1	0.028750
4.016667	1	0.030125
4.033333	1	0.032125
4.050000	1	0.033125
4.066667	1	0.034125
4.083333	1	0.034875
4.100000	1	0.035375
4.116667	1	0.036625
4.133333	1	0.037750
4.150000	1	0.038750
4.166667	1	0.039375
4.183333	1	0.040750
4.200000	1	0.041750
4.216667	1	0.042875
4.233333	1	0.044000
4.250000	1	0.045750
4.266667	1	0.046625
4.283333	1	0.048000
4.300000	1	0.049125
4.316667	1	0.051125
4.333333	1	0.052375
4.350000	1	0.054250
4.366667	1	0.055875
4.383333	1	0.057625
4.400000	1	0.059375
4.416667	1	0.061875
4.433333	1	0.063875
4.450000	1	0.066375
4.466667	1	0.069375
4.483333	1	0.071875
4.500000	1	0.074375
4.516667	1	0.077250
4.533333	1	0.080000
4.550000	1	0.082625
4.566667	1	0.085875
4.583333	1	0.088750
4.600000	1	0.091875
4.616667	1	0.094500
4.633333	1	0.097250
4.650000	1	0.100125
4.666667	1	0.103000
4.683333	1	0.105625
4.700000	1	0.108500
4.716667	1	0.112250
4.733333	1	0.115125
4.750000	1	0.117500
4.766667	1	0.120750
4.783333	1	0.123375
4.800000	1	0.126125
4.816667	1	0.128750
4.833333	1	0.131500
4.850000	1	0.135000
4.866667	1	0.137875
4.883333	1	0.141625
4.900000	1	0.144250
4.916667	1	0.147625
4.933333	1	0.150750
4.950000	1	0.153750
4.966667	1	0.157750
4.983333	1	0.161625
5.000000	1	0.165500
5.016667	1	0.168250
5.033333	1	0.171750
5.050000	1	0.174250
5.066667	1	0.177625
5.083333	1	0.181250
5.100000	1	0.184000
5.116667	1	0.187250
5.133333	1	0.191000
5.150000	1	0.193750
5.166667	1	0.196250
5.183333	1	0.198750
5.200000	1	0.201375
5.216667	1	0.203500
5.233333	1	0.205750
5.250000	1	0.207500
5.266667	1	0.208875
5.283333	1	0.210625
5.300000	1	0.211250
5.316667	1	0.212125
5.333333	1	0.212625
5.350000	1	0.212125
5.366667	1	0.211625
5.383333	1	0.210250
5.400000	1	0.209375
5.416667	1	0.207375
5.433333	1	0.205125
5.450000	1	0.202875
5.466667	1	0.200125
5.483333	1	0.196000
5.500000	1	0.191750
5.516667	1	0.186750
5.533333	1	0.182375
5.550000	1	0.177125
5.566667	1	0.170875
5.583333	1	0.164375
5.600000	1	0.158500
5.616667	1	0.151750
5.633333	1	0.144625
5.650000	1	0.138000
5.666667	1	0.130125
5.683333	1	0.122875
5.700000	1	0.115250
5.716667	1	0.107625
5.733333	1	0.100375
5.750000	1	0.092875
5.766667	1	0.085500
5.783333	1	0.078250
5.800000	1	0.071250
5.816667	1	0.064750
5.833333	1	0.058000
5.850000	1	0.052250
5.866667	1	0.046875
5.883333	1	0.041375
5.900000	1	0.036625
5.916667	1	0.032750
5.933333	1	0.028500
5.950000	1	0.024250
5.966667	1	0.020625
5.983333	1	0.017750
6.000000	1	0.015250
6.016667	1	0.013125
6.033333	1	0.011000
6.050000	1	0.009375
6.066667	1	0.008000
6.083333	1	0.006875
6.100000	1	0.006250
6.116667	1	0.006375
6.133333	1	0.006000
6.150000	1	0.006125
6.166667	1	0.006125
6.183333	1	0.005625
6.200000	1	0.006500
6.216667	1	0.007375
6.233333	1	0.008000
6.250000	1	0.008500
6.266667	1	0.009250
6.283333	1	0.010000
6.300000	1	0.011500
6.316667	1	0.012375
6.333333	1	0.013375
6.350000	1	0.014625
6.366667	1	0.015750
6.383333	1	0.017000
6.400000	1	0.018375
6.416667	1	0.019625
6.433333	1	0.021250
6.450000	1	0.022250
6.466667	1	0.023375
6.483333	1	0.025250
6.500000	1	0.026750
6.516667	1	0.028125
6.533333	1	0.030125
6.550000	1	0.032500
6.566667	1	0.034000
6.583333	1	0.036500
6.600000	1	0.039000
6.616667	1	0.041375
6.633333	1	0.043875
6.650000	1	0.046125
6.666667	1	0.049000
6.683333	1	0.051625
6.700000	1	0.054000
6.716667	1	0.056625
6.733333	1	0.058750
6.750000	1	0.061875
6.766667	1	0.064875
6.783333	1	0.067375
6.800000	1	0.070250
6.816667	1	0.073000
6.833333	1	0.075500
6.850000	1	0.079000
6.866667	1	0.082000
6.883333	1	0.084625
6.900000	1	0.087625
6.916667	1	0.089625
6.933333	1	0.091875
6.950000	1	0.094500
6.966667	1	0.096500
6.983333	1	0.098625
7.000000	1	0.100250
7.016667	1	0.101125
7.033333	1	0.102500
7.050000	1	0.103875
7.066667	1	0.104875
7.083333	1	0.105625
7.100000	1	0.106000
7.116667	1	0.106375
7.133333	1	0.106625
7.150000	1	0.106125
7.166667	1	0.105750
7.183333	1	0.104875
7.200000	1	0.103750
7.216667	1	0.102875
7.233333	1	0.101375
7.250000	1	0.099875
7.266667	1	0.097625
7.283333	1	0.095750
7.300000	1	0.093625
7.316667	1	0.091250
7.333333	1	0.089125
7.350000	1	0.086500
7.366667	1	0.083125
7.383333	1	0.079875
7.400000	1	0.077000
7.416667	1	0.074375
7.433333	1	0.071125
7.450000	1	0.067125
7.466667	1	0.063750
7.483333	1	0.060625
7.500000	1	0.057000
7.516667	1	0.053500
7.533333	1	0.050000
7.550000	1	0.046375
7.566667	1	0.042125
7.583333	1	0.038500
7.600000	1	0.034625
7.616667	1	0.030750
7.633333	1	0.027500
7.650000	1	0.023125
7.666667	1	0.019250
7.683333	1	0.015375
7.700000	1	0.012000
7.716667	1	0.008625
7.733333	1	0.005750
7.750000	1	0.002250
7.766667	1	-0.000375
7.783333	1	-0.003625
7.800000	1	-0.006125
7.816667	1	-0.009250
7.833333	1	-0.012125
7.850000	1	-0.014625
7.866667	1	-0.016500
7.883333	1	-0.018750
7.900000	1	-0.020750
7.916667	1	-0.022625
7.933333	1	-0.024625
7.950000	1	-0.025875
7.966667	1	-0.027125
7.983333	1	-0.029125
8.000000	1	-0.030375
8.016667	1	-0.031250
8.033333	1	-0.032125
8.050000	1	-0.032750
8.066667	1	-0.033875
8.083333	1	-0.033875
8.100000	1	-0.033250
8.116667	1	-0.033375
8.133333	1	-0.032750
8.150000	1	-0.032625
8.166667	1	-0.032375
8.183333	1	-0.031375
8.200000	1	-0.030125
8.216667	1	-0.030000
8.233333	1	-0.028875
8.250000	1	-0.027875
8.266667	1	-0.027250
8.283333	1	-0.026000
8.300000	1	-0.024500
8.316667	1	-0.023625
8.333333	1	-0.022000
8.350000	1	-0.021125
8.366667	1	-0.019750
8.383333	1	-0.018750
8.400000	1	-0.018125
8.416667	1	-0.016875
8.433333	1	-0.015875
8.450000	1	-0.014375
8.466667	1	-0.013125
8.483333	1	-0.012750
8.500000	1	-0.011750
8.516667	1	-0.010625
8.533333	1	-0.009625
8.550000	1	-0.009000
8.566667	1	-0.009125
8.583333	1	-0.008750
8.600000	1	-0.008125
8.616667	1	-0.008250
8.633333	1	-0.008375
8.650000	1	-0.008750
8.666667	1	-0.009750
8.683333	1	-0.010500
8.700000	1	-0.010500
8.716667	1	-0.010500
8.733333	1	-0.011625
8.750000	1	-0.012375
8.766667	1	-0.013625
8.783333	1	-0.014375
8.800000	1	-0.015375
8.816667	1	-0.016125
8.833333	1	-0.017250
8.850000	1	-0.018625
8.866667	1	-0.019875
8.883333	1	-0.021250
8.900000	1	-0.022375
8.916667	1	-0.023875
8.933333	1	-0.025625
8.950000	1	-0.026875
8.966667	1	-0.028250
8.983333	1	-0.029375
9.000000	1	-0.030625
9.016667	1	-0.032375
9.033333	1	-0.033125
9.050000	1	-0.035000
9.066667	1	-0.036750
9.083333	1	-0.038250
9.100000	1	-0.039500
9.116667	1	-0.040750
9.133333	1	-0.042250
9.150000	1	-0.043750
9.166667	1	-0.044875
9.183333	1	-0.045875
9.200000	1	-0.047125
9.216667	1	-0.048375
9.233333	1	-0.049000
9.250000	1	-0.050250
9.266667	1	-0.051000
9.283333	1	-0.051125
9.300000	1	-0.051750
9.316667	1	-0.053250
9.333333	1	-0.053875
9.350000	1	-0.055500
9.366667	1	-0.056250
9.383333	1	-0.057500
9.400000	1	-0.058750
9.416667	1	-0.060000
9.433333	1	-0.061500
9.450000	1	-0.062875
9.466667	1	-0.063375
9.483333	1	-0.064875
9.500000	1	-0.066125
9.516667	1	-0.068125
9.533333	1	-0.069875
9.550000	1	-0.071000
9.566667	1	-0.072875
9.583333	1	-0.073750
9.600000	1	-0.075250
9.616667	1	-0.076500
9.633333	1	-0.077375
9.650000	1	-0.079375
9.666667	1	-0.080625
9.683333	1	-0.082750
9.700000	1	-0.083500
9.716667	1	-0.085125
9.733333	1	-0.085875
9.750000	1	-0.087250
9.766667	1	-0.088250
9.783333	1	-0.089875
9.800000	1	-0.090250
9.816667	1	-0.090625
9.833333	1	-0.091625
9.850000	1	-0.091375
9.866667	1	-0.091625
9.883333	1	-0.092000
9.900000	1	-0.092625
9.916667	1	-0.093000
9.933333	1	-0.093125
9.950000	1	-0.092875
9.966667	1	-0.092250
9.983333	1	-0.091875
10.000000	1	-0.091500
10.016667	1	-0.090750
10.033333	1	-0.090375
10.050000	1	-0.089750
10.066667	1	-0.088750
10.083333	1	-0.087750
10.100000	1	-0.086000
10.116667	1	-0.083625
10.133333	1	-0.080500
10.150000	1	-0.076875
10.166667	1	-0.072750
10.183333	1	-0.067000
10.200000	1	-0.061000
10.216667	1	-0.054000
10.233333	1	-0.044625
10.250000	1	-0.034625
10.266667	1	-0.022500
10.283333	1	-0.009125
10.300000	1	0.006250
10.316667	1	0.023375
10.333333	1	0.041625
10.350000	1	0.059500
10.366667	1	0.074125
10.383333	1	0.082000
10.400000	1	0.079875
10.416667	1	0.063625
10.433333	1	0.030875
10.450000	1	-0.016250
10.466667	1	-0.070375
10.483333	1	-0.113375
10.500000	1	-0.120375
10.516667	1	-0.054750
10.533333	1	0.129750
10.550000	1	0.487125
10.566667	1	1.074250
10.583333	1	1.951500
10.600000	1	3.170500
10.616667	1	4.778625
10.633333	1	6.809750
10.650000	1	9.286750
10.666667	1	12.222875
10.683333	1	15.621875
10.700000	1	19.477250
10.716667	1	23.770500
10.733333	1	28.472125
10.750000	1	33.543875
10.766667	1	38.933625
10.783333	1	44.583625
10.800000	1	50.424875
10.816667	1	56.364375
10.833333	1	62.269000
10.850000	1	67.959000
10.866667	1	73.175375
10.883333	1	77.548250
10.900000	1	80.591000
10.916667	1	81.758000
10.933333	1	80.570875
10.950000	1	76.798875
10.966667	1	70.621375
10.983333	1	62.636375
11.000000	1	53.706125
11.016667	1	44.713250
11.033333	1	36.357875
11.050000	1	29.043375
11.066667	1	22.919500
11.083333	1	17.960000
11.100000	1	14.043500
11.116667	1	11.009375
11.133333	1	8.692375
11.150000	1	6.941875
11.166667	1	5.626625
11.183333	1	4.640250
11.200000	1	3.900250
11.216667	1	3.341125
11.233333	1	2.916125
11.250000	1	2.588625
11.266667	1	2.333625
11.283333	1	2.132125
11.300000	1	1.969750
11.316667	1	1.836625
11.333333	1	1.725000
11.350000	1	1.629375
11.366667	1	1.546750
11.383333	1	1.473750
11.400000	1	1.408125
11.416667	1	1.350000
11.433333	1	1.298500
11.450000	1	1.252500
11.466667	1	1.211500
11.483333	1	1.175875
11.500000	1	1.145625
11.516667	1	1.119875
11.533333	1	1.099750
11.550000	1	1.083250
11.566667	1	1.071875
11.583333	1	1.065375
11.600000	1	1.063500
11.616667	1	1.065750
11.633333	1	1.072875
11.650000	1	1.083750
11.666667	1	1.099375
11.683333	1	1.118750
11.700000	1	1.141750
11.716667	1	1.167125
11.733333	1	1.194000
11.750000	1	1.221250
11.766667	1	1.247375
11.783333	1	1.271125
11.800000	1	1.291125
11.816667	1	1.305500
11.833333	1	1.315250
11.850000	1	1.319500
11.866667	1	1.317875
11.883333	1	1.310500
11.900000	1	1.298750
11.916667	1	1.282750
11.933333	1	1.264750
11.950000	1	1.245000
11.966667	1	1.224250
11.983333	1	1.204000
12.000000	1	1.184125
12.016667	1	1.165125
12.033333	1	1.148000
12.050000	1	1.132750
12.066667	1	1.119875
12.083333	1	1.108750
12.100000	1	1.098500
12.116667	1	1.090750
12.133333	1	1.084375
12.150000	1	1.079500
12.166667	1	1.075750
12.183333	1	1.072625
12.200000	1	1.071750
12.216667	1	1.072250
12.233333	1	1.075125
12.250000	1	1.079875
12.266667	1	1.088125
12.283333	1	1.101375
12.300000	1	1.122500
12.316667	1	1.152000
12.333333	1	1.196625
12.350000	1	1.260875
12.366667	1	1.353750
12.383333	1	1.486250
12.400000	1	1.672625
12.416667	1	1.931125
12.433333	1	2.286625
12.450000	1	2.768625
12.466667	1	3.415625
12.483333	1	4.271750
12.500000	1	5.389250
12.516667	1	6.824750
12.533333	1	8.642000
12.550000	1	10.902875
12.566667	1	13.668625
12.583333	1	16.991375
12.600000	1	20.902375
12.616667	1	25.406250
12.633333	1	30.482500
12.650000	1	36.073250
12.666667	1	42.072125
12.683333	1	48.322875
12.700000	1	54.622250
12.716667	1	60.730625
12.733333	1	66.386625
12.750000	1	71.331375
12.766667	1	75.328125
12.783333	1	78.184500
12.800000	1	79.774625
12.816667	1	80.050625
12.833333	1	79.043250
12.850000	1	76.863125
12.866667	1	73.685250
12.883333	1	69.738625
12.900000	1	65.279625
12.916667	1	60.564250
12.933333	1	55.833625
12.950000	1	51.289750
12.966667	1	47.088750
12.983333	1	43.338125
13.000000	1	40.102250
13.016667	1	37.401125
13.033333	1	35.223125
13.050000	1	33.534875
13.066667	1	32.292125
13.083333	1	31.443125
13.100000	1	30.935000
13.116667	1	30.716500
13.133333	1	30.740375
13.150000	1	30.965500
13.166667	1	31.357500
13.183333	1	31.885000
13.200000	1	32.523375
13.216667	1	33.253375
13.233333	1	34.061875
13.250000	1	34.935500
13.266667	1	35.865250
13.283333	1	36.843500
13.300000	1	37.865625
13.316667	1	38.926500
13.333333	1	40.021875
13.350000	1	41.151125
13.366667	1	42.311250
13.383333	1	43.501125
13.400000	1	44.719500
13.416667	1	45.966750
13.433333	1	47.243500
13.450000	1	48.551125
13.466667	1	49.888250
13.483333	1	51.256625
13.500000	1	52.654875
13.516667	1	54.083375
13.533333	1	55.542875
13.550000	1	57.032625
13.566667	1	58.554625
13.583333	1	60.106875
13.600000	1	61.690000
13.616667	1	63.305500
13.633333	1	64.955875
13.650000	1	66.641375
13.666667	1	68.363375
13.683333	1	70.121625
13.700000	1	71.916625
13.716667	1	73.749750
13.733333	1	75.618375
13.750000	1	77.511375
13.766667	1	79.385500
13.783333	1	81.131750
13.800000	1	82.562000
13.816667	1	83.452875
13.833333	1	83.612375
13.850000	1	82.930125
13.866667	1	81.345250
13.883333	1	78.774750
13.900000	1	75.051750
13.916667	1	69.962375
13.933333	1	63.385250
13.950000	1	55.500250
13.966667	1	46.880750
13.983333	1	38.347500
14.000000	1	30.640000
14.016667	1	24.176125
14.033333	1	19.031875
14.050000	1	15.064625
14.066667	1	12.058250
14.083333	1	9.803625
14.100000	1	8.127875
14.116667	1	6.890500
14.133333	1	5.981500
14.150000	1	5.310625
14.166667	1	4.812875
14.183333	1	4.438375
14.200000	1	4.151750
14.216667	1	3.927250
14.233333	1	3.747500
14.250000	1	3.599375
14.266667	1	3.475375
14.283333	1	3.369000
14.300000	1	3.276250
14.316667	1	3.193875
14.333333	1	3.120000
14.350000	1	3.052750
14.366667	1	2.991750
14.383333	1	2.936000
14.400000	1	2.884375
14.416667	1	2.836375
14.433333	1	2.792375
14.450000	1	2.750500
14.466667	1	2.712375
14.483333	1	2.676875
14.500000	1	2.643750
14.516667	1	2.612500
14.533333	1	2.582750
14.550000	1	2.555875
14.566667	1	2.528625
14.583333	1	2.502500
14.600000	1	2.477375
14.616667	1	2.452250
14.633333	1	2.427375
14.650000	1	2.402125
14.666667	1	2.375750
14.683333	1	2.348500
14.700000	1	2.321250
14.716667	1	2.293000
14.733333	1	2.264500
14.750000	1	2.235250
14.766667	1	2.205875
14.783333	1	2.176250
14.800000	1	2.147000
14.816667	1	2.117000
14.833333	1	2.087750
14.850000	1	2.058500
14.866667	1	2.029750
14.883333	1	2.000750
14.900000	1	1.972125
14.916667	1	1.944125
14.933333	1	1.917000
14.950000	1	1.889750
14.966667	1	1.863750
14.983333	1	1.837375
15.000000	1	1.812375
15.016667	1	1.787625
15.033333	1	1.763500
15.050000	1	1.739875
15.066667	1	1.717000
15.083333	1	1.695125
15.100000	1	1.674000
15.116667	1	1.653625
15.133333	1	1.635125
15.150000	1	1.616500
15.166667	1	1.599375
15.183333	1	1.583875
15.200000	1	1.568500
15.216667	1	1.555375
15.233333	1	1.543500
15.250000	1	1.533875
15.266667	1	1.525125
15.283333	1	1.517875
15.300000	1	1.513750
15.316667	1	1.512375
15.333333	1	1.513500
15.350000	1	1.517250
15.366667	1	1.524250
15.383333	1	1.535500
15.400000	1	1.550875
15.416667	1	1.569125
15.433333	1	1.590875
15.450000	1	1.616750
15.466667	1	1.645000
15.483333	1	1.674875
15.500000	1	1.705500
15.516667	1	1.735875
15.533333	1	1.763750
15.550000	1	1.787875
15.566667	1	1.808000
15.583333	1	1.820875
15.600000	1	1.825625
15.616667	1	1.822625
15.633333	1	1.812000
15.650000	1	1.793000
15.666667	1	1.767750
15.683333	1	1.736375
15.700000	1	1.700500
15.716667	1	1.661750
15.733333	1	1.620875
15.750000	1	1.579875
15.766667	1	1.540000
15.783333	1	1.500875
15.800000	1	1.463000
15.816667	1	1.427250
15.833333	1	1.393125
15.850000	1	1.359750
15.866667	1	1.328500
15.883333	1	1.298750
15.900000	1	1.269625
15.916667	1	1.241875
15.933333	1	1.215250
15.950000	1	1.190625
15.966667	1	1.167375
15.983333	1	1.145750
16.000000	1	1.126125
16.016667	1	1.108875
16.033333	1	1.094250
16.050000	1	1.081500
16.066667	1	1.070875
16.083333	1	1.062250
16.100000	1	1.055875
16.116667	1	1.051250
16.133333	1	1.048500
16.150000	1	1.047000
16.166667	1	1.045625
16.183333	1	1.045875
16.200000	1	1.047125
16.216667	1	1.047500
16.233333	1	1.048250
16.250000	1	1.048875
16.266667	1	1.048750
16.283333	1	1.049000
16.300000	1	1.048250
16.316667	1	1.046625
16.333333	1	1.044875
16.350000	1	1.041625
16.366667	1	1.039250
16.383333	1	1.035625
16.400000	1	1.031625
16.416667	1	1.027000
16.433333	1	1.022500
16.450000	1	1.018500
16.466667	1	1.015125
16.483333	1	1.012125
16.500000	1	1.010375
16.516667	1	1.009750
16.533333	1	1.010750
16.550000	1	1.013000
16.566667	1	1.016750
16.583333	1	1.021625
16.600000	1	1.028500
16.616667	1	1.036125
16.633333	1	1.043500
16.650000	1	1.052125
16.666667	1	1.061000
16.683333	1	1.069375
16.700000	1	1.078125
16.716667	1	1.084875
16.733333	1	1.089875
16.750000	1	1.095375
16.766667	1	1.099125
16.783333	1	1.102500
16.800000	1	1.105625
16.816667	1	1.108125
16.833333	1	1.110750
16.850000	1	1.112750
16.866667	1	1.114750
16.883333	1	1.117375
16.900000	1	1.120125
16.916667	1	1.121875
16.933333	1	1.123875
16.950000	1	1.125750
16.966667	1	1.127750
16.983333	1	1.127750
17.000000	1	1.127625
17.016667	1	1.126250
17.033333	1	1.124500
17.050000	1	1.121625
17.066667	1	1.118000
17.083333	1	1.114625
17.100000	1	1.110875
17.116667	1	1.107000
17.133333	1	1.103000
17.150000	1	1.099250
17.166667	1	1.096375
17.183333	1	1.094500
17.200000	1	1.093750
17.216667	1	1.093375
17.233333	1	1.094375
17.250000	1	1.095875
17.266667	1	1.098125
17.283333	1	1.101250
17.300000	1	1.105375
17.316667	1	1.109875
17.333333	1	1.114875
17.350000	1	1.120250
17.366667	1	1.126125
17.383333	1	1.131625
17.400000	1	1.136625
17.416667	1	1.141500
17.433333	1	1.145875
17.450000	1	1.148625
17.466667	1	1.150000
17.483333	1	1.149625
17.500000	1	1.147375
17.516667	1	1.143375
17.533333	1	1.137625
17.550000	1	1.130000
17.566667	1	1.120875
17.583333	1	1.109500
17.600000	1	1.096500
17.616667	1	1.082000
17.633333	1	1.066375
17.650000	1	1.049250
17.666667	1	1.031625
17.683333	1	1.012875
17.700000	1	0.993875
17.716667	1	0.974875
17.733333	1	0.956250
17.750000	1	0.938000
17.766667	1	0.920625
17.783333	1	0.904125
17.800000	1	0.888000
17.816667	1	0.872125
17.833333	1	0.857375
17.850000	1	0.843875
17.866667	1	0.830875
17.883333	1	0.818250
17.900000	1	0.806875
17.916667	1	0.796375
17.933333	1	0.786875
17.950000	1	0.777500
17.966667	1	0.769000
17.983333	1	0.761375
18.000000	1	0.754375
18.016667	1	0.748375
18.033333	1	0.742125
18.050000	1	0.736875
18.066667	1	0.731500
18.083333	1	0.726250
18.100000	1	0.720625
18.116667	1	0.715875
18.133333	1	0.711375
18.150000	1	0.706875
18.166667	1	0.701875
18.183333	1	0.697875
18.200000	1	0.694250
18.216667	1	0.690875
18.233333	1	0.688125
18.250000	1	0.685875
18.266667	1	0.684250
18.283333	1	0.683125
18.300000	1	0.682625
18.316667	1	0.683000
18.333333	1	0.684375
18.350000	1	0.685625
18.366667	1	0.687500
18.383333	1	0.690000
18.400000	1	0.693875
18.416667	1	0.697500
18.433333	1	0.702000
18.450000	1	0.707250
18.466667	1	0.712750
18.483333	1	0.719750
18.500000	1	0.727750
18.516667	1	0.737625
18.533333	1	0.747625
18.550000	1	0.759000
18.566667	1	0.772375
18.583333	1	0.787750
18.600000	1	0.805500
18.616667	1	0.824500
18.633333	1	0.845500
18.650000	1	0.868375
18.666667	1	0.893250
18.683333	1	0.920500
18.700000	1	0.949250
18.716667	1	0.978875
18.733333	1	1.010375
18.750000	1	1.042500
18.766667	1	1.075625
18.783333	1	1.109625
18.800000	1	1.143125
18.816667	1	1.176375
18.833333	1	1.208250
18.850000	1	1.239250
18.866667	1	1.267875
18.883333	1	1.293750
18.900000	1	1.316625
18.916667	1	1.334750
18.933333	1	1.347875
18.950000	1	1.356875
18.966667	1	1.359375
18.983333	1	1.356125
19.000000	1	1.346500
19.016667	1	1.330625
19.033333	1	1.307375
19.050000	1	1.278750
19.066667	1	1.244250
19.083333	1	1.205125
19.100000	1	1.162750
19.116667	1	1.116000
19.133333	1	1.067625
19.150000	1	1.018125
19.166667	1	0.968000
19.183333	1	0.918125
19.200000	1	0.869875
19.216667	1	0.824250
19.233333	1	0.781875
19.250000	1	0.743000
19.266667	1	0.708500
19.283333	1	0.678500
19.300000	1	0.654000
19.316667	1	0.634250
19.333333	1	0.619875
19.350000	1	0.610625
19.366667	1	0.606000
19.383333	1	0.606500
19.400000	1	0.611750
19.416667	1	0.621625
19.433333	1	0.635875
19.450000	1	0.653875
19.466667	1	0.674875
19.483333	1	0.699875
19.500000	1	0.727000
19.516667	1	0.756875
19.533333	1	0.788125
19.550000	1	0.820125
19.566667	1	0.852375
19.583333	1	0.883750
19.600000	1	0.914000
19.616667	1	0.941375
19.633333	1	0.964750
19.650000	1	0.983875
19.666667	1	0.998875
19.683333	1	1.008750
19.700000	1	1.013375
19.716667	1	1.011750
19.733333	1	1.004625
19.750000	1	0.992875
19.766667	1	0.975375
19.783333	1	0.954625
19.800000	1	0.929875
19.816667	1	0.901875
19.833333	1	0.871750
19.850000	1	0.840625
19.866667	1	0.807875
19.883333	1	0.775625
19.900000	1	0.744375
19.916667	1	0.713750
19.933333	1	0.684375
19.950000	1	0.657625
19.966667	1	0.633125
19.983333	1	0.611000
20.000000	1	0.591125
20.016667	1	0.573250
20.033333	1	0.557500
20.050000	1	0.544750
20.066667	1	0.534375
20.083333	1	0.526875
20.100000	1	0.521625
20.116667	1	0.518750
20.133333	1	0.518375
20.150000	1	0.520625
20.166667	1	0.524250
20.183333	1	0.531375
20.200000	1	0.538875
20.216667	1	0.548875
20.233333	1	0.559500
20.250000	1	0.572125
20.266667	1	0.585125
20.283333	1	0.599500
20.300000	1	0.613500
20.316667	1	0.627625
20.333333	1	0.640750
20.350000	1	0.653625
20.366667	1	0.664375
20.383333	1	0.673000
20.400000	1	0.680000
20.416667	1	0.685125
20.433333	1	0.688125
20.450000	1	0.689125
20.466667	1	0.689375
20.483333	1	0.688000
20.500000	1	0.687125
20.516667	1	0.686125
20.533333	1	0.686500
20.550000	1	0.688875
20.566667	1	0.694000
20.583333	1	0.703125
20.600000	1	0.716875
20.616667	1	0.735125
20.633333	1	0.759875
20.650000	1	0.790625
20.666667	1	0.828125
20.683333	1	0.872000
20.700000	1	0.921750
20.716667	1	0.978000
20.733333	1	1.038750
20.750000	1	1.103625
20.766667	1	1.171250
20.783333	1	1.240625
20.800000	1	1.309500
20.816667	1	1.375875
20.833333	1	1.436750
20.850000	1	1.491250
20.866667	1	1.537000
20.883333	1	1.572500
20.900000	1	1.595875
20.916667	1	1.606375
20.933333	1	1.603875
20.950000	1	1.588250
20.966667	1	1.559375
20.983333	1	1.518250
21.000000	1	1.466500
21.016667	1	1.406500
21.033333	1	1.339125
21.050000	1	1.266625
21.066667	1	1.190875
21.083333	1	1.114125
21.100000	1	1.037875
21.116667	1	0.964000
21.133333	1	0.893500
21.150000	1	0.827500
21.166667	1	0.766625
21.183333	1	0.710875
21.200000	1	0.659750
21.216667	1	0.614500
21.233333	1	0.575500
21.250000	1	0.540750
21.266667	1	0.510625
21.283333	1	0.484375
21.300000	1	0.462750
21.316667	1	0.444750
21.333333	1	0.429125
21.350000	1	0.416125
21.366667	1	0.405250
21.383333	1	0.395750
21.400000	1	0.388500
21.416667	1	0.382500
21.433333	1	0.377875
21.450000	1	0.373750
21.466667	1	0.370625
21.483333	1	0.369000
21.500000	1	0.367875
21.516667	1	0.367875
21.533333	1	0.368250
21.550000	1	0.369750
21.566667	1	0.372375
21.583333	1	0.375125
21.600000	1	0.380250
21.616667	1	0.385875
21.633333	1	0.393000
21.650000	1	0.401875
21.666667	1	0.412625
21.683333	1	0.425125
21.700000	1	0.439125
21.716667	1	0.455250
21.733333	1	0.473375
21.750000	1	0.493125
21.766667	1	0.513875
21.783333	1	0.537125
21.800000	1	0.562500
21.816667	1	0.589750
21.833333	1	0.617875
21.850000	1	0.647875
21.866667	1	0.678875
21.883333	1	0.711375
21.900000	1	0.744750
21.916667	1	0.778125
21.933333	1	0.811500
21.950000	1	0.843500
21.966667	1	0.875125
21.983333	1	0.904875
22.000000	1	0.932375
22.016667	1	0.956250
22.033333	1	0.976375
22.050000	1	0.992625
22.066667	1	1.004750
22.083333	1	1.012375
22.100000	1	1.015875
22.116667	1	1.013500
22.133333	1	1.006875
22.150000	1	0.994750
22.166667	1	0.978500
22.183333	1	0.958250
22.200000	1	0.933750
22.216667	1	0.907000
22.233333	1	0.876875
22.250000	1	0.846000
22.266667	1	0.813250
22.283333	1	0.779250
22.300000	1	0.745250
22.316667	1	0.710750
22.333333	1	0.676500
22.350000	1	0.643250
22.366667	1	0.610750
22.383333	1	0.579125
22.400000	1	0.549750
22.416667	1	0.520625
22.433333	1	0.493250
22.450000	1	0.466750
22.466667	1	0.442375
22.483333	1	0.419750
22.500000	1	0.399750
22.516667	1	0.380750
22.533333	1	0.363375
22.550000	1	0.347375
22.566667	1	0.333250
22.583333	1	0.320375
22.600000	1	0.308125
22.616667	1	0.297375
22.633333	1	0.288000
22.650000	1	0.279375
22.666667	1	0.271750
22.683333	1	0.264250
22.700000	1	0.257250
22.716667	1	0.251875
22.733333	1	0.246500
22.750000	1	0.241000
22.766667	1	0.236125
22.783333	1	0.232125
22.800000	1	0.228000
22.816667	1	0.224625
22.833333	1	0.221000
22.850000	1	0.217625
22.866667	1	0.214250
22.883333	1	0.211750
22.900000	1	0.209125
22.916667	1	0.206875
22.933333	1	0.205000
22.950000	1	0.203375
22.966667	1	0.201125
22.983333	1	0.200125
23.000000	1	0.199250
23.016667	1	0.198375
23.033333	1	0.197750
23.050000	1	0.198500
23.066667	1	0.198250
23.083333	1	0.198750
23.100000	1	0.199625
23.116667	1	0.200875
23.133333	1	0.202000
23.150000	1	0.203375
23.166667	1	0.205375
23.183333	1	0.207250
23.200000	1	0.210000
23.216667	1	0.213375
23.233333	1	0.217875
23.250000	1	0.222375
23.266667	1	0.227625
23.283333	1	0.233625
23.300000	1	0.242250
23.316667	1	0.252000
23.333333	1	0.263875
23.350000	1	0.278125
23.366667	1	0.295875
23.383333	1	0.317250
23.400000	1	0.343500
23.416667	1	0.374625
23.433333	1	0.411375
23.450000	1	0.455250
23.466667	1	0.505750
23.483333	1	0.564500
23.500000	1	0.631875
23.516667	1	0.709500
23.533333	1	0.797250
23.550000	1	0.895875
23.566667	1	1.005500
23.583333	1	1.127250
23.600000	1	1.261500
23.616667	1	1.408000
23.633333	1	1.567125
23.650000	1	1.738000
23.666667	1	1.920125
23.683333	1	2.113375
23.700000	1	2.315750
23.716667	1	2.525375
23.733333	1	2.741125
23.750000	1	2.959250
23.766667	1	3.177125
23.783333	1	3.390500
23.800000	1	3.596125
23.816667	1	3.789375
23.833333	1	3.968375
23.850000	1	4.127500
23.866667	1	4.263625
23.883333	1	4.372875
23.900000	1	4.453125
23.916667	1	4.502625
23.933333	1	4.520625
23.950000	1	4.505000
23.966667	1	4.456875
23.983333	1	4.377625
24.000000	1	4.269250
24.016667	1	4.135125
24.033333	1	3.978250
24.050000	1	3.801750
24.066667	1	3.610125
24.083333	1	3.407875
24.100000	1	3.197125
24.116667	1	2.983125
24.133333	1	2.769125
24.150000	1	2.558500
24.166667	1	2.352875
24.183333	1	2.156000
24.200000	1	1.968750
24.216667	1	1.792875
24.233333	1	1.629000
24.250000	1	1.478000
24.266667	1	1.340375
24.283333	1	1.215000
24.300000	1	1.101250
24.316667	1	0.999500
24.333333	1	0.908375
24.350000	1	0.828375
24.366667	1	0.757625
24.383333	1	0.696375
24.400000	1	0.642500
24.416667	1	0.595750
24.433333	1	0.555625
24.450000	1	0.521000
24.466667	1	0.491875
24.483333	1	0.467000
24.500000	1	0.446125
24.516667	1	0.428625
24.533333	1	0.413000
24.550000	1	0.399375
24.566667	1	0.388375
24.583333	1	0.379375
24.600000	1	0.371125
24.616667	1	0.363375
24.633333	1	0.355875
24.650000	1	0.349000
24.666667	1	0.343125
24.683333	1	0.338000
24.700000	1	0.331375
24.716667	1	0.326250
24.733333	1	0.319750
24.750000	1	0.313375
24.766667	1	0.307125
24.783333	1	0.300500
24.800000	1	0.294125
24.816667	1	0.287625
24.833333	1	0.282000
24.850000	1	0.276125
24.866667	1	0.270125
24.883333	1	0.264625
24.900000	1	0.259625
24.916667	1	0.255125
24.933333	1	0.250375
24.950000	1	0.245625
24.966667	1	0.241625
24.983333	1	0.237875
25.000000	1	0.234375
25.016667	1	0.231000
25.033333	1	0.227500
25.050000	1	0.224750
25.066667	1	0.222000
25.083333	1	0.219250
25.100000	1	0.217375
25.116667	1	0.214750
25.133333	1	0.212125
25.150000	1	0.209750
25.166667	1	0.207375
25.183333	1	0.205250
25.200000	1	0.203250
25.216667	1	0.201000
25.233333	1	0.199250
25.250000	1	0.197250
25.266667	1	0.195000
25.283333	1	0.192875
25.300000	1	0.191125
25.316667	1	0.189625
25.333333	1	0.187625
25.350000	1	0.186125
25.366667	1	0.184500
25.383333	1	0.182125
25.400000	1	0.180625
25.416667	1	0.178875
25.433333	1	0.177000
25.450000	1	0.175500
25.466667	1	0.174000
25.483333	1	0.172375
25.500000	1	0.170875
25.516667	1	0.168875
25.533333	1	0.167000
25.550000	1	0.165625
25.566667	1	0.164625
25.583333	1	0.162875
25.600000	1	0.161375
25.616667	1	0.160125
25.633333	1	0.158875
25.650000	1	0.157125
25.666667	1	0.155625
25.683333	1	0.154500
25.700000	1	0.153125
25.716667	1	0.151500
25.733333	1	0.150500
25.750000	1	0.150125
25.766667	1	0.149750
25.783333	1	0.149875
25.800000	1	0.149750
25.816667	1	0.149125
25.833333	1	0.150375
25.850000	1	0.151250
25.866667	1	0.152375
25.883333	1	0.154750
25.900000	1	0.157000
25.916667	1	0.160000
25.933333	1	0.163250
25.950000	1	0.165625
25.966667	1	0.169500
25.983333	1	0.173750
26.000000	1	0.178625
26.016667	1	0.183125
26.033333	1	0.187500
26.050000	1	0.193250
26.066667	1	0.198875
26.083333	1	0.204250
26.100000	1	0.209875
26.116667	1	0.215625
26.133333	1	0.221375
26.150000	1	0.226750
26.166667	1	0.232000
26.183333	1	0.236875
26.200000	1	0.241250
26.216667	1	0.245125
26.233333	1	0.248875
26.250000	1	0.251625
26.266667	1	0.254000
26.283333	1	0.255625
26.300000	1	0.256875
26.316667	1	0.258250
26.333333	1	0.259000
26.350000	1	0.259125
26.366667	1	0.258375
26.383333	1	0.256375
26.400000	1	0.254250
26.416667	1	0.252125
26.433333	1	0.249375
26.450000	1	0.246500
26.466667	1	0.243250
26.483333	1	0.239625
26.500000	1	0.236000
26.516667	1	0.232000
26.533333	1	0.227500
26.550000	1	0.222875
26.566667	1	0.218375
26.583333	1	0.214500
26.600000	1	0.210750
26.616667	1	0.206000
26.633333	1	0.202125
26.650000	1	0.198375
26.666667	1	0.195000
26.683333	1	0.190750
26.700000	1	0.187875
26.716667	1	0.185000
26.733333	1	0.181500
26.750000	1	0.178125
26.766667	1	0.175500
26.783333	1	0.172750
26.800000	1	0.170875
26.816667	1	0.168875
26.833333	1	0.167000
26.850000	1	0.165625
26.866667	1	0.164375
26.883333	1	0.164125
26.900000	1	0.163625
26.916667	1	0.162750
26.933333	1	0.162875
26.950000	1	0.163250
26.966667	1	0.163500
26.983333	1	0.164500
27.000000	1	0.165750
27.016667	1	0.167500
27.033333	1	0.170000
27.050000	1	0.173750
27.066667	1	0.178000
27.083333	1	0.183375
27.100000	1	0.189000
27.116667	1	0.196375
27.133333	1	0.204000
27.150000	1	0.213875
27.166667	1	0.225000
27.183333	1	0.238250
27.200000	1	0.254250
27.216667	1	0.271875
27.233333	1	0.292750
27.250000	1	0.316750
27.266667	1	0.344250
27.283333	1	0.375000
27.300000	1	0.410250
27.316667	1	0.449625
27.333333	1	0.494500
27.350000	1	0.544125
27.366667	1	0.599125
27.383333	1	0.659625
27.400000	1	0.726875
27.416667	1	0.801125
27.433333	1	0.882500
27.450000	1	0.970875
27.466667	1	1.067000
27.483333	1	1.171250
27.500000	1	1.283750
27.516667	1	1.403250
27.533333	1	1.530000
27.550000	1	1.664250
27.566667	1	1.805500
27.583333	1	1.952875
27.600000	1	2.106500
27.616667	1	2.263250
27.633333	1	2.424625
27.650000	1	2.588125
27.666667	1	2.751625
27.683333	1	2.914125
27.700000	1	3.073750
27.716667	1	3.228125
27.733333	1	3.375375
27.750000	1	3.514000
27.766667	1	3.640250
27.783333	1	3.752750
27.800000	1	3.850250
27.816667	1	3.929750
27.833333	1	3.990750
27.850000	1	4.030625
27.866667	1	4.049125
27.883333	1	4.045125
27.900000	1	4.018375
27.916667	1	3.969125
27.933333	1	3.897750
27.950000	1	3.805875
27.966667	1	3.695125
27.983333	1	3.567500
28.000000	1	3.424000
28.016667	1	3.267750
28.033333	1	3.101000
28.050000	1	2.926250
28.066667	1	2.746875
28.083333	1	2.564375
28.100000	1	2.382250
28.116667	1	2.202750
28.133333	1	2.027375
28.150000	1	1.858500
28.166667	1	1.696750
28.183333	1	1.544750
28.200000	1	1.401875
28.216667	1	1.269750
28.233333	1	1.148000
28.250000	1	1.037000
28.266667	1	0.935625
28.283333	1	0.845000
28.300000	1	0.764625
28.316667	1	0.693625
28.333333	1	0.631000
28.350000	1	0.577250
28.366667	1	0.531625
28.383333	1	0.492875
28.400000	1	0.460625
28.416667	1	0.433750
28.433333	1	0.413000
28.450000	1	0.396875
28.466667	1	0.384250
28.483333	1	0.375250
28.500000	1	0.370625
28.516667	1	0.368375
28.533333	1	0.367750
28.550000	1	0.369375
28.566667	1	0.373125
28.583333	1	0.378125
28.600000	1	0.385500
28.616667	1	0.393500
28.633333	1	0.401250
28.650000	1	0.409750
28.666667	1	0.418875
28.683333	1	0.427875
28.700000	1	0.436875
28.716667	1	0.445500
28.733333	1	0.453500
28.750000	1	0.461125
28.766667	1	0.468625
28.783333	1	0.474500
28.800000	1	0.480125
28.816667	1	0.485250
28.833333	1	0.488875
28.850000	1	0.491625
28.866667	1	0.493000
28.883333	1	0.493625
28.900000	1	0.493000
28.916667	1	0.491250
28.933333	1	0.488375
28.950000	1	0.484500
28.966667	1	0.480250
28.983333	1	0.474250
29.000000	1	0.466875
29.016667	1	0.459125
29.033333	1	0.450250
29.050000	1	0.441000
29.066667	1	0.430500
29.083333	1	0.419375
29.100000	1	0.407500
29.116667	1	0.395250
29.133333	1	0.382375
29.150000	1	0.368875
29.166667	1	0.355375
29.183333	1	0.341625
29.200000	1	0.328375
29.216667	1	0.314000
29.233333	1	0.300000
29.250000	1	0.286750
29.266667	1	0.272750
29.283333	1	0.259250
29.300000	1	0.246375
29.316667	1	0.234250
29.333333	1	0.221750
29.350000	1	0.209250
29.366667	1	0.197625
29.383333	1	0.186375
29.400000	1	0.176375
29.416667	1	0.167500
29.433333	1	0.158125
29.450000	1	0.149250
29.466667	1	0.140500
29.483333	1	0.132250
29.500000	1	0.124750
29.516667	1	0.117625
29.533333	1	0.111375
29.550000	1	0.105375
29.566667	1	0.099625
29.583333	1	0.095375
29.600000	1	0.091625
29.616667	1	0.087500
29.633333	1	0.084250
29.650000	1	0.081000
29.666667	1	0.077875
29.683333	1	0.075625
29.700000	1	0.073250
29.716667	1	0.071250
29.733333	1	0.069500
29.750000	1	0.067625
29.766667	1	0.066125
29.783333	1	0.065500
29.800000	1	0.065000
29.816667	1	0.064375
29.833333	1	0.064375
29.850000	1	0.063625
29.866667	1	0.062750
29.883333	1	0.062375
29.900000	1	0.062500
29.916667	1	0.062375
29.933333	1	0.061625
29.950000	1	0.062125
29.966667	1	0.062000
29.983333	1	0.061500
30.000000	1	0.061500
30.016667	1	0.061500
30.033333	1	0.061500
30.050000	1	0.062125
30.066667	1	0.061875
30.083333	1	0.062125
30.100000	1	0.061625
30.116667	1	0.061500
30.133333	1	0.061500
30.150000	1	0.061500
30.166667	1	0.061500
30.183333	1	0.061625
30.200000	1	0.061750
30.216667	1	0.062500
30.233333	1	0.063375
30.250000	1	0.063500
30.266667	1	0.063750
30.283333	1	0.064625
30.300000	1	0.065625
30.316667	1	0.067000
30.333333	1	0.068000
30.350000	1	0.069625
30.366667	1	0.071750
30.383333	1	0.073250
30.400000	1	0.075750
30.416667	1	0.079125
30.433333	1	0.081750
30.450000	1	0.084875
30.466667	1	0.088000
30.483333	1	0.092000
30.500000	1	0.096875
30.516667	1	0.101250
30.533333	1	0.106625
30.550000	1	0.112875
30.566667	1	0.120125
30.583333	1	0.127500
30.600000	1	0.135875
30.616667	1	0.144625
30.633333	1	0.154375
30.650000	1	0.165250
30.666667	1	0.176750
30.683333	1	0.189500
30.700000	1	0.203500
30.716667	1	0.219875
30.733333	1	0.237875
30.750000	1	0.257250
30.766667	1	0.278375
30.783333	1	0.302000
30.800000	1	0.328750
30.816667	1	0.359000
30.833333	1	0.392500
30.850000	1	0.429500
30.866667	1	0.470500
30.883333	1	0.516125
30.900000	1	0.566750
30.916667	1	0.622625
30.933333	1	0.684375
30.950000	1	0.752500
30.966667	1	0.827125
30.983333	1	0.909750
31.000000	1	1.000500
31.016667	1	1.098875
31.033333	1	1.205500
31.050000	1	1.320625
31.066667	1	1.444375
31.083333	1	1.576625
31.100000	1	1.718500
31.116667	1	1.868875
31.133333	1	2.027750
31.150000	1	2.194250
31.166667	1	2.368625
31.183333	1	2.549125
31.200000	1	2.735125
31.216667	1	2.926000
31.233333	1	3.120125
31.250000	1	3.315750
31.266667	1	3.510500
31.283333	1	3.703375
31.300000	1	3.893250
31.316667	1	4.076375
31.333333	1	4.251625
31.350000	1	4.416875
31.366667	1	4.569750
31.383333	1	4.709250
31.400000	1	4.832500
31.416667	1	4.937875
31.433333	1	5.023750
31.450000	1	5.089875
31.466667	1	5.134125
31.483333	1	5.155750
31.500000	1	5.155250
31.516667	1	5.132000
31.533333	1	5.086875
31.550000	1	5.020500
31.566667	1	4.934000
31.583333	1	4.827875
31.600000	1	4.704375
31.616667	1	4.563750
31.633333	1	4.409250
31.650000	1	4.242750
31.666667	1	4.066375
31.683333	1	3.882125
31.700000	1	3.692125
31.716667	1	3.497500
31.733333	1	3.301625
31.750000	1	3.104750
31.766667	1	2.908875
31.783333	1	2.715625
31.800000	1	2.528125
31.816667	1	2.345250
31.833333	1	2.168875
31.850000	1	2.000000
31.866667	1	1.838250
31.883333	1	1.686250
31.900000	1	1.543375
31.916667	1	1.408500
31.933333	1	1.283875
31.950000	1	1.167625
31.966667	1	1.059750
31.983333	1	0.960750
32.000000	1	0.869750
32.016667	1	0.786375
32.033333	1	0.710000
32.050000	1	0.641250
32.066667	1	0.579000
32.083333	1	0.522625
32.100000	1	0.472250
32.116667	1	0.426000
32.133333	1	0.384625
32.150000	1	0.347750
32.166667	1	0.315625
32.183333	1	0.286375
32.200000	1	0.259375
32.216667	1	0.236125
32.233333	1	0.214750
32.250000	1	0.195000
32.266667	1	0.178000
32.283333	1	0.161625
32.300000	1	0.147625
32.316667	1	0.134625
32.333333	1	0.122750
32.350000	1	0.111875
32.366667	1	0.101500
32.383333	1	0.092000
32.400000	1	0.083125
32.416667	1	0.075000
32.433333	1	0.067375
32.450000	1	0.060375
32.466667	1	0.053625
32.483333	1	0.047125
32.500000	1	0.041500
32.516667	1	0.035875
32.533333	1	0.030750
32.550000	1	0.025375
32.566667	1	0.020125
32.583333	1	0.016125
32.600000	1	0.012000
32.616667	1	0.008375
32.633333	1	0.005125
32.650000	1	0.001875
32.666667	1	-0.001250
32.683333	1	-0.003875
32.700000	1	-0.006375
32.716667	1	-0.008125
32.733333	1	-0.010125
32.750000	1	-0.011125
32.766667	1	-0.012125
32.783333	1	-0.013250
32.800000	1	-0.014500
32.816667	1	-0.015500
32.833333	1	-0.016500
32.850000	1	-0.016750
32.866667	1	-0.017250
32.883333	1	-0.017500
32.900000	1	-0.017375
32.916667	1	-0.017750
32.933333	1	-0.017875
32.950000	1	-0.017250
32.966667	1	-0.016875
32.983333	1	-0.017125
33.000000	1	-0.017125
33.016667	1	-0.017375
33.033333	1	-0.017500
33.050000	1	-0.018000
33.066667	1	-0.018375
33.083333	1	-0.018750
33.100000	1	-0.019125
33.116667	1	-0.019875
33.133333	1	-0.019875
33.150000	1	-0.019625
33.166667	1	-0.019625
33.183333	1	-0.019250
33.200000	1	-0.018750
33.216667	1	-0.017750
33.233333	1	-0.017000
33.250000	1	-0.015625
33.266667	1	-0.014000
33.283333	1	-0.011625
33.300000	1	-0.007875
33.316667	1	-0.003500
33.333333	1	0.001375
33.350000	1	0.007375
33.366667	1	0.014375
33.383333	1	0.022875
33.400000	1	0.032125
33.416667	1	0.042625
33.433333	1	0.055375
33.450000	1	0.069250
33.466667	1	0.084500
33.483333	1	0.101500
33.500000	1	0.120125
33.516667	1	0.140625
33.533333	1	0.162625
33.550000	1	0.186500
33.566667	1	0.212250
33.583333	1	0.240000
33.600000	1	0.269750
33.616667	1	0.301500
33.633333	1	0.335000
33.650000	1	0.370125
33.666667	1	0.407125
33.683333	1	0.446000
33.700000	1	0.486125
33.716667	1	0.527750
33.733333	1	0.571000
33.750000	1	0.614875
33.766667	1	0.660000
33.783333	1	0.707000
33.800000	1	0.753500
33.816667	1	0.800500
33.833333	1	0.846250
33.850000	1	0.892250
33.866667	1	0.937375
33.883333	1	0.981625
33.900000	1	1.024125
33.916667	1	1.064375
33.933333	1	1.102375
33.950000	1	1.138250
33.966667	1	1.171375
33.983333	1	1.200500
34.000000	1	1.226375
34.016667	1	1.247375
34.033333	1	1.264625
34.050000	1	1.277500
34.066667	1	1.286250
34.083333	1	1.291250
34.100000	1	1.290875
34.116667	1	1.286250
34.133333	1	1.277375
34.150000	1	1.264500
34.166667	1	1.246125
34.183333	1	1.224500
34.200000	1	1.199250
34.216667	1	1.170375
34.233333	1	1.139000
34.250000	1	1.104750
34.266667	1	1.068375
34.283333	1	1.029750
34.300000	1	0.989875
34.316667	1	0.948750
34.333333	1	0.906750
34.350000	1	0.865000
34.366667	1	0.823250
34.383333	1	0.781750
34.400000	1	0.741375
34.416667	1	0.700875
34.433333	1	0.661625
34.450000	1	0.622875
34.466667	1	0.586375
34.483333	1	0.551625
34.500000	1	0.518625
34.516667	1	0.486625
34.533333	1	0.457000
34.550000	1	0.429500
34.566667	1	0.403625
34.583333	1	0.379000
34.600000	1	0.355750
34.616667	1	0.334750
34.633333	1	0.314875
34.650000	1	0.297000
34.666667	1	0.279500
34.683333	1	0.263125
34.700000	1	0.249000
34.716667	1	0.235375
34.733333	1	0.224125
34.750000	1	0.213125
34.766667	1	0.202250
34.783333	1	0.193125
34.800000	1	0.184625
34.816667	1	0.176500
34.833333	1	0.169250
34.850000	1	0.162125
34.866667	1	0.155750
34.883333	1	0.150125
34.900000	1	0.143750
34.916667	1	0.138500
34.933333	1	0.134000
34.950000	1	0.129125
34.966667	1	0.124375
34.983333	1	0.121625
35.000000	1	0.118000
35.016667	1	0.115375
35.033333	1	0.112500
35.050000	1	0.109250
35.066667	1	0.106875
35.083333	1	0.104125
35.100000	1	0.102250
35.116667	1	0.100875
35.133333	1	0.099000
35.150000	1	0.097750
35.166667	1	0.096625
35.183333	1	0.095500
35.200000	1	0.094000
35.216667	1	0.092750
35.233333	1	0.091875
35.250000	1	0.091375
35.266667	1	0.090875
35.283333	1	0.091000
35.300000	1	0.090875
35.316667	1	0.091500
35.333333	1	0.091250
35.350000	1	0.090750
35.366667	1	0.091000
35.383333	1	0.091250
35.400000	1	0.091500
35.416667	1	0.091500
35.433333	1	0.091750
35.450000	1	0.091875
35.466667	1	0.090750
35.483333	1	0.091000
35.500000	1	0.091125
35.516667	1	0.090875
35.533333	1	0.090875
35.550000	1	0.090375
35.566667	1	0.090250
35.583333	1	0.089750
35.600000	1	0.088375
35.616667	1	0.087375
35.633333	1	0.086625
35.650000	1	0.085875
35.666667	1	0.084750
35.683333	1	0.084125
35.700000	1	0.082750
35.716667	1	0.082000
35.733333	1	0.081250
35.750000	1	0.080000
35.766667	1	0.079125
35.783333	1	0.077875
35.800000	1	0.077125
35.816667	1	0.076625
35.833333	1	0.075500
35.850000	1	0.074250
35.866667	1	0.073500
35.883333	1	0.073000
35.900000	1	0.072375
35.916667	1	0.072000
35.933333	1	0.071000
35.950000	1	0.071125
35.966667	1	0.071000
35.983333	1	0.071500
36.000000	1	0.071250
36.016667	1	0.070625
36.033333	1	0.071000
36.050000	1	0.071000
36.066667	1	0.070875
36.083333	1	0.071500
36.100000	1	0.071875
36.116667	1	0.072625
36.133333	1	0.073375
36.150000	1	0.073125
36.166667	1	0.073750
36.183333	1	0.074000
36.200000	1	0.074000
36.216667	1	0.073625
36.233333	1	0.073250
36.250000	1	0.073125
36.266667	1	0.073500
36.283333	1	0.073125
36.300000	1	0.073375
36.316667	1	0.072750
36.333333	1	0.072250
36.350000	1	0.072000
36.366667	1	0.071000
36.383333	1	0.069625
36.400000	1	0.068000
36.416667	1	0.066625
36.433333	1	0.065625
36.450000	1	0.064625
36.466667	1	0.063125
36.483333	1	0.061000
36.500000	1	0.059000
36.516667	1	0.056750
36.533333	1	0.054875
36.550000	1	0.052750
36.566667	1	0.050500
36.583333	1	0.048125
36.600000	1	0.045750
36.616667	1	0.043250
36.633333	1	0.040375
36.650000	1	0.038375
36.666667	1	0.035625
36.683333	1	0.033125
36.700000	1	0.031125
36.716667	1	0.028750
36.733333	1	0.026625
36.750000	1	0.024875
36.766667	1	0.023125
36.783333	1	0.021000
36.800000	1	0.019500
36.816667	1	0.017875
36.833333	1	0.016125
36.850000	1	0.015125
36.866667	1	0.013875
36.883333	1	0.013000
36.900000	1	0.012625
36.916667	1	0.012375
36.933333	1	0.011750
36.950000	1	0.011750
36.966667	1	0.011750
36.983333	1	0.011875
37.000000	1	0.011500
37.016667	1	0.011500
37.033333	1	0.012000
37.050000	1	0.012500
37.066667	1	0.012625
37.083333	1	0.013250
37.100000	1	0.014500
37.116667	1	0.015500
37.133333	1	0.015625
37.150000	1	0.016500
37.166667	1	0.016875
37.183333	1	0.016625
37.200000	1	0.017125
37.216667	1	0.016750
37.233333	1	0.017500
37.250000	1	0.017875
37.266667	1	0.018375
37.283333	1	0.018250
37.300000	1	0.018125
37.316667	1	0.018250
37.333333	1	0.018000
37.350000	1	0.017875
37.366667	1	0.017375
37.383333	1	0.016375
37.400000	1	0.015125
37.416667	1	0.014000
37.433333	1	0.012125
37.450000	1	0.010625
37.466667	1	0.009125
37.483333	1	0.007500
37.500000	1	0.005750
37.516667	1	0.003750
37.533333	1	0.001375
37.550000	1	-0.000750
37.566667	1	-0.002750
37.583333	1	-0.004875
37.600000	1	-0.007625
37.616667	1	-0.010000
37.633333	1	-0.011750
37.650000	1	-0.013625
37.666667	1	-0.016000
37.683333	1	-0.018375
37.700000	1	-0.019750
37.716667	1	-0.021250
37.733333	1	-0.022375
37.750000	1	-0.023875
37.766667	1	-0.024625
37.783333	1	-0.025250
37.800000	1	-0.026000
37.816667	1	-0.026875
37.833333	1	-0.027250
37.850000	1	-0.026875
37.866667	1	-0.027125
37.883333	1	-0.026750
37.900000	1	-0.026000
37.916667	1	-0.024500
37.933333	1	-0.023875
37.950000	1	-0.022625
37.966667	1	-0.021125
37.983333	1	-0.020250
38.000000	1	-0.018500
38.016667	1	-0.016875
38.033333	1	-0.015000
38.050000	1	-0.013375
38.066667	1	-0.011625
38.083333	1	-0.009375
38.100000	1	-0.007625
38.116667	1	-0.006000
38.133333	1	-0.003625
38.150000	1	-0.001375
38.166667	1	0.000250
38.183333	1	0.002125
38.200000	1	0.004000
38.216667	1	0.005875
38.233333	1	0.007875
38.250000	1	0.009750
38.266667	1	0.012000
38.283333	1	0.013125
38.300000	1	0.015250
38.316667	1	0.016750
38.333333	1	0.018500
38.350000	1	0.020000
38.366667	1	0.021375
38.383333	1	0.023625
38.400000	1	0.025250
38.416667	1	0.025750
38.433333	1	0.027250
38.450000	1	0.029250
38.466667	1	0.029750
38.483333	1	0.030875
38.500000	1	0.031750
38.516667	1	0.033125
38.533333	1	0.034375
38.550000	1	0.035000
38.566667	1	0.035750
38.583333	1	0.036125
38.600000	1	0.036125
38.616667	1	0.036875
38.633333	1	0.037750
38.650000	1	0.037625
38.666667	1	0.038250
38.683333	1	0.038375
38.700000	1	0.038500
38.716667	1	0.039500
38.733333	1	0.039250
38.750000	1	0.039500
38.766667	1	0.038875
38.783333	1	0.038500
38.800000	1	0.038375
38.816667	1	0.038375
38.833333	1	0.038000
38.850000	1	0.038125
38.866667	1	0.037625
38.883333	1	0.037000
38.900000	1	0.036875
38.916667	1	0.037000
38.933333	1	0.036875
38.950000	1	0.036375
38.966667	1	0.035750
38.983333	1	0.036000
39.000000	1	0.035500
39.016667	1	0.034375
39.033333	1	0.033875
39.050000	1	0.033125
39.066667	1	0.031750
39.083333	1	0.031000
39.100000	1	0.030250
39.116667	1	0.029250
39.133333	1	0.028000
39.150000	1	0.027500
39.166667	1	0.026875
39.183333	1	0.025625
39.200000	1	0.024250
39.216667	1	0.022625
39.233333	1	0.021125
39.250000	1	0.020125
39.266667	1	0.019000
39.283333	1	0.017500
39.300000	1	0.015375
39.316667	1	0.014000
39.333333	1	0.011875
39.350000	1	0.010000
39.366667	1	0.008250
39.383333	1	0.006375
39.400000	1	0.004500
39.416667	1	0.002500
39.433333	1	0.000750
39.450000	1	-0.001375
39.466667	1	-0.003375
39.483333	1	-0.004750
39.500000	1	-0.007500
39.516667	1	-0.009250
39.533333	1	-0.011125
39.550000	1	-0.013125
39.566667	1	-0.015125
39.583333	1	-0.017500
39.600000	1	-0.018875
39.616667	1	-0.020500
39.633333	1	-0.022125
39.650000	1	-0.023500
39.666667	1	-0.025250
39.683333	1	-0.026625
39.700000	1	-0.028125
39.716667	1	-0.029750
39.733333	1	-0.031250
39.750000	1	-0.032625
39.766667	1	-0.034000
39.783333	1	-0.034375
39.800000	1	-0.034875
39.816667	1	-0.035375
39.833333	1	-0.036000
39.850000	1	-0.036375
39.866667	1	-0.037125
39.883333	1	-0.037250
39.900000	1	-0.037125
39.916667	1	-0.037125
39.933333	1	-0.037375
39.950000	1	-0.037125
39.966667	1	-0.036375
39.983333	1	-0.035750
40.000000	1	-0.034500
