URL	chrom://bioreactor/micro_cm7/HPLC_Ultimate_3000/Users/markusar/20240708_MA_pHrange1.seq/663.smp/RI_1.channel/RI_1.chm
Channel	RI_1

Injection Information:
Data Vault	micro_cm7
Sequence	20240708_MA_pHrange1
Name	Fp1_5.7_2
Number	60
Position	BF2
Comment	
Processing Method	
Instrument Method	run_25B_method
Type	Unknown
Status	Finished
Inject Time	10.07.2024 07:51:52 +02:00
Volume (µl)	20.0000
Dilution Factor	1.0000
Weight	1.0000

Chromatogram Data Information:
Time Min. (min)	0.000000
Time Max. (min)	40.000000
Data Points	2401
Detector	RI
Generating Data System	Chromeleon 7.3.2.11814
Exporting Data System	Chromeleon 7.3.2.0
Operator	Instrument Controller
Signal Quantity	Refractive 
Signal Unit	µRIU
Signal Min.	-0.078000
Signal Max.	83.096000
Channel	RI_1
Driver Name	RID520Driver.dll
Channel Type	Evaluation
Min. Step (s)	1
Max. Step (s)	1
Average Step (s)	1

Signal Parameter Information:
Signal Info	

Chromatogram Data:
Time (min)	Step (s)	Value (µRIU)
0.000000	n.a.	0.025500
0.016667	1	0.025250
0.033333	1	0.024500
0.050000	1	0.024000
0.066667	1	0.023500
0.083333	1	0.022875
0.100000	1	0.022375
0.116667	1	0.021875
0.133333	1	0.021250
0.150000	1	0.020250
0.166667	1	0.019500
0.183333	1	0.019250
0.200000	1	0.018625
0.216667	1	0.017875
0.233333	1	0.017750
0.250000	1	0.016875
0.266667	1	0.016500
0.283333	1	0.016500
0.300000	1	0.015625
0.316667	1	0.015875
0.333333	1	0.015750
0.350000	1	0.015375
0.366667	1	0.014375
0.383333	1	0.013500
0.400000	1	0.013125
0.416667	1	0.012875
0.433333	1	0.013875
0.450000	1	0.015125
0.466667	1	0.016125
0.483333	1	0.016375
0.500000	1	0.016625
0.516667	1	0.016750
0.533333	1	0.017000
0.550000	1	0.016000
0.566667	1	0.014250
0.583333	1	0.012000
0.600000	1	0.010250
0.616667	1	0.007875
0.633333	1	0.006375
0.650000	1	0.005125
0.666667	1	0.004625
0.683333	1	0.004500
0.700000	1	0.004750
0.716667	1	0.004875
0.733333	1	0.005125
0.750000	1	0.005125
0.766667	1	0.005750
0.783333	1	0.006375
0.800000	1	0.007000
0.816667	1	0.007500
0.833333	1	0.008500
0.850000	1	0.009500
0.866667	1	0.010500
0.883333	1	0.011625
0.900000	1	0.013000
0.916667	1	0.014375
0.933333	1	0.015375
0.950000	1	0.016875
0.966667	1	0.018000
0.983333	1	0.019500
1.000000	1	0.020500
1.016667	1	0.021250
1.033333	1	0.022125
1.050000	1	0.023375
1.066667	1	0.024125
1.083333	1	0.025000
1.100000	1	0.025875
1.116667	1	0.026250
1.133333	1	0.026375
1.150000	1	0.027125
1.166667	1	0.026875
1.183333	1	0.027375
1.200000	1	0.027625
1.216667	1	0.027625
1.233333	1	0.027875
1.250000	1	0.028125
1.266667	1	0.027625
1.283333	1	0.026750
1.300000	1	0.026500
1.316667	1	0.025625
1.333333	1	0.024875
1.350000	1	0.024375
1.366667	1	0.023750
1.383333	1	0.023000
1.400000	1	0.022000
1.416667	1	0.021000
1.433333	1	0.019875
1.450000	1	0.018375
1.466667	1	0.017000
1.483333	1	0.016375
1.500000	1	0.015125
1.516667	1	0.014375
1.533333	1	0.013000
1.550000	1	0.011750
1.566667	1	0.010375
1.583333	1	0.009500
1.600000	1	0.007875
1.616667	1	0.006125
1.633333	1	0.004500
1.650000	1	0.003000
1.666667	1	0.001875
1.683333	1	0.000125
1.700000	1	-0.001875
1.716667	1	-0.003125
1.733333	1	-0.004125
1.750000	1	-0.005875
1.766667	1	-0.007375
1.783333	1	-0.008500
1.800000	1	-0.009750
1.816667	1	-0.011125
1.833333	1	-0.012250
1.850000	1	-0.013125
1.866667	1	-0.014500
1.883333	1	-0.015125
1.900000	1	-0.016000
1.916667	1	-0.017000
1.933333	1	-0.017750
1.950000	1	-0.018750
1.966667	1	-0.019375
1.983333	1	-0.020750
2.000000	1	-0.021250
2.016667	1	-0.021500
2.033333	1	-0.022250
2.050000	1	-0.023375
2.066667	1	-0.024125
2.083333	1	-0.024500
2.100000	1	-0.025000
2.116667	1	-0.025000
2.133333	1	-0.025125
2.150000	1	-0.025500
2.166667	1	-0.026000
2.183333	1	-0.026000
2.200000	1	-0.026375
2.216667	1	-0.026625
2.233333	1	-0.027125
2.250000	1	-0.027000
2.266667	1	-0.027500
2.283333	1	-0.028500
2.300000	1	-0.028375
2.316667	1	-0.029500
2.333333	1	-0.030625
2.350000	1	-0.031875
2.366667	1	-0.033125
2.383333	1	-0.033875
2.400000	1	-0.034250
2.416667	1	-0.034875
2.433333	1	-0.035000
2.450000	1	-0.036000
2.466667	1	-0.036875
2.483333	1	-0.037875
2.500000	1	-0.038125
2.516667	1	-0.038625
2.533333	1	-0.038875
2.550000	1	-0.039125
2.566667	1	-0.040000
2.583333	1	-0.039750
2.600000	1	-0.039750
2.616667	1	-0.039625
2.633333	1	-0.039500
2.650000	1	-0.039000
2.666667	1	-0.038500
2.683333	1	-0.038000
2.700000	1	-0.037000
2.716667	1	-0.037250
2.733333	1	-0.036625
2.750000	1	-0.035875
2.766667	1	-0.035250
2.783333	1	-0.034375
2.800000	1	-0.033250
2.816667	1	-0.031750
2.833333	1	-0.030500
2.850000	1	-0.028875
2.866667	1	-0.027500
2.883333	1	-0.026000
2.900000	1	-0.024125
2.916667	1	-0.022500
2.933333	1	-0.021875
2.950000	1	-0.020375
2.966667	1	-0.018125
2.983333	1	-0.015500
3.000000	1	-0.013750
3.016667	1	-0.011250
3.033333	1	-0.008625
3.050000	1	-0.007000
3.066667	1	-0.004125
3.083333	1	-0.001750
3.100000	1	-0.000125
3.116667	1	0.001750
3.133333	1	0.003375
3.150000	1	0.006000
3.166667	1	0.007875
3.183333	1	0.010375
3.200000	1	0.012750
3.216667	1	0.014375
3.233333	1	0.016375
3.250000	1	0.017875
3.266667	1	0.020000
3.283333	1	0.021875
3.300000	1	0.023375
3.316667	1	0.025000
3.333333	1	0.026875
3.350000	1	0.028125
3.366667	1	0.029875
3.383333	1	0.030875
3.400000	1	0.032125
3.416667	1	0.033500
3.433333	1	0.034375
3.450000	1	0.035625
3.466667	1	0.036750
3.483333	1	0.038000
3.500000	1	0.038875
3.516667	1	0.040250
3.533333	1	0.041250
3.550000	1	0.042125
3.566667	1	0.043125
3.583333	1	0.043750
3.600000	1	0.045250
3.616667	1	0.046875
3.633333	1	0.047250
3.650000	1	0.048750
3.666667	1	0.049625
3.683333	1	0.050750
3.700000	1	0.052625
3.716667	1	0.053625
3.733333	1	0.054750
3.750000	1	0.055750
3.766667	1	0.056875
3.783333	1	0.057875
3.800000	1	0.059500
3.816667	1	0.060750
3.833333	1	0.062000
3.850000	1	0.062625
3.866667	1	0.064000
3.883333	1	0.064125
3.900000	1	0.065125
3.916667	1	0.065875
3.933333	1	0.066375
3.950000	1	0.067500
3.966667	1	0.068000
3.983333	1	0.068875
4.000000	1	0.069000
4.016667	1	0.069750
4.033333	1	0.070375
4.050000	1	0.071000
4.066667	1	0.071625
4.083333	1	0.072000
4.100000	1	0.072500
4.116667	1	0.072125
4.133333	1	0.072750
4.150000	1	0.073000
4.166667	1	0.073375
4.183333	1	0.073500
4.200000	1	0.074875
4.216667	1	0.076000
4.233333	1	0.076500
4.250000	1	0.077875
4.266667	1	0.078750
4.283333	1	0.080375
4.300000	1	0.081625
4.316667	1	0.082875
4.333333	1	0.084250
4.350000	1	0.085000
4.366667	1	0.085750
4.383333	1	0.087875
4.400000	1	0.088750
4.416667	1	0.090375
4.433333	1	0.091625
4.450000	1	0.093250
4.466667	1	0.094625
4.483333	1	0.095875
4.500000	1	0.097500
4.516667	1	0.098375
4.533333	1	0.099375
4.550000	1	0.100000
4.566667	1	0.100875
4.583333	1	0.102000
4.600000	1	0.103750
4.616667	1	0.105125
4.633333	1	0.105875
4.650000	1	0.107375
4.666667	1	0.108875
4.683333	1	0.110250
4.700000	1	0.111750
4.716667	1	0.113125
4.733333	1	0.115500
4.750000	1	0.117000
4.766667	1	0.118875
4.783333	1	0.120750
4.800000	1	0.123125
4.816667	1	0.125250
4.833333	1	0.127875
4.850000	1	0.131000
4.866667	1	0.134125
4.883333	1	0.137250
4.900000	1	0.141125
4.916667	1	0.144625
4.933333	1	0.148375
4.950000	1	0.152125
4.966667	1	0.156125
4.983333	1	0.160125
5.000000	1	0.164125
5.016667	1	0.168500
5.033333	1	0.173250
5.050000	1	0.177875
5.066667	1	0.182000
5.083333	1	0.186750
5.100000	1	0.191000
5.116667	1	0.195625
5.133333	1	0.199875
5.150000	1	0.205000
5.166667	1	0.210000
5.183333	1	0.214125
5.200000	1	0.219000
5.216667	1	0.222500
5.233333	1	0.226875
5.250000	1	0.231000
5.266667	1	0.234250
5.283333	1	0.237750
5.300000	1	0.240875
5.316667	1	0.244125
5.333333	1	0.246500
5.350000	1	0.249500
5.366667	1	0.252000
5.383333	1	0.254250
5.400000	1	0.256250
5.416667	1	0.258125
5.433333	1	0.259875
5.450000	1	0.260500
5.466667	1	0.261000
5.483333	1	0.261625
5.500000	1	0.262250
5.516667	1	0.262000
5.533333	1	0.261875
5.550000	1	0.261375
5.566667	1	0.261375
5.583333	1	0.260625
5.600000	1	0.259500
5.616667	1	0.257875
5.633333	1	0.255750
5.650000	1	0.252875
5.666667	1	0.251125
5.683333	1	0.249000
5.700000	1	0.246375
5.716667	1	0.244000
5.733333	1	0.240625
5.750000	1	0.237750
5.766667	1	0.234500
5.783333	1	0.231250
5.800000	1	0.227625
5.816667	1	0.224000
5.833333	1	0.219750
5.850000	1	0.216375
5.866667	1	0.212500
5.883333	1	0.208625
5.900000	1	0.204375
5.916667	1	0.200250
5.933333	1	0.195750
5.950000	1	0.190750
5.966667	1	0.185875
5.983333	1	0.180625
6.000000	1	0.175750
6.016667	1	0.170875
6.033333	1	0.166250
6.050000	1	0.161625
6.066667	1	0.156750
6.083333	1	0.151375
6.100000	1	0.146625
6.116667	1	0.141250
6.133333	1	0.136500
6.150000	1	0.132000
6.166667	1	0.127250
6.183333	1	0.122750
6.200000	1	0.118125
6.216667	1	0.113625
6.233333	1	0.109500
6.250000	1	0.105250
6.266667	1	0.101375
6.283333	1	0.096625
6.300000	1	0.092875
6.316667	1	0.089000
6.333333	1	0.085375
6.350000	1	0.081875
6.366667	1	0.078125
6.383333	1	0.074750
6.400000	1	0.071500
6.416667	1	0.069375
6.433333	1	0.066125
6.450000	1	0.063375
6.466667	1	0.060875
6.483333	1	0.058125
6.500000	1	0.055875
6.516667	1	0.053500
6.533333	1	0.050250
6.550000	1	0.048375
6.566667	1	0.046625
6.583333	1	0.044625
6.600000	1	0.042625
6.616667	1	0.041125
6.633333	1	0.038875
6.650000	1	0.037500
6.666667	1	0.036500
6.683333	1	0.035375
6.700000	1	0.033875
6.716667	1	0.032750
6.733333	1	0.032125
6.750000	1	0.031750
6.766667	1	0.031625
6.783333	1	0.031125
6.800000	1	0.030875
6.816667	1	0.030625
6.833333	1	0.030750
6.850000	1	0.031375
6.866667	1	0.032250
6.883333	1	0.033000
6.900000	1	0.033375
6.916667	1	0.034750
6.933333	1	0.035875
6.950000	1	0.038000
6.966667	1	0.039625
6.983333	1	0.041375
7.000000	1	0.043500
7.016667	1	0.045875
7.033333	1	0.048125
7.050000	1	0.050250
7.066667	1	0.052375
7.083333	1	0.054500
7.100000	1	0.057000
7.116667	1	0.060000
7.133333	1	0.063000
7.150000	1	0.065625
7.166667	1	0.068500
7.183333	1	0.070875
7.200000	1	0.073750
7.216667	1	0.076000
7.233333	1	0.078250
7.250000	1	0.079875
7.266667	1	0.081375
7.283333	1	0.083250
7.300000	1	0.084000
7.316667	1	0.084000
7.333333	1	0.084875
7.350000	1	0.085625
7.366667	1	0.085500
7.383333	1	0.085250
7.400000	1	0.084750
7.416667	1	0.084125
7.433333	1	0.082500
7.450000	1	0.081500
7.466667	1	0.080250
7.483333	1	0.078875
7.500000	1	0.077125
7.516667	1	0.075250
7.533333	1	0.072875
7.550000	1	0.071000
7.566667	1	0.068500
7.583333	1	0.066250
7.600000	1	0.063500
7.616667	1	0.060125
7.633333	1	0.057500
7.650000	1	0.054125
7.666667	1	0.050875
7.683333	1	0.047750
7.700000	1	0.044125
7.716667	1	0.040875
7.733333	1	0.037750
7.750000	1	0.034125
7.766667	1	0.030250
7.783333	1	0.027875
7.800000	1	0.024625
7.816667	1	0.021375
7.833333	1	0.018000
7.850000	1	0.015500
7.866667	1	0.011875
7.883333	1	0.008750
7.900000	1	0.005750
7.916667	1	0.002875
7.933333	1	0.000500
7.950000	1	-0.002000
7.966667	1	-0.003750
7.983333	1	-0.006625
8.000000	1	-0.008500
8.016667	1	-0.010875
8.033333	1	-0.012375
8.050000	1	-0.014125
8.066667	1	-0.015625
8.083333	1	-0.017125
8.100000	1	-0.018000
8.116667	1	-0.019125
8.133333	1	-0.020000
8.150000	1	-0.021500
8.166667	1	-0.022625
8.183333	1	-0.023375
8.200000	1	-0.024375
8.216667	1	-0.024625
8.233333	1	-0.025750
8.250000	1	-0.025750
8.266667	1	-0.026000
8.283333	1	-0.026625
8.300000	1	-0.026500
8.316667	1	-0.027375
8.333333	1	-0.028000
8.350000	1	-0.028750
8.366667	1	-0.029125
8.383333	1	-0.029875
8.400000	1	-0.030875
8.416667	1	-0.031500
8.433333	1	-0.031625
8.450000	1	-0.032625
8.466667	1	-0.033500
8.483333	1	-0.033625
8.500000	1	-0.035000
8.516667	1	-0.035625
8.533333	1	-0.036125
8.550000	1	-0.036125
8.566667	1	-0.037250
8.583333	1	-0.037750
8.600000	1	-0.038125
8.616667	1	-0.039000
8.633333	1	-0.040000
8.650000	1	-0.040875
8.666667	1	-0.041750
8.683333	1	-0.042375
8.700000	1	-0.042875
8.716667	1	-0.043250
8.733333	1	-0.043875
8.750000	1	-0.044250
8.766667	1	-0.045000
8.783333	1	-0.045750
8.800000	1	-0.046625
8.816667	1	-0.046750
8.833333	1	-0.047125
8.850000	1	-0.047500
8.866667	1	-0.047625
8.883333	1	-0.048000
8.900000	1	-0.048125
8.916667	1	-0.048375
8.933333	1	-0.049250
8.950000	1	-0.049375
8.966667	1	-0.049875
8.983333	1	-0.051250
9.000000	1	-0.052125
9.016667	1	-0.052750
9.033333	1	-0.053375
9.050000	1	-0.053750
9.066667	1	-0.054625
9.083333	1	-0.055125
9.100000	1	-0.055375
9.116667	1	-0.056250
9.133333	1	-0.057250
9.150000	1	-0.058000
9.166667	1	-0.058500
9.183333	1	-0.059125
9.200000	1	-0.060250
9.216667	1	-0.061250
9.233333	1	-0.062125
9.250000	1	-0.062875
9.266667	1	-0.063750
9.283333	1	-0.064500
9.300000	1	-0.066125
9.316667	1	-0.066625
9.333333	1	-0.067750
9.350000	1	-0.068375
9.366667	1	-0.068875
9.383333	1	-0.070250
9.400000	1	-0.070875
9.416667	1	-0.071625
9.433333	1	-0.072750
9.450000	1	-0.074125
9.466667	1	-0.074125
9.483333	1	-0.074500
9.500000	1	-0.075375
9.516667	1	-0.075625
9.533333	1	-0.075625
9.550000	1	-0.076125
9.566667	1	-0.076375
9.583333	1	-0.076750
9.600000	1	-0.077375
9.616667	1	-0.078000
9.633333	1	-0.077750
9.650000	1	-0.077875
9.666667	1	-0.077500
9.683333	1	-0.077875
9.700000	1	-0.077375
9.716667	1	-0.076750
9.733333	1	-0.076625
9.750000	1	-0.076000
9.766667	1	-0.075000
9.783333	1	-0.074375
9.800000	1	-0.074000
9.816667	1	-0.073125
9.833333	1	-0.072375
9.850000	1	-0.071250
9.866667	1	-0.070000
9.883333	1	-0.068875
9.900000	1	-0.068125
9.916667	1	-0.067375
9.933333	1	-0.066625
9.950000	1	-0.065625
9.966667	1	-0.064625
9.983333	1	-0.063625
10.000000	1	-0.062625
10.016667	1	-0.062375
10.033333	1	-0.061125
10.050000	1	-0.059625
10.066667	1	-0.057625
10.083333	1	-0.055125
10.100000	1	-0.052000
10.116667	1	-0.049125
10.133333	1	-0.044875
10.150000	1	-0.039125
10.166667	1	-0.033375
10.183333	1	-0.026250
10.200000	1	-0.018250
10.216667	1	-0.008250
10.233333	1	0.001875
10.250000	1	0.015000
10.266667	1	0.029750
10.283333	1	0.047500
10.300000	1	0.066375
10.316667	1	0.087875
10.333333	1	0.112125
10.350000	1	0.137500
10.366667	1	0.162750
10.383333	1	0.187000
10.400000	1	0.207625
10.416667	1	0.221125
10.433333	1	0.227625
10.450000	1	0.226625
10.466667	1	0.222125
10.483333	1	0.221625
10.500000	1	0.241875
10.516667	1	0.304250
10.533333	1	0.440250
10.550000	1	0.693500
10.566667	1	1.112250
10.583333	1	1.751875
10.600000	1	2.667750
10.616667	1	3.910750
10.633333	1	5.519500
10.650000	1	7.522125
10.666667	1	9.932500
10.683333	1	12.750875
10.700000	1	15.961375
10.716667	1	19.529125
10.733333	1	23.402125
10.750000	1	27.504750
10.766667	1	31.724250
10.783333	1	35.918875
10.800000	1	39.891000
10.816667	1	43.384250
10.833333	1	46.089250
10.850000	1	47.687750
10.866667	1	47.910625
10.883333	1	46.620000
10.900000	1	43.877875
10.916667	1	39.957500
10.933333	1	35.277375
10.950000	1	30.297250
10.966667	1	25.419750
10.983333	1	20.927875
11.000000	1	16.982250
11.016667	1	13.642125
11.033333	1	10.895875
11.050000	1	8.689250
11.066667	1	6.948000
11.083333	1	5.593625
11.100000	1	4.550500
11.116667	1	3.753875
11.133333	1	3.146500
11.150000	1	2.685125
11.166667	1	2.334250
11.183333	1	2.067375
11.200000	1	1.863875
11.216667	1	1.708500
11.233333	1	1.588125
11.250000	1	1.495375
11.266667	1	1.421000
11.283333	1	1.360125
11.300000	1	1.307875
11.316667	1	1.261000
11.333333	1	1.217875
11.350000	1	1.176375
11.366667	1	1.135375
11.383333	1	1.096875
11.400000	1	1.058500
11.416667	1	1.022000
11.433333	1	0.987750
11.450000	1	0.956625
11.466667	1	0.929000
11.483333	1	0.904625
11.500000	1	0.884625
11.516667	1	0.869375
11.533333	1	0.858500
11.550000	1	0.852500
11.566667	1	0.850375
11.583333	1	0.853750
11.600000	1	0.861250
11.616667	1	0.874750
11.633333	1	0.893625
11.650000	1	0.916625
11.666667	1	0.943875
11.683333	1	0.974625
11.700000	1	1.007750
11.716667	1	1.041750
11.733333	1	1.075750
11.750000	1	1.106750
11.766667	1	1.134000
11.783333	1	1.156000
11.800000	1	1.171500
11.816667	1	1.181375
11.833333	1	1.184375
11.850000	1	1.180875
11.866667	1	1.171375
11.883333	1	1.157500
11.900000	1	1.140875
11.916667	1	1.121375
11.933333	1	1.101625
11.950000	1	1.081000
11.966667	1	1.061000
11.983333	1	1.042625
12.000000	1	1.026375
12.016667	1	1.012375
12.033333	1	1.001125
12.050000	1	0.991125
12.066667	1	0.982500
12.083333	1	0.977250
12.100000	1	0.972500
12.116667	1	0.969750
12.133333	1	0.968375
12.150000	1	0.968500
12.166667	1	0.970375
12.183333	1	0.973875
12.200000	1	0.979875
12.216667	1	0.988750
12.233333	1	1.001500
12.250000	1	1.019750
12.266667	1	1.044250
12.283333	1	1.078125
12.300000	1	1.124375
12.316667	1	1.187625
12.333333	1	1.273375
12.350000	1	1.388625
12.366667	1	1.544375
12.383333	1	1.753750
12.400000	1	2.035125
12.416667	1	2.410625
12.433333	1	2.909625
12.450000	1	3.571500
12.466667	1	4.445125
12.483333	1	5.589375
12.500000	1	7.074375
12.516667	1	8.980125
12.533333	1	11.389375
12.550000	1	14.382500
12.566667	1	18.031125
12.583333	1	22.382625
12.600000	1	27.444500
12.616667	1	33.170125
12.633333	1	39.468750
12.650000	1	46.185500
12.666667	1	53.101375
12.683333	1	59.941125
12.700000	1	66.393500
12.716667	1	72.140125
12.733333	1	76.885125
12.750000	1	80.385250
12.766667	1	82.477125
12.783333	1	83.096000
12.800000	1	82.277250
12.816667	1	80.155875
12.833333	1	76.932625
12.850000	1	72.861250
12.866667	1	68.218750
12.883333	1	63.286875
12.900000	1	58.321125
12.916667	1	53.539000
12.933333	1	49.108625
12.950000	1	45.144000
12.966667	1	41.708750
12.983333	1	38.823250
13.000000	1	36.478375
13.016667	1	34.640000
13.033333	1	33.261500
13.050000	1	32.289500
13.066667	1	31.670750
13.083333	1	31.353875
13.100000	1	31.291375
13.116667	1	31.441000
13.133333	1	31.766750
13.150000	1	32.238375
13.166667	1	32.830250
13.183333	1	33.521125
13.200000	1	34.293500
13.216667	1	35.134875
13.233333	1	36.035125
13.250000	1	36.987125
13.266667	1	37.984125
13.283333	1	39.022500
13.300000	1	40.097625
13.316667	1	41.207250
13.333333	1	42.347875
13.350000	1	43.518750
13.366667	1	44.718625
13.383333	1	45.948375
13.400000	1	47.205375
13.416667	1	48.490875
13.433333	1	49.805625
13.450000	1	51.150625
13.466667	1	52.527125
13.483333	1	53.935125
13.500000	1	55.373750
13.516667	1	56.843625
13.533333	1	58.343375
13.550000	1	59.874375
13.566667	1	61.437000
13.583333	1	63.031125
13.600000	1	64.656125
13.616667	1	66.314250
13.633333	1	68.007250
13.650000	1	69.737000
13.666667	1	71.504000
13.683333	1	73.304500
13.700000	1	75.127125
13.716667	1	76.926000
13.733333	1	78.600125
13.750000	1	79.984750
13.766667	1	80.882375
13.783333	1	81.104625
13.800000	1	80.499375
13.816667	1	78.928250
13.833333	1	76.241750
13.850000	1	72.262125
13.866667	1	66.856375
13.883333	1	60.087750
13.900000	1	52.334250
13.916667	1	44.248625
13.933333	1	36.513000
13.950000	1	29.633250
13.966667	1	23.843250
13.983333	1	19.150250
14.000000	1	15.437125
14.016667	1	12.541000
14.033333	1	10.312375
14.050000	1	8.617375
14.066667	1	7.344000
14.083333	1	6.394875
14.100000	1	5.690875
14.116667	1	5.166500
14.133333	1	4.772375
14.150000	1	4.471125
14.166667	1	4.235625
14.183333	1	4.048000
14.200000	1	3.894625
14.216667	1	3.766000
14.233333	1	3.656000
14.250000	1	3.560000
14.266667	1	3.474625
14.283333	1	3.398500
14.300000	1	3.329125
14.316667	1	3.266000
14.333333	1	3.207750
14.350000	1	3.153625
14.366667	1	3.104125
14.383333	1	3.058000
14.400000	1	3.016000
14.416667	1	2.976625
14.433333	1	2.940625
14.450000	1	2.906625
14.466667	1	2.875625
14.483333	1	2.846125
14.500000	1	2.818875
14.516667	1	2.793500
14.533333	1	2.768375
14.550000	1	2.744500
14.566667	1	2.721125
14.583333	1	2.698375
14.600000	1	2.677250
14.616667	1	2.656000
14.633333	1	2.636000
14.650000	1	2.615750
14.666667	1	2.596875
14.683333	1	2.578875
14.700000	1	2.562500
14.716667	1	2.547875
14.733333	1	2.536000
14.750000	1	2.526125
14.766667	1	2.518000
14.783333	1	2.511125
14.800000	1	2.505125
14.816667	1	2.499250
14.833333	1	2.492500
14.850000	1	2.484000
14.866667	1	2.471625
14.883333	1	2.455000
14.900000	1	2.434000
14.916667	1	2.408750
14.933333	1	2.377250
14.950000	1	2.341625
14.966667	1	2.301250
14.983333	1	2.257625
15.000000	1	2.212250
15.016667	1	2.165000
15.033333	1	2.117625
15.050000	1	2.070250
15.066667	1	2.024750
15.083333	1	1.981250
15.100000	1	1.939750
15.116667	1	1.901500
15.133333	1	1.865875
15.150000	1	1.834125
15.166667	1	1.804375
15.183333	1	1.777875
15.200000	1	1.754125
15.216667	1	1.734000
15.233333	1	1.716250
15.250000	1	1.702000
15.266667	1	1.690250
15.283333	1	1.681625
15.300000	1	1.677000
15.316667	1	1.675250
15.333333	1	1.678750
15.350000	1	1.686750
15.366667	1	1.699125
15.383333	1	1.716000
15.400000	1	1.738500
15.416667	1	1.765375
15.433333	1	1.796125
15.450000	1	1.829500
15.466667	1	1.863375
15.483333	1	1.897000
15.500000	1	1.928000
15.516667	1	1.954250
15.533333	1	1.973750
15.550000	1	1.985625
15.566667	1	1.989500
15.583333	1	1.983500
15.600000	1	1.969125
15.616667	1	1.946625
15.633333	1	1.917875
15.650000	1	1.882750
15.666667	1	1.843250
15.683333	1	1.801750
15.700000	1	1.758500
15.716667	1	1.715625
15.733333	1	1.674375
15.750000	1	1.634250
15.766667	1	1.595625
15.783333	1	1.559250
15.800000	1	1.524750
15.816667	1	1.491250
15.833333	1	1.459375
15.850000	1	1.429250
15.866667	1	1.400000
15.883333	1	1.371500
15.900000	1	1.344625
15.916667	1	1.319500
15.933333	1	1.296625
15.950000	1	1.275750
15.966667	1	1.257250
15.983333	1	1.240500
16.000000	1	1.226625
16.016667	1	1.215250
16.033333	1	1.205250
16.050000	1	1.197375
16.066667	1	1.191875
16.083333	1	1.188250
16.100000	1	1.186750
16.116667	1	1.186250
16.133333	1	1.185625
16.150000	1	1.186000
16.166667	1	1.187125
16.183333	1	1.189000
16.200000	1	1.190750
16.216667	1	1.192250
16.233333	1	1.192750
16.250000	1	1.192500
16.266667	1	1.192250
16.283333	1	1.190625
16.300000	1	1.188250
16.316667	1	1.185125
16.333333	1	1.180500
16.350000	1	1.175125
16.366667	1	1.170125
16.383333	1	1.164625
16.400000	1	1.159375
16.416667	1	1.154875
16.433333	1	1.150125
16.450000	1	1.147250
16.466667	1	1.145375
16.483333	1	1.144875
16.500000	1	1.146000
16.516667	1	1.148625
16.533333	1	1.153125
16.550000	1	1.159750
16.566667	1	1.167250
16.583333	1	1.176125
16.600000	1	1.184250
16.616667	1	1.193125
16.633333	1	1.201000
16.650000	1	1.207625
16.666667	1	1.214000
16.683333	1	1.219250
16.700000	1	1.222875
16.716667	1	1.224750
16.733333	1	1.225875
16.750000	1	1.227375
16.766667	1	1.229250
16.783333	1	1.230500
16.800000	1	1.232125
16.816667	1	1.233500
16.833333	1	1.235625
16.850000	1	1.238875
16.866667	1	1.242125
16.883333	1	1.245750
16.900000	1	1.248875
16.916667	1	1.251875
16.933333	1	1.254250
16.950000	1	1.255625
16.966667	1	1.256250
16.983333	1	1.255000
17.000000	1	1.252625
17.016667	1	1.249500
17.033333	1	1.245750
17.050000	1	1.240875
17.066667	1	1.235625
17.083333	1	1.229500
17.100000	1	1.224250
17.116667	1	1.219375
17.133333	1	1.215625
17.150000	1	1.212125
17.166667	1	1.209250
17.183333	1	1.208125
17.200000	1	1.208375
17.216667	1	1.209250
17.233333	1	1.211625
17.250000	1	1.214000
17.266667	1	1.217625
17.283333	1	1.221875
17.300000	1	1.226750
17.316667	1	1.232875
17.333333	1	1.238875
17.350000	1	1.244875
17.366667	1	1.251250
17.383333	1	1.257125
17.400000	1	1.262750
17.416667	1	1.268000
17.433333	1	1.271875
17.450000	1	1.274875
17.466667	1	1.276375
17.483333	1	1.276750
17.500000	1	1.275375
17.516667	1	1.271875
17.533333	1	1.267500
17.550000	1	1.261500
17.566667	1	1.254000
17.583333	1	1.243875
17.600000	1	1.232875
17.616667	1	1.221000
17.633333	1	1.208000
17.650000	1	1.193875
17.666667	1	1.179750
17.683333	1	1.165125
17.700000	1	1.150125
17.716667	1	1.134250
17.733333	1	1.118625
17.750000	1	1.103250
17.766667	1	1.088625
17.783333	1	1.074250
17.800000	1	1.059625
17.816667	1	1.045500
17.833333	1	1.032500
17.850000	1	1.018625
17.866667	1	1.005375
17.883333	1	0.992125
17.900000	1	0.978875
17.916667	1	0.966375
17.933333	1	0.954375
17.950000	1	0.943125
17.966667	1	0.932125
17.983333	1	0.921250
18.000000	1	0.910875
18.016667	1	0.900875
18.033333	1	0.891000
18.050000	1	0.880750
18.066667	1	0.870750
18.083333	1	0.861250
18.100000	1	0.851875
18.116667	1	0.842875
18.133333	1	0.834125
18.150000	1	0.825875
18.166667	1	0.818625
18.183333	1	0.812000
18.200000	1	0.805750
18.216667	1	0.800000
18.233333	1	0.795250
18.250000	1	0.791000
18.266667	1	0.787750
18.283333	1	0.785125
18.300000	1	0.783500
18.316667	1	0.782250
18.333333	1	0.781375
18.350000	1	0.780625
18.366667	1	0.780500
18.383333	1	0.780625
18.400000	1	0.781750
18.416667	1	0.783000
18.433333	1	0.785500
18.450000	1	0.788875
18.466667	1	0.793750
18.483333	1	0.798875
18.500000	1	0.806000
18.516667	1	0.814500
18.533333	1	0.825125
18.550000	1	0.837125
18.566667	1	0.851875
18.583333	1	0.868000
18.600000	1	0.886875
18.616667	1	0.906750
18.633333	1	0.928750
18.650000	1	0.953625
18.666667	1	0.980750
18.683333	1	1.008750
18.700000	1	1.038625
18.716667	1	1.069750
18.733333	1	1.102250
18.750000	1	1.135125
18.766667	1	1.169125
18.783333	1	1.203250
18.800000	1	1.237625
18.816667	1	1.270750
18.833333	1	1.302125
18.850000	1	1.331000
18.866667	1	1.357375
18.883333	1	1.380125
18.900000	1	1.398375
18.916667	1	1.411500
18.933333	1	1.419000
18.950000	1	1.420750
18.966667	1	1.415250
18.983333	1	1.403625
19.000000	1	1.385250
19.016667	1	1.360375
19.033333	1	1.329125
19.050000	1	1.292625
19.066667	1	1.251750
19.083333	1	1.206750
19.100000	1	1.159250
19.116667	1	1.109500
19.133333	1	1.059750
19.150000	1	1.009625
19.166667	1	0.961250
19.183333	1	0.915250
19.200000	1	0.872750
19.216667	1	0.833500
19.233333	1	0.798750
19.250000	1	0.768750
19.266667	1	0.743250
19.283333	1	0.723500
19.300000	1	0.709875
19.316667	1	0.701250
19.333333	1	0.698625
19.350000	1	0.701875
19.366667	1	0.709000
19.383333	1	0.722250
19.400000	1	0.739750
19.416667	1	0.761500
19.433333	1	0.787875
19.450000	1	0.817125
19.466667	1	0.848000
19.483333	1	0.879750
19.500000	1	0.912625
19.516667	1	0.945250
19.533333	1	0.976750
19.550000	1	1.005375
19.566667	1	1.030250
19.583333	1	1.050625
19.600000	1	1.067000
19.616667	1	1.077125
19.633333	1	1.081375
19.650000	1	1.079625
19.666667	1	1.072125
19.683333	1	1.059125
19.700000	1	1.040125
19.716667	1	1.016625
19.733333	1	0.991000
19.750000	1	0.960625
19.766667	1	0.928375
19.783333	1	0.893625
19.800000	1	0.858375
19.816667	1	0.823875
19.833333	1	0.789875
19.850000	1	0.756500
19.866667	1	0.725375
19.883333	1	0.695625
19.900000	1	0.668125
19.916667	1	0.642625
19.933333	1	0.619750
19.950000	1	0.599500
19.966667	1	0.581625
19.983333	1	0.565625
20.000000	1	0.552750
20.016667	1	0.541750
20.033333	1	0.533500
20.050000	1	0.528500
20.066667	1	0.524875
20.083333	1	0.523375
20.100000	1	0.525500
20.116667	1	0.529250
20.133333	1	0.535250
20.150000	1	0.543375
20.166667	1	0.553875
20.183333	1	0.567125
20.200000	1	0.582000
20.216667	1	0.596875
20.233333	1	0.612875
20.250000	1	0.629625
20.266667	1	0.646000
20.283333	1	0.661250
20.300000	1	0.676125
20.316667	1	0.688125
20.333333	1	0.698375
20.350000	1	0.705500
20.366667	1	0.709750
20.383333	1	0.711000
20.400000	1	0.707875
20.416667	1	0.703000
20.433333	1	0.695250
20.450000	1	0.686250
20.466667	1	0.675625
20.483333	1	0.665125
20.500000	1	0.654000
20.516667	1	0.645250
20.533333	1	0.638125
20.550000	1	0.635000
20.566667	1	0.635500
20.583333	1	0.641500
20.600000	1	0.653500
20.616667	1	0.672375
20.633333	1	0.698625
20.650000	1	0.731625
20.666667	1	0.772250
20.683333	1	0.821000
20.700000	1	0.877125
20.716667	1	0.938500
20.733333	1	1.005250
20.750000	1	1.076500
20.766667	1	1.150500
20.783333	1	1.224750
20.800000	1	1.298375
20.816667	1	1.366875
20.833333	1	1.429750
20.850000	1	1.483375
20.866667	1	1.527875
20.883333	1	1.560000
20.900000	1	1.579250
20.916667	1	1.584500
20.933333	1	1.577250
20.950000	1	1.555750
20.966667	1	1.521375
20.983333	1	1.475625
21.000000	1	1.420125
21.016667	1	1.356375
21.033333	1	1.286500
21.050000	1	1.213750
21.066667	1	1.138750
21.083333	1	1.063625
21.100000	1	0.990250
21.116667	1	0.920125
21.133333	1	0.854250
21.150000	1	0.792000
21.166667	1	0.734875
21.183333	1	0.683000
21.200000	1	0.635750
21.216667	1	0.594000
21.233333	1	0.557750
21.250000	1	0.525750
21.266667	1	0.497125
21.283333	1	0.472750
21.300000	1	0.452250
21.316667	1	0.434125
21.333333	1	0.418625
21.350000	1	0.405500
21.366667	1	0.395000
21.383333	1	0.386125
21.400000	1	0.379000
21.416667	1	0.372250
21.433333	1	0.367125
21.450000	1	0.362625
21.466667	1	0.359375
21.483333	1	0.357750
21.500000	1	0.356750
21.516667	1	0.355625
21.533333	1	0.356125
21.550000	1	0.357500
21.566667	1	0.359875
21.583333	1	0.363250
21.600000	1	0.367250
21.616667	1	0.373500
21.633333	1	0.381125
21.650000	1	0.389500
21.666667	1	0.400125
21.683333	1	0.413000
21.700000	1	0.427625
21.716667	1	0.444500
21.733333	1	0.462875
21.750000	1	0.483875
21.766667	1	0.506875
21.783333	1	0.532000
21.800000	1	0.558750
21.816667	1	0.586500
21.833333	1	0.616250
21.850000	1	0.646625
21.866667	1	0.677875
21.883333	1	0.708875
21.900000	1	0.739750
21.916667	1	0.769625
21.933333	1	0.797375
21.950000	1	0.824125
21.966667	1	0.847875
21.983333	1	0.868500
22.000000	1	0.885125
22.016667	1	0.897875
22.033333	1	0.905875
22.050000	1	0.910500
22.066667	1	0.910375
22.083333	1	0.906250
22.100000	1	0.898250
22.116667	1	0.886500
22.133333	1	0.871250
22.150000	1	0.853250
22.166667	1	0.832625
22.183333	1	0.810375
22.200000	1	0.785750
22.216667	1	0.760125
22.233333	1	0.733750
22.250000	1	0.707250
22.266667	1	0.679875
22.283333	1	0.652750
22.300000	1	0.625875
22.316667	1	0.599625
22.333333	1	0.573500
22.350000	1	0.548750
22.366667	1	0.524125
22.383333	1	0.500750
22.400000	1	0.478500
22.416667	1	0.457250
22.433333	1	0.437250
22.450000	1	0.418375
22.466667	1	0.401125
22.483333	1	0.385000
22.500000	1	0.370000
22.516667	1	0.357000
22.533333	1	0.344000
22.550000	1	0.332250
22.566667	1	0.321250
22.583333	1	0.312250
22.600000	1	0.303500
22.616667	1	0.295375
22.633333	1	0.288500
22.650000	1	0.282125
22.666667	1	0.275750
22.683333	1	0.270125
22.700000	1	0.265375
22.716667	1	0.260750
22.733333	1	0.256125
22.750000	1	0.251750
22.766667	1	0.248000
22.783333	1	0.244000
22.800000	1	0.240500
22.816667	1	0.237000
22.833333	1	0.234000
22.850000	1	0.230375
22.866667	1	0.227625
22.883333	1	0.225000
22.900000	1	0.221625
22.916667	1	0.219375
22.933333	1	0.217625
22.950000	1	0.216125
22.966667	1	0.215000
22.983333	1	0.214125
23.000000	1	0.213375
23.016667	1	0.212500
23.033333	1	0.212375
23.050000	1	0.212750
23.066667	1	0.213750
23.083333	1	0.214625
23.100000	1	0.216125
23.116667	1	0.218000
23.133333	1	0.220000
23.150000	1	0.221875
23.166667	1	0.224625
23.183333	1	0.227625
23.200000	1	0.231500
23.216667	1	0.234875
23.233333	1	0.239625
23.250000	1	0.245000
23.266667	1	0.251500
23.283333	1	0.258250
23.300000	1	0.267000
23.316667	1	0.277250
23.333333	1	0.289750
23.350000	1	0.305375
23.366667	1	0.323875
23.383333	1	0.345750
23.400000	1	0.373625
23.416667	1	0.406875
23.433333	1	0.446500
23.450000	1	0.493250
23.466667	1	0.547500
23.483333	1	0.612250
23.500000	1	0.688000
23.516667	1	0.775500
23.533333	1	0.876375
23.550000	1	0.991375
23.566667	1	1.121500
23.583333	1	1.267000
23.600000	1	1.428875
23.616667	1	1.607000
23.633333	1	1.800125
23.650000	1	2.008625
23.666667	1	2.231000
23.683333	1	2.464500
23.700000	1	2.706625
23.716667	1	2.954375
23.733333	1	3.203250
23.750000	1	3.450125
23.766667	1	3.689125
23.783333	1	3.914625
23.800000	1	4.123250
23.816667	1	4.309875
23.833333	1	4.469750
23.850000	1	4.599000
23.866667	1	4.695375
23.883333	1	4.756000
23.900000	1	4.780625
23.916667	1	4.767125
23.933333	1	4.717750
23.950000	1	4.633625
23.966667	1	4.517625
23.983333	1	4.372625
24.000000	1	4.203500
24.016667	1	4.014250
24.033333	1	3.809125
24.050000	1	3.592875
24.066667	1	3.369500
24.083333	1	3.143875
24.100000	1	2.919000
24.116667	1	2.697750
24.133333	1	2.483125
24.150000	1	2.277375
24.166667	1	2.082000
24.183333	1	1.899250
24.200000	1	1.729125
24.216667	1	1.571875
24.233333	1	1.428500
24.250000	1	1.297250
24.266667	1	1.178875
24.283333	1	1.073000
24.300000	1	0.978875
24.316667	1	0.894750
24.333333	1	0.820000
24.350000	1	0.755000
24.366667	1	0.698375
24.383333	1	0.649375
24.400000	1	0.606750
24.416667	1	0.571250
24.433333	1	0.541125
24.450000	1	0.516625
24.466667	1	0.495875
24.483333	1	0.478500
24.500000	1	0.463875
24.516667	1	0.451750
24.533333	1	0.442375
24.550000	1	0.435125
24.566667	1	0.428250
24.583333	1	0.422875
24.600000	1	0.418125
24.616667	1	0.412750
24.633333	1	0.409125
24.650000	1	0.405000
24.666667	1	0.400500
24.683333	1	0.396250
24.700000	1	0.391375
24.716667	1	0.386250
24.733333	1	0.380625
24.750000	1	0.375250
24.766667	1	0.370375
24.783333	1	0.365125
24.800000	1	0.359125
24.816667	1	0.353375
24.833333	1	0.348250
24.850000	1	0.342250
24.866667	1	0.336750
24.883333	1	0.331250
24.900000	1	0.325875
24.916667	1	0.320000
24.933333	1	0.315500
24.950000	1	0.310125
24.966667	1	0.304875
24.983333	1	0.300125
25.000000	1	0.295500
25.016667	1	0.291125
25.033333	1	0.286625
25.050000	1	0.282125
25.066667	1	0.278500
25.083333	1	0.274125
25.100000	1	0.269500
25.116667	1	0.266000
25.133333	1	0.261500
25.150000	1	0.257250
25.166667	1	0.252500
25.183333	1	0.248250
25.200000	1	0.244250
25.216667	1	0.240000
25.233333	1	0.235750
25.250000	1	0.231375
25.266667	1	0.227500
25.283333	1	0.223875
25.300000	1	0.219125
25.316667	1	0.214625
25.333333	1	0.211500
25.350000	1	0.208500
25.366667	1	0.204625
25.383333	1	0.201250
25.400000	1	0.197750
25.416667	1	0.195125
25.433333	1	0.193125
25.450000	1	0.190000
25.466667	1	0.188000
25.483333	1	0.185875
25.500000	1	0.183250
25.516667	1	0.181625
25.533333	1	0.180375
25.550000	1	0.178625
25.566667	1	0.177875
25.583333	1	0.177500
25.600000	1	0.176750
25.616667	1	0.176125
25.633333	1	0.175625
25.650000	1	0.174750
25.666667	1	0.174250
25.683333	1	0.174125
25.700000	1	0.174625
25.716667	1	0.174625
25.733333	1	0.175000
25.750000	1	0.174875
25.766667	1	0.175000
25.783333	1	0.175375
25.800000	1	0.175875
25.816667	1	0.177000
25.833333	1	0.177125
25.850000	1	0.178375
25.866667	1	0.180375
25.883333	1	0.181750
25.900000	1	0.184375
25.916667	1	0.187250
25.933333	1	0.190750
25.950000	1	0.193875
25.966667	1	0.197875
25.983333	1	0.203125
26.000000	1	0.207875
26.016667	1	0.213000
26.033333	1	0.217875
26.050000	1	0.222750
26.066667	1	0.228125
26.083333	1	0.234250
26.100000	1	0.240250
26.116667	1	0.246000
26.133333	1	0.251875
26.150000	1	0.257250
26.166667	1	0.262500
26.183333	1	0.267250
26.200000	1	0.271125
26.216667	1	0.275375
26.233333	1	0.279000
26.250000	1	0.283000
26.266667	1	0.285875
26.283333	1	0.287500
26.300000	1	0.288750
26.316667	1	0.288750
26.333333	1	0.288500
26.350000	1	0.287250
26.366667	1	0.285500
26.383333	1	0.283000
26.400000	1	0.279625
26.416667	1	0.275875
26.433333	1	0.270875
26.450000	1	0.266375
26.466667	1	0.261125
26.483333	1	0.254875
26.500000	1	0.248125
26.516667	1	0.241500
26.533333	1	0.234500
26.550000	1	0.227250
26.566667	1	0.219750
26.583333	1	0.212625
26.600000	1	0.205625
26.616667	1	0.198500
26.633333	1	0.190750
26.650000	1	0.184250
26.666667	1	0.177625
26.683333	1	0.170625
26.700000	1	0.163500
26.716667	1	0.157375
26.733333	1	0.152125
26.750000	1	0.146250
26.766667	1	0.141000
26.783333	1	0.135875
26.800000	1	0.130500
26.816667	1	0.126875
26.833333	1	0.123625
26.850000	1	0.120750
26.866667	1	0.117750
26.883333	1	0.116000
26.900000	1	0.115125
26.916667	1	0.113750
26.933333	1	0.112250
26.950000	1	0.111625
26.966667	1	0.112125
26.983333	1	0.112375
27.000000	1	0.114750
27.016667	1	0.117000
27.033333	1	0.119250
27.050000	1	0.122500
27.066667	1	0.126750
27.083333	1	0.131250
27.100000	1	0.137125
27.116667	1	0.144375
27.133333	1	0.152125
27.150000	1	0.161375
27.166667	1	0.171875
27.183333	1	0.183875
27.200000	1	0.198500
27.216667	1	0.214875
27.233333	1	0.233875
27.250000	1	0.256000
27.266667	1	0.280750
27.283333	1	0.309125
27.300000	1	0.342000
27.316667	1	0.379000
27.333333	1	0.420000
27.350000	1	0.467375
27.366667	1	0.521250
27.383333	1	0.581500
27.400000	1	0.648875
27.416667	1	0.723875
27.433333	1	0.807750
27.450000	1	0.900000
27.466667	1	1.001625
27.483333	1	1.113000
27.500000	1	1.234125
27.516667	1	1.364375
27.533333	1	1.504500
27.550000	1	1.653250
27.566667	1	1.810375
27.583333	1	1.975125
27.600000	1	2.147125
27.616667	1	2.323000
27.633333	1	2.503500
27.650000	1	2.686000
27.666667	1	2.869250
27.683333	1	3.049500
27.700000	1	3.224000
27.716667	1	3.391750
27.733333	1	3.548625
27.750000	1	3.693000
27.766667	1	3.822000
27.783333	1	3.933500
27.800000	1	4.024500
27.816667	1	4.094500
27.833333	1	4.142500
27.850000	1	4.164875
27.866667	1	4.162750
27.883333	1	4.135750
27.900000	1	4.083375
27.916667	1	4.008250
27.933333	1	3.909375
27.950000	1	3.790250
27.966667	1	3.653125
27.983333	1	3.500250
28.000000	1	3.334625
28.016667	1	3.158500
28.033333	1	2.975500
28.050000	1	2.787750
28.066667	1	2.597375
28.083333	1	2.408000
28.100000	1	2.221500
28.116667	1	2.040500
28.133333	1	1.865625
28.150000	1	1.699750
28.166667	1	1.542625
28.183333	1	1.396750
28.200000	1	1.261125
28.216667	1	1.136500
28.233333	1	1.022250
28.250000	1	0.919375
28.266667	1	0.826000
28.283333	1	0.743000
28.300000	1	0.669250
28.316667	1	0.605000
28.333333	1	0.548750
28.350000	1	0.500125
28.366667	1	0.459250
28.383333	1	0.424625
28.400000	1	0.396125
28.416667	1	0.373625
28.433333	1	0.354875
28.450000	1	0.341625
28.466667	1	0.332125
28.483333	1	0.327000
28.500000	1	0.323375
28.516667	1	0.323250
28.533333	1	0.325250
28.550000	1	0.329625
28.566667	1	0.336125
28.583333	1	0.344125
28.600000	1	0.353250
28.616667	1	0.363000
28.633333	1	0.373625
28.650000	1	0.385125
28.666667	1	0.397250
28.683333	1	0.409250
28.700000	1	0.420875
28.716667	1	0.432375
28.733333	1	0.443375
28.750000	1	0.453750
28.766667	1	0.463625
28.783333	1	0.472125
28.800000	1	0.480125
28.816667	1	0.487375
28.833333	1	0.494000
28.850000	1	0.499125
28.866667	1	0.503000
28.883333	1	0.505750
28.900000	1	0.507250
28.916667	1	0.507000
28.933333	1	0.506000
28.950000	1	0.503875
28.966667	1	0.500125
28.983333	1	0.495875
29.000000	1	0.490375
29.016667	1	0.484000
29.033333	1	0.476250
29.050000	1	0.467375
29.066667	1	0.458375
29.083333	1	0.447625
29.100000	1	0.436875
29.116667	1	0.425125
29.133333	1	0.412625
29.150000	1	0.399875
29.166667	1	0.387125
29.183333	1	0.373875
29.200000	1	0.360875
29.216667	1	0.347875
29.233333	1	0.334750
29.250000	1	0.321625
29.266667	1	0.307625
29.283333	1	0.294125
29.300000	1	0.281250
29.316667	1	0.269375
29.333333	1	0.256875
29.350000	1	0.245750
29.366667	1	0.234500
29.383333	1	0.223375
29.400000	1	0.212375
29.416667	1	0.201500
29.433333	1	0.192125
29.450000	1	0.181625
29.466667	1	0.172375
29.483333	1	0.163250
29.500000	1	0.155250
29.516667	1	0.146750
29.533333	1	0.139000
29.550000	1	0.132000
29.566667	1	0.125000
29.583333	1	0.117375
29.600000	1	0.111000
29.616667	1	0.105000
29.633333	1	0.099000
29.650000	1	0.093250
29.666667	1	0.088625
29.683333	1	0.083000
29.700000	1	0.079000
29.716667	1	0.074250
29.733333	1	0.070250
29.750000	1	0.066250
29.766667	1	0.062750
29.783333	1	0.059125
29.800000	1	0.055250
29.816667	1	0.053500
29.833333	1	0.050875
29.850000	1	0.048875
29.866667	1	0.046875
29.883333	1	0.044750
29.900000	1	0.042500
29.916667	1	0.040625
29.933333	1	0.039250
29.950000	1	0.038000
29.966667	1	0.037125
29.983333	1	0.036125
30.000000	1	0.035375
30.016667	1	0.035125
30.033333	1	0.034875
30.050000	1	0.034250
30.066667	1	0.033875
30.083333	1	0.033125
30.100000	1	0.032875
30.116667	1	0.033625
30.133333	1	0.034125
30.150000	1	0.034250
30.166667	1	0.035250
30.183333	1	0.036250
30.200000	1	0.037625
30.216667	1	0.038000
30.233333	1	0.039250
30.250000	1	0.039875
30.266667	1	0.041375
30.283333	1	0.041875
30.300000	1	0.042375
30.316667	1	0.043375
30.333333	1	0.043875
30.350000	1	0.044125
30.366667	1	0.045000
30.383333	1	0.046250
30.400000	1	0.047375
30.416667	1	0.047750
30.433333	1	0.048875
30.450000	1	0.049875
30.466667	1	0.051250
30.483333	1	0.052250
30.500000	1	0.053375
30.516667	1	0.056000
30.533333	1	0.057875
30.550000	1	0.060375
30.566667	1	0.063250
30.583333	1	0.066250
30.600000	1	0.070875
30.616667	1	0.075750
30.633333	1	0.080625
30.650000	1	0.087250
30.666667	1	0.093375
30.683333	1	0.100000
30.700000	1	0.108500
30.716667	1	0.117875
30.733333	1	0.127875
30.750000	1	0.138375
30.766667	1	0.150125
30.783333	1	0.164625
30.800000	1	0.178750
30.816667	1	0.194500
30.833333	1	0.211500
30.850000	1	0.231000
30.866667	1	0.252125
30.883333	1	0.275125
30.900000	1	0.300250
30.916667	1	0.327875
30.933333	1	0.358250
30.950000	1	0.391875
30.966667	1	0.429125
30.983333	1	0.470000
31.000000	1	0.515250
31.016667	1	0.565625
31.033333	1	0.621000
31.050000	1	0.681375
31.066667	1	0.747875
31.083333	1	0.821000
31.100000	1	0.900500
31.116667	1	0.986500
31.133333	1	1.079375
31.150000	1	1.179750
31.166667	1	1.286750
31.183333	1	1.401625
31.200000	1	1.523250
31.216667	1	1.651750
31.233333	1	1.784875
31.250000	1	1.924250
31.266667	1	2.067625
31.283333	1	2.214125
31.300000	1	2.362750
31.316667	1	2.512000
31.333333	1	2.660250
31.350000	1	2.806125
31.366667	1	2.949000
31.383333	1	3.086125
31.400000	1	3.215625
31.416667	1	3.336125
31.433333	1	3.445875
31.450000	1	3.544500
31.466667	1	3.628750
31.483333	1	3.697875
31.500000	1	3.752125
31.516667	1	3.790125
31.533333	1	3.810500
31.550000	1	3.814875
31.566667	1	3.801750
31.583333	1	3.770750
31.600000	1	3.724750
31.616667	1	3.662375
31.633333	1	3.585375
31.650000	1	3.495750
31.666667	1	3.393875
31.683333	1	3.281750
31.700000	1	3.161125
31.716667	1	3.032375
31.733333	1	2.898625
31.750000	1	2.760375
31.766667	1	2.619750
31.783333	1	2.477000
31.800000	1	2.334000
31.816667	1	2.192625
31.833333	1	2.053750
31.850000	1	1.918500
31.866667	1	1.788125
31.883333	1	1.662125
31.900000	1	1.541750
31.916667	1	1.427625
31.933333	1	1.320375
31.950000	1	1.219125
31.966667	1	1.124375
31.983333	1	1.036250
32.000000	1	0.953875
32.016667	1	0.877625
32.033333	1	0.807625
32.050000	1	0.742500
32.066667	1	0.682625
32.083333	1	0.628375
32.100000	1	0.577875
32.116667	1	0.532375
32.133333	1	0.491000
32.150000	1	0.452875
32.166667	1	0.417500
32.183333	1	0.385000
32.200000	1	0.355000
32.216667	1	0.327750
32.233333	1	0.302250
32.250000	1	0.277750
32.266667	1	0.255125
32.283333	1	0.234125
32.300000	1	0.213625
32.316667	1	0.195000
32.333333	1	0.178500
32.350000	1	0.162625
32.366667	1	0.147000
32.383333	1	0.132000
32.400000	1	0.118375
32.416667	1	0.105375
32.433333	1	0.093250
32.450000	1	0.081750
32.466667	1	0.071375
32.483333	1	0.061375
32.500000	1	0.051750
32.516667	1	0.042875
32.533333	1	0.034500
32.550000	1	0.027375
32.566667	1	0.020875
32.583333	1	0.014750
32.600000	1	0.009500
32.616667	1	0.004000
32.633333	1	-0.000250
32.650000	1	-0.004250
32.666667	1	-0.008750
32.683333	1	-0.012250
32.700000	1	-0.015625
32.716667	1	-0.019125
32.733333	1	-0.022000
32.750000	1	-0.024000
32.766667	1	-0.026500
32.783333	1	-0.028750
32.800000	1	-0.031250
32.816667	1	-0.033500
32.833333	1	-0.035250
32.850000	1	-0.037625
32.866667	1	-0.039875
32.883333	1	-0.042250
32.900000	1	-0.044250
32.916667	1	-0.046125
32.933333	1	-0.048000
32.950000	1	-0.050500
32.966667	1	-0.052500
32.983333	1	-0.054250
33.000000	1	-0.056125
33.016667	1	-0.058125
33.033333	1	-0.060125
33.050000	1	-0.062000
33.066667	1	-0.063625
33.083333	1	-0.064000
33.100000	1	-0.065000
33.116667	1	-0.065750
33.133333	1	-0.066125
33.150000	1	-0.066125
33.166667	1	-0.065625
33.183333	1	-0.064750
33.200000	1	-0.063500
33.216667	1	-0.062125
33.233333	1	-0.059500
33.250000	1	-0.056625
33.266667	1	-0.053250
33.283333	1	-0.049375
33.300000	1	-0.045250
33.316667	1	-0.039750
33.333333	1	-0.034250
33.350000	1	-0.027625
33.366667	1	-0.021125
33.383333	1	-0.013500
33.400000	1	-0.004750
33.416667	1	0.004875
33.433333	1	0.014250
33.450000	1	0.025375
33.466667	1	0.037000
33.483333	1	0.049875
33.500000	1	0.063375
33.516667	1	0.077875
33.533333	1	0.093375
33.550000	1	0.111000
33.566667	1	0.130000
33.583333	1	0.150125
33.600000	1	0.171375
33.616667	1	0.193750
33.633333	1	0.217375
33.650000	1	0.242500
33.666667	1	0.268875
33.683333	1	0.296375
33.700000	1	0.324750
33.716667	1	0.354750
33.733333	1	0.386125
33.750000	1	0.418000
33.766667	1	0.451000
33.783333	1	0.484500
33.800000	1	0.517875
33.816667	1	0.551250
33.833333	1	0.584375
33.850000	1	0.617375
33.866667	1	0.648625
33.883333	1	0.679125
33.900000	1	0.708750
33.916667	1	0.736375
33.933333	1	0.762375
33.950000	1	0.785750
33.966667	1	0.807250
33.983333	1	0.826250
34.000000	1	0.841125
34.016667	1	0.853875
34.033333	1	0.862500
34.050000	1	0.868000
34.066667	1	0.871000
34.083333	1	0.870875
34.100000	1	0.867000
34.116667	1	0.860000
34.133333	1	0.850000
34.150000	1	0.836250
34.166667	1	0.820375
34.183333	1	0.802375
34.200000	1	0.781625
34.216667	1	0.759500
34.233333	1	0.734625
34.250000	1	0.708625
34.266667	1	0.681250
34.283333	1	0.653625
34.300000	1	0.625625
34.316667	1	0.597250
34.333333	1	0.568750
34.350000	1	0.540750
34.366667	1	0.512750
34.383333	1	0.485250
34.400000	1	0.458625
34.416667	1	0.433000
34.433333	1	0.408625
34.450000	1	0.385500
34.466667	1	0.362625
34.483333	1	0.341750
34.500000	1	0.321625
34.516667	1	0.302625
34.533333	1	0.285000
34.550000	1	0.269625
34.566667	1	0.254125
34.583333	1	0.240500
34.600000	1	0.228125
34.616667	1	0.216125
34.633333	1	0.206125
34.650000	1	0.196250
34.666667	1	0.187625
34.683333	1	0.180250
34.700000	1	0.173125
34.716667	1	0.166375
34.733333	1	0.160875
34.750000	1	0.155500
34.766667	1	0.150875
34.783333	1	0.146875
34.800000	1	0.142875
34.816667	1	0.139625
34.833333	1	0.136625
34.850000	1	0.133500
34.866667	1	0.130375
34.883333	1	0.127250
34.900000	1	0.124625
34.916667	1	0.122250
34.933333	1	0.120500
34.950000	1	0.118750
34.966667	1	0.116625
34.983333	1	0.114500
35.000000	1	0.112500
35.016667	1	0.111250
35.033333	1	0.109375
35.050000	1	0.107375
35.066667	1	0.105500
35.083333	1	0.104250
35.100000	1	0.102875
35.116667	1	0.101250
35.133333	1	0.100125
35.150000	1	0.098750
35.166667	1	0.097750
35.183333	1	0.096625
35.200000	1	0.096000
35.216667	1	0.094750
35.233333	1	0.093625
35.250000	1	0.091750
35.266667	1	0.091000
35.283333	1	0.090000
35.300000	1	0.089250
35.316667	1	0.088750
35.333333	1	0.088125
35.350000	1	0.086750
35.366667	1	0.086000
35.383333	1	0.085750
35.400000	1	0.086000
35.416667	1	0.085625
35.433333	1	0.085375
35.450000	1	0.084375
35.466667	1	0.083875
35.483333	1	0.083625
35.500000	1	0.083375
35.516667	1	0.083375
35.533333	1	0.083250
35.550000	1	0.083500
35.566667	1	0.083375
35.583333	1	0.083000
35.600000	1	0.082750
35.616667	1	0.082625
35.633333	1	0.082625
35.650000	1	0.082625
35.666667	1	0.082250
35.683333	1	0.081875
35.700000	1	0.081500
35.716667	1	0.081375
35.733333	1	0.081500
35.750000	1	0.082125
35.766667	1	0.081625
35.783333	1	0.081375
35.800000	1	0.081125
35.816667	1	0.080500
35.833333	1	0.080375
35.850000	1	0.080625
35.866667	1	0.080375
35.883333	1	0.079750
35.900000	1	0.079250
35.916667	1	0.079000
35.933333	1	0.079375
35.950000	1	0.079375
35.966667	1	0.079375
35.983333	1	0.078625
36.000000	1	0.078500
36.016667	1	0.078625
36.033333	1	0.079250
36.050000	1	0.079375
36.066667	1	0.080250
36.083333	1	0.080875
36.100000	1	0.081625
36.116667	1	0.082875
36.133333	1	0.084375
36.150000	1	0.084750
36.166667	1	0.086125
36.183333	1	0.087000
36.200000	1	0.088250
36.216667	1	0.089250
36.233333	1	0.090125
36.250000	1	0.091250
36.266667	1	0.092250
36.283333	1	0.093875
36.300000	1	0.095000
36.316667	1	0.095250
36.333333	1	0.096375
36.350000	1	0.097375
36.366667	1	0.098000
36.383333	1	0.098875
36.400000	1	0.099875
36.416667	1	0.099875
36.433333	1	0.099750
36.450000	1	0.099500
36.466667	1	0.099125
36.483333	1	0.098875
36.500000	1	0.097875
36.516667	1	0.097500
36.533333	1	0.095750
36.550000	1	0.094000
36.566667	1	0.092125
36.583333	1	0.090250
36.600000	1	0.088250
36.616667	1	0.085625
36.633333	1	0.082750
36.650000	1	0.079625
36.666667	1	0.077625
36.683333	1	0.074625
36.700000	1	0.072250
36.716667	1	0.070250
36.733333	1	0.067875
36.750000	1	0.065250
36.766667	1	0.062250
36.783333	1	0.060250
36.800000	1	0.057875
36.816667	1	0.055625
36.833333	1	0.053625
36.850000	1	0.051000
36.866667	1	0.049750
36.883333	1	0.048875
36.900000	1	0.048125
36.916667	1	0.047375
36.933333	1	0.046375
36.950000	1	0.045875
36.966667	1	0.045375
36.983333	1	0.045125
37.000000	1	0.044500
37.016667	1	0.044375
37.033333	1	0.044625
37.050000	1	0.045000
37.066667	1	0.045000
37.083333	1	0.045375
37.100000	1	0.045875
37.116667	1	0.047250
37.133333	1	0.048375
37.150000	1	0.049250
37.166667	1	0.050000
37.183333	1	0.050125
37.200000	1	0.050625
37.216667	1	0.050500
37.233333	1	0.050875
37.250000	1	0.051500
37.266667	1	0.051875
37.283333	1	0.052375
37.300000	1	0.052875
37.316667	1	0.053125
37.333333	1	0.053250
37.350000	1	0.053125
37.366667	1	0.053500
37.383333	1	0.053625
37.400000	1	0.053000
37.416667	1	0.052125
37.433333	1	0.052000
37.450000	1	0.051500
37.466667	1	0.050375
37.483333	1	0.049875
37.500000	1	0.049375
37.516667	1	0.048000
37.533333	1	0.046875
37.550000	1	0.046000
37.566667	1	0.044500
37.583333	1	0.043500
37.600000	1	0.042625
37.616667	1	0.041500
37.633333	1	0.040125
37.650000	1	0.039000
37.666667	1	0.037625
37.683333	1	0.036875
37.700000	1	0.035375
37.716667	1	0.034000
37.733333	1	0.033000
37.750000	1	0.031375
37.766667	1	0.029500
37.783333	1	0.028500
37.800000	1	0.027000
37.816667	1	0.025875
37.833333	1	0.024750
37.850000	1	0.023500
37.866667	1	0.022375
37.883333	1	0.021000
37.900000	1	0.019875
37.916667	1	0.018625
37.933333	1	0.017875
37.950000	1	0.016625
37.966667	1	0.015625
37.983333	1	0.014750
38.000000	1	0.014000
38.016667	1	0.014250
38.033333	1	0.014000
38.050000	1	0.013250
38.066667	1	0.013375
38.083333	1	0.013000
38.100000	1	0.013625
38.116667	1	0.014375
38.133333	1	0.015375
38.150000	1	0.015625
38.166667	1	0.016250
38.183333	1	0.016750
38.200000	1	0.017625
38.216667	1	0.017875
38.233333	1	0.018625
38.250000	1	0.019250
38.266667	1	0.020000
38.283333	1	0.020375
38.300000	1	0.021000
38.316667	1	0.021125
38.333333	1	0.021500
38.350000	1	0.021500
38.366667	1	0.022125
38.383333	1	0.021875
38.400000	1	0.021375
38.416667	1	0.022000
38.433333	1	0.021625
38.450000	1	0.021750
38.466667	1	0.021250
38.483333	1	0.020625
38.500000	1	0.020625
38.516667	1	0.020125
38.533333	1	0.019000
38.550000	1	0.018000
38.566667	1	0.017875
38.583333	1	0.016875
38.600000	1	0.015875
38.616667	1	0.014250
38.633333	1	0.013375
38.650000	1	0.012625
38.666667	1	0.012125
38.683333	1	0.011250
38.700000	1	0.010875
38.716667	1	0.010500
38.733333	1	0.009500
38.750000	1	0.008750
38.766667	1	0.008250
38.783333	1	0.007250
38.800000	1	0.007000
38.816667	1	0.007000
38.833333	1	0.006500
38.850000	1	0.005875
38.866667	1	0.006750
38.883333	1	0.006250
38.900000	1	0.005625
38.916667	1	0.005625
38.933333	1	0.005625
38.950000	1	0.005625
38.966667	1	0.005875
38.983333	1	0.005875
39.000000	1	0.005625
39.016667	1	0.006500
39.033333	1	0.006750
39.050000	1	0.006625
39.066667	1	0.007000
39.083333	1	0.006875
39.100000	1	0.006500
39.116667	1	0.006250
39.133333	1	0.006500
39.150000	1	0.006375
39.166667	1	0.006000
39.183333	1	0.005750
39.200000	1	0.005000
39.216667	1	0.004750
39.233333	1	0.004125
39.250000	1	0.004125
39.266667	1	0.003375
39.283333	1	0.003250
39.300000	1	0.002500
39.316667	1	0.001750
39.333333	1	0.001125
39.350000	1	0.000750
39.366667	1	0.000125
39.383333	1	0.000000
39.400000	1	-0.000750
39.416667	1	-0.000875
39.433333	1	-0.000875
39.450000	1	-0.000875
39.466667	1	-0.000375
39.483333	1	-0.000375
39.500000	1	-0.000375
39.516667	1	0.000000
39.533333	1	0.000000
39.550000	1	0.000000
39.566667	1	0.000000
39.583333	1	0.001125
39.600000	1	0.001875
39.616667	1	0.002125
39.633333	1	0.002375
39.650000	1	0.002625
39.666667	1	0.003625
39.683333	1	0.004750
39.700000	1	0.005750
39.716667	1	0.006500
39.733333	1	0.006750
39.750000	1	0.007375
39.766667	1	0.008500
39.783333	1	0.009625
39.800000	1	0.010875
39.816667	1	0.011500
39.833333	1	0.011625
39.850000	1	0.012625
39.866667	1	0.013875
39.883333	1	0.014375
39.900000	1	0.015625
39.916667	1	0.016750
39.933333	1	0.017500
39.950000	1	0.018000
39.966667	1	0.018625
39.983333	1	0.019000
40.000000	1	0.019625
