URL	chrom://bioreactor/micro_cm7/HPLC_Ultimate_3000/Users/markusar/20240716_MA_pHrange2.seq/389.smp/RI_1.channel/RI_1.chm
Channel	RI_1

Injection Information:
Data Vault	micro_cm7
Sequence	20240716_MA_pHrange2
Name	Fp1_40H_1
Number	26
Position	BC2
Comment	
Processing Method	
Instrument Method	run_25B_method
Type	Unknown
Status	Finished
Inject Time	17.07.2024 11:10:44 +02:00
Volume (µl)	20.0000
Dilution Factor	1.0000
Weight	1.0000

Chromatogram Data Information:
Time Min. (min)	0.000000
Time Max. (min)	40.000000
Data Points	2401
Detector	RI
Generating Data System	Chromeleon 7.3.2.11814
Exporting Data System	Chromeleon 7.3.2.0
Operator	Instrument Controller
Signal Quantity	Refractive 
Signal Unit	µRIU
Signal Min.	-0.093500
Signal Max.	82.648625
Channel	RI_1
Driver Name	RID520Driver.dll
Channel Type	Evaluation
Min. Step (s)	1
Max. Step (s)	1
Average Step (s)	1

Signal Parameter Information:
Signal Info	

Chromatogram Data:
Time (min)	Step (s)	Value (µRIU)
0.000000	n.a.	0.022750
0.016667	1	0.019625
0.033333	1	0.017375
0.050000	1	0.014125
0.066667	1	0.011750
0.083333	1	0.009125
0.100000	1	0.006875
0.116667	1	0.003875
0.133333	1	0.000875
0.150000	1	-0.001125
0.166667	1	-0.003375
0.183333	1	-0.006125
0.200000	1	-0.008375
0.216667	1	-0.010500
0.233333	1	-0.012375
0.250000	1	-0.014625
0.266667	1	-0.016500
0.283333	1	-0.017625
0.300000	1	-0.018875
0.316667	1	-0.020250
0.333333	1	-0.022250
0.350000	1	-0.024000
0.366667	1	-0.025250
0.383333	1	-0.026250
0.400000	1	-0.027000
0.416667	1	-0.026500
0.433333	1	-0.025375
0.450000	1	-0.023875
0.466667	1	-0.022000
0.483333	1	-0.019500
0.500000	1	-0.017500
0.516667	1	-0.015875
0.533333	1	-0.015000
0.550000	1	-0.013750
0.566667	1	-0.013625
0.583333	1	-0.012625
0.600000	1	-0.011875
0.616667	1	-0.011500
0.633333	1	-0.009625
0.650000	1	-0.008125
0.666667	1	-0.006375
0.683333	1	-0.004125
0.700000	1	-0.001500
0.716667	1	0.001000
0.733333	1	0.003750
0.750000	1	0.006500
0.766667	1	0.009250
0.783333	1	0.011500
0.800000	1	0.014000
0.816667	1	0.016125
0.833333	1	0.018875
0.850000	1	0.021125
0.866667	1	0.022125
0.883333	1	0.023625
0.900000	1	0.024625
0.916667	1	0.025250
0.933333	1	0.026000
0.950000	1	0.026000
0.966667	1	0.026500
0.983333	1	0.026875
1.000000	1	0.026375
1.016667	1	0.026125
1.033333	1	0.024875
1.050000	1	0.023500
1.066667	1	0.022625
1.083333	1	0.021500
1.100000	1	0.019500
1.116667	1	0.017875
1.133333	1	0.015875
1.150000	1	0.013250
1.166667	1	0.010250
1.183333	1	0.007875
1.200000	1	0.004625
1.216667	1	0.002125
1.233333	1	-0.000500
1.250000	1	-0.003625
1.266667	1	-0.006875
1.283333	1	-0.009875
1.300000	1	-0.013875
1.316667	1	-0.016875
1.333333	1	-0.019500
1.350000	1	-0.022000
1.366667	1	-0.024750
1.383333	1	-0.028125
1.400000	1	-0.030500
1.416667	1	-0.032000
1.433333	1	-0.034000
1.450000	1	-0.036000
1.466667	1	-0.037875
1.483333	1	-0.039125
1.500000	1	-0.040000
1.516667	1	-0.040250
1.533333	1	-0.040250
1.550000	1	-0.040375
1.566667	1	-0.040250
1.583333	1	-0.039625
1.600000	1	-0.038750
1.616667	1	-0.038500
1.633333	1	-0.037750
1.650000	1	-0.036125
1.666667	1	-0.034000
1.683333	1	-0.032000
1.700000	1	-0.030250
1.716667	1	-0.028125
1.733333	1	-0.026000
1.750000	1	-0.024375
1.766667	1	-0.022375
1.783333	1	-0.020250
1.800000	1	-0.018125
1.816667	1	-0.016875
1.833333	1	-0.015625
1.850000	1	-0.013500
1.866667	1	-0.012125
1.883333	1	-0.010500
1.900000	1	-0.008875
1.916667	1	-0.007875
1.933333	1	-0.006750
1.950000	1	-0.005625
1.966667	1	-0.003875
1.983333	1	-0.003375
2.000000	1	-0.003000
2.016667	1	-0.002375
2.033333	1	-0.002250
2.050000	1	-0.002000
2.066667	1	-0.001500
2.083333	1	-0.000375
2.100000	1	-0.000375
2.116667	1	-0.000625
2.133333	1	-0.001500
2.150000	1	-0.002250
2.166667	1	-0.002250
2.183333	1	-0.002375
2.200000	1	-0.003375
2.216667	1	-0.004125
2.233333	1	-0.004375
2.250000	1	-0.005250
2.266667	1	-0.005750
2.283333	1	-0.006250
2.300000	1	-0.006875
2.316667	1	-0.008000
2.333333	1	-0.009125
2.350000	1	-0.009625
2.366667	1	-0.010875
2.383333	1	-0.011250
2.400000	1	-0.012250
2.416667	1	-0.013125
2.433333	1	-0.013625
2.450000	1	-0.014125
2.466667	1	-0.015375
2.483333	1	-0.016625
2.500000	1	-0.017500
2.516667	1	-0.018125
2.533333	1	-0.019000
2.550000	1	-0.020375
2.566667	1	-0.021875
2.583333	1	-0.023375
2.600000	1	-0.024375
2.616667	1	-0.025500
2.633333	1	-0.026625
2.650000	1	-0.027250
2.666667	1	-0.028625
2.683333	1	-0.030000
2.700000	1	-0.031875
2.716667	1	-0.033375
2.733333	1	-0.035750
2.750000	1	-0.038000
2.766667	1	-0.039625
2.783333	1	-0.040875
2.800000	1	-0.042500
2.816667	1	-0.044125
2.833333	1	-0.045875
2.850000	1	-0.047250
2.866667	1	-0.049750
2.883333	1	-0.052000
2.900000	1	-0.054125
2.916667	1	-0.056000
2.933333	1	-0.057750
2.950000	1	-0.059375
2.966667	1	-0.061250
2.983333	1	-0.063125
3.000000	1	-0.064875
3.016667	1	-0.065875
3.033333	1	-0.066625
3.050000	1	-0.067750
3.066667	1	-0.068375
3.083333	1	-0.069000
3.100000	1	-0.069500
3.116667	1	-0.069375
3.133333	1	-0.069000
3.150000	1	-0.068125
3.166667	1	-0.067500
3.183333	1	-0.066750
3.200000	1	-0.065500
3.216667	1	-0.063375
3.233333	1	-0.062000
3.250000	1	-0.060000
3.266667	1	-0.057500
3.283333	1	-0.055250
3.300000	1	-0.052750
3.316667	1	-0.049875
3.333333	1	-0.047625
3.350000	1	-0.044625
3.366667	1	-0.041000
3.383333	1	-0.038000
3.400000	1	-0.034625
3.416667	1	-0.031750
3.433333	1	-0.028500
3.450000	1	-0.025250
3.466667	1	-0.022500
3.483333	1	-0.020250
3.500000	1	-0.017750
3.516667	1	-0.015125
3.533333	1	-0.012750
3.550000	1	-0.011000
3.566667	1	-0.008750
3.583333	1	-0.007125
3.600000	1	-0.005625
3.616667	1	-0.005125
3.633333	1	-0.004625
3.650000	1	-0.003875
3.666667	1	-0.003250
3.683333	1	-0.002500
3.700000	1	-0.002875
3.716667	1	-0.002875
3.733333	1	-0.002750
3.750000	1	-0.003000
3.766667	1	-0.003750
3.783333	1	-0.004375
3.800000	1	-0.005125
3.816667	1	-0.005375
3.833333	1	-0.005625
3.850000	1	-0.006375
3.866667	1	-0.006875
3.883333	1	-0.008250
3.900000	1	-0.009500
3.916667	1	-0.010250
3.933333	1	-0.011625
3.950000	1	-0.012125
3.966667	1	-0.012125
3.983333	1	-0.012500
4.000000	1	-0.012250
4.016667	1	-0.012125
4.033333	1	-0.011875
4.050000	1	-0.011750
4.066667	1	-0.010875
4.083333	1	-0.008750
4.100000	1	-0.007250
4.116667	1	-0.005625
4.133333	1	-0.003750
4.150000	1	-0.002000
4.166667	1	0.000250
4.183333	1	0.002750
4.200000	1	0.006250
4.216667	1	0.009750
4.233333	1	0.014125
4.250000	1	0.018250
4.266667	1	0.023500
4.283333	1	0.028250
4.300000	1	0.033375
4.316667	1	0.038375
4.333333	1	0.043250
4.350000	1	0.048875
4.366667	1	0.055500
4.383333	1	0.061375
4.400000	1	0.066500
4.416667	1	0.072125
4.433333	1	0.077500
4.450000	1	0.083375
4.466667	1	0.088250
4.483333	1	0.093875
4.500000	1	0.098750
4.516667	1	0.103250
4.533333	1	0.107500
4.550000	1	0.111125
4.566667	1	0.115125
4.583333	1	0.118875
4.600000	1	0.122875
4.616667	1	0.126375
4.633333	1	0.129125
4.650000	1	0.131750
4.666667	1	0.134750
4.683333	1	0.137375
4.700000	1	0.139375
4.716667	1	0.142000
4.733333	1	0.144000
4.750000	1	0.145750
4.766667	1	0.147250
4.783333	1	0.149000
4.800000	1	0.151125
4.816667	1	0.153375
4.833333	1	0.155875
4.850000	1	0.158500
4.866667	1	0.161500
4.883333	1	0.163375
4.900000	1	0.165125
4.916667	1	0.167125
4.933333	1	0.169750
4.950000	1	0.171750
4.966667	1	0.174875
4.983333	1	0.176625
5.000000	1	0.179125
5.016667	1	0.181500
5.033333	1	0.183875
5.050000	1	0.186750
5.066667	1	0.188750
5.083333	1	0.191500
5.100000	1	0.193375
5.116667	1	0.195125
5.133333	1	0.197875
5.150000	1	0.199875
5.166667	1	0.201750
5.183333	1	0.204625
5.200000	1	0.206000
5.216667	1	0.208000
5.233333	1	0.208875
5.250000	1	0.210750
5.266667	1	0.212375
5.283333	1	0.213500
5.300000	1	0.214125
5.316667	1	0.215125
5.333333	1	0.215875
5.350000	1	0.216500
5.366667	1	0.217250
5.383333	1	0.217250
5.400000	1	0.218625
5.416667	1	0.219875
5.433333	1	0.219750
5.450000	1	0.219500
5.466667	1	0.218125
5.483333	1	0.216625
5.500000	1	0.214750
5.516667	1	0.212250
5.533333	1	0.209750
5.550000	1	0.207250
5.566667	1	0.204750
5.583333	1	0.201500
5.600000	1	0.198000
5.616667	1	0.194625
5.633333	1	0.190125
5.650000	1	0.185875
5.666667	1	0.181625
5.683333	1	0.176875
5.700000	1	0.172500
5.716667	1	0.166375
5.733333	1	0.160125
5.750000	1	0.154500
5.766667	1	0.149125
5.783333	1	0.144625
5.800000	1	0.139875
5.816667	1	0.135375
5.833333	1	0.131625
5.850000	1	0.128000
5.866667	1	0.124625
5.883333	1	0.121375
5.900000	1	0.119000
5.916667	1	0.117125
5.933333	1	0.114875
5.950000	1	0.113250
5.966667	1	0.112625
5.983333	1	0.111500
6.000000	1	0.111375
6.016667	1	0.110500
6.033333	1	0.109750
6.050000	1	0.109625
6.066667	1	0.109000
6.083333	1	0.109125
6.100000	1	0.109000
6.116667	1	0.108875
6.133333	1	0.109625
6.150000	1	0.109625
6.166667	1	0.109875
6.183333	1	0.109125
6.200000	1	0.109625
6.216667	1	0.110500
6.233333	1	0.110000
6.250000	1	0.109250
6.266667	1	0.109000
6.283333	1	0.108625
6.300000	1	0.107500
6.316667	1	0.106625
6.333333	1	0.105750
6.350000	1	0.104750
6.366667	1	0.103250
6.383333	1	0.101375
6.400000	1	0.099625
6.416667	1	0.097875
6.433333	1	0.096500
6.450000	1	0.094375
6.466667	1	0.092125
6.483333	1	0.089375
6.500000	1	0.086625
6.516667	1	0.083875
6.533333	1	0.079875
6.550000	1	0.076250
6.566667	1	0.073875
6.583333	1	0.070500
6.600000	1	0.066250
6.616667	1	0.062625
6.633333	1	0.058250
6.650000	1	0.053875
6.666667	1	0.050250
6.683333	1	0.046250
6.700000	1	0.042000
6.716667	1	0.038250
6.733333	1	0.033875
6.750000	1	0.029875
6.766667	1	0.026375
6.783333	1	0.022125
6.800000	1	0.018625
6.816667	1	0.016375
6.833333	1	0.013125
6.850000	1	0.010125
6.866667	1	0.007125
6.883333	1	0.004375
6.900000	1	0.001750
6.916667	1	-0.000750
6.933333	1	-0.002875
6.950000	1	-0.005125
6.966667	1	-0.007125
6.983333	1	-0.008750
7.000000	1	-0.010000
7.016667	1	-0.011750
7.033333	1	-0.012500
7.050000	1	-0.012750
7.066667	1	-0.012375
7.083333	1	-0.012625
7.100000	1	-0.012750
7.116667	1	-0.012125
7.133333	1	-0.011750
7.150000	1	-0.010750
7.166667	1	-0.009750
7.183333	1	-0.008500
7.200000	1	-0.007375
7.216667	1	-0.005625
7.233333	1	-0.004000
7.250000	1	-0.002875
7.266667	1	-0.001125
7.283333	1	0.001125
7.300000	1	0.003500
7.316667	1	0.005750
7.333333	1	0.007875
7.350000	1	0.010125
7.366667	1	0.013125
7.383333	1	0.015500
7.400000	1	0.017750
7.416667	1	0.020750
7.433333	1	0.023625
7.450000	1	0.027125
7.466667	1	0.030000
7.483333	1	0.032875
7.500000	1	0.036000
7.516667	1	0.039000
7.533333	1	0.041375
7.550000	1	0.044000
7.566667	1	0.046875
7.583333	1	0.049625
7.600000	1	0.052625
7.616667	1	0.055000
7.633333	1	0.057375
7.650000	1	0.059375
7.666667	1	0.061625
7.683333	1	0.063375
7.700000	1	0.064500
7.716667	1	0.066000
7.733333	1	0.066750
7.750000	1	0.067625
7.766667	1	0.068125
7.783333	1	0.068375
7.800000	1	0.068625
7.816667	1	0.068125
7.833333	1	0.067875
7.850000	1	0.067000
7.866667	1	0.065875
7.883333	1	0.064500
7.900000	1	0.063500
7.916667	1	0.062000
7.933333	1	0.060250
7.950000	1	0.059000
7.966667	1	0.057250
7.983333	1	0.055250
8.000000	1	0.052750
8.016667	1	0.050375
8.033333	1	0.048000
8.050000	1	0.045125
8.066667	1	0.042500
8.083333	1	0.040250
8.100000	1	0.037125
8.116667	1	0.033875
8.133333	1	0.031125
8.150000	1	0.028625
8.166667	1	0.026625
8.183333	1	0.023625
8.200000	1	0.020625
8.216667	1	0.018375
8.233333	1	0.016125
8.250000	1	0.013750
8.266667	1	0.011125
8.283333	1	0.008500
8.300000	1	0.006875
8.316667	1	0.005375
8.333333	1	0.003625
8.350000	1	0.002375
8.366667	1	0.001000
8.383333	1	-0.000250
8.400000	1	-0.001625
8.416667	1	-0.002750
8.433333	1	-0.003375
8.450000	1	-0.003750
8.466667	1	-0.004250
8.483333	1	-0.005125
8.500000	1	-0.006000
8.516667	1	-0.006375
8.533333	1	-0.006375
8.550000	1	-0.006125
8.566667	1	-0.006500
8.583333	1	-0.005625
8.600000	1	-0.005000
8.616667	1	-0.005625
8.633333	1	-0.005500
8.650000	1	-0.005625
8.666667	1	-0.005875
8.683333	1	-0.006500
8.700000	1	-0.006500
8.716667	1	-0.006500
8.733333	1	-0.006500
8.750000	1	-0.006625
8.766667	1	-0.006250
8.783333	1	-0.006875
8.800000	1	-0.007250
8.816667	1	-0.008000
8.833333	1	-0.009125
8.850000	1	-0.009500
8.866667	1	-0.010000
8.883333	1	-0.010625
8.900000	1	-0.010750
8.916667	1	-0.012125
8.933333	1	-0.012750
8.950000	1	-0.013375
8.966667	1	-0.014250
8.983333	1	-0.015375
9.000000	1	-0.015625
9.016667	1	-0.016250
9.033333	1	-0.016750
9.050000	1	-0.016750
9.066667	1	-0.017750
9.083333	1	-0.018625
9.100000	1	-0.019250
9.116667	1	-0.019875
9.133333	1	-0.020125
9.150000	1	-0.020625
9.166667	1	-0.020125
9.183333	1	-0.020750
9.200000	1	-0.021625
9.216667	1	-0.021625
9.233333	1	-0.022125
9.250000	1	-0.022250
9.266667	1	-0.022500
9.283333	1	-0.023250
9.300000	1	-0.023625
9.316667	1	-0.023625
9.333333	1	-0.023750
9.350000	1	-0.023875
9.366667	1	-0.023375
9.383333	1	-0.023875
9.400000	1	-0.024250
9.416667	1	-0.024500
9.433333	1	-0.024875
9.450000	1	-0.025375
9.466667	1	-0.025125
9.483333	1	-0.024500
9.500000	1	-0.024500
9.516667	1	-0.025125
9.533333	1	-0.024625
9.550000	1	-0.024500
9.566667	1	-0.024875
9.583333	1	-0.024750
9.600000	1	-0.025375
9.616667	1	-0.025750
9.633333	1	-0.026500
9.650000	1	-0.026875
9.666667	1	-0.027375
9.683333	1	-0.027125
9.700000	1	-0.027750
9.716667	1	-0.027875
9.733333	1	-0.028125
9.750000	1	-0.028250
9.766667	1	-0.029500
9.783333	1	-0.030375
9.800000	1	-0.031375
9.816667	1	-0.031500
9.833333	1	-0.032250
9.850000	1	-0.033500
9.866667	1	-0.034125
9.883333	1	-0.035375
9.900000	1	-0.036875
9.916667	1	-0.038375
9.933333	1	-0.039250
9.950000	1	-0.040750
9.966667	1	-0.042125
9.983333	1	-0.044500
10.000000	1	-0.046750
10.016667	1	-0.049250
10.033333	1	-0.050250
10.050000	1	-0.052000
10.066667	1	-0.053625
10.083333	1	-0.055375
10.100000	1	-0.056875
10.116667	1	-0.058125
10.133333	1	-0.058875
10.150000	1	-0.058375
10.166667	1	-0.056375
10.183333	1	-0.054125
10.200000	1	-0.050125
10.216667	1	-0.045000
10.233333	1	-0.038250
10.250000	1	-0.030375
10.266667	1	-0.020375
10.283333	1	-0.008375
10.300000	1	0.006250
10.316667	1	0.022500
10.333333	1	0.040875
10.350000	1	0.060125
10.366667	1	0.078125
10.383333	1	0.092875
10.400000	1	0.100250
10.416667	1	0.095125
10.433333	1	0.075000
10.450000	1	0.038875
10.466667	1	-0.009875
10.483333	1	-0.061250
10.500000	1	-0.093500
10.516667	1	-0.075875
10.533333	1	0.035000
10.550000	1	0.290000
10.566667	1	0.748750
10.583333	1	1.473375
10.600000	1	2.524500
10.616667	1	3.954875
10.633333	1	5.806625
10.650000	1	8.111125
10.666667	1	10.892125
10.683333	1	14.157000
10.700000	1	17.904375
10.716667	1	22.120250
10.733333	1	26.779750
10.750000	1	31.844750
10.766667	1	37.264625
10.783333	1	42.968000
10.800000	1	48.857625
10.816667	1	54.791125
10.833333	1	60.559125
10.850000	1	65.862875
10.866667	1	70.294000
10.883333	1	73.337500
10.900000	1	74.443875
10.916667	1	73.186625
10.933333	1	69.438500
10.950000	1	63.487625
10.966667	1	55.995625
10.983333	1	47.795125
11.000000	1	39.674250
11.016667	1	32.211625
11.033333	1	25.730750
11.050000	1	20.329625
11.066667	1	15.964125
11.083333	1	12.516250
11.100000	1	9.841875
11.116667	1	7.797000
11.133333	1	6.247375
11.150000	1	5.080500
11.166667	1	4.204375
11.183333	1	3.545250
11.200000	1	3.046500
11.216667	1	2.666625
11.233333	1	2.376000
11.250000	1	2.149250
11.266667	1	1.969625
11.283333	1	1.824500
11.300000	1	1.705750
11.316667	1	1.605125
11.333333	1	1.518625
11.350000	1	1.442500
11.366667	1	1.375250
11.383333	1	1.314375
11.400000	1	1.259000
11.416667	1	1.209000
11.433333	1	1.162875
11.450000	1	1.121125
11.466667	1	1.084375
11.483333	1	1.052625
11.500000	1	1.024625
11.516667	1	1.000750
11.533333	1	0.981750
11.550000	1	0.966250
11.566667	1	0.954875
11.583333	1	0.948000
11.600000	1	0.946000
11.616667	1	0.950000
11.633333	1	0.957625
11.650000	1	0.970625
11.666667	1	0.988625
11.683333	1	1.010625
11.700000	1	1.036000
11.716667	1	1.064250
11.733333	1	1.092875
11.750000	1	1.120125
11.766667	1	1.146125
11.783333	1	1.168875
11.800000	1	1.186875
11.816667	1	1.199375
11.833333	1	1.206000
11.850000	1	1.206250
11.866667	1	1.201250
11.883333	1	1.191125
11.900000	1	1.178000
11.916667	1	1.161625
11.933333	1	1.143375
11.950000	1	1.124375
11.966667	1	1.106125
11.983333	1	1.088250
12.000000	1	1.072500
12.016667	1	1.058125
12.033333	1	1.046750
12.050000	1	1.037375
12.066667	1	1.030125
12.083333	1	1.024125
12.100000	1	1.020625
12.116667	1	1.018000
12.133333	1	1.016500
12.150000	1	1.015875
12.166667	1	1.016750
12.183333	1	1.018500
12.200000	1	1.021375
12.216667	1	1.025875
12.233333	1	1.032375
12.250000	1	1.040875
12.266667	1	1.052625
12.283333	1	1.069125
12.300000	1	1.091875
12.316667	1	1.124125
12.333333	1	1.170500
12.350000	1	1.236000
12.366667	1	1.329625
12.383333	1	1.461250
12.400000	1	1.644750
12.416667	1	1.900125
12.433333	1	2.251750
12.450000	1	2.732625
12.466667	1	3.383625
12.483333	1	4.257000
12.500000	1	5.414375
12.516667	1	6.927375
12.533333	1	8.875250
12.550000	1	11.338375
12.566667	1	14.397000
12.583333	1	18.117500
12.600000	1	22.537500
12.616667	1	27.653000
12.633333	1	33.423500
12.650000	1	39.749375
12.666667	1	46.471125
12.683333	1	53.362125
12.700000	1	60.147125
12.716667	1	66.517750
12.733333	1	72.161875
12.750000	1	76.791125
12.766667	1	80.170375
12.783333	1	82.143125
12.800000	1	82.648625
12.816667	1	81.725000
12.833333	1	79.499625
12.850000	1	76.172875
12.866667	1	72.000000
12.883333	1	67.265375
12.900000	1	62.253250
12.916667	1	57.226125
12.933333	1	52.403750
12.950000	1	47.952375
12.966667	1	43.982875
12.983333	1	40.556750
13.000000	1	37.694125
13.016667	1	35.382125
13.033333	1	33.581750
13.050000	1	32.243750
13.066667	1	31.313000
13.083333	1	30.733500
13.100000	1	30.452500
13.116667	1	30.422500
13.133333	1	30.600125
13.150000	1	30.948625
13.166667	1	31.437625
13.183333	1	32.042625
13.200000	1	32.742500
13.216667	1	33.521000
13.233333	1	34.366750
13.250000	1	35.270375
13.266667	1	36.223375
13.283333	1	37.220750
13.300000	1	38.258500
13.316667	1	39.332125
13.333333	1	40.439250
13.350000	1	41.577375
13.366667	1	42.746875
13.383333	1	43.945750
13.400000	1	45.172625
13.416667	1	46.427875
13.433333	1	47.711375
13.450000	1	49.025000
13.466667	1	50.370375
13.483333	1	51.746125
13.500000	1	53.152125
13.516667	1	54.590125
13.533333	1	56.058375
13.550000	1	57.557500
13.566667	1	59.087250
13.583333	1	60.649250
13.600000	1	62.240750
13.616667	1	63.864250
13.633333	1	65.520250
13.650000	1	67.212125
13.666667	1	68.939500
13.683333	1	70.704500
13.700000	1	72.504875
13.716667	1	74.341625
13.733333	1	76.200000
13.750000	1	78.032375
13.766667	1	79.720125
13.783333	1	81.057125
13.800000	1	81.791875
13.816667	1	81.686125
13.833333	1	80.539250
13.850000	1	78.157875
13.866667	1	74.327375
13.883333	1	68.861750
13.900000	1	61.775625
13.916667	1	53.452250
13.933333	1	44.644500
13.950000	1	36.211625
13.966667	1	28.806125
13.983333	1	22.716000
14.000000	1	17.918625
14.016667	1	14.228000
14.033333	1	11.427875
14.050000	1	9.322000
14.066667	1	7.752125
14.083333	1	6.590625
14.100000	1	5.735375
14.116667	1	5.104625
14.133333	1	4.635125
14.150000	1	4.279875
14.166667	1	4.006375
14.183333	1	3.791875
14.200000	1	3.619125
14.216667	1	3.476250
14.233333	1	3.355250
14.250000	1	3.250875
14.266667	1	3.158500
14.283333	1	3.076000
14.300000	1	3.000000
14.316667	1	2.931000
14.333333	1	2.866500
14.350000	1	2.806750
14.366667	1	2.751625
14.383333	1	2.699125
14.400000	1	2.650000
14.416667	1	2.604375
14.433333	1	2.561625
14.450000	1	2.521000
14.466667	1	2.483750
14.483333	1	2.448750
14.500000	1	2.415500
14.516667	1	2.384250
14.533333	1	2.354250
14.550000	1	2.325875
14.566667	1	2.297250
14.583333	1	2.269750
14.600000	1	2.242625
14.616667	1	2.216000
14.633333	1	2.188500
14.650000	1	2.160625
14.666667	1	2.132750
14.683333	1	2.103500
14.700000	1	2.074125
14.716667	1	2.044125
14.733333	1	2.015250
14.750000	1	1.985875
14.766667	1	1.957000
14.783333	1	1.928125
14.800000	1	1.899750
14.816667	1	1.872750
14.833333	1	1.846875
14.850000	1	1.821250
14.866667	1	1.796500
14.883333	1	1.772250
14.900000	1	1.748375
14.916667	1	1.725625
14.933333	1	1.704000
14.950000	1	1.682250
14.966667	1	1.661125
14.983333	1	1.640250
15.000000	1	1.620625
15.016667	1	1.601250
15.033333	1	1.583000
15.050000	1	1.565125
15.066667	1	1.547625
15.083333	1	1.531000
15.100000	1	1.514875
15.116667	1	1.499250
15.133333	1	1.484000
15.150000	1	1.469500
15.166667	1	1.456625
15.183333	1	1.443500
15.200000	1	1.431625
15.216667	1	1.420875
15.233333	1	1.411375
15.250000	1	1.402750
15.266667	1	1.396250
15.283333	1	1.391500
15.300000	1	1.388500
15.316667	1	1.389000
15.333333	1	1.392500
15.350000	1	1.398625
15.366667	1	1.409125
15.383333	1	1.423875
15.400000	1	1.443000
15.416667	1	1.466250
15.433333	1	1.494250
15.450000	1	1.525375
15.466667	1	1.558500
15.483333	1	1.593000
15.500000	1	1.627500
15.516667	1	1.658875
15.533333	1	1.686250
15.550000	1	1.709000
15.566667	1	1.723875
15.583333	1	1.731375
15.600000	1	1.730375
15.616667	1	1.721625
15.633333	1	1.704500
15.650000	1	1.681125
15.666667	1	1.651375
15.683333	1	1.618250
15.700000	1	1.581750
15.716667	1	1.544375
15.733333	1	1.507000
15.750000	1	1.470500
15.766667	1	1.434625
15.783333	1	1.400125
15.800000	1	1.367250
15.816667	1	1.336000
15.833333	1	1.304875
15.850000	1	1.274625
15.866667	1	1.246750
15.883333	1	1.219250
15.900000	1	1.192750
15.916667	1	1.166875
15.933333	1	1.142375
15.950000	1	1.118750
15.966667	1	1.097375
15.983333	1	1.077625
16.000000	1	1.060625
16.016667	1	1.045500
16.033333	1	1.032750
16.050000	1	1.022125
16.066667	1	1.013750
16.083333	1	1.006875
16.100000	1	1.001500
16.116667	1	0.998000
16.133333	1	0.996000
16.150000	1	0.994625
16.166667	1	0.994375
16.183333	1	0.994875
16.200000	1	0.995250
16.216667	1	0.995750
16.233333	1	0.995625
16.250000	1	0.995750
16.266667	1	0.995250
16.283333	1	0.993750
16.300000	1	0.990500
16.316667	1	0.987500
16.333333	1	0.983125
16.350000	1	0.978000
16.366667	1	0.972750
16.383333	1	0.966875
16.400000	1	0.960375
16.416667	1	0.954125
16.433333	1	0.948500
16.450000	1	0.943000
16.466667	1	0.937875
16.483333	1	0.934000
16.500000	1	0.931500
16.516667	1	0.930500
16.533333	1	0.930875
16.550000	1	0.933125
16.566667	1	0.936375
16.583333	1	0.941375
16.600000	1	0.947375
16.616667	1	0.953250
16.633333	1	0.958750
16.650000	1	0.964375
16.666667	1	0.970375
16.683333	1	0.974750
16.700000	1	0.977750
16.716667	1	0.980875
16.733333	1	0.983250
16.750000	1	0.984000
16.766667	1	0.984750
16.783333	1	0.985125
16.800000	1	0.986000
16.816667	1	0.986500
16.833333	1	0.988250
16.850000	1	0.990250
16.866667	1	0.992875
16.883333	1	0.995875
16.900000	1	1.000000
16.916667	1	1.002750
16.933333	1	1.005500
16.950000	1	1.007125
16.966667	1	1.009125
16.983333	1	1.010500
17.000000	1	1.010875
17.016667	1	1.009375
17.033333	1	1.007000
17.050000	1	1.004875
17.066667	1	1.002125
17.083333	1	0.999250
17.100000	1	0.995750
17.116667	1	0.993000
17.133333	1	0.990000
17.150000	1	0.988000
17.166667	1	0.987500
17.183333	1	0.986875
17.200000	1	0.987125
17.216667	1	0.988375
17.233333	1	0.990000
17.250000	1	0.993125
17.266667	1	0.997125
17.283333	1	1.001375
17.300000	1	1.005875
17.316667	1	1.011375
17.333333	1	1.016750
17.350000	1	1.023375
17.366667	1	1.030000
17.383333	1	1.036000
17.400000	1	1.041875
17.416667	1	1.047000
17.433333	1	1.051250
17.450000	1	1.054750
17.466667	1	1.057625
17.483333	1	1.059000
17.500000	1	1.059000
17.516667	1	1.057125
17.533333	1	1.054000
17.550000	1	1.049250
17.566667	1	1.042750
17.583333	1	1.034750
17.600000	1	1.025375
17.616667	1	1.015125
17.633333	1	1.003500
17.650000	1	0.991250
17.666667	1	0.977625
17.683333	1	0.964625
17.700000	1	0.951625
17.716667	1	0.938375
17.733333	1	0.925125
17.750000	1	0.911875
17.766667	1	0.899500
17.783333	1	0.887750
17.800000	1	0.876250
17.816667	1	0.866000
17.833333	1	0.856000
17.850000	1	0.846625
17.866667	1	0.838500
17.883333	1	0.831125
17.900000	1	0.823875
17.916667	1	0.816500
17.933333	1	0.810750
17.950000	1	0.805375
17.966667	1	0.800500
17.983333	1	0.795125
18.000000	1	0.789875
18.016667	1	0.785250
18.033333	1	0.779625
18.050000	1	0.774500
18.066667	1	0.769625
18.083333	1	0.763375
18.100000	1	0.757625
18.116667	1	0.751250
18.133333	1	0.744875
18.150000	1	0.738125
18.166667	1	0.732500
18.183333	1	0.727750
18.200000	1	0.722125
18.216667	1	0.716875
18.233333	1	0.712000
18.250000	1	0.707125
18.266667	1	0.702125
18.283333	1	0.698000
18.300000	1	0.694250
18.316667	1	0.691875
18.333333	1	0.689500
18.350000	1	0.687750
18.366667	1	0.686125
18.383333	1	0.685625
18.400000	1	0.686000
18.416667	1	0.687125
18.433333	1	0.689250
18.450000	1	0.691375
18.466667	1	0.695375
18.483333	1	0.700500
18.500000	1	0.707250
18.516667	1	0.716000
18.533333	1	0.727000
18.550000	1	0.739875
18.566667	1	0.755000
18.583333	1	0.772250
18.600000	1	0.791250
18.616667	1	0.813375
18.633333	1	0.838250
18.650000	1	0.863875
18.666667	1	0.892875
18.683333	1	0.924375
18.700000	1	0.956750
18.716667	1	0.991250
18.733333	1	1.027500
18.750000	1	1.065250
18.766667	1	1.103750
18.783333	1	1.142125
18.800000	1	1.180625
18.816667	1	1.218625
18.833333	1	1.255125
18.850000	1	1.289875
18.866667	1	1.321375
18.883333	1	1.349625
18.900000	1	1.374875
18.916667	1	1.394500
18.933333	1	1.408750
18.950000	1	1.416500
18.966667	1	1.419125
18.983333	1	1.414125
19.000000	1	1.402750
19.016667	1	1.384375
19.033333	1	1.359500
19.050000	1	1.329125
19.066667	1	1.293875
19.083333	1	1.254500
19.100000	1	1.211250
19.116667	1	1.165125
19.133333	1	1.117375
19.150000	1	1.069875
19.166667	1	1.022875
19.183333	1	0.977000
19.200000	1	0.932750
19.216667	1	0.891750
19.233333	1	0.853375
19.250000	1	0.820250
19.266667	1	0.791375
19.283333	1	0.766875
19.300000	1	0.746500
19.316667	1	0.731250
19.333333	1	0.721250
19.350000	1	0.716750
19.366667	1	0.716875
19.383333	1	0.721625
19.400000	1	0.731875
19.416667	1	0.745750
19.433333	1	0.764500
19.450000	1	0.786875
19.466667	1	0.813000
19.483333	1	0.842125
19.500000	1	0.874250
19.516667	1	0.907750
19.533333	1	0.942250
19.550000	1	0.976000
19.566667	1	1.009250
19.583333	1	1.041000
19.600000	1	1.069375
19.616667	1	1.095500
19.633333	1	1.116500
19.650000	1	1.132375
19.666667	1	1.142250
19.683333	1	1.146750
19.700000	1	1.145750
19.716667	1	1.138875
19.733333	1	1.126625
19.750000	1	1.109875
19.766667	1	1.088375
19.783333	1	1.063250
19.800000	1	1.034500
19.816667	1	1.002500
19.833333	1	0.968875
19.850000	1	0.933500
19.866667	1	0.897375
19.883333	1	0.861000
19.900000	1	0.825250
19.916667	1	0.789875
19.933333	1	0.754875
19.950000	1	0.722000
19.966667	1	0.690750
19.983333	1	0.660000
20.000000	1	0.632625
20.016667	1	0.606750
20.033333	1	0.583000
20.050000	1	0.562250
20.066667	1	0.544750
20.083333	1	0.529250
20.100000	1	0.517000
20.116667	1	0.507125
20.133333	1	0.500625
20.150000	1	0.497250
20.166667	1	0.496875
20.183333	1	0.498250
20.200000	1	0.502625
20.216667	1	0.509000
20.233333	1	0.516750
20.250000	1	0.525875
20.266667	1	0.537000
20.283333	1	0.547125
20.300000	1	0.557250
20.316667	1	0.567500
20.333333	1	0.576125
20.350000	1	0.583125
20.366667	1	0.588125
20.383333	1	0.591000
20.400000	1	0.592125
20.416667	1	0.590250
20.433333	1	0.586500
20.450000	1	0.581375
20.466667	1	0.574625
20.483333	1	0.568000
20.500000	1	0.561375
20.516667	1	0.555625
20.533333	1	0.551625
20.550000	1	0.552125
20.566667	1	0.555500
20.583333	1	0.563875
20.600000	1	0.578000
20.616667	1	0.599000
20.633333	1	0.627375
20.650000	1	0.662750
20.666667	1	0.705875
20.683333	1	0.756125
20.700000	1	0.814125
20.716667	1	0.877500
20.733333	1	0.947500
20.750000	1	1.021250
20.766667	1	1.097250
20.783333	1	1.174875
20.800000	1	1.250000
20.816667	1	1.320875
20.833333	1	1.386250
20.850000	1	1.443375
20.866667	1	1.489625
20.883333	1	1.524625
20.900000	1	1.546750
20.916667	1	1.554625
20.933333	1	1.548875
20.950000	1	1.529750
20.966667	1	1.497625
20.983333	1	1.454500
21.000000	1	1.400875
21.016667	1	1.338750
21.033333	1	1.270875
21.050000	1	1.198750
21.066667	1	1.125125
21.083333	1	1.051000
21.100000	1	0.978125
21.116667	1	0.909000
21.133333	1	0.842750
21.150000	1	0.781000
21.166667	1	0.724625
21.183333	1	0.673375
21.200000	1	0.626625
21.216667	1	0.585000
21.233333	1	0.548875
21.250000	1	0.517125
21.266667	1	0.489625
21.283333	1	0.465500
21.300000	1	0.444250
21.316667	1	0.425750
21.333333	1	0.410125
21.350000	1	0.396875
21.366667	1	0.384875
21.383333	1	0.374625
21.400000	1	0.365625
21.416667	1	0.357125
21.433333	1	0.350000
21.450000	1	0.344125
21.466667	1	0.338875
21.483333	1	0.333375
21.500000	1	0.329375
21.516667	1	0.325500
21.533333	1	0.323125
21.550000	1	0.321125
21.566667	1	0.319625
21.583333	1	0.318875
21.600000	1	0.318625
21.616667	1	0.319500
21.633333	1	0.321375
21.650000	1	0.324500
21.666667	1	0.328750
21.683333	1	0.334250
21.700000	1	0.341500
21.716667	1	0.349375
21.733333	1	0.358875
21.750000	1	0.369125
21.766667	1	0.381375
21.783333	1	0.394875
21.800000	1	0.410125
21.816667	1	0.426375
21.833333	1	0.442750
21.850000	1	0.460625
21.866667	1	0.479375
21.883333	1	0.498875
21.900000	1	0.518500
21.916667	1	0.538000
21.933333	1	0.557250
21.950000	1	0.575875
21.966667	1	0.593625
21.983333	1	0.610625
22.000000	1	0.625875
22.016667	1	0.639875
22.033333	1	0.651125
22.050000	1	0.660375
22.066667	1	0.668375
22.083333	1	0.674125
22.100000	1	0.677125
22.116667	1	0.678000
22.133333	1	0.675875
22.150000	1	0.672000
22.166667	1	0.666250
22.183333	1	0.658125
22.200000	1	0.647500
22.216667	1	0.635625
22.233333	1	0.623000
22.250000	1	0.608500
22.266667	1	0.592750
22.283333	1	0.576500
22.300000	1	0.559750
22.316667	1	0.542500
22.333333	1	0.524625
22.350000	1	0.507250
22.366667	1	0.489000
22.383333	1	0.471375
22.400000	1	0.454250
22.416667	1	0.437125
22.433333	1	0.420625
22.450000	1	0.404500
22.466667	1	0.389625
22.483333	1	0.375625
22.500000	1	0.362375
22.516667	1	0.349750
22.533333	1	0.338500
22.550000	1	0.327750
22.566667	1	0.318250
22.583333	1	0.309125
22.600000	1	0.301000
22.616667	1	0.293375
22.633333	1	0.285625
22.650000	1	0.279250
22.666667	1	0.273625
22.683333	1	0.268250
22.700000	1	0.263000
22.716667	1	0.258500
22.733333	1	0.253375
22.750000	1	0.249375
22.766667	1	0.244875
22.783333	1	0.240500
22.800000	1	0.236500
22.816667	1	0.233000
22.833333	1	0.228875
22.850000	1	0.225500
22.866667	1	0.222000
22.883333	1	0.218000
22.900000	1	0.215500
22.916667	1	0.213625
22.933333	1	0.211000
22.950000	1	0.208250
22.966667	1	0.206500
22.983333	1	0.204750
23.000000	1	0.203375
23.016667	1	0.202250
23.033333	1	0.202125
23.050000	1	0.201750
23.066667	1	0.201625
23.083333	1	0.201875
23.100000	1	0.203125
23.116667	1	0.204375
23.133333	1	0.205500
23.150000	1	0.208000
23.166667	1	0.210125
23.183333	1	0.212250
23.200000	1	0.215000
23.216667	1	0.217625
23.233333	1	0.221125
23.250000	1	0.226000
23.266667	1	0.231875
23.283333	1	0.238750
23.300000	1	0.246875
23.316667	1	0.257625
23.333333	1	0.270125
23.350000	1	0.285375
23.366667	1	0.303375
23.383333	1	0.325625
23.400000	1	0.352000
23.416667	1	0.383625
23.433333	1	0.421250
23.450000	1	0.465875
23.466667	1	0.519000
23.483333	1	0.580375
23.500000	1	0.651625
23.516667	1	0.734625
23.533333	1	0.829500
23.550000	1	0.937375
23.566667	1	1.058375
23.583333	1	1.193375
23.600000	1	1.343750
23.616667	1	1.509250
23.633333	1	1.689750
23.650000	1	1.884375
23.666667	1	2.091375
23.683333	1	2.310250
23.700000	1	2.539250
23.716667	1	2.775375
23.733333	1	3.014875
23.750000	1	3.254875
23.766667	1	3.490375
23.783333	1	3.717125
23.800000	1	3.930625
23.816667	1	4.126750
23.833333	1	4.299875
23.850000	1	4.446875
23.866667	1	4.565250
23.883333	1	4.650625
23.900000	1	4.702375
23.916667	1	4.717375
23.933333	1	4.698625
23.950000	1	4.644625
23.966667	1	4.557875
23.983333	1	4.441000
24.000000	1	4.296750
24.016667	1	4.129000
24.033333	1	3.942875
24.050000	1	3.741500
24.066667	1	3.530125
24.083333	1	3.312250
24.100000	1	3.091250
24.116667	1	2.870750
24.133333	1	2.654875
24.150000	1	2.445375
24.166667	1	2.245000
24.183333	1	2.055625
24.200000	1	1.877500
24.216667	1	1.712125
24.233333	1	1.560375
24.250000	1	1.421375
24.266667	1	1.295000
24.283333	1	1.180500
24.300000	1	1.078250
24.316667	1	0.987000
24.333333	1	0.906000
24.350000	1	0.833875
24.366667	1	0.770125
24.383333	1	0.714750
24.400000	1	0.666750
24.416667	1	0.625000
24.433333	1	0.589250
24.450000	1	0.557625
24.466667	1	0.529875
24.483333	1	0.506125
24.500000	1	0.486250
24.516667	1	0.469250
24.533333	1	0.454125
24.550000	1	0.440875
24.566667	1	0.428625
24.583333	1	0.418250
24.600000	1	0.408250
24.616667	1	0.398875
24.633333	1	0.389375
24.650000	1	0.381625
24.666667	1	0.373500
24.683333	1	0.366125
24.700000	1	0.358625
24.716667	1	0.351375
24.733333	1	0.344375
24.750000	1	0.337375
24.766667	1	0.330250
24.783333	1	0.323625
24.800000	1	0.317250
24.816667	1	0.311250
24.833333	1	0.304750
24.850000	1	0.300000
24.866667	1	0.295125
24.883333	1	0.290625
24.900000	1	0.286875
24.916667	1	0.283375
24.933333	1	0.280125
24.950000	1	0.277250
24.966667	1	0.275000
24.983333	1	0.272375
25.000000	1	0.269750
25.016667	1	0.267125
25.033333	1	0.265125
25.050000	1	0.262875
25.066667	1	0.260875
25.083333	1	0.259250
25.100000	1	0.257625
25.116667	1	0.254750
25.133333	1	0.252500
25.150000	1	0.250125
25.166667	1	0.247500
25.183333	1	0.245000
25.200000	1	0.242125
25.216667	1	0.239000
25.233333	1	0.236000
25.250000	1	0.233250
25.266667	1	0.230375
25.283333	1	0.227125
25.300000	1	0.224250
25.316667	1	0.221250
25.333333	1	0.217000
25.350000	1	0.214375
25.366667	1	0.211250
25.383333	1	0.208000
25.400000	1	0.204625
25.416667	1	0.201000
25.433333	1	0.198000
25.450000	1	0.195500
25.466667	1	0.192875
25.483333	1	0.190875
25.500000	1	0.189000
25.516667	1	0.188375
25.533333	1	0.186875
25.550000	1	0.185500
25.566667	1	0.184375
25.583333	1	0.183375
25.600000	1	0.183250
25.616667	1	0.184000
25.633333	1	0.184500
25.650000	1	0.185625
25.666667	1	0.186125
25.683333	1	0.187625
25.700000	1	0.189875
25.716667	1	0.192125
25.733333	1	0.194625
25.750000	1	0.196875
25.766667	1	0.199750
25.783333	1	0.202625
25.800000	1	0.205625
25.816667	1	0.210125
25.833333	1	0.213875
25.850000	1	0.218500
25.866667	1	0.223500
25.883333	1	0.228750
25.900000	1	0.234375
25.916667	1	0.239500
25.933333	1	0.244875
25.950000	1	0.250875
25.966667	1	0.256250
25.983333	1	0.262000
26.000000	1	0.268375
26.016667	1	0.273875
26.033333	1	0.279125
26.050000	1	0.284500
26.066667	1	0.289500
26.083333	1	0.294875
26.100000	1	0.299250
26.116667	1	0.303625
26.133333	1	0.307625
26.150000	1	0.311625
26.166667	1	0.314375
26.183333	1	0.316750
26.200000	1	0.318750
26.216667	1	0.319625
26.233333	1	0.320000
26.250000	1	0.320250
26.266667	1	0.319750
26.283333	1	0.318000
26.300000	1	0.316250
26.316667	1	0.313500
26.333333	1	0.310125
26.350000	1	0.306125
26.366667	1	0.301375
26.383333	1	0.296125
26.400000	1	0.290750
26.416667	1	0.284500
26.433333	1	0.277750
26.450000	1	0.271250
26.466667	1	0.264500
26.483333	1	0.257500
26.500000	1	0.250000
26.516667	1	0.242625
26.533333	1	0.235500
26.550000	1	0.227750
26.566667	1	0.220000
26.583333	1	0.212125
26.600000	1	0.205125
26.616667	1	0.198875
26.633333	1	0.191875
26.650000	1	0.186000
26.666667	1	0.179625
26.683333	1	0.174000
26.700000	1	0.168500
26.716667	1	0.163625
26.733333	1	0.158875
26.750000	1	0.154500
26.766667	1	0.150625
26.783333	1	0.147250
26.800000	1	0.144250
26.816667	1	0.141875
26.833333	1	0.140000
26.850000	1	0.138750
26.866667	1	0.137500
26.883333	1	0.136750
26.900000	1	0.136125
26.916667	1	0.136625
26.933333	1	0.137125
26.950000	1	0.137625
26.966667	1	0.138000
26.983333	1	0.139000
27.000000	1	0.140625
27.016667	1	0.143375
27.033333	1	0.146125
27.050000	1	0.149625
27.066667	1	0.154000
27.083333	1	0.158625
27.100000	1	0.164250
27.116667	1	0.170750
27.133333	1	0.178500
27.150000	1	0.187625
27.166667	1	0.198625
27.183333	1	0.210500
27.200000	1	0.224375
27.216667	1	0.241000
27.233333	1	0.259375
27.250000	1	0.281125
27.266667	1	0.306875
27.283333	1	0.335500
27.300000	1	0.367625
27.316667	1	0.405250
27.333333	1	0.447375
27.350000	1	0.494125
27.366667	1	0.548000
27.383333	1	0.607375
27.400000	1	0.674500
27.416667	1	0.748500
27.433333	1	0.829625
27.450000	1	0.919375
27.466667	1	1.017125
27.483333	1	1.124125
27.500000	1	1.240625
27.516667	1	1.365375
27.533333	1	1.498875
27.550000	1	1.639625
27.566667	1	1.788375
27.583333	1	1.943875
27.600000	1	2.103875
27.616667	1	2.268500
27.633333	1	2.437250
27.650000	1	2.606750
27.666667	1	2.776000
27.683333	1	2.942500
27.700000	1	3.103625
27.716667	1	3.257000
27.733333	1	3.400375
27.750000	1	3.531500
27.766667	1	3.648000
27.783333	1	3.748625
27.800000	1	3.830000
27.816667	1	3.890625
27.833333	1	3.930125
27.850000	1	3.946750
27.866667	1	3.940625
27.883333	1	3.911125
27.900000	1	3.858500
27.916667	1	3.784375
27.933333	1	3.690125
27.950000	1	3.576125
27.966667	1	3.444750
27.983333	1	3.299125
28.000000	1	3.142375
28.016667	1	2.975500
28.033333	1	2.802000
28.050000	1	2.624250
28.066667	1	2.444625
28.083333	1	2.265875
28.100000	1	2.089125
28.116667	1	1.917500
28.133333	1	1.752125
28.150000	1	1.595750
28.166667	1	1.447500
28.183333	1	1.309125
28.200000	1	1.181125
28.216667	1	1.064000
28.233333	1	0.956125
28.250000	1	0.857500
28.266667	1	0.769500
28.283333	1	0.690750
28.300000	1	0.620875
28.316667	1	0.559125
28.333333	1	0.505000
28.350000	1	0.458875
28.366667	1	0.419250
28.383333	1	0.385125
28.400000	1	0.357125
28.416667	1	0.334000
28.433333	1	0.315125
28.450000	1	0.300375
28.466667	1	0.289625
28.483333	1	0.282500
28.500000	1	0.278375
28.516667	1	0.276500
28.533333	1	0.277125
28.550000	1	0.279500
28.566667	1	0.283625
28.583333	1	0.289875
28.600000	1	0.296250
28.616667	1	0.304125
28.633333	1	0.312625
28.650000	1	0.321875
28.666667	1	0.331125
28.683333	1	0.341125
28.700000	1	0.351000
28.716667	1	0.361000
28.733333	1	0.370625
28.750000	1	0.380250
28.766667	1	0.389000
28.783333	1	0.397875
28.800000	1	0.406000
28.816667	1	0.413375
28.833333	1	0.419625
28.850000	1	0.425625
28.866667	1	0.430750
28.883333	1	0.434625
28.900000	1	0.437875
28.916667	1	0.440125
28.933333	1	0.441125
28.950000	1	0.441000
28.966667	1	0.440750
28.983333	1	0.439000
29.000000	1	0.436125
29.016667	1	0.432625
29.033333	1	0.428750
29.050000	1	0.423875
29.066667	1	0.418875
29.083333	1	0.412875
29.100000	1	0.406125
29.116667	1	0.398500
29.133333	1	0.390875
29.150000	1	0.383250
29.166667	1	0.374875
29.183333	1	0.366000
29.200000	1	0.357125
29.216667	1	0.348500
29.233333	1	0.339250
29.250000	1	0.330375
29.266667	1	0.322125
29.283333	1	0.313250
29.300000	1	0.304875
29.316667	1	0.295375
29.333333	1	0.287375
29.350000	1	0.279000
29.366667	1	0.270750
29.383333	1	0.262625
29.400000	1	0.254750
29.416667	1	0.246875
29.433333	1	0.239000
29.450000	1	0.232125
29.466667	1	0.225625
29.483333	1	0.218375
29.500000	1	0.212375
29.516667	1	0.205875
29.533333	1	0.199625
29.550000	1	0.193500
29.566667	1	0.187750
29.583333	1	0.181875
29.600000	1	0.176625
29.616667	1	0.171625
29.633333	1	0.166375
29.650000	1	0.161375
29.666667	1	0.156000
29.683333	1	0.151625
29.700000	1	0.147250
29.716667	1	0.142875
29.733333	1	0.138625
29.750000	1	0.134875
29.766667	1	0.130875
29.783333	1	0.127375
29.800000	1	0.124375
29.816667	1	0.121375
29.833333	1	0.118500
29.850000	1	0.116375
29.866667	1	0.114125
29.883333	1	0.112000
29.900000	1	0.110250
29.916667	1	0.108375
29.933333	1	0.107125
29.950000	1	0.106250
29.966667	1	0.105250
29.983333	1	0.104375
30.000000	1	0.104625
30.016667	1	0.104250
30.033333	1	0.104625
30.050000	1	0.104875
30.066667	1	0.105375
30.083333	1	0.105375
30.100000	1	0.106000
30.116667	1	0.105875
30.133333	1	0.106000
30.150000	1	0.106500
30.166667	1	0.106500
30.183333	1	0.107125
30.200000	1	0.107750
30.216667	1	0.108125
30.233333	1	0.108250
30.250000	1	0.108875
30.266667	1	0.109375
30.283333	1	0.108750
30.300000	1	0.108750
30.316667	1	0.108375
30.333333	1	0.108375
30.350000	1	0.108125
30.366667	1	0.107500
30.383333	1	0.107125
30.400000	1	0.107250
30.416667	1	0.107125
30.433333	1	0.107250
30.450000	1	0.107250
30.466667	1	0.107625
30.483333	1	0.107875
30.500000	1	0.108500
30.516667	1	0.109625
30.533333	1	0.111875
30.550000	1	0.113625
30.566667	1	0.116125
30.583333	1	0.119625
30.600000	1	0.123250
30.616667	1	0.128000
30.633333	1	0.134500
30.650000	1	0.142125
30.666667	1	0.151000
30.683333	1	0.160875
30.700000	1	0.173000
30.716667	1	0.186750
30.733333	1	0.203375
30.750000	1	0.221875
30.766667	1	0.243375
30.783333	1	0.267750
30.800000	1	0.296250
30.816667	1	0.328875
30.833333	1	0.365625
30.850000	1	0.407625
30.866667	1	0.455750
30.883333	1	0.510250
30.900000	1	0.571750
30.916667	1	0.641250
30.933333	1	0.720000
30.950000	1	0.807750
30.966667	1	0.906750
30.983333	1	1.016500
31.000000	1	1.138875
31.016667	1	1.274125
31.033333	1	1.423750
31.050000	1	1.588250
31.066667	1	1.768500
31.083333	1	1.964000
31.100000	1	2.175875
31.116667	1	2.403625
31.133333	1	2.647375
31.150000	1	2.905875
31.166667	1	3.180625
31.183333	1	3.469250
31.200000	1	3.771125
31.216667	1	4.083375
31.233333	1	4.404375
31.250000	1	4.730750
31.266667	1	5.060375
31.283333	1	5.390250
31.300000	1	5.716250
31.316667	1	6.035750
31.333333	1	6.343125
31.350000	1	6.636875
31.366667	1	6.912875
31.383333	1	7.166875
31.400000	1	7.396500
31.416667	1	7.598125
31.433333	1	7.769500
31.450000	1	7.907000
31.466667	1	8.009625
31.483333	1	8.075500
31.500000	1	8.105375
31.516667	1	8.097625
31.533333	1	8.053375
31.550000	1	7.973625
31.566667	1	7.859500
31.583333	1	7.712125
31.600000	1	7.534500
31.616667	1	7.329250
31.633333	1	7.099250
31.650000	1	6.847125
31.666667	1	6.577250
31.683333	1	6.292125
31.700000	1	5.995875
31.716667	1	5.692625
31.733333	1	5.384000
31.750000	1	5.074250
31.766667	1	4.764750
31.783333	1	4.458500
31.800000	1	4.157375
31.816667	1	3.863750
31.833333	1	3.579125
31.850000	1	3.304875
31.866667	1	3.043375
31.883333	1	2.794625
31.900000	1	2.559500
31.916667	1	2.338000
31.933333	1	2.130875
31.950000	1	1.937125
31.966667	1	1.756125
31.983333	1	1.588375
32.000000	1	1.433875
32.016667	1	1.291125
32.033333	1	1.160375
32.050000	1	1.041250
32.066667	1	0.932625
32.083333	1	0.833625
32.100000	1	0.744125
32.116667	1	0.662625
32.133333	1	0.589500
32.150000	1	0.523375
32.166667	1	0.463625
32.183333	1	0.410125
32.200000	1	0.362500
32.216667	1	0.320125
32.233333	1	0.281500
32.250000	1	0.247500
32.266667	1	0.217000
32.283333	1	0.189750
32.300000	1	0.165375
32.316667	1	0.144125
32.333333	1	0.125250
32.350000	1	0.108375
32.366667	1	0.094125
32.383333	1	0.081500
32.400000	1	0.070000
32.416667	1	0.059625
32.433333	1	0.050125
32.450000	1	0.042500
32.466667	1	0.035500
32.483333	1	0.029000
32.500000	1	0.023875
32.516667	1	0.019500
32.533333	1	0.015375
32.550000	1	0.012000
32.566667	1	0.008875
32.583333	1	0.006375
32.600000	1	0.003625
32.616667	1	0.001250
32.633333	1	-0.000875
32.650000	1	-0.002875
32.666667	1	-0.005125
32.683333	1	-0.006375
32.700000	1	-0.007750
32.716667	1	-0.009375
32.733333	1	-0.011375
32.750000	1	-0.012500
32.766667	1	-0.013125
32.783333	1	-0.014625
32.800000	1	-0.015875
32.816667	1	-0.017250
32.833333	1	-0.018125
32.850000	1	-0.019125
32.866667	1	-0.020375
32.883333	1	-0.021500
32.900000	1	-0.022625
32.916667	1	-0.023500
32.933333	1	-0.024125
32.950000	1	-0.025375
32.966667	1	-0.026625
32.983333	1	-0.026750
33.000000	1	-0.026750
33.016667	1	-0.027125
33.033333	1	-0.028250
33.050000	1	-0.029125
33.066667	1	-0.028875
33.083333	1	-0.028375
33.100000	1	-0.028000
33.116667	1	-0.026750
33.133333	1	-0.025875
33.150000	1	-0.024625
33.166667	1	-0.023000
33.183333	1	-0.021375
33.200000	1	-0.019250
33.216667	1	-0.017625
33.233333	1	-0.015500
33.250000	1	-0.012625
33.266667	1	-0.009500
33.283333	1	-0.006250
33.300000	1	-0.001875
33.316667	1	0.002000
33.333333	1	0.006625
33.350000	1	0.011125
33.366667	1	0.016500
33.383333	1	0.022375
33.400000	1	0.029000
33.416667	1	0.036000
33.433333	1	0.042500
33.450000	1	0.050500
33.466667	1	0.058375
33.483333	1	0.067375
33.500000	1	0.077000
33.516667	1	0.087000
33.533333	1	0.097875
33.550000	1	0.109875
33.566667	1	0.122375
33.583333	1	0.135500
33.600000	1	0.149125
33.616667	1	0.163625
33.633333	1	0.178375
33.650000	1	0.194375
33.666667	1	0.211000
33.683333	1	0.228500
33.700000	1	0.246375
33.716667	1	0.265000
33.733333	1	0.284750
33.750000	1	0.304750
33.766667	1	0.325625
33.783333	1	0.347250
33.800000	1	0.367750
33.816667	1	0.389000
33.833333	1	0.410375
33.850000	1	0.431500
33.866667	1	0.451750
33.883333	1	0.471500
33.900000	1	0.491125
33.916667	1	0.509375
33.933333	1	0.526750
33.950000	1	0.542625
33.966667	1	0.557625
33.983333	1	0.571125
34.000000	1	0.582500
34.016667	1	0.592125
34.033333	1	0.600000
34.050000	1	0.606125
34.066667	1	0.610125
34.083333	1	0.611750
34.100000	1	0.611500
34.116667	1	0.609250
34.133333	1	0.604875
34.150000	1	0.598875
34.166667	1	0.591375
34.183333	1	0.582125
34.200000	1	0.571250
34.216667	1	0.559125
34.233333	1	0.544875
34.250000	1	0.530000
34.266667	1	0.514000
34.283333	1	0.497375
34.300000	1	0.479750
34.316667	1	0.462375
34.333333	1	0.444250
34.350000	1	0.426000
34.366667	1	0.408000
34.383333	1	0.390125
34.400000	1	0.372625
34.416667	1	0.355875
34.433333	1	0.338875
34.450000	1	0.323375
34.466667	1	0.308250
34.483333	1	0.293375
34.500000	1	0.279500
34.516667	1	0.266750
34.533333	1	0.254875
34.550000	1	0.243875
34.566667	1	0.233250
34.583333	1	0.223125
34.600000	1	0.214125
34.616667	1	0.205875
34.633333	1	0.198625
34.650000	1	0.191375
34.666667	1	0.184750
34.683333	1	0.178875
34.700000	1	0.174125
34.716667	1	0.169500
34.733333	1	0.166000
34.750000	1	0.162625
34.766667	1	0.159500
34.783333	1	0.156750
34.800000	1	0.154000
34.816667	1	0.151500
34.833333	1	0.149250
34.850000	1	0.147125
34.866667	1	0.145875
34.883333	1	0.144875
34.900000	1	0.143875
34.916667	1	0.142750
34.933333	1	0.141750
34.950000	1	0.141000
34.966667	1	0.139375
34.983333	1	0.138500
35.000000	1	0.138500
35.016667	1	0.138250
35.033333	1	0.137500
35.050000	1	0.136875
35.066667	1	0.136750
35.083333	1	0.136750
35.100000	1	0.136125
35.116667	1	0.135750
35.133333	1	0.135125
35.150000	1	0.134875
35.166667	1	0.134875
35.183333	1	0.134000
35.200000	1	0.134375
35.216667	1	0.134375
35.233333	1	0.134375
35.250000	1	0.134125
35.266667	1	0.133875
35.283333	1	0.133875
35.300000	1	0.133625
35.316667	1	0.134125
35.333333	1	0.134125
35.350000	1	0.134625
35.366667	1	0.134000
35.383333	1	0.134000
35.400000	1	0.133375
35.416667	1	0.133000
35.433333	1	0.132750
35.450000	1	0.132500
35.466667	1	0.131750
35.483333	1	0.130750
35.500000	1	0.130375
35.516667	1	0.129750
35.533333	1	0.128625
35.550000	1	0.127375
35.566667	1	0.125875
35.583333	1	0.124625
35.600000	1	0.123375
35.616667	1	0.122125
35.633333	1	0.121000
35.650000	1	0.119875
35.666667	1	0.118750
35.683333	1	0.117625
35.700000	1	0.116000
35.716667	1	0.114500
35.733333	1	0.113500
35.750000	1	0.112750
35.766667	1	0.111500
35.783333	1	0.110375
35.800000	1	0.109000
35.816667	1	0.107750
35.833333	1	0.106625
35.850000	1	0.104750
35.866667	1	0.103375
35.883333	1	0.102625
35.900000	1	0.101500
35.916667	1	0.100625
35.933333	1	0.099250
35.950000	1	0.097625
35.966667	1	0.096750
35.983333	1	0.095125
36.000000	1	0.093125
36.016667	1	0.091000
36.033333	1	0.090000
36.050000	1	0.088500
36.066667	1	0.086500
36.083333	1	0.085375
36.100000	1	0.083625
36.116667	1	0.082000
36.133333	1	0.080750
36.150000	1	0.079000
36.166667	1	0.077125
36.183333	1	0.074750
36.200000	1	0.073250
36.216667	1	0.071625
36.233333	1	0.069875
36.250000	1	0.068250
36.266667	1	0.067000
36.283333	1	0.065500
36.300000	1	0.064000
36.316667	1	0.062875
36.333333	1	0.061375
36.350000	1	0.059750
36.366667	1	0.057625
36.383333	1	0.057000
36.400000	1	0.055625
36.416667	1	0.053875
36.433333	1	0.053000
36.450000	1	0.050875
36.466667	1	0.050000
36.483333	1	0.048750
36.500000	1	0.047625
36.516667	1	0.046250
36.533333	1	0.045375
36.550000	1	0.044250
36.566667	1	0.043000
36.583333	1	0.042125
36.600000	1	0.041000
36.616667	1	0.039750
36.633333	1	0.039000
36.650000	1	0.038000
36.666667	1	0.037250
36.683333	1	0.036250
36.700000	1	0.035125
36.716667	1	0.034500
36.733333	1	0.033625
36.750000	1	0.033125
36.766667	1	0.032375
36.783333	1	0.032000
36.800000	1	0.030750
36.816667	1	0.029375
36.833333	1	0.028250
36.850000	1	0.027750
36.866667	1	0.027000
36.883333	1	0.026125
36.900000	1	0.025750
36.916667	1	0.025250
36.933333	1	0.024625
36.950000	1	0.023750
36.966667	1	0.022750
36.983333	1	0.022375
37.000000	1	0.021750
37.016667	1	0.020875
37.033333	1	0.019875
37.050000	1	0.019250
37.066667	1	0.018375
37.083333	1	0.017500
37.100000	1	0.017000
37.116667	1	0.017000
37.133333	1	0.017500
37.150000	1	0.016750
37.166667	1	0.017125
37.183333	1	0.017625
37.200000	1	0.017625
37.216667	1	0.017250
37.233333	1	0.017625
37.250000	1	0.018250
37.266667	1	0.018125
37.283333	1	0.018500
37.300000	1	0.019500
37.316667	1	0.020625
37.333333	1	0.021500
37.350000	1	0.022750
37.366667	1	0.024000
37.383333	1	0.025250
37.400000	1	0.026625
37.416667	1	0.027750
37.433333	1	0.029500
37.450000	1	0.030375
37.466667	1	0.031875
37.483333	1	0.033125
37.500000	1	0.034750
37.516667	1	0.036750
37.533333	1	0.039125
37.550000	1	0.041000
37.566667	1	0.043125
37.583333	1	0.045500
37.600000	1	0.047125
37.616667	1	0.049000
37.633333	1	0.050625
37.650000	1	0.051875
37.666667	1	0.054000
37.683333	1	0.055750
37.700000	1	0.057625
37.716667	1	0.059750
37.733333	1	0.060375
37.750000	1	0.062000
37.766667	1	0.063000
37.783333	1	0.063875
37.800000	1	0.064625
37.816667	1	0.064750
37.833333	1	0.064875
37.850000	1	0.065375
37.866667	1	0.065250
37.883333	1	0.064875
37.900000	1	0.064625
37.916667	1	0.064625
37.933333	1	0.063750
37.950000	1	0.062875
37.966667	1	0.062250
37.983333	1	0.061625
38.000000	1	0.061000
38.016667	1	0.060375
38.033333	1	0.058750
38.050000	1	0.058000
38.066667	1	0.057250
38.083333	1	0.056125
38.100000	1	0.054625
38.116667	1	0.053125
38.133333	1	0.051875
38.150000	1	0.050750
38.166667	1	0.050000
38.183333	1	0.048750
38.200000	1	0.047875
38.216667	1	0.046375
38.233333	1	0.045500
38.250000	1	0.043750
38.266667	1	0.042500
38.283333	1	0.042250
38.300000	1	0.041500
38.316667	1	0.040250
38.333333	1	0.039750
38.350000	1	0.038875
38.366667	1	0.037875
38.383333	1	0.036625
38.400000	1	0.035500
38.416667	1	0.034500
38.433333	1	0.034375
38.450000	1	0.033375
38.466667	1	0.032375
38.483333	1	0.032125
38.500000	1	0.030875
38.516667	1	0.030375
38.533333	1	0.029500
38.550000	1	0.028250
38.566667	1	0.027625
38.583333	1	0.026625
38.600000	1	0.025625
38.616667	1	0.025625
38.633333	1	0.024125
38.650000	1	0.023500
38.666667	1	0.022500
38.683333	1	0.022375
38.700000	1	0.021875
38.716667	1	0.021125
38.733333	1	0.020000
38.750000	1	0.019250
38.766667	1	0.018625
38.783333	1	0.017500
38.800000	1	0.016500
38.816667	1	0.015625
38.833333	1	0.014625
38.850000	1	0.013625
38.866667	1	0.012875
38.883333	1	0.012500
38.900000	1	0.011750
38.916667	1	0.010750
38.933333	1	0.009625
38.950000	1	0.009125
38.966667	1	0.008125
38.983333	1	0.006375
39.000000	1	0.005250
39.016667	1	0.004375
39.033333	1	0.003250
39.050000	1	0.002875
39.066667	1	0.002000
39.083333	1	0.001000
39.100000	1	0.000000
39.116667	1	-0.001000
39.133333	1	-0.001875
39.150000	1	-0.002875
39.166667	1	-0.003875
39.183333	1	-0.004750
39.200000	1	-0.005375
39.216667	1	-0.006125
39.233333	1	-0.007000
39.250000	1	-0.007500
39.266667	1	-0.008250
39.283333	1	-0.008750
39.300000	1	-0.009625
39.316667	1	-0.010125
39.333333	1	-0.011000
39.350000	1	-0.011500
39.366667	1	-0.012500
39.383333	1	-0.013000
39.400000	1	-0.013875
39.416667	1	-0.014000
39.433333	1	-0.014250
39.450000	1	-0.015375
39.466667	1	-0.016000
39.483333	1	-0.016500
39.500000	1	-0.017125
39.516667	1	-0.017375
39.533333	1	-0.017375
39.550000	1	-0.017875
39.566667	1	-0.018250
39.583333	1	-0.018875
39.600000	1	-0.019000
39.616667	1	-0.020000
39.633333	1	-0.020625
39.650000	1	-0.020875
39.666667	1	-0.021375
39.683333	1	-0.022000
39.700000	1	-0.023000
39.716667	1	-0.023375
39.733333	1	-0.023750
39.750000	1	-0.024375
39.766667	1	-0.025375
39.783333	1	-0.026000
39.800000	1	-0.025750
39.816667	1	-0.025875
39.833333	1	-0.026500
39.850000	1	-0.027250
39.866667	1	-0.027625
39.883333	1	-0.028250
39.900000	1	-0.028875
39.916667	1	-0.028625
39.933333	1	-0.029375
39.950000	1	-0.029625
39.966667	1	-0.029750
39.983333	1	-0.030250
40.000000	1	-0.030750
