URL	chrom://bioreactor/micro_cm7/HPLC_Ultimate_3000/Users/markusar/20240708_MA_pHrange1.seq/299.smp/RI_1.channel/RI_1.chm
Channel	RI_1

Injection Information:
Data Vault	micro_cm7
Sequence	20240708_MA_pHrange1
Name	Fp1_6.5_3
Number	49
Position	BE3
Comment	
Processing Method	
Instrument Method	run_25B_method
Type	Unknown
Status	Finished
Inject Time	10.07.2024 00:21:11 +02:00
Volume (µl)	20.0000
Dilution Factor	1.0000
Weight	1.0000

Chromatogram Data Information:
Time Min. (min)	0.000000
Time Max. (min)	40.000000
Data Points	2401
Detector	RI
Generating Data System	Chromeleon 7.3.2.11814
Exporting Data System	Chromeleon 7.3.2.0
Operator	Instrument Controller
Signal Quantity	Refractive 
Signal Unit	µRIU
Signal Min.	-0.013625
Signal Max.	81.363375
Channel	RI_1
Driver Name	RID520Driver.dll
Channel Type	Evaluation
Min. Step (s)	1
Max. Step (s)	1
Average Step (s)	1

Signal Parameter Information:
Signal Info	

Chromatogram Data:
Time (min)	Step (s)	Value (µRIU)
0.000000	n.a.	0.044000
0.016667	1	0.044000
0.033333	1	0.044250
0.050000	1	0.045125
0.066667	1	0.046500
0.083333	1	0.047625
0.100000	1	0.048375
0.116667	1	0.048875
0.133333	1	0.049625
0.150000	1	0.050250
0.166667	1	0.050875
0.183333	1	0.051375
0.200000	1	0.051250
0.216667	1	0.051875
0.233333	1	0.052125
0.250000	1	0.052250
0.266667	1	0.052750
0.283333	1	0.052000
0.300000	1	0.052000
0.316667	1	0.051875
0.333333	1	0.051375
0.350000	1	0.050750
0.366667	1	0.049500
0.383333	1	0.048500
0.400000	1	0.047125
0.416667	1	0.046250
0.433333	1	0.046500
0.450000	1	0.046500
0.466667	1	0.047125
0.483333	1	0.048500
0.500000	1	0.048500
0.516667	1	0.048250
0.533333	1	0.047125
0.550000	1	0.045500
0.566667	1	0.043625
0.583333	1	0.041375
0.600000	1	0.038375
0.616667	1	0.034625
0.633333	1	0.032000
0.650000	1	0.029750
0.666667	1	0.027750
0.683333	1	0.025375
0.700000	1	0.023875
0.716667	1	0.022875
0.733333	1	0.022000
0.750000	1	0.020875
0.766667	1	0.020375
0.783333	1	0.019250
0.800000	1	0.017750
0.816667	1	0.016500
0.833333	1	0.016000
0.850000	1	0.015625
0.866667	1	0.015375
0.883333	1	0.014500
0.900000	1	0.014125
0.916667	1	0.013625
0.933333	1	0.013750
0.950000	1	0.014875
0.966667	1	0.014375
0.983333	1	0.014625
1.000000	1	0.015375
1.016667	1	0.016125
1.033333	1	0.017000
1.050000	1	0.017625
1.066667	1	0.018375
1.083333	1	0.019250
1.100000	1	0.020750
1.116667	1	0.021750
1.133333	1	0.022500
1.150000	1	0.023250
1.166667	1	0.024500
1.183333	1	0.025375
1.200000	1	0.026250
1.216667	1	0.027500
1.233333	1	0.028750
1.250000	1	0.030000
1.266667	1	0.031625
1.283333	1	0.032375
1.300000	1	0.033250
1.316667	1	0.033875
1.333333	1	0.034500
1.350000	1	0.035375
1.366667	1	0.035875
1.383333	1	0.035125
1.400000	1	0.035500
1.416667	1	0.036125
1.433333	1	0.035375
1.450000	1	0.034625
1.466667	1	0.034000
1.483333	1	0.034250
1.500000	1	0.033625
1.516667	1	0.033250
1.533333	1	0.031625
1.550000	1	0.030500
1.566667	1	0.029250
1.583333	1	0.027125
1.600000	1	0.025750
1.616667	1	0.024000
1.633333	1	0.022500
1.650000	1	0.021250
1.666667	1	0.020625
1.683333	1	0.019875
1.700000	1	0.018625
1.716667	1	0.017375
1.733333	1	0.016000
1.750000	1	0.014875
1.766667	1	0.013250
1.783333	1	0.011375
1.800000	1	0.010000
1.816667	1	0.009250
1.833333	1	0.007875
1.850000	1	0.006875
1.866667	1	0.006125
1.883333	1	0.005375
1.900000	1	0.004625
1.916667	1	0.004375
1.933333	1	0.002750
1.950000	1	0.002250
1.966667	1	0.001000
1.983333	1	0.000000
2.000000	1	-0.001125
2.016667	1	-0.002125
2.033333	1	-0.002750
2.050000	1	-0.003250
2.066667	1	-0.004000
2.083333	1	-0.005125
2.100000	1	-0.005875
2.116667	1	-0.006375
2.133333	1	-0.007500
2.150000	1	-0.008250
2.166667	1	-0.008875
2.183333	1	-0.009750
2.200000	1	-0.009875
2.216667	1	-0.010375
2.233333	1	-0.012250
2.250000	1	-0.013125
2.266667	1	-0.013125
2.283333	1	-0.012625
2.300000	1	-0.012250
2.316667	1	-0.012625
2.333333	1	-0.013375
2.350000	1	-0.013625
2.366667	1	-0.013375
2.383333	1	-0.012750
2.400000	1	-0.012875
2.416667	1	-0.012625
2.433333	1	-0.012250
2.450000	1	-0.010500
2.466667	1	-0.010000
2.483333	1	-0.008875
2.500000	1	-0.007500
2.516667	1	-0.005125
2.533333	1	-0.003500
2.550000	1	-0.002875
2.566667	1	-0.002250
2.583333	1	-0.001250
2.600000	1	0.000375
2.616667	1	0.002875
2.633333	1	0.004500
2.650000	1	0.005750
2.666667	1	0.007750
2.683333	1	0.009750
2.700000	1	0.011500
2.716667	1	0.012125
2.733333	1	0.014250
2.750000	1	0.015750
2.766667	1	0.017500
2.783333	1	0.018750
2.800000	1	0.020375
2.816667	1	0.021375
2.833333	1	0.022625
2.850000	1	0.023375
2.866667	1	0.024625
2.883333	1	0.025750
2.900000	1	0.026375
2.916667	1	0.027000
2.933333	1	0.027875
2.950000	1	0.028250
2.966667	1	0.028750
2.983333	1	0.029375
3.000000	1	0.029375
3.016667	1	0.029500
3.033333	1	0.030000
3.050000	1	0.030625
3.066667	1	0.030625
3.083333	1	0.031000
3.100000	1	0.031625
3.116667	1	0.032500
3.133333	1	0.033000
3.150000	1	0.033250
3.166667	1	0.033500
3.183333	1	0.034375
3.200000	1	0.035625
3.216667	1	0.037000
3.233333	1	0.037375
3.250000	1	0.039375
3.266667	1	0.039875
3.283333	1	0.041000
3.300000	1	0.041750
3.316667	1	0.042875
3.333333	1	0.044250
3.350000	1	0.045250
3.366667	1	0.047000
3.383333	1	0.048500
3.400000	1	0.050375
3.416667	1	0.052875
3.433333	1	0.054625
3.450000	1	0.056125
3.466667	1	0.058000
3.483333	1	0.060375
3.500000	1	0.062375
3.516667	1	0.063625
3.533333	1	0.065250
3.550000	1	0.067750
3.566667	1	0.069625
3.583333	1	0.071625
3.600000	1	0.073250
3.616667	1	0.074250
3.633333	1	0.075000
3.650000	1	0.075875
3.666667	1	0.076625
3.683333	1	0.077500
3.700000	1	0.078500
3.716667	1	0.079125
3.733333	1	0.080500
3.750000	1	0.080875
3.766667	1	0.081250
3.783333	1	0.080875
3.800000	1	0.081125
3.816667	1	0.081250
3.833333	1	0.081875
3.850000	1	0.081750
3.866667	1	0.082125
3.883333	1	0.082000
3.900000	1	0.082000
3.916667	1	0.081625
3.933333	1	0.081000
3.950000	1	0.081000
3.966667	1	0.080625
3.983333	1	0.080125
4.000000	1	0.080500
4.016667	1	0.080250
4.033333	1	0.080500
4.050000	1	0.080000
4.066667	1	0.079875
4.083333	1	0.080000
4.100000	1	0.080375
4.116667	1	0.080125
4.133333	1	0.080250
4.150000	1	0.080250
4.166667	1	0.080625
4.183333	1	0.080750
4.200000	1	0.081500
4.216667	1	0.082750
4.233333	1	0.083375
4.250000	1	0.084375
4.266667	1	0.085375
4.283333	1	0.086625
4.300000	1	0.087625
4.316667	1	0.088500
4.333333	1	0.090000
4.350000	1	0.091375
4.366667	1	0.093125
4.383333	1	0.094750
4.400000	1	0.095875
4.416667	1	0.097750
4.433333	1	0.099250
4.450000	1	0.100125
4.466667	1	0.101250
4.483333	1	0.103000
4.500000	1	0.104375
4.516667	1	0.106375
4.533333	1	0.107625
4.550000	1	0.109000
4.566667	1	0.110625
4.583333	1	0.112250
4.600000	1	0.113750
4.616667	1	0.114875
4.633333	1	0.116250
4.650000	1	0.117500
4.666667	1	0.118875
4.683333	1	0.120750
4.700000	1	0.122375
4.716667	1	0.124375
4.733333	1	0.126250
4.750000	1	0.127500
4.766667	1	0.129250
4.783333	1	0.131125
4.800000	1	0.133125
4.816667	1	0.135500
4.833333	1	0.138125
4.850000	1	0.140500
4.866667	1	0.144125
4.883333	1	0.146375
4.900000	1	0.149625
4.916667	1	0.153125
4.933333	1	0.157000
4.950000	1	0.160500
4.966667	1	0.164375
4.983333	1	0.168125
5.000000	1	0.172000
5.016667	1	0.175625
5.033333	1	0.180250
5.050000	1	0.185250
5.066667	1	0.190000
5.083333	1	0.194375
5.100000	1	0.198500
5.116667	1	0.202750
5.133333	1	0.207625
5.150000	1	0.212500
5.166667	1	0.217375
5.183333	1	0.222250
5.200000	1	0.226750
5.216667	1	0.231000
5.233333	1	0.234750
5.250000	1	0.238500
5.266667	1	0.242375
5.283333	1	0.246125
5.300000	1	0.249125
5.316667	1	0.251750
5.333333	1	0.253750
5.350000	1	0.256000
5.366667	1	0.257875
5.383333	1	0.259500
5.400000	1	0.261000
5.416667	1	0.261875
5.433333	1	0.262875
5.450000	1	0.263625
5.466667	1	0.263375
5.483333	1	0.263125
5.500000	1	0.262625
5.516667	1	0.261750
5.533333	1	0.260750
5.550000	1	0.259250
5.566667	1	0.257750
5.583333	1	0.255625
5.600000	1	0.254250
5.616667	1	0.251875
5.633333	1	0.249125
5.650000	1	0.247000
5.666667	1	0.244375
5.683333	1	0.241875
5.700000	1	0.238875
5.716667	1	0.235875
5.733333	1	0.232750
5.750000	1	0.230125
5.766667	1	0.226625
5.783333	1	0.222875
5.800000	1	0.220500
5.816667	1	0.216875
5.833333	1	0.213250
5.850000	1	0.209375
5.866667	1	0.206125
5.883333	1	0.202000
5.900000	1	0.198375
5.916667	1	0.194750
5.933333	1	0.191375
5.950000	1	0.188250
5.966667	1	0.185125
5.983333	1	0.181750
6.000000	1	0.178500
6.016667	1	0.175000
6.033333	1	0.172125
6.050000	1	0.169125
6.066667	1	0.166375
6.083333	1	0.163125
6.100000	1	0.160000
6.116667	1	0.157500
6.133333	1	0.154625
6.150000	1	0.152375
6.166667	1	0.149375
6.183333	1	0.146500
6.200000	1	0.143375
6.216667	1	0.139875
6.233333	1	0.136750
6.250000	1	0.133500
6.266667	1	0.130750
6.283333	1	0.127375
6.300000	1	0.124125
6.316667	1	0.121250
6.333333	1	0.118875
6.350000	1	0.116250
6.366667	1	0.113250
6.383333	1	0.110875
6.400000	1	0.108750
6.416667	1	0.106500
6.433333	1	0.104125
6.450000	1	0.101875
6.466667	1	0.099500
6.483333	1	0.097750
6.500000	1	0.094625
6.516667	1	0.092125
6.533333	1	0.090625
6.550000	1	0.089500
6.566667	1	0.088375
6.583333	1	0.087125
6.600000	1	0.085625
6.616667	1	0.084125
6.633333	1	0.083125
6.650000	1	0.082500
6.666667	1	0.081625
6.683333	1	0.080875
6.700000	1	0.080625
6.716667	1	0.080625
6.733333	1	0.080625
6.750000	1	0.080375
6.766667	1	0.080250
6.783333	1	0.080250
6.800000	1	0.080250
6.816667	1	0.080750
6.833333	1	0.081625
6.850000	1	0.082000
6.866667	1	0.083375
6.883333	1	0.084875
6.900000	1	0.086125
6.916667	1	0.087750
6.933333	1	0.089125
6.950000	1	0.090500
6.966667	1	0.092375
6.983333	1	0.094250
7.000000	1	0.095625
7.016667	1	0.097625
7.033333	1	0.099875
7.050000	1	0.101250
7.066667	1	0.102625
7.083333	1	0.104875
7.100000	1	0.107125
7.116667	1	0.108875
7.133333	1	0.110250
7.150000	1	0.111625
7.166667	1	0.113875
7.183333	1	0.115500
7.200000	1	0.117125
7.216667	1	0.119000
7.233333	1	0.120500
7.250000	1	0.121625
7.266667	1	0.123250
7.283333	1	0.124500
7.300000	1	0.126125
7.316667	1	0.127250
7.333333	1	0.128500
7.350000	1	0.130875
7.366667	1	0.132125
7.383333	1	0.133750
7.400000	1	0.135500
7.416667	1	0.136250
7.433333	1	0.137125
7.450000	1	0.137875
7.466667	1	0.137875
7.483333	1	0.138625
7.500000	1	0.139125
7.516667	1	0.139625
7.533333	1	0.140250
7.550000	1	0.140750
7.566667	1	0.140500
7.583333	1	0.139875
7.600000	1	0.139375
7.616667	1	0.138875
7.633333	1	0.137625
7.650000	1	0.136625
7.666667	1	0.135125
7.683333	1	0.133250
7.700000	1	0.131750
7.716667	1	0.130000
7.733333	1	0.127625
7.750000	1	0.124875
7.766667	1	0.122375
7.783333	1	0.119500
7.800000	1	0.116375
7.816667	1	0.113625
7.833333	1	0.111125
7.850000	1	0.107500
7.866667	1	0.104375
7.883333	1	0.101250
7.900000	1	0.097625
7.916667	1	0.094875
7.933333	1	0.091250
7.950000	1	0.088125
7.966667	1	0.084875
7.983333	1	0.082125
8.000000	1	0.079125
8.016667	1	0.076250
8.033333	1	0.073875
8.050000	1	0.071125
8.066667	1	0.069000
8.083333	1	0.066500
8.100000	1	0.063875
8.116667	1	0.062125
8.133333	1	0.060125
8.150000	1	0.057625
8.166667	1	0.056125
8.183333	1	0.054500
8.200000	1	0.052500
8.216667	1	0.050875
8.233333	1	0.049250
8.250000	1	0.047375
8.266667	1	0.046000
8.283333	1	0.044500
8.300000	1	0.043125
8.316667	1	0.041125
8.333333	1	0.039500
8.350000	1	0.037875
8.366667	1	0.036375
8.383333	1	0.035875
8.400000	1	0.034875
8.416667	1	0.033250
8.433333	1	0.031500
8.450000	1	0.030125
8.466667	1	0.028625
8.483333	1	0.027625
8.500000	1	0.026375
8.516667	1	0.025250
8.533333	1	0.023750
8.550000	1	0.023125
8.566667	1	0.021375
8.583333	1	0.019875
8.600000	1	0.018625
8.616667	1	0.017750
8.633333	1	0.016500
8.650000	1	0.015125
8.666667	1	0.014500
8.683333	1	0.013625
8.700000	1	0.012750
8.716667	1	0.011875
8.733333	1	0.010750
8.750000	1	0.010000
8.766667	1	0.009750
8.783333	1	0.008875
8.800000	1	0.008375
8.816667	1	0.008000
8.833333	1	0.008000
8.850000	1	0.007500
8.866667	1	0.007000
8.883333	1	0.007375
8.900000	1	0.007125
8.916667	1	0.007375
8.933333	1	0.008000
8.950000	1	0.008250
8.966667	1	0.009500
8.983333	1	0.010500
9.000000	1	0.011375
9.016667	1	0.012000
9.033333	1	0.012500
9.050000	1	0.013500
9.066667	1	0.014375
9.083333	1	0.015375
9.100000	1	0.016125
9.116667	1	0.017500
9.133333	1	0.018500
9.150000	1	0.019250
9.166667	1	0.020000
9.183333	1	0.020875
9.200000	1	0.021250
9.216667	1	0.022125
9.233333	1	0.023250
9.250000	1	0.023750
9.266667	1	0.024125
9.283333	1	0.024000
9.300000	1	0.024500
9.316667	1	0.025250
9.333333	1	0.026000
9.350000	1	0.025875
9.366667	1	0.025500
9.383333	1	0.025625
9.400000	1	0.025875
9.416667	1	0.025750
9.433333	1	0.025875
9.450000	1	0.025250
9.466667	1	0.024500
9.483333	1	0.024250
9.500000	1	0.024250
9.516667	1	0.024625
9.533333	1	0.023500
9.550000	1	0.023000
9.566667	1	0.022125
9.583333	1	0.021875
9.600000	1	0.021500
9.616667	1	0.021125
9.633333	1	0.021000
9.650000	1	0.020750
9.666667	1	0.020500
9.683333	1	0.020250
9.700000	1	0.020375
9.716667	1	0.020750
9.733333	1	0.020375
9.750000	1	0.020875
9.766667	1	0.021875
9.783333	1	0.021625
9.800000	1	0.021500
9.816667	1	0.022125
9.833333	1	0.022875
9.850000	1	0.023375
9.866667	1	0.024125
9.883333	1	0.024375
9.900000	1	0.025375
9.916667	1	0.025500
9.933333	1	0.026125
9.950000	1	0.027250
9.966667	1	0.027500
9.983333	1	0.026625
10.000000	1	0.027125
10.016667	1	0.027875
10.033333	1	0.028500
10.050000	1	0.029500
10.066667	1	0.031000
10.083333	1	0.032500
10.100000	1	0.034375
10.116667	1	0.037625
10.133333	1	0.041000
10.150000	1	0.044375
10.166667	1	0.049500
10.183333	1	0.055625
10.200000	1	0.063625
10.216667	1	0.072625
10.233333	1	0.082875
10.250000	1	0.094750
10.266667	1	0.109250
10.283333	1	0.126000
10.300000	1	0.145125
10.316667	1	0.166500
10.333333	1	0.190875
10.350000	1	0.217750
10.366667	1	0.246500
10.383333	1	0.274875
10.400000	1	0.302500
10.416667	1	0.324625
10.433333	1	0.339875
10.450000	1	0.345125
10.466667	1	0.342125
10.483333	1	0.330875
10.500000	1	0.320625
10.516667	1	0.326375
10.533333	1	0.373875
10.550000	1	0.500000
10.566667	1	0.755750
10.583333	1	1.200625
10.600000	1	1.898125
10.616667	1	2.912000
10.633333	1	4.297125
10.650000	1	6.093750
10.666667	1	8.331000
10.683333	1	11.018375
10.700000	1	14.152625
10.716667	1	17.709250
10.733333	1	21.643625
10.750000	1	25.887875
10.766667	1	30.336375
10.783333	1	34.840875
10.800000	1	39.200250
10.816667	1	43.143750
10.833333	1	46.337875
10.850000	1	48.421500
10.866667	1	49.081375
10.883333	1	48.133000
10.900000	1	45.603500
10.916667	1	41.755375
10.933333	1	37.024125
10.950000	1	31.902375
10.966667	1	26.832000
10.983333	1	22.130750
11.000000	1	17.983750
11.016667	1	14.461500
11.033333	1	11.559250
11.050000	1	9.224375
11.066667	1	7.379125
11.083333	1	5.941375
11.100000	1	4.833125
11.116667	1	3.983875
11.133333	1	3.335000
11.150000	1	2.839750
11.166667	1	2.460625
11.183333	1	2.170875
11.200000	1	1.948125
11.216667	1	1.776250
11.233333	1	1.642375
11.250000	1	1.538250
11.266667	1	1.455375
11.283333	1	1.387000
11.300000	1	1.329625
11.316667	1	1.280750
11.333333	1	1.237500
11.350000	1	1.197000
11.366667	1	1.160750
11.383333	1	1.127250
11.400000	1	1.095250
11.416667	1	1.066375
11.433333	1	1.039750
11.450000	1	1.015875
11.466667	1	0.995375
11.483333	1	0.977375
11.500000	1	0.962500
11.516667	1	0.951000
11.533333	1	0.943000
11.550000	1	0.938875
11.566667	1	0.937625
11.583333	1	0.941000
11.600000	1	0.948625
11.616667	1	0.960500
11.633333	1	0.976375
11.650000	1	0.997625
11.666667	1	1.022250
11.683333	1	1.050625
11.700000	1	1.081250
11.716667	1	1.113250
11.733333	1	1.145500
11.750000	1	1.175000
11.766667	1	1.201500
11.783333	1	1.223500
11.800000	1	1.239875
11.816667	1	1.250375
11.833333	1	1.254500
11.850000	1	1.252500
11.866667	1	1.245750
11.883333	1	1.234375
11.900000	1	1.220375
11.916667	1	1.204250
11.933333	1	1.187250
11.950000	1	1.169250
11.966667	1	1.152625
11.983333	1	1.137250
12.000000	1	1.123875
12.016667	1	1.112125
12.033333	1	1.102250
12.050000	1	1.094250
12.066667	1	1.088375
12.083333	1	1.083875
12.100000	1	1.080500
12.116667	1	1.079000
12.133333	1	1.078500
12.150000	1	1.078625
12.166667	1	1.081250
12.183333	1	1.084875
12.200000	1	1.090625
12.216667	1	1.097750
12.233333	1	1.107375
12.250000	1	1.121125
12.266667	1	1.140250
12.283333	1	1.165500
12.300000	1	1.200125
12.316667	1	1.247500
12.333333	1	1.312250
12.350000	1	1.400750
12.366667	1	1.519875
12.383333	1	1.681500
12.400000	1	1.900500
12.416667	1	2.196000
12.433333	1	2.594000
12.450000	1	3.130375
12.466667	1	3.849500
12.483333	1	4.808875
12.500000	1	6.079000
12.516667	1	7.742750
12.533333	1	9.888875
12.550000	1	12.609750
12.566667	1	15.986375
12.583333	1	20.082250
12.600000	1	24.924125
12.616667	1	30.480875
12.633333	1	36.666000
12.650000	1	43.330000
12.666667	1	50.257500
12.683333	1	57.167625
12.700000	1	63.741625
12.716667	1	69.647000
12.733333	1	74.573750
12.750000	1	78.266250
12.766667	1	80.554500
12.783333	1	81.363375
12.800000	1	80.721625
12.816667	1	78.761625
12.833333	1	75.686000
12.850000	1	71.748500
12.866667	1	67.227625
12.883333	1	62.403625
12.900000	1	57.533750
12.916667	1	52.836250
12.933333	1	48.478875
12.950000	1	44.576875
12.966667	1	41.193000
12.983333	1	38.348250
13.000000	1	36.033875
13.016667	1	34.218625
13.033333	1	32.856000
13.050000	1	31.894000
13.066667	1	31.279625
13.083333	1	30.962125
13.100000	1	30.895000
13.116667	1	31.038375
13.133333	1	31.354875
13.150000	1	31.816375
13.166667	1	32.396375
13.183333	1	33.075875
13.200000	1	33.838250
13.216667	1	34.668000
13.233333	1	35.557000
13.250000	1	36.497000
13.266667	1	37.483750
13.283333	1	38.509750
13.300000	1	39.573875
13.316667	1	40.671125
13.333333	1	41.800750
13.350000	1	42.960500
13.366667	1	44.150000
13.383333	1	45.368125
13.400000	1	46.614375
13.416667	1	47.888250
13.433333	1	49.191000
13.450000	1	50.523875
13.466667	1	51.887625
13.483333	1	53.281375
13.500000	1	54.706750
13.516667	1	56.162875
13.533333	1	57.648875
13.550000	1	59.164375
13.566667	1	60.711500
13.583333	1	62.291500
13.600000	1	63.902375
13.616667	1	65.546500
13.633333	1	67.223250
13.650000	1	68.936750
13.666667	1	70.685875
13.683333	1	72.467625
13.700000	1	74.264500
13.716667	1	76.021000
13.733333	1	77.619750
13.750000	1	78.884875
13.766667	1	79.614000
13.783333	1	79.619875
13.800000	1	78.752625
13.816667	1	76.873000
13.833333	1	73.814500
13.850000	1	69.387875
13.866667	1	63.489000
13.883333	1	56.273000
13.900000	1	48.250750
13.916667	1	40.157750
13.933333	1	32.678625
13.950000	1	26.232375
13.966667	1	20.949375
13.983333	1	16.760875
14.000000	1	13.509375
14.016667	1	11.019875
14.033333	1	9.137250
14.050000	1	7.728500
14.066667	1	6.684000
14.083333	1	5.912500
14.100000	1	5.340500
14.116667	1	4.912500
14.133333	1	4.586875
14.150000	1	4.334500
14.166667	1	4.135250
14.183333	1	3.972750
14.200000	1	3.837250
14.216667	1	3.722500
14.233333	1	3.621750
14.250000	1	3.532875
14.266667	1	3.453250
14.283333	1	3.381125
14.300000	1	3.314875
14.316667	1	3.253125
14.333333	1	3.196375
14.350000	1	3.143500
14.366667	1	3.093625
14.383333	1	3.047375
14.400000	1	3.005625
14.416667	1	2.966125
14.433333	1	2.929750
14.450000	1	2.896250
14.466667	1	2.865250
14.483333	1	2.835750
14.500000	1	2.807750
14.516667	1	2.782000
14.533333	1	2.757250
14.550000	1	2.732750
14.566667	1	2.708625
14.583333	1	2.684375
14.600000	1	2.660500
14.616667	1	2.635250
14.633333	1	2.609125
14.650000	1	2.582375
14.666667	1	2.555625
14.683333	1	2.527875
14.700000	1	2.499625
14.716667	1	2.471625
14.733333	1	2.443750
14.750000	1	2.415750
14.766667	1	2.389000
14.783333	1	2.362625
14.800000	1	2.336250
14.816667	1	2.310875
14.833333	1	2.284750
14.850000	1	2.259375
14.866667	1	2.233875
14.883333	1	2.208000
14.900000	1	2.180750
14.916667	1	2.153250
14.933333	1	2.125250
14.950000	1	2.097250
14.966667	1	2.068875
14.983333	1	2.041125
15.000000	1	2.013625
15.016667	1	1.986375
15.033333	1	1.959750
15.050000	1	1.933500
15.066667	1	1.908500
15.083333	1	1.884625
15.100000	1	1.861625
15.116667	1	1.840000
15.133333	1	1.819750
15.150000	1	1.800875
15.166667	1	1.782375
15.183333	1	1.765750
15.200000	1	1.750625
15.216667	1	1.737250
15.233333	1	1.725875
15.250000	1	1.715250
15.266667	1	1.706750
15.283333	1	1.700875
15.300000	1	1.697875
15.316667	1	1.698750
15.333333	1	1.703125
15.350000	1	1.711875
15.366667	1	1.725500
15.383333	1	1.744625
15.400000	1	1.768875
15.416667	1	1.798125
15.433333	1	1.831500
15.450000	1	1.867625
15.466667	1	1.904625
15.483333	1	1.941500
15.500000	1	1.975250
15.516667	1	2.004125
15.533333	1	2.027000
15.550000	1	2.041125
15.566667	1	2.046000
15.583333	1	2.041750
15.600000	1	2.028250
15.616667	1	2.006750
15.633333	1	1.977875
15.650000	1	1.942375
15.666667	1	1.903500
15.683333	1	1.862875
15.700000	1	1.820750
15.716667	1	1.778375
15.733333	1	1.737625
15.750000	1	1.698625
15.766667	1	1.661125
15.783333	1	1.626125
15.800000	1	1.592000
15.816667	1	1.559875
15.833333	1	1.529125
15.850000	1	1.500250
15.866667	1	1.472000
15.883333	1	1.445250
15.900000	1	1.420000
15.916667	1	1.396500
15.933333	1	1.374250
15.950000	1	1.354125
15.966667	1	1.336125
15.983333	1	1.320750
16.000000	1	1.307000
16.016667	1	1.295250
16.033333	1	1.286375
16.050000	1	1.278500
16.066667	1	1.272875
16.083333	1	1.269125
16.100000	1	1.266125
16.116667	1	1.265125
16.133333	1	1.264375
16.150000	1	1.265125
16.166667	1	1.266000
16.183333	1	1.268000
16.200000	1	1.269500
16.216667	1	1.270625
16.233333	1	1.270750
16.250000	1	1.270875
16.266667	1	1.270125
16.283333	1	1.268375
16.300000	1	1.265500
16.316667	1	1.261875
16.333333	1	1.257000
16.350000	1	1.252125
16.366667	1	1.245750
16.383333	1	1.240125
16.400000	1	1.234375
16.416667	1	1.228500
16.433333	1	1.223500
16.450000	1	1.220375
16.466667	1	1.218250
16.483333	1	1.217625
16.500000	1	1.219000
16.516667	1	1.221625
16.533333	1	1.226000
16.550000	1	1.232000
16.566667	1	1.238750
16.583333	1	1.247000
16.600000	1	1.255000
16.616667	1	1.262875
16.633333	1	1.270125
16.650000	1	1.276375
16.666667	1	1.280875
16.683333	1	1.284000
16.700000	1	1.286000
16.716667	1	1.287000
16.733333	1	1.286625
16.750000	1	1.286750
16.766667	1	1.286000
16.783333	1	1.286375
16.800000	1	1.287500
16.816667	1	1.289125
16.833333	1	1.291875
16.850000	1	1.294750
16.866667	1	1.298625
16.883333	1	1.302750
16.900000	1	1.306750
16.916667	1	1.310125
16.933333	1	1.312750
16.950000	1	1.314000
16.966667	1	1.314625
16.983333	1	1.314000
17.000000	1	1.312375
17.016667	1	1.309125
17.033333	1	1.305875
17.050000	1	1.301250
17.066667	1	1.296125
17.083333	1	1.290875
17.100000	1	1.286250
17.116667	1	1.282500
17.133333	1	1.279625
17.150000	1	1.277750
17.166667	1	1.276750
17.183333	1	1.277125
17.200000	1	1.279875
17.216667	1	1.283250
17.233333	1	1.289500
17.250000	1	1.297250
17.266667	1	1.305875
17.283333	1	1.316375
17.300000	1	1.327125
17.316667	1	1.339000
17.333333	1	1.351375
17.350000	1	1.363750
17.366667	1	1.376125
17.383333	1	1.387000
17.400000	1	1.397750
17.416667	1	1.406875
17.433333	1	1.413875
17.450000	1	1.418625
17.466667	1	1.421250
17.483333	1	1.420750
17.500000	1	1.417750
17.516667	1	1.412125
17.533333	1	1.404250
17.550000	1	1.393875
17.566667	1	1.381250
17.583333	1	1.367000
17.600000	1	1.350750
17.616667	1	1.333875
17.633333	1	1.315875
17.650000	1	1.296625
17.666667	1	1.276875
17.683333	1	1.257375
17.700000	1	1.238000
17.716667	1	1.219000
17.733333	1	1.200375
17.750000	1	1.182375
17.766667	1	1.164875
17.783333	1	1.148250
17.800000	1	1.132125
17.816667	1	1.116250
17.833333	1	1.101750
17.850000	1	1.087125
17.866667	1	1.074000
17.883333	1	1.061875
17.900000	1	1.049500
17.916667	1	1.037875
17.933333	1	1.026625
17.950000	1	1.016875
17.966667	1	1.007625
17.983333	1	0.998625
18.000000	1	0.989625
18.016667	1	0.980875
18.033333	1	0.972250
18.050000	1	0.963500
18.066667	1	0.955125
18.083333	1	0.947000
18.100000	1	0.938875
18.116667	1	0.931250
18.133333	1	0.924750
18.150000	1	0.917875
18.166667	1	0.912000
18.183333	1	0.906125
18.200000	1	0.900500
18.216667	1	0.896000
18.233333	1	0.892625
18.250000	1	0.889000
18.266667	1	0.886125
18.283333	1	0.884000
18.300000	1	0.882250
18.316667	1	0.880875
18.333333	1	0.881000
18.350000	1	0.880125
18.366667	1	0.880125
18.383333	1	0.879625
18.400000	1	0.880000
18.416667	1	0.881125
18.433333	1	0.882875
18.450000	1	0.884750
18.466667	1	0.888000
18.483333	1	0.893000
18.500000	1	0.899250
18.516667	1	0.907500
18.533333	1	0.915500
18.550000	1	0.927500
18.566667	1	0.941375
18.583333	1	0.957750
18.600000	1	0.975750
18.616667	1	0.996125
18.633333	1	1.018375
18.650000	1	1.042500
18.666667	1	1.069000
18.683333	1	1.097125
18.700000	1	1.127125
18.716667	1	1.158875
18.733333	1	1.190875
18.750000	1	1.224625
18.766667	1	1.259750
18.783333	1	1.294500
18.800000	1	1.329750
18.816667	1	1.364250
18.833333	1	1.397375
18.850000	1	1.428250
18.866667	1	1.456875
18.883333	1	1.480750
18.900000	1	1.501000
18.916667	1	1.516375
18.933333	1	1.526250
18.950000	1	1.529375
18.966667	1	1.526375
18.983333	1	1.516500
19.000000	1	1.498750
19.016667	1	1.474375
19.033333	1	1.443375
19.050000	1	1.406125
19.066667	1	1.363750
19.083333	1	1.317000
19.100000	1	1.267375
19.116667	1	1.215750
19.133333	1	1.162750
19.150000	1	1.110875
19.166667	1	1.058500
19.183333	1	1.008125
19.200000	1	0.961125
19.216667	1	0.917750
19.233333	1	0.878250
19.250000	1	0.844125
19.266667	1	0.814500
19.283333	1	0.791250
19.300000	1	0.772750
19.316667	1	0.760625
19.333333	1	0.754250
19.350000	1	0.753750
19.366667	1	0.759375
19.383333	1	0.770250
19.400000	1	0.786125
19.416667	1	0.805875
19.433333	1	0.831125
19.450000	1	0.858750
19.466667	1	0.889500
19.483333	1	0.921750
19.500000	1	0.955000
19.516667	1	0.986875
19.533333	1	1.017375
19.550000	1	1.045625
19.566667	1	1.069875
19.583333	1	1.090250
19.600000	1	1.105500
19.616667	1	1.114375
19.633333	1	1.117250
19.650000	1	1.114625
19.666667	1	1.105500
19.683333	1	1.091500
19.700000	1	1.072000
19.716667	1	1.049000
19.733333	1	1.022250
19.750000	1	0.991875
19.766667	1	0.960250
19.783333	1	0.928000
19.800000	1	0.895250
19.816667	1	0.862125
19.833333	1	0.830000
19.850000	1	0.799125
19.866667	1	0.769375
19.883333	1	0.742250
19.900000	1	0.717500
19.916667	1	0.694250
19.933333	1	0.672875
19.950000	1	0.654875
19.966667	1	0.637750
19.983333	1	0.623125
20.000000	1	0.611375
20.016667	1	0.602000
20.033333	1	0.594375
20.050000	1	0.589125
20.066667	1	0.586250
20.083333	1	0.586625
20.100000	1	0.588000
20.116667	1	0.592250
20.133333	1	0.598750
20.150000	1	0.607500
20.166667	1	0.618125
20.183333	1	0.631000
20.200000	1	0.644875
20.216667	1	0.659875
20.233333	1	0.676375
20.250000	1	0.691875
20.266667	1	0.706875
20.283333	1	0.721875
20.300000	1	0.735000
20.316667	1	0.745875
20.333333	1	0.754750
20.350000	1	0.761000
20.366667	1	0.764125
20.383333	1	0.763750
20.400000	1	0.760750
20.416667	1	0.754625
20.433333	1	0.745625
20.450000	1	0.734750
20.466667	1	0.722625
20.483333	1	0.710250
20.500000	1	0.697500
20.516667	1	0.686250
20.533333	1	0.677625
20.550000	1	0.672125
20.566667	1	0.671250
20.583333	1	0.675750
20.600000	1	0.684875
20.616667	1	0.702000
20.633333	1	0.726000
20.650000	1	0.757875
20.666667	1	0.797875
20.683333	1	0.845750
20.700000	1	0.901625
20.716667	1	0.965125
20.733333	1	1.034875
20.750000	1	1.109750
20.766667	1	1.187875
20.783333	1	1.268875
20.800000	1	1.349375
20.816667	1	1.426875
20.833333	1	1.498750
20.850000	1	1.563375
20.866667	1	1.617750
20.883333	1	1.660125
20.900000	1	1.689500
20.916667	1	1.705500
20.933333	1	1.707125
20.950000	1	1.695250
20.966667	1	1.669125
20.983333	1	1.630125
21.000000	1	1.580250
21.016667	1	1.521250
21.033333	1	1.455750
21.050000	1	1.384250
21.066667	1	1.310500
21.083333	1	1.236250
21.100000	1	1.163500
21.116667	1	1.092750
21.133333	1	1.025125
21.150000	1	0.961000
21.166667	1	0.901375
21.183333	1	0.847500
21.200000	1	0.797875
21.216667	1	0.752875
21.233333	1	0.713375
21.250000	1	0.678250
21.266667	1	0.647250
21.283333	1	0.620125
21.300000	1	0.596625
21.316667	1	0.576625
21.333333	1	0.559750
21.350000	1	0.544875
21.366667	1	0.531875
21.383333	1	0.521125
21.400000	1	0.511250
21.416667	1	0.503250
21.433333	1	0.497000
21.450000	1	0.491250
21.466667	1	0.486875
21.483333	1	0.482750
21.500000	1	0.480375
21.516667	1	0.478750
21.533333	1	0.479125
21.550000	1	0.480500
21.566667	1	0.484000
21.583333	1	0.488875
21.600000	1	0.494875
21.616667	1	0.503000
21.633333	1	0.514375
21.650000	1	0.528125
21.666667	1	0.545000
21.683333	1	0.565125
21.700000	1	0.588875
21.716667	1	0.615500
21.733333	1	0.647125
21.750000	1	0.682500
21.766667	1	0.721000
21.783333	1	0.763625
21.800000	1	0.809375
21.816667	1	0.858500
21.833333	1	0.910625
21.850000	1	0.964500
21.866667	1	1.019000
21.883333	1	1.073250
21.900000	1	1.126750
21.916667	1	1.178500
21.933333	1	1.227000
21.950000	1	1.272000
21.966667	1	1.311125
21.983333	1	1.343750
22.000000	1	1.370000
22.016667	1	1.389000
22.033333	1	1.399625
22.050000	1	1.402000
22.066667	1	1.396125
22.083333	1	1.383125
22.100000	1	1.363750
22.116667	1	1.337625
22.133333	1	1.306000
22.150000	1	1.269500
22.166667	1	1.228625
22.183333	1	1.185000
22.200000	1	1.139125
22.216667	1	1.091375
22.233333	1	1.044250
22.250000	1	0.997500
22.266667	1	0.950750
22.283333	1	0.905875
22.300000	1	0.862500
22.316667	1	0.820750
22.333333	1	0.781000
22.350000	1	0.743000
22.366667	1	0.706375
22.383333	1	0.672375
22.400000	1	0.640625
22.416667	1	0.610750
22.433333	1	0.583500
22.450000	1	0.559000
22.466667	1	0.535375
22.483333	1	0.514250
22.500000	1	0.495375
22.516667	1	0.478125
22.533333	1	0.462375
22.550000	1	0.447500
22.566667	1	0.434125
22.583333	1	0.422250
22.600000	1	0.411500
22.616667	1	0.401750
22.633333	1	0.392500
22.650000	1	0.385250
22.666667	1	0.378000
22.683333	1	0.370875
22.700000	1	0.364500
22.716667	1	0.358875
22.733333	1	0.354750
22.750000	1	0.349875
22.766667	1	0.345375
22.783333	1	0.340625
22.800000	1	0.336875
22.816667	1	0.332500
22.833333	1	0.329500
22.850000	1	0.326625
22.866667	1	0.323500
22.883333	1	0.320750
22.900000	1	0.318250
22.916667	1	0.315625
22.933333	1	0.314250
22.950000	1	0.312875
22.966667	1	0.312125
22.983333	1	0.311500
23.000000	1	0.310750
23.016667	1	0.310125
23.033333	1	0.310250
23.050000	1	0.310875
23.066667	1	0.311625
23.083333	1	0.311875
23.100000	1	0.313625
23.116667	1	0.315250
23.133333	1	0.317375
23.150000	1	0.320000
23.166667	1	0.322375
23.183333	1	0.324500
23.200000	1	0.326625
23.216667	1	0.329625
23.233333	1	0.332250
23.250000	1	0.335500
23.266667	1	0.339625
23.283333	1	0.344625
23.300000	1	0.350625
23.316667	1	0.358250
23.333333	1	0.367375
23.350000	1	0.378500
23.366667	1	0.392625
23.383333	1	0.410125
23.400000	1	0.431625
23.416667	1	0.459250
23.433333	1	0.492375
23.450000	1	0.532125
23.466667	1	0.580500
23.483333	1	0.639750
23.500000	1	0.709750
23.516667	1	0.791875
23.533333	1	0.888625
23.550000	1	0.999750
23.566667	1	1.126625
23.583333	1	1.271875
23.600000	1	1.435000
23.616667	1	1.615375
23.633333	1	1.814375
23.650000	1	2.029250
23.666667	1	2.260625
23.683333	1	2.505250
23.700000	1	2.760750
23.716667	1	3.022750
23.733333	1	3.287750
23.750000	1	3.550750
23.766667	1	3.806125
23.783333	1	4.048375
23.800000	1	4.272250
23.816667	1	4.474000
23.833333	1	4.647625
23.850000	1	4.788500
23.866667	1	4.894375
23.883333	1	4.962750
23.900000	1	4.992625
23.916667	1	4.982625
23.933333	1	4.934125
23.950000	1	4.850125
23.966667	1	4.731625
23.983333	1	4.583500
24.000000	1	4.409250
24.016667	1	4.214375
24.033333	1	4.002625
24.050000	1	3.779625
24.066667	1	3.548750
24.083333	1	3.315000
24.100000	1	3.082625
24.116667	1	2.853750
24.133333	1	2.631500
24.150000	1	2.419000
24.166667	1	2.216875
24.183333	1	2.027125
24.200000	1	1.849875
24.216667	1	1.687000
24.233333	1	1.537750
24.250000	1	1.402125
24.266667	1	1.279500
24.283333	1	1.169000
24.300000	1	1.070375
24.316667	1	0.982625
24.333333	1	0.904750
24.350000	1	0.836250
24.366667	1	0.777250
24.383333	1	0.726500
24.400000	1	0.682625
24.416667	1	0.644875
24.433333	1	0.612625
24.450000	1	0.586375
24.466667	1	0.564250
24.483333	1	0.546250
24.500000	1	0.531750
24.516667	1	0.520125
24.533333	1	0.510875
24.550000	1	0.503500
24.566667	1	0.497750
24.583333	1	0.492875
24.600000	1	0.488875
24.616667	1	0.485000
24.633333	1	0.481750
24.650000	1	0.479000
24.666667	1	0.476125
24.683333	1	0.473250
24.700000	1	0.469750
24.716667	1	0.466000
24.733333	1	0.461750
24.750000	1	0.457500
24.766667	1	0.452750
24.783333	1	0.447375
24.800000	1	0.442125
24.816667	1	0.437125
24.833333	1	0.431875
24.850000	1	0.426250
24.866667	1	0.421000
24.883333	1	0.415750
24.900000	1	0.410625
24.916667	1	0.406250
24.933333	1	0.401750
24.950000	1	0.396375
24.966667	1	0.391625
24.983333	1	0.387125
25.000000	1	0.383125
25.016667	1	0.378375
25.033333	1	0.374625
25.050000	1	0.370250
25.066667	1	0.366375
25.083333	1	0.363125
25.100000	1	0.359375
25.116667	1	0.354750
25.133333	1	0.351125
25.150000	1	0.346625
25.166667	1	0.342500
25.183333	1	0.338875
25.200000	1	0.334000
25.216667	1	0.330125
25.233333	1	0.326250
25.250000	1	0.322250
25.266667	1	0.318250
25.283333	1	0.314500
25.300000	1	0.311125
25.316667	1	0.307250
25.333333	1	0.303375
25.350000	1	0.300000
25.366667	1	0.296500
25.383333	1	0.293375
25.400000	1	0.290500
25.416667	1	0.287250
25.433333	1	0.283875
25.450000	1	0.281500
25.466667	1	0.279875
25.483333	1	0.278375
25.500000	1	0.277125
25.516667	1	0.275500
25.533333	1	0.274125
25.550000	1	0.273750
25.566667	1	0.272500
25.583333	1	0.271125
25.600000	1	0.270875
25.616667	1	0.270250
25.633333	1	0.269625
25.650000	1	0.269500
25.666667	1	0.268875
25.683333	1	0.268125
25.700000	1	0.268125
25.716667	1	0.267875
25.733333	1	0.268250
25.750000	1	0.267875
25.766667	1	0.267625
25.783333	1	0.267750
25.800000	1	0.267750
25.816667	1	0.268125
25.833333	1	0.268500
25.850000	1	0.269000
25.866667	1	0.269875
25.883333	1	0.271375
25.900000	1	0.273125
25.916667	1	0.275250
25.933333	1	0.277625
25.950000	1	0.280250
25.966667	1	0.283125
25.983333	1	0.286500
26.000000	1	0.290125
26.016667	1	0.294875
26.033333	1	0.299500
26.050000	1	0.304250
26.066667	1	0.309750
26.083333	1	0.315875
26.100000	1	0.321750
26.116667	1	0.327500
26.133333	1	0.334000
26.150000	1	0.340000
26.166667	1	0.345625
26.183333	1	0.351125
26.200000	1	0.356375
26.216667	1	0.361875
26.233333	1	0.366875
26.250000	1	0.372000
26.266667	1	0.375750
26.283333	1	0.379500
26.300000	1	0.382500
26.316667	1	0.385250
26.333333	1	0.387250
26.350000	1	0.388500
26.366667	1	0.389000
26.383333	1	0.388375
26.400000	1	0.387875
26.416667	1	0.386750
26.433333	1	0.384500
26.450000	1	0.381375
26.466667	1	0.378750
26.483333	1	0.374375
26.500000	1	0.371125
26.516667	1	0.366375
26.533333	1	0.361500
26.550000	1	0.356125
26.566667	1	0.350125
26.583333	1	0.344500
26.600000	1	0.338625
26.616667	1	0.332750
26.633333	1	0.326875
26.650000	1	0.320500
26.666667	1	0.314625
26.683333	1	0.309500
26.700000	1	0.304000
26.716667	1	0.298375
26.733333	1	0.294000
26.750000	1	0.288750
26.766667	1	0.284625
26.783333	1	0.280750
26.800000	1	0.277000
26.816667	1	0.273625
26.833333	1	0.269375
26.850000	1	0.266500
26.866667	1	0.264000
26.883333	1	0.261875
26.900000	1	0.259875
26.916667	1	0.257625
26.933333	1	0.257000
26.950000	1	0.256625
26.966667	1	0.256375
26.983333	1	0.256750
27.000000	1	0.257375
27.016667	1	0.258875
27.033333	1	0.259875
27.050000	1	0.262250
27.066667	1	0.265500
27.083333	1	0.268375
27.100000	1	0.272000
27.116667	1	0.277250
27.133333	1	0.283500
27.150000	1	0.289625
27.166667	1	0.297375
27.183333	1	0.307000
27.200000	1	0.318000
27.216667	1	0.331000
27.233333	1	0.346125
27.250000	1	0.362875
27.266667	1	0.383500
27.283333	1	0.407375
27.300000	1	0.434125
27.316667	1	0.465250
27.333333	1	0.501750
27.350000	1	0.543125
27.366667	1	0.591250
27.383333	1	0.644625
27.400000	1	0.705750
27.416667	1	0.774875
27.433333	1	0.852875
27.450000	1	0.939625
27.466667	1	1.036875
27.483333	1	1.144000
27.500000	1	1.261250
27.516667	1	1.389125
27.533333	1	1.527625
27.550000	1	1.676625
27.566667	1	1.834375
27.583333	1	2.001625
27.600000	1	2.176125
27.616667	1	2.356750
27.633333	1	2.542500
27.650000	1	2.731375
27.666667	1	2.921250
27.683333	1	3.110375
27.700000	1	3.294375
27.716667	1	3.470875
27.733333	1	3.636750
27.750000	1	3.791125
27.766667	1	3.930500
27.783333	1	4.051750
27.800000	1	4.152750
27.816667	1	4.232000
27.833333	1	4.287375
27.850000	1	4.317750
27.866667	1	4.323125
27.883333	1	4.301750
27.900000	1	4.254750
27.916667	1	4.182250
27.933333	1	4.086625
27.950000	1	3.969750
27.966667	1	3.832875
27.983333	1	3.679875
28.000000	1	3.513500
28.016667	1	3.336000
28.033333	1	3.150375
28.050000	1	2.959000
28.066667	1	2.765625
28.083333	1	2.572375
28.100000	1	2.382750
28.116667	1	2.197750
28.133333	1	2.019125
28.150000	1	1.850000
28.166667	1	1.689625
28.183333	1	1.539375
28.200000	1	1.400000
28.216667	1	1.271625
28.233333	1	1.153250
28.250000	1	1.046500
28.266667	1	0.949875
28.283333	1	0.864125
28.300000	1	0.788625
28.316667	1	0.721000
28.333333	1	0.661625
28.350000	1	0.610625
28.366667	1	0.566875
28.383333	1	0.529500
28.400000	1	0.498875
28.416667	1	0.474500
28.433333	1	0.454625
28.450000	1	0.439375
28.466667	1	0.428250
28.483333	1	0.420250
28.500000	1	0.416000
28.516667	1	0.414500
28.533333	1	0.415750
28.550000	1	0.418875
28.566667	1	0.424250
28.583333	1	0.431125
28.600000	1	0.440125
28.616667	1	0.450375
28.633333	1	0.460750
28.650000	1	0.470875
28.666667	1	0.482500
28.683333	1	0.493625
28.700000	1	0.505625
28.716667	1	0.517125
28.733333	1	0.527875
28.750000	1	0.538375
28.766667	1	0.548125
28.783333	1	0.557500
28.800000	1	0.565500
28.816667	1	0.572625
28.833333	1	0.579125
28.850000	1	0.584875
28.866667	1	0.589000
28.883333	1	0.591750
28.900000	1	0.593375
28.916667	1	0.593500
28.933333	1	0.591500
28.950000	1	0.589500
28.966667	1	0.586000
28.983333	1	0.581000
29.000000	1	0.575000
29.016667	1	0.567750
29.033333	1	0.559750
29.050000	1	0.550125
29.066667	1	0.539625
29.083333	1	0.527875
29.100000	1	0.515500
29.116667	1	0.502375
29.133333	1	0.489625
29.150000	1	0.475500
29.166667	1	0.460750
29.183333	1	0.446250
29.200000	1	0.431125
29.216667	1	0.416125
29.233333	1	0.400625
29.250000	1	0.385000
29.266667	1	0.370375
29.283333	1	0.355000
29.300000	1	0.340375
29.316667	1	0.326250
29.333333	1	0.312250
29.350000	1	0.298750
29.366667	1	0.285625
29.383333	1	0.273625
29.400000	1	0.262000
29.416667	1	0.250500
29.433333	1	0.239750
29.450000	1	0.230250
29.466667	1	0.221250
29.483333	1	0.212750
29.500000	1	0.204625
29.516667	1	0.196875
29.533333	1	0.190000
29.550000	1	0.183625
29.566667	1	0.178250
29.583333	1	0.173125
29.600000	1	0.169125
29.616667	1	0.165500
29.633333	1	0.162250
29.650000	1	0.159875
29.666667	1	0.157250
29.683333	1	0.155125
29.700000	1	0.153500
29.716667	1	0.152875
29.733333	1	0.151750
29.750000	1	0.150750
29.766667	1	0.150000
29.783333	1	0.149625
29.800000	1	0.150000
29.816667	1	0.149750
29.833333	1	0.149375
29.850000	1	0.149250
29.866667	1	0.149750
29.883333	1	0.149750
29.900000	1	0.150000
29.916667	1	0.149875
29.933333	1	0.150125
29.950000	1	0.150750
29.966667	1	0.152125
29.983333	1	0.152500
30.000000	1	0.153125
30.016667	1	0.153625
30.033333	1	0.154000
30.050000	1	0.154250
30.066667	1	0.154125
30.083333	1	0.154625
30.100000	1	0.154375
30.116667	1	0.155000
30.133333	1	0.155000
30.150000	1	0.155250
30.166667	1	0.155625
30.183333	1	0.155750
30.200000	1	0.156625
30.216667	1	0.157000
30.233333	1	0.157125
30.250000	1	0.157375
30.266667	1	0.157500
30.283333	1	0.158000
30.300000	1	0.158000
30.316667	1	0.158125
30.333333	1	0.158625
30.350000	1	0.159000
30.366667	1	0.159125
30.383333	1	0.159625
30.400000	1	0.159500
30.416667	1	0.160000
30.433333	1	0.160875
30.450000	1	0.161625
30.466667	1	0.162875
30.483333	1	0.164000
30.500000	1	0.165750
30.516667	1	0.167250
30.533333	1	0.169000
30.550000	1	0.171375
30.566667	1	0.174875
30.583333	1	0.178125
30.600000	1	0.182125
30.616667	1	0.186375
30.633333	1	0.191500
30.650000	1	0.196625
30.666667	1	0.202375
30.683333	1	0.208625
30.700000	1	0.215500
30.716667	1	0.223000
30.733333	1	0.231125
30.750000	1	0.240000
30.766667	1	0.249750
30.783333	1	0.260500
30.800000	1	0.272250
30.816667	1	0.284500
30.833333	1	0.298000
30.850000	1	0.313125
30.866667	1	0.330000
30.883333	1	0.348250
30.900000	1	0.368250
30.916667	1	0.390250
30.933333	1	0.415000
30.950000	1	0.443000
30.966667	1	0.472875
30.983333	1	0.506875
31.000000	1	0.545375
31.016667	1	0.587875
31.033333	1	0.636250
31.050000	1	0.690250
31.066667	1	0.750125
31.083333	1	0.815625
31.100000	1	0.889375
31.116667	1	0.970375
31.133333	1	1.058250
31.150000	1	1.154500
31.166667	1	1.259750
31.183333	1	1.374000
31.200000	1	1.496625
31.216667	1	1.627750
31.233333	1	1.767875
31.250000	1	1.914375
31.266667	1	2.068000
31.283333	1	2.226625
31.300000	1	2.390625
31.316667	1	2.558500
31.333333	1	2.728375
31.350000	1	2.897500
31.366667	1	3.065875
31.383333	1	3.231125
31.400000	1	3.391375
31.416667	1	3.544500
31.433333	1	3.688500
31.450000	1	3.821500
31.466667	1	3.941250
31.483333	1	4.045750
31.500000	1	4.133625
31.516667	1	4.205125
31.533333	1	4.257500
31.550000	1	4.291375
31.566667	1	4.306500
31.583333	1	4.302500
31.600000	1	4.279500
31.616667	1	4.237750
31.633333	1	4.177625
31.650000	1	4.100625
31.666667	1	4.008875
31.683333	1	3.902250
31.700000	1	3.783250
31.716667	1	3.654250
31.733333	1	3.516500
31.750000	1	3.372125
31.766667	1	3.221500
31.783333	1	3.066375
31.800000	1	2.909375
31.816667	1	2.751750
31.833333	1	2.595250
31.850000	1	2.440625
31.866667	1	2.289375
31.883333	1	2.142500
31.900000	1	2.000000
31.916667	1	1.864500
31.933333	1	1.734750
31.950000	1	1.611500
31.966667	1	1.495125
31.983333	1	1.386125
32.000000	1	1.283500
32.016667	1	1.189000
32.033333	1	1.100000
32.050000	1	1.017500
32.066667	1	0.941625
32.083333	1	0.871750
32.100000	1	0.807125
32.116667	1	0.747625
32.133333	1	0.693000
32.150000	1	0.642750
32.166667	1	0.597125
32.183333	1	0.555000
32.200000	1	0.515750
32.216667	1	0.480375
32.233333	1	0.447000
32.250000	1	0.416500
32.266667	1	0.388625
32.283333	1	0.363000
32.300000	1	0.339125
32.316667	1	0.317125
32.333333	1	0.296750
32.350000	1	0.277500
32.366667	1	0.259625
32.383333	1	0.243250
32.400000	1	0.227125
32.416667	1	0.213125
32.433333	1	0.199500
32.450000	1	0.187125
32.466667	1	0.175375
32.483333	1	0.165000
32.500000	1	0.155000
32.516667	1	0.145750
32.533333	1	0.137125
32.550000	1	0.129750
32.566667	1	0.122625
32.583333	1	0.116125
32.600000	1	0.110375
32.616667	1	0.104750
32.633333	1	0.099125
32.650000	1	0.095000
32.666667	1	0.090625
32.683333	1	0.086750
32.700000	1	0.083250
32.716667	1	0.080125
32.733333	1	0.077750
32.750000	1	0.074750
32.766667	1	0.072250
32.783333	1	0.070875
32.800000	1	0.069375
32.816667	1	0.067750
32.833333	1	0.066875
32.850000	1	0.065375
32.866667	1	0.064500
32.883333	1	0.063625
32.900000	1	0.062250
32.916667	1	0.061625
32.933333	1	0.060500
32.950000	1	0.060000
32.966667	1	0.059500
32.983333	1	0.059000
33.000000	1	0.059000
33.016667	1	0.059375
33.033333	1	0.058875
33.050000	1	0.058125
33.066667	1	0.059375
33.083333	1	0.059750
33.100000	1	0.059500
33.116667	1	0.060375
33.133333	1	0.061125
33.150000	1	0.062250
33.166667	1	0.063000
33.183333	1	0.064375
33.200000	1	0.066375
33.216667	1	0.068375
33.233333	1	0.070875
33.250000	1	0.073250
33.266667	1	0.076625
33.283333	1	0.080125
33.300000	1	0.084625
33.316667	1	0.089125
33.333333	1	0.093625
33.350000	1	0.099625
33.366667	1	0.106750
33.383333	1	0.114250
33.400000	1	0.123375
33.416667	1	0.132250
33.433333	1	0.142625
33.450000	1	0.154000
33.466667	1	0.166625
33.483333	1	0.180375
33.500000	1	0.195750
33.516667	1	0.211625
33.533333	1	0.229375
33.550000	1	0.248875
33.566667	1	0.269750
33.583333	1	0.292375
33.600000	1	0.317250
33.616667	1	0.343625
33.633333	1	0.371000
33.650000	1	0.400875
33.666667	1	0.432125
33.683333	1	0.464625
33.700000	1	0.499125
33.716667	1	0.534875
33.733333	1	0.571750
33.750000	1	0.610625
33.766667	1	0.650625
33.783333	1	0.691625
33.800000	1	0.732125
33.816667	1	0.772750
33.833333	1	0.813125
33.850000	1	0.853375
33.866667	1	0.893000
33.883333	1	0.930625
33.900000	1	0.966750
33.916667	1	1.000750
33.933333	1	1.032625
33.950000	1	1.061875
33.966667	1	1.087750
33.983333	1	1.110000
34.000000	1	1.128625
34.016667	1	1.143875
34.033333	1	1.154625
34.050000	1	1.161500
34.066667	1	1.164750
34.083333	1	1.163250
34.100000	1	1.157875
34.116667	1	1.147625
34.133333	1	1.133875
34.150000	1	1.116375
34.166667	1	1.096000
34.183333	1	1.072500
34.200000	1	1.045500
34.216667	1	1.016500
34.233333	1	0.985875
34.250000	1	0.952750
34.266667	1	0.918750
34.283333	1	0.882625
34.300000	1	0.846250
34.316667	1	0.809875
34.333333	1	0.773750
34.350000	1	0.737875
34.366667	1	0.701250
34.383333	1	0.665875
34.400000	1	0.631375
34.416667	1	0.597250
34.433333	1	0.564875
34.450000	1	0.534125
34.466667	1	0.505125
34.483333	1	0.476250
34.500000	1	0.450000
34.516667	1	0.424625
34.533333	1	0.401250
34.550000	1	0.379125
34.566667	1	0.358750
34.583333	1	0.339750
34.600000	1	0.322375
34.616667	1	0.305625
34.633333	1	0.290500
34.650000	1	0.276750
34.666667	1	0.263500
34.683333	1	0.251250
34.700000	1	0.240375
34.716667	1	0.230250
34.733333	1	0.221375
34.750000	1	0.212375
34.766667	1	0.205000
34.783333	1	0.197500
34.800000	1	0.190875
34.816667	1	0.184375
34.833333	1	0.178375
34.850000	1	0.172375
34.866667	1	0.167125
34.883333	1	0.162500
34.900000	1	0.158375
34.916667	1	0.154625
34.933333	1	0.150500
34.950000	1	0.147500
34.966667	1	0.143875
34.983333	1	0.140750
35.000000	1	0.137875
35.016667	1	0.135000
35.033333	1	0.132500
35.050000	1	0.130375
35.066667	1	0.127625
35.083333	1	0.125625
35.100000	1	0.123750
35.116667	1	0.122125
35.133333	1	0.120750
35.150000	1	0.119125
35.166667	1	0.117750
35.183333	1	0.116375
35.200000	1	0.114875
35.216667	1	0.113875
35.233333	1	0.112750
35.250000	1	0.111875
35.266667	1	0.111375
35.283333	1	0.111000
35.300000	1	0.110750
35.316667	1	0.110500
35.333333	1	0.111000
35.350000	1	0.110875
35.366667	1	0.111875
35.383333	1	0.112625
35.400000	1	0.113625
35.416667	1	0.113625
35.433333	1	0.114125
35.450000	1	0.115000
35.466667	1	0.115875
35.483333	1	0.117125
35.500000	1	0.117375
35.516667	1	0.118750
35.533333	1	0.120125
35.550000	1	0.121000
35.566667	1	0.122750
35.583333	1	0.124125
35.600000	1	0.125250
35.616667	1	0.126625
35.633333	1	0.128500
35.650000	1	0.130250
35.666667	1	0.131500
35.683333	1	0.133625
35.700000	1	0.134625
35.716667	1	0.135500
35.733333	1	0.136375
35.750000	1	0.137000
35.766667	1	0.138250
35.783333	1	0.139750
35.800000	1	0.140875
35.816667	1	0.141875
35.833333	1	0.142625
35.850000	1	0.143000
35.866667	1	0.142750
35.883333	1	0.143750
35.900000	1	0.144125
35.916667	1	0.144625
35.933333	1	0.145250
35.950000	1	0.145750
35.966667	1	0.146125
35.983333	1	0.146000
36.000000	1	0.146625
36.016667	1	0.147125
36.033333	1	0.146500
36.050000	1	0.146125
36.066667	1	0.146000
36.083333	1	0.146125
36.100000	1	0.146125
36.116667	1	0.146625
36.133333	1	0.147250
36.150000	1	0.147375
36.166667	1	0.148375
36.183333	1	0.149125
36.200000	1	0.150000
36.216667	1	0.150875
36.233333	1	0.151625
36.250000	1	0.152375
36.266667	1	0.153000
36.283333	1	0.153375
36.300000	1	0.154875
36.316667	1	0.155875
36.333333	1	0.156750
36.350000	1	0.157375
36.366667	1	0.158500
36.383333	1	0.159500
36.400000	1	0.159875
36.416667	1	0.160375
36.433333	1	0.161000
36.450000	1	0.160875
36.466667	1	0.161375
36.483333	1	0.161000
36.500000	1	0.160500
36.516667	1	0.160250
36.533333	1	0.159750
36.550000	1	0.158750
36.566667	1	0.158125
36.583333	1	0.156625
36.600000	1	0.155000
36.616667	1	0.153000
36.633333	1	0.150250
36.650000	1	0.147875
36.666667	1	0.144875
36.683333	1	0.143000
36.700000	1	0.140625
36.716667	1	0.138250
36.733333	1	0.135375
36.750000	1	0.132750
36.766667	1	0.129125
36.783333	1	0.125375
36.800000	1	0.122125
36.816667	1	0.118625
36.833333	1	0.115125
36.850000	1	0.111750
36.866667	1	0.108625
36.883333	1	0.105125
36.900000	1	0.102375
36.916667	1	0.099500
36.933333	1	0.096375
36.950000	1	0.094375
36.966667	1	0.091875
36.983333	1	0.089125
37.000000	1	0.086500
37.016667	1	0.084250
37.033333	1	0.082625
37.050000	1	0.080375
37.066667	1	0.079250
37.083333	1	0.077750
37.100000	1	0.076625
37.116667	1	0.075125
37.133333	1	0.074125
37.150000	1	0.073250
37.166667	1	0.072500
37.183333	1	0.071375
37.200000	1	0.070875
37.216667	1	0.070375
37.233333	1	0.070375
37.250000	1	0.069875
37.266667	1	0.069875
37.283333	1	0.070375
37.300000	1	0.070750
37.316667	1	0.070875
37.333333	1	0.070875
37.350000	1	0.071000
37.366667	1	0.071750
37.383333	1	0.072000
37.400000	1	0.071875
37.416667	1	0.072250
37.433333	1	0.072125
37.450000	1	0.072000
37.466667	1	0.072125
37.483333	1	0.072125
37.500000	1	0.071625
37.516667	1	0.071625
37.533333	1	0.071125
37.550000	1	0.070750
37.566667	1	0.070500
37.583333	1	0.070250
37.600000	1	0.069750
37.616667	1	0.069750
37.633333	1	0.069375
37.650000	1	0.068250
37.666667	1	0.067500
37.683333	1	0.067000
37.700000	1	0.066875
37.716667	1	0.066250
37.733333	1	0.065625
37.750000	1	0.064625
37.766667	1	0.063625
37.783333	1	0.062500
37.800000	1	0.061500
37.816667	1	0.061250
37.833333	1	0.060750
37.850000	1	0.060250
37.866667	1	0.059625
37.883333	1	0.059000
37.900000	1	0.059125
37.916667	1	0.058500
37.933333	1	0.058625
37.950000	1	0.058625
37.966667	1	0.058250
37.983333	1	0.058000
38.000000	1	0.057500
38.016667	1	0.058000
38.033333	1	0.058250
38.050000	1	0.058750
38.066667	1	0.058750
38.083333	1	0.058875
38.100000	1	0.059750
38.116667	1	0.060125
38.133333	1	0.061000
38.150000	1	0.061750
38.166667	1	0.062750
38.183333	1	0.063250
38.200000	1	0.063625
38.216667	1	0.064750
38.233333	1	0.064625
38.250000	1	0.065000
38.266667	1	0.065750
38.283333	1	0.065875
38.300000	1	0.066875
38.316667	1	0.067125
38.333333	1	0.067875
38.350000	1	0.068000
38.366667	1	0.068375
38.383333	1	0.068375
38.400000	1	0.068500
38.416667	1	0.068250
38.433333	1	0.068000
38.450000	1	0.069000
38.466667	1	0.069125
38.483333	1	0.069250
38.500000	1	0.069125
38.516667	1	0.068625
38.533333	1	0.068375
38.550000	1	0.068000
38.566667	1	0.067750
38.583333	1	0.067500
38.600000	1	0.066500
38.616667	1	0.066000
38.633333	1	0.065375
38.650000	1	0.064750
38.666667	1	0.063750
38.683333	1	0.063750
38.700000	1	0.063250
38.716667	1	0.062875
38.733333	1	0.062500
38.750000	1	0.061500
38.766667	1	0.060750
38.783333	1	0.060125
38.800000	1	0.058875
38.816667	1	0.057875
38.833333	1	0.057250
38.850000	1	0.057375
38.866667	1	0.057125
38.883333	1	0.056000
38.900000	1	0.055625
38.916667	1	0.055125
38.933333	1	0.054750
38.950000	1	0.054375
38.966667	1	0.054000
38.983333	1	0.053125
39.000000	1	0.052375
39.016667	1	0.051625
39.033333	1	0.051000
39.050000	1	0.050750
39.066667	1	0.050750
39.083333	1	0.050625
39.100000	1	0.050250
39.116667	1	0.049750
39.133333	1	0.048750
39.150000	1	0.048250
39.166667	1	0.047250
39.183333	1	0.046750
39.200000	1	0.046500
39.216667	1	0.045500
39.233333	1	0.045000
39.250000	1	0.044750
39.266667	1	0.044250
39.283333	1	0.044500
39.300000	1	0.043875
39.316667	1	0.043375
39.333333	1	0.043000
39.350000	1	0.042375
39.366667	1	0.041500
39.383333	1	0.041375
39.400000	1	0.040750
39.416667	1	0.040250
39.433333	1	0.039625
39.450000	1	0.038750
39.466667	1	0.038625
39.483333	1	0.038500
39.500000	1	0.038375
39.516667	1	0.037750
39.533333	1	0.037375
39.550000	1	0.036875
39.566667	1	0.036500
39.583333	1	0.036625
39.600000	1	0.035750
39.616667	1	0.035250
39.633333	1	0.034875
39.650000	1	0.034500
39.666667	1	0.034125
39.683333	1	0.033875
39.700000	1	0.033125
39.716667	1	0.032750
39.733333	1	0.032875
39.750000	1	0.032500
39.766667	1	0.031750
39.783333	1	0.031875
39.800000	1	0.031375
39.816667	1	0.030750
39.833333	1	0.031125
39.850000	1	0.031750
39.866667	1	0.031875
39.883333	1	0.032750
39.900000	1	0.032750
39.916667	1	0.032875
39.933333	1	0.033625
39.950000	1	0.033375
39.966667	1	0.034250
39.983333	1	0.035000
40.000000	1	0.035500
