URL	chrom://bioreactor/micro_cm7/HPLC_Ultimate_3000/Users/markusar/20240708_MA_pHrange1.seq/935.smp/RI_1.channel/RI_1.chm
Channel	RI_1

Injection Information:
Data Vault	micro_cm7
Sequence	20240708_MA_pHrange1
Name	Fp1_5.7_4
Number	62
Position	BF4
Comment	
Processing Method	
Instrument Method	run_25B_method
Type	Unknown
Status	Finished
Inject Time	10.07.2024 09:13:49 +02:00
Volume (µl)	20.0000
Dilution Factor	1.0000
Weight	1.0000

Chromatogram Data Information:
Time Min. (min)	0.000000
Time Max. (min)	40.000000
Data Points	2401
Detector	RI
Generating Data System	Chromeleon 7.3.2.11814
Exporting Data System	Chromeleon 7.3.2.0
Operator	Instrument Controller
Signal Quantity	Refractive 
Signal Unit	µRIU
Signal Min.	-0.065250
Signal Max.	80.755375
Channel	RI_1
Driver Name	RID520Driver.dll
Channel Type	Evaluation
Min. Step (s)	1
Max. Step (s)	1
Average Step (s)	1

Signal Parameter Information:
Signal Info	

Chromatogram Data:
Time (min)	Step (s)	Value (µRIU)
0.000000	n.a.	0.034125
0.016667	1	0.032375
0.033333	1	0.031125
0.050000	1	0.029625
0.066667	1	0.028875
0.083333	1	0.028125
0.100000	1	0.026500
0.116667	1	0.026000
0.133333	1	0.025250
0.150000	1	0.024125
0.166667	1	0.023125
0.183333	1	0.022625
0.200000	1	0.021875
0.216667	1	0.021375
0.233333	1	0.020875
0.250000	1	0.020125
0.266667	1	0.019750
0.283333	1	0.019625
0.300000	1	0.019000
0.316667	1	0.018875
0.333333	1	0.018875
0.350000	1	0.018500
0.366667	1	0.018375
0.383333	1	0.016875
0.400000	1	0.017000
0.416667	1	0.017250
0.433333	1	0.018750
0.450000	1	0.020500
0.466667	1	0.021875
0.483333	1	0.023750
0.500000	1	0.025000
0.516667	1	0.026250
0.533333	1	0.027375
0.550000	1	0.028000
0.566667	1	0.026500
0.583333	1	0.024875
0.600000	1	0.024000
0.616667	1	0.023000
0.633333	1	0.022500
0.650000	1	0.022750
0.666667	1	0.022500
0.683333	1	0.023125
0.700000	1	0.023875
0.716667	1	0.024875
0.733333	1	0.026125
0.750000	1	0.027000
0.766667	1	0.027875
0.783333	1	0.028750
0.800000	1	0.028875
0.816667	1	0.030000
0.833333	1	0.031375
0.850000	1	0.032000
0.866667	1	0.032625
0.883333	1	0.033500
0.900000	1	0.033875
0.916667	1	0.034250
0.933333	1	0.035250
0.950000	1	0.035375
0.966667	1	0.035875
0.983333	1	0.036250
1.000000	1	0.036500
1.016667	1	0.036500
1.033333	1	0.036500
1.050000	1	0.036875
1.066667	1	0.037500
1.083333	1	0.037125
1.100000	1	0.036875
1.116667	1	0.035625
1.133333	1	0.035750
1.150000	1	0.035250
1.166667	1	0.034250
1.183333	1	0.033625
1.200000	1	0.033375
1.216667	1	0.032625
1.233333	1	0.032750
1.250000	1	0.032250
1.266667	1	0.032000
1.283333	1	0.030625
1.300000	1	0.029625
1.316667	1	0.029000
1.333333	1	0.028125
1.350000	1	0.027375
1.366667	1	0.026000
1.383333	1	0.025375
1.400000	1	0.024875
1.416667	1	0.023750
1.433333	1	0.022875
1.450000	1	0.021625
1.466667	1	0.021250
1.483333	1	0.021125
1.500000	1	0.020875
1.516667	1	0.019875
1.533333	1	0.019000
1.550000	1	0.018125
1.566667	1	0.017000
1.583333	1	0.015875
1.600000	1	0.015375
1.616667	1	0.014750
1.633333	1	0.013500
1.650000	1	0.011875
1.666667	1	0.011375
1.683333	1	0.010125
1.700000	1	0.009125
1.716667	1	0.007625
1.733333	1	0.005500
1.750000	1	0.004500
1.766667	1	0.003375
1.783333	1	0.002125
1.800000	1	0.001000
1.816667	1	-0.000750
1.833333	1	-0.002125
1.850000	1	-0.002750
1.866667	1	-0.003625
1.883333	1	-0.004625
1.900000	1	-0.006000
1.916667	1	-0.006875
1.933333	1	-0.007875
1.950000	1	-0.008625
1.966667	1	-0.008875
1.983333	1	-0.009500
2.000000	1	-0.010125
2.016667	1	-0.010875
2.033333	1	-0.010250
2.050000	1	-0.010625
2.066667	1	-0.011000
2.083333	1	-0.011250
2.100000	1	-0.011250
2.116667	1	-0.011375
2.133333	1	-0.011500
2.150000	1	-0.010875
2.166667	1	-0.010375
2.183333	1	-0.010250
2.200000	1	-0.009750
2.216667	1	-0.008625
2.233333	1	-0.007500
2.250000	1	-0.006625
2.266667	1	-0.006000
2.283333	1	-0.006125
2.300000	1	-0.005250
2.316667	1	-0.005125
2.333333	1	-0.005125
2.350000	1	-0.004500
2.366667	1	-0.004125
2.383333	1	-0.003375
2.400000	1	-0.002750
2.416667	1	-0.002125
2.433333	1	-0.001125
2.450000	1	-0.000875
2.466667	1	-0.000625
2.483333	1	-0.000125
2.500000	1	0.000375
2.516667	1	0.000750
2.533333	1	0.001500
2.550000	1	0.001875
2.566667	1	0.002500
2.583333	1	0.002250
2.600000	1	0.003375
2.616667	1	0.003750
2.633333	1	0.004875
2.650000	1	0.005750
2.666667	1	0.006375
2.683333	1	0.007000
2.700000	1	0.008000
2.716667	1	0.008250
2.733333	1	0.008625
2.750000	1	0.009750
2.766667	1	0.010625
2.783333	1	0.011750
2.800000	1	0.012625
2.816667	1	0.013625
2.833333	1	0.014250
2.850000	1	0.015000
2.866667	1	0.016375
2.883333	1	0.017625
2.900000	1	0.018250
2.916667	1	0.019625
2.933333	1	0.021000
2.950000	1	0.022125
2.966667	1	0.022750
2.983333	1	0.024125
3.000000	1	0.025625
3.016667	1	0.026750
3.033333	1	0.028125
3.050000	1	0.029500
3.066667	1	0.030750
3.083333	1	0.032250
3.100000	1	0.032875
3.116667	1	0.034125
3.133333	1	0.035000
3.150000	1	0.036250
3.166667	1	0.037750
3.183333	1	0.038625
3.200000	1	0.039375
3.216667	1	0.040000
3.233333	1	0.041125
3.250000	1	0.041750
3.266667	1	0.042125
3.283333	1	0.042750
3.300000	1	0.043625
3.316667	1	0.044375
3.333333	1	0.045625
3.350000	1	0.045875
3.366667	1	0.046250
3.383333	1	0.046875
3.400000	1	0.047500
3.416667	1	0.048125
3.433333	1	0.048375
3.450000	1	0.049000
3.466667	1	0.050375
3.483333	1	0.051125
3.500000	1	0.051875
3.516667	1	0.052625
3.533333	1	0.053250
3.550000	1	0.053750
3.566667	1	0.053875
3.583333	1	0.054750
3.600000	1	0.055500
3.616667	1	0.056500
3.633333	1	0.057375
3.650000	1	0.057875
3.666667	1	0.058375
3.683333	1	0.059000
3.700000	1	0.059625
3.716667	1	0.060000
3.733333	1	0.060875
3.750000	1	0.061625
3.766667	1	0.062375
3.783333	1	0.062500
3.800000	1	0.063125
3.816667	1	0.062875
3.833333	1	0.063250
3.850000	1	0.062625
3.866667	1	0.062750
3.883333	1	0.062750
3.900000	1	0.062750
3.916667	1	0.062500
3.933333	1	0.062375
3.950000	1	0.062250
3.966667	1	0.063125
3.983333	1	0.063250
4.000000	1	0.063750
4.016667	1	0.064500
4.033333	1	0.065125
4.050000	1	0.065250
4.066667	1	0.065125
4.083333	1	0.065625
4.100000	1	0.066375
4.116667	1	0.066625
4.133333	1	0.067000
4.150000	1	0.067625
4.166667	1	0.069125
4.183333	1	0.069750
4.200000	1	0.070375
4.216667	1	0.071625
4.233333	1	0.073250
4.250000	1	0.074125
4.266667	1	0.075625
4.283333	1	0.077250
4.300000	1	0.078375
4.316667	1	0.079875
4.333333	1	0.080625
4.350000	1	0.082375
4.366667	1	0.083750
4.383333	1	0.085375
4.400000	1	0.086875
4.416667	1	0.088250
4.433333	1	0.089875
4.450000	1	0.091625
4.466667	1	0.093250
4.483333	1	0.094250
4.500000	1	0.095625
4.516667	1	0.097000
4.533333	1	0.097625
4.550000	1	0.098625
4.566667	1	0.099125
4.583333	1	0.100625
4.600000	1	0.102250
4.616667	1	0.103250
4.633333	1	0.104750
4.650000	1	0.105750
4.666667	1	0.107625
4.683333	1	0.108375
4.700000	1	0.110000
4.716667	1	0.110500
4.733333	1	0.111750
4.750000	1	0.113250
4.766667	1	0.114750
4.783333	1	0.116250
4.800000	1	0.118375
4.816667	1	0.121000
4.833333	1	0.122250
4.850000	1	0.123625
4.866667	1	0.125500
4.883333	1	0.127875
4.900000	1	0.129250
4.916667	1	0.131125
4.933333	1	0.132625
4.950000	1	0.134625
4.966667	1	0.136875
4.983333	1	0.138750
5.000000	1	0.140625
5.016667	1	0.142500
5.033333	1	0.144750
5.050000	1	0.146250
5.066667	1	0.148125
5.083333	1	0.150250
5.100000	1	0.151375
5.116667	1	0.153375
5.133333	1	0.155250
5.150000	1	0.157250
5.166667	1	0.159000
5.183333	1	0.160500
5.200000	1	0.162000
5.216667	1	0.163500
5.233333	1	0.165375
5.250000	1	0.166750
5.266667	1	0.168250
5.283333	1	0.169750
5.300000	1	0.172250
5.316667	1	0.173875
5.333333	1	0.175500
5.350000	1	0.177250
5.366667	1	0.178750
5.383333	1	0.180000
5.400000	1	0.181625
5.416667	1	0.182750
5.433333	1	0.184375
5.450000	1	0.184750
5.466667	1	0.186000
5.483333	1	0.187250
5.500000	1	0.188125
5.516667	1	0.189000
5.533333	1	0.189500
5.550000	1	0.190250
5.566667	1	0.191125
5.583333	1	0.191625
5.600000	1	0.191125
5.616667	1	0.191125
5.633333	1	0.191125
5.650000	1	0.190625
5.666667	1	0.189750
5.683333	1	0.189125
5.700000	1	0.187500
5.716667	1	0.186625
5.733333	1	0.185375
5.750000	1	0.184250
5.766667	1	0.182250
5.783333	1	0.180500
5.800000	1	0.178625
5.816667	1	0.176500
5.833333	1	0.173625
5.850000	1	0.171000
5.866667	1	0.168750
5.883333	1	0.166500
5.900000	1	0.162875
5.916667	1	0.160125
5.933333	1	0.157375
5.950000	1	0.154250
5.966667	1	0.150875
5.983333	1	0.148000
6.000000	1	0.144625
6.016667	1	0.140875
6.033333	1	0.136875
6.050000	1	0.133500
6.066667	1	0.129875
6.083333	1	0.126125
6.100000	1	0.122750
6.116667	1	0.118875
6.133333	1	0.115625
6.150000	1	0.111875
6.166667	1	0.108625
6.183333	1	0.105750
6.200000	1	0.101875
6.216667	1	0.098500
6.233333	1	0.095125
6.250000	1	0.092375
6.266667	1	0.089500
6.283333	1	0.086500
6.300000	1	0.084250
6.316667	1	0.082125
6.333333	1	0.079875
6.350000	1	0.078125
6.366667	1	0.076750
6.383333	1	0.075375
6.400000	1	0.073125
6.416667	1	0.071375
6.433333	1	0.070125
6.450000	1	0.069500
6.466667	1	0.068750
6.483333	1	0.067625
6.500000	1	0.066500
6.516667	1	0.065875
6.533333	1	0.065375
6.550000	1	0.064750
6.566667	1	0.064875
6.583333	1	0.065250
6.600000	1	0.065500
6.616667	1	0.065500
6.633333	1	0.064625
6.650000	1	0.063750
6.666667	1	0.063500
6.683333	1	0.063250
6.700000	1	0.063625
6.716667	1	0.063750
6.733333	1	0.064375
6.750000	1	0.064750
6.766667	1	0.064875
6.783333	1	0.064750
6.800000	1	0.065375
6.816667	1	0.065625
6.833333	1	0.065750
6.850000	1	0.066250
6.866667	1	0.067000
6.883333	1	0.067875
6.900000	1	0.068375
6.916667	1	0.069750
6.933333	1	0.070500
6.950000	1	0.071125
6.966667	1	0.072500
6.983333	1	0.073375
7.000000	1	0.074750
7.016667	1	0.076375
7.033333	1	0.077625
7.050000	1	0.078750
7.066667	1	0.080000
7.083333	1	0.081750
7.100000	1	0.083625
7.116667	1	0.085125
7.133333	1	0.086500
7.150000	1	0.087625
7.166667	1	0.088875
7.183333	1	0.090625
7.200000	1	0.091250
7.216667	1	0.092625
7.233333	1	0.093250
7.250000	1	0.094250
7.266667	1	0.094625
7.283333	1	0.095125
7.300000	1	0.094750
7.316667	1	0.094625
7.333333	1	0.094125
7.350000	1	0.093625
7.366667	1	0.093500
7.383333	1	0.093000
7.400000	1	0.091875
7.416667	1	0.090375
7.433333	1	0.088750
7.450000	1	0.087250
7.466667	1	0.084625
7.483333	1	0.082000
7.500000	1	0.079000
7.516667	1	0.076750
7.533333	1	0.074875
7.550000	1	0.072625
7.566667	1	0.069750
7.583333	1	0.066875
7.600000	1	0.064125
7.616667	1	0.061500
7.633333	1	0.058875
7.650000	1	0.055375
7.666667	1	0.051875
7.683333	1	0.049000
7.700000	1	0.045750
7.716667	1	0.042375
7.733333	1	0.039875
7.750000	1	0.037250
7.766667	1	0.034000
7.783333	1	0.031500
7.800000	1	0.028625
7.816667	1	0.026250
7.833333	1	0.023875
7.850000	1	0.021125
7.866667	1	0.017875
7.883333	1	0.015500
7.900000	1	0.013125
7.916667	1	0.010750
7.933333	1	0.008000
7.950000	1	0.005375
7.966667	1	0.002750
7.983333	1	0.001000
8.000000	1	-0.001125
8.016667	1	-0.002750
8.033333	1	-0.004375
8.050000	1	-0.006000
8.066667	1	-0.007500
8.083333	1	-0.009250
8.100000	1	-0.010875
8.116667	1	-0.012125
8.133333	1	-0.013500
8.150000	1	-0.014250
8.166667	1	-0.015500
8.183333	1	-0.016125
8.200000	1	-0.017125
8.216667	1	-0.017750
8.233333	1	-0.018875
8.250000	1	-0.019000
8.266667	1	-0.019000
8.283333	1	-0.019250
8.300000	1	-0.019625
8.316667	1	-0.019125
8.333333	1	-0.019375
8.350000	1	-0.018875
8.366667	1	-0.018625
8.383333	1	-0.018000
8.400000	1	-0.017625
8.416667	1	-0.017000
8.433333	1	-0.016875
8.450000	1	-0.017375
8.466667	1	-0.017250
8.483333	1	-0.016875
8.500000	1	-0.016625
8.516667	1	-0.016625
8.533333	1	-0.015875
8.550000	1	-0.015375
8.566667	1	-0.015250
8.583333	1	-0.014625
8.600000	1	-0.014250
8.616667	1	-0.014000
8.633333	1	-0.013875
8.650000	1	-0.013125
8.666667	1	-0.013375
8.683333	1	-0.013125
8.700000	1	-0.012625
8.716667	1	-0.012250
8.733333	1	-0.011750
8.750000	1	-0.010750
8.766667	1	-0.010375
8.783333	1	-0.009875
8.800000	1	-0.009000
8.816667	1	-0.008750
8.833333	1	-0.008125
8.850000	1	-0.008125
8.866667	1	-0.007750
8.883333	1	-0.008000
8.900000	1	-0.007500
8.916667	1	-0.007250
8.933333	1	-0.007125
8.950000	1	-0.006500
8.966667	1	-0.006375
8.983333	1	-0.006750
9.000000	1	-0.006875
9.016667	1	-0.007500
9.033333	1	-0.007500
9.050000	1	-0.008000
9.066667	1	-0.008125
9.083333	1	-0.009000
9.100000	1	-0.009250
9.116667	1	-0.010000
9.133333	1	-0.010750
9.150000	1	-0.011000
9.166667	1	-0.011875
9.183333	1	-0.013000
9.200000	1	-0.013375
9.216667	1	-0.014125
9.233333	1	-0.015625
9.250000	1	-0.016500
9.266667	1	-0.018000
9.283333	1	-0.018875
9.300000	1	-0.019000
9.316667	1	-0.019625
9.333333	1	-0.020125
9.350000	1	-0.020375
9.366667	1	-0.021750
9.383333	1	-0.022375
9.400000	1	-0.023375
9.416667	1	-0.024250
9.433333	1	-0.024250
9.450000	1	-0.024875
9.466667	1	-0.025500
9.483333	1	-0.025750
9.500000	1	-0.026250
9.516667	1	-0.026625
9.533333	1	-0.026625
9.550000	1	-0.027250
9.566667	1	-0.027625
9.583333	1	-0.028125
9.600000	1	-0.029375
9.616667	1	-0.029875
9.633333	1	-0.030625
9.650000	1	-0.030625
9.666667	1	-0.031750
9.683333	1	-0.032375
9.700000	1	-0.032750
9.716667	1	-0.033500
9.733333	1	-0.034125
9.750000	1	-0.034250
9.766667	1	-0.035250
9.783333	1	-0.036375
9.800000	1	-0.037500
9.816667	1	-0.038250
9.833333	1	-0.039500
9.850000	1	-0.040750
9.866667	1	-0.042500
9.883333	1	-0.043875
9.900000	1	-0.045875
9.916667	1	-0.046750
9.933333	1	-0.047375
9.950000	1	-0.049375
9.966667	1	-0.051000
9.983333	1	-0.053125
10.000000	1	-0.055375
10.016667	1	-0.057375
10.033333	1	-0.059625
10.050000	1	-0.061375
10.066667	1	-0.063125
10.083333	1	-0.064625
10.100000	1	-0.065250
10.116667	1	-0.064750
10.133333	1	-0.063625
10.150000	1	-0.061625
10.166667	1	-0.058125
10.183333	1	-0.052875
10.200000	1	-0.046750
10.216667	1	-0.038250
10.233333	1	-0.028250
10.250000	1	-0.015375
10.266667	1	-0.000500
10.283333	1	0.016750
10.300000	1	0.036750
10.316667	1	0.059375
10.333333	1	0.084250
10.350000	1	0.110375
10.366667	1	0.137750
10.383333	1	0.162875
10.400000	1	0.185000
10.416667	1	0.201625
10.433333	1	0.210625
10.450000	1	0.212500
10.466667	1	0.210250
10.483333	1	0.211500
10.500000	1	0.231375
10.516667	1	0.290625
10.533333	1	0.420125
10.550000	1	0.659000
10.566667	1	1.056250
10.583333	1	1.666000
10.600000	1	2.545125
10.616667	1	3.744750
10.633333	1	5.308500
10.650000	1	7.265000
10.666667	1	9.632875
10.683333	1	12.415875
10.700000	1	15.599625
10.716667	1	19.153250
10.733333	1	23.025625
10.750000	1	27.141500
10.766667	1	31.391750
10.783333	1	35.636375
10.800000	1	39.682375
10.816667	1	43.280250
10.833333	1	46.126125
10.850000	1	47.901625
10.866667	1	48.334875
10.883333	1	47.269875
10.900000	1	44.744625
10.916667	1	41.003875
10.933333	1	36.444875
10.950000	1	31.519375
10.966667	1	26.630500
10.983333	1	22.073875
11.000000	1	18.025375
11.016667	1	14.560250
11.033333	1	11.685000
11.050000	1	9.354625
11.066667	1	7.501500
11.083333	1	6.050500
11.100000	1	4.927375
11.116667	1	4.064625
11.133333	1	3.404750
11.150000	1	2.901000
11.166667	1	2.517500
11.183333	1	2.224375
11.200000	1	2.000750
11.216667	1	1.829875
11.233333	1	1.698000
11.250000	1	1.596500
11.266667	1	1.515250
11.283333	1	1.450250
11.300000	1	1.395250
11.316667	1	1.346875
11.333333	1	1.302125
11.350000	1	1.259750
11.366667	1	1.218625
11.383333	1	1.179000
11.400000	1	1.140250
11.416667	1	1.104250
11.433333	1	1.069375
11.450000	1	1.036750
11.466667	1	1.007750
11.483333	1	0.982250
11.500000	1	0.961500
11.516667	1	0.944250
11.533333	1	0.931625
11.550000	1	0.923750
11.566667	1	0.919625
11.583333	1	0.920375
11.600000	1	0.925375
11.616667	1	0.935500
11.633333	1	0.949875
11.650000	1	0.967875
11.666667	1	0.990000
11.683333	1	1.015625
11.700000	1	1.043125
11.716667	1	1.071375
11.733333	1	1.099750
11.750000	1	1.126750
11.766667	1	1.150500
11.783333	1	1.169500
11.800000	1	1.183250
11.816667	1	1.191000
11.833333	1	1.192750
11.850000	1	1.190125
11.866667	1	1.182750
11.883333	1	1.170875
11.900000	1	1.156250
11.916667	1	1.139250
11.933333	1	1.121250
11.950000	1	1.102875
11.966667	1	1.085750
11.983333	1	1.070500
12.000000	1	1.055625
12.016667	1	1.043125
12.033333	1	1.032500
12.050000	1	1.023625
12.066667	1	1.016875
12.083333	1	1.011125
12.100000	1	1.007375
12.116667	1	1.005625
12.133333	1	1.005625
12.150000	1	1.006375
12.166667	1	1.009000
12.183333	1	1.012250
12.200000	1	1.017875
12.216667	1	1.026375
12.233333	1	1.037875
12.250000	1	1.054375
12.266667	1	1.076625
12.283333	1	1.107500
12.300000	1	1.149750
12.316667	1	1.207375
12.333333	1	1.285000
12.350000	1	1.390250
12.366667	1	1.532000
12.383333	1	1.722875
12.400000	1	1.977750
12.416667	1	2.317375
12.433333	1	2.767625
12.450000	1	3.363125
12.466667	1	4.145875
12.483333	1	5.170125
12.500000	1	6.496125
12.516667	1	8.195000
12.533333	1	10.341750
12.550000	1	13.010125
12.566667	1	16.266125
12.583333	1	20.155375
12.600000	1	24.689875
12.616667	1	29.833500
12.633333	1	35.511125
12.650000	1	41.590875
12.666667	1	47.882750
12.683333	1	54.145625
12.700000	1	60.099625
12.716667	1	65.457125
12.733333	1	69.942375
12.750000	1	73.332125
12.766667	1	75.469625
12.783333	1	76.282875
12.800000	1	75.790500
12.816667	1	74.100375
12.833333	1	71.385000
12.850000	1	67.867000
12.866667	1	63.797000
12.883333	1	59.427875
12.900000	1	54.998250
12.916667	1	50.709625
12.933333	1	46.722000
12.950000	1	43.144500
12.966667	1	40.039750
12.983333	1	37.432250
13.000000	1	35.317375
13.016667	1	33.667375
13.033333	1	32.441875
13.050000	1	31.592875
13.066667	1	31.071625
13.083333	1	30.832500
13.100000	1	30.831625
13.116667	1	31.030750
13.133333	1	31.396000
13.150000	1	31.898625
13.166667	1	32.514625
13.183333	1	33.225375
13.200000	1	34.014250
13.216667	1	34.868500
13.233333	1	35.777500
13.250000	1	36.736500
13.266667	1	37.739625
13.283333	1	38.781875
13.300000	1	39.858875
13.316667	1	40.968750
13.333333	1	42.109625
13.350000	1	43.279875
13.366667	1	44.478625
13.383333	1	45.705500
13.400000	1	46.960125
13.416667	1	48.242250
13.433333	1	49.553500
13.450000	1	50.895750
13.466667	1	52.268500
13.483333	1	53.672375
13.500000	1	55.107125
13.516667	1	56.572875
13.533333	1	58.068125
13.550000	1	59.594000
13.566667	1	61.151875
13.583333	1	62.741000
13.600000	1	64.361250
13.616667	1	66.013750
13.633333	1	67.701750
13.650000	1	69.425125
13.666667	1	71.186375
13.683333	1	72.981625
13.700000	1	74.797250
13.716667	1	76.588000
13.733333	1	78.251875
13.750000	1	79.628125
13.766667	1	80.523625
13.783333	1	80.755375
13.800000	1	80.179625
13.816667	1	78.675750
13.833333	1	76.113750
13.850000	1	72.331625
13.866667	1	67.188375
13.883333	1	60.696750
13.900000	1	53.161250
13.916667	1	45.182875
13.933333	1	37.438125
13.950000	1	30.465500
13.966667	1	24.544500
13.983333	1	19.718750
14.000000	1	15.886625
14.016667	1	12.890125
14.033333	1	10.576500
14.050000	1	8.812250
14.066667	1	7.483000
14.083333	1	6.492125
14.100000	1	5.756000
14.116667	1	5.207750
14.133333	1	4.796625
14.150000	1	4.483250
14.166667	1	4.239250
14.183333	1	4.045250
14.200000	1	3.886875
14.216667	1	3.754750
14.233333	1	3.642250
14.250000	1	3.543750
14.266667	1	3.457000
14.283333	1	3.379125
14.300000	1	3.309000
14.316667	1	3.244125
14.333333	1	3.184875
14.350000	1	3.129000
14.366667	1	3.078875
14.383333	1	3.031625
14.400000	1	2.988250
14.416667	1	2.948250
14.433333	1	2.911500
14.450000	1	2.876750
14.466667	1	2.844500
14.483333	1	2.815000
14.500000	1	2.786375
14.516667	1	2.760375
14.533333	1	2.735000
14.550000	1	2.712000
14.566667	1	2.689500
14.583333	1	2.667000
14.600000	1	2.645500
14.616667	1	2.625250
14.633333	1	2.605125
14.650000	1	2.586375
14.666667	1	2.568500
14.683333	1	2.553125
14.700000	1	2.539875
14.716667	1	2.529250
14.733333	1	2.521000
14.750000	1	2.515375
14.766667	1	2.512250
14.783333	1	2.511375
14.800000	1	2.510875
14.816667	1	2.511375
14.833333	1	2.511125
14.850000	1	2.508000
14.866667	1	2.501500
14.883333	1	2.489750
14.900000	1	2.473125
14.916667	1	2.449375
14.933333	1	2.419500
14.950000	1	2.383625
14.966667	1	2.341125
14.983333	1	2.295375
15.000000	1	2.246625
15.016667	1	2.195375
15.033333	1	2.143000
15.050000	1	2.091125
15.066667	1	2.040875
15.083333	1	1.992125
15.100000	1	1.946625
15.116667	1	1.904500
15.133333	1	1.865125
15.150000	1	1.829875
15.166667	1	1.798500
15.183333	1	1.770125
15.200000	1	1.745250
15.216667	1	1.723875
15.233333	1	1.705625
15.250000	1	1.689625
15.266667	1	1.677125
15.283333	1	1.667125
15.300000	1	1.661375
15.316667	1	1.659750
15.333333	1	1.661375
15.350000	1	1.668125
15.366667	1	1.678375
15.383333	1	1.694250
15.400000	1	1.715000
15.416667	1	1.740500
15.433333	1	1.770375
15.450000	1	1.802750
15.466667	1	1.836250
15.483333	1	1.868500
15.500000	1	1.899250
15.516667	1	1.925500
15.533333	1	1.945875
15.550000	1	1.958875
15.566667	1	1.963500
15.583333	1	1.959125
15.600000	1	1.946750
15.616667	1	1.925375
15.633333	1	1.897375
15.650000	1	1.862625
15.666667	1	1.823875
15.683333	1	1.783125
15.700000	1	1.740875
15.716667	1	1.698500
15.733333	1	1.657625
15.750000	1	1.617750
15.766667	1	1.579875
15.783333	1	1.543625
15.800000	1	1.509500
15.816667	1	1.476625
15.833333	1	1.445250
15.850000	1	1.415250
15.866667	1	1.386750
15.883333	1	1.359625
15.900000	1	1.334000
15.916667	1	1.309375
15.933333	1	1.286875
15.950000	1	1.266250
15.966667	1	1.246625
15.983333	1	1.229625
16.000000	1	1.214875
16.016667	1	1.203625
16.033333	1	1.193750
16.050000	1	1.186125
16.066667	1	1.180625
16.083333	1	1.177000
16.100000	1	1.174125
16.116667	1	1.172500
16.133333	1	1.172750
16.150000	1	1.173625
16.166667	1	1.174250
16.183333	1	1.176125
16.200000	1	1.176750
16.216667	1	1.177625
16.233333	1	1.177750
16.250000	1	1.177875
16.266667	1	1.176875
16.283333	1	1.175125
16.300000	1	1.172500
16.316667	1	1.169250
16.333333	1	1.165250
16.350000	1	1.160000
16.366667	1	1.154375
16.383333	1	1.149000
16.400000	1	1.143625
16.416667	1	1.138750
16.433333	1	1.133875
16.450000	1	1.129875
16.466667	1	1.126875
16.483333	1	1.126500
16.500000	1	1.127375
16.516667	1	1.129750
16.533333	1	1.133125
16.550000	1	1.138875
16.566667	1	1.145750
16.583333	1	1.153625
16.600000	1	1.161375
16.616667	1	1.169250
16.633333	1	1.176000
16.650000	1	1.182375
16.666667	1	1.187875
16.683333	1	1.192000
16.700000	1	1.195250
16.716667	1	1.197250
16.733333	1	1.198250
16.750000	1	1.199500
16.766667	1	1.199750
16.783333	1	1.200750
16.800000	1	1.201375
16.816667	1	1.203000
16.833333	1	1.205250
16.850000	1	1.208250
16.866667	1	1.210750
16.883333	1	1.213875
16.900000	1	1.217250
16.916667	1	1.219875
16.933333	1	1.222500
16.950000	1	1.223750
16.966667	1	1.224375
16.983333	1	1.223625
17.000000	1	1.221750
17.016667	1	1.218875
17.033333	1	1.215875
17.050000	1	1.211625
17.066667	1	1.207250
17.083333	1	1.202750
17.100000	1	1.198750
17.116667	1	1.195125
17.133333	1	1.191750
17.150000	1	1.189625
17.166667	1	1.189375
17.183333	1	1.190000
17.200000	1	1.191750
17.216667	1	1.194750
17.233333	1	1.199500
17.250000	1	1.205375
17.266667	1	1.212375
17.283333	1	1.220250
17.300000	1	1.228750
17.316667	1	1.238625
17.333333	1	1.248375
17.350000	1	1.259125
17.366667	1	1.268750
17.383333	1	1.277500
17.400000	1	1.285500
17.416667	1	1.292750
17.433333	1	1.298000
17.450000	1	1.300375
17.466667	1	1.301500
17.483333	1	1.300625
17.500000	1	1.297250
17.516667	1	1.292000
17.533333	1	1.284375
17.550000	1	1.274375
17.566667	1	1.262500
17.583333	1	1.250000
17.600000	1	1.234375
17.616667	1	1.217750
17.633333	1	1.200500
17.650000	1	1.183125
17.666667	1	1.164750
17.683333	1	1.146875
17.700000	1	1.127750
17.716667	1	1.109750
17.733333	1	1.092125
17.750000	1	1.074375
17.766667	1	1.057875
17.783333	1	1.042125
17.800000	1	1.026250
17.816667	1	1.010625
17.833333	1	0.995750
17.850000	1	0.981625
17.866667	1	0.968000
17.883333	1	0.954625
17.900000	1	0.942250
17.916667	1	0.929625
17.933333	1	0.917875
17.950000	1	0.906500
17.966667	1	0.896000
17.983333	1	0.885500
18.000000	1	0.875125
18.016667	1	0.864625
18.033333	1	0.854500
18.050000	1	0.845125
18.066667	1	0.835500
18.083333	1	0.826250
18.100000	1	0.816625
18.116667	1	0.808125
18.133333	1	0.799750
18.150000	1	0.791750
18.166667	1	0.784000
18.183333	1	0.777125
18.200000	1	0.771375
18.216667	1	0.766375
18.233333	1	0.762375
18.250000	1	0.758625
18.266667	1	0.755375
18.283333	1	0.753125
18.300000	1	0.751500
18.316667	1	0.750875
18.333333	1	0.750875
18.350000	1	0.751250
18.366667	1	0.750875
18.383333	1	0.751875
18.400000	1	0.753000
18.416667	1	0.755375
18.433333	1	0.758375
18.450000	1	0.762250
18.466667	1	0.766875
18.483333	1	0.772250
18.500000	1	0.780000
18.516667	1	0.789000
18.533333	1	0.800500
18.550000	1	0.813000
18.566667	1	0.827750
18.583333	1	0.845125
18.600000	1	0.865000
18.616667	1	0.885625
18.633333	1	0.908750
18.650000	1	0.933125
18.666667	1	0.960000
18.683333	1	0.989750
18.700000	1	1.019625
18.716667	1	1.051625
18.733333	1	1.085625
18.750000	1	1.120250
18.766667	1	1.154750
18.783333	1	1.189750
18.800000	1	1.225000
18.816667	1	1.259375
18.833333	1	1.292500
18.850000	1	1.323625
18.866667	1	1.351375
18.883333	1	1.375375
18.900000	1	1.395375
18.916667	1	1.410875
18.933333	1	1.420250
18.950000	1	1.424000
18.966667	1	1.420750
18.983333	1	1.410625
19.000000	1	1.393625
19.016667	1	1.369375
19.033333	1	1.339375
19.050000	1	1.303750
19.066667	1	1.264000
19.083333	1	1.219250
19.100000	1	1.171250
19.116667	1	1.121000
19.133333	1	1.070125
19.150000	1	1.019250
19.166667	1	0.969250
19.183333	1	0.921500
19.200000	1	0.876875
19.216667	1	0.835375
19.233333	1	0.797625
19.250000	1	0.764375
19.266667	1	0.736750
19.283333	1	0.713875
19.300000	1	0.696750
19.316667	1	0.685125
19.333333	1	0.679000
19.350000	1	0.678750
19.366667	1	0.682875
19.383333	1	0.692750
19.400000	1	0.706875
19.416667	1	0.726125
19.433333	1	0.749500
19.450000	1	0.776000
19.466667	1	0.804875
19.483333	1	0.836000
19.500000	1	0.867625
19.516667	1	0.899000
19.533333	1	0.929250
19.550000	1	0.957000
19.566667	1	0.981750
19.583333	1	1.002875
19.600000	1	1.019250
19.616667	1	1.030375
19.633333	1	1.035375
19.650000	1	1.034000
19.666667	1	1.026750
19.683333	1	1.014375
19.700000	1	0.997000
19.716667	1	0.974250
19.733333	1	0.948125
19.750000	1	0.918625
19.766667	1	0.887250
19.783333	1	0.854250
19.800000	1	0.820375
19.816667	1	0.786500
19.833333	1	0.753000
19.850000	1	0.721000
19.866667	1	0.690250
19.883333	1	0.661375
19.900000	1	0.635000
19.916667	1	0.610375
19.933333	1	0.588500
19.950000	1	0.567750
19.966667	1	0.550250
19.983333	1	0.535500
20.000000	1	0.522500
20.016667	1	0.511875
20.033333	1	0.503500
20.050000	1	0.497250
20.066667	1	0.492875
20.083333	1	0.491375
20.100000	1	0.492000
20.116667	1	0.494750
20.133333	1	0.499250
20.150000	1	0.505625
20.166667	1	0.514000
20.183333	1	0.524250
20.200000	1	0.535750
20.216667	1	0.548875
20.233333	1	0.562250
20.250000	1	0.576125
20.266667	1	0.589125
20.283333	1	0.602375
20.300000	1	0.614125
20.316667	1	0.624125
20.333333	1	0.632000
20.350000	1	0.637875
20.366667	1	0.641000
20.383333	1	0.641625
20.400000	1	0.639625
20.416667	1	0.634500
20.433333	1	0.627500
20.450000	1	0.618250
20.466667	1	0.608250
20.483333	1	0.598375
20.500000	1	0.588875
20.516667	1	0.580750
20.533333	1	0.575250
20.550000	1	0.573000
20.566667	1	0.575750
20.583333	1	0.582750
20.600000	1	0.595875
20.616667	1	0.614500
20.633333	1	0.640625
20.650000	1	0.674875
20.666667	1	0.716750
20.683333	1	0.765250
20.700000	1	0.821500
20.716667	1	0.884125
20.733333	1	0.952125
20.750000	1	1.024875
20.766667	1	1.099875
20.783333	1	1.175375
20.800000	1	1.248875
20.816667	1	1.319750
20.833333	1	1.384250
20.850000	1	1.440625
20.866667	1	1.487125
20.883333	1	1.521875
20.900000	1	1.543625
20.916667	1	1.552125
20.933333	1	1.546500
20.950000	1	1.527000
20.966667	1	1.494750
20.983333	1	1.451375
21.000000	1	1.397875
21.016667	1	1.336750
21.033333	1	1.269875
21.050000	1	1.199125
21.066667	1	1.126000
21.083333	1	1.054000
21.100000	1	0.983125
21.116667	1	0.913875
21.133333	1	0.848750
21.150000	1	0.787750
21.166667	1	0.731625
21.183333	1	0.680500
21.200000	1	0.635000
21.216667	1	0.594125
21.233333	1	0.558000
21.250000	1	0.526625
21.266667	1	0.499375
21.283333	1	0.475750
21.300000	1	0.455375
21.316667	1	0.438750
21.333333	1	0.423875
21.350000	1	0.412000
21.366667	1	0.402625
21.383333	1	0.394500
21.400000	1	0.387750
21.416667	1	0.382125
21.433333	1	0.377500
21.450000	1	0.374500
21.466667	1	0.372000
21.483333	1	0.370500
21.500000	1	0.370875
21.516667	1	0.372250
21.533333	1	0.374500
21.550000	1	0.377750
21.566667	1	0.383500
21.583333	1	0.390875
21.600000	1	0.400250
21.616667	1	0.412000
21.633333	1	0.426375
21.650000	1	0.444125
21.666667	1	0.464000
21.683333	1	0.488250
21.700000	1	0.515500
21.716667	1	0.547125
21.733333	1	0.582125
21.750000	1	0.621750
21.766667	1	0.665875
21.783333	1	0.713000
21.800000	1	0.763875
21.816667	1	0.818125
21.833333	1	0.875500
21.850000	1	0.934375
21.866667	1	0.994875
21.883333	1	1.055250
21.900000	1	1.115500
21.916667	1	1.174125
21.933333	1	1.229750
21.950000	1	1.281750
21.966667	1	1.328500
21.983333	1	1.367625
22.000000	1	1.399625
22.016667	1	1.423750
22.033333	1	1.438875
22.050000	1	1.445250
22.066667	1	1.442250
22.083333	1	1.430375
22.100000	1	1.410875
22.116667	1	1.383125
22.133333	1	1.348125
22.150000	1	1.307375
22.166667	1	1.261875
22.183333	1	1.212375
22.200000	1	1.159750
22.216667	1	1.106000
22.233333	1	1.050750
22.250000	1	0.996000
22.266667	1	0.941500
22.283333	1	0.888625
22.300000	1	0.837125
22.316667	1	0.788875
22.333333	1	0.741875
22.350000	1	0.697750
22.366667	1	0.655500
22.383333	1	0.617375
22.400000	1	0.581000
22.416667	1	0.547375
22.433333	1	0.516500
22.450000	1	0.488250
22.466667	1	0.463000
22.483333	1	0.439875
22.500000	1	0.418625
22.516667	1	0.399875
22.533333	1	0.383000
22.550000	1	0.367625
22.566667	1	0.354125
22.583333	1	0.341875
22.600000	1	0.330875
22.616667	1	0.321125
22.633333	1	0.313125
22.650000	1	0.304875
22.666667	1	0.297000
22.683333	1	0.291125
22.700000	1	0.285750
22.716667	1	0.280750
22.733333	1	0.276125
22.750000	1	0.271750
22.766667	1	0.267625
22.783333	1	0.264125
22.800000	1	0.260750
22.816667	1	0.257750
22.833333	1	0.254875
22.850000	1	0.251375
22.866667	1	0.248875
22.883333	1	0.246125
22.900000	1	0.243625
22.916667	1	0.241875
22.933333	1	0.240500
22.950000	1	0.239750
22.966667	1	0.238625
22.983333	1	0.238000
23.000000	1	0.237875
23.016667	1	0.237875
23.033333	1	0.237375
23.050000	1	0.237250
23.066667	1	0.238125
23.083333	1	0.239125
23.100000	1	0.239875
23.116667	1	0.241250
23.133333	1	0.243000
23.150000	1	0.244750
23.166667	1	0.246000
23.183333	1	0.247875
23.200000	1	0.250125
23.216667	1	0.252750
23.233333	1	0.255125
23.250000	1	0.258625
23.266667	1	0.262750
23.283333	1	0.267750
23.300000	1	0.274375
23.316667	1	0.282125
23.333333	1	0.291875
23.350000	1	0.304125
23.366667	1	0.320125
23.383333	1	0.339000
23.400000	1	0.363000
23.416667	1	0.392125
23.433333	1	0.427625
23.450000	1	0.470000
23.466667	1	0.520250
23.483333	1	0.580875
23.500000	1	0.651375
23.516667	1	0.733875
23.533333	1	0.829000
23.550000	1	0.938625
23.566667	1	1.062000
23.583333	1	1.201250
23.600000	1	1.356000
23.616667	1	1.527625
23.633333	1	1.714750
23.650000	1	1.916250
23.666667	1	2.131375
23.683333	1	2.359250
23.700000	1	2.596000
23.716667	1	2.838875
23.733333	1	3.085375
23.750000	1	3.329125
23.766667	1	3.566500
23.783333	1	3.792000
23.800000	1	4.001375
23.816667	1	4.189875
23.833333	1	4.353875
23.850000	1	4.488125
23.866667	1	4.590625
23.883333	1	4.658375
23.900000	1	4.690875
23.916667	1	4.686125
23.933333	1	4.645625
23.950000	1	4.571125
23.966667	1	4.464500
23.983333	1	4.329625
24.000000	1	4.169375
24.016667	1	3.988125
24.033333	1	3.790750
24.050000	1	3.581375
24.066667	1	3.365250
24.083333	1	3.144875
24.100000	1	2.924625
24.116667	1	2.707125
24.133333	1	2.496000
24.150000	1	2.293000
24.166667	1	2.101250
24.183333	1	1.920250
24.200000	1	1.751000
24.216667	1	1.594750
24.233333	1	1.452000
24.250000	1	1.322000
24.266667	1	1.203625
24.283333	1	1.097875
24.300000	1	1.002750
24.316667	1	0.917625
24.333333	1	0.842250
24.350000	1	0.776000
24.366667	1	0.717625
24.383333	1	0.667125
24.400000	1	0.623625
24.416667	1	0.586000
24.433333	1	0.553625
24.450000	1	0.526375
24.466667	1	0.502625
24.483333	1	0.482250
24.500000	1	0.464625
24.516667	1	0.449750
24.533333	1	0.437625
24.550000	1	0.427750
24.566667	1	0.418125
24.583333	1	0.409500
24.600000	1	0.401000
24.616667	1	0.393875
24.633333	1	0.386500
24.650000	1	0.379750
24.666667	1	0.372875
24.683333	1	0.366375
24.700000	1	0.359500
24.716667	1	0.352250
24.733333	1	0.345000
24.750000	1	0.337125
24.766667	1	0.329625
24.783333	1	0.322625
24.800000	1	0.314625
24.816667	1	0.307625
24.833333	1	0.301125
24.850000	1	0.294250
24.866667	1	0.287500
24.883333	1	0.281000
24.900000	1	0.274875
24.916667	1	0.269250
24.933333	1	0.263875
24.950000	1	0.258375
24.966667	1	0.253875
24.983333	1	0.249125
25.000000	1	0.244375
25.016667	1	0.241375
25.033333	1	0.238125
25.050000	1	0.234750
25.066667	1	0.231750
25.083333	1	0.229250
25.100000	1	0.226125
25.116667	1	0.223375
25.133333	1	0.220875
25.150000	1	0.218250
25.166667	1	0.215750
25.183333	1	0.213750
25.200000	1	0.211750
25.216667	1	0.209250
25.233333	1	0.206250
25.250000	1	0.203875
25.266667	1	0.201875
25.283333	1	0.199500
25.300000	1	0.197375
25.316667	1	0.195000
25.333333	1	0.193125
25.350000	1	0.191125
25.366667	1	0.189250
25.383333	1	0.188125
25.400000	1	0.187625
25.416667	1	0.186625
25.433333	1	0.185625
25.450000	1	0.184750
25.466667	1	0.183750
25.483333	1	0.183875
25.500000	1	0.184375
25.516667	1	0.184375
25.533333	1	0.184000
25.550000	1	0.183875
25.566667	1	0.184500
25.583333	1	0.184875
25.600000	1	0.185250
25.616667	1	0.185375
25.633333	1	0.185625
25.650000	1	0.185875
25.666667	1	0.186250
25.683333	1	0.186875
25.700000	1	0.186750
25.716667	1	0.187375
25.733333	1	0.187750
25.750000	1	0.188500
25.766667	1	0.188625
25.783333	1	0.188875
25.800000	1	0.189125
25.816667	1	0.190500
25.833333	1	0.191500
25.850000	1	0.193000
25.866667	1	0.194375
25.883333	1	0.195625
25.900000	1	0.197500
25.916667	1	0.199625
25.933333	1	0.202750
25.950000	1	0.205000
25.966667	1	0.208250
25.983333	1	0.212125
26.000000	1	0.215750
26.016667	1	0.219625
26.033333	1	0.223875
26.050000	1	0.228375
26.066667	1	0.233500
26.083333	1	0.239000
26.100000	1	0.244625
26.116667	1	0.249750
26.133333	1	0.255125
26.150000	1	0.260000
26.166667	1	0.264750
26.183333	1	0.269750
26.200000	1	0.274875
26.216667	1	0.278375
26.233333	1	0.281750
26.250000	1	0.285500
26.266667	1	0.288250
26.283333	1	0.290625
26.300000	1	0.292250
26.316667	1	0.293250
26.333333	1	0.293875
26.350000	1	0.293000
26.366667	1	0.292125
26.383333	1	0.291125
26.400000	1	0.289000
26.416667	1	0.286250
26.433333	1	0.283375
26.450000	1	0.279500
26.466667	1	0.275125
26.483333	1	0.270000
26.500000	1	0.264625
26.516667	1	0.259375
26.533333	1	0.254000
26.550000	1	0.248125
26.566667	1	0.241750
26.583333	1	0.235750
26.600000	1	0.229125
26.616667	1	0.223000
26.633333	1	0.217000
26.650000	1	0.211000
26.666667	1	0.205375
26.683333	1	0.199250
26.700000	1	0.193500
26.716667	1	0.187750
26.733333	1	0.181875
26.750000	1	0.177000
26.766667	1	0.172625
26.783333	1	0.168625
26.800000	1	0.164875
26.816667	1	0.161625
26.833333	1	0.158375
26.850000	1	0.155375
26.866667	1	0.152875
26.883333	1	0.150375
26.900000	1	0.149000
26.916667	1	0.147125
26.933333	1	0.146000
26.950000	1	0.145750
26.966667	1	0.145250
26.983333	1	0.145625
27.000000	1	0.147000
27.016667	1	0.148625
27.033333	1	0.150000
27.050000	1	0.152875
27.066667	1	0.157000
27.083333	1	0.161625
27.100000	1	0.167375
27.116667	1	0.174000
27.133333	1	0.181500
27.150000	1	0.190000
27.166667	1	0.200750
27.183333	1	0.212875
27.200000	1	0.226500
27.216667	1	0.243125
27.233333	1	0.262125
27.250000	1	0.284000
27.266667	1	0.308500
27.283333	1	0.336625
27.300000	1	0.369000
27.316667	1	0.405500
27.333333	1	0.446750
27.350000	1	0.493500
27.366667	1	0.546750
27.383333	1	0.606000
27.400000	1	0.671500
27.416667	1	0.745875
27.433333	1	0.828000
27.450000	1	0.918750
27.466667	1	1.018875
27.483333	1	1.128000
27.500000	1	1.246875
27.516667	1	1.375375
27.533333	1	1.513500
27.550000	1	1.660375
27.566667	1	1.816250
27.583333	1	1.978750
27.600000	1	2.148500
27.616667	1	2.323250
27.633333	1	2.503250
27.650000	1	2.684500
27.666667	1	2.866625
27.683333	1	3.046750
27.700000	1	3.222250
27.716667	1	3.390750
27.733333	1	3.549000
27.750000	1	3.694250
27.766667	1	3.824500
27.783333	1	3.938500
27.800000	1	4.032750
27.816667	1	4.104750
27.833333	1	4.155000
27.850000	1	4.179875
27.866667	1	4.181625
27.883333	1	4.157625
27.900000	1	4.108875
27.916667	1	4.036625
27.933333	1	3.941875
27.950000	1	3.827000
27.966667	1	3.692875
27.983333	1	3.543125
28.000000	1	3.380375
28.016667	1	3.206375
28.033333	1	3.024875
28.050000	1	2.838500
28.066667	1	2.649250
28.083333	1	2.460625
28.100000	1	2.274375
28.116667	1	2.093000
28.133333	1	1.917625
28.150000	1	1.750875
28.166667	1	1.593750
28.183333	1	1.446875
28.200000	1	1.310000
28.216667	1	1.184125
28.233333	1	1.069250
28.250000	1	0.965125
28.266667	1	0.870500
28.283333	1	0.786000
28.300000	1	0.711250
28.316667	1	0.645250
28.333333	1	0.587375
28.350000	1	0.537500
28.366667	1	0.495500
28.383333	1	0.459375
28.400000	1	0.429250
28.416667	1	0.404625
28.433333	1	0.384625
28.450000	1	0.369375
28.466667	1	0.357875
28.483333	1	0.349875
28.500000	1	0.345250
28.516667	1	0.342875
28.533333	1	0.342625
28.550000	1	0.345000
28.566667	1	0.349125
28.583333	1	0.354500
28.600000	1	0.361750
28.616667	1	0.370500
28.633333	1	0.379625
28.650000	1	0.389500
28.666667	1	0.398875
28.683333	1	0.408125
28.700000	1	0.418250
28.716667	1	0.427750
28.733333	1	0.436875
28.750000	1	0.445250
28.766667	1	0.452750
28.783333	1	0.459875
28.800000	1	0.466250
28.816667	1	0.472375
28.833333	1	0.477125
28.850000	1	0.480875
28.866667	1	0.483125
28.883333	1	0.484125
28.900000	1	0.485125
28.916667	1	0.484000
28.933333	1	0.482000
28.950000	1	0.478625
28.966667	1	0.474625
28.983333	1	0.469500
29.000000	1	0.463000
29.016667	1	0.456125
29.033333	1	0.447875
29.050000	1	0.439000
29.066667	1	0.429625
29.083333	1	0.419125
29.100000	1	0.408125
29.116667	1	0.396125
29.133333	1	0.383750
29.150000	1	0.371000
29.166667	1	0.358750
29.183333	1	0.345000
29.200000	1	0.331750
29.216667	1	0.318875
29.233333	1	0.305500
29.250000	1	0.292875
29.266667	1	0.279625
29.283333	1	0.267125
29.300000	1	0.255250
29.316667	1	0.243375
29.333333	1	0.231625
29.350000	1	0.220000
29.366667	1	0.209000
29.383333	1	0.198750
29.400000	1	0.189500
29.416667	1	0.180750
29.433333	1	0.171875
29.450000	1	0.164125
29.466667	1	0.156500
29.483333	1	0.149375
29.500000	1	0.142750
29.516667	1	0.136750
29.533333	1	0.132500
29.550000	1	0.127250
29.566667	1	0.122625
29.583333	1	0.118625
29.600000	1	0.114875
29.616667	1	0.111500
29.633333	1	0.108000
29.650000	1	0.105875
29.666667	1	0.103250
29.683333	1	0.101125
29.700000	1	0.099500
29.716667	1	0.097625
29.733333	1	0.096000
29.750000	1	0.094125
29.766667	1	0.092375
29.783333	1	0.091500
29.800000	1	0.090000
29.816667	1	0.089375
29.833333	1	0.088000
29.850000	1	0.086625
29.866667	1	0.085250
29.883333	1	0.084250
29.900000	1	0.083125
29.916667	1	0.082000
29.933333	1	0.081125
29.950000	1	0.080625
29.966667	1	0.079000
29.983333	1	0.077750
30.000000	1	0.076875
30.016667	1	0.076125
30.033333	1	0.075000
30.050000	1	0.074250
30.066667	1	0.073250
30.083333	1	0.072250
30.100000	1	0.070750
30.116667	1	0.070125
30.133333	1	0.068625
30.150000	1	0.067625
30.166667	1	0.067125
30.183333	1	0.065875
30.200000	1	0.065500
30.216667	1	0.064625
30.233333	1	0.063750
30.250000	1	0.063500
30.266667	1	0.063375
30.283333	1	0.062125
30.300000	1	0.061875
30.316667	1	0.060875
30.333333	1	0.060500
30.350000	1	0.060625
30.366667	1	0.061000
30.383333	1	0.061000
30.400000	1	0.060875
30.416667	1	0.061125
30.433333	1	0.062125
30.450000	1	0.062750
30.466667	1	0.064000
30.483333	1	0.065875
30.500000	1	0.067125
30.516667	1	0.068375
30.533333	1	0.071000
30.550000	1	0.074625
30.566667	1	0.078125
30.583333	1	0.082375
30.600000	1	0.087000
30.616667	1	0.092125
30.633333	1	0.097500
30.650000	1	0.104125
30.666667	1	0.111250
30.683333	1	0.119375
30.700000	1	0.128125
30.716667	1	0.137500
30.733333	1	0.147750
30.750000	1	0.158875
30.766667	1	0.171125
30.783333	1	0.185500
30.800000	1	0.200250
30.816667	1	0.216750
30.833333	1	0.234250
30.850000	1	0.253500
30.866667	1	0.275000
30.883333	1	0.298375
30.900000	1	0.323875
30.916667	1	0.351125
30.933333	1	0.382625
30.950000	1	0.417500
30.966667	1	0.455625
30.983333	1	0.497875
31.000000	1	0.544125
31.016667	1	0.595875
31.033333	1	0.653125
31.050000	1	0.716125
31.066667	1	0.785375
31.083333	1	0.860375
31.100000	1	0.942375
31.116667	1	1.031625
31.133333	1	1.128125
31.150000	1	1.231625
31.166667	1	1.342625
31.183333	1	1.461750
31.200000	1	1.588875
31.216667	1	1.721625
31.233333	1	1.860625
31.250000	1	2.005250
31.266667	1	2.154250
31.283333	1	2.306000
31.300000	1	2.459125
31.316667	1	2.613625
31.333333	1	2.767375
31.350000	1	2.918125
31.366667	1	3.063875
31.383333	1	3.204875
31.400000	1	3.337750
31.416667	1	3.462375
31.433333	1	3.574625
31.450000	1	3.674625
31.466667	1	3.760375
31.483333	1	3.830250
31.500000	1	3.883750
31.516667	1	3.920875
31.533333	1	3.939750
31.550000	1	3.941500
31.566667	1	3.925125
31.583333	1	3.891500
31.600000	1	3.840750
31.616667	1	3.773875
31.633333	1	3.692500
31.650000	1	3.597250
31.666667	1	3.489375
31.683333	1	3.370250
31.700000	1	3.242000
31.716667	1	3.107250
31.733333	1	2.966000
31.750000	1	2.820500
31.766667	1	2.672875
31.783333	1	2.523625
31.800000	1	2.374750
31.816667	1	2.227250
31.833333	1	2.082500
31.850000	1	1.941250
31.866667	1	1.804750
31.883333	1	1.673875
31.900000	1	1.548250
31.916667	1	1.429000
31.933333	1	1.316875
31.950000	1	1.212250
31.966667	1	1.113500
31.983333	1	1.021625
32.000000	1	0.936625
32.016667	1	0.858500
32.033333	1	0.786250
32.050000	1	0.719375
32.066667	1	0.658750
32.083333	1	0.603750
32.100000	1	0.552750
32.116667	1	0.507250
32.133333	1	0.465625
32.150000	1	0.427250
32.166667	1	0.392000
32.183333	1	0.360125
32.200000	1	0.331250
32.216667	1	0.304875
32.233333	1	0.280250
32.250000	1	0.258000
32.266667	1	0.237250
32.283333	1	0.217750
32.300000	1	0.200125
32.316667	1	0.184000
32.333333	1	0.169125
32.350000	1	0.154750
32.366667	1	0.141125
32.383333	1	0.128250
32.400000	1	0.116500
32.416667	1	0.104750
32.433333	1	0.094000
32.450000	1	0.085000
32.466667	1	0.075375
32.483333	1	0.066500
32.500000	1	0.058125
32.516667	1	0.051375
32.533333	1	0.044375
32.550000	1	0.037750
32.566667	1	0.031875
32.583333	1	0.026250
32.600000	1	0.020875
32.616667	1	0.016375
32.633333	1	0.011875
32.650000	1	0.008000
32.666667	1	0.004000
32.683333	1	0.000375
32.700000	1	-0.002625
32.716667	1	-0.004875
32.733333	1	-0.006625
32.750000	1	-0.009125
32.766667	1	-0.011250
32.783333	1	-0.013125
32.800000	1	-0.015125
32.816667	1	-0.016500
32.833333	1	-0.018250
32.850000	1	-0.019500
32.866667	1	-0.021125
32.883333	1	-0.022000
32.900000	1	-0.022875
32.916667	1	-0.024125
32.933333	1	-0.025375
32.950000	1	-0.026375
32.966667	1	-0.027000
32.983333	1	-0.027875
33.000000	1	-0.028500
33.016667	1	-0.029000
33.033333	1	-0.029375
33.050000	1	-0.030000
33.066667	1	-0.030250
33.083333	1	-0.030000
33.100000	1	-0.029375
33.116667	1	-0.029250
33.133333	1	-0.028500
33.150000	1	-0.027500
33.166667	1	-0.025750
33.183333	1	-0.024500
33.200000	1	-0.021625
33.216667	1	-0.019000
33.233333	1	-0.016250
33.250000	1	-0.012500
33.266667	1	-0.007625
33.283333	1	-0.002750
33.300000	1	0.002625
33.316667	1	0.010000
33.333333	1	0.017875
33.350000	1	0.025500
33.366667	1	0.035500
33.383333	1	0.046625
33.400000	1	0.059000
33.416667	1	0.072750
33.433333	1	0.087750
33.450000	1	0.104500
33.466667	1	0.122500
33.483333	1	0.143125
33.500000	1	0.165875
33.516667	1	0.190750
33.533333	1	0.217250
33.550000	1	0.247000
33.566667	1	0.278750
33.583333	1	0.313375
33.600000	1	0.351625
33.616667	1	0.391750
33.633333	1	0.433875
33.650000	1	0.479250
33.666667	1	0.528000
33.683333	1	0.578750
33.700000	1	0.632250
33.716667	1	0.688875
33.733333	1	0.747000
33.750000	1	0.807375
33.766667	1	0.869000
33.783333	1	0.932875
33.800000	1	0.997000
33.816667	1	1.060500
33.833333	1	1.124625
33.850000	1	1.187250
33.866667	1	1.249000
33.883333	1	1.308750
33.900000	1	1.366000
33.916667	1	1.419500
33.933333	1	1.469125
33.950000	1	1.514625
33.966667	1	1.555875
33.983333	1	1.591125
34.000000	1	1.621250
34.016667	1	1.645125
34.033333	1	1.662375
34.050000	1	1.674375
34.066667	1	1.679375
34.083333	1	1.677875
34.100000	1	1.670125
34.116667	1	1.655500
34.133333	1	1.635250
34.150000	1	1.609500
34.166667	1	1.578625
34.183333	1	1.543250
34.200000	1	1.502625
34.216667	1	1.458375
34.233333	1	1.410250
34.250000	1	1.360000
34.266667	1	1.307250
34.283333	1	1.251750
34.300000	1	1.196250
34.316667	1	1.140250
34.333333	1	1.083875
34.350000	1	1.027375
34.366667	1	0.971625
34.383333	1	0.917125
34.400000	1	0.863125
34.416667	1	0.811625
34.433333	1	0.761375
34.450000	1	0.713375
34.466667	1	0.668375
34.483333	1	0.624750
34.500000	1	0.583875
34.516667	1	0.545375
34.533333	1	0.509125
34.550000	1	0.475375
34.566667	1	0.444000
34.583333	1	0.414500
34.600000	1	0.387125
34.616667	1	0.361875
34.633333	1	0.338500
34.650000	1	0.316625
34.666667	1	0.296375
34.683333	1	0.278500
34.700000	1	0.263000
34.716667	1	0.247750
34.733333	1	0.233875
34.750000	1	0.221000
34.766667	1	0.209000
34.783333	1	0.198375
34.800000	1	0.188625
34.816667	1	0.180000
34.833333	1	0.170875
34.850000	1	0.163375
34.866667	1	0.156500
34.883333	1	0.150375
34.900000	1	0.144250
34.916667	1	0.138250
34.933333	1	0.133000
34.950000	1	0.128125
34.966667	1	0.124375
34.983333	1	0.119875
35.000000	1	0.114875
35.016667	1	0.111250
35.033333	1	0.107500
35.050000	1	0.103625
35.066667	1	0.100250
35.083333	1	0.097500
35.100000	1	0.094000
35.116667	1	0.091000
35.133333	1	0.088000
35.150000	1	0.085125
35.166667	1	0.083000
35.183333	1	0.080000
35.200000	1	0.077500
35.216667	1	0.074875
35.233333	1	0.072250
35.250000	1	0.070625
35.266667	1	0.069000
35.283333	1	0.067250
35.300000	1	0.065875
35.316667	1	0.064875
35.333333	1	0.063500
35.350000	1	0.062875
35.366667	1	0.062750
35.383333	1	0.062125
35.400000	1	0.061375
35.416667	1	0.060625
35.433333	1	0.060875
35.450000	1	0.061500
35.466667	1	0.062000
35.483333	1	0.062000
35.500000	1	0.063000
35.516667	1	0.064375
35.533333	1	0.065250
35.550000	1	0.066625
35.566667	1	0.068000
35.583333	1	0.069375
35.600000	1	0.069250
35.616667	1	0.070875
35.633333	1	0.072250
35.650000	1	0.073375
35.666667	1	0.074500
35.683333	1	0.076000
35.700000	1	0.077250
35.716667	1	0.078500
35.733333	1	0.080125
35.750000	1	0.082000
35.766667	1	0.083375
35.783333	1	0.083500
35.800000	1	0.084375
35.816667	1	0.085375
35.833333	1	0.086250
35.850000	1	0.087375
35.866667	1	0.088500
35.883333	1	0.089750
35.900000	1	0.090375
35.916667	1	0.090875
35.933333	1	0.092125
35.950000	1	0.091875
35.966667	1	0.093000
35.983333	1	0.093500
36.000000	1	0.093750
36.016667	1	0.094000
36.033333	1	0.094500
36.050000	1	0.094625
36.066667	1	0.094625
36.083333	1	0.095125
36.100000	1	0.095750
36.116667	1	0.096500
36.133333	1	0.097375
36.150000	1	0.098000
36.166667	1	0.098625
36.183333	1	0.099500
36.200000	1	0.100500
36.216667	1	0.101500
36.233333	1	0.102625
36.250000	1	0.104125
36.266667	1	0.105125
36.283333	1	0.106125
36.300000	1	0.107750
36.316667	1	0.109375
36.333333	1	0.111125
36.350000	1	0.112000
36.366667	1	0.113000
36.383333	1	0.114250
36.400000	1	0.115250
36.416667	1	0.115625
36.433333	1	0.116500
36.450000	1	0.116625
36.466667	1	0.116750
36.483333	1	0.116750
36.500000	1	0.116375
36.516667	1	0.116125
36.533333	1	0.115500
36.550000	1	0.114625
36.566667	1	0.113625
36.583333	1	0.112625
36.600000	1	0.110625
36.616667	1	0.108750
36.633333	1	0.106625
36.650000	1	0.104375
36.666667	1	0.101250
36.683333	1	0.098750
36.700000	1	0.096000
36.716667	1	0.093500
36.733333	1	0.089750
36.750000	1	0.087000
36.766667	1	0.083500
36.783333	1	0.080125
36.800000	1	0.076875
36.816667	1	0.073500
36.833333	1	0.070375
36.850000	1	0.067250
36.866667	1	0.065000
36.883333	1	0.062125
36.900000	1	0.059125
36.916667	1	0.056250
36.933333	1	0.052750
36.950000	1	0.049375
36.966667	1	0.046250
36.983333	1	0.043875
37.000000	1	0.041500
37.016667	1	0.039125
37.033333	1	0.037250
37.050000	1	0.035625
37.066667	1	0.034375
37.083333	1	0.033250
37.100000	1	0.031750
37.116667	1	0.030750
37.133333	1	0.029500
37.150000	1	0.028875
37.166667	1	0.027625
37.183333	1	0.026250
37.200000	1	0.024625
37.216667	1	0.023625
37.233333	1	0.022500
37.250000	1	0.022250
37.266667	1	0.022125
37.283333	1	0.022375
37.300000	1	0.022625
37.316667	1	0.022000
37.333333	1	0.022000
37.350000	1	0.021375
37.366667	1	0.021125
37.383333	1	0.021000
37.400000	1	0.020500
37.416667	1	0.020500
37.433333	1	0.020375
37.450000	1	0.019625
37.466667	1	0.018625
37.483333	1	0.018375
37.500000	1	0.018375
37.516667	1	0.018500
37.533333	1	0.018750
37.550000	1	0.018750
37.566667	1	0.017875
37.583333	1	0.017875
37.600000	1	0.016750
37.616667	1	0.015875
37.633333	1	0.015125
37.650000	1	0.014000
37.666667	1	0.013375
37.683333	1	0.013250
37.700000	1	0.011750
37.716667	1	0.010875
37.733333	1	0.009750
37.750000	1	0.009000
37.766667	1	0.008250
37.783333	1	0.006875
37.800000	1	0.006500
37.816667	1	0.005875
37.833333	1	0.005000
37.850000	1	0.003750
37.866667	1	0.003625
37.883333	1	0.003125
37.900000	1	0.003125
37.916667	1	0.002625
37.933333	1	0.001750
37.950000	1	0.001625
37.966667	1	0.001000
37.983333	1	0.000750
38.000000	1	0.000875
38.016667	1	0.000625
38.033333	1	0.000500
38.050000	1	0.000375
38.066667	1	0.000500
38.083333	1	0.001000
38.100000	1	0.000625
38.116667	1	0.000500
38.133333	1	0.000625
38.150000	1	0.000750
38.166667	1	0.000875
38.183333	1	0.001250
38.200000	1	0.001750
38.216667	1	0.002000
38.233333	1	0.002875
38.250000	1	0.004125
38.266667	1	0.004500
38.283333	1	0.005000
38.300000	1	0.006000
38.316667	1	0.006750
38.333333	1	0.007875
38.350000	1	0.008750
38.366667	1	0.008750
38.383333	1	0.009875
38.400000	1	0.011250
38.416667	1	0.012375
38.433333	1	0.013500
38.450000	1	0.015250
38.466667	1	0.016250
38.483333	1	0.017000
38.500000	1	0.018750
38.516667	1	0.019625
38.533333	1	0.021500
38.550000	1	0.022500
38.566667	1	0.024000
38.583333	1	0.025500
38.600000	1	0.026250
38.616667	1	0.027750
38.633333	1	0.029125
38.650000	1	0.031125
38.666667	1	0.032250
38.683333	1	0.033375
38.700000	1	0.034500
38.716667	1	0.036000
38.733333	1	0.036500
38.750000	1	0.038000
38.766667	1	0.038625
38.783333	1	0.040125
38.800000	1	0.041125
38.816667	1	0.042250
38.833333	1	0.042875
38.850000	1	0.043750
38.866667	1	0.044375
38.883333	1	0.044750
38.900000	1	0.044875
38.916667	1	0.044750
38.933333	1	0.045375
38.950000	1	0.045000
38.966667	1	0.044125
38.983333	1	0.043500
39.000000	1	0.043000
39.016667	1	0.042625
39.033333	1	0.041500
39.050000	1	0.041500
39.066667	1	0.040625
39.083333	1	0.040000
39.100000	1	0.039000
39.116667	1	0.038375
39.133333	1	0.037375
39.150000	1	0.036375
39.166667	1	0.035625
39.183333	1	0.034750
39.200000	1	0.033500
39.216667	1	0.032500
39.233333	1	0.032375
39.250000	1	0.032125
39.266667	1	0.032375
39.283333	1	0.032500
39.300000	1	0.032875
39.316667	1	0.032375
39.333333	1	0.032875
39.350000	1	0.032625
39.366667	1	0.032875
39.383333	1	0.033125
39.400000	1	0.033125
39.416667	1	0.033750
39.433333	1	0.034625
39.450000	1	0.036125
39.466667	1	0.036750
39.483333	1	0.037750
39.500000	1	0.038625
39.516667	1	0.039750
39.533333	1	0.040250
39.550000	1	0.041125
39.566667	1	0.042375
39.583333	1	0.043125
39.600000	1	0.044375
39.616667	1	0.045625
39.633333	1	0.045750
39.650000	1	0.047000
39.666667	1	0.047625
39.683333	1	0.048750
39.700000	1	0.049125
39.716667	1	0.049625
39.733333	1	0.049750
39.750000	1	0.049500
39.766667	1	0.049125
39.783333	1	0.048625
39.800000	1	0.049125
39.816667	1	0.049125
39.833333	1	0.049125
39.850000	1	0.048625
39.866667	1	0.048625
39.883333	1	0.047875
39.900000	1	0.047250
39.916667	1	0.045500
39.933333	1	0.044875
39.950000	1	0.043500
39.966667	1	0.042125
39.983333	1	0.040000
40.000000	1	0.038375
