URL	chrom://bioreactor/micro_cm7/HPLC_Ultimate_3000/Users/markusar/20240708_MA_pHrange1.seq/431.smp/RI_1.channel/RI_1.chm
Channel	RI_1

Injection Information:
Data Vault	micro_cm7
Sequence	20240708_MA_pHrange1
Name	Fp1_6.5_4
Number	50
Position	BE4
Comment	
Processing Method	
Instrument Method	run_25B_method
Type	Unknown
Status	Finished
Inject Time	10.07.2024 01:02:09 +02:00
Volume (µl)	20.0000
Dilution Factor	1.0000
Weight	1.0000

Chromatogram Data Information:
Time Min. (min)	0.000000
Time Max. (min)	40.000000
Data Points	2401
Detector	RI
Generating Data System	Chromeleon 7.3.2.11814
Exporting Data System	Chromeleon 7.3.2.0
Operator	Instrument Controller
Signal Quantity	Refractive 
Signal Unit	µRIU
Signal Min.	-0.021500
Signal Max.	79.664125
Channel	RI_1
Driver Name	RID520Driver.dll
Channel Type	Evaluation
Min. Step (s)	1
Max. Step (s)	1
Average Step (s)	1

Signal Parameter Information:
Signal Info	

Chromatogram Data:
Time (min)	Step (s)	Value (µRIU)
0.000000	n.a.	0.025000
0.016667	1	0.025625
0.033333	1	0.025750
0.050000	1	0.026625
0.066667	1	0.027750
0.083333	1	0.029000
0.100000	1	0.030250
0.116667	1	0.031750
0.133333	1	0.033000
0.150000	1	0.035125
0.166667	1	0.036375
0.183333	1	0.038000
0.200000	1	0.039500
0.216667	1	0.041750
0.233333	1	0.043625
0.250000	1	0.045500
0.266667	1	0.047250
0.283333	1	0.048875
0.300000	1	0.051375
0.316667	1	0.053000
0.333333	1	0.054250
0.350000	1	0.055500
0.366667	1	0.057125
0.383333	1	0.057750
0.400000	1	0.058375
0.416667	1	0.059625
0.433333	1	0.062000
0.450000	1	0.064250
0.466667	1	0.067000
0.483333	1	0.069750
0.500000	1	0.071625
0.516667	1	0.072875
0.533333	1	0.075000
0.550000	1	0.075750
0.566667	1	0.076000
0.583333	1	0.074625
0.600000	1	0.072875
0.616667	1	0.071500
0.633333	1	0.070125
0.650000	1	0.069500
0.666667	1	0.068750
0.683333	1	0.069500
0.700000	1	0.069250
0.716667	1	0.068750
0.733333	1	0.069000
0.750000	1	0.069750
0.766667	1	0.069875
0.783333	1	0.069125
0.800000	1	0.068375
0.816667	1	0.068625
0.833333	1	0.068875
0.850000	1	0.069375
0.866667	1	0.069000
0.883333	1	0.069750
0.900000	1	0.069375
0.916667	1	0.069125
0.933333	1	0.069000
0.950000	1	0.068750
0.966667	1	0.068750
0.983333	1	0.069000
1.000000	1	0.068750
1.016667	1	0.068500
1.033333	1	0.068375
1.050000	1	0.068000
1.066667	1	0.067250
1.083333	1	0.066500
1.100000	1	0.066875
1.116667	1	0.065250
1.133333	1	0.064250
1.150000	1	0.063250
1.166667	1	0.062375
1.183333	1	0.061375
1.200000	1	0.060125
1.216667	1	0.059000
1.233333	1	0.058125
1.250000	1	0.056750
1.266667	1	0.054875
1.283333	1	0.053500
1.300000	1	0.052250
1.316667	1	0.050375
1.333333	1	0.048750
1.350000	1	0.047375
1.366667	1	0.045875
1.383333	1	0.044625
1.400000	1	0.042875
1.416667	1	0.041375
1.433333	1	0.040125
1.450000	1	0.038500
1.466667	1	0.037000
1.483333	1	0.035625
1.500000	1	0.034375
1.516667	1	0.033375
1.533333	1	0.032125
1.550000	1	0.031375
1.566667	1	0.031000
1.583333	1	0.030625
1.600000	1	0.030000
1.616667	1	0.029375
1.633333	1	0.028500
1.650000	1	0.028250
1.666667	1	0.028125
1.683333	1	0.027750
1.700000	1	0.027625
1.716667	1	0.027875
1.733333	1	0.028000
1.750000	1	0.028500
1.766667	1	0.028875
1.783333	1	0.029875
1.800000	1	0.029875
1.816667	1	0.029250
1.833333	1	0.030500
1.850000	1	0.030125
1.866667	1	0.030125
1.883333	1	0.030250
1.900000	1	0.030875
1.916667	1	0.031500
1.933333	1	0.031875
1.950000	1	0.032750
1.966667	1	0.033000
1.983333	1	0.034125
2.000000	1	0.034500
2.016667	1	0.035000
2.033333	1	0.035875
2.050000	1	0.036125
2.066667	1	0.036500
2.083333	1	0.036625
2.100000	1	0.037125
2.116667	1	0.037750
2.133333	1	0.038000
2.150000	1	0.038250
2.166667	1	0.037500
2.183333	1	0.037875
2.200000	1	0.037750
2.216667	1	0.037875
2.233333	1	0.037375
2.250000	1	0.036750
2.266667	1	0.036750
2.283333	1	0.035875
2.300000	1	0.035375
2.316667	1	0.034125
2.333333	1	0.033125
2.350000	1	0.032500
2.366667	1	0.031750
2.383333	1	0.031375
2.400000	1	0.030500
2.416667	1	0.030000
2.433333	1	0.029750
2.450000	1	0.029250
2.466667	1	0.028125
2.483333	1	0.027875
2.500000	1	0.027000
2.516667	1	0.025750
2.533333	1	0.026125
2.550000	1	0.025750
2.566667	1	0.025500
2.583333	1	0.025375
2.600000	1	0.025125
2.616667	1	0.025375
2.633333	1	0.025750
2.650000	1	0.026125
2.666667	1	0.026500
2.683333	1	0.026875
2.700000	1	0.028000
2.716667	1	0.027875
2.733333	1	0.028875
2.750000	1	0.029375
2.766667	1	0.030625
2.783333	1	0.031125
2.800000	1	0.032375
2.816667	1	0.033250
2.833333	1	0.034000
2.850000	1	0.035500
2.866667	1	0.036625
2.883333	1	0.038125
2.900000	1	0.039500
2.916667	1	0.040750
2.933333	1	0.041750
2.950000	1	0.042750
2.966667	1	0.043625
2.983333	1	0.044750
3.000000	1	0.045875
3.016667	1	0.047375
3.033333	1	0.048125
3.050000	1	0.049375
3.066667	1	0.050125
3.083333	1	0.051125
3.100000	1	0.052125
3.116667	1	0.052625
3.133333	1	0.053375
3.150000	1	0.054250
3.166667	1	0.054750
3.183333	1	0.055500
3.200000	1	0.056375
3.216667	1	0.057250
3.233333	1	0.057875
3.250000	1	0.058375
3.266667	1	0.058250
3.283333	1	0.058750
3.300000	1	0.059125
3.316667	1	0.059375
3.333333	1	0.059750
3.350000	1	0.059500
3.366667	1	0.059750
3.383333	1	0.060750
3.400000	1	0.061125
3.416667	1	0.061750
3.433333	1	0.063125
3.450000	1	0.063625
3.466667	1	0.064625
3.483333	1	0.065500
3.500000	1	0.066000
3.516667	1	0.066250
3.533333	1	0.066500
3.550000	1	0.067125
3.566667	1	0.067750
3.583333	1	0.067750
3.600000	1	0.068875
3.616667	1	0.069500
3.633333	1	0.069375
3.650000	1	0.069875
3.666667	1	0.070500
3.683333	1	0.071625
3.700000	1	0.071625
3.716667	1	0.072250
3.733333	1	0.072625
3.750000	1	0.073000
3.766667	1	0.073500
3.783333	1	0.074125
3.800000	1	0.074875
3.816667	1	0.076000
3.833333	1	0.077000
3.850000	1	0.077250
3.866667	1	0.077875
3.883333	1	0.078250
3.900000	1	0.079125
3.916667	1	0.080500
3.933333	1	0.081250
3.950000	1	0.082625
3.966667	1	0.084125
3.983333	1	0.085500
4.000000	1	0.086875
4.016667	1	0.088000
4.033333	1	0.089625
4.050000	1	0.091250
4.066667	1	0.092625
4.083333	1	0.093625
4.100000	1	0.094875
4.116667	1	0.096375
4.133333	1	0.098375
4.150000	1	0.100000
4.166667	1	0.102500
4.183333	1	0.104250
4.200000	1	0.105500
4.216667	1	0.107750
4.233333	1	0.109375
4.250000	1	0.111750
4.266667	1	0.113500
4.283333	1	0.115875
4.300000	1	0.116750
4.316667	1	0.118125
4.333333	1	0.119375
4.350000	1	0.121125
4.366667	1	0.123125
4.383333	1	0.124250
4.400000	1	0.124875
4.416667	1	0.126875
4.433333	1	0.127500
4.450000	1	0.128750
4.466667	1	0.129750
4.483333	1	0.130750
4.500000	1	0.130875
4.516667	1	0.131000
4.533333	1	0.131375
4.550000	1	0.132000
4.566667	1	0.132250
4.583333	1	0.132500
4.600000	1	0.133375
4.616667	1	0.134000
4.633333	1	0.134500
4.650000	1	0.134250
4.666667	1	0.133750
4.683333	1	0.133625
4.700000	1	0.134125
4.716667	1	0.133750
4.733333	1	0.134125
4.750000	1	0.133875
4.766667	1	0.133625
4.783333	1	0.133625
4.800000	1	0.134750
4.816667	1	0.136000
4.833333	1	0.137125
4.850000	1	0.137125
4.866667	1	0.138375
4.883333	1	0.139500
4.900000	1	0.140750
4.916667	1	0.142125
4.933333	1	0.143500
4.950000	1	0.145625
4.966667	1	0.147875
4.983333	1	0.150250
5.000000	1	0.152125
5.016667	1	0.155250
5.033333	1	0.158125
5.050000	1	0.161250
5.066667	1	0.164625
5.083333	1	0.167875
5.100000	1	0.172375
5.116667	1	0.176500
5.133333	1	0.180000
5.150000	1	0.184250
5.166667	1	0.188875
5.183333	1	0.193375
5.200000	1	0.198000
5.216667	1	0.202375
5.233333	1	0.206750
5.250000	1	0.210750
5.266667	1	0.215000
5.283333	1	0.219375
5.300000	1	0.223625
5.316667	1	0.227375
5.333333	1	0.231250
5.350000	1	0.235250
5.366667	1	0.239250
5.383333	1	0.242500
5.400000	1	0.245625
5.416667	1	0.248250
5.433333	1	0.250750
5.450000	1	0.253625
5.466667	1	0.256625
5.483333	1	0.258750
5.500000	1	0.261000
5.516667	1	0.262625
5.533333	1	0.264500
5.550000	1	0.265875
5.566667	1	0.267375
5.583333	1	0.267875
5.600000	1	0.268625
5.616667	1	0.268875
5.633333	1	0.268750
5.650000	1	0.268000
5.666667	1	0.268125
5.683333	1	0.266875
5.700000	1	0.265875
5.716667	1	0.264500
5.733333	1	0.263375
5.750000	1	0.261125
5.766667	1	0.259000
5.783333	1	0.256750
5.800000	1	0.253750
5.816667	1	0.251500
5.833333	1	0.247750
5.850000	1	0.244500
5.866667	1	0.240250
5.883333	1	0.236250
5.900000	1	0.231875
5.916667	1	0.226750
5.933333	1	0.222875
5.950000	1	0.218000
5.966667	1	0.213625
5.983333	1	0.209125
6.000000	1	0.204250
6.016667	1	0.199375
6.033333	1	0.194000
6.050000	1	0.189000
6.066667	1	0.183750
6.083333	1	0.178750
6.100000	1	0.173875
6.116667	1	0.168750
6.133333	1	0.163875
6.150000	1	0.158875
6.166667	1	0.154125
6.183333	1	0.150125
6.200000	1	0.145250
6.216667	1	0.140750
6.233333	1	0.137000
6.250000	1	0.133000
6.266667	1	0.129250
6.283333	1	0.125625
6.300000	1	0.121125
6.316667	1	0.117625
6.333333	1	0.113875
6.350000	1	0.111000
6.366667	1	0.107625
6.383333	1	0.104750
6.400000	1	0.102375
6.416667	1	0.100250
6.433333	1	0.097500
6.450000	1	0.095375
6.466667	1	0.093000
6.483333	1	0.091250
6.500000	1	0.089625
6.516667	1	0.088125
6.533333	1	0.085625
6.550000	1	0.084750
6.566667	1	0.083125
6.583333	1	0.083125
6.600000	1	0.082625
6.616667	1	0.082250
6.633333	1	0.081875
6.650000	1	0.080875
6.666667	1	0.080625
6.683333	1	0.080125
6.700000	1	0.079875
6.716667	1	0.080125
6.733333	1	0.080125
6.750000	1	0.081000
6.766667	1	0.081500
6.783333	1	0.081000
6.800000	1	0.081625
6.816667	1	0.082250
6.833333	1	0.082750
6.850000	1	0.083750
6.866667	1	0.084625
6.883333	1	0.084875
6.900000	1	0.086000
6.916667	1	0.086750
6.933333	1	0.087375
6.950000	1	0.088000
6.966667	1	0.088875
6.983333	1	0.089500
7.000000	1	0.090625
7.016667	1	0.091250
7.033333	1	0.093000
7.050000	1	0.094000
7.066667	1	0.095125
7.083333	1	0.096500
7.100000	1	0.097375
7.116667	1	0.098375
7.133333	1	0.100125
7.150000	1	0.101875
7.166667	1	0.103500
7.183333	1	0.105000
7.200000	1	0.106375
7.216667	1	0.107250
7.233333	1	0.108000
7.250000	1	0.109000
7.266667	1	0.110625
7.283333	1	0.112375
7.300000	1	0.113625
7.316667	1	0.114875
7.333333	1	0.116125
7.350000	1	0.117500
7.366667	1	0.118875
7.383333	1	0.120250
7.400000	1	0.120875
7.416667	1	0.122000
7.433333	1	0.122125
7.450000	1	0.121500
7.466667	1	0.121500
7.483333	1	0.121250
7.500000	1	0.120500
7.516667	1	0.119500
7.533333	1	0.118625
7.550000	1	0.117625
7.566667	1	0.116500
7.583333	1	0.115125
7.600000	1	0.113375
7.616667	1	0.111250
7.633333	1	0.108750
7.650000	1	0.106000
7.666667	1	0.103625
7.683333	1	0.100375
7.700000	1	0.097250
7.716667	1	0.093625
7.733333	1	0.090125
7.750000	1	0.086875
7.766667	1	0.083125
7.783333	1	0.079000
7.800000	1	0.075500
7.816667	1	0.071875
7.833333	1	0.067250
7.850000	1	0.063750
7.866667	1	0.059750
7.883333	1	0.055500
7.900000	1	0.051000
7.916667	1	0.047625
7.933333	1	0.044500
7.950000	1	0.041250
7.966667	1	0.038500
7.983333	1	0.035250
8.000000	1	0.032250
8.016667	1	0.029125
8.033333	1	0.026375
8.050000	1	0.024000
8.066667	1	0.021375
8.083333	1	0.019250
8.100000	1	0.017250
8.116667	1	0.016000
8.133333	1	0.014500
8.150000	1	0.013375
8.166667	1	0.012500
8.183333	1	0.011875
8.200000	1	0.011875
8.216667	1	0.011125
8.233333	1	0.010875
8.250000	1	0.010875
8.266667	1	0.011375
8.283333	1	0.011250
8.300000	1	0.011750
8.316667	1	0.012625
8.333333	1	0.013250
8.350000	1	0.013750
8.366667	1	0.014375
8.383333	1	0.014875
8.400000	1	0.015875
8.416667	1	0.016875
8.433333	1	0.017625
8.450000	1	0.018375
8.466667	1	0.019250
8.483333	1	0.020500
8.500000	1	0.021750
8.516667	1	0.022125
8.533333	1	0.023000
8.550000	1	0.024125
8.566667	1	0.024750
8.583333	1	0.025375
8.600000	1	0.026500
8.616667	1	0.028000
8.633333	1	0.029250
8.650000	1	0.031000
8.666667	1	0.031750
8.683333	1	0.032625
8.700000	1	0.033875
8.716667	1	0.035375
8.733333	1	0.036375
8.750000	1	0.037125
8.766667	1	0.037625
8.783333	1	0.038500
8.800000	1	0.040000
8.816667	1	0.041000
8.833333	1	0.041750
8.850000	1	0.041750
8.866667	1	0.042500
8.883333	1	0.042875
8.900000	1	0.043500
8.916667	1	0.043625
8.933333	1	0.043875
8.950000	1	0.044000
8.966667	1	0.044250
8.983333	1	0.045250
9.000000	1	0.045375
9.016667	1	0.045375
9.033333	1	0.046125
9.050000	1	0.045375
9.066667	1	0.045750
9.083333	1	0.045375
9.100000	1	0.045375
9.116667	1	0.045500
9.133333	1	0.045375
9.150000	1	0.045375
9.166667	1	0.046000
9.183333	1	0.045625
9.200000	1	0.045375
9.216667	1	0.045000
9.233333	1	0.044500
9.250000	1	0.044125
9.266667	1	0.043375
9.283333	1	0.043250
9.300000	1	0.043125
9.316667	1	0.042875
9.333333	1	0.043125
9.350000	1	0.041750
9.366667	1	0.041375
9.383333	1	0.040750
9.400000	1	0.039500
9.416667	1	0.038875
9.433333	1	0.038625
9.450000	1	0.037250
9.466667	1	0.035375
9.483333	1	0.034250
9.500000	1	0.033125
9.516667	1	0.032125
9.533333	1	0.031250
9.550000	1	0.030500
9.566667	1	0.029000
9.583333	1	0.028000
9.600000	1	0.026125
9.616667	1	0.025250
9.633333	1	0.023625
9.650000	1	0.021625
9.666667	1	0.020875
9.683333	1	0.020000
9.700000	1	0.018625
9.716667	1	0.017375
9.733333	1	0.016125
9.750000	1	0.014875
9.766667	1	0.013875
9.783333	1	0.012375
9.800000	1	0.011375
9.816667	1	0.010375
9.833333	1	0.009500
9.850000	1	0.008500
9.866667	1	0.007500
9.883333	1	0.005625
9.900000	1	0.004125
9.916667	1	0.003000
9.933333	1	0.002000
9.950000	1	0.001750
9.966667	1	0.000875
9.983333	1	-0.000250
10.000000	1	-0.001375
10.016667	1	-0.002250
10.033333	1	-0.002500
10.050000	1	-0.002250
10.066667	1	-0.002125
10.083333	1	-0.001750
10.100000	1	-0.000500
10.116667	1	0.001125
10.133333	1	0.003375
10.150000	1	0.006500
10.166667	1	0.011125
10.183333	1	0.017000
10.200000	1	0.024250
10.216667	1	0.032875
10.233333	1	0.043375
10.250000	1	0.055875
10.266667	1	0.070125
10.283333	1	0.086125
10.300000	1	0.104750
10.316667	1	0.126500
10.333333	1	0.150375
10.350000	1	0.176750
10.366667	1	0.204375
10.383333	1	0.231250
10.400000	1	0.255625
10.416667	1	0.274000
10.433333	1	0.285750
10.450000	1	0.288875
10.466667	1	0.282875
10.483333	1	0.272625
10.500000	1	0.268000
10.516667	1	0.286625
10.533333	1	0.357500
10.550000	1	0.519625
10.566667	1	0.824000
10.583333	1	1.329625
10.600000	1	2.100750
10.616667	1	3.197875
10.633333	1	4.670250
10.650000	1	6.557500
10.666667	1	8.882625
10.683333	1	11.651875
10.700000	1	14.857250
10.716667	1	18.470250
10.733333	1	22.443750
10.750000	1	26.705000
10.766667	1	31.140000
10.783333	1	35.600375
10.800000	1	39.876750
10.816667	1	43.691625
10.833333	1	46.708500
10.850000	1	48.575500
10.866667	1	48.992625
10.883333	1	47.804000
10.900000	1	45.070375
10.916667	1	41.079125
10.933333	1	36.277375
10.950000	1	31.151875
10.966667	1	26.127750
10.983333	1	21.502875
11.000000	1	17.442500
11.016667	1	14.006250
11.033333	1	11.183125
11.050000	1	8.916000
11.066667	1	7.127625
11.083333	1	5.735625
11.100000	1	4.663250
11.116667	1	3.841000
11.133333	1	3.214000
11.150000	1	2.734625
11.166667	1	2.368125
11.183333	1	2.087375
11.200000	1	1.872000
11.216667	1	1.705500
11.233333	1	1.576125
11.250000	1	1.474250
11.266667	1	1.394625
11.283333	1	1.327875
11.300000	1	1.272500
11.316667	1	1.225000
11.333333	1	1.182875
11.350000	1	1.144625
11.366667	1	1.109625
11.383333	1	1.076625
11.400000	1	1.046000
11.416667	1	1.018125
11.433333	1	0.992125
11.450000	1	0.968625
11.466667	1	0.948625
11.483333	1	0.931500
11.500000	1	0.916625
11.516667	1	0.905500
11.533333	1	0.897375
11.550000	1	0.892375
11.566667	1	0.891625
11.583333	1	0.894500
11.600000	1	0.901000
11.616667	1	0.912375
11.633333	1	0.927625
11.650000	1	0.947000
11.666667	1	0.970000
11.683333	1	0.996375
11.700000	1	1.025375
11.716667	1	1.054875
11.733333	1	1.083875
11.750000	1	1.111250
11.766667	1	1.135625
11.783333	1	1.156500
11.800000	1	1.171500
11.816667	1	1.181000
11.833333	1	1.184375
11.850000	1	1.184250
11.866667	1	1.178750
11.883333	1	1.170000
11.900000	1	1.158250
11.916667	1	1.144250
11.933333	1	1.130125
11.950000	1	1.115625
11.966667	1	1.102250
11.983333	1	1.089750
12.000000	1	1.079625
12.016667	1	1.071000
12.033333	1	1.064375
12.050000	1	1.060000
12.066667	1	1.057000
12.083333	1	1.055500
12.100000	1	1.055250
12.116667	1	1.057000
12.133333	1	1.059750
12.150000	1	1.063750
12.166667	1	1.069750
12.183333	1	1.076875
12.200000	1	1.084875
12.216667	1	1.096000
12.233333	1	1.109875
12.250000	1	1.127750
12.266667	1	1.150875
12.283333	1	1.180125
12.300000	1	1.220625
12.316667	1	1.274875
12.333333	1	1.347750
12.350000	1	1.444500
12.366667	1	1.574000
12.383333	1	1.747625
12.400000	1	1.980750
12.416667	1	2.293375
12.433333	1	2.711000
12.450000	1	3.267750
12.466667	1	4.009500
12.483333	1	4.990625
12.500000	1	6.278625
12.516667	1	7.950125
12.533333	1	10.090000
12.550000	1	12.780250
12.566667	1	16.095375
12.583333	1	20.087375
12.600000	1	24.772875
12.616667	1	30.116125
12.633333	1	36.027500
12.650000	1	42.358000
12.666667	1	48.897125
12.683333	1	55.377875
12.700000	1	61.499625
12.716667	1	66.954625
12.733333	1	71.458375
12.750000	1	74.782625
12.766667	1	76.781250
12.783333	1	77.397750
12.800000	1	76.669875
12.816667	1	74.730500
12.833333	1	71.775375
12.850000	1	68.045625
12.866667	1	63.800125
12.883333	1	59.299375
12.900000	1	54.781000
12.916667	1	50.442500
12.933333	1	46.437375
12.950000	1	42.866000
12.966667	1	39.784000
12.983333	1	37.207500
13.000000	1	35.126125
13.016667	1	33.509375
13.033333	1	32.313750
13.050000	1	31.490000
13.066667	1	30.989625
13.083333	1	30.764000
13.100000	1	30.773625
13.116667	1	30.979250
13.133333	1	31.347875
13.150000	1	31.851125
13.166667	1	32.466125
13.183333	1	33.174500
13.200000	1	33.959750
13.216667	1	34.810250
13.233333	1	35.715875
13.250000	1	36.670125
13.266667	1	37.668125
13.283333	1	38.704750
13.300000	1	39.777125
13.316667	1	40.883125
13.333333	1	42.019750
13.350000	1	43.186625
13.366667	1	44.382500
13.383333	1	45.607250
13.400000	1	46.858250
13.416667	1	48.136625
13.433333	1	49.444125
13.450000	1	50.781000
13.466667	1	52.149250
13.483333	1	53.548875
13.500000	1	54.979000
13.516667	1	56.440625
13.533333	1	57.931250
13.550000	1	59.453750
13.566667	1	61.007500
13.583333	1	62.593125
13.600000	1	64.208625
13.616667	1	65.858000
13.633333	1	67.541500
13.650000	1	69.259875
13.666667	1	71.015000
13.683333	1	72.801000
13.700000	1	74.594500
13.716667	1	76.330000
13.733333	1	77.878250
13.750000	1	79.056375
13.766667	1	79.664125
13.783333	1	79.525250
13.800000	1	78.499625
13.816667	1	76.449000
13.833333	1	73.202500
13.850000	1	68.572625
13.866667	1	62.486500
13.883333	1	55.156625
13.900000	1	47.131375
13.916667	1	39.147375
13.933333	1	31.842500
13.950000	1	25.583125
13.966667	1	20.465750
13.983333	1	16.408000
14.000000	1	13.253250
14.016667	1	10.833750
14.033333	1	9.001125
14.050000	1	7.628375
14.066667	1	6.609500
14.083333	1	5.855500
14.100000	1	5.296250
14.116667	1	4.876875
14.133333	1	4.557000
14.150000	1	4.309000
14.166667	1	4.112000
14.183333	1	3.952000
14.200000	1	3.817125
14.216667	1	3.702500
14.233333	1	3.603375
14.250000	1	3.515750
14.266667	1	3.436750
14.283333	1	3.364250
14.300000	1	3.298125
14.316667	1	3.236625
14.333333	1	3.179750
14.350000	1	3.127125
14.366667	1	3.078375
14.383333	1	3.033250
14.400000	1	2.992000
14.416667	1	2.953000
14.433333	1	2.917875
14.450000	1	2.884375
14.466667	1	2.853500
14.483333	1	2.825000
14.500000	1	2.797250
14.516667	1	2.771250
14.533333	1	2.745625
14.550000	1	2.720250
14.566667	1	2.696000
14.583333	1	2.671625
14.600000	1	2.647375
14.616667	1	2.622000
14.633333	1	2.595625
14.650000	1	2.569125
14.666667	1	2.542000
14.683333	1	2.514750
14.700000	1	2.486625
14.716667	1	2.458750
14.733333	1	2.431375
14.750000	1	2.404625
14.766667	1	2.378125
14.783333	1	2.351875
14.800000	1	2.326250
14.816667	1	2.301250
14.833333	1	2.276250
14.850000	1	2.251125
14.866667	1	2.225375
14.883333	1	2.199250
14.900000	1	2.172500
14.916667	1	2.146375
14.933333	1	2.119000
14.950000	1	2.091000
14.966667	1	2.062750
14.983333	1	2.034500
15.000000	1	2.006375
15.016667	1	1.978500
15.033333	1	1.951125
15.050000	1	1.924625
15.066667	1	1.899625
15.083333	1	1.875375
15.100000	1	1.852125
15.116667	1	1.829375
15.133333	1	1.808500
15.150000	1	1.789750
15.166667	1	1.771625
15.183333	1	1.755500
15.200000	1	1.740250
15.216667	1	1.726625
15.233333	1	1.714375
15.250000	1	1.705000
15.266667	1	1.697250
15.283333	1	1.691625
15.300000	1	1.689500
15.316667	1	1.690125
15.333333	1	1.695625
15.350000	1	1.705375
15.366667	1	1.720250
15.383333	1	1.740375
15.400000	1	1.765500
15.416667	1	1.796250
15.433333	1	1.829000
15.450000	1	1.865000
15.466667	1	1.902250
15.483333	1	1.937750
15.500000	1	1.970375
15.516667	1	1.998125
15.533333	1	2.018875
15.550000	1	2.031125
15.566667	1	2.034625
15.583333	1	2.028500
15.600000	1	2.013750
15.616667	1	1.991125
15.633333	1	1.961125
15.650000	1	1.925125
15.666667	1	1.884500
15.683333	1	1.843250
15.700000	1	1.800125
15.716667	1	1.757250
15.733333	1	1.715750
15.750000	1	1.675375
15.766667	1	1.637625
15.783333	1	1.601375
15.800000	1	1.567375
15.816667	1	1.534875
15.833333	1	1.504000
15.850000	1	1.474875
15.866667	1	1.446500
15.883333	1	1.419500
15.900000	1	1.394250
15.916667	1	1.370625
15.933333	1	1.349625
15.950000	1	1.330125
15.966667	1	1.312000
15.983333	1	1.297000
16.000000	1	1.284875
16.016667	1	1.274750
16.033333	1	1.265875
16.050000	1	1.259000
16.066667	1	1.253750
16.083333	1	1.250625
16.100000	1	1.249000
16.116667	1	1.247625
16.133333	1	1.247375
16.150000	1	1.248250
16.166667	1	1.250000
16.183333	1	1.250875
16.200000	1	1.252000
16.216667	1	1.252250
16.233333	1	1.251625
16.250000	1	1.250375
16.266667	1	1.248875
16.283333	1	1.246625
16.300000	1	1.242500
16.316667	1	1.238000
16.333333	1	1.232500
16.350000	1	1.226250
16.366667	1	1.219500
16.383333	1	1.213250
16.400000	1	1.206375
16.416667	1	1.200500
16.433333	1	1.194875
16.450000	1	1.190750
16.466667	1	1.187875
16.483333	1	1.187125
16.500000	1	1.188250
16.516667	1	1.190000
16.533333	1	1.193875
16.550000	1	1.199750
16.566667	1	1.206750
16.583333	1	1.214875
16.600000	1	1.222625
16.616667	1	1.230250
16.633333	1	1.237250
16.650000	1	1.243750
16.666667	1	1.248750
16.683333	1	1.252750
16.700000	1	1.255500
16.716667	1	1.257375
16.733333	1	1.257750
16.750000	1	1.258875
16.766667	1	1.259625
16.783333	1	1.260750
16.800000	1	1.262750
16.816667	1	1.265625
16.833333	1	1.269375
16.850000	1	1.273500
16.866667	1	1.278375
16.883333	1	1.283375
16.900000	1	1.288375
16.916667	1	1.292500
16.933333	1	1.296125
16.950000	1	1.298625
16.966667	1	1.300625
16.983333	1	1.300125
17.000000	1	1.298750
17.016667	1	1.295875
17.033333	1	1.292500
17.050000	1	1.288625
17.066667	1	1.284875
17.083333	1	1.280625
17.100000	1	1.276500
17.116667	1	1.273875
17.133333	1	1.271875
17.150000	1	1.270375
17.166667	1	1.271125
17.183333	1	1.273375
17.200000	1	1.277250
17.216667	1	1.282875
17.233333	1	1.291375
17.250000	1	1.301500
17.266667	1	1.312125
17.283333	1	1.325500
17.300000	1	1.339750
17.316667	1	1.354750
17.333333	1	1.370250
17.350000	1	1.384875
17.366667	1	1.399000
17.383333	1	1.412375
17.400000	1	1.424875
17.416667	1	1.434250
17.433333	1	1.441625
17.450000	1	1.445625
17.466667	1	1.447125
17.483333	1	1.445375
17.500000	1	1.439500
17.516667	1	1.430625
17.533333	1	1.420000
17.550000	1	1.405500
17.566667	1	1.389125
17.583333	1	1.370500
17.600000	1	1.350875
17.616667	1	1.330875
17.633333	1	1.309375
17.650000	1	1.286750
17.666667	1	1.264750
17.683333	1	1.242625
17.700000	1	1.221625
17.716667	1	1.201125
17.733333	1	1.180750
17.750000	1	1.162125
17.766667	1	1.144000
17.783333	1	1.126500
17.800000	1	1.110000
17.816667	1	1.094250
17.833333	1	1.079625
17.850000	1	1.064875
17.866667	1	1.050875
17.883333	1	1.038375
17.900000	1	1.026375
17.916667	1	1.015875
17.933333	1	1.005750
17.950000	1	0.995250
17.966667	1	0.985250
17.983333	1	0.976125
18.000000	1	0.966875
18.016667	1	0.957875
18.033333	1	0.949375
18.050000	1	0.940750
18.066667	1	0.931750
18.083333	1	0.923500
18.100000	1	0.915250
18.116667	1	0.906875
18.133333	1	0.898875
18.150000	1	0.891625
18.166667	1	0.884750
18.183333	1	0.878250
18.200000	1	0.872375
18.216667	1	0.867625
18.233333	1	0.863125
18.250000	1	0.860250
18.266667	1	0.857000
18.283333	1	0.854625
18.300000	1	0.853500
18.316667	1	0.852625
18.333333	1	0.851375
18.350000	1	0.851375
18.366667	1	0.851375
18.383333	1	0.852250
18.400000	1	0.853500
18.416667	1	0.854750
18.433333	1	0.857875
18.450000	1	0.861375
18.466667	1	0.866375
18.483333	1	0.871750
18.500000	1	0.879750
18.516667	1	0.888375
18.533333	1	0.900125
18.550000	1	0.913125
18.566667	1	0.928375
18.583333	1	0.946500
18.600000	1	0.966375
18.616667	1	0.988000
18.633333	1	1.012125
18.650000	1	1.037625
18.666667	1	1.064875
18.683333	1	1.094750
18.700000	1	1.126625
18.716667	1	1.159250
18.733333	1	1.193000
18.750000	1	1.227500
18.766667	1	1.263125
18.783333	1	1.299625
18.800000	1	1.335500
18.816667	1	1.370250
18.833333	1	1.404125
18.850000	1	1.435500
18.866667	1	1.464250
18.883333	1	1.487000
18.900000	1	1.507250
18.916667	1	1.522125
18.933333	1	1.532375
18.950000	1	1.535500
18.966667	1	1.531750
18.983333	1	1.520625
19.000000	1	1.503500
19.016667	1	1.478750
19.033333	1	1.448250
19.050000	1	1.412125
19.066667	1	1.370500
19.083333	1	1.324625
19.100000	1	1.275875
19.116667	1	1.225125
19.133333	1	1.174000
19.150000	1	1.121750
19.166667	1	1.072000
19.183333	1	1.023375
19.200000	1	0.978000
19.216667	1	0.936000
19.233333	1	0.898125
19.250000	1	0.865500
19.266667	1	0.837875
19.283333	1	0.815125
19.300000	1	0.798625
19.316667	1	0.788000
19.333333	1	0.783625
19.350000	1	0.784250
19.366667	1	0.790875
19.383333	1	0.802625
19.400000	1	0.819625
19.416667	1	0.841125
19.433333	1	0.866250
19.450000	1	0.893875
19.466667	1	0.924125
19.483333	1	0.955625
19.500000	1	0.987375
19.516667	1	1.018750
19.533333	1	1.047750
19.550000	1	1.074625
19.566667	1	1.097500
19.583333	1	1.115875
19.600000	1	1.128500
19.616667	1	1.135625
19.633333	1	1.136625
19.650000	1	1.131125
19.666667	1	1.119750
19.683333	1	1.102750
19.700000	1	1.081000
19.716667	1	1.056000
19.733333	1	1.026875
19.750000	1	0.995250
19.766667	1	0.962000
19.783333	1	0.927500
19.800000	1	0.892375
19.816667	1	0.858375
19.833333	1	0.825125
19.850000	1	0.793875
19.866667	1	0.764375
19.883333	1	0.735875
19.900000	1	0.709625
19.916667	1	0.686375
19.933333	1	0.665250
19.950000	1	0.647000
19.966667	1	0.630750
19.983333	1	0.616375
20.000000	1	0.604625
20.016667	1	0.594375
20.033333	1	0.586875
20.050000	1	0.581500
20.066667	1	0.578000
20.083333	1	0.576250
20.100000	1	0.577875
20.116667	1	0.581625
20.133333	1	0.587750
20.150000	1	0.596000
20.166667	1	0.605500
20.183333	1	0.617125
20.200000	1	0.630500
20.216667	1	0.645000
20.233333	1	0.659625
20.250000	1	0.674625
20.266667	1	0.689500
20.283333	1	0.703125
20.300000	1	0.715625
20.316667	1	0.726000
20.333333	1	0.734625
20.350000	1	0.740000
20.366667	1	0.742250
20.383333	1	0.741625
20.400000	1	0.738125
20.416667	1	0.732125
20.433333	1	0.722625
20.450000	1	0.712125
20.466667	1	0.700625
20.483333	1	0.689125
20.500000	1	0.678000
20.516667	1	0.667250
20.533333	1	0.660125
20.550000	1	0.655625
20.566667	1	0.654875
20.583333	1	0.660000
20.600000	1	0.671125
20.616667	1	0.688375
20.633333	1	0.713125
20.650000	1	0.744625
20.666667	1	0.784875
20.683333	1	0.832125
20.700000	1	0.887500
20.716667	1	0.949750
20.733333	1	1.017625
20.750000	1	1.091250
20.766667	1	1.168000
20.783333	1	1.245875
20.800000	1	1.322875
20.816667	1	1.396625
20.833333	1	1.464125
20.850000	1	1.523000
20.866667	1	1.572250
20.883333	1	1.609750
20.900000	1	1.633750
20.916667	1	1.644125
20.933333	1	1.640500
20.950000	1	1.622375
20.966667	1	1.590250
20.983333	1	1.547000
21.000000	1	1.492750
21.016667	1	1.430500
21.033333	1	1.361750
21.050000	1	1.288250
21.066667	1	1.213125
21.083333	1	1.137625
21.100000	1	1.063125
21.116667	1	0.991250
21.133333	1	0.922500
21.150000	1	0.858625
21.166667	1	0.799375
21.183333	1	0.745875
21.200000	1	0.697375
21.216667	1	0.653750
21.233333	1	0.616000
21.250000	1	0.582750
21.266667	1	0.553625
21.283333	1	0.529000
21.300000	1	0.508625
21.316667	1	0.491250
21.333333	1	0.476375
21.350000	1	0.464125
21.366667	1	0.454125
21.383333	1	0.446250
21.400000	1	0.439750
21.416667	1	0.435000
21.433333	1	0.432125
21.450000	1	0.430000
21.466667	1	0.428875
21.483333	1	0.428875
21.500000	1	0.430125
21.516667	1	0.432750
21.533333	1	0.436875
21.550000	1	0.442625
21.566667	1	0.450000
21.583333	1	0.459500
21.600000	1	0.471500
21.616667	1	0.487000
21.633333	1	0.505000
21.650000	1	0.526875
21.666667	1	0.552000
21.683333	1	0.581750
21.700000	1	0.616125
21.716667	1	0.655500
21.733333	1	0.699625
21.750000	1	0.749500
21.766667	1	0.804125
21.783333	1	0.863500
21.800000	1	0.928250
21.816667	1	0.996375
21.833333	1	1.068125
21.850000	1	1.142125
21.866667	1	1.217750
21.883333	1	1.293125
21.900000	1	1.367625
21.916667	1	1.438750
21.933333	1	1.505000
21.950000	1	1.565875
21.966667	1	1.619125
21.983333	1	1.663375
22.000000	1	1.698000
22.016667	1	1.721875
22.033333	1	1.733750
22.050000	1	1.734500
22.066667	1	1.724375
22.083333	1	1.704000
22.100000	1	1.673125
22.116667	1	1.633000
22.133333	1	1.584750
22.150000	1	1.530375
22.166667	1	1.470375
22.183333	1	1.406000
22.200000	1	1.339875
22.216667	1	1.273000
22.233333	1	1.205375
22.250000	1	1.139500
22.266667	1	1.074500
22.283333	1	1.012250
22.300000	1	0.952375
22.316667	1	0.896250
22.333333	1	0.843250
22.350000	1	0.793250
22.366667	1	0.746875
22.383333	1	0.703875
22.400000	1	0.663750
22.416667	1	0.627625
22.433333	1	0.594750
22.450000	1	0.564750
22.466667	1	0.537625
22.483333	1	0.512875
22.500000	1	0.491125
22.516667	1	0.471250
22.533333	1	0.453875
22.550000	1	0.438125
22.566667	1	0.424375
22.583333	1	0.411375
22.600000	1	0.400000
22.616667	1	0.389875
22.633333	1	0.381250
22.650000	1	0.372875
22.666667	1	0.364750
22.683333	1	0.357625
22.700000	1	0.351375
22.716667	1	0.345625
22.733333	1	0.339875
22.750000	1	0.334500
22.766667	1	0.329250
22.783333	1	0.324750
22.800000	1	0.320125
22.816667	1	0.315625
22.833333	1	0.311500
22.850000	1	0.307375
22.866667	1	0.303500
22.883333	1	0.299875
22.900000	1	0.296500
22.916667	1	0.293625
22.933333	1	0.291250
22.950000	1	0.289000
22.966667	1	0.286750
22.983333	1	0.284750
23.000000	1	0.282875
23.016667	1	0.281875
23.033333	1	0.280875
23.050000	1	0.280375
23.066667	1	0.279875
23.083333	1	0.280500
23.100000	1	0.281750
23.116667	1	0.282000
23.133333	1	0.282875
23.150000	1	0.285000
23.166667	1	0.286500
23.183333	1	0.287750
23.200000	1	0.290000
23.216667	1	0.292625
23.233333	1	0.295250
23.250000	1	0.299000
23.266667	1	0.302625
23.283333	1	0.307125
23.300000	1	0.314000
23.316667	1	0.322250
23.333333	1	0.331875
23.350000	1	0.344125
23.366667	1	0.358875
23.383333	1	0.377125
23.400000	1	0.400750
23.416667	1	0.429375
23.433333	1	0.463625
23.450000	1	0.505750
23.466667	1	0.556625
23.483333	1	0.617250
23.500000	1	0.688875
23.516667	1	0.773000
23.533333	1	0.870625
23.550000	1	0.983750
23.566667	1	1.112875
23.583333	1	1.259500
23.600000	1	1.423875
23.616667	1	1.605375
23.633333	1	1.803875
23.650000	1	2.018625
23.666667	1	2.248250
23.683333	1	2.491125
23.700000	1	2.743875
23.716667	1	3.003250
23.733333	1	3.264500
23.750000	1	3.522875
23.766667	1	3.773750
23.783333	1	4.011250
23.800000	1	4.229500
23.816667	1	4.424750
23.833333	1	4.592375
23.850000	1	4.727375
23.866667	1	4.827375
23.883333	1	4.890750
23.900000	1	4.915000
23.916667	1	4.900750
23.933333	1	4.848500
23.950000	1	4.760875
23.966667	1	4.639875
23.983333	1	4.489125
24.000000	1	4.313625
24.016667	1	4.118000
24.033333	1	3.906125
24.050000	1	3.683875
24.066667	1	3.455375
24.083333	1	3.223875
24.100000	1	2.993125
24.116667	1	2.766000
24.133333	1	2.547375
24.150000	1	2.337500
24.166667	1	2.139000
24.183333	1	1.951500
24.200000	1	1.778250
24.216667	1	1.617875
24.233333	1	1.472250
24.250000	1	1.339375
24.266667	1	1.219500
24.283333	1	1.111500
24.300000	1	1.015750
24.316667	1	0.930875
24.333333	1	0.856375
24.350000	1	0.790375
24.366667	1	0.733500
24.383333	1	0.684500
24.400000	1	0.642875
24.416667	1	0.607875
24.433333	1	0.577875
24.450000	1	0.553375
24.466667	1	0.532875
24.483333	1	0.516375
24.500000	1	0.503500
24.516667	1	0.492875
24.533333	1	0.485125
24.550000	1	0.479000
24.566667	1	0.474125
24.583333	1	0.469875
24.600000	1	0.466875
24.616667	1	0.464750
24.633333	1	0.462500
24.650000	1	0.460125
24.666667	1	0.458000
24.683333	1	0.456000
24.700000	1	0.453500
24.716667	1	0.449625
24.733333	1	0.446125
24.750000	1	0.441750
24.766667	1	0.437750
24.783333	1	0.433125
24.800000	1	0.429000
24.816667	1	0.424125
24.833333	1	0.419750
24.850000	1	0.414250
24.866667	1	0.409000
24.883333	1	0.403250
24.900000	1	0.398250
24.916667	1	0.393375
24.933333	1	0.389125
24.950000	1	0.384625
24.966667	1	0.379625
24.983333	1	0.374750
25.000000	1	0.369750
25.016667	1	0.365500
25.033333	1	0.361250
25.050000	1	0.357000
25.066667	1	0.352375
25.083333	1	0.348625
25.100000	1	0.344125
25.116667	1	0.340000
25.133333	1	0.336125
25.150000	1	0.331625
25.166667	1	0.327375
25.183333	1	0.323750
25.200000	1	0.319250
25.216667	1	0.315000
25.233333	1	0.310625
25.250000	1	0.307125
25.266667	1	0.303375
25.283333	1	0.299500
25.300000	1	0.296500
25.316667	1	0.293000
25.333333	1	0.290375
25.350000	1	0.287750
25.366667	1	0.285250
25.383333	1	0.282875
25.400000	1	0.281250
25.416667	1	0.279125
25.433333	1	0.277375
25.450000	1	0.276250
25.466667	1	0.275375
25.483333	1	0.275250
25.500000	1	0.275625
25.516667	1	0.275875
25.533333	1	0.276125
25.550000	1	0.276875
25.566667	1	0.278000
25.583333	1	0.278625
25.600000	1	0.279500
25.616667	1	0.280000
25.633333	1	0.280500
25.650000	1	0.281625
25.666667	1	0.283250
25.683333	1	0.283625
25.700000	1	0.284375
25.716667	1	0.285125
25.733333	1	0.286500
25.750000	1	0.288375
25.766667	1	0.289250
25.783333	1	0.290125
25.800000	1	0.291125
25.816667	1	0.292750
25.833333	1	0.294250
25.850000	1	0.296125
25.866667	1	0.297875
25.883333	1	0.300250
25.900000	1	0.302750
25.916667	1	0.305250
25.933333	1	0.307875
25.950000	1	0.310875
25.966667	1	0.314250
25.983333	1	0.318500
26.000000	1	0.322625
26.016667	1	0.327125
26.033333	1	0.332125
26.050000	1	0.337000
26.066667	1	0.342125
26.083333	1	0.347625
26.100000	1	0.353125
26.116667	1	0.358500
26.133333	1	0.363375
26.150000	1	0.368250
26.166667	1	0.373500
26.183333	1	0.378125
26.200000	1	0.383375
26.216667	1	0.387375
26.233333	1	0.390625
26.250000	1	0.394375
26.266667	1	0.397000
26.283333	1	0.398500
26.300000	1	0.400000
26.316667	1	0.400625
26.333333	1	0.400125
26.350000	1	0.398875
26.366667	1	0.396250
26.383333	1	0.393750
26.400000	1	0.390375
26.416667	1	0.386625
26.433333	1	0.381875
26.450000	1	0.376875
26.466667	1	0.371625
26.483333	1	0.365625
26.500000	1	0.358875
26.516667	1	0.351250
26.533333	1	0.343875
26.550000	1	0.336375
26.566667	1	0.328500
26.583333	1	0.320250
26.600000	1	0.312375
26.616667	1	0.304000
26.633333	1	0.296125
26.650000	1	0.288000
26.666667	1	0.280000
26.683333	1	0.272125
26.700000	1	0.264750
26.716667	1	0.258000
26.733333	1	0.251000
26.750000	1	0.244375
26.766667	1	0.237375
26.783333	1	0.231375
26.800000	1	0.226125
26.816667	1	0.221125
26.833333	1	0.216375
26.850000	1	0.212000
26.866667	1	0.208125
26.883333	1	0.204750
26.900000	1	0.201375
26.916667	1	0.198750
26.933333	1	0.196875
26.950000	1	0.195625
26.966667	1	0.194750
26.983333	1	0.194500
27.000000	1	0.194250
27.016667	1	0.195125
27.033333	1	0.197375
27.050000	1	0.199625
27.066667	1	0.202250
27.083333	1	0.206625
27.100000	1	0.210875
27.116667	1	0.216000
27.133333	1	0.223625
27.150000	1	0.232250
27.166667	1	0.243000
27.183333	1	0.254375
27.200000	1	0.267125
27.216667	1	0.282875
27.233333	1	0.300250
27.250000	1	0.320500
27.266667	1	0.343750
27.283333	1	0.370125
27.300000	1	0.400750
27.316667	1	0.435000
27.333333	1	0.474625
27.350000	1	0.519125
27.366667	1	0.570375
27.383333	1	0.628125
27.400000	1	0.693000
27.416667	1	0.765750
27.433333	1	0.846500
27.450000	1	0.936625
27.466667	1	1.036500
27.483333	1	1.146250
27.500000	1	1.266875
27.516667	1	1.397000
27.533333	1	1.537750
27.550000	1	1.688250
27.566667	1	1.848125
27.583333	1	2.015500
27.600000	1	2.190875
27.616667	1	2.372375
27.633333	1	2.558625
27.650000	1	2.747250
27.666667	1	2.936375
27.683333	1	3.123875
27.700000	1	3.306500
27.716667	1	3.481625
27.733333	1	3.646750
27.750000	1	3.799125
27.766667	1	3.936125
27.783333	1	4.054875
27.800000	1	4.153375
27.816667	1	4.229250
27.833333	1	4.281000
27.850000	1	4.308250
27.866667	1	4.309500
27.883333	1	4.285000
27.900000	1	4.235125
27.916667	1	4.160250
27.933333	1	4.062125
27.950000	1	3.943000
27.966667	1	3.804000
27.983333	1	3.648625
28.000000	1	3.480125
28.016667	1	3.300375
28.033333	1	3.113375
28.050000	1	2.921875
28.066667	1	2.727750
28.083333	1	2.533875
28.100000	1	2.342500
28.116667	1	2.156625
28.133333	1	1.977625
28.150000	1	1.806750
28.166667	1	1.645500
28.183333	1	1.495000
28.200000	1	1.355000
28.216667	1	1.226625
28.233333	1	1.108875
28.250000	1	1.001250
28.266667	1	0.905125
28.283333	1	0.819125
28.300000	1	0.742000
28.316667	1	0.673750
28.333333	1	0.615250
28.350000	1	0.564250
28.366667	1	0.520875
28.383333	1	0.485125
28.400000	1	0.455375
28.416667	1	0.430875
28.433333	1	0.411750
28.450000	1	0.397250
28.466667	1	0.386750
28.483333	1	0.380500
28.500000	1	0.376875
28.516667	1	0.376750
28.533333	1	0.378625
28.550000	1	0.383125
28.566667	1	0.389750
28.583333	1	0.398375
28.600000	1	0.407625
28.616667	1	0.418750
28.633333	1	0.430625
28.650000	1	0.443125
28.666667	1	0.456750
28.683333	1	0.470500
28.700000	1	0.482375
28.716667	1	0.495375
28.733333	1	0.508125
28.750000	1	0.520000
28.766667	1	0.531500
28.783333	1	0.542250
28.800000	1	0.552375
28.816667	1	0.561000
28.833333	1	0.568625
28.850000	1	0.575875
28.866667	1	0.581250
28.883333	1	0.585625
28.900000	1	0.588625
28.916667	1	0.589875
28.933333	1	0.590875
28.950000	1	0.590375
28.966667	1	0.588500
28.983333	1	0.584875
29.000000	1	0.580875
29.016667	1	0.575750
29.033333	1	0.568875
29.050000	1	0.561750
29.066667	1	0.553000
29.083333	1	0.543250
29.100000	1	0.532625
29.116667	1	0.520875
29.133333	1	0.508625
29.150000	1	0.495500
29.166667	1	0.482125
29.183333	1	0.468625
29.200000	1	0.454375
29.216667	1	0.440375
29.233333	1	0.426000
29.250000	1	0.411750
29.266667	1	0.397875
29.283333	1	0.382875
29.300000	1	0.368750
29.316667	1	0.354375
29.333333	1	0.340625
29.350000	1	0.327250
29.366667	1	0.313875
29.383333	1	0.300625
29.400000	1	0.288750
29.416667	1	0.276750
29.433333	1	0.264500
29.450000	1	0.253875
29.466667	1	0.243500
29.483333	1	0.233375
29.500000	1	0.223250
29.516667	1	0.213750
29.533333	1	0.204750
29.550000	1	0.196500
29.566667	1	0.188250
29.583333	1	0.181125
29.600000	1	0.173750
29.616667	1	0.167500
29.633333	1	0.161500
29.650000	1	0.155625
29.666667	1	0.150250
29.683333	1	0.145000
29.700000	1	0.140750
29.716667	1	0.136625
29.733333	1	0.133000
29.750000	1	0.129750
29.766667	1	0.126750
29.783333	1	0.123875
29.800000	1	0.121875
29.816667	1	0.119250
29.833333	1	0.117375
29.850000	1	0.115250
29.866667	1	0.114000
29.883333	1	0.112625
29.900000	1	0.111250
29.916667	1	0.109875
29.933333	1	0.108750
29.950000	1	0.107375
29.966667	1	0.106375
29.983333	1	0.105875
30.000000	1	0.105375
30.016667	1	0.105000
30.033333	1	0.103750
30.050000	1	0.103875
30.066667	1	0.104125
30.083333	1	0.104250
30.100000	1	0.104375
30.116667	1	0.104375
30.133333	1	0.104625
30.150000	1	0.105125
30.166667	1	0.105000
30.183333	1	0.105125
30.200000	1	0.105875
30.216667	1	0.106625
30.233333	1	0.107500
30.250000	1	0.108250
30.266667	1	0.109125
30.283333	1	0.110000
30.300000	1	0.110375
30.316667	1	0.111125
30.333333	1	0.112500
30.350000	1	0.113875
30.366667	1	0.115375
30.383333	1	0.116625
30.400000	1	0.118750
30.416667	1	0.120500
30.433333	1	0.121500
30.450000	1	0.124125
30.466667	1	0.126250
30.483333	1	0.128875
30.500000	1	0.131375
30.516667	1	0.135500
30.533333	1	0.138750
30.550000	1	0.143000
30.566667	1	0.147375
30.583333	1	0.152375
30.600000	1	0.157625
30.616667	1	0.162875
30.633333	1	0.168750
30.650000	1	0.175125
30.666667	1	0.181625
30.683333	1	0.188875
30.700000	1	0.197500
30.716667	1	0.206250
30.733333	1	0.215375
30.750000	1	0.225125
30.766667	1	0.235125
30.783333	1	0.246250
30.800000	1	0.258250
30.816667	1	0.271750
30.833333	1	0.285875
30.850000	1	0.301500
30.866667	1	0.317375
30.883333	1	0.335250
30.900000	1	0.354750
30.916667	1	0.376500
30.933333	1	0.399625
30.950000	1	0.426000
30.966667	1	0.455125
30.983333	1	0.487000
31.000000	1	0.523250
31.016667	1	0.563250
31.033333	1	0.607250
31.050000	1	0.657750
31.066667	1	0.712875
31.083333	1	0.773375
31.100000	1	0.839875
31.116667	1	0.913625
31.133333	1	0.994500
31.150000	1	1.082000
31.166667	1	1.176625
31.183333	1	1.279625
31.200000	1	1.390375
31.216667	1	1.508750
31.233333	1	1.633750
31.250000	1	1.764875
31.266667	1	1.902500
31.283333	1	2.044750
31.300000	1	2.190625
31.316667	1	2.339250
31.333333	1	2.489250
31.350000	1	2.639375
31.366667	1	2.787500
31.383333	1	2.932375
31.400000	1	3.072500
31.416667	1	3.206500
31.433333	1	3.331125
31.450000	1	3.446250
31.466667	1	3.548250
31.483333	1	3.637000
31.500000	1	3.711125
31.516667	1	3.769875
31.533333	1	3.812875
31.550000	1	3.838500
31.566667	1	3.846875
31.583333	1	3.837125
31.600000	1	3.811000
31.616667	1	3.768250
31.633333	1	3.709875
31.650000	1	3.637000
31.666667	1	3.550500
31.683333	1	3.451250
31.700000	1	3.341000
31.716667	1	3.221750
31.733333	1	3.095875
31.750000	1	2.963625
31.766667	1	2.827250
31.783333	1	2.686625
31.800000	1	2.545375
31.816667	1	2.403000
31.833333	1	2.262000
31.850000	1	2.122250
31.866667	1	1.986375
31.883333	1	1.854500
31.900000	1	1.727500
31.916667	1	1.606250
31.933333	1	1.490500
31.950000	1	1.381375
31.966667	1	1.277375
31.983333	1	1.181125
32.000000	1	1.090375
32.016667	1	1.005500
32.033333	1	0.926625
32.050000	1	0.853625
32.066667	1	0.786500
32.083333	1	0.725625
32.100000	1	0.668750
32.116667	1	0.616125
32.133333	1	0.568375
32.150000	1	0.524500
32.166667	1	0.483250
32.183333	1	0.446000
32.200000	1	0.412500
32.216667	1	0.381250
32.233333	1	0.352625
32.250000	1	0.326125
32.266667	1	0.301375
32.283333	1	0.278875
32.300000	1	0.258625
32.316667	1	0.239250
32.333333	1	0.221750
32.350000	1	0.205250
32.366667	1	0.190000
32.383333	1	0.175875
32.400000	1	0.162625
32.416667	1	0.150750
32.433333	1	0.139750
32.450000	1	0.129125
32.466667	1	0.119500
32.483333	1	0.111000
32.500000	1	0.102625
32.516667	1	0.094625
32.533333	1	0.088125
32.550000	1	0.081750
32.566667	1	0.076250
32.583333	1	0.070875
32.600000	1	0.065750
32.616667	1	0.061500
32.633333	1	0.056875
32.650000	1	0.053500
32.666667	1	0.050000
32.683333	1	0.046500
32.700000	1	0.043125
32.716667	1	0.040375
32.733333	1	0.038125
32.750000	1	0.036500
32.766667	1	0.034375
32.783333	1	0.032000
32.800000	1	0.030500
32.816667	1	0.028750
32.833333	1	0.026875
32.850000	1	0.024625
32.866667	1	0.022875
32.883333	1	0.021625
32.900000	1	0.020000
32.916667	1	0.018875
32.933333	1	0.017750
32.950000	1	0.016500
32.966667	1	0.016125
32.983333	1	0.015125
33.000000	1	0.014875
33.016667	1	0.014375
33.033333	1	0.013125
33.050000	1	0.013000
33.066667	1	0.013125
33.083333	1	0.013625
33.100000	1	0.014250
33.116667	1	0.014625
33.133333	1	0.015625
33.150000	1	0.017250
33.166667	1	0.018875
33.183333	1	0.021125
33.200000	1	0.023500
33.216667	1	0.026250
33.233333	1	0.029500
33.250000	1	0.033125
33.266667	1	0.037125
33.283333	1	0.041500
33.300000	1	0.047125
33.316667	1	0.053500
33.333333	1	0.060750
33.350000	1	0.069250
33.366667	1	0.078375
33.383333	1	0.089000
33.400000	1	0.099500
33.416667	1	0.111375
33.433333	1	0.125500
33.450000	1	0.141375
33.466667	1	0.158750
33.483333	1	0.177500
33.500000	1	0.198500
33.516667	1	0.221375
33.533333	1	0.246250
33.550000	1	0.273875
33.566667	1	0.304250
33.583333	1	0.336125
33.600000	1	0.370875
33.616667	1	0.408500
33.633333	1	0.448750
33.650000	1	0.491875
33.666667	1	0.537250
33.683333	1	0.585375
33.700000	1	0.635750
33.716667	1	0.688250
33.733333	1	0.742875
33.750000	1	0.799250
33.766667	1	0.858500
33.783333	1	0.918125
33.800000	1	0.978250
33.816667	1	1.039000
33.833333	1	1.098750
33.850000	1	1.157750
33.866667	1	1.216000
33.883333	1	1.272375
33.900000	1	1.325125
33.916667	1	1.375375
33.933333	1	1.421750
33.950000	1	1.464375
33.966667	1	1.502000
33.983333	1	1.535125
34.000000	1	1.562375
34.016667	1	1.583250
34.033333	1	1.598875
34.050000	1	1.608625
34.066667	1	1.611625
34.083333	1	1.608125
34.100000	1	1.599000
34.116667	1	1.584000
34.133333	1	1.563500
34.150000	1	1.537625
34.166667	1	1.506750
34.183333	1	1.471375
34.200000	1	1.432375
34.216667	1	1.389000
34.233333	1	1.342375
34.250000	1	1.292750
34.266667	1	1.242875
34.283333	1	1.191375
34.300000	1	1.138625
34.316667	1	1.085000
34.333333	1	1.031500
34.350000	1	0.979250
34.366667	1	0.927250
34.383333	1	0.876250
34.400000	1	0.826750
34.416667	1	0.778375
34.433333	1	0.732625
34.450000	1	0.688375
34.466667	1	0.646625
34.483333	1	0.607750
34.500000	1	0.571125
34.516667	1	0.536500
34.533333	1	0.504000
34.550000	1	0.473000
34.566667	1	0.444625
34.583333	1	0.418375
34.600000	1	0.394125
34.616667	1	0.372625
34.633333	1	0.352625
34.650000	1	0.333500
34.666667	1	0.316000
34.683333	1	0.300375
34.700000	1	0.286250
34.716667	1	0.273500
34.733333	1	0.262125
34.750000	1	0.251000
34.766667	1	0.240750
34.783333	1	0.232375
34.800000	1	0.223625
34.816667	1	0.216250
34.833333	1	0.208500
34.850000	1	0.201250
34.866667	1	0.194625
34.883333	1	0.189000
34.900000	1	0.183375
34.916667	1	0.178000
34.933333	1	0.173250
34.950000	1	0.168625
34.966667	1	0.164250
34.983333	1	0.160250
35.000000	1	0.156750
35.016667	1	0.152875
35.033333	1	0.149000
35.050000	1	0.145500
35.066667	1	0.141500
35.083333	1	0.138250
35.100000	1	0.135750
35.116667	1	0.133250
35.133333	1	0.130750
35.150000	1	0.127625
35.166667	1	0.125500
35.183333	1	0.122750
35.200000	1	0.121125
35.216667	1	0.119750
35.233333	1	0.118500
35.250000	1	0.117000
35.266667	1	0.115875
35.283333	1	0.114625
35.300000	1	0.114125
35.316667	1	0.114000
35.333333	1	0.113500
35.350000	1	0.113500
35.366667	1	0.113875
35.383333	1	0.114000
35.400000	1	0.114500
35.416667	1	0.115375
35.433333	1	0.115375
35.450000	1	0.115875
35.466667	1	0.117250
35.483333	1	0.118500
35.500000	1	0.118750
35.516667	1	0.119875
35.533333	1	0.120875
35.550000	1	0.121750
35.566667	1	0.122250
35.583333	1	0.123875
35.600000	1	0.124625
35.616667	1	0.125500
35.633333	1	0.125750
35.650000	1	0.126750
35.666667	1	0.127125
35.683333	1	0.127375
35.700000	1	0.127750
35.716667	1	0.128250
35.733333	1	0.128625
35.750000	1	0.128375
35.766667	1	0.128625
35.783333	1	0.129000
35.800000	1	0.129000
35.816667	1	0.128625
35.833333	1	0.128125
35.850000	1	0.128250
35.866667	1	0.128625
35.883333	1	0.128000
35.900000	1	0.128000
35.916667	1	0.128125
35.933333	1	0.127875
35.950000	1	0.127625
35.966667	1	0.128000
35.983333	1	0.127875
36.000000	1	0.128250
36.016667	1	0.128125
36.033333	1	0.127625
36.050000	1	0.128000
36.066667	1	0.128500
36.083333	1	0.128750
36.100000	1	0.129375
36.116667	1	0.129875
36.133333	1	0.130500
36.150000	1	0.130625
36.166667	1	0.131500
36.183333	1	0.132125
36.200000	1	0.132375
36.216667	1	0.132750
36.233333	1	0.133500
36.250000	1	0.134500
36.266667	1	0.134625
36.283333	1	0.134875
36.300000	1	0.135375
36.316667	1	0.135250
36.333333	1	0.135250
36.350000	1	0.135750
36.366667	1	0.136250
36.383333	1	0.136375
36.400000	1	0.135125
36.416667	1	0.134250
36.433333	1	0.133750
36.450000	1	0.132875
36.466667	1	0.131625
36.483333	1	0.130625
36.500000	1	0.129625
36.516667	1	0.128625
36.533333	1	0.127250
36.550000	1	0.125750
36.566667	1	0.123875
36.583333	1	0.121750
36.600000	1	0.119625
36.616667	1	0.118000
36.633333	1	0.115625
36.650000	1	0.113125
36.666667	1	0.110875
36.683333	1	0.108750
36.700000	1	0.107250
36.716667	1	0.104625
36.733333	1	0.102000
36.750000	1	0.098875
36.766667	1	0.096000
36.783333	1	0.093125
36.800000	1	0.089875
36.816667	1	0.086000
36.833333	1	0.082875
36.850000	1	0.080625
36.866667	1	0.077125
36.883333	1	0.073750
36.900000	1	0.071000
36.916667	1	0.067875
36.933333	1	0.064625
36.950000	1	0.061375
36.966667	1	0.058000
36.983333	1	0.054625
37.000000	1	0.051500
37.016667	1	0.048125
37.033333	1	0.045125
37.050000	1	0.042875
37.066667	1	0.039875
37.083333	1	0.037000
37.100000	1	0.034875
37.116667	1	0.033000
37.133333	1	0.031500
37.150000	1	0.029750
37.166667	1	0.028125
37.183333	1	0.026875
37.200000	1	0.026250
37.216667	1	0.025375
37.233333	1	0.024500
37.250000	1	0.024625
37.266667	1	0.024750
37.283333	1	0.025250
37.300000	1	0.025875
37.316667	1	0.026625
37.333333	1	0.026875
37.350000	1	0.027125
37.366667	1	0.028125
37.383333	1	0.028875
37.400000	1	0.029875
37.416667	1	0.030625
37.433333	1	0.031500
37.450000	1	0.033250
37.466667	1	0.034375
37.483333	1	0.035875
37.500000	1	0.036875
37.516667	1	0.037750
37.533333	1	0.038500
37.550000	1	0.038750
37.566667	1	0.039250
37.583333	1	0.039875
37.600000	1	0.040375
37.616667	1	0.040875
37.633333	1	0.041500
37.650000	1	0.042375
37.666667	1	0.043125
37.683333	1	0.043250
37.700000	1	0.043000
37.716667	1	0.043000
37.733333	1	0.043125
37.750000	1	0.043375
37.766667	1	0.043250
37.783333	1	0.043375
37.800000	1	0.043000
37.816667	1	0.042875
37.833333	1	0.043125
37.850000	1	0.043250
37.866667	1	0.043000
37.883333	1	0.043500
37.900000	1	0.043250
37.916667	1	0.043625
37.933333	1	0.043750
37.950000	1	0.043750
37.966667	1	0.044250
37.983333	1	0.044625
38.000000	1	0.045250
38.016667	1	0.045500
38.033333	1	0.045375
38.050000	1	0.046000
38.066667	1	0.046625
38.083333	1	0.047250
38.100000	1	0.047750
38.116667	1	0.047875
38.133333	1	0.048250
38.150000	1	0.048750
38.166667	1	0.049000
38.183333	1	0.049500
38.200000	1	0.049750
38.216667	1	0.049375
38.233333	1	0.049125
38.250000	1	0.049250
38.266667	1	0.048625
38.283333	1	0.048500
38.300000	1	0.048375
38.316667	1	0.047625
38.333333	1	0.047125
38.350000	1	0.046125
38.366667	1	0.045125
38.383333	1	0.044125
38.400000	1	0.043250
38.416667	1	0.042125
38.433333	1	0.040375
38.450000	1	0.039250
38.466667	1	0.038500
38.483333	1	0.036750
38.500000	1	0.035375
38.516667	1	0.032625
38.533333	1	0.030750
38.550000	1	0.028375
38.566667	1	0.026625
38.583333	1	0.024375
38.600000	1	0.021625
38.616667	1	0.019000
38.633333	1	0.016625
38.650000	1	0.015000
38.666667	1	0.013500
38.683333	1	0.011750
38.700000	1	0.009750
38.716667	1	0.008750
38.733333	1	0.006625
38.750000	1	0.005000
38.766667	1	0.003500
38.783333	1	0.001250
38.800000	1	-0.000375
38.816667	1	-0.001750
38.833333	1	-0.002750
38.850000	1	-0.003750
38.866667	1	-0.004500
38.883333	1	-0.005000
38.900000	1	-0.006125
38.916667	1	-0.007500
38.933333	1	-0.008125
38.950000	1	-0.009250
38.966667	1	-0.010125
38.983333	1	-0.010625
39.000000	1	-0.011000
39.016667	1	-0.011625
39.033333	1	-0.012375
39.050000	1	-0.013125
39.066667	1	-0.013625
39.083333	1	-0.013625
39.100000	1	-0.014125
39.116667	1	-0.014125
39.133333	1	-0.014750
39.150000	1	-0.014875
39.166667	1	-0.015500
39.183333	1	-0.016250
39.200000	1	-0.017125
39.216667	1	-0.017000
39.233333	1	-0.017250
39.250000	1	-0.018250
39.266667	1	-0.018250
39.283333	1	-0.018375
39.300000	1	-0.018250
39.316667	1	-0.018375
39.333333	1	-0.018375
39.350000	1	-0.019500
39.366667	1	-0.020625
39.383333	1	-0.020750
39.400000	1	-0.021250
39.416667	1	-0.021500
39.433333	1	-0.020875
39.450000	1	-0.020750
39.466667	1	-0.021125
39.483333	1	-0.020750
39.500000	1	-0.020875
39.516667	1	-0.020750
39.533333	1	-0.020375
39.550000	1	-0.020125
39.566667	1	-0.020000
39.583333	1	-0.020000
39.600000	1	-0.019750
39.616667	1	-0.018750
39.633333	1	-0.018000
39.650000	1	-0.016625
39.666667	1	-0.015250
39.683333	1	-0.014625
39.700000	1	-0.013625
39.716667	1	-0.013000
39.733333	1	-0.012125
39.750000	1	-0.010500
39.766667	1	-0.010500
39.783333	1	-0.009375
39.800000	1	-0.008250
39.816667	1	-0.006750
39.833333	1	-0.005125
39.850000	1	-0.005625
39.866667	1	-0.004875
39.883333	1	-0.005250
39.900000	1	-0.004000
39.916667	1	-0.003500
39.933333	1	-0.002625
39.950000	1	-0.001625
39.966667	1	-0.000750
39.983333	1	0.000000
40.000000	1	0.000000
