URL	chrom://bioreactor/micro_cm7/HPLC_Ultimate_3000/Users/markusar/20240716_MA_pHrange2.seq/945.smp/RI_1.channel/RI_1.chm
Channel	RI_1

Injection Information:
Data Vault	micro_cm7
Sequence	20240716_MA_pHrange2
Name	Fp1_40H_2
Number	35
Position	BC11
Comment	
Processing Method	
Instrument Method	run_25B_method
Type	Unknown
Status	Finished
Inject Time	17.07.2024 17:19:28 +02:00
Volume (µl)	20.0000
Dilution Factor	1.0000
Weight	1.0000

Chromatogram Data Information:
Time Min. (min)	0.000000
Time Max. (min)	40.000000
Data Points	2401
Detector	RI
Generating Data System	Chromeleon 7.3.2.11814
Exporting Data System	Chromeleon 7.3.2.0
Operator	Instrument Controller
Signal Quantity	Refractive 
Signal Unit	µRIU
Signal Min.	-0.078875
Signal Max.	81.745125
Channel	RI_1
Driver Name	RID520Driver.dll
Channel Type	Evaluation
Min. Step (s)	1
Max. Step (s)	1
Average Step (s)	1

Signal Parameter Information:
Signal Info	

Chromatogram Data:
Time (min)	Step (s)	Value (µRIU)
0.000000	n.a.	-0.000125
0.016667	1	0.000000
0.033333	1	0.000000
0.050000	1	0.000875
0.066667	1	0.001250
0.083333	1	0.002000
0.100000	1	0.001875
0.116667	1	0.002750
0.133333	1	0.003500
0.150000	1	0.004000
0.166667	1	0.004250
0.183333	1	0.004250
0.200000	1	0.004625
0.216667	1	0.004875
0.233333	1	0.005125
0.250000	1	0.005250
0.266667	1	0.005750
0.283333	1	0.005875
0.300000	1	0.005875
0.316667	1	0.006500
0.333333	1	0.007250
0.350000	1	0.007000
0.366667	1	0.006375
0.383333	1	0.005375
0.400000	1	0.004250
0.416667	1	0.004125
0.433333	1	0.004625
0.450000	1	0.006500
0.466667	1	0.008000
0.483333	1	0.009125
0.500000	1	0.010000
0.516667	1	0.011250
0.533333	1	0.011500
0.550000	1	0.010750
0.566667	1	0.009125
0.583333	1	0.007250
0.600000	1	0.004875
0.616667	1	0.003000
0.633333	1	0.001750
0.650000	1	0.000250
0.666667	1	-0.000250
0.683333	1	-0.001125
0.700000	1	-0.002000
0.716667	1	-0.002375
0.733333	1	-0.003250
0.750000	1	-0.004500
0.766667	1	-0.005125
0.783333	1	-0.006875
0.800000	1	-0.007750
0.816667	1	-0.008750
0.833333	1	-0.010000
0.850000	1	-0.010875
0.866667	1	-0.012375
0.883333	1	-0.013875
0.900000	1	-0.015000
0.916667	1	-0.016500
0.933333	1	-0.018375
0.950000	1	-0.019500
0.966667	1	-0.022000
0.983333	1	-0.022875
1.000000	1	-0.023875
1.016667	1	-0.025375
1.033333	1	-0.026750
1.050000	1	-0.027625
1.066667	1	-0.028375
1.083333	1	-0.029125
1.100000	1	-0.030000
1.116667	1	-0.031250
1.133333	1	-0.031625
1.150000	1	-0.032875
1.166667	1	-0.033750
1.183333	1	-0.034625
1.200000	1	-0.035500
1.216667	1	-0.035500
1.233333	1	-0.035500
1.250000	1	-0.035750
1.266667	1	-0.035375
1.283333	1	-0.035625
1.300000	1	-0.036250
1.316667	1	-0.036000
1.333333	1	-0.036750
1.350000	1	-0.037375
1.366667	1	-0.036625
1.383333	1	-0.036375
1.400000	1	-0.036375
1.416667	1	-0.036500
1.433333	1	-0.036125
1.450000	1	-0.036375
1.466667	1	-0.036125
1.483333	1	-0.036500
1.500000	1	-0.036500
1.516667	1	-0.036500
1.533333	1	-0.035750
1.550000	1	-0.036250
1.566667	1	-0.036750
1.583333	1	-0.036625
1.600000	1	-0.036500
1.616667	1	-0.037000
1.633333	1	-0.036750
1.650000	1	-0.036625
1.666667	1	-0.037250
1.683333	1	-0.037125
1.700000	1	-0.037750
1.716667	1	-0.037875
1.733333	1	-0.038125
1.750000	1	-0.038250
1.766667	1	-0.038500
1.783333	1	-0.038250
1.800000	1	-0.038750
1.816667	1	-0.039000
1.833333	1	-0.039000
1.850000	1	-0.039125
1.866667	1	-0.039750
1.883333	1	-0.039250
1.900000	1	-0.038875
1.916667	1	-0.039250
1.933333	1	-0.038500
1.950000	1	-0.038125
1.966667	1	-0.038500
1.983333	1	-0.038500
2.000000	1	-0.038500
2.016667	1	-0.037875
2.033333	1	-0.037500
2.050000	1	-0.037125
2.066667	1	-0.036875
2.083333	1	-0.036875
2.100000	1	-0.036750
2.116667	1	-0.036000
2.133333	1	-0.035250
2.150000	1	-0.035125
2.166667	1	-0.035125
2.183333	1	-0.034875
2.200000	1	-0.034625
2.216667	1	-0.034375
2.233333	1	-0.035125
2.250000	1	-0.035000
2.266667	1	-0.034375
2.283333	1	-0.034375
2.300000	1	-0.034625
2.316667	1	-0.034875
2.333333	1	-0.035000
2.350000	1	-0.035625
2.366667	1	-0.036250
2.383333	1	-0.035875
2.400000	1	-0.035750
2.416667	1	-0.035750
2.433333	1	-0.036000
2.450000	1	-0.036125
2.466667	1	-0.036125
2.483333	1	-0.036125
2.500000	1	-0.035875
2.516667	1	-0.036500
2.533333	1	-0.035875
2.550000	1	-0.035500
2.566667	1	-0.035500
2.583333	1	-0.035750
2.600000	1	-0.036250
2.616667	1	-0.036125
2.633333	1	-0.036125
2.650000	1	-0.035750
2.666667	1	-0.035375
2.683333	1	-0.035500
2.700000	1	-0.035125
2.716667	1	-0.036000
2.733333	1	-0.035500
2.750000	1	-0.035125
2.766667	1	-0.035125
2.783333	1	-0.034625
2.800000	1	-0.033875
2.816667	1	-0.034000
2.833333	1	-0.033250
2.850000	1	-0.032750
2.866667	1	-0.032375
2.883333	1	-0.032250
2.900000	1	-0.031750
2.916667	1	-0.031625
2.933333	1	-0.030875
2.950000	1	-0.029875
2.966667	1	-0.028125
2.983333	1	-0.027500
3.000000	1	-0.026750
3.016667	1	-0.025750
3.033333	1	-0.024750
3.050000	1	-0.023500
3.066667	1	-0.022375
3.083333	1	-0.021000
3.100000	1	-0.019875
3.116667	1	-0.018125
3.133333	1	-0.017000
3.150000	1	-0.015875
3.166667	1	-0.014250
3.183333	1	-0.012500
3.200000	1	-0.011000
3.216667	1	-0.009125
3.233333	1	-0.007625
3.250000	1	-0.005875
3.266667	1	-0.004625
3.283333	1	-0.003000
3.300000	1	-0.001375
3.316667	1	-0.000125
3.333333	1	0.001500
3.350000	1	0.003250
3.366667	1	0.005000
3.383333	1	0.006375
3.400000	1	0.008250
3.416667	1	0.009500
3.433333	1	0.010875
3.450000	1	0.012375
3.466667	1	0.014000
3.483333	1	0.014625
3.500000	1	0.015750
3.516667	1	0.017625
3.533333	1	0.019375
3.550000	1	0.021250
3.566667	1	0.022875
3.583333	1	0.024625
3.600000	1	0.026000
3.616667	1	0.027375
3.633333	1	0.028625
3.650000	1	0.030000
3.666667	1	0.031375
3.683333	1	0.032500
3.700000	1	0.033125
3.716667	1	0.034375
3.733333	1	0.035625
3.750000	1	0.037375
3.766667	1	0.038000
3.783333	1	0.039000
3.800000	1	0.040125
3.816667	1	0.041250
3.833333	1	0.042375
3.850000	1	0.043625
3.866667	1	0.044500
3.883333	1	0.044750
3.900000	1	0.045125
3.916667	1	0.046375
3.933333	1	0.047125
3.950000	1	0.048000
3.966667	1	0.048250
3.983333	1	0.049500
4.000000	1	0.050125
4.016667	1	0.050750
4.033333	1	0.051875
4.050000	1	0.052750
4.066667	1	0.053500
4.083333	1	0.054250
4.100000	1	0.055500
4.116667	1	0.056500
4.133333	1	0.057375
4.150000	1	0.058500
4.166667	1	0.059500
4.183333	1	0.060625
4.200000	1	0.061625
4.216667	1	0.062875
4.233333	1	0.064000
4.250000	1	0.065375
4.266667	1	0.067125
4.283333	1	0.069000
4.300000	1	0.070875
4.316667	1	0.072000
4.333333	1	0.072875
4.350000	1	0.075375
4.366667	1	0.077375
4.383333	1	0.078750
4.400000	1	0.080625
4.416667	1	0.082375
4.433333	1	0.085000
4.450000	1	0.087250
4.466667	1	0.089000
4.483333	1	0.091375
4.500000	1	0.094125
4.516667	1	0.095625
4.533333	1	0.097625
4.550000	1	0.099500
4.566667	1	0.101375
4.583333	1	0.103375
4.600000	1	0.105750
4.616667	1	0.108500
4.633333	1	0.110875
4.650000	1	0.113500
4.666667	1	0.115375
4.683333	1	0.116875
4.700000	1	0.119000
4.716667	1	0.122000
4.733333	1	0.124375
4.750000	1	0.126250
4.766667	1	0.128000
4.783333	1	0.130375
4.800000	1	0.132875
4.816667	1	0.134875
4.833333	1	0.136750
4.850000	1	0.138625
4.866667	1	0.140750
4.883333	1	0.143000
4.900000	1	0.144875
4.916667	1	0.147125
4.933333	1	0.149500
4.950000	1	0.151500
4.966667	1	0.153875
4.983333	1	0.156000
5.000000	1	0.158250
5.016667	1	0.160000
5.033333	1	0.162750
5.050000	1	0.165875
5.066667	1	0.167750
5.083333	1	0.170000
5.100000	1	0.172750
5.116667	1	0.175000
5.133333	1	0.177125
5.150000	1	0.179125
5.166667	1	0.181000
5.183333	1	0.182375
5.200000	1	0.183875
5.216667	1	0.186625
5.233333	1	0.188375
5.250000	1	0.189750
5.266667	1	0.190875
5.283333	1	0.192250
5.300000	1	0.193500
5.316667	1	0.193875
5.333333	1	0.195125
5.350000	1	0.195250
5.366667	1	0.195500
5.383333	1	0.196250
5.400000	1	0.196500
5.416667	1	0.195375
5.433333	1	0.194500
5.450000	1	0.193375
5.466667	1	0.192500
5.483333	1	0.190875
5.500000	1	0.189250
5.516667	1	0.187000
5.533333	1	0.184875
5.550000	1	0.182625
5.566667	1	0.180000
5.583333	1	0.177250
5.600000	1	0.175125
5.616667	1	0.171875
5.633333	1	0.168875
5.650000	1	0.165125
5.666667	1	0.161875
5.683333	1	0.157625
5.700000	1	0.153500
5.716667	1	0.149500
5.733333	1	0.145500
5.750000	1	0.141375
5.766667	1	0.137000
5.783333	1	0.132875
5.800000	1	0.128875
5.816667	1	0.124500
5.833333	1	0.120750
5.850000	1	0.115875
5.866667	1	0.111625
5.883333	1	0.107500
5.900000	1	0.102750
5.916667	1	0.098500
5.933333	1	0.093750
5.950000	1	0.090375
5.966667	1	0.086250
5.983333	1	0.081875
6.000000	1	0.077875
6.016667	1	0.074125
6.033333	1	0.070750
6.050000	1	0.067375
6.066667	1	0.063125
6.083333	1	0.059625
6.100000	1	0.056500
6.116667	1	0.052875
6.133333	1	0.049375
6.150000	1	0.046250
6.166667	1	0.043000
6.183333	1	0.040250
6.200000	1	0.037750
6.216667	1	0.035125
6.233333	1	0.032625
6.250000	1	0.029875
6.266667	1	0.027750
6.283333	1	0.026000
6.300000	1	0.023375
6.316667	1	0.020875
6.333333	1	0.018375
6.350000	1	0.016750
6.366667	1	0.015125
6.383333	1	0.014000
6.400000	1	0.012125
6.416667	1	0.010500
6.433333	1	0.008750
6.450000	1	0.007875
6.466667	1	0.006125
6.483333	1	0.005375
6.500000	1	0.004750
6.516667	1	0.004250
6.533333	1	0.004125
6.550000	1	0.004375
6.566667	1	0.004500
6.583333	1	0.004375
6.600000	1	0.005125
6.616667	1	0.006375
6.633333	1	0.007000
6.650000	1	0.008375
6.666667	1	0.008750
6.683333	1	0.009875
6.700000	1	0.011875
6.716667	1	0.014125
6.733333	1	0.016000
6.750000	1	0.018125
6.766667	1	0.021375
6.783333	1	0.023875
6.800000	1	0.026250
6.816667	1	0.029750
6.833333	1	0.033125
6.850000	1	0.036250
6.866667	1	0.039625
6.883333	1	0.043125
6.900000	1	0.045625
6.916667	1	0.048500
6.933333	1	0.051875
6.950000	1	0.055125
6.966667	1	0.058500
6.983333	1	0.060625
7.000000	1	0.063875
7.016667	1	0.066375
7.033333	1	0.069500
7.050000	1	0.071750
7.066667	1	0.074125
7.083333	1	0.076125
7.100000	1	0.078125
7.116667	1	0.080125
7.133333	1	0.082000
7.150000	1	0.082750
7.166667	1	0.084250
7.183333	1	0.084875
7.200000	1	0.085125
7.216667	1	0.085500
7.233333	1	0.086375
7.250000	1	0.087125
7.266667	1	0.087000
7.283333	1	0.086125
7.300000	1	0.085375
7.316667	1	0.084875
7.333333	1	0.084625
7.350000	1	0.084000
7.366667	1	0.082125
7.383333	1	0.081375
7.400000	1	0.079875
7.416667	1	0.078000
7.433333	1	0.076250
7.450000	1	0.073750
7.466667	1	0.071625
7.483333	1	0.069875
7.500000	1	0.067500
7.516667	1	0.065000
7.533333	1	0.062875
7.550000	1	0.061000
7.566667	1	0.057875
7.583333	1	0.054875
7.600000	1	0.052625
7.616667	1	0.050000
7.633333	1	0.046875
7.650000	1	0.043500
7.666667	1	0.041500
7.683333	1	0.038375
7.700000	1	0.034875
7.716667	1	0.031250
7.733333	1	0.028875
7.750000	1	0.026000
7.766667	1	0.023500
7.783333	1	0.020250
7.800000	1	0.017375
7.816667	1	0.014625
7.833333	1	0.011625
7.850000	1	0.008625
7.866667	1	0.005500
7.883333	1	0.002750
7.900000	1	0.000250
7.916667	1	-0.001875
7.933333	1	-0.003875
7.950000	1	-0.006000
7.966667	1	-0.008875
7.983333	1	-0.010750
8.000000	1	-0.012875
8.016667	1	-0.014875
8.033333	1	-0.017875
8.050000	1	-0.020125
8.066667	1	-0.022125
8.083333	1	-0.024125
8.100000	1	-0.025625
8.116667	1	-0.027000
8.133333	1	-0.028125
8.150000	1	-0.030000
8.166667	1	-0.031625
8.183333	1	-0.032750
8.200000	1	-0.034000
8.216667	1	-0.035000
8.233333	1	-0.035625
8.250000	1	-0.036375
8.266667	1	-0.037250
8.283333	1	-0.037625
8.300000	1	-0.037750
8.316667	1	-0.037750
8.333333	1	-0.037875
8.350000	1	-0.037500
8.366667	1	-0.037625
8.383333	1	-0.037250
8.400000	1	-0.037000
8.416667	1	-0.036625
8.433333	1	-0.036125
8.450000	1	-0.036000
8.466667	1	-0.035250
8.483333	1	-0.034125
8.500000	1	-0.032125
8.516667	1	-0.031000
8.533333	1	-0.029875
8.550000	1	-0.028625
8.566667	1	-0.026750
8.583333	1	-0.025375
8.600000	1	-0.024375
8.616667	1	-0.022625
8.633333	1	-0.021375
8.650000	1	-0.019625
8.666667	1	-0.018000
8.683333	1	-0.017000
8.700000	1	-0.015625
8.716667	1	-0.014125
8.733333	1	-0.012875
8.750000	1	-0.011625
8.766667	1	-0.010250
8.783333	1	-0.008875
8.800000	1	-0.007500
8.816667	1	-0.006250
8.833333	1	-0.005875
8.850000	1	-0.005375
8.866667	1	-0.005125
8.883333	1	-0.004125
8.900000	1	-0.003750
8.916667	1	-0.002875
8.933333	1	-0.002375
8.950000	1	-0.002000
8.966667	1	-0.002875
8.983333	1	-0.002875
9.000000	1	-0.002875
9.016667	1	-0.003125
9.033333	1	-0.003875
9.050000	1	-0.004500
9.066667	1	-0.004500
9.083333	1	-0.005250
9.100000	1	-0.006250
9.116667	1	-0.006625
9.133333	1	-0.007125
9.150000	1	-0.007750
9.166667	1	-0.008625
9.183333	1	-0.009000
9.200000	1	-0.010000
9.216667	1	-0.011000
9.233333	1	-0.012250
9.250000	1	-0.013750
9.266667	1	-0.015125
9.283333	1	-0.016375
9.300000	1	-0.017625
9.316667	1	-0.019000
9.333333	1	-0.019750
9.350000	1	-0.021750
9.366667	1	-0.023000
9.383333	1	-0.025000
9.400000	1	-0.026625
9.416667	1	-0.028375
9.433333	1	-0.030000
9.450000	1	-0.032000
9.466667	1	-0.033875
9.483333	1	-0.034500
9.500000	1	-0.036125
9.516667	1	-0.038000
9.533333	1	-0.040000
9.550000	1	-0.041375
9.566667	1	-0.042625
9.583333	1	-0.043500
9.600000	1	-0.044875
9.616667	1	-0.046125
9.633333	1	-0.048125
9.650000	1	-0.049375
9.666667	1	-0.050500
9.683333	1	-0.051625
9.700000	1	-0.052000
9.716667	1	-0.053250
9.733333	1	-0.054125
9.750000	1	-0.054375
9.766667	1	-0.054750
9.783333	1	-0.054625
9.800000	1	-0.054750
9.816667	1	-0.054500
9.833333	1	-0.055375
9.850000	1	-0.055375
9.866667	1	-0.055125
9.883333	1	-0.055250
9.900000	1	-0.054875
9.916667	1	-0.054750
9.933333	1	-0.054375
9.950000	1	-0.053750
9.966667	1	-0.053375
9.983333	1	-0.052375
10.000000	1	-0.052250
10.016667	1	-0.051125
10.033333	1	-0.050625
10.050000	1	-0.049750
10.066667	1	-0.048250
10.083333	1	-0.046750
10.100000	1	-0.044500
10.116667	1	-0.041750
10.133333	1	-0.039250
10.150000	1	-0.035875
10.166667	1	-0.031250
10.183333	1	-0.025875
10.200000	1	-0.019375
10.216667	1	-0.011750
10.233333	1	-0.003375
10.250000	1	0.006625
10.266667	1	0.018000
10.283333	1	0.031000
10.300000	1	0.046000
10.316667	1	0.062625
10.333333	1	0.081000
10.350000	1	0.099750
10.366667	1	0.117250
10.383333	1	0.131750
10.400000	1	0.140000
10.416667	1	0.136625
10.433333	1	0.118375
10.450000	1	0.084625
10.466667	1	0.037500
10.483333	1	-0.012000
10.500000	1	-0.046250
10.516667	1	-0.036875
10.533333	1	0.056875
10.550000	1	0.282250
10.566667	1	0.694375
10.583333	1	1.351875
10.600000	1	2.312750
10.616667	1	3.628375
10.633333	1	5.342250
10.650000	1	7.483750
10.666667	1	10.077250
10.683333	1	13.132625
10.700000	1	16.649875
10.716667	1	20.617875
10.733333	1	25.013625
10.750000	1	29.801750
10.766667	1	34.933000
10.783333	1	40.347000
10.800000	1	45.963875
10.816667	1	51.676000
10.833333	1	57.321375
10.850000	1	62.670500
10.866667	1	67.406125
10.883333	1	71.102250
10.900000	1	73.252750
10.916667	1	73.369625
10.933333	1	71.136875
10.950000	1	66.569375
10.966667	1	60.071125
10.983333	1	52.360625
11.000000	1	44.248500
11.016667	1	36.440000
11.033333	1	29.417250
11.050000	1	23.411750
11.066667	1	18.461375
11.083333	1	14.493375
11.100000	1	11.381375
11.116667	1	8.980750
11.133333	1	7.151500
11.150000	1	5.768875
11.166667	1	4.729500
11.183333	1	3.948375
11.200000	1	3.359125
11.216667	1	2.912625
11.233333	1	2.570750
11.250000	1	2.307000
11.266667	1	2.100375
11.283333	1	1.935750
11.300000	1	1.802250
11.316667	1	1.691250
11.333333	1	1.597375
11.350000	1	1.517000
11.366667	1	1.445625
11.383333	1	1.382250
11.400000	1	1.324125
11.416667	1	1.273125
11.433333	1	1.226125
11.450000	1	1.184250
11.466667	1	1.146250
11.483333	1	1.112625
11.500000	1	1.083875
11.516667	1	1.059125
11.533333	1	1.038875
11.550000	1	1.022750
11.566667	1	1.011500
11.583333	1	1.004125
11.600000	1	1.000375
11.616667	1	1.002625
11.633333	1	1.008625
11.650000	1	1.019375
11.666667	1	1.034750
11.683333	1	1.054125
11.700000	1	1.077375
11.716667	1	1.102750
11.733333	1	1.130125
11.750000	1	1.157875
11.766667	1	1.185125
11.783333	1	1.209125
11.800000	1	1.230000
11.816667	1	1.246250
11.833333	1	1.256875
11.850000	1	1.262125
11.866667	1	1.261750
11.883333	1	1.255625
11.900000	1	1.246250
11.916667	1	1.232375
11.933333	1	1.216750
11.950000	1	1.198250
11.966667	1	1.180250
11.983333	1	1.161625
12.000000	1	1.144375
12.016667	1	1.129500
12.033333	1	1.115750
12.050000	1	1.103500
12.066667	1	1.093625
12.083333	1	1.085375
12.100000	1	1.079000
12.116667	1	1.073750
12.133333	1	1.070000
12.150000	1	1.067375
12.166667	1	1.066000
12.183333	1	1.066625
12.200000	1	1.068125
12.216667	1	1.070625
12.233333	1	1.074375
12.250000	1	1.080625
12.266667	1	1.089625
12.283333	1	1.102375
12.300000	1	1.121500
12.316667	1	1.149250
12.333333	1	1.189500
12.350000	1	1.246875
12.366667	1	1.328125
12.383333	1	1.443250
12.400000	1	1.604625
12.416667	1	1.828875
12.433333	1	2.137625
12.450000	1	2.558625
12.466667	1	3.127125
12.483333	1	3.887750
12.500000	1	4.892875
12.516667	1	6.201375
12.533333	1	7.882125
12.550000	1	10.004125
12.566667	1	12.638375
12.583333	1	15.852000
12.600000	1	19.692000
12.616667	1	24.171250
12.633333	1	29.275000
12.650000	1	34.943750
12.666667	1	41.068375
12.683333	1	47.480625
12.700000	1	53.960625
12.716667	1	60.246875
12.733333	1	66.058000
12.750000	1	71.112875
12.766667	1	75.159875
12.783333	1	78.003375
12.800000	1	79.521125
12.816667	1	79.679250
12.833333	1	78.529000
12.850000	1	76.201625
12.866667	1	72.893250
12.883333	1	68.846250
12.900000	1	64.326375
12.916667	1	59.593500
12.933333	1	54.887375
12.950000	1	50.404500
12.966667	1	46.289375
12.983333	1	42.638375
13.000000	1	39.503875
13.016667	1	36.901500
13.033333	1	34.813125
13.050000	1	33.204125
13.066667	1	32.027250
13.083333	1	31.231125
13.100000	1	30.764250
13.116667	1	30.577125
13.133333	1	30.624375
13.150000	1	30.866250
13.166667	1	31.268750
13.183333	1	31.803125
13.200000	1	32.446375
13.216667	1	33.177875
13.233333	1	33.983875
13.250000	1	34.854750
13.266667	1	35.780625
13.283333	1	36.755000
13.300000	1	37.771125
13.316667	1	38.826250
13.333333	1	39.914875
13.350000	1	41.036750
13.366667	1	42.189500
13.383333	1	43.372750
13.400000	1	44.584875
13.416667	1	45.826125
13.433333	1	47.096000
13.450000	1	48.395875
13.466667	1	49.725375
13.483333	1	51.085125
13.500000	1	52.475625
13.516667	1	53.897000
13.533333	1	55.348625
13.550000	1	56.830875
13.566667	1	58.343250
13.583333	1	59.888000
13.600000	1	61.462500
13.616667	1	63.067750
13.633333	1	64.706750
13.650000	1	66.381375
13.666667	1	68.090750
13.683333	1	69.836125
13.700000	1	71.617750
13.716667	1	73.434250
13.733333	1	75.278875
13.750000	1	77.123625
13.766667	1	78.883875
13.783333	1	80.391625
13.800000	1	81.419875
13.816667	1	81.745125
13.833333	1	81.196000
13.850000	1	79.638125
13.866667	1	76.912875
13.883333	1	72.803250
13.900000	1	67.116625
13.916667	1	59.881375
13.933333	1	51.517875
13.950000	1	42.792375
13.966667	1	34.547500
13.983333	1	27.388375
14.000000	1	21.553625
14.016667	1	16.982125
14.033333	1	13.480750
14.050000	1	10.831375
14.066667	1	8.845000
14.083333	1	7.368375
14.100000	1	6.277500
14.116667	1	5.474000
14.133333	1	4.881000
14.150000	1	4.437625
14.166667	1	4.101625
14.183333	1	3.841750
14.200000	1	3.637125
14.216667	1	3.471875
14.233333	1	3.334625
14.250000	1	3.219375
14.266667	1	3.120750
14.283333	1	3.033500
14.300000	1	2.956000
14.316667	1	2.886000
14.333333	1	2.823000
14.350000	1	2.765625
14.366667	1	2.712875
14.383333	1	2.665250
14.400000	1	2.620625
14.416667	1	2.580500
14.433333	1	2.543250
14.450000	1	2.509500
14.466667	1	2.478250
14.483333	1	2.450000
14.500000	1	2.423375
14.516667	1	2.399875
14.533333	1	2.377625
14.550000	1	2.356875
14.566667	1	2.336625
14.583333	1	2.317250
14.600000	1	2.298125
14.616667	1	2.279500
14.633333	1	2.259875
14.650000	1	2.239750
14.666667	1	2.219000
14.683333	1	2.197125
14.700000	1	2.174500
14.716667	1	2.151125
14.733333	1	2.127250
14.750000	1	2.102500
14.766667	1	2.077375
14.783333	1	2.052125
14.800000	1	2.026625
14.816667	1	2.001625
14.833333	1	1.976125
14.850000	1	1.951625
14.866667	1	1.927375
14.883333	1	1.903000
14.900000	1	1.878375
14.916667	1	1.854875
14.933333	1	1.831250
14.950000	1	1.808125
14.966667	1	1.785375
14.983333	1	1.762750
15.000000	1	1.740875
15.016667	1	1.719125
15.033333	1	1.697875
15.050000	1	1.676875
15.066667	1	1.656125
15.083333	1	1.636000
15.100000	1	1.616750
15.116667	1	1.597750
15.133333	1	1.580125
15.150000	1	1.563250
15.166667	1	1.547375
15.183333	1	1.532000
15.200000	1	1.517875
15.216667	1	1.505250
15.233333	1	1.493500
15.250000	1	1.482500
15.266667	1	1.473375
15.283333	1	1.466000
15.300000	1	1.460250
15.316667	1	1.457000
15.333333	1	1.457375
15.350000	1	1.460875
15.366667	1	1.467875
15.383333	1	1.477750
15.400000	1	1.492625
15.416667	1	1.510125
15.433333	1	1.533000
15.450000	1	1.559125
15.466667	1	1.587625
15.483333	1	1.617875
15.500000	1	1.649750
15.516667	1	1.680125
15.533333	1	1.708500
15.550000	1	1.732375
15.566667	1	1.750375
15.583333	1	1.762250
15.600000	1	1.766125
15.616667	1	1.762000
15.633333	1	1.749625
15.650000	1	1.730250
15.666667	1	1.703875
15.683333	1	1.672000
15.700000	1	1.636375
15.716667	1	1.597375
15.733333	1	1.558125
15.750000	1	1.518625
15.766667	1	1.480000
15.783333	1	1.442375
15.800000	1	1.406750
15.816667	1	1.372250
15.833333	1	1.339125
15.850000	1	1.307125
15.866667	1	1.277625
15.883333	1	1.248125
15.900000	1	1.219875
15.916667	1	1.192625
15.933333	1	1.166250
15.950000	1	1.141750
15.966667	1	1.118875
15.983333	1	1.097875
16.000000	1	1.078500
16.016667	1	1.061375
16.033333	1	1.046750
16.050000	1	1.034125
16.066667	1	1.024000
16.083333	1	1.015375
16.100000	1	1.008750
16.116667	1	1.004250
16.133333	1	1.000750
16.150000	1	0.998500
16.166667	1	0.997625
16.183333	1	0.997750
16.200000	1	0.998500
16.216667	1	0.999500
16.233333	1	1.000375
16.250000	1	1.001125
16.266667	1	1.001500
16.283333	1	1.001750
16.300000	1	1.001500
16.316667	1	1.000500
16.333333	1	0.998625
16.350000	1	0.996500
16.366667	1	0.994375
16.383333	1	0.991750
16.400000	1	0.988875
16.416667	1	0.986000
16.433333	1	0.982875
16.450000	1	0.980375
16.466667	1	0.978625
16.483333	1	0.977500
16.500000	1	0.978000
16.516667	1	0.979875
16.533333	1	0.983125
16.550000	1	0.987500
16.566667	1	0.993750
16.583333	1	1.001000
16.600000	1	1.009750
16.616667	1	1.019375
16.633333	1	1.029000
16.650000	1	1.039500
16.666667	1	1.048375
16.683333	1	1.057000
16.700000	1	1.064875
16.716667	1	1.072125
16.733333	1	1.077875
16.750000	1	1.082500
16.766667	1	1.086500
16.783333	1	1.089875
16.800000	1	1.092500
16.816667	1	1.094500
16.833333	1	1.097500
16.850000	1	1.100000
16.866667	1	1.102500
16.883333	1	1.105500
16.900000	1	1.108625
16.916667	1	1.111375
16.933333	1	1.114125
16.950000	1	1.116625
16.966667	1	1.117500
16.983333	1	1.118875
17.000000	1	1.119125
17.016667	1	1.118250
17.033333	1	1.115500
17.050000	1	1.112250
17.066667	1	1.107625
17.083333	1	1.103875
17.100000	1	1.099500
17.116667	1	1.095250
17.133333	1	1.090750
17.150000	1	1.086750
17.166667	1	1.083125
17.183333	1	1.080750
17.200000	1	1.078625
17.216667	1	1.077500
17.233333	1	1.077250
17.250000	1	1.077500
17.266667	1	1.079875
17.283333	1	1.081500
17.300000	1	1.084125
17.316667	1	1.087375
17.333333	1	1.091500
17.350000	1	1.095625
17.366667	1	1.100250
17.383333	1	1.104375
17.400000	1	1.109000
17.416667	1	1.112750
17.433333	1	1.116250
17.450000	1	1.118500
17.466667	1	1.118875
17.483333	1	1.118250
17.500000	1	1.116250
17.516667	1	1.112375
17.533333	1	1.107000
17.550000	1	1.100625
17.566667	1	1.091875
17.583333	1	1.081875
17.600000	1	1.070500
17.616667	1	1.057750
17.633333	1	1.043000
17.650000	1	1.027375
17.666667	1	1.011375
17.683333	1	0.994250
17.700000	1	0.977250
17.716667	1	0.960250
17.733333	1	0.943375
17.750000	1	0.926875
17.766667	1	0.911500
17.783333	1	0.895875
17.800000	1	0.881125
17.816667	1	0.867750
17.833333	1	0.854500
17.850000	1	0.842125
17.866667	1	0.830625
17.883333	1	0.820000
17.900000	1	0.810875
17.916667	1	0.801375
17.933333	1	0.793250
17.950000	1	0.785125
17.966667	1	0.777500
17.983333	1	0.770750
18.000000	1	0.764875
18.016667	1	0.759500
18.033333	1	0.754125
18.050000	1	0.748875
18.066667	1	0.744250
18.083333	1	0.738750
18.100000	1	0.733875
18.116667	1	0.728750
18.133333	1	0.724125
18.150000	1	0.719375
18.166667	1	0.714375
18.183333	1	0.710000
18.200000	1	0.706000
18.216667	1	0.702625
18.233333	1	0.699500
18.250000	1	0.695875
18.266667	1	0.693875
18.283333	1	0.691875
18.300000	1	0.689625
18.316667	1	0.689000
18.333333	1	0.689250
18.350000	1	0.689250
18.366667	1	0.689375
18.383333	1	0.690625
18.400000	1	0.691625
18.416667	1	0.693750
18.433333	1	0.696250
18.450000	1	0.699750
18.466667	1	0.703625
18.483333	1	0.708250
18.500000	1	0.714500
18.516667	1	0.721500
18.533333	1	0.730500
18.550000	1	0.740875
18.566667	1	0.753625
18.583333	1	0.767500
18.600000	1	0.784500
18.616667	1	0.802750
18.633333	1	0.822625
18.650000	1	0.844875
18.666667	1	0.869375
18.683333	1	0.895500
18.700000	1	0.923875
18.716667	1	0.953125
18.733333	1	0.984375
18.750000	1	1.016750
18.766667	1	1.049750
18.783333	1	1.083875
18.800000	1	1.118750
18.816667	1	1.152250
18.833333	1	1.185500
18.850000	1	1.216375
18.866667	1	1.245500
18.883333	1	1.272250
18.900000	1	1.295250
18.916667	1	1.313500
18.933333	1	1.327625
18.950000	1	1.337500
18.966667	1	1.340000
18.983333	1	1.337250
19.000000	1	1.327500
19.016667	1	1.311750
19.033333	1	1.289250
19.050000	1	1.261125
19.066667	1	1.227125
19.083333	1	1.189125
19.100000	1	1.146625
19.116667	1	1.100875
19.133333	1	1.053500
19.150000	1	1.004625
19.166667	1	0.955875
19.183333	1	0.907750
19.200000	1	0.861500
19.216667	1	0.817625
19.233333	1	0.777250
19.250000	1	0.740375
19.266667	1	0.708125
19.283333	1	0.680500
19.300000	1	0.657000
19.316667	1	0.638125
19.333333	1	0.624875
19.350000	1	0.617375
19.366667	1	0.614250
19.383333	1	0.616375
19.400000	1	0.623500
19.416667	1	0.635000
19.433333	1	0.650875
19.450000	1	0.670375
19.466667	1	0.694500
19.483333	1	0.721750
19.500000	1	0.751125
19.516667	1	0.782500
19.533333	1	0.816000
19.550000	1	0.850000
19.566667	1	0.884375
19.583333	1	0.917250
19.600000	1	0.948250
19.616667	1	0.976750
19.633333	1	1.000750
19.650000	1	1.020625
19.666667	1	1.035500
19.683333	1	1.045375
19.700000	1	1.049750
19.716667	1	1.048250
19.733333	1	1.041250
19.750000	1	1.029250
19.766667	1	1.012875
19.783333	1	0.991875
19.800000	1	0.966875
19.816667	1	0.939000
19.833333	1	0.909375
19.850000	1	0.878625
19.866667	1	0.847000
19.883333	1	0.814500
19.900000	1	0.783500
19.916667	1	0.752000
19.933333	1	0.721125
19.950000	1	0.692750
19.966667	1	0.666625
19.983333	1	0.641750
20.000000	1	0.618875
20.016667	1	0.598500
20.033333	1	0.580375
20.050000	1	0.564375
20.066667	1	0.552250
20.083333	1	0.542375
20.100000	1	0.534000
20.116667	1	0.529125
20.133333	1	0.526625
20.150000	1	0.526375
20.166667	1	0.529000
20.183333	1	0.533125
20.200000	1	0.539625
20.216667	1	0.548500
20.233333	1	0.558750
20.250000	1	0.570125
20.266667	1	0.583250
20.283333	1	0.596375
20.300000	1	0.609375
20.316667	1	0.622000
20.333333	1	0.634250
20.350000	1	0.645250
20.366667	1	0.654125
20.383333	1	0.660875
20.400000	1	0.665875
20.416667	1	0.669125
20.433333	1	0.668500
20.450000	1	0.666125
20.466667	1	0.662250
20.483333	1	0.657250
20.500000	1	0.652000
20.516667	1	0.647250
20.533333	1	0.643250
20.550000	1	0.641750
20.566667	1	0.643000
20.583333	1	0.648875
20.600000	1	0.659375
20.616667	1	0.675500
20.633333	1	0.696500
20.650000	1	0.723875
20.666667	1	0.759125
20.683333	1	0.800875
20.700000	1	0.848875
20.716667	1	0.903500
20.733333	1	0.962875
20.750000	1	1.027750
20.766667	1	1.095375
20.783333	1	1.164250
20.800000	1	1.232375
20.816667	1	1.297875
20.833333	1	1.358500
20.850000	1	1.412250
20.866667	1	1.457750
20.883333	1	1.492875
20.900000	1	1.516125
20.916667	1	1.526250
20.933333	1	1.523625
20.950000	1	1.506625
20.966667	1	1.476750
20.983333	1	1.435625
21.000000	1	1.383500
21.016667	1	1.322500
21.033333	1	1.253875
21.050000	1	1.181125
21.066667	1	1.105000
21.083333	1	1.029000
21.100000	1	0.953625
21.116667	1	0.880125
21.133333	1	0.810875
21.150000	1	0.746000
21.166667	1	0.685875
21.183333	1	0.631500
21.200000	1	0.583000
21.216667	1	0.540375
21.233333	1	0.502625
21.250000	1	0.469750
21.266667	1	0.441875
21.283333	1	0.419000
21.300000	1	0.400250
21.316667	1	0.384875
21.333333	1	0.372500
21.350000	1	0.362375
21.366667	1	0.355125
21.383333	1	0.349875
21.400000	1	0.346625
21.416667	1	0.344750
21.433333	1	0.343375
21.450000	1	0.343000
21.466667	1	0.343250
21.483333	1	0.344750
21.500000	1	0.346875
21.516667	1	0.349750
21.533333	1	0.353625
21.550000	1	0.358375
21.566667	1	0.363500
21.583333	1	0.369250
21.600000	1	0.376125
21.616667	1	0.383750
21.633333	1	0.392250
21.650000	1	0.401750
21.666667	1	0.412750
21.683333	1	0.424625
21.700000	1	0.438375
21.716667	1	0.453500
21.733333	1	0.469750
21.750000	1	0.487625
21.766667	1	0.507250
21.783333	1	0.529000
21.800000	1	0.550875
21.816667	1	0.575125
21.833333	1	0.599875
21.850000	1	0.626000
21.866667	1	0.652375
21.883333	1	0.680250
21.900000	1	0.708250
21.916667	1	0.736500
21.933333	1	0.764500
21.950000	1	0.791250
21.966667	1	0.816500
21.983333	1	0.841250
22.000000	1	0.862625
22.016667	1	0.881750
22.033333	1	0.898500
22.050000	1	0.911875
22.066667	1	0.921125
22.083333	1	0.926375
22.100000	1	0.928375
22.116667	1	0.926875
22.133333	1	0.921125
22.150000	1	0.911875
22.166667	1	0.898750
22.183333	1	0.883500
22.200000	1	0.865625
22.216667	1	0.844375
22.233333	1	0.821250
22.250000	1	0.796875
22.266667	1	0.772000
22.283333	1	0.745625
22.300000	1	0.718750
22.316667	1	0.692250
22.333333	1	0.665125
22.350000	1	0.638000
22.366667	1	0.611875
22.383333	1	0.585750
22.400000	1	0.560750
22.416667	1	0.537125
22.433333	1	0.513750
22.450000	1	0.492000
22.466667	1	0.470750
22.483333	1	0.451125
22.500000	1	0.432750
22.516667	1	0.415375
22.533333	1	0.399125
22.550000	1	0.384500
22.566667	1	0.370250
22.583333	1	0.357500
22.600000	1	0.345750
22.616667	1	0.335000
22.633333	1	0.324625
22.650000	1	0.315625
22.666667	1	0.307125
22.683333	1	0.299750
22.700000	1	0.292750
22.716667	1	0.285875
22.733333	1	0.279500
22.750000	1	0.273375
22.766667	1	0.268000
22.783333	1	0.262875
22.800000	1	0.257625
22.816667	1	0.253000
22.833333	1	0.249000
22.850000	1	0.245125
22.866667	1	0.241125
22.883333	1	0.238125
22.900000	1	0.235250
22.916667	1	0.232500
22.933333	1	0.230750
22.950000	1	0.228375
22.966667	1	0.227000
22.983333	1	0.225750
23.000000	1	0.224750
23.016667	1	0.223250
23.033333	1	0.222750
23.050000	1	0.222625
23.066667	1	0.223125
23.083333	1	0.223125
23.100000	1	0.224250
23.116667	1	0.226000
23.133333	1	0.227000
23.150000	1	0.228375
23.166667	1	0.229125
23.183333	1	0.230500
23.200000	1	0.232375
23.216667	1	0.234875
23.233333	1	0.237250
23.250000	1	0.240625
23.266667	1	0.244750
23.283333	1	0.248875
23.300000	1	0.254750
23.316667	1	0.262500
23.333333	1	0.271500
23.350000	1	0.283250
23.366667	1	0.297125
23.383333	1	0.314750
23.400000	1	0.336125
23.416667	1	0.361500
23.433333	1	0.392250
23.450000	1	0.429125
23.466667	1	0.473625
23.483333	1	0.526375
23.500000	1	0.587625
23.516667	1	0.658375
23.533333	1	0.740000
23.550000	1	0.832750
23.566667	1	0.937625
23.583333	1	1.056000
23.600000	1	1.187875
23.616667	1	1.332750
23.633333	1	1.491500
23.650000	1	1.663125
23.666667	1	1.847875
23.683333	1	2.044875
23.700000	1	2.251875
23.716667	1	2.468000
23.733333	1	2.689250
23.750000	1	2.914125
23.766667	1	3.138375
23.783333	1	3.357375
23.800000	1	3.567875
23.816667	1	3.765375
23.833333	1	3.945750
23.850000	1	4.105500
23.866667	1	4.240625
23.883333	1	4.349125
23.900000	1	4.426000
23.916667	1	4.471125
23.933333	1	4.483125
23.950000	1	4.461500
23.966667	1	4.407000
23.983333	1	4.322125
24.000000	1	4.208125
24.016667	1	4.069000
24.033333	1	3.907875
24.050000	1	3.728625
24.066667	1	3.535875
24.083333	1	3.333125
24.100000	1	3.124250
24.116667	1	2.912875
24.133333	1	2.701750
24.150000	1	2.494625
24.166667	1	2.294625
24.183333	1	2.102125
24.200000	1	1.920625
24.216667	1	1.751000
24.233333	1	1.594000
24.250000	1	1.449250
24.266667	1	1.317125
24.283333	1	1.197000
24.300000	1	1.088625
24.316667	1	0.991750
24.333333	1	0.904250
24.350000	1	0.828125
24.366667	1	0.760625
24.383333	1	0.701500
24.400000	1	0.650750
24.416667	1	0.606750
24.433333	1	0.568125
24.450000	1	0.535750
24.466667	1	0.507875
24.483333	1	0.484625
24.500000	1	0.464875
24.516667	1	0.448750
24.533333	1	0.434250
24.550000	1	0.421250
24.566667	1	0.410375
24.583333	1	0.401750
24.600000	1	0.393750
24.616667	1	0.386375
24.633333	1	0.379875
24.650000	1	0.373750
24.666667	1	0.368250
24.683333	1	0.362875
24.700000	1	0.357125
24.716667	1	0.351875
24.733333	1	0.346500
24.750000	1	0.340625
24.766667	1	0.335375
24.783333	1	0.329750
24.800000	1	0.324625
24.816667	1	0.319375
24.833333	1	0.314125
24.850000	1	0.309000
24.866667	1	0.304750
24.883333	1	0.300250
24.900000	1	0.295625
24.916667	1	0.291375
24.933333	1	0.287250
24.950000	1	0.283875
24.966667	1	0.280250
24.983333	1	0.276125
25.000000	1	0.273750
25.016667	1	0.270375
25.033333	1	0.267125
25.050000	1	0.264375
25.066667	1	0.261750
25.083333	1	0.259125
25.100000	1	0.257000
25.116667	1	0.254750
25.133333	1	0.252125
25.150000	1	0.249250
25.166667	1	0.246250
25.183333	1	0.243875
25.200000	1	0.241375
25.216667	1	0.238875
25.233333	1	0.236875
25.250000	1	0.234125
25.266667	1	0.231750
25.283333	1	0.229750
25.300000	1	0.227125
25.316667	1	0.225000
25.333333	1	0.222875
25.350000	1	0.220250
25.366667	1	0.217500
25.383333	1	0.215250
25.400000	1	0.213750
25.416667	1	0.211875
25.433333	1	0.210500
25.450000	1	0.209250
25.466667	1	0.207250
25.483333	1	0.205625
25.500000	1	0.204500
25.516667	1	0.203875
25.533333	1	0.203500
25.550000	1	0.202750
25.566667	1	0.202500
25.583333	1	0.201875
25.600000	1	0.202125
25.616667	1	0.202125
25.633333	1	0.202250
25.650000	1	0.202500
25.666667	1	0.202750
25.683333	1	0.203625
25.700000	1	0.204875
25.716667	1	0.205750
25.733333	1	0.205875
25.750000	1	0.206750
25.766667	1	0.208125
25.783333	1	0.209250
25.800000	1	0.211125
25.816667	1	0.212625
25.833333	1	0.214250
25.850000	1	0.216250
25.866667	1	0.218875
25.883333	1	0.222000
25.900000	1	0.224500
25.916667	1	0.227625
25.933333	1	0.230625
25.950000	1	0.234375
25.966667	1	0.238000
25.983333	1	0.241500
26.000000	1	0.245375
26.016667	1	0.250250
26.033333	1	0.254750
26.050000	1	0.259125
26.066667	1	0.263000
26.083333	1	0.267000
26.100000	1	0.270750
26.116667	1	0.274250
26.133333	1	0.278250
26.150000	1	0.282000
26.166667	1	0.285000
26.183333	1	0.287375
26.200000	1	0.289250
26.216667	1	0.290750
26.233333	1	0.291875
26.250000	1	0.292000
26.266667	1	0.291750
26.283333	1	0.290875
26.300000	1	0.289750
26.316667	1	0.287625
26.333333	1	0.285125
26.350000	1	0.281625
26.366667	1	0.278125
26.383333	1	0.273250
26.400000	1	0.268375
26.416667	1	0.263625
26.433333	1	0.257375
26.450000	1	0.252125
26.466667	1	0.246250
26.483333	1	0.239625
26.500000	1	0.232750
26.516667	1	0.226000
26.533333	1	0.219250
26.550000	1	0.212250
26.566667	1	0.204500
26.583333	1	0.197500
26.600000	1	0.190500
26.616667	1	0.184000
26.633333	1	0.177000
26.650000	1	0.170375
26.666667	1	0.164250
26.683333	1	0.157625
26.700000	1	0.151625
26.716667	1	0.145625
26.733333	1	0.140000
26.750000	1	0.134500
26.766667	1	0.128875
26.783333	1	0.124375
26.800000	1	0.119500
26.816667	1	0.115250
26.833333	1	0.111250
26.850000	1	0.107500
26.866667	1	0.104000
26.883333	1	0.100250
26.900000	1	0.097375
26.916667	1	0.094625
26.933333	1	0.093125
26.950000	1	0.091375
26.966667	1	0.089875
26.983333	1	0.088875
27.000000	1	0.088625
27.016667	1	0.088500
27.033333	1	0.089125
27.050000	1	0.090250
27.066667	1	0.092125
27.083333	1	0.095125
27.100000	1	0.099375
27.116667	1	0.104750
27.133333	1	0.111500
27.150000	1	0.119250
27.166667	1	0.129000
27.183333	1	0.140125
27.200000	1	0.154625
27.216667	1	0.171000
27.233333	1	0.189875
27.250000	1	0.211875
27.266667	1	0.237000
27.283333	1	0.265875
27.300000	1	0.299125
27.316667	1	0.336500
27.333333	1	0.379500
27.350000	1	0.426625
27.366667	1	0.479875
27.383333	1	0.539625
27.400000	1	0.606250
27.416667	1	0.679250
27.433333	1	0.759500
27.450000	1	0.848250
27.466667	1	0.944875
27.483333	1	1.049750
27.500000	1	1.163250
27.516667	1	1.285375
27.533333	1	1.415625
27.550000	1	1.554000
27.566667	1	1.699625
27.583333	1	1.851750
27.600000	1	2.009625
27.616667	1	2.172625
27.633333	1	2.339250
27.650000	1	2.507375
27.666667	1	2.675750
27.683333	1	2.843500
27.700000	1	3.006750
27.716667	1	3.164125
27.733333	1	3.314000
27.750000	1	3.452750
27.766667	1	3.579375
27.783333	1	3.691250
27.800000	1	3.786500
27.816667	1	3.863250
27.833333	1	3.920125
27.850000	1	3.955375
27.866667	1	3.968500
27.883333	1	3.957625
27.900000	1	3.925000
27.916667	1	3.870000
27.933333	1	3.793000
27.950000	1	3.696125
27.966667	1	3.581125
27.983333	1	3.449625
28.000000	1	3.303500
28.016667	1	3.146625
28.033333	1	2.980125
28.050000	1	2.806875
28.066667	1	2.629500
28.083333	1	2.451250
28.100000	1	2.273500
28.116667	1	2.098875
28.133333	1	1.929375
28.150000	1	1.766375
28.166667	1	1.611500
28.183333	1	1.465875
28.200000	1	1.329875
28.216667	1	1.204375
28.233333	1	1.088500
28.250000	1	0.983375
28.266667	1	0.887500
28.283333	1	0.801750
28.300000	1	0.725750
28.316667	1	0.658500
28.333333	1	0.599500
28.350000	1	0.547625
28.366667	1	0.504750
28.383333	1	0.467250
28.400000	1	0.436250
28.416667	1	0.410875
28.433333	1	0.390375
28.450000	1	0.374750
28.466667	1	0.364250
28.483333	1	0.355875
28.500000	1	0.351625
28.516667	1	0.350500
28.533333	1	0.351250
28.550000	1	0.354875
28.566667	1	0.360000
28.583333	1	0.367375
28.600000	1	0.376375
28.616667	1	0.386000
28.633333	1	0.396625
28.650000	1	0.407875
28.666667	1	0.419500
28.683333	1	0.431750
28.700000	1	0.444000
28.716667	1	0.455875
28.733333	1	0.467625
28.750000	1	0.480500
28.766667	1	0.491250
28.783333	1	0.502125
28.800000	1	0.511250
28.816667	1	0.520500
28.833333	1	0.529250
28.850000	1	0.536375
28.866667	1	0.542250
28.883333	1	0.547000
28.900000	1	0.550625
28.916667	1	0.553000
28.933333	1	0.554750
28.950000	1	0.555250
28.966667	1	0.554500
28.983333	1	0.552500
29.000000	1	0.549875
29.016667	1	0.545250
29.033333	1	0.540125
29.050000	1	0.533875
29.066667	1	0.526500
29.083333	1	0.518750
29.100000	1	0.510250
29.116667	1	0.500375
29.133333	1	0.490125
29.150000	1	0.479000
29.166667	1	0.467375
29.183333	1	0.456000
29.200000	1	0.443500
29.216667	1	0.430875
29.233333	1	0.418375
29.250000	1	0.404625
29.266667	1	0.392500
29.283333	1	0.380250
29.300000	1	0.367250
29.316667	1	0.354500
29.333333	1	0.342750
29.350000	1	0.330125
29.366667	1	0.318000
29.383333	1	0.306625
29.400000	1	0.295250
29.416667	1	0.284125
29.433333	1	0.274000
29.450000	1	0.263500
29.466667	1	0.253125
29.483333	1	0.243625
29.500000	1	0.235125
29.516667	1	0.226375
29.533333	1	0.218375
29.550000	1	0.210250
29.566667	1	0.202125
29.583333	1	0.194375
29.600000	1	0.188000
29.616667	1	0.181875
29.633333	1	0.176125
29.650000	1	0.170500
29.666667	1	0.166000
29.683333	1	0.160125
29.700000	1	0.155375
29.716667	1	0.151250
29.733333	1	0.147375
29.750000	1	0.143500
29.766667	1	0.140125
29.783333	1	0.136625
29.800000	1	0.133375
29.816667	1	0.130375
29.833333	1	0.127500
29.850000	1	0.125500
29.866667	1	0.123375
29.883333	1	0.121250
29.900000	1	0.119375
29.916667	1	0.117375
29.933333	1	0.115375
29.950000	1	0.113375
29.966667	1	0.111250
29.983333	1	0.110750
30.000000	1	0.109625
30.016667	1	0.108500
30.033333	1	0.107375
30.050000	1	0.106625
30.066667	1	0.104875
30.083333	1	0.103750
30.100000	1	0.102875
30.116667	1	0.102500
30.133333	1	0.101500
30.150000	1	0.100875
30.166667	1	0.101125
30.183333	1	0.100625
30.200000	1	0.100625
30.216667	1	0.101000
30.233333	1	0.101000
30.250000	1	0.101000
30.266667	1	0.101125
30.283333	1	0.100375
30.300000	1	0.100500
30.316667	1	0.100875
30.333333	1	0.101375
30.350000	1	0.102000
30.366667	1	0.103625
30.383333	1	0.105125
30.400000	1	0.107000
30.416667	1	0.109125
30.433333	1	0.111125
30.450000	1	0.113000
30.466667	1	0.116250
30.483333	1	0.119375
30.500000	1	0.122875
30.516667	1	0.126750
30.533333	1	0.131250
30.550000	1	0.136125
30.566667	1	0.141500
30.583333	1	0.147500
30.600000	1	0.155000
30.616667	1	0.162875
30.633333	1	0.171500
30.650000	1	0.180500
30.666667	1	0.190875
30.683333	1	0.203250
30.700000	1	0.216875
30.716667	1	0.232500
30.733333	1	0.249125
30.750000	1	0.268625
30.766667	1	0.290000
30.783333	1	0.314375
30.800000	1	0.341500
30.816667	1	0.372875
30.833333	1	0.407625
30.850000	1	0.447250
30.866667	1	0.492125
30.883333	1	0.542375
30.900000	1	0.598250
30.916667	1	0.662375
30.933333	1	0.733750
30.950000	1	0.813250
30.966667	1	0.902375
30.983333	1	1.001625
31.000000	1	1.111750
31.016667	1	1.233875
31.033333	1	1.368250
31.050000	1	1.515500
31.066667	1	1.676250
31.083333	1	1.850250
31.100000	1	2.038000
31.116667	1	2.240000
31.133333	1	2.455750
31.150000	1	2.684375
31.166667	1	2.924500
31.183333	1	3.177875
31.200000	1	3.441750
31.216667	1	3.715500
31.233333	1	3.995875
31.250000	1	4.280625
31.266667	1	4.568250
31.283333	1	4.856125
31.300000	1	5.140250
31.316667	1	5.419000
31.333333	1	5.688250
31.350000	1	5.945125
31.366667	1	6.186875
31.383333	1	6.410500
31.400000	1	6.611875
31.416667	1	6.789250
31.433333	1	6.940500
31.450000	1	7.062875
31.466667	1	7.153875
31.483333	1	7.213750
31.500000	1	7.240500
31.516667	1	7.235250
31.533333	1	7.197000
31.550000	1	7.126750
31.566667	1	7.025625
31.583333	1	6.895750
31.600000	1	6.738750
31.616667	1	6.556625
31.633333	1	6.352000
31.650000	1	6.127500
31.666667	1	5.886125
31.683333	1	5.631875
31.700000	1	5.367125
31.716667	1	5.094000
31.733333	1	4.818000
31.750000	1	4.539125
31.766667	1	4.261125
31.783333	1	3.984750
31.800000	1	3.714375
31.816667	1	3.449500
31.833333	1	3.192750
31.850000	1	2.946375
31.866667	1	2.710500
31.883333	1	2.486500
31.900000	1	2.274000
31.916667	1	2.074750
31.933333	1	1.887750
31.950000	1	1.713625
31.966667	1	1.551875
31.983333	1	1.401750
32.000000	1	1.263875
32.016667	1	1.137250
32.033333	1	1.021875
32.050000	1	0.916750
32.066667	1	0.821250
32.083333	1	0.734125
32.100000	1	0.655500
32.116667	1	0.585625
32.133333	1	0.522750
32.150000	1	0.466000
32.166667	1	0.416125
32.183333	1	0.371625
32.200000	1	0.332250
32.216667	1	0.297000
32.233333	1	0.266500
32.250000	1	0.239125
32.266667	1	0.215125
32.283333	1	0.194625
32.300000	1	0.176125
32.316667	1	0.160375
32.333333	1	0.146375
32.350000	1	0.134125
32.366667	1	0.123500
32.383333	1	0.114500
32.400000	1	0.107125
32.416667	1	0.100375
32.433333	1	0.094375
32.450000	1	0.089250
32.466667	1	0.084500
32.483333	1	0.080625
32.500000	1	0.077375
32.516667	1	0.075000
32.533333	1	0.072000
32.550000	1	0.070000
32.566667	1	0.067750
32.583333	1	0.066500
32.600000	1	0.065125
32.616667	1	0.063500
32.633333	1	0.062250
32.650000	1	0.060875
32.666667	1	0.059875
32.683333	1	0.058750
32.700000	1	0.057000
32.716667	1	0.056125
32.733333	1	0.054500
32.750000	1	0.053875
32.766667	1	0.052875
32.783333	1	0.052125
32.800000	1	0.050625
32.816667	1	0.049375
32.833333	1	0.047500
32.850000	1	0.046125
32.866667	1	0.045000
32.883333	1	0.044250
32.900000	1	0.042875
32.916667	1	0.041875
32.933333	1	0.041125
32.950000	1	0.040125
32.966667	1	0.039250
32.983333	1	0.037875
33.000000	1	0.036875
33.016667	1	0.036000
33.033333	1	0.034250
33.050000	1	0.034000
33.066667	1	0.033625
33.083333	1	0.033375
33.100000	1	0.033500
33.116667	1	0.033125
33.133333	1	0.033250
33.150000	1	0.033625
33.166667	1	0.034625
33.183333	1	0.035375
33.200000	1	0.036750
33.216667	1	0.038375
33.233333	1	0.040125
33.250000	1	0.042750
33.266667	1	0.045625
33.283333	1	0.048125
33.300000	1	0.052000
33.316667	1	0.056500
33.333333	1	0.061000
33.350000	1	0.066750
33.366667	1	0.073125
33.383333	1	0.079875
33.400000	1	0.087500
33.416667	1	0.096250
33.433333	1	0.105000
33.450000	1	0.115375
33.466667	1	0.126000
33.483333	1	0.138125
33.500000	1	0.151750
33.516667	1	0.166625
33.533333	1	0.182375
33.550000	1	0.199875
33.566667	1	0.217875
33.583333	1	0.237000
33.600000	1	0.257875
33.616667	1	0.280250
33.633333	1	0.303500
33.650000	1	0.328750
33.666667	1	0.355250
33.683333	1	0.382250
33.700000	1	0.410500
33.716667	1	0.440000
33.733333	1	0.470625
33.750000	1	0.502375
33.766667	1	0.535000
33.783333	1	0.567625
33.800000	1	0.600875
33.816667	1	0.633625
33.833333	1	0.666250
33.850000	1	0.698500
33.866667	1	0.730375
33.883333	1	0.760875
33.900000	1	0.790375
33.916667	1	0.818500
33.933333	1	0.844000
33.950000	1	0.868375
33.966667	1	0.890250
33.983333	1	0.909125
34.000000	1	0.925500
34.016667	1	0.938625
34.033333	1	0.948000
34.050000	1	0.955000
34.066667	1	0.958500
34.083333	1	0.958875
34.100000	1	0.955000
34.116667	1	0.948625
34.133333	1	0.939250
34.150000	1	0.926750
34.166667	1	0.911250
34.183333	1	0.893250
34.200000	1	0.872500
34.216667	1	0.849750
34.233333	1	0.824125
34.250000	1	0.796500
34.266667	1	0.768000
34.283333	1	0.738500
34.300000	1	0.708625
34.316667	1	0.678125
34.333333	1	0.647500
34.350000	1	0.616375
34.366667	1	0.586125
34.383333	1	0.555875
34.400000	1	0.526625
34.416667	1	0.497250
34.433333	1	0.469000
34.450000	1	0.441750
34.466667	1	0.415375
34.483333	1	0.390750
34.500000	1	0.367125
34.516667	1	0.344500
34.533333	1	0.323125
34.550000	1	0.302875
34.566667	1	0.283500
34.583333	1	0.265750
34.600000	1	0.248875
34.616667	1	0.232125
34.633333	1	0.217375
34.650000	1	0.202500
34.666667	1	0.188750
34.683333	1	0.176125
34.700000	1	0.163625
34.716667	1	0.152500
34.733333	1	0.142125
34.750000	1	0.132000
34.766667	1	0.122250
34.783333	1	0.112875
34.800000	1	0.105000
34.816667	1	0.096875
34.833333	1	0.089375
34.850000	1	0.082375
34.866667	1	0.076000
34.883333	1	0.069125
34.900000	1	0.063625
34.916667	1	0.058750
34.933333	1	0.054125
34.950000	1	0.050750
34.966667	1	0.046625
34.983333	1	0.044000
35.000000	1	0.041375
35.016667	1	0.038875
35.033333	1	0.037625
35.050000	1	0.036750
35.066667	1	0.035625
35.083333	1	0.035375
35.100000	1	0.035500
35.116667	1	0.035750
35.133333	1	0.036500
35.150000	1	0.037625
35.166667	1	0.039375
35.183333	1	0.041875
35.200000	1	0.044125
35.216667	1	0.047000
35.233333	1	0.050250
35.250000	1	0.054000
35.266667	1	0.057250
35.283333	1	0.060875
35.300000	1	0.065000
35.316667	1	0.069000
35.333333	1	0.072875
35.350000	1	0.077000
35.366667	1	0.081625
35.383333	1	0.085750
35.400000	1	0.089750
35.416667	1	0.093500
35.433333	1	0.097750
35.450000	1	0.102125
35.466667	1	0.106375
35.483333	1	0.110000
35.500000	1	0.112875
35.516667	1	0.117000
35.533333	1	0.120125
35.550000	1	0.123250
35.566667	1	0.126875
35.583333	1	0.130250
35.600000	1	0.132750
35.616667	1	0.135250
35.633333	1	0.136750
35.650000	1	0.138375
35.666667	1	0.139750
35.683333	1	0.141375
35.700000	1	0.142875
35.716667	1	0.143875
35.733333	1	0.144250
35.750000	1	0.145000
35.766667	1	0.145000
35.783333	1	0.144375
35.800000	1	0.144375
35.816667	1	0.143625
35.833333	1	0.142750
35.850000	1	0.141375
35.866667	1	0.140000
35.883333	1	0.139000
35.900000	1	0.137625
35.916667	1	0.136250
35.933333	1	0.135000
35.950000	1	0.132875
35.966667	1	0.131625
35.983333	1	0.129875
36.000000	1	0.128000
36.016667	1	0.126125
36.033333	1	0.124750
36.050000	1	0.122625
36.066667	1	0.120375
36.083333	1	0.118500
36.100000	1	0.116750
36.116667	1	0.114500
36.133333	1	0.112750
36.150000	1	0.110750
36.166667	1	0.108750
36.183333	1	0.106625
36.200000	1	0.105250
36.216667	1	0.103000
36.233333	1	0.100875
36.250000	1	0.099625
36.266667	1	0.098250
36.283333	1	0.096000
36.300000	1	0.094000
36.316667	1	0.092375
36.333333	1	0.090375
36.350000	1	0.089125
36.366667	1	0.087375
36.383333	1	0.085250
36.400000	1	0.083000
36.416667	1	0.081375
36.433333	1	0.079000
36.450000	1	0.076500
36.466667	1	0.074500
36.483333	1	0.072875
36.500000	1	0.071375
36.516667	1	0.069125
36.533333	1	0.067250
36.550000	1	0.065125
36.566667	1	0.062375
36.583333	1	0.059375
36.600000	1	0.058125
36.616667	1	0.056125
36.633333	1	0.054125
36.650000	1	0.051875
36.666667	1	0.049500
36.683333	1	0.047375
36.700000	1	0.045625
36.716667	1	0.044000
36.733333	1	0.042250
36.750000	1	0.040250
36.766667	1	0.039000
36.783333	1	0.037500
36.800000	1	0.036000
36.816667	1	0.034875
36.833333	1	0.033500
36.850000	1	0.032875
36.866667	1	0.032125
36.883333	1	0.031750
36.900000	1	0.031250
36.916667	1	0.030750
36.933333	1	0.030625
36.950000	1	0.030125
36.966667	1	0.029625
36.983333	1	0.029125
37.000000	1	0.028625
37.016667	1	0.029250
37.033333	1	0.029625
37.050000	1	0.029000
37.066667	1	0.028625
37.083333	1	0.029000
37.100000	1	0.029500
37.116667	1	0.029125
37.133333	1	0.029250
37.150000	1	0.030125
37.166667	1	0.030375
37.183333	1	0.030500
37.200000	1	0.030500
37.216667	1	0.030250
37.233333	1	0.030875
37.250000	1	0.031250
37.266667	1	0.031875
37.283333	1	0.032000
37.300000	1	0.032875
37.316667	1	0.033000
37.333333	1	0.033125
37.350000	1	0.033750
37.366667	1	0.034125
37.383333	1	0.034000
37.400000	1	0.034250
37.416667	1	0.033375
37.433333	1	0.033625
37.450000	1	0.034000
37.466667	1	0.033500
37.483333	1	0.032750
37.500000	1	0.032000
37.516667	1	0.031250
37.533333	1	0.030000
37.550000	1	0.028250
37.566667	1	0.026750
37.583333	1	0.025375
37.600000	1	0.023750
37.616667	1	0.021625
37.633333	1	0.019375
37.650000	1	0.017625
37.666667	1	0.014250
37.683333	1	0.011250
37.700000	1	0.007750
37.716667	1	0.004375
37.733333	1	0.001375
37.750000	1	-0.002125
37.766667	1	-0.006500
37.783333	1	-0.010875
37.800000	1	-0.014625
37.816667	1	-0.018750
37.833333	1	-0.023000
37.850000	1	-0.027500
37.866667	1	-0.032250
37.883333	1	-0.036750
37.900000	1	-0.041250
37.916667	1	-0.045000
37.933333	1	-0.048875
37.950000	1	-0.052625
37.966667	1	-0.056500
37.983333	1	-0.060250
38.000000	1	-0.063875
38.016667	1	-0.067250
38.033333	1	-0.070250
38.050000	1	-0.072875
38.066667	1	-0.074875
38.083333	1	-0.076000
38.100000	1	-0.076875
38.116667	1	-0.078250
38.133333	1	-0.078875
38.150000	1	-0.078875
38.166667	1	-0.078625
38.183333	1	-0.078125
38.200000	1	-0.076500
38.216667	1	-0.074500
38.233333	1	-0.072250
38.250000	1	-0.070375
38.266667	1	-0.066750
38.283333	1	-0.063625
38.300000	1	-0.059750
38.316667	1	-0.056000
38.333333	1	-0.052375
38.350000	1	-0.047625
38.366667	1	-0.043250
38.383333	1	-0.038500
38.400000	1	-0.033625
38.416667	1	-0.027875
38.433333	1	-0.022375
38.450000	1	-0.016625
38.466667	1	-0.011250
38.483333	1	-0.006625
38.500000	1	-0.001625
38.516667	1	0.003625
38.533333	1	0.007875
38.550000	1	0.012250
38.566667	1	0.016500
38.583333	1	0.019625
38.600000	1	0.024000
38.616667	1	0.027250
38.633333	1	0.030250
38.650000	1	0.033500
38.666667	1	0.035750
38.683333	1	0.038000
38.700000	1	0.039500
38.716667	1	0.040500
38.733333	1	0.042000
38.750000	1	0.042250
38.766667	1	0.042750
38.783333	1	0.042625
38.800000	1	0.042375
38.816667	1	0.042000
38.833333	1	0.042000
38.850000	1	0.041000
38.866667	1	0.040125
38.883333	1	0.039250
38.900000	1	0.038250
38.916667	1	0.037125
38.933333	1	0.036125
38.950000	1	0.035000
38.966667	1	0.034500
38.983333	1	0.034000
39.000000	1	0.033500
39.016667	1	0.032875
39.033333	1	0.032875
39.050000	1	0.033000
39.066667	1	0.033000
39.083333	1	0.032625
39.100000	1	0.031875
39.116667	1	0.031750
39.133333	1	0.032000
39.150000	1	0.032125
39.166667	1	0.032500
39.183333	1	0.033000
39.200000	1	0.033000
39.216667	1	0.033000
39.233333	1	0.033625
39.250000	1	0.034000
39.266667	1	0.034750
39.283333	1	0.035125
39.300000	1	0.035500
39.316667	1	0.036125
39.333333	1	0.036375
39.350000	1	0.036375
39.366667	1	0.036375
39.383333	1	0.035875
39.400000	1	0.036375
39.416667	1	0.036375
39.433333	1	0.035875
39.450000	1	0.035250
39.466667	1	0.034875
39.483333	1	0.034000
39.500000	1	0.033125
39.516667	1	0.032000
39.533333	1	0.031000
39.550000	1	0.029875
39.566667	1	0.028375
39.583333	1	0.026500
39.600000	1	0.024500
39.616667	1	0.022625
39.633333	1	0.020500
39.650000	1	0.018250
39.666667	1	0.015625
39.683333	1	0.012500
39.700000	1	0.009750
39.716667	1	0.006375
39.733333	1	0.003500
39.750000	1	0.000375
39.766667	1	-0.002500
39.783333	1	-0.005875
39.800000	1	-0.009500
39.816667	1	-0.013500
39.833333	1	-0.017000
39.850000	1	-0.020125
39.866667	1	-0.023250
39.883333	1	-0.026250
39.900000	1	-0.030500
39.916667	1	-0.033625
39.933333	1	-0.036875
39.950000	1	-0.039750
39.966667	1	-0.042625
39.983333	1	-0.045250
40.000000	1	-0.047375
