URL	chrom://bioreactor/micro_cm7/HPLC_Ultimate_3000/Users/markusar/20240716_MA_pHrange2.seq/513.smp/RI_1.channel/RI_1.chm
Channel	RI_1

Injection Information:
Data Vault	micro_cm7
Sequence	20240716_MA_pHrange2
Name	Fp1_40H_3
Number	38
Position	BD2
Comment	
Processing Method	
Instrument Method	run_25B_method
Type	Unknown
Status	Finished
Inject Time	17.07.2024 19:22:22 +02:00
Volume (µl)	20.0000
Dilution Factor	1.0000
Weight	1.0000

Chromatogram Data Information:
Time Min. (min)	0.000000
Time Max. (min)	40.000000
Data Points	2401
Detector	RI
Generating Data System	Chromeleon 7.3.2.11814
Exporting Data System	Chromeleon 7.3.2.0
Operator	Instrument Controller
Signal Quantity	Refractive 
Signal Unit	µRIU
Signal Min.	-0.054000
Signal Max.	82.000750
Channel	RI_1
Driver Name	RID520Driver.dll
Channel Type	Evaluation
Min. Step (s)	1
Max. Step (s)	1
Average Step (s)	1

Signal Parameter Information:
Signal Info	

Chromatogram Data:
Time (min)	Step (s)	Value (µRIU)
0.000000	n.a.	0.017250
0.016667	1	0.018125
0.033333	1	0.018625
0.050000	1	0.018875
0.066667	1	0.019625
0.083333	1	0.020250
0.100000	1	0.020875
0.116667	1	0.021500
0.133333	1	0.022375
0.150000	1	0.022375
0.166667	1	0.022000
0.183333	1	0.022625
0.200000	1	0.022625
0.216667	1	0.022625
0.233333	1	0.022500
0.250000	1	0.022750
0.266667	1	0.021875
0.283333	1	0.022375
0.300000	1	0.021875
0.316667	1	0.021500
0.333333	1	0.021750
0.350000	1	0.020875
0.366667	1	0.020000
0.383333	1	0.018750
0.400000	1	0.018375
0.416667	1	0.018250
0.433333	1	0.019000
0.450000	1	0.020375
0.466667	1	0.021000
0.483333	1	0.021750
0.500000	1	0.023000
0.516667	1	0.023500
0.533333	1	0.023875
0.550000	1	0.023250
0.566667	1	0.021625
0.583333	1	0.020125
0.600000	1	0.017875
0.616667	1	0.015625
0.633333	1	0.014750
0.650000	1	0.014250
0.666667	1	0.013000
0.683333	1	0.012500
0.700000	1	0.012625
0.716667	1	0.012375
0.733333	1	0.011625
0.750000	1	0.011875
0.766667	1	0.011750
0.783333	1	0.011250
0.800000	1	0.010625
0.816667	1	0.011000
0.833333	1	0.010375
0.850000	1	0.010375
0.866667	1	0.010500
0.883333	1	0.009875
0.900000	1	0.009750
0.916667	1	0.009000
0.933333	1	0.008125
0.950000	1	0.007875
0.966667	1	0.007750
0.983333	1	0.007500
1.000000	1	0.007500
1.016667	1	0.007625
1.033333	1	0.007000
1.050000	1	0.006875
1.066667	1	0.006625
1.083333	1	0.005875
1.100000	1	0.005625
1.116667	1	0.005000
1.133333	1	0.004750
1.150000	1	0.004125
1.166667	1	0.004750
1.183333	1	0.004375
1.200000	1	0.003875
1.216667	1	0.003625
1.233333	1	0.002875
1.250000	1	0.002375
1.266667	1	0.002000
1.283333	1	0.001750
1.300000	1	0.001250
1.316667	1	0.001375
1.333333	1	0.001125
1.350000	1	0.001250
1.366667	1	0.000250
1.383333	1	-0.000375
1.400000	1	-0.001125
1.416667	1	-0.001625
1.433333	1	-0.002125
1.450000	1	-0.002500
1.466667	1	-0.002875
1.483333	1	-0.003375
1.500000	1	-0.004000
1.516667	1	-0.005000
1.533333	1	-0.005875
1.550000	1	-0.005875
1.566667	1	-0.006875
1.583333	1	-0.007250
1.600000	1	-0.008125
1.616667	1	-0.009125
1.633333	1	-0.009750
1.650000	1	-0.009875
1.666667	1	-0.010500
1.683333	1	-0.011375
1.700000	1	-0.012000
1.716667	1	-0.012500
1.733333	1	-0.012750
1.750000	1	-0.013375
1.766667	1	-0.014125
1.783333	1	-0.014250
1.800000	1	-0.014625
1.816667	1	-0.014750
1.833333	1	-0.015250
1.850000	1	-0.015500
1.866667	1	-0.015250
1.883333	1	-0.015375
1.900000	1	-0.015625
1.916667	1	-0.015500
1.933333	1	-0.015625
1.950000	1	-0.016000
1.966667	1	-0.015625
1.983333	1	-0.015750
2.000000	1	-0.014625
2.016667	1	-0.014500
2.033333	1	-0.014375
2.050000	1	-0.014000
2.066667	1	-0.013750
2.083333	1	-0.012875
2.100000	1	-0.012875
2.116667	1	-0.012250
2.133333	1	-0.012000
2.150000	1	-0.011500
2.166667	1	-0.011250
2.183333	1	-0.010625
2.200000	1	-0.009875
2.216667	1	-0.009750
2.233333	1	-0.009375
2.250000	1	-0.009000
2.266667	1	-0.008250
2.283333	1	-0.008875
2.300000	1	-0.008625
2.316667	1	-0.007875
2.333333	1	-0.008000
2.350000	1	-0.007875
2.366667	1	-0.007875
2.383333	1	-0.007625
2.400000	1	-0.007625
2.416667	1	-0.007625
2.433333	1	-0.006875
2.450000	1	-0.007500
2.466667	1	-0.007625
2.483333	1	-0.007375
2.500000	1	-0.007125
2.516667	1	-0.007375
2.533333	1	-0.007625
2.550000	1	-0.007500
2.566667	1	-0.007375
2.583333	1	-0.007375
2.600000	1	-0.007375
2.616667	1	-0.006250
2.633333	1	-0.005750
2.650000	1	-0.005250
2.666667	1	-0.004375
2.683333	1	-0.003000
2.700000	1	-0.002375
2.716667	1	-0.001250
2.733333	1	-0.000625
2.750000	1	0.000500
2.766667	1	0.002000
2.783333	1	0.003375
2.800000	1	0.005000
2.816667	1	0.007375
2.833333	1	0.008500
2.850000	1	0.009500
2.866667	1	0.012250
2.883333	1	0.015125
2.900000	1	0.016750
2.916667	1	0.019250
2.933333	1	0.021250
2.950000	1	0.023625
2.966667	1	0.025500
2.983333	1	0.028125
3.000000	1	0.030625
3.016667	1	0.032750
3.033333	1	0.034500
3.050000	1	0.037000
3.066667	1	0.039000
3.083333	1	0.040750
3.100000	1	0.042375
3.116667	1	0.044000
3.133333	1	0.045625
3.150000	1	0.046750
3.166667	1	0.048125
3.183333	1	0.050125
3.200000	1	0.051875
3.216667	1	0.053000
3.233333	1	0.054000
3.250000	1	0.054625
3.266667	1	0.055250
3.283333	1	0.055500
3.300000	1	0.055250
3.316667	1	0.055500
3.333333	1	0.055625
3.350000	1	0.055625
3.366667	1	0.055500
3.383333	1	0.055500
3.400000	1	0.054875
3.416667	1	0.054375
3.433333	1	0.054125
3.450000	1	0.052750
3.466667	1	0.051875
3.483333	1	0.051250
3.500000	1	0.050125
3.516667	1	0.048750
3.533333	1	0.047500
3.550000	1	0.046625
3.566667	1	0.045250
3.583333	1	0.044750
3.600000	1	0.043750
3.616667	1	0.042375
3.633333	1	0.041625
3.650000	1	0.040500
3.666667	1	0.039375
3.683333	1	0.038000
3.700000	1	0.036875
3.716667	1	0.035500
3.733333	1	0.034250
3.750000	1	0.033125
3.766667	1	0.032375
3.783333	1	0.032375
3.800000	1	0.031625
3.816667	1	0.031250
3.833333	1	0.031000
3.850000	1	0.030625
3.866667	1	0.030125
3.883333	1	0.029625
3.900000	1	0.029750
3.916667	1	0.030000
3.933333	1	0.029125
3.950000	1	0.028750
3.966667	1	0.029000
3.983333	1	0.029125
4.000000	1	0.029875
4.016667	1	0.030250
4.033333	1	0.030875
4.050000	1	0.031250
4.066667	1	0.032125
4.083333	1	0.033125
4.100000	1	0.034000
4.116667	1	0.035625
4.133333	1	0.036875
4.150000	1	0.037750
4.166667	1	0.039750
4.183333	1	0.041875
4.200000	1	0.043750
4.216667	1	0.045625
4.233333	1	0.048000
4.250000	1	0.049375
4.266667	1	0.052000
4.283333	1	0.054625
4.300000	1	0.057125
4.316667	1	0.060000
4.333333	1	0.062500
4.350000	1	0.065625
4.366667	1	0.068625
4.383333	1	0.072375
4.400000	1	0.075875
4.416667	1	0.079125
4.433333	1	0.082625
4.450000	1	0.086250
4.466667	1	0.090000
4.483333	1	0.093125
4.500000	1	0.096750
4.516667	1	0.100125
4.533333	1	0.103500
4.550000	1	0.106750
4.566667	1	0.111000
4.583333	1	0.114875
4.600000	1	0.119125
4.616667	1	0.123375
4.633333	1	0.127250
4.650000	1	0.130500
4.666667	1	0.134125
4.683333	1	0.137375
4.700000	1	0.141125
4.716667	1	0.145000
4.733333	1	0.148375
4.750000	1	0.151750
4.766667	1	0.154750
4.783333	1	0.157875
4.800000	1	0.160750
4.816667	1	0.163750
4.833333	1	0.166750
4.850000	1	0.169750
4.866667	1	0.172125
4.883333	1	0.174875
4.900000	1	0.176375
4.916667	1	0.178750
4.933333	1	0.180750
4.950000	1	0.182375
4.966667	1	0.183875
4.983333	1	0.185500
5.000000	1	0.187000
5.016667	1	0.188625
5.033333	1	0.189000
5.050000	1	0.190625
5.066667	1	0.191500
5.083333	1	0.192250
5.100000	1	0.193375
5.116667	1	0.193625
5.133333	1	0.193125
5.150000	1	0.193000
5.166667	1	0.192875
5.183333	1	0.192750
5.200000	1	0.192125
5.216667	1	0.191125
5.233333	1	0.190000
5.250000	1	0.188875
5.266667	1	0.187750
5.283333	1	0.186125
5.300000	1	0.184625
5.316667	1	0.182875
5.333333	1	0.180750
5.350000	1	0.178500
5.366667	1	0.177125
5.383333	1	0.175500
5.400000	1	0.173250
5.416667	1	0.170875
5.433333	1	0.168750
5.450000	1	0.166750
5.466667	1	0.164000
5.483333	1	0.161500
5.500000	1	0.159125
5.516667	1	0.157375
5.533333	1	0.155625
5.550000	1	0.154125
5.566667	1	0.152125
5.583333	1	0.150500
5.600000	1	0.148500
5.616667	1	0.147000
5.633333	1	0.145250
5.650000	1	0.143125
5.666667	1	0.141750
5.683333	1	0.140625
5.700000	1	0.139000
5.716667	1	0.137000
5.733333	1	0.135375
5.750000	1	0.134375
5.766667	1	0.132625
5.783333	1	0.132375
5.800000	1	0.130875
5.816667	1	0.129875
5.833333	1	0.128125
5.850000	1	0.126750
5.866667	1	0.125250
5.883333	1	0.123875
5.900000	1	0.123375
5.916667	1	0.122500
5.933333	1	0.121375
5.950000	1	0.119375
5.966667	1	0.117500
5.983333	1	0.116250
6.000000	1	0.114750
6.016667	1	0.112250
6.033333	1	0.110125
6.050000	1	0.108250
6.066667	1	0.105875
6.083333	1	0.103750
6.100000	1	0.101250
6.116667	1	0.098625
6.133333	1	0.095750
6.150000	1	0.092625
6.166667	1	0.089000
6.183333	1	0.085625
6.200000	1	0.082375
6.216667	1	0.079125
6.233333	1	0.075250
6.250000	1	0.072125
6.266667	1	0.068250
6.283333	1	0.064625
6.300000	1	0.060375
6.316667	1	0.056625
6.333333	1	0.053500
6.350000	1	0.050125
6.366667	1	0.046750
6.383333	1	0.043250
6.400000	1	0.040500
6.416667	1	0.038000
6.433333	1	0.035375
6.450000	1	0.033375
6.466667	1	0.031625
6.483333	1	0.029250
6.500000	1	0.026750
6.516667	1	0.025500
6.533333	1	0.023875
6.550000	1	0.022625
6.566667	1	0.021000
6.583333	1	0.020250
6.600000	1	0.019875
6.616667	1	0.019125
6.633333	1	0.018750
6.650000	1	0.018375
6.666667	1	0.018125
6.683333	1	0.018375
6.700000	1	0.018875
6.716667	1	0.019000
6.733333	1	0.020125
6.750000	1	0.021375
6.766667	1	0.023000
6.783333	1	0.025000
6.800000	1	0.026500
6.816667	1	0.028250
6.833333	1	0.030625
6.850000	1	0.033000
6.866667	1	0.036000
6.883333	1	0.038750
6.900000	1	0.041750
6.916667	1	0.044875
6.933333	1	0.048375
6.950000	1	0.051875
6.966667	1	0.056125
6.983333	1	0.060250
7.000000	1	0.064875
7.016667	1	0.068625
7.033333	1	0.072875
7.050000	1	0.076375
7.066667	1	0.079500
7.083333	1	0.083375
7.100000	1	0.087000
7.116667	1	0.091250
7.133333	1	0.093750
7.150000	1	0.096750
7.166667	1	0.099625
7.183333	1	0.102625
7.200000	1	0.105000
7.216667	1	0.107250
7.233333	1	0.108875
7.250000	1	0.110250
7.266667	1	0.110750
7.283333	1	0.111375
7.300000	1	0.111750
7.316667	1	0.112000
7.333333	1	0.111750
7.350000	1	0.110875
7.366667	1	0.110000
7.383333	1	0.109250
7.400000	1	0.108250
7.416667	1	0.105875
7.433333	1	0.104000
7.450000	1	0.102000
7.466667	1	0.100000
7.483333	1	0.097000
7.500000	1	0.094500
7.516667	1	0.091250
7.533333	1	0.088750
7.550000	1	0.086000
7.566667	1	0.083375
7.583333	1	0.081000
7.600000	1	0.078000
7.616667	1	0.075250
7.633333	1	0.071625
7.650000	1	0.068375
7.666667	1	0.064875
7.683333	1	0.061750
7.700000	1	0.058375
7.716667	1	0.055250
7.733333	1	0.052000
7.750000	1	0.048750
7.766667	1	0.046375
7.783333	1	0.043750
7.800000	1	0.041500
7.816667	1	0.038250
7.833333	1	0.035375
7.850000	1	0.032750
7.866667	1	0.030750
7.883333	1	0.027750
7.900000	1	0.025375
7.916667	1	0.022625
7.933333	1	0.021000
7.950000	1	0.018375
7.966667	1	0.015875
7.983333	1	0.013875
8.000000	1	0.012125
8.016667	1	0.010000
8.033333	1	0.008250
8.050000	1	0.006625
8.066667	1	0.005125
8.083333	1	0.003625
8.100000	1	0.002375
8.116667	1	0.001250
8.133333	1	0.000250
8.150000	1	-0.000875
8.166667	1	-0.002000
8.183333	1	-0.002875
8.200000	1	-0.003875
8.216667	1	-0.004625
8.233333	1	-0.005125
8.250000	1	-0.006500
8.266667	1	-0.007250
8.283333	1	-0.007750
8.300000	1	-0.008125
8.316667	1	-0.008875
8.333333	1	-0.009750
8.350000	1	-0.010375
8.366667	1	-0.011250
8.383333	1	-0.012000
8.400000	1	-0.013500
8.416667	1	-0.015125
8.433333	1	-0.016625
8.450000	1	-0.017750
8.466667	1	-0.018500
8.483333	1	-0.019625
8.500000	1	-0.021500
8.516667	1	-0.023500
8.533333	1	-0.025625
8.550000	1	-0.027250
8.566667	1	-0.029375
8.583333	1	-0.031875
8.600000	1	-0.033875
8.616667	1	-0.036250
8.633333	1	-0.038500
8.650000	1	-0.040375
8.666667	1	-0.042000
8.683333	1	-0.044375
8.700000	1	-0.046625
8.716667	1	-0.048000
8.733333	1	-0.049750
8.750000	1	-0.051000
8.766667	1	-0.052125
8.783333	1	-0.052375
8.800000	1	-0.052625
8.816667	1	-0.053375
8.833333	1	-0.054000
8.850000	1	-0.054000
8.866667	1	-0.054000
8.883333	1	-0.053875
8.900000	1	-0.052250
8.916667	1	-0.050750
8.933333	1	-0.049625
8.950000	1	-0.047750
8.966667	1	-0.045625
8.983333	1	-0.044125
9.000000	1	-0.041625
9.016667	1	-0.039000
9.033333	1	-0.036250
9.050000	1	-0.034125
9.066667	1	-0.032250
9.083333	1	-0.029625
9.100000	1	-0.026750
9.116667	1	-0.023875
9.133333	1	-0.020875
9.150000	1	-0.017625
9.166667	1	-0.015375
9.183333	1	-0.013625
9.200000	1	-0.011375
9.216667	1	-0.009000
9.233333	1	-0.007250
9.250000	1	-0.005375
9.266667	1	-0.003750
9.283333	1	-0.002500
9.300000	1	-0.000625
9.316667	1	0.000750
9.333333	1	0.001875
9.350000	1	0.003250
9.366667	1	0.004375
9.383333	1	0.004875
9.400000	1	0.005000
9.416667	1	0.005250
9.433333	1	0.005500
9.450000	1	0.006375
9.466667	1	0.006875
9.483333	1	0.007500
9.500000	1	0.008000
9.516667	1	0.007875
9.533333	1	0.007375
9.550000	1	0.007125
9.566667	1	0.006875
9.583333	1	0.006375
9.600000	1	0.006500
9.616667	1	0.006250
9.633333	1	0.005625
9.650000	1	0.005500
9.666667	1	0.005375
9.683333	1	0.005125
9.700000	1	0.004625
9.716667	1	0.004000
9.733333	1	0.003500
9.750000	1	0.003375
9.766667	1	0.002500
9.783333	1	0.002375
9.800000	1	0.001750
9.816667	1	0.001250
9.833333	1	0.000875
9.850000	1	0.001375
9.866667	1	0.001125
9.883333	1	0.000625
9.900000	1	0.000375
9.916667	1	0.000375
9.933333	1	0.000000
9.950000	1	0.000500
9.966667	1	-0.000375
9.983333	1	-0.000125
10.000000	1	-0.000750
10.016667	1	-0.001250
10.033333	1	-0.001875
10.050000	1	-0.002625
10.066667	1	-0.002625
10.083333	1	-0.002750
10.100000	1	-0.002875
10.116667	1	-0.003125
10.133333	1	-0.003125
10.150000	1	-0.002250
10.166667	1	-0.000875
10.183333	1	0.001250
10.200000	1	0.005125
10.216667	1	0.009625
10.233333	1	0.016000
10.250000	1	0.022875
10.266667	1	0.031750
10.283333	1	0.044125
10.300000	1	0.057250
10.316667	1	0.073375
10.333333	1	0.090500
10.350000	1	0.108125
10.366667	1	0.125375
10.383333	1	0.138500
10.400000	1	0.144875
10.416667	1	0.140375
10.433333	1	0.120875
10.450000	1	0.086125
10.466667	1	0.040000
10.483333	1	-0.008250
10.500000	1	-0.039125
10.516667	1	-0.023125
10.533333	1	0.080500
10.550000	1	0.319375
10.566667	1	0.749000
10.583333	1	1.426500
10.600000	1	2.408750
10.616667	1	3.746625
10.633333	1	5.482375
10.650000	1	7.642750
10.666667	1	10.251250
10.683333	1	13.316125
10.700000	1	16.837000
10.716667	1	20.801875
10.733333	1	25.185000
10.750000	1	29.952625
10.766667	1	35.056000
10.783333	1	40.436250
10.800000	1	46.014625
10.816667	1	51.685250
10.833333	1	57.296500
10.850000	1	62.627000
10.866667	1	67.375250
10.883333	1	71.129125
10.900000	1	73.396875
10.916667	1	73.685625
10.933333	1	71.660375
10.950000	1	67.296000
10.966667	1	60.968375
10.983333	1	53.353000
11.000000	1	45.248500
11.016667	1	37.374125
11.033333	1	30.242625
11.050000	1	24.110250
11.066667	1	19.033000
11.083333	1	14.952000
11.100000	1	11.743250
11.116667	1	9.264250
11.133333	1	7.373375
11.150000	1	5.943625
11.166667	1	4.867500
11.183333	1	4.059125
11.200000	1	3.450500
11.216667	1	2.988375
11.233333	1	2.635125
11.250000	1	2.362250
11.266667	1	2.149250
11.283333	1	1.979875
11.300000	1	1.842625
11.316667	1	1.729375
11.333333	1	1.633875
11.350000	1	1.552000
11.366667	1	1.480375
11.383333	1	1.416125
11.400000	1	1.358250
11.416667	1	1.306750
11.433333	1	1.259875
11.450000	1	1.218125
11.466667	1	1.180750
11.483333	1	1.148250
11.500000	1	1.119875
11.516667	1	1.095875
11.533333	1	1.076250
11.550000	1	1.060750
11.566667	1	1.049375
11.583333	1	1.041875
11.600000	1	1.039250
11.616667	1	1.041125
11.633333	1	1.047625
11.650000	1	1.057750
11.666667	1	1.072500
11.683333	1	1.091250
11.700000	1	1.114375
11.716667	1	1.139125
11.733333	1	1.165125
11.750000	1	1.190750
11.766667	1	1.215875
11.783333	1	1.238750
11.800000	1	1.258125
11.816667	1	1.272750
11.833333	1	1.281500
11.850000	1	1.284625
11.866667	1	1.282000
11.883333	1	1.274125
11.900000	1	1.261625
11.916667	1	1.245125
11.933333	1	1.227125
11.950000	1	1.207000
11.966667	1	1.186375
11.983333	1	1.166250
12.000000	1	1.146125
12.016667	1	1.128000
12.033333	1	1.111750
12.050000	1	1.097125
12.066667	1	1.084500
12.083333	1	1.073875
12.100000	1	1.064625
12.116667	1	1.057500
12.133333	1	1.051750
12.150000	1	1.047375
12.166667	1	1.043500
12.183333	1	1.041875
12.200000	1	1.041500
12.216667	1	1.042750
12.233333	1	1.045875
12.250000	1	1.050875
12.266667	1	1.058625
12.283333	1	1.070875
12.300000	1	1.089750
12.316667	1	1.117375
12.333333	1	1.157625
12.350000	1	1.214500
12.366667	1	1.296250
12.383333	1	1.412250
12.400000	1	1.574875
12.416667	1	1.800500
12.433333	1	2.111250
12.450000	1	2.534625
12.466667	1	3.105500
12.483333	1	3.866500
12.500000	1	4.868125
12.516667	1	6.169500
12.533333	1	7.835125
12.550000	1	9.929875
12.566667	1	12.523375
12.583333	1	15.676750
12.600000	1	19.434000
12.616667	1	23.809250
12.633333	1	28.783625
12.650000	1	34.304875
12.666667	1	40.267375
12.683333	1	46.513250
12.700000	1	52.829875
12.716667	1	58.968250
12.733333	1	64.655125
12.750000	1	69.619500
12.766667	1	73.619250
12.783333	1	76.459250
12.800000	1	78.015125
12.816667	1	78.248000
12.833333	1	77.201625
12.850000	1	74.997250
12.866667	1	71.823000
12.883333	1	67.911875
12.900000	1	63.524375
12.916667	1	58.913250
12.933333	1	54.315875
12.950000	1	49.926000
12.966667	1	45.888750
12.983333	1	42.302500
13.000000	1	39.222625
13.016667	1	36.664375
13.033333	1	34.613375
13.050000	1	33.034500
13.066667	1	31.883875
13.083333	1	31.109500
13.100000	1	30.661125
13.116667	1	30.489375
13.133333	1	30.550000
13.150000	1	30.803000
13.166667	1	31.214250
13.183333	1	31.756000
13.200000	1	32.405250
13.216667	1	33.142000
13.233333	1	33.952625
13.250000	1	34.827500
13.266667	1	35.756625
13.283333	1	36.733750
13.300000	1	37.751500
13.316667	1	38.808875
13.333333	1	39.899000
13.350000	1	41.021875
13.366667	1	42.175125
13.383333	1	43.358375
13.400000	1	44.570000
13.416667	1	45.809750
13.433333	1	47.079000
13.450000	1	48.379250
13.466667	1	49.709375
13.483333	1	51.069875
13.500000	1	52.460875
13.516667	1	53.882625
13.533333	1	55.334375
13.550000	1	56.816375
13.566667	1	58.329500
13.583333	1	59.873750
13.600000	1	61.448375
13.616667	1	63.054125
13.633333	1	64.692875
13.650000	1	66.367250
13.666667	1	68.077000
13.683333	1	69.823125
13.700000	1	71.605750
13.716667	1	73.425625
13.733333	1	75.276375
13.750000	1	77.131375
13.766667	1	78.915125
13.783333	1	80.467750
13.800000	1	81.569750
13.816667	1	82.000750
13.833333	1	81.594875
13.850000	1	80.236500
13.866667	1	77.800000
13.883333	1	74.098875
13.900000	1	68.920250
13.916667	1	62.193875
13.933333	1	54.188625
13.950000	1	45.555125
13.966667	1	37.127125
13.983333	1	29.608250
14.000000	1	23.358375
14.016667	1	18.401875
14.033333	1	14.578500
14.050000	1	11.674750
14.066667	1	9.491125
14.083333	1	7.863375
14.100000	1	6.659250
14.116667	1	5.772500
14.133333	1	5.118875
14.150000	1	4.633625
14.166667	1	4.268250
14.183333	1	3.988625
14.200000	1	3.769750
14.216667	1	3.594000
14.233333	1	3.450125
14.250000	1	3.329375
14.266667	1	3.226125
14.283333	1	3.135375
14.300000	1	3.055000
14.316667	1	2.983125
14.333333	1	2.917625
14.350000	1	2.857625
14.366667	1	2.802750
14.383333	1	2.751500
14.400000	1	2.704875
14.416667	1	2.660625
14.433333	1	2.621250
14.450000	1	2.584375
14.466667	1	2.551000
14.483333	1	2.519875
14.500000	1	2.490625
14.516667	1	2.463250
14.533333	1	2.437375
14.550000	1	2.413625
14.566667	1	2.390750
14.583333	1	2.368375
14.600000	1	2.346500
14.616667	1	2.324875
14.633333	1	2.303125
14.650000	1	2.280125
14.666667	1	2.257500
14.683333	1	2.233500
14.700000	1	2.208375
14.716667	1	2.183500
14.733333	1	2.158375
14.750000	1	2.132250
14.766667	1	2.105625
14.783333	1	2.079000
14.800000	1	2.051500
14.816667	1	2.024750
14.833333	1	1.998250
14.850000	1	1.972250
14.866667	1	1.946875
14.883333	1	1.921375
14.900000	1	1.896500
14.916667	1	1.871125
14.933333	1	1.845875
14.950000	1	1.821250
14.966667	1	1.796500
14.983333	1	1.772500
15.000000	1	1.748750
15.016667	1	1.725000
15.033333	1	1.702125
15.050000	1	1.680375
15.066667	1	1.658250
15.083333	1	1.636750
15.100000	1	1.616375
15.116667	1	1.596375
15.133333	1	1.577000
15.150000	1	1.558375
15.166667	1	1.540375
15.183333	1	1.524000
15.200000	1	1.508125
15.216667	1	1.493625
15.233333	1	1.480375
15.250000	1	1.468750
15.266667	1	1.458875
15.283333	1	1.450750
15.300000	1	1.444875
15.316667	1	1.441000
15.333333	1	1.440250
15.350000	1	1.442375
15.366667	1	1.447750
15.383333	1	1.457250
15.400000	1	1.469875
15.416667	1	1.487000
15.433333	1	1.507875
15.450000	1	1.532375
15.466667	1	1.560250
15.483333	1	1.589375
15.500000	1	1.619250
15.516667	1	1.648375
15.533333	1	1.675500
15.550000	1	1.698375
15.566667	1	1.716125
15.583333	1	1.726500
15.600000	1	1.729750
15.616667	1	1.725250
15.633333	1	1.712625
15.650000	1	1.692125
15.666667	1	1.664625
15.683333	1	1.631750
15.700000	1	1.594875
15.716667	1	1.555000
15.733333	1	1.514500
15.750000	1	1.473750
15.766667	1	1.433875
15.783333	1	1.396125
15.800000	1	1.358875
15.816667	1	1.323500
15.833333	1	1.290125
15.850000	1	1.258000
15.866667	1	1.227500
15.883333	1	1.198625
15.900000	1	1.170375
15.916667	1	1.143500
15.933333	1	1.118375
15.950000	1	1.094750
15.966667	1	1.072875
15.983333	1	1.052500
16.000000	1	1.033375
16.016667	1	1.017875
16.033333	1	1.004375
16.050000	1	0.993125
16.066667	1	0.983875
16.083333	1	0.976500
16.100000	1	0.971625
16.116667	1	0.968125
16.133333	1	0.966875
16.150000	1	0.966625
16.166667	1	0.967250
16.183333	1	0.968375
16.200000	1	0.970625
16.216667	1	0.972875
16.233333	1	0.974750
16.250000	1	0.977000
16.266667	1	0.978500
16.283333	1	0.979750
16.300000	1	0.980000
16.316667	1	0.979750
16.333333	1	0.979250
16.350000	1	0.978500
16.366667	1	0.976750
16.383333	1	0.974375
16.400000	1	0.972000
16.416667	1	0.969250
16.433333	1	0.966625
16.450000	1	0.963750
16.466667	1	0.962500
16.483333	1	0.961875
16.500000	1	0.962375
16.516667	1	0.964250
16.533333	1	0.966250
16.550000	1	0.970500
16.566667	1	0.976125
16.583333	1	0.983125
16.600000	1	0.991625
16.616667	1	0.999750
16.633333	1	1.008625
16.650000	1	1.018500
16.666667	1	1.027625
16.683333	1	1.036500
16.700000	1	1.043750
16.716667	1	1.050250
16.733333	1	1.055250
16.750000	1	1.059750
16.766667	1	1.063125
16.783333	1	1.066375
16.800000	1	1.069125
16.816667	1	1.071125
16.833333	1	1.073250
16.850000	1	1.075250
16.866667	1	1.077625
16.883333	1	1.079500
16.900000	1	1.082500
16.916667	1	1.084625
16.933333	1	1.087500
16.950000	1	1.089750
16.966667	1	1.090875
16.983333	1	1.091750
17.000000	1	1.091875
17.016667	1	1.090625
17.033333	1	1.088375
17.050000	1	1.085625
17.066667	1	1.082250
17.083333	1	1.078625
17.100000	1	1.074375
17.116667	1	1.070375
17.133333	1	1.066500
17.150000	1	1.062875
17.166667	1	1.060000
17.183333	1	1.057625
17.200000	1	1.055875
17.216667	1	1.055125
17.233333	1	1.055625
17.250000	1	1.057000
17.266667	1	1.059125
17.283333	1	1.062250
17.300000	1	1.065625
17.316667	1	1.070375
17.333333	1	1.075375
17.350000	1	1.081125
17.366667	1	1.086875
17.383333	1	1.092125
17.400000	1	1.097375
17.416667	1	1.102625
17.433333	1	1.106625
17.450000	1	1.110375
17.466667	1	1.111625
17.483333	1	1.112000
17.500000	1	1.110750
17.516667	1	1.107750
17.533333	1	1.103000
17.550000	1	1.096750
17.566667	1	1.088875
17.583333	1	1.078625
17.600000	1	1.067625
17.616667	1	1.055375
17.633333	1	1.041500
17.650000	1	1.027125
17.666667	1	1.011250
17.683333	1	0.995000
17.700000	1	0.978875
17.716667	1	0.962500
17.733333	1	0.946500
17.750000	1	0.930625
17.766667	1	0.915625
17.783333	1	0.901000
17.800000	1	0.888125
17.816667	1	0.874625
17.833333	1	0.862750
17.850000	1	0.851000
17.866667	1	0.840625
17.883333	1	0.831000
17.900000	1	0.822375
17.916667	1	0.813500
17.933333	1	0.806000
17.950000	1	0.799250
17.966667	1	0.792875
17.983333	1	0.786875
18.000000	1	0.780625
18.016667	1	0.775750
18.033333	1	0.770375
18.050000	1	0.766125
18.066667	1	0.761625
18.083333	1	0.756750
18.100000	1	0.751625
18.116667	1	0.746500
18.133333	1	0.741625
18.150000	1	0.736750
18.166667	1	0.732250
18.183333	1	0.728125
18.200000	1	0.723750
18.216667	1	0.720000
18.233333	1	0.716250
18.250000	1	0.712500
18.266667	1	0.709500
18.283333	1	0.707500
18.300000	1	0.706000
18.316667	1	0.704500
18.333333	1	0.703625
18.350000	1	0.703500
18.366667	1	0.703500
18.383333	1	0.704375
18.400000	1	0.706125
18.416667	1	0.707750
18.433333	1	0.709875
18.450000	1	0.712125
18.466667	1	0.715875
18.483333	1	0.720625
18.500000	1	0.725875
18.516667	1	0.732625
18.533333	1	0.740625
18.550000	1	0.749875
18.566667	1	0.762000
18.583333	1	0.775875
18.600000	1	0.792000
18.616667	1	0.810000
18.633333	1	0.829125
18.650000	1	0.850375
18.666667	1	0.874000
18.683333	1	0.900125
18.700000	1	0.928000
18.716667	1	0.956875
18.733333	1	0.987625
18.750000	1	1.019875
18.766667	1	1.052750
18.783333	1	1.086125
18.800000	1	1.120500
18.816667	1	1.154250
18.833333	1	1.186625
18.850000	1	1.217750
18.866667	1	1.246125
18.883333	1	1.272875
18.900000	1	1.295750
18.916667	1	1.314625
18.933333	1	1.329000
18.950000	1	1.338000
18.966667	1	1.341250
18.983333	1	1.337875
19.000000	1	1.328875
19.016667	1	1.313250
19.033333	1	1.290875
19.050000	1	1.262375
19.066667	1	1.228375
19.083333	1	1.190000
19.100000	1	1.147625
19.116667	1	1.102625
19.133333	1	1.054500
19.150000	1	1.005750
19.166667	1	0.956125
19.183333	1	0.907750
19.200000	1	0.860625
19.216667	1	0.816875
19.233333	1	0.776000
19.250000	1	0.739500
19.266667	1	0.706875
19.283333	1	0.677500
19.300000	1	0.654250
19.316667	1	0.635625
19.333333	1	0.621500
19.350000	1	0.613750
19.366667	1	0.610250
19.383333	1	0.611875
19.400000	1	0.617500
19.416667	1	0.627750
19.433333	1	0.642875
19.450000	1	0.661500
19.466667	1	0.683000
19.483333	1	0.708500
19.500000	1	0.736750
19.516667	1	0.767250
19.533333	1	0.798875
19.550000	1	0.831375
19.566667	1	0.863625
19.583333	1	0.894375
19.600000	1	0.922375
19.616667	1	0.948125
19.633333	1	0.970250
19.650000	1	0.987000
19.666667	1	1.000250
19.683333	1	1.008250
19.700000	1	1.010000
19.716667	1	1.007000
19.733333	1	0.997750
19.750000	1	0.983625
19.766667	1	0.964625
19.783333	1	0.941875
19.800000	1	0.915750
19.816667	1	0.886250
19.833333	1	0.855375
19.850000	1	0.823500
19.866667	1	0.790625
19.883333	1	0.757750
19.900000	1	0.726500
19.916667	1	0.696375
19.933333	1	0.667125
19.950000	1	0.640375
19.966667	1	0.615375
19.983333	1	0.592375
20.000000	1	0.571375
20.016667	1	0.553125
20.033333	1	0.537125
20.050000	1	0.524000
20.066667	1	0.513750
20.083333	1	0.505500
20.100000	1	0.499250
20.116667	1	0.497000
20.133333	1	0.496125
20.150000	1	0.497750
20.166667	1	0.501750
20.183333	1	0.508000
20.200000	1	0.515625
20.216667	1	0.525625
20.233333	1	0.537250
20.250000	1	0.549875
20.266667	1	0.563500
20.283333	1	0.577625
20.300000	1	0.591750
20.316667	1	0.605750
20.333333	1	0.618250
20.350000	1	0.629625
20.366667	1	0.639500
20.383333	1	0.648000
20.400000	1	0.654375
20.416667	1	0.657125
20.433333	1	0.658875
20.450000	1	0.657875
20.466667	1	0.655500
20.483333	1	0.651875
20.500000	1	0.648250
20.516667	1	0.645375
20.533333	1	0.642500
20.550000	1	0.641750
20.566667	1	0.644875
20.583333	1	0.651250
20.600000	1	0.662875
20.616667	1	0.679625
20.633333	1	0.702375
20.650000	1	0.731500
20.666667	1	0.767875
20.683333	1	0.811125
20.700000	1	0.860750
20.716667	1	0.916875
20.733333	1	0.978500
20.750000	1	1.045125
20.766667	1	1.115250
20.783333	1	1.186000
20.800000	1	1.256625
20.816667	1	1.324625
20.833333	1	1.388250
20.850000	1	1.446500
20.866667	1	1.495125
20.883333	1	1.533750
20.900000	1	1.560250
20.916667	1	1.575000
20.933333	1	1.575875
20.950000	1	1.562500
20.966667	1	1.536750
20.983333	1	1.498875
21.000000	1	1.450250
21.016667	1	1.392250
21.033333	1	1.326625
21.050000	1	1.256750
21.066667	1	1.182875
21.083333	1	1.108375
21.100000	1	1.034375
21.116667	1	0.962125
21.133333	1	0.893125
21.150000	1	0.828500
21.166667	1	0.768500
21.183333	1	0.713625
21.200000	1	0.663875
21.216667	1	0.620000
21.233333	1	0.580375
21.250000	1	0.546125
21.266667	1	0.516375
21.283333	1	0.490500
21.300000	1	0.468500
21.316667	1	0.449500
21.333333	1	0.434000
21.350000	1	0.420250
21.366667	1	0.409000
21.383333	1	0.399500
21.400000	1	0.391625
21.416667	1	0.384750
21.433333	1	0.379375
21.450000	1	0.374500
21.466667	1	0.370625
21.483333	1	0.367250
21.500000	1	0.364625
21.516667	1	0.364000
21.533333	1	0.363125
21.550000	1	0.362875
21.566667	1	0.363625
21.583333	1	0.366250
21.600000	1	0.369500
21.616667	1	0.373875
21.633333	1	0.380250
21.650000	1	0.388125
21.666667	1	0.396375
21.683333	1	0.407625
21.700000	1	0.420375
21.716667	1	0.435125
21.733333	1	0.451875
21.750000	1	0.470375
21.766667	1	0.491375
21.783333	1	0.514125
21.800000	1	0.539000
21.816667	1	0.565250
21.833333	1	0.594125
21.850000	1	0.624500
21.866667	1	0.655875
21.883333	1	0.688000
21.900000	1	0.721375
21.916667	1	0.754250
21.933333	1	0.787625
21.950000	1	0.821000
21.966667	1	0.852125
21.983333	1	0.881375
22.000000	1	0.907875
22.016667	1	0.931500
22.033333	1	0.950875
22.050000	1	0.966500
22.066667	1	0.978500
22.083333	1	0.985125
22.100000	1	0.986250
22.116667	1	0.983125
22.133333	1	0.975500
22.150000	1	0.963000
22.166667	1	0.945625
22.183333	1	0.924750
22.200000	1	0.900250
22.216667	1	0.873125
22.233333	1	0.844000
22.250000	1	0.813250
22.266667	1	0.781125
22.283333	1	0.748500
22.300000	1	0.715875
22.316667	1	0.682500
22.333333	1	0.649375
22.350000	1	0.616750
22.366667	1	0.585375
22.383333	1	0.555750
22.400000	1	0.526750
22.416667	1	0.499250
22.433333	1	0.473500
22.450000	1	0.448750
22.466667	1	0.426875
22.483333	1	0.406500
22.500000	1	0.387250
22.516667	1	0.369750
22.533333	1	0.353875
22.550000	1	0.339750
22.566667	1	0.327000
22.583333	1	0.315625
22.600000	1	0.305625
22.616667	1	0.297125
22.633333	1	0.289875
22.650000	1	0.283000
22.666667	1	0.277000
22.683333	1	0.271875
22.700000	1	0.267250
22.716667	1	0.263625
22.733333	1	0.260500
22.750000	1	0.257375
22.766667	1	0.255250
22.783333	1	0.253000
22.800000	1	0.251250
22.816667	1	0.249625
22.833333	1	0.248375
22.850000	1	0.246875
22.866667	1	0.245625
22.883333	1	0.245125
22.900000	1	0.245000
22.916667	1	0.244375
22.933333	1	0.244250
22.950000	1	0.243875
22.966667	1	0.243750
22.983333	1	0.244000
23.000000	1	0.244500
23.016667	1	0.244625
23.033333	1	0.244875
23.050000	1	0.245250
23.066667	1	0.245875
23.083333	1	0.246875
23.100000	1	0.248250
23.116667	1	0.249750
23.133333	1	0.251500
23.150000	1	0.253250
23.166667	1	0.254500
23.183333	1	0.255875
23.200000	1	0.257750
23.216667	1	0.259500
23.233333	1	0.261875
23.250000	1	0.264375
23.266667	1	0.268375
23.283333	1	0.273000
23.300000	1	0.278875
23.316667	1	0.286625
23.333333	1	0.295875
23.350000	1	0.307375
23.366667	1	0.321875
23.383333	1	0.340000
23.400000	1	0.361500
23.416667	1	0.387875
23.433333	1	0.420250
23.450000	1	0.457875
23.466667	1	0.502375
23.483333	1	0.554875
23.500000	1	0.616375
23.516667	1	0.686750
23.533333	1	0.767375
23.550000	1	0.858625
23.566667	1	0.962625
23.583333	1	1.079250
23.600000	1	1.208625
23.616667	1	1.350875
23.633333	1	1.506250
23.650000	1	1.674250
23.666667	1	1.854750
23.683333	1	2.045875
23.700000	1	2.246750
23.716667	1	2.456500
23.733333	1	2.672750
23.750000	1	2.890875
23.766667	1	3.109250
23.783333	1	3.322750
23.800000	1	3.528375
23.816667	1	3.722000
23.833333	1	3.899000
23.850000	1	4.056250
23.866667	1	4.190250
23.883333	1	4.297375
23.900000	1	4.375125
23.916667	1	4.421750
23.933333	1	4.435375
23.950000	1	4.416125
23.966667	1	4.365125
23.983333	1	4.284125
24.000000	1	4.174625
24.016667	1	4.039375
24.033333	1	3.882125
24.050000	1	3.706750
24.066667	1	3.516875
24.083333	1	3.317375
24.100000	1	3.110750
24.116667	1	2.901375
24.133333	1	2.692125
24.150000	1	2.487375
24.166667	1	2.288000
24.183333	1	2.097250
24.200000	1	1.916875
24.216667	1	1.747750
24.233333	1	1.589875
24.250000	1	1.444625
24.266667	1	1.312000
24.283333	1	1.191625
24.300000	1	1.082500
24.316667	1	0.985500
24.333333	1	0.898625
24.350000	1	0.821625
24.366667	1	0.754375
24.383333	1	0.695375
24.400000	1	0.643750
24.416667	1	0.598125
24.433333	1	0.559500
24.450000	1	0.526125
24.466667	1	0.497625
24.483333	1	0.473375
24.500000	1	0.453000
24.516667	1	0.435125
24.533333	1	0.419750
24.550000	1	0.407000
24.566667	1	0.396375
24.583333	1	0.386375
24.600000	1	0.377625
24.616667	1	0.370000
24.633333	1	0.363000
24.650000	1	0.356000
24.666667	1	0.349750
24.683333	1	0.343750
24.700000	1	0.338375
24.716667	1	0.332875
24.733333	1	0.327375
24.750000	1	0.320875
24.766667	1	0.314750
24.783333	1	0.309375
24.800000	1	0.304500
24.816667	1	0.298875
24.833333	1	0.293625
24.850000	1	0.288375
24.866667	1	0.283375
24.883333	1	0.279000
24.900000	1	0.275125
24.916667	1	0.270875
24.933333	1	0.267125
24.950000	1	0.263375
24.966667	1	0.259625
24.983333	1	0.256375
25.000000	1	0.252500
25.016667	1	0.249375
25.033333	1	0.246375
25.050000	1	0.242750
25.066667	1	0.239750
25.083333	1	0.237375
25.100000	1	0.234500
25.116667	1	0.231750
25.133333	1	0.229625
25.150000	1	0.227125
25.166667	1	0.224250
25.183333	1	0.221000
25.200000	1	0.218250
25.216667	1	0.215250
25.233333	1	0.212625
25.250000	1	0.210125
25.266667	1	0.207375
25.283333	1	0.204375
25.300000	1	0.201500
25.316667	1	0.199500
25.333333	1	0.197125
25.350000	1	0.195375
25.366667	1	0.192625
25.383333	1	0.190500
25.400000	1	0.188625
25.416667	1	0.186375
25.433333	1	0.184750
25.450000	1	0.182750
25.466667	1	0.181875
25.483333	1	0.181375
25.500000	1	0.181000
25.516667	1	0.181000
25.533333	1	0.180500
25.550000	1	0.180625
25.566667	1	0.180750
25.583333	1	0.181000
25.600000	1	0.181125
25.616667	1	0.181750
25.633333	1	0.181875
25.650000	1	0.182750
25.666667	1	0.183125
25.683333	1	0.183625
25.700000	1	0.185000
25.716667	1	0.185875
25.733333	1	0.187500
25.750000	1	0.188875
25.766667	1	0.189500
25.783333	1	0.191375
25.800000	1	0.193125
25.816667	1	0.194875
25.833333	1	0.196500
25.850000	1	0.199250
25.866667	1	0.202625
25.883333	1	0.205625
25.900000	1	0.208250
25.916667	1	0.211500
25.933333	1	0.215250
25.950000	1	0.218500
25.966667	1	0.222375
25.983333	1	0.226000
26.000000	1	0.229875
26.016667	1	0.234500
26.033333	1	0.238875
26.050000	1	0.243500
26.066667	1	0.247625
26.083333	1	0.252750
26.100000	1	0.257875
26.116667	1	0.262875
26.133333	1	0.267000
26.150000	1	0.271250
26.166667	1	0.274250
26.183333	1	0.277625
26.200000	1	0.281000
26.216667	1	0.283875
26.233333	1	0.285875
26.250000	1	0.287500
26.266667	1	0.288000
26.283333	1	0.288500
26.300000	1	0.288125
26.316667	1	0.287500
26.333333	1	0.285750
26.350000	1	0.284375
26.366667	1	0.281750
26.383333	1	0.278875
26.400000	1	0.274875
26.416667	1	0.270500
26.433333	1	0.266375
26.450000	1	0.261375
26.466667	1	0.256000
26.483333	1	0.251375
26.500000	1	0.245000
26.516667	1	0.239250
26.533333	1	0.233250
26.550000	1	0.227500
26.566667	1	0.220875
26.583333	1	0.214000
26.600000	1	0.207750
26.616667	1	0.202125
26.633333	1	0.195875
26.650000	1	0.189625
26.666667	1	0.184125
26.683333	1	0.178250
26.700000	1	0.172625
26.716667	1	0.166625
26.733333	1	0.161500
26.750000	1	0.156750
26.766667	1	0.152250
26.783333	1	0.148000
26.800000	1	0.144250
26.816667	1	0.140875
26.833333	1	0.137125
26.850000	1	0.133500
26.866667	1	0.130500
26.883333	1	0.128125
26.900000	1	0.125625
26.916667	1	0.123125
26.933333	1	0.121250
26.950000	1	0.120125
26.966667	1	0.119000
26.983333	1	0.117625
27.000000	1	0.117750
27.016667	1	0.118125
27.033333	1	0.118750
27.050000	1	0.121125
27.066667	1	0.124375
27.083333	1	0.128375
27.100000	1	0.133375
27.116667	1	0.139250
27.133333	1	0.146500
27.150000	1	0.154625
27.166667	1	0.164625
27.183333	1	0.177375
27.200000	1	0.192250
27.216667	1	0.209375
27.233333	1	0.229375
27.250000	1	0.252875
27.266667	1	0.278625
27.283333	1	0.308500
27.300000	1	0.343250
27.316667	1	0.382375
27.333333	1	0.426250
27.350000	1	0.475375
27.366667	1	0.530500
27.383333	1	0.590750
27.400000	1	0.658250
27.416667	1	0.732250
27.433333	1	0.814000
27.450000	1	0.902875
27.466667	1	1.000250
27.483333	1	1.105875
27.500000	1	1.220000
27.516667	1	1.341625
27.533333	1	1.471000
27.550000	1	1.608000
27.566667	1	1.752500
27.583333	1	1.903500
27.600000	1	2.059875
27.616667	1	2.221500
27.633333	1	2.386375
27.650000	1	2.553250
27.666667	1	2.721000
27.683333	1	2.887500
27.700000	1	3.049625
27.716667	1	3.206625
27.733333	1	3.356125
27.750000	1	3.495375
27.766667	1	3.622000
27.783333	1	3.733875
27.800000	1	3.829250
27.816667	1	3.906375
27.833333	1	3.963875
27.850000	1	4.000375
27.866667	1	4.013875
27.883333	1	4.005250
27.900000	1	3.974000
27.916667	1	3.919625
27.933333	1	3.843375
27.950000	1	3.748375
27.966667	1	3.634000
27.983333	1	3.503125
28.000000	1	3.357750
28.016667	1	3.200875
28.033333	1	3.034000
28.050000	1	2.859750
28.066667	1	2.681500
28.083333	1	2.502250
28.100000	1	2.322875
28.116667	1	2.146750
28.133333	1	1.975625
28.150000	1	1.810250
28.166667	1	1.653875
28.183333	1	1.506500
28.200000	1	1.368750
28.216667	1	1.241125
28.233333	1	1.123625
28.250000	1	1.017250
28.266667	1	0.920625
28.283333	1	0.833250
28.300000	1	0.755625
28.316667	1	0.687625
28.333333	1	0.628000
28.350000	1	0.576500
28.366667	1	0.531625
28.383333	1	0.493625
28.400000	1	0.461125
28.416667	1	0.435125
28.433333	1	0.413875
28.450000	1	0.397000
28.466667	1	0.383875
28.483333	1	0.373625
28.500000	1	0.367125
28.516667	1	0.363375
28.533333	1	0.361750
28.550000	1	0.362250
28.566667	1	0.364750
28.583333	1	0.368375
28.600000	1	0.373000
28.616667	1	0.379125
28.633333	1	0.385750
28.650000	1	0.394500
28.666667	1	0.402750
28.683333	1	0.411250
28.700000	1	0.420500
28.716667	1	0.428750
28.733333	1	0.437125
28.750000	1	0.445500
28.766667	1	0.453625
28.783333	1	0.460500
28.800000	1	0.467625
28.816667	1	0.473125
28.833333	1	0.479500
28.850000	1	0.484250
28.866667	1	0.487750
28.883333	1	0.490875
28.900000	1	0.493125
28.916667	1	0.494625
28.933333	1	0.495250
28.950000	1	0.494125
28.966667	1	0.493375
28.983333	1	0.491125
29.000000	1	0.487250
29.016667	1	0.482875
29.033333	1	0.477500
29.050000	1	0.470875
29.066667	1	0.464125
29.083333	1	0.455875
29.100000	1	0.446375
29.116667	1	0.435750
29.133333	1	0.425000
29.150000	1	0.413500
29.166667	1	0.400750
29.183333	1	0.388875
29.200000	1	0.375500
29.216667	1	0.362250
29.233333	1	0.349375
29.250000	1	0.335000
29.266667	1	0.321875
29.283333	1	0.308250
29.300000	1	0.294000
29.316667	1	0.280625
29.333333	1	0.267125
29.350000	1	0.253000
29.366667	1	0.240125
29.383333	1	0.227375
29.400000	1	0.214375
29.416667	1	0.202250
29.433333	1	0.189750
29.450000	1	0.177750
29.466667	1	0.166875
29.483333	1	0.156875
29.500000	1	0.146875
29.516667	1	0.137625
29.533333	1	0.128250
29.550000	1	0.120000
29.566667	1	0.112750
29.583333	1	0.105625
29.600000	1	0.099500
29.616667	1	0.094250
29.633333	1	0.089000
29.650000	1	0.084375
29.666667	1	0.079625
29.683333	1	0.075375
29.700000	1	0.072625
29.716667	1	0.070000
29.733333	1	0.067875
29.750000	1	0.066000
29.766667	1	0.064500
29.783333	1	0.063375
29.800000	1	0.062375
29.816667	1	0.061500
29.833333	1	0.060125
29.850000	1	0.059375
29.866667	1	0.058500
29.883333	1	0.058250
29.900000	1	0.057875
29.916667	1	0.057875
29.933333	1	0.057875
29.950000	1	0.057125
29.966667	1	0.056250
29.983333	1	0.056250
30.000000	1	0.055000
30.016667	1	0.054500
30.033333	1	0.053375
30.050000	1	0.052500
30.066667	1	0.051875
30.083333	1	0.050125
30.100000	1	0.049500
30.116667	1	0.048250
30.133333	1	0.047125
30.150000	1	0.045875
30.166667	1	0.044750
30.183333	1	0.043000
30.200000	1	0.042375
30.216667	1	0.041750
30.233333	1	0.041750
30.250000	1	0.040875
30.266667	1	0.040000
30.283333	1	0.039250
30.300000	1	0.039000
30.316667	1	0.038500
30.333333	1	0.038500
30.350000	1	0.039125
30.366667	1	0.039750
30.383333	1	0.040125
30.400000	1	0.040750
30.416667	1	0.042125
30.433333	1	0.043750
30.450000	1	0.046000
30.466667	1	0.048250
30.483333	1	0.051375
30.500000	1	0.055000
30.516667	1	0.059250
30.533333	1	0.063375
30.550000	1	0.067875
30.566667	1	0.073750
30.583333	1	0.079750
30.600000	1	0.087125
30.616667	1	0.096000
30.633333	1	0.105000
30.650000	1	0.114000
30.666667	1	0.124625
30.683333	1	0.136000
30.700000	1	0.148750
30.716667	1	0.163250
30.733333	1	0.179875
30.750000	1	0.198625
30.766667	1	0.219500
30.783333	1	0.242875
30.800000	1	0.268500
30.816667	1	0.297750
30.833333	1	0.330500
30.850000	1	0.367250
30.866667	1	0.408125
30.883333	1	0.454375
30.900000	1	0.506000
30.916667	1	0.562875
30.933333	1	0.627750
30.950000	1	0.698625
30.966667	1	0.777375
30.983333	1	0.864500
31.000000	1	0.961000
31.016667	1	1.066500
31.033333	1	1.182625
31.050000	1	1.308500
31.066667	1	1.445875
31.083333	1	1.594125
31.100000	1	1.753500
31.116667	1	1.923750
31.133333	1	2.105250
31.150000	1	2.297250
31.166667	1	2.499250
31.183333	1	2.711125
31.200000	1	2.931625
31.216667	1	3.159625
31.233333	1	3.393500
31.250000	1	3.630375
31.266667	1	3.868875
31.283333	1	4.107500
31.300000	1	4.343250
31.316667	1	4.574125
31.333333	1	4.796000
31.350000	1	5.008250
31.366667	1	5.207625
31.383333	1	5.391750
31.400000	1	5.558375
31.416667	1	5.705000
31.433333	1	5.829125
31.450000	1	5.928875
31.466667	1	6.003125
31.483333	1	6.051375
31.500000	1	6.073625
31.516667	1	6.068375
31.533333	1	6.036500
31.550000	1	5.978500
31.566667	1	5.894625
31.583333	1	5.786375
31.600000	1	5.655625
31.616667	1	5.504125
31.633333	1	5.334375
31.650000	1	5.147125
31.666667	1	4.946875
31.683333	1	4.735875
31.700000	1	4.515250
31.716667	1	4.288500
31.733333	1	4.059000
31.750000	1	3.827250
31.766667	1	3.595375
31.783333	1	3.365875
31.800000	1	3.140625
31.816667	1	2.920500
31.833333	1	2.707250
31.850000	1	2.502125
31.866667	1	2.306500
31.883333	1	2.119875
31.900000	1	1.943625
31.916667	1	1.778000
31.933333	1	1.622875
31.950000	1	1.478625
31.966667	1	1.344500
31.983333	1	1.221000
32.000000	1	1.106750
32.016667	1	1.001500
32.033333	1	0.905500
32.050000	1	0.817875
32.066667	1	0.738250
32.083333	1	0.666500
32.100000	1	0.601375
32.116667	1	0.542750
32.133333	1	0.490000
32.150000	1	0.442625
32.166667	1	0.400375
32.183333	1	0.362250
32.200000	1	0.328250
32.216667	1	0.297250
32.233333	1	0.269625
32.250000	1	0.245000
32.266667	1	0.222250
32.283333	1	0.201750
32.300000	1	0.183375
32.316667	1	0.167125
32.333333	1	0.152500
32.350000	1	0.138375
32.366667	1	0.125750
32.383333	1	0.115000
32.400000	1	0.104500
32.416667	1	0.095000
32.433333	1	0.086375
32.450000	1	0.078000
32.466667	1	0.070625
32.483333	1	0.063875
32.500000	1	0.057125
32.516667	1	0.051625
32.533333	1	0.045875
32.550000	1	0.041000
32.566667	1	0.036625
32.583333	1	0.032625
32.600000	1	0.028875
32.616667	1	0.025875
32.633333	1	0.022625
32.650000	1	0.019500
32.666667	1	0.017000
32.683333	1	0.014375
32.700000	1	0.012375
32.716667	1	0.010750
32.733333	1	0.009125
32.750000	1	0.008125
32.766667	1	0.006875
32.783333	1	0.006625
32.800000	1	0.005875
32.816667	1	0.004375
32.833333	1	0.004000
32.850000	1	0.003125
32.866667	1	0.002250
32.883333	1	0.001875
32.900000	1	0.001625
32.916667	1	0.001625
32.933333	1	0.002500
32.950000	1	0.003250
32.966667	1	0.003625
32.983333	1	0.003500
33.000000	1	0.004625
33.016667	1	0.005375
33.033333	1	0.006750
33.050000	1	0.008250
33.066667	1	0.009375
33.083333	1	0.010750
33.100000	1	0.012375
33.116667	1	0.014500
33.133333	1	0.017375
33.150000	1	0.020000
33.166667	1	0.023125
33.183333	1	0.026000
33.200000	1	0.029375
33.216667	1	0.033125
33.233333	1	0.036875
33.250000	1	0.041750
33.266667	1	0.046625
33.283333	1	0.052250
33.300000	1	0.058250
33.316667	1	0.065625
33.333333	1	0.073000
33.350000	1	0.080375
33.366667	1	0.089250
33.383333	1	0.099000
33.400000	1	0.109875
33.416667	1	0.121250
33.433333	1	0.133125
33.450000	1	0.146250
33.466667	1	0.160250
33.483333	1	0.176500
33.500000	1	0.194250
33.516667	1	0.211875
33.533333	1	0.232500
33.550000	1	0.253625
33.566667	1	0.276875
33.583333	1	0.301625
33.600000	1	0.328000
33.616667	1	0.357000
33.633333	1	0.386500
33.650000	1	0.417500
33.666667	1	0.450375
33.683333	1	0.485125
33.700000	1	0.521500
33.716667	1	0.559625
33.733333	1	0.598125
33.750000	1	0.638375
33.766667	1	0.679875
33.783333	1	0.722125
33.800000	1	0.765750
33.816667	1	0.808000
33.833333	1	0.850375
33.850000	1	0.893000
33.866667	1	0.935000
33.883333	1	0.975875
33.900000	1	1.015125
33.916667	1	1.052250
33.933333	1	1.088500
33.950000	1	1.121375
33.966667	1	1.151250
33.983333	1	1.178125
34.000000	1	1.201000
34.016667	1	1.220750
34.033333	1	1.236750
34.050000	1	1.248000
34.066667	1	1.255250
34.083333	1	1.257625
34.100000	1	1.256375
34.116667	1	1.250500
34.133333	1	1.240500
34.150000	1	1.226000
34.166667	1	1.208750
34.183333	1	1.186500
34.200000	1	1.161250
34.216667	1	1.132750
34.233333	1	1.101625
34.250000	1	1.068125
34.266667	1	1.032750
34.283333	1	0.995750
34.300000	1	0.956625
34.316667	1	0.916750
34.333333	1	0.877000
34.350000	1	0.836625
34.366667	1	0.796250
34.383333	1	0.756375
34.400000	1	0.718000
34.416667	1	0.680000
34.433333	1	0.643000
34.450000	1	0.607000
34.466667	1	0.572750
34.483333	1	0.540125
34.500000	1	0.508875
34.516667	1	0.479250
34.533333	1	0.452000
34.550000	1	0.426375
34.566667	1	0.402000
34.583333	1	0.379500
34.600000	1	0.358625
34.616667	1	0.338500
34.633333	1	0.320625
34.650000	1	0.304250
34.666667	1	0.289000
34.683333	1	0.275125
34.700000	1	0.261250
34.716667	1	0.249625
34.733333	1	0.238625
34.750000	1	0.229000
34.766667	1	0.220000
34.783333	1	0.211625
34.800000	1	0.204125
34.816667	1	0.196750
34.833333	1	0.190250
34.850000	1	0.183750
34.866667	1	0.177500
34.883333	1	0.172250
34.900000	1	0.167500
34.916667	1	0.162750
34.933333	1	0.158625
34.950000	1	0.154250
34.966667	1	0.150750
34.983333	1	0.147625
35.000000	1	0.143875
35.016667	1	0.140250
35.033333	1	0.137500
35.050000	1	0.134625
35.066667	1	0.131875
35.083333	1	0.129375
35.100000	1	0.126625
35.116667	1	0.124875
35.133333	1	0.122125
35.150000	1	0.120000
35.166667	1	0.118625
35.183333	1	0.116500
35.200000	1	0.114750
35.216667	1	0.113125
35.233333	1	0.111375
35.250000	1	0.110750
35.266667	1	0.109750
35.283333	1	0.109250
35.300000	1	0.107250
35.316667	1	0.106875
35.333333	1	0.106750
35.350000	1	0.105250
35.366667	1	0.104500
35.383333	1	0.103875
35.400000	1	0.102625
35.416667	1	0.102125
35.433333	1	0.101875
35.450000	1	0.101625
35.466667	1	0.101250
35.483333	1	0.100875
35.500000	1	0.100500
35.516667	1	0.100250
35.533333	1	0.099750
35.550000	1	0.099875
35.566667	1	0.100000
35.583333	1	0.099250
35.600000	1	0.098625
35.616667	1	0.098125
35.633333	1	0.097250
35.650000	1	0.096500
35.666667	1	0.095875
35.683333	1	0.094750
35.700000	1	0.094125
35.716667	1	0.093500
35.733333	1	0.093125
35.750000	1	0.091625
35.766667	1	0.091000
35.783333	1	0.090375
35.800000	1	0.089500
35.816667	1	0.089000
35.833333	1	0.088375
35.850000	1	0.088000
35.866667	1	0.087375
35.883333	1	0.087625
35.900000	1	0.087000
35.916667	1	0.086375
35.933333	1	0.086500
35.950000	1	0.086375
35.966667	1	0.085750
35.983333	1	0.085125
36.000000	1	0.085250
36.016667	1	0.085750
36.033333	1	0.085750
36.050000	1	0.086500
36.066667	1	0.086625
36.083333	1	0.087000
36.100000	1	0.086750
36.116667	1	0.087375
36.133333	1	0.087875
36.150000	1	0.088125
36.166667	1	0.089000
36.183333	1	0.089000
36.200000	1	0.089750
36.216667	1	0.090125
36.233333	1	0.090375
36.250000	1	0.090500
36.266667	1	0.090875
36.283333	1	0.090750
36.300000	1	0.090375
36.316667	1	0.090250
36.333333	1	0.089875
36.350000	1	0.090125
36.366667	1	0.089500
36.383333	1	0.089000
36.400000	1	0.088750
36.416667	1	0.087500
36.433333	1	0.086625
36.450000	1	0.084875
36.466667	1	0.083500
36.483333	1	0.082625
36.500000	1	0.081250
36.516667	1	0.079125
36.533333	1	0.077250
36.550000	1	0.075500
36.566667	1	0.073125
36.583333	1	0.071000
36.600000	1	0.069000
36.616667	1	0.066750
36.633333	1	0.064125
36.650000	1	0.061625
36.666667	1	0.059125
36.683333	1	0.056500
36.700000	1	0.053750
36.716667	1	0.051500
36.733333	1	0.049125
36.750000	1	0.046750
36.766667	1	0.044250
36.783333	1	0.042125
36.800000	1	0.040125
36.816667	1	0.037875
36.833333	1	0.034875
36.850000	1	0.033500
36.866667	1	0.031250
36.883333	1	0.030375
36.900000	1	0.029125
36.916667	1	0.028250
36.933333	1	0.027375
36.950000	1	0.026000
36.966667	1	0.025625
36.983333	1	0.024625
37.000000	1	0.023750
37.016667	1	0.023250
37.033333	1	0.023250
37.050000	1	0.023000
37.066667	1	0.022750
37.083333	1	0.023125
37.100000	1	0.023750
37.116667	1	0.024750
37.133333	1	0.025250
37.150000	1	0.025875
37.166667	1	0.026250
37.183333	1	0.027125
37.200000	1	0.028000
37.216667	1	0.029000
37.233333	1	0.029125
37.250000	1	0.029875
37.266667	1	0.030375
37.283333	1	0.030375
37.300000	1	0.031375
37.316667	1	0.032250
37.333333	1	0.032750
37.350000	1	0.033500
37.366667	1	0.034125
37.383333	1	0.034250
37.400000	1	0.034500
37.416667	1	0.034750
37.433333	1	0.035250
37.450000	1	0.035500
37.466667	1	0.035000
37.483333	1	0.035375
37.500000	1	0.035625
37.516667	1	0.035500
37.533333	1	0.035500
37.550000	1	0.035125
37.566667	1	0.034750
37.583333	1	0.034750
37.600000	1	0.035250
37.616667	1	0.034500
37.633333	1	0.033875
37.650000	1	0.033500
37.666667	1	0.033250
37.683333	1	0.033125
37.700000	1	0.033125
37.716667	1	0.032125
37.733333	1	0.031875
37.750000	1	0.030875
37.766667	1	0.029875
37.783333	1	0.028750
37.800000	1	0.028375
37.816667	1	0.027250
37.833333	1	0.025875
37.850000	1	0.025125
37.866667	1	0.024750
37.883333	1	0.024375
37.900000	1	0.023625
37.916667	1	0.022625
37.933333	1	0.021250
37.950000	1	0.020500
37.966667	1	0.020125
37.983333	1	0.018750
38.000000	1	0.017750
38.016667	1	0.017500
38.033333	1	0.017500
38.050000	1	0.018000
38.066667	1	0.017000
38.083333	1	0.016625
38.100000	1	0.016500
38.116667	1	0.016875
38.133333	1	0.016750
38.150000	1	0.017250
38.166667	1	0.017625
38.183333	1	0.018500
38.200000	1	0.019500
38.216667	1	0.019750
38.233333	1	0.020375
38.250000	1	0.021125
38.266667	1	0.022625
38.283333	1	0.024000
38.300000	1	0.025125
38.316667	1	0.026750
38.333333	1	0.027750
38.350000	1	0.028875
38.366667	1	0.030250
38.383333	1	0.031750
38.400000	1	0.033000
38.416667	1	0.033875
38.433333	1	0.035125
38.450000	1	0.036125
38.466667	1	0.037125
38.483333	1	0.038000
38.500000	1	0.039000
38.516667	1	0.040125
38.533333	1	0.040625
38.550000	1	0.041000
38.566667	1	0.041125
38.583333	1	0.041250
38.600000	1	0.041125
38.616667	1	0.041500
38.633333	1	0.041125
38.650000	1	0.040875
38.666667	1	0.040625
38.683333	1	0.040875
38.700000	1	0.041000
38.716667	1	0.041000
38.733333	1	0.040500
38.750000	1	0.039750
38.766667	1	0.039625
38.783333	1	0.039000
38.800000	1	0.038750
38.816667	1	0.037875
38.833333	1	0.037125
38.850000	1	0.036375
38.866667	1	0.035375
38.883333	1	0.034500
38.900000	1	0.034000
38.916667	1	0.033125
38.933333	1	0.032125
38.950000	1	0.031750
38.966667	1	0.030875
38.983333	1	0.030125
39.000000	1	0.029500
39.016667	1	0.029625
39.033333	1	0.028750
39.050000	1	0.028250
39.066667	1	0.027750
39.083333	1	0.027625
39.100000	1	0.027875
39.116667	1	0.027375
39.133333	1	0.026000
39.150000	1	0.025250
39.166667	1	0.024375
39.183333	1	0.024125
39.200000	1	0.023750
39.216667	1	0.023625
39.233333	1	0.022625
39.250000	1	0.022250
39.266667	1	0.022000
39.283333	1	0.021375
39.300000	1	0.020875
39.316667	1	0.020375
39.333333	1	0.019750
39.350000	1	0.018625
39.366667	1	0.018125
39.383333	1	0.017125
39.400000	1	0.016625
39.416667	1	0.016000
39.433333	1	0.015375
39.450000	1	0.013875
39.466667	1	0.012000
39.483333	1	0.011250
39.500000	1	0.010250
39.516667	1	0.009875
39.533333	1	0.009125
39.550000	1	0.008000
39.566667	1	0.007500
39.583333	1	0.006625
39.600000	1	0.005625
39.616667	1	0.005500
39.633333	1	0.004625
39.650000	1	0.003750
39.666667	1	0.002875
39.683333	1	0.001625
39.700000	1	0.001375
39.716667	1	0.000750
39.733333	1	0.000625
39.750000	1	0.000375
39.766667	1	-0.000375
39.783333	1	-0.000875
39.800000	1	-0.001000
39.816667	1	-0.001125
39.833333	1	-0.001625
39.850000	1	-0.002125
39.866667	1	-0.001625
39.883333	1	-0.001750
39.900000	1	-0.001875
39.916667	1	-0.001875
39.933333	1	-0.002750
39.950000	1	-0.002500
39.966667	1	-0.002500
39.983333	1	-0.003125
40.000000	1	-0.003750
