URL	chrom://bioreactor/micro_cm7/HPLC_Ultimate_3000/Users/markusar/20240708_MA_pHrange1.seq/389.smp/RI_1.channel/RI_1.chm
Channel	RI_1

Injection Information:
Data Vault	micro_cm7
Sequence	20240708_MA_pHrange1
Name	Fp1_6.5_1
Number	47
Position	BE1
Comment	
Processing Method	
Instrument Method	run_25B_method
Type	Unknown
Status	Finished
Inject Time	09.07.2024 22:59:14 +02:00
Volume (µl)	20.0000
Dilution Factor	1.0000
Weight	1.0000

Chromatogram Data Information:
Time Min. (min)	0.000000
Time Max. (min)	40.000000
Data Points	2401
Detector	RI
Generating Data System	Chromeleon 7.3.2.11814
Exporting Data System	Chromeleon 7.3.2.0
Operator	Instrument Controller
Signal Quantity	Refractive 
Signal Unit	µRIU
Signal Min.	-0.002625
Signal Max.	85.577375
Channel	RI_1
Driver Name	RID520Driver.dll
Channel Type	Evaluation
Min. Step (s)	1
Max. Step (s)	1
Average Step (s)	1

Signal Parameter Information:
Signal Info	

Chromatogram Data:
Time (min)	Step (s)	Value (µRIU)
0.000000	n.a.	-0.002625
0.016667	1	-0.001625
0.033333	1	-0.000625
0.050000	1	0.000625
0.066667	1	0.002625
0.083333	1	0.004750
0.100000	1	0.005875
0.116667	1	0.008250
0.133333	1	0.010250
0.150000	1	0.011875
0.166667	1	0.013750
0.183333	1	0.015750
0.200000	1	0.017875
0.216667	1	0.020250
0.233333	1	0.023125
0.250000	1	0.026125
0.266667	1	0.028750
0.283333	1	0.031000
0.300000	1	0.033250
0.316667	1	0.035250
0.333333	1	0.037000
0.350000	1	0.038750
0.366667	1	0.039500
0.383333	1	0.040375
0.400000	1	0.041500
0.416667	1	0.042875
0.433333	1	0.045375
0.450000	1	0.048375
0.466667	1	0.052000
0.483333	1	0.054125
0.500000	1	0.055750
0.516667	1	0.056625
0.533333	1	0.057000
0.550000	1	0.057375
0.566667	1	0.056625
0.583333	1	0.055625
0.600000	1	0.053625
0.616667	1	0.052000
0.633333	1	0.050000
0.650000	1	0.048625
0.666667	1	0.048000
0.683333	1	0.047375
0.700000	1	0.046750
0.716667	1	0.047000
0.733333	1	0.047375
0.750000	1	0.047125
0.766667	1	0.046750
0.783333	1	0.047250
0.800000	1	0.047250
0.816667	1	0.047875
0.833333	1	0.048250
0.850000	1	0.049750
0.866667	1	0.050375
0.883333	1	0.050875
0.900000	1	0.051750
0.916667	1	0.053000
0.933333	1	0.053750
0.950000	1	0.054375
0.966667	1	0.055750
0.983333	1	0.056750
1.000000	1	0.058500
1.016667	1	0.059750
1.033333	1	0.061250
1.050000	1	0.062625
1.066667	1	0.064250
1.083333	1	0.066500
1.100000	1	0.068750
1.116667	1	0.070250
1.133333	1	0.071375
1.150000	1	0.073625
1.166667	1	0.074750
1.183333	1	0.076625
1.200000	1	0.078375
1.216667	1	0.079750
1.233333	1	0.081000
1.250000	1	0.082750
1.266667	1	0.084250
1.283333	1	0.085875
1.300000	1	0.087375
1.316667	1	0.088125
1.333333	1	0.088375
1.350000	1	0.088625
1.366667	1	0.089250
1.383333	1	0.090000
1.400000	1	0.089750
1.416667	1	0.090375
1.433333	1	0.091000
1.450000	1	0.091125
1.466667	1	0.091125
1.483333	1	0.091000
1.500000	1	0.090750
1.516667	1	0.090625
1.533333	1	0.089125
1.550000	1	0.089000
1.566667	1	0.088250
1.583333	1	0.087500
1.600000	1	0.086625
1.616667	1	0.086000
1.633333	1	0.085375
1.650000	1	0.084375
1.666667	1	0.082750
1.683333	1	0.081625
1.700000	1	0.080250
1.716667	1	0.078625
1.733333	1	0.076875
1.750000	1	0.075625
1.766667	1	0.074000
1.783333	1	0.072500
1.800000	1	0.070750
1.816667	1	0.069125
1.833333	1	0.067125
1.850000	1	0.065000
1.866667	1	0.063125
1.883333	1	0.061375
1.900000	1	0.059750
1.916667	1	0.057625
1.933333	1	0.056125
1.950000	1	0.054500
1.966667	1	0.052375
1.983333	1	0.051000
2.000000	1	0.049750
2.016667	1	0.047875
2.033333	1	0.046250
2.050000	1	0.044500
2.066667	1	0.042750
2.083333	1	0.041375
2.100000	1	0.039875
2.116667	1	0.038375
2.133333	1	0.036250
2.150000	1	0.035250
2.166667	1	0.034000
2.183333	1	0.032625
2.200000	1	0.032250
2.216667	1	0.031375
2.233333	1	0.030375
2.250000	1	0.029875
2.266667	1	0.029125
2.283333	1	0.028625
2.300000	1	0.028500
2.316667	1	0.028125
2.333333	1	0.027125
2.350000	1	0.027375
2.366667	1	0.026500
2.383333	1	0.026375
2.400000	1	0.026125
2.416667	1	0.026625
2.433333	1	0.027125
2.450000	1	0.027375
2.466667	1	0.027375
2.483333	1	0.027375
2.500000	1	0.027875
2.516667	1	0.028250
2.533333	1	0.028750
2.550000	1	0.029125
2.566667	1	0.029625
2.583333	1	0.030250
2.600000	1	0.030250
2.616667	1	0.030875
2.633333	1	0.031750
2.650000	1	0.032750
2.666667	1	0.032625
2.683333	1	0.033750
2.700000	1	0.034125
2.716667	1	0.034125
2.733333	1	0.034875
2.750000	1	0.035500
2.766667	1	0.035875
2.783333	1	0.036375
2.800000	1	0.037000
2.816667	1	0.037875
2.833333	1	0.038875
2.850000	1	0.039625
2.866667	1	0.040500
2.883333	1	0.040750
2.900000	1	0.041750
2.916667	1	0.042250
2.933333	1	0.043000
2.950000	1	0.043750
2.966667	1	0.044625
2.983333	1	0.045750
3.000000	1	0.046375
3.016667	1	0.047125
3.033333	1	0.047500
3.050000	1	0.048125
3.066667	1	0.048125
3.083333	1	0.048750
3.100000	1	0.049125
3.116667	1	0.049500
3.133333	1	0.049250
3.150000	1	0.049875
3.166667	1	0.050375
3.183333	1	0.050750
3.200000	1	0.051125
3.216667	1	0.052125
3.233333	1	0.052750
3.250000	1	0.052500
3.266667	1	0.053375
3.283333	1	0.054125
3.300000	1	0.054375
3.316667	1	0.055125
3.333333	1	0.055625
3.350000	1	0.056000
3.366667	1	0.056750
3.383333	1	0.057875
3.400000	1	0.058375
3.416667	1	0.059125
3.433333	1	0.059750
3.450000	1	0.060125
3.466667	1	0.061250
3.483333	1	0.062500
3.500000	1	0.063250
3.516667	1	0.064125
3.533333	1	0.065125
3.550000	1	0.066375
3.566667	1	0.067500
3.583333	1	0.068750
3.600000	1	0.069875
3.616667	1	0.070750
3.633333	1	0.071125
3.650000	1	0.072250
3.666667	1	0.073500
3.683333	1	0.074500
3.700000	1	0.075875
3.716667	1	0.077500
3.733333	1	0.078875
3.750000	1	0.080125
3.766667	1	0.081125
3.783333	1	0.082125
3.800000	1	0.083250
3.816667	1	0.085500
3.833333	1	0.086875
3.850000	1	0.088000
3.866667	1	0.089000
3.883333	1	0.090250
3.900000	1	0.091750
3.916667	1	0.093375
3.933333	1	0.094625
3.950000	1	0.096250
3.966667	1	0.098125
3.983333	1	0.100000
4.000000	1	0.101625
4.016667	1	0.103375
4.033333	1	0.105125
4.050000	1	0.106500
4.066667	1	0.107625
4.083333	1	0.109375
4.100000	1	0.111250
4.116667	1	0.113000
4.133333	1	0.115000
4.150000	1	0.116000
4.166667	1	0.117375
4.183333	1	0.119250
4.200000	1	0.120875
4.216667	1	0.123125
4.233333	1	0.125250
4.250000	1	0.127250
4.266667	1	0.128375
4.283333	1	0.130000
4.300000	1	0.131750
4.316667	1	0.133125
4.333333	1	0.134625
4.350000	1	0.136250
4.366667	1	0.138000
4.383333	1	0.140250
4.400000	1	0.142500
4.416667	1	0.144750
4.433333	1	0.146125
4.450000	1	0.148375
4.466667	1	0.150625
4.483333	1	0.152375
4.500000	1	0.154000
4.516667	1	0.155500
4.533333	1	0.157250
4.550000	1	0.159375
4.566667	1	0.160250
4.583333	1	0.162000
4.600000	1	0.163875
4.616667	1	0.165625
4.633333	1	0.166750
4.650000	1	0.168875
4.666667	1	0.170625
4.683333	1	0.172250
4.700000	1	0.174250
4.716667	1	0.175500
4.733333	1	0.177125
4.750000	1	0.179125
4.766667	1	0.180125
4.783333	1	0.182250
4.800000	1	0.184625
4.816667	1	0.187500
4.833333	1	0.190125
4.850000	1	0.191875
4.866667	1	0.193625
4.883333	1	0.195750
4.900000	1	0.199500
4.916667	1	0.202250
4.933333	1	0.205000
4.950000	1	0.208125
4.966667	1	0.211125
4.983333	1	0.214375
5.000000	1	0.218500
5.016667	1	0.221875
5.033333	1	0.225625
5.050000	1	0.229625
5.066667	1	0.233250
5.083333	1	0.237000
5.100000	1	0.240625
5.116667	1	0.244500
5.133333	1	0.248125
5.150000	1	0.251250
5.166667	1	0.254875
5.183333	1	0.258625
5.200000	1	0.262000
5.216667	1	0.265000
5.233333	1	0.267750
5.250000	1	0.270375
5.266667	1	0.272625
5.283333	1	0.274500
5.300000	1	0.276250
5.316667	1	0.278250
5.333333	1	0.279500
5.350000	1	0.279875
5.366667	1	0.280625
5.383333	1	0.281125
5.400000	1	0.281750
5.416667	1	0.281750
5.433333	1	0.281500
5.450000	1	0.279750
5.466667	1	0.277750
5.483333	1	0.275875
5.500000	1	0.274375
5.516667	1	0.271625
5.533333	1	0.269750
5.550000	1	0.267625
5.566667	1	0.264625
5.583333	1	0.261250
5.600000	1	0.258125
5.616667	1	0.255125
5.633333	1	0.251875
5.650000	1	0.248625
5.666667	1	0.244750
5.683333	1	0.241125
5.700000	1	0.238625
5.716667	1	0.235250
5.733333	1	0.232250
5.750000	1	0.229125
5.766667	1	0.226250
5.783333	1	0.223375
5.800000	1	0.220375
5.816667	1	0.217250
5.833333	1	0.214625
5.850000	1	0.211875
5.866667	1	0.208500
5.883333	1	0.206500
5.900000	1	0.203500
5.916667	1	0.200625
5.933333	1	0.197875
5.950000	1	0.195625
5.966667	1	0.192500
5.983333	1	0.190875
6.000000	1	0.188500
6.016667	1	0.186375
6.033333	1	0.183625
6.050000	1	0.181125
6.066667	1	0.178375
6.083333	1	0.175750
6.100000	1	0.173125
6.116667	1	0.170125
6.133333	1	0.167625
6.150000	1	0.165125
6.166667	1	0.162250
6.183333	1	0.159750
6.200000	1	0.156625
6.216667	1	0.153875
6.233333	1	0.151000
6.250000	1	0.147500
6.266667	1	0.144125
6.283333	1	0.140750
6.300000	1	0.137250
6.316667	1	0.134250
6.333333	1	0.131000
6.350000	1	0.127875
6.366667	1	0.125500
6.383333	1	0.123500
6.400000	1	0.120750
6.416667	1	0.117625
6.433333	1	0.115125
6.450000	1	0.112500
6.466667	1	0.110500
6.483333	1	0.108000
6.500000	1	0.106250
6.516667	1	0.104625
6.533333	1	0.103000
6.550000	1	0.101500
6.566667	1	0.100250
6.583333	1	0.099500
6.600000	1	0.099250
6.616667	1	0.099375
6.633333	1	0.098625
6.650000	1	0.098125
6.666667	1	0.098500
6.683333	1	0.099375
6.700000	1	0.099625
6.716667	1	0.100750
6.733333	1	0.101375
6.750000	1	0.102125
6.766667	1	0.103500
6.783333	1	0.104750
6.800000	1	0.106375
6.816667	1	0.108250
6.833333	1	0.110250
6.850000	1	0.112125
6.866667	1	0.113875
6.883333	1	0.116125
6.900000	1	0.118125
6.916667	1	0.120375
6.933333	1	0.122875
6.950000	1	0.126000
6.966667	1	0.128625
6.983333	1	0.130500
7.000000	1	0.133000
7.016667	1	0.136125
7.033333	1	0.138125
7.050000	1	0.140500
7.066667	1	0.143375
7.083333	1	0.145750
7.100000	1	0.148250
7.116667	1	0.150875
7.133333	1	0.153250
7.150000	1	0.155750
7.166667	1	0.158500
7.183333	1	0.160625
7.200000	1	0.162875
7.216667	1	0.166000
7.233333	1	0.168250
7.250000	1	0.170625
7.266667	1	0.173000
7.283333	1	0.174375
7.300000	1	0.176125
7.316667	1	0.177625
7.333333	1	0.179750
7.350000	1	0.182000
7.366667	1	0.183250
7.383333	1	0.185125
7.400000	1	0.186375
7.416667	1	0.186625
7.433333	1	0.187375
7.450000	1	0.188000
7.466667	1	0.187625
7.483333	1	0.187750
7.500000	1	0.187500
7.516667	1	0.187375
7.533333	1	0.186875
7.550000	1	0.186250
7.566667	1	0.185625
7.583333	1	0.184750
7.600000	1	0.182625
7.616667	1	0.181500
7.633333	1	0.179625
7.650000	1	0.177125
7.666667	1	0.175250
7.683333	1	0.173250
7.700000	1	0.171000
7.716667	1	0.168875
7.733333	1	0.165875
7.750000	1	0.162625
7.766667	1	0.159625
7.783333	1	0.156500
7.800000	1	0.152375
7.816667	1	0.149000
7.833333	1	0.145750
7.850000	1	0.142125
7.866667	1	0.138750
7.883333	1	0.135625
7.900000	1	0.131375
7.916667	1	0.128375
7.933333	1	0.124250
7.950000	1	0.120625
7.966667	1	0.116625
7.983333	1	0.112500
8.000000	1	0.108500
8.016667	1	0.105125
8.033333	1	0.101875
8.050000	1	0.098000
8.066667	1	0.094000
8.083333	1	0.090250
8.100000	1	0.086750
8.116667	1	0.083750
8.133333	1	0.080750
8.150000	1	0.078750
8.166667	1	0.076500
8.183333	1	0.073375
8.200000	1	0.071000
8.216667	1	0.068875
8.233333	1	0.066875
8.250000	1	0.064875
8.266667	1	0.062500
8.283333	1	0.061125
8.300000	1	0.059625
8.316667	1	0.058000
8.333333	1	0.057125
8.350000	1	0.056875
8.366667	1	0.056375
8.383333	1	0.056125
8.400000	1	0.055875
8.416667	1	0.055125
8.433333	1	0.055625
8.450000	1	0.055250
8.466667	1	0.055375
8.483333	1	0.055875
8.500000	1	0.056000
8.516667	1	0.056500
8.533333	1	0.057250
8.550000	1	0.057750
8.566667	1	0.058125
8.583333	1	0.059000
8.600000	1	0.060000
8.616667	1	0.060875
8.633333	1	0.061500
8.650000	1	0.061875
8.666667	1	0.061875
8.683333	1	0.062375
8.700000	1	0.063375
8.716667	1	0.064000
8.733333	1	0.065000
8.750000	1	0.064625
8.766667	1	0.064500
8.783333	1	0.064875
8.800000	1	0.064875
8.816667	1	0.064500
8.833333	1	0.064125
8.850000	1	0.064375
8.866667	1	0.063875
8.883333	1	0.063875
8.900000	1	0.064125
8.916667	1	0.064000
8.933333	1	0.063625
8.950000	1	0.062750
8.966667	1	0.062500
8.983333	1	0.062500
9.000000	1	0.062125
9.016667	1	0.062125
9.033333	1	0.062000
9.050000	1	0.062500
9.066667	1	0.062750
9.083333	1	0.062750
9.100000	1	0.063125
9.116667	1	0.064125
9.133333	1	0.065000
9.150000	1	0.066250
9.166667	1	0.066750
9.183333	1	0.066750
9.200000	1	0.068000
9.216667	1	0.068875
9.233333	1	0.070000
9.250000	1	0.070750
9.266667	1	0.071250
9.283333	1	0.072250
9.300000	1	0.074000
9.316667	1	0.074875
9.333333	1	0.076125
9.350000	1	0.077750
9.366667	1	0.079750
9.383333	1	0.080375
9.400000	1	0.081375
9.416667	1	0.082750
9.433333	1	0.084125
9.450000	1	0.085250
9.466667	1	0.085750
9.483333	1	0.087250
9.500000	1	0.087250
9.516667	1	0.087750
9.533333	1	0.087625
9.550000	1	0.088125
9.566667	1	0.088750
9.583333	1	0.089000
9.600000	1	0.089375
9.616667	1	0.089500
9.633333	1	0.089250
9.650000	1	0.088375
9.666667	1	0.087875
9.683333	1	0.087500
9.700000	1	0.086750
9.716667	1	0.086625
9.733333	1	0.086500
9.750000	1	0.085375
9.766667	1	0.084250
9.783333	1	0.083500
9.800000	1	0.082000
9.816667	1	0.080250
9.833333	1	0.079000
9.850000	1	0.077500
9.866667	1	0.076500
9.883333	1	0.075000
9.900000	1	0.073125
9.916667	1	0.071875
9.933333	1	0.070125
9.950000	1	0.068000
9.966667	1	0.066250
9.983333	1	0.063875
10.000000	1	0.061625
10.016667	1	0.059250
10.033333	1	0.057250
10.050000	1	0.054375
10.066667	1	0.052250
10.083333	1	0.051000
10.100000	1	0.050500
10.116667	1	0.050750
10.133333	1	0.051750
10.150000	1	0.054375
10.166667	1	0.058000
10.183333	1	0.063250
10.200000	1	0.069875
10.216667	1	0.078875
10.233333	1	0.090000
10.250000	1	0.103375
10.266667	1	0.118625
10.283333	1	0.136875
10.300000	1	0.157250
10.316667	1	0.180375
10.333333	1	0.206375
10.350000	1	0.235250
10.366667	1	0.265875
10.383333	1	0.295750
10.400000	1	0.322750
10.416667	1	0.345375
10.433333	1	0.360500
10.450000	1	0.366125
10.466667	1	0.361000
10.483333	1	0.348375
10.500000	1	0.338500
10.516667	1	0.349000
10.533333	1	0.409000
10.550000	1	0.563000
10.566667	1	0.866750
10.583333	1	1.384375
10.600000	1	2.184250
10.616667	1	3.330500
10.633333	1	4.874875
10.650000	1	6.853875
10.666667	1	9.291750
10.683333	1	12.194750
10.700000	1	15.550500
10.716667	1	19.326125
10.733333	1	23.466625
10.750000	1	27.886750
10.766667	1	32.457375
10.783333	1	37.004625
10.800000	1	41.287750
10.816667	1	44.997250
10.833333	1	47.772375
10.850000	1	49.260500
10.866667	1	49.195000
10.883333	1	47.487375
10.900000	1	44.281500
10.916667	1	39.938250
10.933333	1	34.937625
10.950000	1	29.762750
10.966667	1	24.805500
10.983333	1	20.322000
11.000000	1	16.439250
11.016667	1	13.188500
11.033333	1	10.539375
11.050000	1	8.424375
11.066667	1	6.763125
11.083333	1	5.474000
11.100000	1	4.481750
11.116667	1	3.722000
11.133333	1	3.141375
11.150000	1	2.696875
11.166667	1	2.356875
11.183333	1	2.096250
11.200000	1	1.895250
11.216667	1	1.739000
11.233333	1	1.616250
11.250000	1	1.519125
11.266667	1	1.440125
11.283333	1	1.374125
11.300000	1	1.318500
11.316667	1	1.270375
11.333333	1	1.226625
11.350000	1	1.186625
11.366667	1	1.150125
11.383333	1	1.115625
11.400000	1	1.084500
11.416667	1	1.055875
11.433333	1	1.029750
11.450000	1	1.006750
11.466667	1	0.986625
11.483333	1	0.969875
11.500000	1	0.956625
11.516667	1	0.946625
11.533333	1	0.941125
11.550000	1	0.937875
11.566667	1	0.939000
11.583333	1	0.944375
11.600000	1	0.954250
11.616667	1	0.969375
11.633333	1	0.990000
11.650000	1	1.014500
11.666667	1	1.043500
11.683333	1	1.075500
11.700000	1	1.109000
11.716667	1	1.144000
11.733333	1	1.178000
11.750000	1	1.209000
11.766667	1	1.235250
11.783333	1	1.255750
11.800000	1	1.270000
11.816667	1	1.277125
11.833333	1	1.277500
11.850000	1	1.271375
11.866667	1	1.260875
11.883333	1	1.246875
11.900000	1	1.229125
11.916667	1	1.210250
11.933333	1	1.190625
11.950000	1	1.172125
11.966667	1	1.154875
11.983333	1	1.140000
12.000000	1	1.126875
12.016667	1	1.115500
12.033333	1	1.106750
12.050000	1	1.100500
12.066667	1	1.096250
12.083333	1	1.094125
12.100000	1	1.093625
12.116667	1	1.095000
12.133333	1	1.096500
12.150000	1	1.101000
12.166667	1	1.106250
12.183333	1	1.113500
12.200000	1	1.121875
12.216667	1	1.133000
12.233333	1	1.146000
12.250000	1	1.164000
12.266667	1	1.187000
12.283333	1	1.217875
12.300000	1	1.259125
12.316667	1	1.313500
12.333333	1	1.386750
12.350000	1	1.486125
12.366667	1	1.620125
12.383333	1	1.802125
12.400000	1	2.049875
12.416667	1	2.385875
12.433333	1	2.839500
12.450000	1	3.454125
12.466667	1	4.285125
12.483333	1	5.400125
12.500000	1	6.880750
12.516667	1	8.821375
12.533333	1	11.322500
12.550000	1	14.480625
12.566667	1	18.379875
12.583333	1	23.072250
12.600000	1	28.563750
12.616667	1	34.789625
12.633333	1	41.626375
12.650000	1	48.875625
12.666667	1	56.273125
12.683333	1	63.494625
12.700000	1	70.187250
12.716667	1	76.003000
12.733333	1	80.631125
12.750000	1	83.840000
12.766667	1	85.497875
12.783333	1	85.577375
12.800000	1	84.164625
12.816667	1	81.442750
12.833333	1	77.659125
12.850000	1	73.102250
12.866667	1	68.071000
12.883333	1	62.856000
12.900000	1	57.708500
12.916667	1	52.834625
12.933333	1	48.386875
12.950000	1	44.456000
12.966667	1	41.088125
12.983333	1	38.288125
13.000000	1	36.034375
13.016667	1	34.286250
13.033333	1	32.988625
13.050000	1	32.086750
13.066667	1	31.525125
13.083333	1	31.252875
13.100000	1	31.224875
13.116667	1	31.400375
13.133333	1	31.742250
13.150000	1	32.224875
13.166667	1	32.822750
13.183333	1	33.516500
13.200000	1	34.289875
13.216667	1	35.130000
13.233333	1	36.027875
13.250000	1	36.975000
13.266667	1	37.967375
13.283333	1	39.000375
13.300000	1	40.070500
13.316667	1	41.174500
13.333333	1	42.310375
13.350000	1	43.476625
13.366667	1	44.671750
13.383333	1	45.896250
13.400000	1	47.149250
13.416667	1	48.430750
13.433333	1	49.741000
13.450000	1	51.082500
13.466667	1	52.454125
13.483333	1	53.857750
13.500000	1	55.292625
13.516667	1	56.758625
13.533333	1	58.254250
13.550000	1	59.781875
13.566667	1	61.341250
13.583333	1	62.932875
13.600000	1	64.554625
13.616667	1	66.211000
13.633333	1	67.902500
13.650000	1	69.630625
13.666667	1	71.395125
13.683333	1	73.188625
13.700000	1	74.982750
13.716667	1	76.704125
13.733333	1	78.214125
13.750000	1	79.326375
13.766667	1	79.847500
13.783333	1	79.615125
13.800000	1	78.502625
13.816667	1	76.372000
13.833333	1	73.045000
13.850000	1	68.331375
13.866667	1	62.178500
13.883333	1	54.836500
13.900000	1	46.874875
13.916667	1	39.003125
13.933333	1	31.809000
13.950000	1	25.623000
13.966667	1	20.533500
13.983333	1	16.471500
14.000000	1	13.297750
14.016667	1	10.855750
14.033333	1	9.003250
14.050000	1	7.614875
14.066667	1	6.585375
14.083333	1	5.825125
14.100000	1	5.261500
14.116667	1	4.840000
14.133333	1	4.520000
14.150000	1	4.272000
14.166667	1	4.075375
14.183333	1	3.916750
14.200000	1	3.784500
14.216667	1	3.671500
14.233333	1	3.573625
14.250000	1	3.487750
14.266667	1	3.411125
14.283333	1	3.339750
14.300000	1	3.275250
14.316667	1	3.216000
14.333333	1	3.161750
14.350000	1	3.111625
14.366667	1	3.064875
14.383333	1	3.021875
14.400000	1	2.982250
14.416667	1	2.945875
14.433333	1	2.911750
14.450000	1	2.880625
14.466667	1	2.851750
14.483333	1	2.824750
14.500000	1	2.799500
14.516667	1	2.775750
14.533333	1	2.752875
14.550000	1	2.730500
14.566667	1	2.708875
14.583333	1	2.686625
14.600000	1	2.664500
14.616667	1	2.642750
14.633333	1	2.620375
14.650000	1	2.597875
14.666667	1	2.576375
14.683333	1	2.555875
14.700000	1	2.535625
14.716667	1	2.517875
14.733333	1	2.501875
14.750000	1	2.487375
14.766667	1	2.475250
14.783333	1	2.463500
14.800000	1	2.452250
14.816667	1	2.441625
14.833333	1	2.429750
14.850000	1	2.416125
14.866667	1	2.400000
14.883333	1	2.380625
14.900000	1	2.358500
14.916667	1	2.332125
14.933333	1	2.302000
14.950000	1	2.268625
14.966667	1	2.232875
14.983333	1	2.196000
15.000000	1	2.157000
15.016667	1	2.118875
15.033333	1	2.081000
15.050000	1	2.043875
15.066667	1	2.008125
15.083333	1	1.972875
15.100000	1	1.940500
15.116667	1	1.910875
15.133333	1	1.883125
15.150000	1	1.857125
15.166667	1	1.833625
15.183333	1	1.812750
15.200000	1	1.794375
15.216667	1	1.777750
15.233333	1	1.763250
15.250000	1	1.751125
15.266667	1	1.742000
15.283333	1	1.735125
15.300000	1	1.732000
15.316667	1	1.732875
15.333333	1	1.738375
15.350000	1	1.748625
15.366667	1	1.765250
15.383333	1	1.786375
15.400000	1	1.812375
15.416667	1	1.843250
15.433333	1	1.878000
15.450000	1	1.915375
15.466667	1	1.952125
15.483333	1	1.987625
15.500000	1	2.019125
15.516667	1	2.044625
15.533333	1	2.062625
15.550000	1	2.072000
15.566667	1	2.071750
15.583333	1	2.062750
15.600000	1	2.043875
15.616667	1	2.017000
15.633333	1	1.984500
15.650000	1	1.947250
15.666667	1	1.906125
15.683333	1	1.863375
15.700000	1	1.820625
15.716667	1	1.778125
15.733333	1	1.737250
15.750000	1	1.698125
15.766667	1	1.661000
15.783333	1	1.626000
15.800000	1	1.592250
15.816667	1	1.560375
15.833333	1	1.529750
15.850000	1	1.500375
15.866667	1	1.472125
15.883333	1	1.446000
15.900000	1	1.421375
15.916667	1	1.397750
15.933333	1	1.376125
15.950000	1	1.356125
15.966667	1	1.338875
15.983333	1	1.323875
16.000000	1	1.311375
16.016667	1	1.300625
16.033333	1	1.292250
16.050000	1	1.285125
16.066667	1	1.280125
16.083333	1	1.276375
16.100000	1	1.274500
16.116667	1	1.273750
16.133333	1	1.274000
16.150000	1	1.274500
16.166667	1	1.275750
16.183333	1	1.277375
16.200000	1	1.278500
16.216667	1	1.278625
16.233333	1	1.279000
16.250000	1	1.279125
16.266667	1	1.277625
16.283333	1	1.274875
16.300000	1	1.271375
16.316667	1	1.267250
16.333333	1	1.262500
16.350000	1	1.257125
16.366667	1	1.251000
16.383333	1	1.244625
16.400000	1	1.238500
16.416667	1	1.232875
16.433333	1	1.228750
16.450000	1	1.226000
16.466667	1	1.224625
16.483333	1	1.225000
16.500000	1	1.227375
16.516667	1	1.231625
16.533333	1	1.237625
16.550000	1	1.243750
16.566667	1	1.251250
16.583333	1	1.258875
16.600000	1	1.266625
16.616667	1	1.274125
16.633333	1	1.280375
16.650000	1	1.285250
16.666667	1	1.288500
16.683333	1	1.290375
16.700000	1	1.292125
16.716667	1	1.292500
16.733333	1	1.292875
16.750000	1	1.292375
16.766667	1	1.293250
16.783333	1	1.293750
16.800000	1	1.295125
16.816667	1	1.298250
16.833333	1	1.301250
16.850000	1	1.305125
16.866667	1	1.309625
16.883333	1	1.315250
16.900000	1	1.319875
16.916667	1	1.323500
16.933333	1	1.326125
16.950000	1	1.328000
16.966667	1	1.329000
16.983333	1	1.328125
17.000000	1	1.325875
17.016667	1	1.323375
17.033333	1	1.319750
17.050000	1	1.315500
17.066667	1	1.310250
17.083333	1	1.304625
17.100000	1	1.300625
17.116667	1	1.296750
17.133333	1	1.293500
17.150000	1	1.290375
17.166667	1	1.288875
17.183333	1	1.288500
17.200000	1	1.289625
17.216667	1	1.291750
17.233333	1	1.294875
17.250000	1	1.298250
17.266667	1	1.302375
17.283333	1	1.307500
17.300000	1	1.313250
17.316667	1	1.319125
17.333333	1	1.326375
17.350000	1	1.333125
17.366667	1	1.339750
17.383333	1	1.346125
17.400000	1	1.352000
17.416667	1	1.357250
17.433333	1	1.361375
17.450000	1	1.364375
17.466667	1	1.365625
17.483333	1	1.366125
17.500000	1	1.364750
17.516667	1	1.361000
17.533333	1	1.355500
17.550000	1	1.348750
17.566667	1	1.340375
17.583333	1	1.330375
17.600000	1	1.318625
17.616667	1	1.306000
17.633333	1	1.292375
17.650000	1	1.277625
17.666667	1	1.262000
17.683333	1	1.246875
17.700000	1	1.231625
17.716667	1	1.216500
17.733333	1	1.200625
17.750000	1	1.185750
17.766667	1	1.170625
17.783333	1	1.156000
17.800000	1	1.141750
17.816667	1	1.128250
17.833333	1	1.115375
17.850000	1	1.102375
17.866667	1	1.090750
17.883333	1	1.080000
17.900000	1	1.069375
17.916667	1	1.059625
17.933333	1	1.049875
17.950000	1	1.040625
17.966667	1	1.031500
17.983333	1	1.023375
18.000000	1	1.015000
18.016667	1	1.006250
18.033333	1	0.998375
18.050000	1	0.991000
18.066667	1	0.983125
18.083333	1	0.974875
18.100000	1	0.967125
18.116667	1	0.959125
18.133333	1	0.951750
18.150000	1	0.945125
18.166667	1	0.939750
18.183333	1	0.934500
18.200000	1	0.929375
18.216667	1	0.925500
18.233333	1	0.922375
18.250000	1	0.919625
18.266667	1	0.916875
18.283333	1	0.914750
18.300000	1	0.913500
18.316667	1	0.912250
18.333333	1	0.911750
18.350000	1	0.911000
18.366667	1	0.911000
18.383333	1	0.910875
18.400000	1	0.912125
18.416667	1	0.914125
18.433333	1	0.917375
18.450000	1	0.920375
18.466667	1	0.924500
18.483333	1	0.931000
18.500000	1	0.938750
18.516667	1	0.948375
18.533333	1	0.959500
18.550000	1	0.972250
18.566667	1	0.987750
18.583333	1	1.004250
18.600000	1	1.023500
18.616667	1	1.045000
18.633333	1	1.069125
18.650000	1	1.094625
18.666667	1	1.122000
18.683333	1	1.151000
18.700000	1	1.181875
18.716667	1	1.214125
18.733333	1	1.248750
18.750000	1	1.283250
18.766667	1	1.318750
18.783333	1	1.353375
18.800000	1	1.388000
18.816667	1	1.422250
18.833333	1	1.455375
18.850000	1	1.486125
18.866667	1	1.512625
18.883333	1	1.536125
18.900000	1	1.554625
18.916667	1	1.567750
18.933333	1	1.574375
18.950000	1	1.574750
18.966667	1	1.568625
18.983333	1	1.555375
19.000000	1	1.535125
19.016667	1	1.508750
19.033333	1	1.475125
19.050000	1	1.436375
19.066667	1	1.392625
19.083333	1	1.345500
19.100000	1	1.295875
19.116667	1	1.244625
19.133333	1	1.192625
19.150000	1	1.141500
19.166667	1	1.091250
19.183333	1	1.043250
19.200000	1	0.998625
19.216667	1	0.958750
19.233333	1	0.922500
19.250000	1	0.891500
19.266667	1	0.865875
19.283333	1	0.845125
19.300000	1	0.830750
19.316667	1	0.821625
19.333333	1	0.818875
19.350000	1	0.821875
19.366667	1	0.831375
19.383333	1	0.846500
19.400000	1	0.866125
19.416667	1	0.890250
19.433333	1	0.918625
19.450000	1	0.950375
19.466667	1	0.984875
19.483333	1	1.020375
19.500000	1	1.055875
19.516667	1	1.090875
19.533333	1	1.125625
19.550000	1	1.157000
19.566667	1	1.184250
19.583333	1	1.207250
19.600000	1	1.223750
19.616667	1	1.234875
19.633333	1	1.241000
19.650000	1	1.241250
19.666667	1	1.235625
19.683333	1	1.223625
19.700000	1	1.207250
19.716667	1	1.186750
19.733333	1	1.162000
19.750000	1	1.133875
19.766667	1	1.103625
19.783333	1	1.071375
19.800000	1	1.037500
19.816667	1	1.003375
19.833333	1	0.969250
19.850000	1	0.934750
19.866667	1	0.900875
19.883333	1	0.869125
19.900000	1	0.838250
19.916667	1	0.808875
19.933333	1	0.781000
19.950000	1	0.755125
19.966667	1	0.731500
19.983333	1	0.710500
20.000000	1	0.691750
20.016667	1	0.675250
20.033333	1	0.662625
20.050000	1	0.651625
20.066667	1	0.643875
20.083333	1	0.638500
20.100000	1	0.636500
20.116667	1	0.636625
20.133333	1	0.640625
20.150000	1	0.646375
20.166667	1	0.655500
20.183333	1	0.666250
20.200000	1	0.678750
20.216667	1	0.692625
20.233333	1	0.707625
20.250000	1	0.723250
20.266667	1	0.738125
20.283333	1	0.752500
20.300000	1	0.765125
20.316667	1	0.775500
20.333333	1	0.783500
20.350000	1	0.788000
20.366667	1	0.789375
20.383333	1	0.787500
20.400000	1	0.782875
20.416667	1	0.775000
20.433333	1	0.765375
20.450000	1	0.753750
20.466667	1	0.741250
20.483333	1	0.729000
20.500000	1	0.718000
20.516667	1	0.708250
20.533333	1	0.700250
20.550000	1	0.696625
20.566667	1	0.698125
20.583333	1	0.705000
20.600000	1	0.717500
20.616667	1	0.737625
20.633333	1	0.764500
20.650000	1	0.800125
20.666667	1	0.844000
20.683333	1	0.896375
20.700000	1	0.956000
20.716667	1	1.023375
20.733333	1	1.096500
20.750000	1	1.173500
20.766667	1	1.253250
20.783333	1	1.334500
20.800000	1	1.414250
20.816667	1	1.489000
20.833333	1	1.557000
20.850000	1	1.615750
20.866667	1	1.665000
20.883333	1	1.700875
20.900000	1	1.722625
20.916667	1	1.731000
20.933333	1	1.723875
20.950000	1	1.702375
20.966667	1	1.668000
20.983333	1	1.621875
21.000000	1	1.565500
21.016667	1	1.501625
21.033333	1	1.432000
21.050000	1	1.358000
21.066667	1	1.281750
21.083333	1	1.206625
21.100000	1	1.133000
21.116667	1	1.061500
21.133333	1	0.994250
21.150000	1	0.931125
21.166667	1	0.872750
21.183333	1	0.820125
21.200000	1	0.772000
21.216667	1	0.729625
21.233333	1	0.691625
21.250000	1	0.658875
21.266667	1	0.630375
21.283333	1	0.604625
21.300000	1	0.583375
21.316667	1	0.565000
21.333333	1	0.549250
21.350000	1	0.536125
21.366667	1	0.524625
21.383333	1	0.514125
21.400000	1	0.505500
21.416667	1	0.498625
21.433333	1	0.493250
21.450000	1	0.488625
21.466667	1	0.484625
21.483333	1	0.480750
21.500000	1	0.478875
21.516667	1	0.477000
21.533333	1	0.475875
21.550000	1	0.475500
21.566667	1	0.476625
21.583333	1	0.478000
21.600000	1	0.481000
21.616667	1	0.485625
21.633333	1	0.491375
21.650000	1	0.498625
21.666667	1	0.507125
21.683333	1	0.518375
21.700000	1	0.531125
21.716667	1	0.546375
21.733333	1	0.564500
21.750000	1	0.584500
21.766667	1	0.607000
21.783333	1	0.631000
21.800000	1	0.656500
21.816667	1	0.684375
21.833333	1	0.713000
21.850000	1	0.742625
21.866667	1	0.772750
21.883333	1	0.803250
21.900000	1	0.831875
21.916667	1	0.860625
21.933333	1	0.886750
21.950000	1	0.910625
21.966667	1	0.931250
21.983333	1	0.948875
22.000000	1	0.963000
22.016667	1	0.972875
22.033333	1	0.978750
22.050000	1	0.981500
22.066667	1	0.980125
22.083333	1	0.975000
22.100000	1	0.966625
22.116667	1	0.955375
22.133333	1	0.941375
22.150000	1	0.924125
22.166667	1	0.905125
22.183333	1	0.884625
22.200000	1	0.862625
22.216667	1	0.839500
22.233333	1	0.815875
22.250000	1	0.792250
22.266667	1	0.768375
22.283333	1	0.745125
22.300000	1	0.721625
22.316667	1	0.697750
22.333333	1	0.673875
22.350000	1	0.651250
22.366667	1	0.629000
22.383333	1	0.607625
22.400000	1	0.588500
22.416667	1	0.569250
22.433333	1	0.551000
22.450000	1	0.534125
22.466667	1	0.517375
22.483333	1	0.502250
22.500000	1	0.488125
22.516667	1	0.474625
22.533333	1	0.462625
22.550000	1	0.451750
22.566667	1	0.441375
22.583333	1	0.432000
22.600000	1	0.423125
22.616667	1	0.414750
22.633333	1	0.408125
22.650000	1	0.400750
22.666667	1	0.394500
22.683333	1	0.388750
22.700000	1	0.383000
22.716667	1	0.378125
22.733333	1	0.373875
22.750000	1	0.369125
22.766667	1	0.365000
22.783333	1	0.360125
22.800000	1	0.355875
22.816667	1	0.352250
22.833333	1	0.348000
22.850000	1	0.344125
22.866667	1	0.340375
22.883333	1	0.338125
22.900000	1	0.335000
22.916667	1	0.332500
22.933333	1	0.331000
22.950000	1	0.328500
22.966667	1	0.327625
22.983333	1	0.325375
23.000000	1	0.324375
23.016667	1	0.323500
23.033333	1	0.323375
23.050000	1	0.323250
23.066667	1	0.323750
23.083333	1	0.324000
23.100000	1	0.324625
23.116667	1	0.325750
23.133333	1	0.327375
23.150000	1	0.329000
23.166667	1	0.331250
23.183333	1	0.333500
23.200000	1	0.335875
23.216667	1	0.337500
23.233333	1	0.340250
23.250000	1	0.343000
23.266667	1	0.346750
23.283333	1	0.350875
23.300000	1	0.356375
23.316667	1	0.363125
23.333333	1	0.371875
23.350000	1	0.383000
23.366667	1	0.396625
23.383333	1	0.414500
23.400000	1	0.436250
23.416667	1	0.463500
23.433333	1	0.498000
23.450000	1	0.539750
23.466667	1	0.590250
23.483333	1	0.651250
23.500000	1	0.723625
23.516667	1	0.810000
23.533333	1	0.911125
23.550000	1	1.028625
23.566667	1	1.163250
23.583333	1	1.316125
23.600000	1	1.487250
23.616667	1	1.676875
23.633333	1	1.884125
23.650000	1	2.107875
23.666667	1	2.347250
23.683333	1	2.598250
23.700000	1	2.858500
23.716667	1	3.123750
23.733333	1	3.389125
23.750000	1	3.649875
23.766667	1	3.900750
23.783333	1	4.136250
23.800000	1	4.350375
23.816667	1	4.538750
23.833333	1	4.697500
23.850000	1	4.822000
23.866667	1	4.910000
23.883333	1	4.959625
23.900000	1	4.970250
23.916667	1	4.942375
23.933333	1	4.877375
23.950000	1	4.777000
23.966667	1	4.645000
23.983333	1	4.485250
24.000000	1	4.302125
24.016667	1	4.101000
24.033333	1	3.886375
24.050000	1	3.662375
24.066667	1	3.433500
24.083333	1	3.204250
24.100000	1	2.976250
24.116667	1	2.754125
24.133333	1	2.539750
24.150000	1	2.334750
24.166667	1	2.142375
24.183333	1	1.961875
24.200000	1	1.794375
24.216667	1	1.640875
24.233333	1	1.501000
24.250000	1	1.373375
24.266667	1	1.257250
24.283333	1	1.153750
24.300000	1	1.061500
24.316667	1	0.980250
24.333333	1	0.907750
24.350000	1	0.844375
24.366667	1	0.789750
24.383333	1	0.742250
24.400000	1	0.701500
24.416667	1	0.666750
24.433333	1	0.637000
24.450000	1	0.612125
24.466667	1	0.592500
24.483333	1	0.575625
24.500000	1	0.561125
24.516667	1	0.549125
24.533333	1	0.540125
24.550000	1	0.532250
24.566667	1	0.526125
24.583333	1	0.520875
24.600000	1	0.516000
24.616667	1	0.511750
24.633333	1	0.507625
24.650000	1	0.503875
24.666667	1	0.500000
24.683333	1	0.495500
24.700000	1	0.490875
24.716667	1	0.486375
24.733333	1	0.481750
24.750000	1	0.477000
24.766667	1	0.472125
24.783333	1	0.466750
24.800000	1	0.461125
24.816667	1	0.456000
24.833333	1	0.451250
24.850000	1	0.445875
24.866667	1	0.441125
24.883333	1	0.435625
24.900000	1	0.431000
24.916667	1	0.426750
24.933333	1	0.422750
24.950000	1	0.417000
24.966667	1	0.412500
24.983333	1	0.408250
25.000000	1	0.403875
25.016667	1	0.400250
25.033333	1	0.396625
25.050000	1	0.393500
25.066667	1	0.389750
25.083333	1	0.386875
25.100000	1	0.383875
25.116667	1	0.380625
25.133333	1	0.377125
25.150000	1	0.373125
25.166667	1	0.370000
25.183333	1	0.366375
25.200000	1	0.362875
25.216667	1	0.359000
25.233333	1	0.355000
25.250000	1	0.351375
25.266667	1	0.348500
25.283333	1	0.345500
25.300000	1	0.342250
25.316667	1	0.340125
25.333333	1	0.337125
25.350000	1	0.335000
25.366667	1	0.332875
25.383333	1	0.330375
25.400000	1	0.327875
25.416667	1	0.326375
25.433333	1	0.325375
25.450000	1	0.324625
25.466667	1	0.323500
25.483333	1	0.322875
25.500000	1	0.322750
25.516667	1	0.323000
25.533333	1	0.322750
25.550000	1	0.322750
25.566667	1	0.323375
25.583333	1	0.323250
25.600000	1	0.322750
25.616667	1	0.323125
25.633333	1	0.323250
25.650000	1	0.323250
25.666667	1	0.323875
25.683333	1	0.324000
25.700000	1	0.323750
25.716667	1	0.323750
25.733333	1	0.323625
25.750000	1	0.323750
25.766667	1	0.323625
25.783333	1	0.323250
25.800000	1	0.322625
25.816667	1	0.322625
25.833333	1	0.323625
25.850000	1	0.324250
25.866667	1	0.324375
25.883333	1	0.326250
25.900000	1	0.327750
25.916667	1	0.329875
25.933333	1	0.332250
25.950000	1	0.334875
25.966667	1	0.337750
25.983333	1	0.341500
26.000000	1	0.344875
26.016667	1	0.348625
26.033333	1	0.353250
26.050000	1	0.359000
26.066667	1	0.364250
26.083333	1	0.369750
26.100000	1	0.375500
26.116667	1	0.381875
26.133333	1	0.387625
26.150000	1	0.393375
26.166667	1	0.399500
26.183333	1	0.404625
26.200000	1	0.409500
26.216667	1	0.414125
26.233333	1	0.418125
26.250000	1	0.422125
26.266667	1	0.425500
26.283333	1	0.427625
26.300000	1	0.429375
26.316667	1	0.430375
26.333333	1	0.430750
26.350000	1	0.430375
26.366667	1	0.429250
26.383333	1	0.427000
26.400000	1	0.423875
26.416667	1	0.420000
26.433333	1	0.416125
26.450000	1	0.411125
26.466667	1	0.406500
26.483333	1	0.400000
26.500000	1	0.393250
26.516667	1	0.386125
26.533333	1	0.378875
26.550000	1	0.371375
26.566667	1	0.363250
26.583333	1	0.356500
26.600000	1	0.348625
26.616667	1	0.340125
26.633333	1	0.332500
26.650000	1	0.325375
26.666667	1	0.317750
26.683333	1	0.310625
26.700000	1	0.303500
26.716667	1	0.296875
26.733333	1	0.290250
26.750000	1	0.284500
26.766667	1	0.278125
26.783333	1	0.272875
26.800000	1	0.267500
26.816667	1	0.263125
26.833333	1	0.258125
26.850000	1	0.254125
26.866667	1	0.250500
26.883333	1	0.247750
26.900000	1	0.245000
26.916667	1	0.242250
26.933333	1	0.240875
26.950000	1	0.239125
26.966667	1	0.237875
26.983333	1	0.237375
27.000000	1	0.237375
27.016667	1	0.238000
27.033333	1	0.239250
27.050000	1	0.240625
27.066667	1	0.244250
27.083333	1	0.247500
27.100000	1	0.251500
27.116667	1	0.256250
27.133333	1	0.263125
27.150000	1	0.270500
27.166667	1	0.279250
27.183333	1	0.289500
27.200000	1	0.301375
27.216667	1	0.316125
27.233333	1	0.332625
27.250000	1	0.352375
27.266667	1	0.375125
27.283333	1	0.401875
27.300000	1	0.431875
27.316667	1	0.466875
27.333333	1	0.506875
27.350000	1	0.552875
27.366667	1	0.605250
27.383333	1	0.664500
27.400000	1	0.730500
27.416667	1	0.806000
27.433333	1	0.890500
27.450000	1	0.985000
27.466667	1	1.090000
27.483333	1	1.205250
27.500000	1	1.331750
27.516667	1	1.469125
27.533333	1	1.616000
27.550000	1	1.773250
27.566667	1	1.939750
27.583333	1	2.114500
27.600000	1	2.296500
27.616667	1	2.483625
27.633333	1	2.675250
27.650000	1	2.868875
27.666667	1	3.062000
27.683333	1	3.251500
27.700000	1	3.435000
27.716667	1	3.609875
27.733333	1	3.773375
27.750000	1	3.921500
27.766667	1	4.052750
27.783333	1	4.164625
27.800000	1	4.255125
27.816667	1	4.322625
27.833333	1	4.365500
27.850000	1	4.382750
27.866667	1	4.373125
27.883333	1	4.337750
27.900000	1	4.277250
27.916667	1	4.193375
27.933333	1	4.086000
27.950000	1	3.959125
27.966667	1	3.814125
27.983333	1	3.654375
28.000000	1	3.482875
28.016667	1	3.301875
28.033333	1	3.114125
28.050000	1	2.922375
28.066667	1	2.729750
28.083333	1	2.538875
28.100000	1	2.352250
28.116667	1	2.171750
28.133333	1	1.998375
28.150000	1	1.834250
28.166667	1	1.679375
28.183333	1	1.535500
28.200000	1	1.402125
28.216667	1	1.279125
28.233333	1	1.166875
28.250000	1	1.065125
28.266667	1	0.973125
28.283333	1	0.891625
28.300000	1	0.819125
28.316667	1	0.754750
28.333333	1	0.698500
28.350000	1	0.649500
28.366667	1	0.608125
28.383333	1	0.573250
28.400000	1	0.542875
28.416667	1	0.518500
28.433333	1	0.500000
28.450000	1	0.484500
28.466667	1	0.473625
28.483333	1	0.466000
28.500000	1	0.461125
28.516667	1	0.459000
28.533333	1	0.459250
28.550000	1	0.462375
28.566667	1	0.466125
28.583333	1	0.471500
28.600000	1	0.479000
28.616667	1	0.487750
28.633333	1	0.496500
28.650000	1	0.506250
28.666667	1	0.516000
28.683333	1	0.525875
28.700000	1	0.535375
28.716667	1	0.545500
28.733333	1	0.555125
28.750000	1	0.564000
28.766667	1	0.572125
28.783333	1	0.579375
28.800000	1	0.586000
28.816667	1	0.591375
28.833333	1	0.596250
28.850000	1	0.600500
28.866667	1	0.603875
28.883333	1	0.604750
28.900000	1	0.604625
28.916667	1	0.603750
28.933333	1	0.602125
28.950000	1	0.598750
28.966667	1	0.593500
28.983333	1	0.588625
29.000000	1	0.582500
29.016667	1	0.575875
29.033333	1	0.567625
29.050000	1	0.558000
29.066667	1	0.548375
29.083333	1	0.537250
29.100000	1	0.525750
29.116667	1	0.513750
29.133333	1	0.500875
29.150000	1	0.487875
29.166667	1	0.473875
29.183333	1	0.459750
29.200000	1	0.445500
29.216667	1	0.432000
29.233333	1	0.417750
29.250000	1	0.404625
29.266667	1	0.391250
29.283333	1	0.377375
29.300000	1	0.363375
29.316667	1	0.350000
29.333333	1	0.337375
29.350000	1	0.325125
29.366667	1	0.313625
29.383333	1	0.302250
29.400000	1	0.290875
29.416667	1	0.280875
29.433333	1	0.271625
29.450000	1	0.262375
29.466667	1	0.253375
29.483333	1	0.245000
29.500000	1	0.237250
29.516667	1	0.229375
29.533333	1	0.222375
29.550000	1	0.215750
29.566667	1	0.210375
29.583333	1	0.205000
29.600000	1	0.200125
29.616667	1	0.194750
29.633333	1	0.190125
29.650000	1	0.186250
29.666667	1	0.182500
29.683333	1	0.178250
29.700000	1	0.175125
29.716667	1	0.172375
29.733333	1	0.170375
29.750000	1	0.168000
29.766667	1	0.165875
29.783333	1	0.164000
29.800000	1	0.161750
29.816667	1	0.159875
29.833333	1	0.158750
29.850000	1	0.157375
29.866667	1	0.155750
29.883333	1	0.154000
29.900000	1	0.152375
29.916667	1	0.151000
29.933333	1	0.149750
29.950000	1	0.148375
29.966667	1	0.147125
29.983333	1	0.145875
30.000000	1	0.145000
30.016667	1	0.144750
30.033333	1	0.143500
30.050000	1	0.142250
30.066667	1	0.141375
30.083333	1	0.140375
30.100000	1	0.139500
30.116667	1	0.139000
30.133333	1	0.138000
30.150000	1	0.137125
30.166667	1	0.136375
30.183333	1	0.135250
30.200000	1	0.134375
30.216667	1	0.134125
30.233333	1	0.133250
30.250000	1	0.132750
30.266667	1	0.132500
30.283333	1	0.131875
30.300000	1	0.131250
30.316667	1	0.131625
30.333333	1	0.130875
30.350000	1	0.130625
30.366667	1	0.131000
30.383333	1	0.131750
30.400000	1	0.132500
30.416667	1	0.133250
30.433333	1	0.135125
30.450000	1	0.136625
30.466667	1	0.139125
30.483333	1	0.142125
30.500000	1	0.145250
30.516667	1	0.148625
30.533333	1	0.152375
30.550000	1	0.156375
30.566667	1	0.161375
30.583333	1	0.166875
30.600000	1	0.173125
30.616667	1	0.179750
30.633333	1	0.186750
30.650000	1	0.194875
30.666667	1	0.203750
30.683333	1	0.212375
30.700000	1	0.222500
30.716667	1	0.233000
30.733333	1	0.243750
30.750000	1	0.255375
30.766667	1	0.267750
30.783333	1	0.281250
30.800000	1	0.294625
30.816667	1	0.309250
30.833333	1	0.325250
30.850000	1	0.342375
30.866667	1	0.359875
30.883333	1	0.378875
30.900000	1	0.399875
30.916667	1	0.423375
30.933333	1	0.449000
30.950000	1	0.477125
30.966667	1	0.507375
30.983333	1	0.541750
31.000000	1	0.580125
31.016667	1	0.623500
31.033333	1	0.671125
31.050000	1	0.723250
31.066667	1	0.782500
31.083333	1	0.849000
31.100000	1	0.921500
31.116667	1	1.001375
31.133333	1	1.088625
31.150000	1	1.184250
31.166667	1	1.288750
31.183333	1	1.400875
31.200000	1	1.522875
31.216667	1	1.652500
31.233333	1	1.789750
31.250000	1	1.934500
31.266667	1	2.085750
31.283333	1	2.242875
31.300000	1	2.404125
31.316667	1	2.568750
31.333333	1	2.734500
31.350000	1	2.900250
31.366667	1	3.064625
31.383333	1	3.224875
31.400000	1	3.379875
31.416667	1	3.527500
31.433333	1	3.665250
31.450000	1	3.791375
31.466667	1	3.903875
31.483333	1	4.001875
31.500000	1	4.083750
31.516667	1	4.148625
31.533333	1	4.195500
31.550000	1	4.223250
31.566667	1	4.232500
31.583333	1	4.223500
31.600000	1	4.195375
31.616667	1	4.149875
31.633333	1	4.086250
31.650000	1	4.006875
31.666667	1	3.913125
31.683333	1	3.806500
31.700000	1	3.687375
31.716667	1	3.557750
31.733333	1	3.420250
31.750000	1	3.276375
31.766667	1	3.128250
31.783333	1	2.976250
31.800000	1	2.822875
31.816667	1	2.668375
31.833333	1	2.515625
31.850000	1	2.364750
31.866667	1	2.217625
31.883333	1	2.074375
31.900000	1	1.936750
31.916667	1	1.804625
31.933333	1	1.679125
31.950000	1	1.559625
31.966667	1	1.447125
31.983333	1	1.341500
32.000000	1	1.242625
32.016667	1	1.150000
32.033333	1	1.064000
32.050000	1	0.984125
32.066667	1	0.910125
32.083333	1	0.842625
32.100000	1	0.779250
32.116667	1	0.721500
32.133333	1	0.668750
32.150000	1	0.620125
32.166667	1	0.575500
32.183333	1	0.534375
32.200000	1	0.496000
32.216667	1	0.461500
32.233333	1	0.430125
32.250000	1	0.401125
32.266667	1	0.374875
32.283333	1	0.350250
32.300000	1	0.327875
32.316667	1	0.308000
32.333333	1	0.289250
32.350000	1	0.271750
32.366667	1	0.256250
32.383333	1	0.242750
32.400000	1	0.230000
32.416667	1	0.218000
32.433333	1	0.207375
32.450000	1	0.197750
32.466667	1	0.189125
32.483333	1	0.181250
32.500000	1	0.174500
32.516667	1	0.168375
32.533333	1	0.162375
32.550000	1	0.157750
32.566667	1	0.153375
32.583333	1	0.149875
32.600000	1	0.146500
32.616667	1	0.143375
32.633333	1	0.141125
32.650000	1	0.137750
32.666667	1	0.135375
32.683333	1	0.133125
32.700000	1	0.131125
32.716667	1	0.129500
32.733333	1	0.128625
32.750000	1	0.127250
32.766667	1	0.125500
32.783333	1	0.124000
32.800000	1	0.122250
32.816667	1	0.121125
32.833333	1	0.119875
32.850000	1	0.118125
32.866667	1	0.116500
32.883333	1	0.115750
32.900000	1	0.114125
32.916667	1	0.112500
32.933333	1	0.111625
32.950000	1	0.109375
32.966667	1	0.107625
32.983333	1	0.105750
33.000000	1	0.104250
33.016667	1	0.103500
33.033333	1	0.101500
33.050000	1	0.100000
33.066667	1	0.098125
33.083333	1	0.096125
33.100000	1	0.094875
33.116667	1	0.093875
33.133333	1	0.092750
33.150000	1	0.091375
33.166667	1	0.091250
33.183333	1	0.090250
33.200000	1	0.089125
33.216667	1	0.088250
33.233333	1	0.088625
33.250000	1	0.088000
33.266667	1	0.088375
33.283333	1	0.088875
33.300000	1	0.090000
33.316667	1	0.091750
33.333333	1	0.093625
33.350000	1	0.096125
33.366667	1	0.099125
33.383333	1	0.102625
33.400000	1	0.107000
33.416667	1	0.111250
33.433333	1	0.116250
33.450000	1	0.122250
33.466667	1	0.129250
33.483333	1	0.135875
33.500000	1	0.144000
33.516667	1	0.153000
33.533333	1	0.162750
33.550000	1	0.174000
33.566667	1	0.184875
33.583333	1	0.198125
33.600000	1	0.211375
33.616667	1	0.225125
33.633333	1	0.240875
33.650000	1	0.256750
33.666667	1	0.273750
33.683333	1	0.291250
33.700000	1	0.309500
33.716667	1	0.328500
33.733333	1	0.348500
33.750000	1	0.369375
33.766667	1	0.390250
33.783333	1	0.412000
33.800000	1	0.434125
33.816667	1	0.455500
33.833333	1	0.476875
33.850000	1	0.497250
33.866667	1	0.517500
33.883333	1	0.537250
33.900000	1	0.555875
33.916667	1	0.573125
33.933333	1	0.588625
33.950000	1	0.602750
33.966667	1	0.616625
33.983333	1	0.627875
34.000000	1	0.637500
34.016667	1	0.644500
34.033333	1	0.649250
34.050000	1	0.652500
34.066667	1	0.653750
34.083333	1	0.652625
34.100000	1	0.649375
34.116667	1	0.644125
34.133333	1	0.636250
34.150000	1	0.627125
34.166667	1	0.616000
34.183333	1	0.603375
34.200000	1	0.589875
34.216667	1	0.574125
34.233333	1	0.558000
34.250000	1	0.540750
34.266667	1	0.523000
34.283333	1	0.505625
34.300000	1	0.487875
34.316667	1	0.469875
34.333333	1	0.451375
34.350000	1	0.433250
34.366667	1	0.415875
34.383333	1	0.399125
34.400000	1	0.382125
34.416667	1	0.366250
34.433333	1	0.351000
34.450000	1	0.336375
34.466667	1	0.323625
34.483333	1	0.310875
34.500000	1	0.299500
34.516667	1	0.288250
34.533333	1	0.278000
34.550000	1	0.268750
34.566667	1	0.260250
34.583333	1	0.252250
34.600000	1	0.245500
34.616667	1	0.239375
34.633333	1	0.234125
34.650000	1	0.229000
34.666667	1	0.224500
34.683333	1	0.220375
34.700000	1	0.216750
34.716667	1	0.213750
34.733333	1	0.211250
34.750000	1	0.208750
34.766667	1	0.206375
34.783333	1	0.204750
34.800000	1	0.203125
34.816667	1	0.201875
34.833333	1	0.200875
34.850000	1	0.199625
34.866667	1	0.198250
34.883333	1	0.196125
34.900000	1	0.194750
34.916667	1	0.194625
34.933333	1	0.193750
34.950000	1	0.193625
34.966667	1	0.192875
34.983333	1	0.192250
35.000000	1	0.191250
35.016667	1	0.190125
35.033333	1	0.188750
35.050000	1	0.188375
35.066667	1	0.187250
35.083333	1	0.185250
35.100000	1	0.184875
35.116667	1	0.183125
35.133333	1	0.181375
35.150000	1	0.180250
35.166667	1	0.178875
35.183333	1	0.177125
35.200000	1	0.176000
35.216667	1	0.174875
35.233333	1	0.173125
35.250000	1	0.172000
35.266667	1	0.171625
35.283333	1	0.170875
35.300000	1	0.170000
35.316667	1	0.168750
35.333333	1	0.168500
35.350000	1	0.167875
35.366667	1	0.166625
35.383333	1	0.166125
35.400000	1	0.166125
35.416667	1	0.166375
35.433333	1	0.165875
35.450000	1	0.166500
35.466667	1	0.167125
35.483333	1	0.167625
35.500000	1	0.167500
35.516667	1	0.167625
35.533333	1	0.168500
35.550000	1	0.169375
35.566667	1	0.169750
35.583333	1	0.169500
35.600000	1	0.170000
35.616667	1	0.169875
35.633333	1	0.170375
35.650000	1	0.170500
35.666667	1	0.170250
35.683333	1	0.170250
35.700000	1	0.170000
35.716667	1	0.169750
35.733333	1	0.169500
35.750000	1	0.169125
35.766667	1	0.167750
35.783333	1	0.166125
35.800000	1	0.165500
35.816667	1	0.163625
35.833333	1	0.162750
35.850000	1	0.161250
35.866667	1	0.159875
35.883333	1	0.158125
35.900000	1	0.156500
35.916667	1	0.155375
35.933333	1	0.154125
35.950000	1	0.152625
35.966667	1	0.151375
35.983333	1	0.149875
36.000000	1	0.149000
36.016667	1	0.147625
36.033333	1	0.146625
36.050000	1	0.145875
36.066667	1	0.145500
36.083333	1	0.144875
36.100000	1	0.145375
36.116667	1	0.145375
36.133333	1	0.145250
36.150000	1	0.145500
36.166667	1	0.146000
36.183333	1	0.146375
36.200000	1	0.147250
36.216667	1	0.148250
36.233333	1	0.149625
36.250000	1	0.150625
36.266667	1	0.151875
36.283333	1	0.153875
36.300000	1	0.154625
36.316667	1	0.155125
36.333333	1	0.156375
36.350000	1	0.157750
36.366667	1	0.159250
36.383333	1	0.160500
36.400000	1	0.161625
36.416667	1	0.162750
36.433333	1	0.163250
36.450000	1	0.164250
36.466667	1	0.164250
36.483333	1	0.164375
36.500000	1	0.165125
36.516667	1	0.164625
36.533333	1	0.164625
36.550000	1	0.165000
36.566667	1	0.164500
36.583333	1	0.164000
36.600000	1	0.162625
36.616667	1	0.161250
36.633333	1	0.159500
36.650000	1	0.158250
36.666667	1	0.155750
36.683333	1	0.153875
36.700000	1	0.152250
36.716667	1	0.149500
36.733333	1	0.146250
36.750000	1	0.143625
36.766667	1	0.141125
36.783333	1	0.138500
36.800000	1	0.134625
36.816667	1	0.131625
36.833333	1	0.127500
36.850000	1	0.123875
36.866667	1	0.119750
36.883333	1	0.116125
36.900000	1	0.112625
36.916667	1	0.108875
36.933333	1	0.105500
36.950000	1	0.102250
36.966667	1	0.098500
36.983333	1	0.095375
37.000000	1	0.092000
37.016667	1	0.089000
37.033333	1	0.086000
37.050000	1	0.082875
37.066667	1	0.080500
37.083333	1	0.078125
37.100000	1	0.076000
37.116667	1	0.073750
37.133333	1	0.071750
37.150000	1	0.070500
37.166667	1	0.069500
37.183333	1	0.068000
37.200000	1	0.066750
37.216667	1	0.065750
37.233333	1	0.065500
37.250000	1	0.065000
37.266667	1	0.064000
37.283333	1	0.064250
37.300000	1	0.064625
37.316667	1	0.064625
37.333333	1	0.065625
37.350000	1	0.066000
37.366667	1	0.065625
37.383333	1	0.065500
37.400000	1	0.066250
37.416667	1	0.066625
37.433333	1	0.067250
37.450000	1	0.068125
37.466667	1	0.069000
37.483333	1	0.069500
37.500000	1	0.071000
37.516667	1	0.071500
37.533333	1	0.072250
37.550000	1	0.072500
37.566667	1	0.073250
37.583333	1	0.073750
37.600000	1	0.074500
37.616667	1	0.075500
37.633333	1	0.076000
37.650000	1	0.076750
37.666667	1	0.077250
37.683333	1	0.077625
37.700000	1	0.078625
37.716667	1	0.079250
37.733333	1	0.079875
37.750000	1	0.080500
37.766667	1	0.081500
37.783333	1	0.082125
37.800000	1	0.082750
37.816667	1	0.082875
37.833333	1	0.083500
37.850000	1	0.084625
37.866667	1	0.084375
37.883333	1	0.085750
37.900000	1	0.086750
37.916667	1	0.087125
37.933333	1	0.088625
37.950000	1	0.088750
37.966667	1	0.089375
37.983333	1	0.089875
38.000000	1	0.091000
38.016667	1	0.091875
38.033333	1	0.093250
38.050000	1	0.094000
38.066667	1	0.094250
38.083333	1	0.094500
38.100000	1	0.095875
38.116667	1	0.096250
38.133333	1	0.097125
38.150000	1	0.097500
38.166667	1	0.097500
38.183333	1	0.097250
38.200000	1	0.097875
38.216667	1	0.097875
38.233333	1	0.097750
38.250000	1	0.097750
38.266667	1	0.097625
38.283333	1	0.097625
38.300000	1	0.096875
38.316667	1	0.096750
38.333333	1	0.096125
38.350000	1	0.095250
38.366667	1	0.093875
38.383333	1	0.093125
38.400000	1	0.092125
38.416667	1	0.090500
38.433333	1	0.089125
38.450000	1	0.087500
38.466667	1	0.086125
38.483333	1	0.085000
38.500000	1	0.084000
38.516667	1	0.082500
38.533333	1	0.081375
38.550000	1	0.079750
38.566667	1	0.078500
38.583333	1	0.076500
38.600000	1	0.074875
38.616667	1	0.073375
38.633333	1	0.071625
38.650000	1	0.070750
38.666667	1	0.069125
38.683333	1	0.067375
38.700000	1	0.066000
38.716667	1	0.064000
38.733333	1	0.062125
38.750000	1	0.060875
38.766667	1	0.060375
38.783333	1	0.058875
38.800000	1	0.058000
38.816667	1	0.056625
38.833333	1	0.056250
38.850000	1	0.055875
38.866667	1	0.055625
38.883333	1	0.055125
38.900000	1	0.055000
38.916667	1	0.054375
38.933333	1	0.054250
38.950000	1	0.053125
38.966667	1	0.053125
38.983333	1	0.053250
39.000000	1	0.052875
39.016667	1	0.052125
39.033333	1	0.051750
39.050000	1	0.051625
39.066667	1	0.052250
39.083333	1	0.052375
39.100000	1	0.052125
39.116667	1	0.051125
39.133333	1	0.050750
39.150000	1	0.050500
39.166667	1	0.049875
39.183333	1	0.049125
39.200000	1	0.048500
39.216667	1	0.047875
39.233333	1	0.047250
39.250000	1	0.046875
39.266667	1	0.046625
39.283333	1	0.045875
39.300000	1	0.044750
39.316667	1	0.044000
39.333333	1	0.043125
39.350000	1	0.042500
39.366667	1	0.041375
39.383333	1	0.040125
39.400000	1	0.039000
39.416667	1	0.038250
39.433333	1	0.037375
39.450000	1	0.036375
39.466667	1	0.035500
39.483333	1	0.034500
39.500000	1	0.033625
39.516667	1	0.032750
39.533333	1	0.031875
39.550000	1	0.031250
39.566667	1	0.030875
39.583333	1	0.030750
39.600000	1	0.030500
39.616667	1	0.029750
39.633333	1	0.029500
39.650000	1	0.029500
39.666667	1	0.028875
39.683333	1	0.028750
39.700000	1	0.028750
39.716667	1	0.029000
39.733333	1	0.029375
39.750000	1	0.029500
39.766667	1	0.030125
39.783333	1	0.030625
39.800000	1	0.030125
39.816667	1	0.030125
39.833333	1	0.029750
39.850000	1	0.030500
39.866667	1	0.030125
39.883333	1	0.029750
39.900000	1	0.029500
39.916667	1	0.029625
39.933333	1	0.030000
39.950000	1	0.029500
39.966667	1	0.029500
39.983333	1	0.029000
40.000000	1	0.028000
