URL	chrom://bioreactor/micro_cm7/HPLC_Ultimate_3000/Users/markusar/20240716_MA_pHrange2.seq/663.smp/RI_1.channel/RI_1.chm
Channel	RI_1

Injection Information:
Data Vault	micro_cm7
Sequence	20240716_MA_pHrange2
Name	Fp1_25H_2
Number	40
Position	BD4
Comment	
Processing Method	
Instrument Method	run_25B_method
Type	Unknown
Status	Finished
Inject Time	17.07.2024 20:44:18 +02:00
Volume (µl)	20.0000
Dilution Factor	1.0000
Weight	1.0000

Chromatogram Data Information:
Time Min. (min)	0.000000
Time Max. (min)	40.000000
Data Points	2401
Detector	RI
Generating Data System	Chromeleon 7.3.2.11814
Exporting Data System	Chromeleon 7.3.2.0
Operator	Instrument Controller
Signal Quantity	Refractive 
Signal Unit	µRIU
Signal Min.	-0.101375
Signal Max.	83.668875
Channel	RI_1
Driver Name	RID520Driver.dll
Channel Type	Evaluation
Min. Step (s)	1
Max. Step (s)	1
Average Step (s)	1

Signal Parameter Information:
Signal Info	

Chromatogram Data:
Time (min)	Step (s)	Value (µRIU)
0.000000	n.a.	0.001750
0.016667	1	0.001250
0.033333	1	0.001500
0.050000	1	0.002375
0.066667	1	0.002500
0.083333	1	0.002750
0.100000	1	0.003250
0.116667	1	0.003375
0.133333	1	0.003750
0.150000	1	0.003500
0.166667	1	0.004125
0.183333	1	0.004500
0.200000	1	0.004625
0.216667	1	0.005000
0.233333	1	0.006125
0.250000	1	0.006750
0.266667	1	0.006750
0.283333	1	0.006500
0.300000	1	0.006500
0.316667	1	0.006625
0.333333	1	0.006500
0.350000	1	0.006250
0.366667	1	0.006250
0.383333	1	0.005125
0.400000	1	0.005375
0.416667	1	0.006375
0.433333	1	0.007500
0.450000	1	0.009875
0.466667	1	0.012250
0.483333	1	0.014000
0.500000	1	0.015250
0.516667	1	0.016125
0.533333	1	0.016250
0.550000	1	0.016500
0.566667	1	0.015750
0.583333	1	0.014750
0.600000	1	0.013375
0.616667	1	0.012750
0.633333	1	0.012250
0.650000	1	0.012000
0.666667	1	0.012000
0.683333	1	0.012375
0.700000	1	0.012625
0.716667	1	0.012625
0.733333	1	0.012125
0.750000	1	0.012375
0.766667	1	0.012750
0.783333	1	0.013125
0.800000	1	0.013250
0.816667	1	0.013250
0.833333	1	0.013500
0.850000	1	0.013000
0.866667	1	0.012625
0.883333	1	0.012500
0.900000	1	0.012250
0.916667	1	0.011875
0.933333	1	0.010875
0.950000	1	0.010000
0.966667	1	0.009625
0.983333	1	0.008500
1.000000	1	0.007000
1.016667	1	0.005875
1.033333	1	0.005375
1.050000	1	0.004750
1.066667	1	0.004000
1.083333	1	0.002625
1.100000	1	0.002375
1.116667	1	0.001375
1.133333	1	0.000625
1.150000	1	0.000000
1.166667	1	-0.000625
1.183333	1	-0.000750
1.200000	1	-0.001250
1.216667	1	-0.001875
1.233333	1	-0.002500
1.250000	1	-0.002750
1.266667	1	-0.003375
1.283333	1	-0.003000
1.300000	1	-0.002500
1.316667	1	-0.002250
1.333333	1	-0.002250
1.350000	1	-0.002125
1.366667	1	-0.001750
1.383333	1	-0.001375
1.400000	1	-0.000875
1.416667	1	0.000000
1.433333	1	-0.000250
1.450000	1	0.000000
1.466667	1	0.000375
1.483333	1	0.001125
1.500000	1	0.001875
1.516667	1	0.002875
1.533333	1	0.003500
1.550000	1	0.004125
1.566667	1	0.004625
1.583333	1	0.005250
1.600000	1	0.005375
1.616667	1	0.006500
1.633333	1	0.006875
1.650000	1	0.008125
1.666667	1	0.008625
1.683333	1	0.008750
1.700000	1	0.009375
1.716667	1	0.010125
1.733333	1	0.010500
1.750000	1	0.011250
1.766667	1	0.012000
1.783333	1	0.012125
1.800000	1	0.011500
1.816667	1	0.011500
1.833333	1	0.012125
1.850000	1	0.011625
1.866667	1	0.011750
1.883333	1	0.011625
1.900000	1	0.011000
1.916667	1	0.010375
1.933333	1	0.010125
1.950000	1	0.009375
1.966667	1	0.008500
1.983333	1	0.007875
2.000000	1	0.007375
2.016667	1	0.006750
2.033333	1	0.005750
2.050000	1	0.004625
2.066667	1	0.003625
2.083333	1	0.002750
2.100000	1	0.001875
2.116667	1	0.000250
2.133333	1	-0.000750
2.150000	1	-0.002000
2.166667	1	-0.004000
2.183333	1	-0.004750
2.200000	1	-0.006125
2.216667	1	-0.007750
2.233333	1	-0.009250
2.250000	1	-0.010875
2.266667	1	-0.012125
2.283333	1	-0.013875
2.300000	1	-0.015625
2.316667	1	-0.017125
2.333333	1	-0.017625
2.350000	1	-0.018875
2.366667	1	-0.020000
2.383333	1	-0.021250
2.400000	1	-0.022000
2.416667	1	-0.022500
2.433333	1	-0.022625
2.450000	1	-0.022625
2.466667	1	-0.022625
2.483333	1	-0.022750
2.500000	1	-0.022125
2.516667	1	-0.021500
2.533333	1	-0.021125
2.550000	1	-0.020125
2.566667	1	-0.020250
2.583333	1	-0.019500
2.600000	1	-0.018375
2.616667	1	-0.017250
2.633333	1	-0.015500
2.650000	1	-0.014375
2.666667	1	-0.013125
2.683333	1	-0.011750
2.700000	1	-0.010500
2.716667	1	-0.008875
2.733333	1	-0.007125
2.750000	1	-0.005625
2.766667	1	-0.003375
2.783333	1	-0.001375
2.800000	1	0.000625
2.816667	1	0.002500
2.833333	1	0.004875
2.850000	1	0.006625
2.866667	1	0.008625
2.883333	1	0.010375
2.900000	1	0.012375
2.916667	1	0.014750
2.933333	1	0.017125
2.950000	1	0.019375
2.966667	1	0.021500
2.983333	1	0.024000
3.000000	1	0.026625
3.016667	1	0.028750
3.033333	1	0.031000
3.050000	1	0.033250
3.066667	1	0.035000
3.083333	1	0.037375
3.100000	1	0.039625
3.116667	1	0.041750
3.133333	1	0.043625
3.150000	1	0.046125
3.166667	1	0.048625
3.183333	1	0.050750
3.200000	1	0.053000
3.216667	1	0.055000
3.233333	1	0.057375
3.250000	1	0.060000
3.266667	1	0.061750
3.283333	1	0.063375
3.300000	1	0.065375
3.316667	1	0.067125
3.333333	1	0.068250
3.350000	1	0.069625
3.366667	1	0.071250
3.383333	1	0.071875
3.400000	1	0.073000
3.416667	1	0.073375
3.433333	1	0.073625
3.450000	1	0.074250
3.466667	1	0.074750
3.483333	1	0.074500
3.500000	1	0.074250
3.516667	1	0.073250
3.533333	1	0.072250
3.550000	1	0.071375
3.566667	1	0.069875
3.583333	1	0.068625
3.600000	1	0.067250
3.616667	1	0.064875
3.633333	1	0.062250
3.650000	1	0.059875
3.666667	1	0.056750
3.683333	1	0.054375
3.700000	1	0.052625
3.716667	1	0.049500
3.733333	1	0.046500
3.750000	1	0.043375
3.766667	1	0.040375
3.783333	1	0.037750
3.800000	1	0.035000
3.816667	1	0.032500
3.833333	1	0.030500
3.850000	1	0.028875
3.866667	1	0.026250
3.883333	1	0.024125
3.900000	1	0.022375
3.916667	1	0.020875
3.933333	1	0.019750
3.950000	1	0.019125
3.966667	1	0.019125
3.983333	1	0.019250
4.000000	1	0.018625
4.016667	1	0.018875
4.033333	1	0.019375
4.050000	1	0.020625
4.066667	1	0.021500
4.083333	1	0.023000
4.100000	1	0.024625
4.116667	1	0.027000
4.133333	1	0.029000
4.150000	1	0.031500
4.166667	1	0.034375
4.183333	1	0.037000
4.200000	1	0.039750
4.216667	1	0.043000
4.233333	1	0.045750
4.250000	1	0.048750
4.266667	1	0.052125
4.283333	1	0.056000
4.300000	1	0.059750
4.316667	1	0.063625
4.333333	1	0.068000
4.350000	1	0.070500
4.366667	1	0.074250
4.383333	1	0.078250
4.400000	1	0.082125
4.416667	1	0.085875
4.433333	1	0.090000
4.450000	1	0.093500
4.466667	1	0.097500
4.483333	1	0.101875
4.500000	1	0.106000
4.516667	1	0.110375
4.533333	1	0.114000
4.550000	1	0.117625
4.566667	1	0.121000
4.583333	1	0.124875
4.600000	1	0.128875
4.616667	1	0.132625
4.633333	1	0.136250
4.650000	1	0.139875
4.666667	1	0.142875
4.683333	1	0.146625
4.700000	1	0.149375
4.716667	1	0.152500
4.733333	1	0.155625
4.750000	1	0.159000
4.766667	1	0.161875
4.783333	1	0.165250
4.800000	1	0.168000
4.816667	1	0.170750
4.833333	1	0.173000
4.850000	1	0.175750
4.866667	1	0.178250
4.883333	1	0.180000
4.900000	1	0.182875
4.916667	1	0.185250
4.933333	1	0.187250
4.950000	1	0.188875
4.966667	1	0.191000
4.983333	1	0.192625
5.000000	1	0.194000
5.016667	1	0.195750
5.033333	1	0.198000
5.050000	1	0.199875
5.066667	1	0.201250
5.083333	1	0.202750
5.100000	1	0.204125
5.116667	1	0.205000
5.133333	1	0.205875
5.150000	1	0.206625
5.166667	1	0.207375
5.183333	1	0.208625
5.200000	1	0.209375
5.216667	1	0.209875
5.233333	1	0.210625
5.250000	1	0.210750
5.266667	1	0.210625
5.283333	1	0.210375
5.300000	1	0.210125
5.316667	1	0.209750
5.333333	1	0.209125
5.350000	1	0.209125
5.366667	1	0.208125
5.383333	1	0.206625
5.400000	1	0.205000
5.416667	1	0.203750
5.433333	1	0.202375
5.450000	1	0.200375
5.466667	1	0.198375
5.483333	1	0.196625
5.500000	1	0.194375
5.516667	1	0.191500
5.533333	1	0.189750
5.550000	1	0.186250
5.566667	1	0.183000
5.583333	1	0.180250
5.600000	1	0.176750
5.616667	1	0.173250
5.633333	1	0.169375
5.650000	1	0.165875
5.666667	1	0.162250
5.683333	1	0.157875
5.700000	1	0.154000
5.716667	1	0.150000
5.733333	1	0.146625
5.750000	1	0.142625
5.766667	1	0.139000
5.783333	1	0.135375
5.800000	1	0.131000
5.816667	1	0.127500
5.833333	1	0.123375
5.850000	1	0.118875
5.866667	1	0.115500
5.883333	1	0.111125
5.900000	1	0.106875
5.916667	1	0.103250
5.933333	1	0.100000
5.950000	1	0.096250
5.966667	1	0.092875
5.983333	1	0.089750
6.000000	1	0.086250
6.016667	1	0.082875
6.033333	1	0.080500
6.050000	1	0.077500
6.066667	1	0.074250
6.083333	1	0.071125
6.100000	1	0.068000
6.116667	1	0.065500
6.133333	1	0.063000
6.150000	1	0.060750
6.166667	1	0.058625
6.183333	1	0.056625
6.200000	1	0.054625
6.216667	1	0.052875
6.233333	1	0.051375
6.250000	1	0.049625
6.266667	1	0.048125
6.283333	1	0.046625
6.300000	1	0.044875
6.316667	1	0.043375
6.333333	1	0.042250
6.350000	1	0.040875
6.366667	1	0.039875
6.383333	1	0.039375
6.400000	1	0.038375
6.416667	1	0.038000
6.433333	1	0.037625
6.450000	1	0.037375
6.466667	1	0.037125
6.483333	1	0.036750
6.500000	1	0.035750
6.516667	1	0.035875
6.533333	1	0.037000
6.550000	1	0.036375
6.566667	1	0.037125
6.583333	1	0.038375
6.600000	1	0.039000
6.616667	1	0.040125
6.633333	1	0.040750
6.650000	1	0.041125
6.666667	1	0.042750
6.683333	1	0.043875
6.700000	1	0.045000
6.716667	1	0.046500
6.733333	1	0.048250
6.750000	1	0.049875
6.766667	1	0.051625
6.783333	1	0.053625
6.800000	1	0.055750
6.816667	1	0.058125
6.833333	1	0.060625
6.850000	1	0.062625
6.866667	1	0.064875
6.883333	1	0.067125
6.900000	1	0.069750
6.916667	1	0.072250
6.933333	1	0.074125
6.950000	1	0.076750
6.966667	1	0.078875
6.983333	1	0.081250
7.000000	1	0.083375
7.016667	1	0.085250
7.033333	1	0.088125
7.050000	1	0.089125
7.066667	1	0.091375
7.083333	1	0.093250
7.100000	1	0.094625
7.116667	1	0.095750
7.133333	1	0.096750
7.150000	1	0.098125
7.166667	1	0.098625
7.183333	1	0.099625
7.200000	1	0.100375
7.216667	1	0.100625
7.233333	1	0.100375
7.250000	1	0.100125
7.266667	1	0.098750
7.283333	1	0.098375
7.300000	1	0.097500
7.316667	1	0.096125
7.333333	1	0.094625
7.350000	1	0.093000
7.366667	1	0.091750
7.383333	1	0.089750
7.400000	1	0.087000
7.416667	1	0.085000
7.433333	1	0.082000
7.450000	1	0.079125
7.466667	1	0.076250
7.483333	1	0.073500
7.500000	1	0.070625
7.516667	1	0.068000
7.533333	1	0.065500
7.550000	1	0.063250
7.566667	1	0.060125
7.583333	1	0.057000
7.600000	1	0.054125
7.616667	1	0.051000
7.633333	1	0.048125
7.650000	1	0.045000
7.666667	1	0.042000
7.683333	1	0.038875
7.700000	1	0.036375
7.716667	1	0.033875
7.733333	1	0.031875
7.750000	1	0.029875
7.766667	1	0.027250
7.783333	1	0.025125
7.800000	1	0.022750
7.816667	1	0.021000
7.833333	1	0.018500
7.850000	1	0.016500
7.866667	1	0.014375
7.883333	1	0.011750
7.900000	1	0.009625
7.916667	1	0.007000
7.933333	1	0.004250
7.950000	1	0.001750
7.966667	1	-0.000625
7.983333	1	-0.002750
8.000000	1	-0.005250
8.016667	1	-0.008125
8.033333	1	-0.011000
8.050000	1	-0.014875
8.066667	1	-0.018000
8.083333	1	-0.021000
8.100000	1	-0.024500
8.116667	1	-0.027875
8.133333	1	-0.030875
8.150000	1	-0.033750
8.166667	1	-0.036500
8.183333	1	-0.039500
8.200000	1	-0.042750
8.216667	1	-0.045375
8.233333	1	-0.047750
8.250000	1	-0.050250
8.266667	1	-0.052000
8.283333	1	-0.054000
8.300000	1	-0.055250
8.316667	1	-0.056125
8.333333	1	-0.056750
8.350000	1	-0.057000
8.366667	1	-0.056250
8.383333	1	-0.055375
8.400000	1	-0.054125
8.416667	1	-0.053000
8.433333	1	-0.051625
8.450000	1	-0.050125
8.466667	1	-0.048375
8.483333	1	-0.046500
8.500000	1	-0.043625
8.516667	1	-0.040750
8.533333	1	-0.037750
8.550000	1	-0.034250
8.566667	1	-0.030750
8.583333	1	-0.027250
8.600000	1	-0.024000
8.616667	1	-0.020875
8.633333	1	-0.017500
8.650000	1	-0.014500
8.666667	1	-0.011375
8.683333	1	-0.008250
8.700000	1	-0.005500
8.716667	1	-0.002875
8.733333	1	0.000000
8.750000	1	0.002625
8.766667	1	0.004750
8.783333	1	0.007000
8.800000	1	0.008875
8.816667	1	0.010500
8.833333	1	0.012375
8.850000	1	0.013500
8.866667	1	0.014750
8.883333	1	0.015750
8.900000	1	0.017125
8.916667	1	0.018125
8.933333	1	0.018750
8.950000	1	0.019625
8.966667	1	0.019875
8.983333	1	0.019875
9.000000	1	0.020125
9.016667	1	0.020000
9.033333	1	0.020625
9.050000	1	0.020125
9.066667	1	0.020125
9.083333	1	0.020000
9.100000	1	0.019625
9.116667	1	0.019500
9.133333	1	0.019250
9.150000	1	0.018750
9.166667	1	0.018625
9.183333	1	0.018250
9.200000	1	0.017125
9.216667	1	0.016750
9.233333	1	0.016000
9.250000	1	0.015625
9.266667	1	0.015375
9.283333	1	0.013875
9.300000	1	0.012750
9.316667	1	0.012125
9.333333	1	0.010375
9.350000	1	0.008625
9.366667	1	0.007250
9.383333	1	0.005750
9.400000	1	0.004000
9.416667	1	0.001875
9.433333	1	0.000000
9.450000	1	-0.001500
9.466667	1	-0.004250
9.483333	1	-0.007125
9.500000	1	-0.009500
9.516667	1	-0.012000
9.533333	1	-0.014625
9.550000	1	-0.017750
9.566667	1	-0.021250
9.583333	1	-0.024500
9.600000	1	-0.027750
9.616667	1	-0.031125
9.633333	1	-0.035000
9.650000	1	-0.038375
9.666667	1	-0.043125
9.683333	1	-0.047125
9.700000	1	-0.050750
9.716667	1	-0.054500
9.733333	1	-0.058375
9.750000	1	-0.061625
9.766667	1	-0.065250
9.783333	1	-0.069375
9.800000	1	-0.072750
9.816667	1	-0.077125
9.833333	1	-0.080625
9.850000	1	-0.084250
9.866667	1	-0.087625
9.883333	1	-0.089875
9.900000	1	-0.093250
9.916667	1	-0.095625
9.933333	1	-0.097750
9.950000	1	-0.099625
9.966667	1	-0.100000
9.983333	1	-0.101000
10.000000	1	-0.101375
10.016667	1	-0.100500
10.033333	1	-0.098625
10.050000	1	-0.095625
10.066667	1	-0.091125
10.083333	1	-0.086250
10.100000	1	-0.079125
10.116667	1	-0.072125
10.133333	1	-0.063375
10.150000	1	-0.053375
10.166667	1	-0.042375
10.183333	1	-0.030625
10.200000	1	-0.017750
10.216667	1	-0.003375
10.233333	1	0.011000
10.250000	1	0.026875
10.266667	1	0.044375
10.283333	1	0.062625
10.300000	1	0.082250
10.316667	1	0.103375
10.333333	1	0.124750
10.350000	1	0.144375
10.366667	1	0.160875
10.383333	1	0.171750
10.400000	1	0.171625
10.416667	1	0.157500
10.433333	1	0.126250
10.450000	1	0.079500
10.466667	1	0.024125
10.483333	1	-0.023125
10.500000	1	-0.037000
10.516667	1	0.019000
10.533333	1	0.192250
10.550000	1	0.536750
10.566667	1	1.113000
10.583333	1	1.978625
10.600000	1	3.191000
10.616667	1	4.797625
10.633333	1	6.834500
10.650000	1	9.325750
10.666667	1	12.290750
10.683333	1	15.734000
10.700000	1	19.649125
10.716667	1	24.019250
10.733333	1	28.818000
10.750000	1	34.007125
10.766667	1	39.537250
10.783333	1	45.348000
10.800000	1	51.365375
10.816667	1	57.485500
10.833333	1	63.557250
10.850000	1	69.372000
10.866667	1	74.625250
10.883333	1	78.894125
10.900000	1	81.639750
10.916667	1	82.291375
10.933333	1	80.406250
10.950000	1	75.869875
10.966667	1	69.016750
10.983333	1	60.568125
11.000000	1	51.435875
11.016667	1	42.482375
11.033333	1	34.333875
11.050000	1	27.313375
11.066667	1	21.502875
11.083333	1	16.840125
11.100000	1	13.182250
11.116667	1	10.363500
11.133333	1	8.218875
11.150000	1	6.601625
11.166667	1	5.388500
11.183333	1	4.479250
11.200000	1	3.796500
11.216667	1	3.280625
11.233333	1	2.887625
11.250000	1	2.584125
11.266667	1	2.347875
11.283333	1	2.160000
11.300000	1	2.008250
11.316667	1	1.882625
11.333333	1	1.777250
11.350000	1	1.686125
11.366667	1	1.606500
11.383333	1	1.536000
11.400000	1	1.472875
11.416667	1	1.416375
11.433333	1	1.365875
11.450000	1	1.320750
11.466667	1	1.280500
11.483333	1	1.245625
11.500000	1	1.215375
11.516667	1	1.190250
11.533333	1	1.169875
11.550000	1	1.153250
11.566667	1	1.141625
11.583333	1	1.134750
11.600000	1	1.132000
11.616667	1	1.134500
11.633333	1	1.141750
11.650000	1	1.152625
11.666667	1	1.169250
11.683333	1	1.189375
11.700000	1	1.213000
11.716667	1	1.238500
11.733333	1	1.265000
11.750000	1	1.291875
11.766667	1	1.317000
11.783333	1	1.338625
11.800000	1	1.356375
11.816667	1	1.368750
11.833333	1	1.375500
11.850000	1	1.375875
11.866667	1	1.370875
11.883333	1	1.360500
11.900000	1	1.345250
11.916667	1	1.326125
11.933333	1	1.304375
11.950000	1	1.281500
11.966667	1	1.258250
11.983333	1	1.235250
12.000000	1	1.213375
12.016667	1	1.193250
12.033333	1	1.174500
12.050000	1	1.157500
12.066667	1	1.143250
12.083333	1	1.130250
12.100000	1	1.119125
12.116667	1	1.109750
12.133333	1	1.102375
12.150000	1	1.096000
12.166667	1	1.091500
12.183333	1	1.087625
12.200000	1	1.085625
12.216667	1	1.085625
12.233333	1	1.086375
12.250000	1	1.089750
12.266667	1	1.097000
12.283333	1	1.109125
12.300000	1	1.128625
12.316667	1	1.156750
12.333333	1	1.200250
12.350000	1	1.263750
12.366667	1	1.356000
12.383333	1	1.487875
12.400000	1	1.674250
12.416667	1	1.934125
12.433333	1	2.294000
12.450000	1	2.784250
12.466667	1	3.445875
12.483333	1	4.327375
12.500000	1	5.484250
12.516667	1	6.982625
12.533333	1	8.889500
12.550000	1	11.276625
12.566667	1	14.213125
12.583333	1	17.758750
12.600000	1	21.950250
12.616667	1	26.789375
12.633333	1	32.250750
12.650000	1	38.259875
12.666667	1	44.691375
12.683333	1	51.360000
12.700000	1	58.032625
12.716667	1	64.437750
12.733333	1	70.287625
12.750000	1	75.302125
12.766667	1	79.234875
12.783333	1	81.894875
12.800000	1	83.171250
12.816667	1	83.044125
12.833333	1	81.579000
12.850000	1	78.918000
12.866667	1	75.271625
12.883333	1	70.895625
12.900000	1	66.065375
12.916667	1	61.050750
12.933333	1	56.095250
12.950000	1	51.397000
12.966667	1	47.099000
12.983333	1	43.298875
13.000000	1	40.046000
13.016667	1	37.351500
13.033333	1	35.193625
13.050000	1	33.533875
13.066667	1	32.321375
13.083333	1	31.500750
13.100000	1	31.018250
13.116667	1	30.822375
13.133333	1	30.864750
13.150000	1	31.106875
13.166667	1	31.510750
13.183333	1	32.048125
13.200000	1	32.695000
13.216667	1	33.432000
13.233333	1	34.244875
13.250000	1	35.122250
13.266667	1	36.054750
13.283333	1	37.035000
13.300000	1	38.058625
13.316667	1	39.119625
13.333333	1	40.216000
13.350000	1	41.345625
13.366667	1	42.506875
13.383333	1	43.698625
13.400000	1	44.918500
13.416667	1	46.167250
13.433333	1	47.446250
13.450000	1	48.755250
13.466667	1	50.095000
13.483333	1	51.466000
13.500000	1	52.868000
13.516667	1	54.300875
13.533333	1	55.765000
13.550000	1	57.260250
13.566667	1	58.786250
13.583333	1	60.343875
13.600000	1	61.931875
13.616667	1	63.552500
13.633333	1	65.206125
13.650000	1	66.896125
13.666667	1	68.622125
13.683333	1	70.384875
13.700000	1	72.184750
13.716667	1	74.020875
13.733333	1	75.889875
13.750000	1	77.782625
13.766667	1	79.651250
13.783333	1	81.379750
13.800000	1	82.772750
13.816667	1	83.601625
13.833333	1	83.668875
13.850000	1	82.843875
13.866667	1	81.031750
13.883333	1	78.097375
13.900000	1	73.839250
13.916667	1	68.065250
13.933333	1	60.787250
13.950000	1	52.383000
13.966667	1	43.588625
13.983333	1	35.244000
14.000000	1	27.971250
14.016667	1	22.025625
14.033333	1	17.364250
14.050000	1	13.796875
14.066667	1	11.103375
14.083333	1	9.088375
14.100000	1	7.593125
14.116667	1	6.491625
14.133333	1	5.680625
14.150000	1	5.082000
14.166667	1	4.635500
14.183333	1	4.297125
14.200000	1	4.036125
14.216667	1	3.830125
14.233333	1	3.662875
14.250000	1	3.524375
14.266667	1	3.406625
14.283333	1	3.304000
14.300000	1	3.214500
14.316667	1	3.134375
14.333333	1	3.062125
14.350000	1	2.995625
14.366667	1	2.934375
14.383333	1	2.878375
14.400000	1	2.826500
14.416667	1	2.777625
14.433333	1	2.732375
14.450000	1	2.690375
14.466667	1	2.650875
14.483333	1	2.614875
14.500000	1	2.581000
14.516667	1	2.549250
14.533333	1	2.518375
14.550000	1	2.489000
14.566667	1	2.461125
14.583333	1	2.434125
14.600000	1	2.407750
14.616667	1	2.381750
14.633333	1	2.356375
14.650000	1	2.330625
14.666667	1	2.303750
14.683333	1	2.277000
14.700000	1	2.249125
14.716667	1	2.221500
14.733333	1	2.193000
14.750000	1	2.164500
14.766667	1	2.135875
14.783333	1	2.107875
14.800000	1	2.079500
14.816667	1	2.050750
14.833333	1	2.023125
14.850000	1	1.996375
14.866667	1	1.970125
14.883333	1	1.943625
14.900000	1	1.918000
14.916667	1	1.891875
14.933333	1	1.866375
14.950000	1	1.842625
14.966667	1	1.818500
14.983333	1	1.795500
15.000000	1	1.772625
15.016667	1	1.750500
15.033333	1	1.728500
15.050000	1	1.706750
15.066667	1	1.686375
15.083333	1	1.665625
15.100000	1	1.646000
15.116667	1	1.627125
15.133333	1	1.608875
15.150000	1	1.591875
15.166667	1	1.575750
15.183333	1	1.560250
15.200000	1	1.545625
15.216667	1	1.532250
15.233333	1	1.521250
15.250000	1	1.511125
15.266667	1	1.502875
15.283333	1	1.496625
15.300000	1	1.492375
15.316667	1	1.490625
15.333333	1	1.491875
15.350000	1	1.496125
15.366667	1	1.504625
15.383333	1	1.516875
15.400000	1	1.532125
15.416667	1	1.552375
15.433333	1	1.576000
15.450000	1	1.602875
15.466667	1	1.632875
15.483333	1	1.664500
15.500000	1	1.696500
15.516667	1	1.727500
15.533333	1	1.755375
15.550000	1	1.779125
15.566667	1	1.797125
15.583333	1	1.808625
15.600000	1	1.811875
15.616667	1	1.807250
15.633333	1	1.794625
15.650000	1	1.774250
15.666667	1	1.747250
15.683333	1	1.715625
15.700000	1	1.679625
15.716667	1	1.641500
15.733333	1	1.602000
15.750000	1	1.562750
15.766667	1	1.524875
15.783333	1	1.488000
15.800000	1	1.452250
15.816667	1	1.417875
15.833333	1	1.385750
15.850000	1	1.354500
15.866667	1	1.324625
15.883333	1	1.295875
15.900000	1	1.268125
15.916667	1	1.241750
15.933333	1	1.216000
15.950000	1	1.191250
15.966667	1	1.169500
15.983333	1	1.149250
16.000000	1	1.130625
16.016667	1	1.114250
16.033333	1	1.099875
16.050000	1	1.087500
16.066667	1	1.077125
16.083333	1	1.069375
16.100000	1	1.063500
16.116667	1	1.058750
16.133333	1	1.056000
16.150000	1	1.054250
16.166667	1	1.054000
16.183333	1	1.054250
16.200000	1	1.055250
16.216667	1	1.055750
16.233333	1	1.055875
16.250000	1	1.056250
16.266667	1	1.056250
16.283333	1	1.056250
16.300000	1	1.054625
16.316667	1	1.052625
16.333333	1	1.049875
16.350000	1	1.046750
16.366667	1	1.042875
16.383333	1	1.039000
16.400000	1	1.034250
16.416667	1	1.030125
16.433333	1	1.026000
16.450000	1	1.022875
16.466667	1	1.019250
16.483333	1	1.016750
16.500000	1	1.015625
16.516667	1	1.016000
16.533333	1	1.017750
16.550000	1	1.021125
16.566667	1	1.025625
16.583333	1	1.032125
16.600000	1	1.039750
16.616667	1	1.048375
16.633333	1	1.057500
16.650000	1	1.065875
16.666667	1	1.074750
16.683333	1	1.083375
16.700000	1	1.091875
16.716667	1	1.098875
16.733333	1	1.104250
16.750000	1	1.109375
16.766667	1	1.113750
16.783333	1	1.116750
16.800000	1	1.120250
16.816667	1	1.122500
16.833333	1	1.125250
16.850000	1	1.128250
16.866667	1	1.131500
16.883333	1	1.134000
16.900000	1	1.137250
16.916667	1	1.140500
16.933333	1	1.143500
16.950000	1	1.145250
16.966667	1	1.146625
16.983333	1	1.148125
17.000000	1	1.147500
17.016667	1	1.146750
17.033333	1	1.145125
17.050000	1	1.142250
17.066667	1	1.138750
17.083333	1	1.134625
17.100000	1	1.129750
17.116667	1	1.126000
17.133333	1	1.122125
17.150000	1	1.118500
17.166667	1	1.115500
17.183333	1	1.113875
17.200000	1	1.112375
17.216667	1	1.111875
17.233333	1	1.112500
17.250000	1	1.113500
17.266667	1	1.115750
17.283333	1	1.118375
17.300000	1	1.121875
17.316667	1	1.126125
17.333333	1	1.130250
17.350000	1	1.134500
17.366667	1	1.139000
17.383333	1	1.144125
17.400000	1	1.148625
17.416667	1	1.152500
17.433333	1	1.156250
17.450000	1	1.159375
17.466667	1	1.160500
17.483333	1	1.160375
17.500000	1	1.158750
17.516667	1	1.156000
17.533333	1	1.150500
17.550000	1	1.144375
17.566667	1	1.136250
17.583333	1	1.126875
17.600000	1	1.115625
17.616667	1	1.102875
17.633333	1	1.088875
17.650000	1	1.073375
17.666667	1	1.056750
17.683333	1	1.039250
17.700000	1	1.022125
17.716667	1	1.005125
17.733333	1	0.987875
17.750000	1	0.971375
17.766667	1	0.955000
17.783333	1	0.940125
17.800000	1	0.924875
17.816667	1	0.911000
17.833333	1	0.897250
17.850000	1	0.884125
17.866667	1	0.872125
17.883333	1	0.860625
17.900000	1	0.850375
17.916667	1	0.840375
17.933333	1	0.830875
17.950000	1	0.822250
17.966667	1	0.814500
17.983333	1	0.807000
18.000000	1	0.800250
18.016667	1	0.794250
18.033333	1	0.788750
18.050000	1	0.783125
18.066667	1	0.778000
18.083333	1	0.772750
18.100000	1	0.767875
18.116667	1	0.763125
18.133333	1	0.757875
18.150000	1	0.753250
18.166667	1	0.748750
18.183333	1	0.745000
18.200000	1	0.741250
18.216667	1	0.737625
18.233333	1	0.734625
18.250000	1	0.732125
18.266667	1	0.730000
18.283333	1	0.728750
18.300000	1	0.727750
18.316667	1	0.728000
18.333333	1	0.728125
18.350000	1	0.728500
18.366667	1	0.729750
18.383333	1	0.731750
18.400000	1	0.734250
18.416667	1	0.738250
18.433333	1	0.742000
18.450000	1	0.746000
18.466667	1	0.750500
18.483333	1	0.756375
18.500000	1	0.763375
18.516667	1	0.771750
18.533333	1	0.781750
18.550000	1	0.794000
18.566667	1	0.807125
18.583333	1	0.822750
18.600000	1	0.839375
18.616667	1	0.858500
18.633333	1	0.879250
18.650000	1	0.902625
18.666667	1	0.927250
18.683333	1	0.954500
18.700000	1	0.983500
18.716667	1	1.013750
18.733333	1	1.045375
18.750000	1	1.078375
18.766667	1	1.112000
18.783333	1	1.146625
18.800000	1	1.180750
18.816667	1	1.214875
18.833333	1	1.247875
18.850000	1	1.279375
18.866667	1	1.308500
18.883333	1	1.334625
18.900000	1	1.357500
18.916667	1	1.375000
18.933333	1	1.388625
18.950000	1	1.396125
18.966667	1	1.398875
18.983333	1	1.394750
19.000000	1	1.383625
19.016667	1	1.367250
19.033333	1	1.343625
19.050000	1	1.314875
19.066667	1	1.279750
19.083333	1	1.240625
19.100000	1	1.197000
19.116667	1	1.150375
19.133333	1	1.101625
19.150000	1	1.052000
19.166667	1	1.003125
19.183333	1	0.954750
19.200000	1	0.908375
19.216667	1	0.864875
19.233333	1	0.824125
19.250000	1	0.786875
19.266667	1	0.755250
19.283333	1	0.728250
19.300000	1	0.705500
19.316667	1	0.688875
19.333333	1	0.676875
19.350000	1	0.670250
19.366667	1	0.668375
19.383333	1	0.672250
19.400000	1	0.679750
19.416667	1	0.692250
19.433333	1	0.708875
19.450000	1	0.730750
19.466667	1	0.755750
19.483333	1	0.784375
19.500000	1	0.815375
19.516667	1	0.848000
19.533333	1	0.882500
19.550000	1	0.917375
19.566667	1	0.953500
19.583333	1	0.987625
19.600000	1	1.020000
19.616667	1	1.049625
19.633333	1	1.074875
19.650000	1	1.095750
19.666667	1	1.111500
19.683333	1	1.122000
19.700000	1	1.127375
19.716667	1	1.126875
19.733333	1	1.120250
19.750000	1	1.109000
19.766667	1	1.092000
19.783333	1	1.071250
19.800000	1	1.045500
19.816667	1	1.017375
19.833333	1	0.986125
19.850000	1	0.953750
19.866667	1	0.919875
19.883333	1	0.885750
19.900000	1	0.851375
19.916667	1	0.818875
19.933333	1	0.786375
19.950000	1	0.756125
19.966667	1	0.727000
19.983333	1	0.699500
20.000000	1	0.674875
20.016667	1	0.652500
20.033333	1	0.632375
20.050000	1	0.614500
20.066667	1	0.599875
20.083333	1	0.587875
20.100000	1	0.578500
20.116667	1	0.571625
20.133333	1	0.567500
20.150000	1	0.566000
20.166667	1	0.567000
20.183333	1	0.570500
20.200000	1	0.575625
20.216667	1	0.583000
20.233333	1	0.592250
20.250000	1	0.602500
20.266667	1	0.613625
20.283333	1	0.625375
20.300000	1	0.637125
20.316667	1	0.648750
20.333333	1	0.659125
20.350000	1	0.668500
20.366667	1	0.675875
20.383333	1	0.681750
20.400000	1	0.685875
20.416667	1	0.686875
20.433333	1	0.685750
20.450000	1	0.683125
20.466667	1	0.679375
20.483333	1	0.674625
20.500000	1	0.669375
20.516667	1	0.664750
20.533333	1	0.661750
20.550000	1	0.661250
20.566667	1	0.663875
20.583333	1	0.671125
20.600000	1	0.683250
20.616667	1	0.700875
20.633333	1	0.724875
20.650000	1	0.756000
20.666667	1	0.794250
20.683333	1	0.839625
20.700000	1	0.891875
20.716667	1	0.950375
20.733333	1	1.014250
20.750000	1	1.081625
20.766667	1	1.153000
20.783333	1	1.224500
20.800000	1	1.295375
20.816667	1	1.362500
20.833333	1	1.425125
20.850000	1	1.480750
20.866667	1	1.527750
20.883333	1	1.563250
20.900000	1	1.586625
20.916667	1	1.596500
20.933333	1	1.593000
20.950000	1	1.575625
20.966667	1	1.544875
20.983333	1	1.502875
21.000000	1	1.451125
21.016667	1	1.390500
21.033333	1	1.322250
21.050000	1	1.249250
21.066667	1	1.174750
21.083333	1	1.099250
21.100000	1	1.024500
21.116667	1	0.952500
21.133333	1	0.884250
21.150000	1	0.820125
21.166667	1	0.760625
21.183333	1	0.706500
21.200000	1	0.658125
21.216667	1	0.615750
21.233333	1	0.577750
21.250000	1	0.544625
21.266667	1	0.516500
21.283333	1	0.492625
21.300000	1	0.472125
21.316667	1	0.454875
21.333333	1	0.440250
21.350000	1	0.428125
21.366667	1	0.418125
21.383333	1	0.410250
21.400000	1	0.403875
21.416667	1	0.398375
21.433333	1	0.393750
21.450000	1	0.389875
21.466667	1	0.386750
21.483333	1	0.384125
21.500000	1	0.382750
21.516667	1	0.382250
21.533333	1	0.382375
21.550000	1	0.382750
21.566667	1	0.383875
21.583333	1	0.385500
21.600000	1	0.388875
21.616667	1	0.392750
21.633333	1	0.396750
21.650000	1	0.403000
21.666667	1	0.410250
21.683333	1	0.419000
21.700000	1	0.428625
21.716667	1	0.439875
21.733333	1	0.452500
21.750000	1	0.466375
21.766667	1	0.482250
21.783333	1	0.498875
21.800000	1	0.517125
21.816667	1	0.536875
21.833333	1	0.557500
21.850000	1	0.579250
21.866667	1	0.602000
21.883333	1	0.625125
21.900000	1	0.648375
21.916667	1	0.672875
21.933333	1	0.695750
21.950000	1	0.719250
21.966667	1	0.741000
21.983333	1	0.761125
22.000000	1	0.780250
22.016667	1	0.797500
22.033333	1	0.812000
22.050000	1	0.823750
22.066667	1	0.832750
22.083333	1	0.838000
22.100000	1	0.840500
22.116667	1	0.840125
22.133333	1	0.836375
22.150000	1	0.829375
22.166667	1	0.819125
22.183333	1	0.806000
22.200000	1	0.790375
22.216667	1	0.772625
22.233333	1	0.752625
22.250000	1	0.731500
22.266667	1	0.709375
22.283333	1	0.685500
22.300000	1	0.661375
22.316667	1	0.636875
22.333333	1	0.611875
22.350000	1	0.587500
22.366667	1	0.563125
22.383333	1	0.538875
22.400000	1	0.515125
22.416667	1	0.491750
22.433333	1	0.469125
22.450000	1	0.448250
22.466667	1	0.429000
22.483333	1	0.409750
22.500000	1	0.392500
22.516667	1	0.376250
22.533333	1	0.361625
22.550000	1	0.347875
22.566667	1	0.335000
22.583333	1	0.323125
22.600000	1	0.312500
22.616667	1	0.302625
22.633333	1	0.293625
22.650000	1	0.286250
22.666667	1	0.279125
22.683333	1	0.272875
22.700000	1	0.267750
22.716667	1	0.262750
22.733333	1	0.258000
22.750000	1	0.254125
22.766667	1	0.250000
22.783333	1	0.246750
22.800000	1	0.243000
22.816667	1	0.239875
22.833333	1	0.237750
22.850000	1	0.235250
22.866667	1	0.233125
22.883333	1	0.231125
22.900000	1	0.229375
22.916667	1	0.228500
22.933333	1	0.227625
22.950000	1	0.226875
22.966667	1	0.226125
22.983333	1	0.225750
23.000000	1	0.226125
23.016667	1	0.226375
23.033333	1	0.226500
23.050000	1	0.226750
23.066667	1	0.227750
23.083333	1	0.229500
23.100000	1	0.231250
23.116667	1	0.232625
23.133333	1	0.234000
23.150000	1	0.236000
23.166667	1	0.237750
23.183333	1	0.240500
23.200000	1	0.242750
23.216667	1	0.245250
23.233333	1	0.248875
23.250000	1	0.252750
23.266667	1	0.257625
23.283333	1	0.263125
23.300000	1	0.269500
23.316667	1	0.278500
23.333333	1	0.289875
23.350000	1	0.303875
23.366667	1	0.320125
23.383333	1	0.341000
23.400000	1	0.367000
23.416667	1	0.397250
23.433333	1	0.433875
23.450000	1	0.477250
23.466667	1	0.527500
23.483333	1	0.586500
23.500000	1	0.655250
23.516667	1	0.734125
23.533333	1	0.824875
23.550000	1	0.927375
23.566667	1	1.041875
23.583333	1	1.169500
23.600000	1	1.310500
23.616667	1	1.465750
23.633333	1	1.634750
23.650000	1	1.816250
23.666667	1	2.010500
23.683333	1	2.216125
23.700000	1	2.431625
23.716667	1	2.654500
23.733333	1	2.883500
23.750000	1	3.114625
23.766667	1	3.343375
23.783333	1	3.567375
23.800000	1	3.781375
23.816667	1	3.981250
23.833333	1	4.162875
23.850000	1	4.322250
23.866667	1	4.455875
23.883333	1	4.559750
23.900000	1	4.632625
23.916667	1	4.671625
23.933333	1	4.677375
23.950000	1	4.648000
23.966667	1	4.584000
23.983333	1	4.488750
24.000000	1	4.363750
24.016667	1	4.213250
24.033333	1	4.041125
24.050000	1	3.850250
24.066667	1	3.645500
24.083333	1	3.431000
24.100000	1	3.210500
24.116667	1	2.987875
24.133333	1	2.765750
24.150000	1	2.548500
24.166667	1	2.339125
24.183333	1	2.139125
24.200000	1	1.949875
24.216667	1	1.773750
24.233333	1	1.610500
24.250000	1	1.460500
24.266667	1	1.324375
24.283333	1	1.200750
24.300000	1	1.090000
24.316667	1	0.990875
24.333333	1	0.902375
24.350000	1	0.825375
24.366667	1	0.756750
24.383333	1	0.697625
24.400000	1	0.647625
24.416667	1	0.604000
24.433333	1	0.566750
24.450000	1	0.535250
24.466667	1	0.508750
24.483333	1	0.486500
24.500000	1	0.468125
24.516667	1	0.452875
24.533333	1	0.440500
24.550000	1	0.429500
24.566667	1	0.420875
24.583333	1	0.413500
24.600000	1	0.406750
24.616667	1	0.400750
24.633333	1	0.395750
24.650000	1	0.391500
24.666667	1	0.385875
24.683333	1	0.381500
24.700000	1	0.376500
24.716667	1	0.372125
24.733333	1	0.367500
24.750000	1	0.362625
24.766667	1	0.357875
24.783333	1	0.352750
24.800000	1	0.348250
24.816667	1	0.343500
24.833333	1	0.338500
24.850000	1	0.333625
24.866667	1	0.329375
24.883333	1	0.325375
24.900000	1	0.321000
24.916667	1	0.316875
24.933333	1	0.312875
24.950000	1	0.309500
24.966667	1	0.306000
24.983333	1	0.302250
25.000000	1	0.298375
25.016667	1	0.294875
25.033333	1	0.291375
25.050000	1	0.287125
25.066667	1	0.283750
25.083333	1	0.280750
25.100000	1	0.277875
25.116667	1	0.275125
25.133333	1	0.272000
25.150000	1	0.268875
25.166667	1	0.265500
25.183333	1	0.262500
25.200000	1	0.259125
25.216667	1	0.255875
25.233333	1	0.252375
25.250000	1	0.249000
25.266667	1	0.246250
25.283333	1	0.243000
25.300000	1	0.240375
25.316667	1	0.237250
25.333333	1	0.233625
25.350000	1	0.230125
25.366667	1	0.226625
25.383333	1	0.223375
25.400000	1	0.220750
25.416667	1	0.217500
25.433333	1	0.214875
25.450000	1	0.212250
25.466667	1	0.210000
25.483333	1	0.208125
25.500000	1	0.206125
25.516667	1	0.204125
25.533333	1	0.202250
25.550000	1	0.200375
25.566667	1	0.199125
25.583333	1	0.198000
25.600000	1	0.196875
25.616667	1	0.196125
25.633333	1	0.194750
25.650000	1	0.194750
25.666667	1	0.193750
25.683333	1	0.193250
25.700000	1	0.193000
25.716667	1	0.194000
25.733333	1	0.194250
25.750000	1	0.194500
25.766667	1	0.194625
25.783333	1	0.195875
25.800000	1	0.197125
25.816667	1	0.198875
25.833333	1	0.201000
25.850000	1	0.203375
25.866667	1	0.205875
25.883333	1	0.209000
25.900000	1	0.212375
25.916667	1	0.216500
25.933333	1	0.220375
25.950000	1	0.224375
25.966667	1	0.229000
25.983333	1	0.234750
26.000000	1	0.239625
26.016667	1	0.244875
26.033333	1	0.250375
26.050000	1	0.256000
26.066667	1	0.261875
26.083333	1	0.267875
26.100000	1	0.273375
26.116667	1	0.279250
26.133333	1	0.284875
26.150000	1	0.290875
26.166667	1	0.295375
26.183333	1	0.299875
26.200000	1	0.303250
26.216667	1	0.307000
26.233333	1	0.310125
26.250000	1	0.312375
26.266667	1	0.314625
26.283333	1	0.315125
26.300000	1	0.315125
26.316667	1	0.314750
26.333333	1	0.314250
26.350000	1	0.312875
26.366667	1	0.310750
26.383333	1	0.308500
26.400000	1	0.305250
26.416667	1	0.301000
26.433333	1	0.297000
26.450000	1	0.292875
26.466667	1	0.288000
26.483333	1	0.283125
26.500000	1	0.277625
26.516667	1	0.272125
26.533333	1	0.266500
26.550000	1	0.260625
26.566667	1	0.254375
26.583333	1	0.248750
26.600000	1	0.242875
26.616667	1	0.236750
26.633333	1	0.230375
26.650000	1	0.225500
26.666667	1	0.220500
26.683333	1	0.215875
26.700000	1	0.210625
26.716667	1	0.205750
26.733333	1	0.200875
26.750000	1	0.196875
26.766667	1	0.192875
26.783333	1	0.189375
26.800000	1	0.186000
26.816667	1	0.182875
26.833333	1	0.180500
26.850000	1	0.178000
26.866667	1	0.176000
26.883333	1	0.173875
26.900000	1	0.172250
26.916667	1	0.171500
26.933333	1	0.170625
26.950000	1	0.170750
26.966667	1	0.170750
26.983333	1	0.171625
27.000000	1	0.172875
27.016667	1	0.174625
27.033333	1	0.176250
27.050000	1	0.179375
27.066667	1	0.183375
27.083333	1	0.188375
27.100000	1	0.194500
27.116667	1	0.202125
27.133333	1	0.209625
27.150000	1	0.219250
27.166667	1	0.230375
27.183333	1	0.243500
27.200000	1	0.259375
27.216667	1	0.276875
27.233333	1	0.296875
27.250000	1	0.320125
27.266667	1	0.347500
27.283333	1	0.378125
27.300000	1	0.412500
27.316667	1	0.451375
27.333333	1	0.495125
27.350000	1	0.544875
27.366667	1	0.599875
27.383333	1	0.661500
27.400000	1	0.728750
27.416667	1	0.803500
27.433333	1	0.885375
27.450000	1	0.975375
27.466667	1	1.073000
27.483333	1	1.179125
27.500000	1	1.293500
27.516667	1	1.415750
27.533333	1	1.545875
27.550000	1	1.683875
27.566667	1	1.829125
27.583333	1	1.981125
27.600000	1	2.138500
27.616667	1	2.300625
27.633333	1	2.466500
27.650000	1	2.634625
27.666667	1	2.802500
27.683333	1	2.968750
27.700000	1	3.131125
27.716667	1	3.287375
27.733333	1	3.436500
27.750000	1	3.574500
27.766667	1	3.700500
27.783333	1	3.810750
27.800000	1	3.904750
27.816667	1	3.980500
27.833333	1	4.036125
27.850000	1	4.070875
27.866667	1	4.082125
27.883333	1	4.070375
27.900000	1	4.035500
27.916667	1	3.978125
27.933333	1	3.898875
27.950000	1	3.799375
27.966667	1	3.681375
27.983333	1	3.547000
28.000000	1	3.398250
28.016667	1	3.237250
28.033333	1	3.067000
28.050000	1	2.889875
28.066667	1	2.708375
28.083333	1	2.526500
28.100000	1	2.345250
28.116667	1	2.166625
28.133333	1	1.993875
28.150000	1	1.827875
28.166667	1	1.670750
28.183333	1	1.522625
28.200000	1	1.384875
28.216667	1	1.258000
28.233333	1	1.140875
28.250000	1	1.034375
28.266667	1	0.938375
28.283333	1	0.852750
28.300000	1	0.777375
28.316667	1	0.710625
28.333333	1	0.652750
28.350000	1	0.603250
28.366667	1	0.561000
28.383333	1	0.525000
28.400000	1	0.495125
28.416667	1	0.471125
28.433333	1	0.452250
28.450000	1	0.437375
28.466667	1	0.426375
28.483333	1	0.418750
28.500000	1	0.414000
28.516667	1	0.412500
28.533333	1	0.413250
28.550000	1	0.415625
28.566667	1	0.420000
28.583333	1	0.424750
28.600000	1	0.431625
28.616667	1	0.438875
28.633333	1	0.446750
28.650000	1	0.454875
28.666667	1	0.463750
28.683333	1	0.472750
28.700000	1	0.481250
28.716667	1	0.489500
28.733333	1	0.497500
28.750000	1	0.504500
28.766667	1	0.511125
28.783333	1	0.517125
28.800000	1	0.522500
28.816667	1	0.526750
28.833333	1	0.530125
28.850000	1	0.532500
28.866667	1	0.534125
28.883333	1	0.534125
28.900000	1	0.533250
28.916667	1	0.531625
28.933333	1	0.527750
28.950000	1	0.523375
28.966667	1	0.518125
28.983333	1	0.512375
29.000000	1	0.505750
29.016667	1	0.498125
29.033333	1	0.489375
29.050000	1	0.479375
29.066667	1	0.468625
29.083333	1	0.457625
29.100000	1	0.446250
29.116667	1	0.434000
29.133333	1	0.421250
29.150000	1	0.407500
29.166667	1	0.394125
29.183333	1	0.380750
29.200000	1	0.367250
29.216667	1	0.354000
29.233333	1	0.340500
29.250000	1	0.326875
29.266667	1	0.314125
29.283333	1	0.300625
29.300000	1	0.287750
29.316667	1	0.274750
29.333333	1	0.262375
29.350000	1	0.250250
29.366667	1	0.238500
29.383333	1	0.227500
29.400000	1	0.216125
29.416667	1	0.206250
29.433333	1	0.196875
29.450000	1	0.187875
29.466667	1	0.178250
29.483333	1	0.170125
29.500000	1	0.162000
29.516667	1	0.155625
29.533333	1	0.148250
29.550000	1	0.141375
29.566667	1	0.134500
29.583333	1	0.128625
29.600000	1	0.123250
29.616667	1	0.118125
29.633333	1	0.113875
29.650000	1	0.109875
29.666667	1	0.105625
29.683333	1	0.101625
29.700000	1	0.098000
29.716667	1	0.094750
29.733333	1	0.091250
29.750000	1	0.088875
29.766667	1	0.086750
29.783333	1	0.084375
29.800000	1	0.082875
29.816667	1	0.081125
29.833333	1	0.080125
29.850000	1	0.078625
29.866667	1	0.077500
29.883333	1	0.075750
29.900000	1	0.074750
29.916667	1	0.073875
29.933333	1	0.073000
29.950000	1	0.072250
29.966667	1	0.072000
29.983333	1	0.070625
30.000000	1	0.069750
30.016667	1	0.069500
30.033333	1	0.068875
30.050000	1	0.067875
30.066667	1	0.066375
30.083333	1	0.066000
30.100000	1	0.065500
30.116667	1	0.064875
30.133333	1	0.063875
30.150000	1	0.063500
30.166667	1	0.063125
30.183333	1	0.062500
30.200000	1	0.062000
30.216667	1	0.061875
30.233333	1	0.061250
30.250000	1	0.061000
30.266667	1	0.060375
30.283333	1	0.060000
30.300000	1	0.060000
30.316667	1	0.060000
30.333333	1	0.060375
30.350000	1	0.060625
30.366667	1	0.061750
30.383333	1	0.062750
30.400000	1	0.063625
30.416667	1	0.065875
30.433333	1	0.067625
30.450000	1	0.069125
30.466667	1	0.071875
30.483333	1	0.074625
30.500000	1	0.078125
30.516667	1	0.081125
30.533333	1	0.084875
30.550000	1	0.089875
30.566667	1	0.095250
30.583333	1	0.101250
30.600000	1	0.108750
30.616667	1	0.116625
30.633333	1	0.125625
30.650000	1	0.134875
30.666667	1	0.145125
30.683333	1	0.156875
30.700000	1	0.169750
30.716667	1	0.184625
30.733333	1	0.201625
30.750000	1	0.220250
30.766667	1	0.242250
30.783333	1	0.266125
30.800000	1	0.293375
30.816667	1	0.323625
30.833333	1	0.357000
30.850000	1	0.394625
30.866667	1	0.436500
30.883333	1	0.483875
30.900000	1	0.536000
30.916667	1	0.594375
30.933333	1	0.659250
30.950000	1	0.730875
30.966667	1	0.809875
30.983333	1	0.897625
31.000000	1	0.994000
31.016667	1	1.099125
31.033333	1	1.213750
31.050000	1	1.337625
31.066667	1	1.472000
31.083333	1	1.616875
31.100000	1	1.772000
31.116667	1	1.936875
31.133333	1	2.111500
31.150000	1	2.296250
31.166667	1	2.490250
31.183333	1	2.692500
31.200000	1	2.902000
31.216667	1	3.117625
31.233333	1	3.337000
31.250000	1	3.559375
31.266667	1	3.781125
31.283333	1	4.002375
31.300000	1	4.219875
31.316667	1	4.431000
31.333333	1	4.633125
31.350000	1	4.824750
31.366667	1	5.003625
31.383333	1	5.166875
31.400000	1	5.312500
31.416667	1	5.438625
31.433333	1	5.543500
31.450000	1	5.624875
31.466667	1	5.681250
31.483333	1	5.713625
31.500000	1	5.720625
31.516667	1	5.702375
31.533333	1	5.659000
31.550000	1	5.592000
31.566667	1	5.501000
31.583333	1	5.388750
31.600000	1	5.255625
31.616667	1	5.104250
31.633333	1	4.936375
31.650000	1	4.754000
31.666667	1	4.560250
31.683333	1	4.356750
31.700000	1	4.145875
31.716667	1	3.931000
31.733333	1	3.713375
31.750000	1	3.495000
31.766667	1	3.278250
31.783333	1	3.064375
31.800000	1	2.855500
31.816667	1	2.651875
31.833333	1	2.455000
31.850000	1	2.266750
31.866667	1	2.087250
31.883333	1	1.916875
31.900000	1	1.756750
31.916667	1	1.606375
31.933333	1	1.466375
31.950000	1	1.335750
31.966667	1	1.215125
31.983333	1	1.103625
32.000000	1	1.000500
32.016667	1	0.906750
32.033333	1	0.821125
32.050000	1	0.743000
32.066667	1	0.672625
32.083333	1	0.608625
32.100000	1	0.551375
32.116667	1	0.499250
32.133333	1	0.452500
32.150000	1	0.410875
32.166667	1	0.373250
32.183333	1	0.339500
32.200000	1	0.309250
32.216667	1	0.282250
32.233333	1	0.258250
32.250000	1	0.236125
32.266667	1	0.216875
32.283333	1	0.198875
32.300000	1	0.182750
32.316667	1	0.168125
32.333333	1	0.155375
32.350000	1	0.144375
32.366667	1	0.133500
32.383333	1	0.123875
32.400000	1	0.114125
32.416667	1	0.105875
32.433333	1	0.098000
32.450000	1	0.090875
32.466667	1	0.084000
32.483333	1	0.077250
32.500000	1	0.071750
32.516667	1	0.066250
32.533333	1	0.061750
32.550000	1	0.056750
32.566667	1	0.053000
32.583333	1	0.049250
32.600000	1	0.045125
32.616667	1	0.041750
32.633333	1	0.039000
32.650000	1	0.035875
32.666667	1	0.033000
32.683333	1	0.030250
32.700000	1	0.028250
32.716667	1	0.026750
32.733333	1	0.024875
32.750000	1	0.023500
32.766667	1	0.021500
32.783333	1	0.019625
32.800000	1	0.017875
32.816667	1	0.016375
32.833333	1	0.015250
32.850000	1	0.013750
32.866667	1	0.012625
32.883333	1	0.011875
32.900000	1	0.010375
32.916667	1	0.009250
32.933333	1	0.008125
32.950000	1	0.007250
32.966667	1	0.006250
32.983333	1	0.005625
33.000000	1	0.004875
33.016667	1	0.004875
33.033333	1	0.004125
33.050000	1	0.003375
33.066667	1	0.002875
33.083333	1	0.002750
33.100000	1	0.002875
33.116667	1	0.003250
33.133333	1	0.004000
33.150000	1	0.005500
33.166667	1	0.006875
33.183333	1	0.007875
33.200000	1	0.009375
33.216667	1	0.011250
33.233333	1	0.013375
33.250000	1	0.015875
33.266667	1	0.018625
33.283333	1	0.021875
33.300000	1	0.025000
33.316667	1	0.029125
33.333333	1	0.033375
33.350000	1	0.038500
33.366667	1	0.044875
33.383333	1	0.050875
33.400000	1	0.057875
33.416667	1	0.065625
33.433333	1	0.073500
33.450000	1	0.082375
33.466667	1	0.092000
33.483333	1	0.102750
33.500000	1	0.113875
33.516667	1	0.125875
33.533333	1	0.138500
33.550000	1	0.152625
33.566667	1	0.167625
33.583333	1	0.184750
33.600000	1	0.201875
33.616667	1	0.220250
33.633333	1	0.238875
33.650000	1	0.259125
33.666667	1	0.280375
33.683333	1	0.303000
33.700000	1	0.326125
33.716667	1	0.350125
33.733333	1	0.375125
33.750000	1	0.400125
33.766667	1	0.426125
33.783333	1	0.452500
33.800000	1	0.479375
33.816667	1	0.506250
33.833333	1	0.533000
33.850000	1	0.559875
33.866667	1	0.586250
33.883333	1	0.611500
33.900000	1	0.636375
33.916667	1	0.659875
33.933333	1	0.682625
33.950000	1	0.703875
33.966667	1	0.722375
33.983333	1	0.739375
34.000000	1	0.754625
34.016667	1	0.767625
34.033333	1	0.777500
34.050000	1	0.785125
34.066667	1	0.790125
34.083333	1	0.792250
34.100000	1	0.792000
34.116667	1	0.788750
34.133333	1	0.783000
34.150000	1	0.774875
34.166667	1	0.764500
34.183333	1	0.751375
34.200000	1	0.736500
34.216667	1	0.719500
34.233333	1	0.700500
34.250000	1	0.679750
34.266667	1	0.658500
34.283333	1	0.635875
34.300000	1	0.612750
34.316667	1	0.589125
34.333333	1	0.565375
34.350000	1	0.541500
34.366667	1	0.517250
34.383333	1	0.493750
34.400000	1	0.471000
34.416667	1	0.448250
34.433333	1	0.426875
34.450000	1	0.405250
34.466667	1	0.385125
34.483333	1	0.366000
34.500000	1	0.348375
34.516667	1	0.332125
34.533333	1	0.316375
34.550000	1	0.301500
34.566667	1	0.287750
34.583333	1	0.275000
34.600000	1	0.262750
34.616667	1	0.251750
34.633333	1	0.241500
34.650000	1	0.232625
34.666667	1	0.224750
34.683333	1	0.217625
34.700000	1	0.210500
34.716667	1	0.204125
34.733333	1	0.198000
34.750000	1	0.192375
34.766667	1	0.187750
34.783333	1	0.183500
34.800000	1	0.179500
34.816667	1	0.175125
34.833333	1	0.171000
34.850000	1	0.167125
34.866667	1	0.164250
34.883333	1	0.161000
34.900000	1	0.157500
34.916667	1	0.154750
34.933333	1	0.152000
34.950000	1	0.149750
34.966667	1	0.146750
34.983333	1	0.145000
35.000000	1	0.142500
35.016667	1	0.139875
35.033333	1	0.138250
35.050000	1	0.136375
35.066667	1	0.134375
35.083333	1	0.133125
35.100000	1	0.131500
35.116667	1	0.129500
35.133333	1	0.128375
35.150000	1	0.126875
35.166667	1	0.125625
35.183333	1	0.124250
35.200000	1	0.122875
35.216667	1	0.121375
35.233333	1	0.120875
35.250000	1	0.120000
35.266667	1	0.119000
35.283333	1	0.118250
35.300000	1	0.117250
35.316667	1	0.116000
35.333333	1	0.114875
35.350000	1	0.113000
35.366667	1	0.111875
35.383333	1	0.110750
35.400000	1	0.109375
35.416667	1	0.107625
35.433333	1	0.105250
35.450000	1	0.103500
35.466667	1	0.102125
35.483333	1	0.100125
35.500000	1	0.098000
35.516667	1	0.095500
35.533333	1	0.094125
35.550000	1	0.092375
35.566667	1	0.088750
35.583333	1	0.085750
35.600000	1	0.083250
35.616667	1	0.080375
35.633333	1	0.077625
35.650000	1	0.074500
35.666667	1	0.071625
35.683333	1	0.068750
35.700000	1	0.065875
35.716667	1	0.063000
35.733333	1	0.060875
35.750000	1	0.058125
35.766667	1	0.055250
35.783333	1	0.052000
35.800000	1	0.049000
35.816667	1	0.045875
35.833333	1	0.043000
35.850000	1	0.040625
35.866667	1	0.038625
35.883333	1	0.036125
35.900000	1	0.033625
35.916667	1	0.030625
35.933333	1	0.028000
35.950000	1	0.025750
35.966667	1	0.024125
35.983333	1	0.021875
36.000000	1	0.019750
36.016667	1	0.017000
36.033333	1	0.015625
36.050000	1	0.013250
36.066667	1	0.012250
36.083333	1	0.011500
36.100000	1	0.010625
36.116667	1	0.010500
36.133333	1	0.010000
36.150000	1	0.010125
36.166667	1	0.010250
36.183333	1	0.011000
36.200000	1	0.011250
36.216667	1	0.011875
36.233333	1	0.012750
36.250000	1	0.013875
36.266667	1	0.015500
36.283333	1	0.017750
36.300000	1	0.020250
36.316667	1	0.023000
36.333333	1	0.026000
36.350000	1	0.028375
36.366667	1	0.031875
36.383333	1	0.035125
36.400000	1	0.038875
36.416667	1	0.042250
36.433333	1	0.045250
36.450000	1	0.049500
36.466667	1	0.053625
36.483333	1	0.058000
36.500000	1	0.062000
36.516667	1	0.066375
36.533333	1	0.070125
36.550000	1	0.073625
36.566667	1	0.076875
36.583333	1	0.080125
36.600000	1	0.083375
36.616667	1	0.086625
36.633333	1	0.089875
36.650000	1	0.092625
36.666667	1	0.095250
36.683333	1	0.098000
36.700000	1	0.100875
36.716667	1	0.102750
36.733333	1	0.104750
36.750000	1	0.106500
36.766667	1	0.107875
36.783333	1	0.108875
36.800000	1	0.109250
36.816667	1	0.109625
36.833333	1	0.110500
36.850000	1	0.110375
36.866667	1	0.111000
36.883333	1	0.111125
36.900000	1	0.110750
36.916667	1	0.110875
36.933333	1	0.110250
36.950000	1	0.109500
36.966667	1	0.108625
36.983333	1	0.108250
37.000000	1	0.107875
37.016667	1	0.107125
37.033333	1	0.106000
37.050000	1	0.105750
37.066667	1	0.104250
37.083333	1	0.103125
37.100000	1	0.102375
37.116667	1	0.101625
37.133333	1	0.101500
37.150000	1	0.100375
37.166667	1	0.099625
37.183333	1	0.098750
37.200000	1	0.098000
37.216667	1	0.097500
37.233333	1	0.097125
37.250000	1	0.096500
37.266667	1	0.095250
37.283333	1	0.094875
37.300000	1	0.094125
37.316667	1	0.093375
37.333333	1	0.092125
37.350000	1	0.090875
37.366667	1	0.090000
37.383333	1	0.088875
37.400000	1	0.087125
37.416667	1	0.086000
37.433333	1	0.085250
37.450000	1	0.083875
37.466667	1	0.083000
37.483333	1	0.082125
37.500000	1	0.080875
37.516667	1	0.078625
37.533333	1	0.077125
37.550000	1	0.075750
37.566667	1	0.074000
37.583333	1	0.072500
37.600000	1	0.071125
37.616667	1	0.069000
37.633333	1	0.067500
37.650000	1	0.066000
37.666667	1	0.064500
37.683333	1	0.063125
37.700000	1	0.061750
37.716667	1	0.060000
37.733333	1	0.058750
37.750000	1	0.057750
37.766667	1	0.056125
37.783333	1	0.054375
37.800000	1	0.052500
37.816667	1	0.050500
37.833333	1	0.049000
37.850000	1	0.048500
37.866667	1	0.047375
37.883333	1	0.046250
37.900000	1	0.044875
37.916667	1	0.043375
37.933333	1	0.042000
37.950000	1	0.040250
37.966667	1	0.037750
37.983333	1	0.036250
38.000000	1	0.034125
38.016667	1	0.032500
38.033333	1	0.031125
38.050000	1	0.029375
38.066667	1	0.027500
38.083333	1	0.025125
38.100000	1	0.022875
38.116667	1	0.020250
38.133333	1	0.017875
38.150000	1	0.015250
38.166667	1	0.012500
38.183333	1	0.009750
38.200000	1	0.007125
38.216667	1	0.003875
38.233333	1	0.001250
38.250000	1	-0.001375
38.266667	1	-0.004375
38.283333	1	-0.007125
38.300000	1	-0.009875
38.316667	1	-0.012125
38.333333	1	-0.014500
38.350000	1	-0.016750
38.366667	1	-0.018875
38.383333	1	-0.021125
38.400000	1	-0.022875
38.416667	1	-0.025000
38.433333	1	-0.026625
38.450000	1	-0.027750
38.466667	1	-0.029250
38.483333	1	-0.029000
38.500000	1	-0.028750
38.516667	1	-0.028750
38.533333	1	-0.028625
38.550000	1	-0.027750
38.566667	1	-0.026875
38.583333	1	-0.025875
38.600000	1	-0.024500
38.616667	1	-0.022875
38.633333	1	-0.020625
38.650000	1	-0.018625
38.666667	1	-0.016875
38.683333	1	-0.014875
38.700000	1	-0.012000
38.716667	1	-0.010000
38.733333	1	-0.008000
38.750000	1	-0.006375
38.766667	1	-0.004000
38.783333	1	-0.001625
38.800000	1	0.000625
38.816667	1	0.002875
38.833333	1	0.005250
38.850000	1	0.007875
38.866667	1	0.010250
38.883333	1	0.012625
38.900000	1	0.014250
38.916667	1	0.016250
38.933333	1	0.018375
38.950000	1	0.020000
38.966667	1	0.021500
38.983333	1	0.023000
39.000000	1	0.024250
39.016667	1	0.025500
39.033333	1	0.027125
39.050000	1	0.028500
39.066667	1	0.028875
39.083333	1	0.030375
39.100000	1	0.031500
39.116667	1	0.031750
39.133333	1	0.032375
39.150000	1	0.032750
39.166667	1	0.033500
39.183333	1	0.033125
39.200000	1	0.033375
39.216667	1	0.033375
39.233333	1	0.032875
39.250000	1	0.032625
39.266667	1	0.032500
39.283333	1	0.033000
39.300000	1	0.032875
39.316667	1	0.032750
39.333333	1	0.032500
39.350000	1	0.032250
39.366667	1	0.031750
39.383333	1	0.030875
39.400000	1	0.030125
39.416667	1	0.030375
39.433333	1	0.029375
39.450000	1	0.029500
39.466667	1	0.029250
39.483333	1	0.029000
39.500000	1	0.028500
39.516667	1	0.028500
39.533333	1	0.028250
39.550000	1	0.028000
39.566667	1	0.027875
39.583333	1	0.027375
39.600000	1	0.027500
39.616667	1	0.027125
39.633333	1	0.027500
39.650000	1	0.027750
39.666667	1	0.028125
39.683333	1	0.027625
39.700000	1	0.027875
39.716667	1	0.028250
39.733333	1	0.028125
39.750000	1	0.028250
39.766667	1	0.028500
39.783333	1	0.028750
39.800000	1	0.028875
39.816667	1	0.029500
39.833333	1	0.029750
39.850000	1	0.030000
39.866667	1	0.030000
39.883333	1	0.029875
39.900000	1	0.030375
39.916667	1	0.030625
39.933333	1	0.031000
39.950000	1	0.031000
39.966667	1	0.031250
39.983333	1	0.031500
40.000000	1	0.031625
