URL	chrom://bioreactor/micro_cm7/HPLC_Ultimate_3000/Users/markusar/20240708_MA_pHrange1.seq/284.smp/RI_1.channel/RI_1.chm
Channel	RI_1

Injection Information:
Data Vault	micro_cm7
Sequence	20240708_MA_pHrange1
Name	Fp1_5.7_1
Number	59
Position	BF1
Comment	
Processing Method	
Instrument Method	run_25B_method
Type	Unknown
Status	Finished
Inject Time	10.07.2024 07:10:54 +02:00
Volume (µl)	20.0000
Dilution Factor	1.0000
Weight	1.0000

Chromatogram Data Information:
Time Min. (min)	0.000000
Time Max. (min)	40.000000
Data Points	2401
Detector	RI
Generating Data System	Chromeleon 7.3.2.11814
Exporting Data System	Chromeleon 7.3.2.0
Operator	Instrument Controller
Signal Quantity	Refractive 
Signal Unit	µRIU
Signal Min.	-0.101500
Signal Max.	85.086125
Channel	RI_1
Driver Name	RID520Driver.dll
Channel Type	Evaluation
Min. Step (s)	1
Max. Step (s)	1
Average Step (s)	1

Signal Parameter Information:
Signal Info	

Chromatogram Data:
Time (min)	Step (s)	Value (µRIU)
0.000000	n.a.	-0.039250
0.016667	1	-0.039500
0.033333	1	-0.039250
0.050000	1	-0.039500
0.066667	1	-0.038250
0.083333	1	-0.037875
0.100000	1	-0.036750
0.116667	1	-0.036500
0.133333	1	-0.036125
0.150000	1	-0.035000
0.166667	1	-0.033375
0.183333	1	-0.032125
0.200000	1	-0.030625
0.216667	1	-0.030375
0.233333	1	-0.029250
0.250000	1	-0.028500
0.266667	1	-0.026625
0.283333	1	-0.026125
0.300000	1	-0.025000
0.316667	1	-0.023750
0.333333	1	-0.022500
0.350000	1	-0.022000
0.366667	1	-0.021500
0.383333	1	-0.021250
0.400000	1	-0.021250
0.416667	1	-0.020750
0.433333	1	-0.019125
0.450000	1	-0.017375
0.466667	1	-0.015125
0.483333	1	-0.013000
0.500000	1	-0.011875
0.516667	1	-0.010625
0.533333	1	-0.009875
0.550000	1	-0.009375
0.566667	1	-0.010500
0.583333	1	-0.011500
0.600000	1	-0.013375
0.616667	1	-0.015875
0.633333	1	-0.018250
0.650000	1	-0.019625
0.666667	1	-0.021125
0.683333	1	-0.022250
0.700000	1	-0.023250
0.716667	1	-0.023500
0.733333	1	-0.024000
0.750000	1	-0.024625
0.766667	1	-0.025375
0.783333	1	-0.026375
0.800000	1	-0.026750
0.816667	1	-0.027750
0.833333	1	-0.028000
0.850000	1	-0.028375
0.866667	1	-0.028875
0.883333	1	-0.029750
0.900000	1	-0.030750
0.916667	1	-0.032125
0.933333	1	-0.033375
0.950000	1	-0.033375
0.966667	1	-0.034250
0.983333	1	-0.034750
1.000000	1	-0.035500
1.016667	1	-0.036375
1.033333	1	-0.036875
1.050000	1	-0.037750
1.066667	1	-0.038375
1.083333	1	-0.038250
1.100000	1	-0.039125
1.116667	1	-0.040250
1.133333	1	-0.040625
1.150000	1	-0.041125
1.166667	1	-0.041125
1.183333	1	-0.041500
1.200000	1	-0.041750
1.216667	1	-0.041000
1.233333	1	-0.041250
1.250000	1	-0.040375
1.266667	1	-0.040250
1.283333	1	-0.040500
1.300000	1	-0.039750
1.316667	1	-0.039125
1.333333	1	-0.038250
1.350000	1	-0.037625
1.366667	1	-0.036375
1.383333	1	-0.034875
1.400000	1	-0.032875
1.416667	1	-0.032250
1.433333	1	-0.030500
1.450000	1	-0.028875
1.466667	1	-0.027250
1.483333	1	-0.026250
1.500000	1	-0.025125
1.516667	1	-0.023375
1.533333	1	-0.022625
1.550000	1	-0.021750
1.566667	1	-0.020500
1.583333	1	-0.018875
1.600000	1	-0.017625
1.616667	1	-0.016500
1.633333	1	-0.015375
1.650000	1	-0.015000
1.666667	1	-0.014250
1.683333	1	-0.013125
1.700000	1	-0.012250
1.716667	1	-0.011875
1.733333	1	-0.011250
1.750000	1	-0.010250
1.766667	1	-0.009750
1.783333	1	-0.009625
1.800000	1	-0.009250
1.816667	1	-0.008750
1.833333	1	-0.008500
1.850000	1	-0.008250
1.866667	1	-0.008625
1.883333	1	-0.008500
1.900000	1	-0.008625
1.916667	1	-0.008750
1.933333	1	-0.009125
1.950000	1	-0.008750
1.966667	1	-0.008750
1.983333	1	-0.008875
2.000000	1	-0.008500
2.016667	1	-0.008750
2.033333	1	-0.009750
2.050000	1	-0.010125
2.066667	1	-0.010125
2.083333	1	-0.010625
2.100000	1	-0.011250
2.116667	1	-0.011750
2.133333	1	-0.012500
2.150000	1	-0.012875
2.166667	1	-0.013375
2.183333	1	-0.014750
2.200000	1	-0.015750
2.216667	1	-0.016375
2.233333	1	-0.016375
2.250000	1	-0.017375
2.266667	1	-0.018125
2.283333	1	-0.019250
2.300000	1	-0.020250
2.316667	1	-0.021125
2.333333	1	-0.021875
2.350000	1	-0.023375
2.366667	1	-0.024875
2.383333	1	-0.025875
2.400000	1	-0.026750
2.416667	1	-0.027750
2.433333	1	-0.029250
2.450000	1	-0.029500
2.466667	1	-0.029875
2.483333	1	-0.030375
2.500000	1	-0.031250
2.516667	1	-0.032125
2.533333	1	-0.033125
2.550000	1	-0.033750
2.566667	1	-0.033875
2.583333	1	-0.035250
2.600000	1	-0.035750
2.616667	1	-0.036125
2.633333	1	-0.036375
2.650000	1	-0.036625
2.666667	1	-0.037000
2.683333	1	-0.037875
2.700000	1	-0.037625
2.716667	1	-0.038125
2.733333	1	-0.039000
2.750000	1	-0.038750
2.766667	1	-0.038625
2.783333	1	-0.038625
2.800000	1	-0.038500
2.816667	1	-0.037500
2.833333	1	-0.037125
2.850000	1	-0.037125
2.866667	1	-0.036875
2.883333	1	-0.036250
2.900000	1	-0.035375
2.916667	1	-0.035000
2.933333	1	-0.034500
2.950000	1	-0.034000
2.966667	1	-0.033625
2.983333	1	-0.032750
3.000000	1	-0.031625
3.016667	1	-0.030625
3.033333	1	-0.029375
3.050000	1	-0.028750
3.066667	1	-0.027000
3.083333	1	-0.025375
3.100000	1	-0.023875
3.116667	1	-0.022375
3.133333	1	-0.020625
3.150000	1	-0.019000
3.166667	1	-0.017375
3.183333	1	-0.015000
3.200000	1	-0.012375
3.216667	1	-0.010250
3.233333	1	-0.008375
3.250000	1	-0.006625
3.266667	1	-0.003875
3.283333	1	-0.001500
3.300000	1	0.000500
3.316667	1	0.002250
3.333333	1	0.004375
3.350000	1	0.006500
3.366667	1	0.008625
3.383333	1	0.010750
3.400000	1	0.012125
3.416667	1	0.014250
3.433333	1	0.016250
3.450000	1	0.018250
3.466667	1	0.020000
3.483333	1	0.021250
3.500000	1	0.022500
3.516667	1	0.023375
3.533333	1	0.024875
3.550000	1	0.024750
3.566667	1	0.025125
3.583333	1	0.026000
3.600000	1	0.026500
3.616667	1	0.027000
3.633333	1	0.027375
3.650000	1	0.027250
3.666667	1	0.027250
3.683333	1	0.026875
3.700000	1	0.026625
3.716667	1	0.025625
3.733333	1	0.025125
3.750000	1	0.025250
3.766667	1	0.024875
3.783333	1	0.024875
3.800000	1	0.024625
3.816667	1	0.024125
3.833333	1	0.024250
3.850000	1	0.023875
3.866667	1	0.023875
3.883333	1	0.024375
3.900000	1	0.024250
3.916667	1	0.024375
3.933333	1	0.024000
3.950000	1	0.025000
3.966667	1	0.025375
3.983333	1	0.025875
4.000000	1	0.026500
4.016667	1	0.027000
4.033333	1	0.028000
4.050000	1	0.028625
4.066667	1	0.029375
4.083333	1	0.030500
4.100000	1	0.030625
4.116667	1	0.030750
4.133333	1	0.031875
4.150000	1	0.033125
4.166667	1	0.033875
4.183333	1	0.035250
4.200000	1	0.036500
4.216667	1	0.037750
4.233333	1	0.038750
4.250000	1	0.039500
4.266667	1	0.040875
4.283333	1	0.041375
4.300000	1	0.042250
4.316667	1	0.043375
4.333333	1	0.044000
4.350000	1	0.045250
4.366667	1	0.046000
4.383333	1	0.047250
4.400000	1	0.048500
4.416667	1	0.048750
4.433333	1	0.049750
4.450000	1	0.050750
4.466667	1	0.051500
4.483333	1	0.052500
4.500000	1	0.053000
4.516667	1	0.053875
4.533333	1	0.054750
4.550000	1	0.055750
4.566667	1	0.056375
4.583333	1	0.058125
4.600000	1	0.059500
4.616667	1	0.061500
4.633333	1	0.063750
4.650000	1	0.065375
4.666667	1	0.067625
4.683333	1	0.069875
4.700000	1	0.071750
4.716667	1	0.075000
4.733333	1	0.077750
4.750000	1	0.079875
4.766667	1	0.083000
4.783333	1	0.086125
4.800000	1	0.088625
4.816667	1	0.091875
4.833333	1	0.096125
4.850000	1	0.099750
4.866667	1	0.103250
4.883333	1	0.107000
4.900000	1	0.111500
4.916667	1	0.115125
4.933333	1	0.118875
4.950000	1	0.122375
4.966667	1	0.126750
4.983333	1	0.130750
5.000000	1	0.134500
5.016667	1	0.138500
5.033333	1	0.143250
5.050000	1	0.147125
5.066667	1	0.151375
5.083333	1	0.155500
5.100000	1	0.159500
5.116667	1	0.163625
5.133333	1	0.167125
5.150000	1	0.171750
5.166667	1	0.175000
5.183333	1	0.178500
5.200000	1	0.182125
5.216667	1	0.185500
5.233333	1	0.188375
5.250000	1	0.191625
5.266667	1	0.194875
5.283333	1	0.197125
5.300000	1	0.199625
5.316667	1	0.202500
5.333333	1	0.203875
5.350000	1	0.206375
5.366667	1	0.207375
5.383333	1	0.209250
5.400000	1	0.209625
5.416667	1	0.210250
5.433333	1	0.210750
5.450000	1	0.210750
5.466667	1	0.210375
5.483333	1	0.209500
5.500000	1	0.207375
5.516667	1	0.206125
5.533333	1	0.204750
5.550000	1	0.203125
5.566667	1	0.200750
5.583333	1	0.197875
5.600000	1	0.194625
5.616667	1	0.191125
5.633333	1	0.187500
5.650000	1	0.183500
5.666667	1	0.179625
5.683333	1	0.175125
5.700000	1	0.170250
5.716667	1	0.165375
5.733333	1	0.160750
5.750000	1	0.156000
5.766667	1	0.150500
5.783333	1	0.144750
5.800000	1	0.140250
5.816667	1	0.135250
5.833333	1	0.130125
5.850000	1	0.125000
5.866667	1	0.119750
5.883333	1	0.114000
5.900000	1	0.108375
5.916667	1	0.103500
5.933333	1	0.098000
5.950000	1	0.093000
5.966667	1	0.088250
5.983333	1	0.083250
6.000000	1	0.078000
6.016667	1	0.074625
6.033333	1	0.069875
6.050000	1	0.065125
6.066667	1	0.060875
6.083333	1	0.056500
6.100000	1	0.052125
6.116667	1	0.048375
6.133333	1	0.045000
6.150000	1	0.042625
6.166667	1	0.039250
6.183333	1	0.036125
6.200000	1	0.033000
6.216667	1	0.030750
6.233333	1	0.028000
6.250000	1	0.025625
6.266667	1	0.023250
6.283333	1	0.021000
6.300000	1	0.018625
6.316667	1	0.016625
6.333333	1	0.015125
6.350000	1	0.013625
6.366667	1	0.012250
6.383333	1	0.010750
6.400000	1	0.009000
6.416667	1	0.008375
6.433333	1	0.007500
6.450000	1	0.006625
6.466667	1	0.005625
6.483333	1	0.005000
6.500000	1	0.003625
6.516667	1	0.003000
6.533333	1	0.002750
6.550000	1	0.002500
6.566667	1	0.002125
6.583333	1	0.001500
6.600000	1	0.001500
6.616667	1	0.001125
6.633333	1	0.001250
6.650000	1	0.001375
6.666667	1	0.001750
6.683333	1	0.001750
6.700000	1	0.002000
6.716667	1	0.002750
6.733333	1	0.003625
6.750000	1	0.003750
6.766667	1	0.004375
6.783333	1	0.005375
6.800000	1	0.005625
6.816667	1	0.006625
6.833333	1	0.008125
6.850000	1	0.010000
6.866667	1	0.010375
6.883333	1	0.011375
6.900000	1	0.013375
6.916667	1	0.015250
6.933333	1	0.017375
6.950000	1	0.019500
6.966667	1	0.021875
6.983333	1	0.024125
7.000000	1	0.027125
7.016667	1	0.029750
7.033333	1	0.031750
7.050000	1	0.034625
7.066667	1	0.038500
7.083333	1	0.042375
7.100000	1	0.044875
7.116667	1	0.048125
7.133333	1	0.051250
7.150000	1	0.054750
7.166667	1	0.058000
7.183333	1	0.061625
7.200000	1	0.064750
7.216667	1	0.067250
7.233333	1	0.070500
7.250000	1	0.073625
7.266667	1	0.076000
7.283333	1	0.078500
7.300000	1	0.080000
7.316667	1	0.081875
7.333333	1	0.083250
7.350000	1	0.084250
7.366667	1	0.085750
7.383333	1	0.087250
7.400000	1	0.087625
7.416667	1	0.088000
7.433333	1	0.087625
7.450000	1	0.087250
7.466667	1	0.086500
7.483333	1	0.085750
7.500000	1	0.084750
7.516667	1	0.083000
7.533333	1	0.080625
7.550000	1	0.078625
7.566667	1	0.076625
7.583333	1	0.074375
7.600000	1	0.071500
7.616667	1	0.068750
7.633333	1	0.064875
7.650000	1	0.061250
7.666667	1	0.057750
7.683333	1	0.053125
7.700000	1	0.049375
7.716667	1	0.044625
7.733333	1	0.040125
7.750000	1	0.036500
7.766667	1	0.032250
7.783333	1	0.027750
7.800000	1	0.022625
7.816667	1	0.017750
7.833333	1	0.012625
7.850000	1	0.007375
7.866667	1	0.003000
7.883333	1	-0.001875
7.900000	1	-0.006625
7.916667	1	-0.011875
7.933333	1	-0.016375
7.950000	1	-0.020125
7.966667	1	-0.025000
7.983333	1	-0.030000
8.000000	1	-0.034375
8.016667	1	-0.038500
8.033333	1	-0.042000
8.050000	1	-0.046250
8.066667	1	-0.050000
8.083333	1	-0.053250
8.100000	1	-0.056625
8.116667	1	-0.059125
8.133333	1	-0.062500
8.150000	1	-0.064750
8.166667	1	-0.068000
8.183333	1	-0.070125
8.200000	1	-0.073375
8.216667	1	-0.075375
8.233333	1	-0.077875
8.250000	1	-0.079875
8.266667	1	-0.081625
8.283333	1	-0.082875
8.300000	1	-0.084000
8.316667	1	-0.085750
8.333333	1	-0.087625
8.350000	1	-0.089125
8.366667	1	-0.091000
8.383333	1	-0.091875
8.400000	1	-0.093125
8.416667	1	-0.093500
8.433333	1	-0.095000
8.450000	1	-0.096500
8.466667	1	-0.097500
8.483333	1	-0.098750
8.500000	1	-0.099125
8.516667	1	-0.100875
8.533333	1	-0.101375
8.550000	1	-0.101500
8.566667	1	-0.101375
8.583333	1	-0.101500
8.600000	1	-0.101250
8.616667	1	-0.101000
8.633333	1	-0.100500
8.650000	1	-0.100750
8.666667	1	-0.100000
8.683333	1	-0.100625
8.700000	1	-0.099125
8.716667	1	-0.098125
8.733333	1	-0.097000
8.750000	1	-0.095500
8.766667	1	-0.093625
8.783333	1	-0.091500
8.800000	1	-0.089625
8.816667	1	-0.088250
8.833333	1	-0.086250
8.850000	1	-0.084000
8.866667	1	-0.081500
8.883333	1	-0.079250
8.900000	1	-0.077250
8.916667	1	-0.074875
8.933333	1	-0.073000
8.950000	1	-0.070625
8.966667	1	-0.069125
8.983333	1	-0.067375
9.000000	1	-0.065500
9.016667	1	-0.063000
9.033333	1	-0.061250
9.050000	1	-0.059875
9.066667	1	-0.058875
9.083333	1	-0.057750
9.100000	1	-0.056250
9.116667	1	-0.054750
9.133333	1	-0.053750
9.150000	1	-0.052875
9.166667	1	-0.052000
9.183333	1	-0.051250
9.200000	1	-0.050625
9.216667	1	-0.050250
9.233333	1	-0.050375
9.250000	1	-0.050250
9.266667	1	-0.050750
9.283333	1	-0.050875
9.300000	1	-0.051125
9.316667	1	-0.051250
9.333333	1	-0.051250
9.350000	1	-0.051625
9.366667	1	-0.051500
9.383333	1	-0.052000
9.400000	1	-0.052500
9.416667	1	-0.053000
9.433333	1	-0.053250
9.450000	1	-0.053250
9.466667	1	-0.053875
9.483333	1	-0.053875
9.500000	1	-0.054125
9.516667	1	-0.054250
9.533333	1	-0.054125
9.550000	1	-0.054625
9.566667	1	-0.055500
9.583333	1	-0.056000
9.600000	1	-0.056750
9.616667	1	-0.056500
9.633333	1	-0.057125
9.650000	1	-0.057625
9.666667	1	-0.058000
9.683333	1	-0.058750
9.700000	1	-0.059250
9.716667	1	-0.059500
9.733333	1	-0.060125
9.750000	1	-0.060750
9.766667	1	-0.061000
9.783333	1	-0.061625
9.800000	1	-0.062250
9.816667	1	-0.063000
9.833333	1	-0.063875
9.850000	1	-0.065125
9.866667	1	-0.065500
9.883333	1	-0.066000
9.900000	1	-0.067000
9.916667	1	-0.068250
9.933333	1	-0.069250
9.950000	1	-0.070625
9.966667	1	-0.071500
9.983333	1	-0.072375
10.000000	1	-0.073125
10.016667	1	-0.074000
10.033333	1	-0.074500
10.050000	1	-0.074625
10.066667	1	-0.074875
10.083333	1	-0.074125
10.100000	1	-0.073375
10.116667	1	-0.072000
10.133333	1	-0.070000
10.150000	1	-0.067000
10.166667	1	-0.063250
10.183333	1	-0.057250
10.200000	1	-0.050875
10.216667	1	-0.043000
10.233333	1	-0.033750
10.250000	1	-0.022000
10.266667	1	-0.008625
10.283333	1	0.006750
10.300000	1	0.024625
10.316667	1	0.045000
10.333333	1	0.067750
10.350000	1	0.091500
10.366667	1	0.117000
10.383333	1	0.141625
10.400000	1	0.163375
10.416667	1	0.179500
10.433333	1	0.188000
10.450000	1	0.189625
10.466667	1	0.184250
10.483333	1	0.178250
10.500000	1	0.184125
10.516667	1	0.222250
10.533333	1	0.318625
10.550000	1	0.512375
10.566667	1	0.849750
10.583333	1	1.383250
10.600000	1	2.168125
10.616667	1	3.258250
10.633333	1	4.698375
10.650000	1	6.519625
10.666667	1	8.744750
10.683333	1	11.377750
10.700000	1	14.411375
10.716667	1	17.818750
10.733333	1	21.557250
10.750000	1	25.562500
10.766667	1	29.743375
10.783333	1	33.974375
10.800000	1	38.087500
10.816667	1	41.856750
10.833333	1	44.995125
10.850000	1	47.182750
10.866667	1	48.114250
10.883333	1	47.572875
10.900000	1	45.512625
10.916667	1	42.105875
10.933333	1	37.712000
10.950000	1	32.789375
10.966667	1	27.783250
10.983333	1	23.045500
11.000000	1	18.796625
11.016667	1	15.142500
11.033333	1	12.101875
11.050000	1	9.636000
11.066667	1	7.675500
11.083333	1	6.141750
11.100000	1	4.957000
11.116667	1	4.049875
11.133333	1	3.359250
11.150000	1	2.834750
11.166667	1	2.437000
11.183333	1	2.135125
11.200000	1	1.905875
11.216667	1	1.731625
11.233333	1	1.598500
11.250000	1	1.495250
11.266667	1	1.413875
11.283333	1	1.348375
11.300000	1	1.294625
11.316667	1	1.248125
11.333333	1	1.205125
11.350000	1	1.165125
11.366667	1	1.126750
11.383333	1	1.090250
11.400000	1	1.054500
11.416667	1	1.020000
11.433333	1	0.988500
11.450000	1	0.959125
11.466667	1	0.933000
11.483333	1	0.909875
11.500000	1	0.891000
11.516667	1	0.874750
11.533333	1	0.863500
11.550000	1	0.856375
11.566667	1	0.853250
11.583333	1	0.855125
11.600000	1	0.861625
11.616667	1	0.874000
11.633333	1	0.891000
11.650000	1	0.913125
11.666667	1	0.940125
11.683333	1	0.971625
11.700000	1	1.005750
11.716667	1	1.041500
11.733333	1	1.077625
11.750000	1	1.111625
11.766667	1	1.141375
11.783333	1	1.166875
11.800000	1	1.186375
11.816667	1	1.198750
11.833333	1	1.203750
11.850000	1	1.202000
11.866667	1	1.193250
11.883333	1	1.179250
11.900000	1	1.161250
11.916667	1	1.140875
11.933333	1	1.119375
11.950000	1	1.096875
11.966667	1	1.075625
11.983333	1	1.055625
12.000000	1	1.037625
12.016667	1	1.022000
12.033333	1	1.008875
12.050000	1	0.997500
12.066667	1	0.989500
12.083333	1	0.983750
12.100000	1	0.979875
12.116667	1	0.977375
12.133333	1	0.976625
12.150000	1	0.976000
12.166667	1	0.979250
12.183333	1	0.984000
12.200000	1	0.990500
12.216667	1	0.999750
12.233333	1	1.011875
12.250000	1	1.028250
12.266667	1	1.050875
12.283333	1	1.081125
12.300000	1	1.122250
12.316667	1	1.177500
12.333333	1	1.252125
12.350000	1	1.353250
12.366667	1	1.489875
12.383333	1	1.674625
12.400000	1	1.922750
12.416667	1	2.255750
12.433333	1	2.700000
12.450000	1	3.291375
12.466667	1	4.075125
12.483333	1	5.106750
12.500000	1	6.453500
12.516667	1	8.193375
12.533333	1	10.409625
12.550000	1	13.189250
12.566667	1	16.608750
12.583333	1	20.730375
12.600000	1	25.582875
12.616667	1	31.144500
12.633333	1	37.345875
12.650000	1	44.059000
12.666667	1	51.090750
12.683333	1	58.182000
12.700000	1	65.028500
12.716667	1	71.303625
12.733333	1	76.688000
12.750000	1	80.901625
12.766667	1	83.740000
12.783333	1	85.086125
12.800000	1	84.924625
12.816667	1	83.345125
12.833333	1	80.522750
12.850000	1	76.693875
12.866667	1	72.134375
12.883333	1	67.135750
12.900000	1	61.977750
12.916667	1	56.906375
12.933333	1	52.120375
12.950000	1	47.766000
12.966667	1	43.931250
12.983333	1	40.657625
13.000000	1	37.949625
13.016667	1	35.784750
13.033333	1	34.117000
13.050000	1	32.896125
13.066667	1	32.064625
13.083333	1	31.569875
13.100000	1	31.359625
13.116667	1	31.388000
13.133333	1	31.613750
13.150000	1	32.003125
13.166667	1	32.528250
13.183333	1	33.165000
13.200000	1	33.893500
13.216667	1	34.698375
13.233333	1	35.568125
13.250000	1	36.493750
13.266667	1	37.468875
13.283333	1	38.487375
13.300000	1	39.544625
13.316667	1	40.638000
13.333333	1	41.764875
13.350000	1	42.922375
13.366667	1	44.110375
13.383333	1	45.328250
13.400000	1	46.574625
13.416667	1	47.848000
13.433333	1	49.150875
13.450000	1	50.483250
13.466667	1	51.847125
13.483333	1	53.242250
13.500000	1	54.668625
13.516667	1	56.126375
13.533333	1	57.613250
13.550000	1	59.130875
13.566667	1	60.680375
13.583333	1	62.262500
13.600000	1	63.875250
13.616667	1	65.519750
13.633333	1	67.198750
13.650000	1	68.914625
13.666667	1	70.666250
13.683333	1	72.455125
13.700000	1	74.275375
13.716667	1	76.104750
13.733333	1	77.880875
13.750000	1	79.478500
13.766667	1	80.717000
13.783333	1	81.397250
13.800000	1	81.342625
13.816667	1	80.411750
13.833333	1	78.474750
13.850000	1	75.377625
13.866667	1	70.953500
13.883333	1	65.117250
13.900000	1	58.015500
13.916667	1	50.105250
13.933333	1	42.059750
13.950000	1	34.532750
13.966667	1	27.954500
13.983333	1	22.484500
14.000000	1	18.085750
14.016667	1	14.617500
14.033333	1	11.921750
14.050000	1	9.850500
14.066667	1	8.278625
14.083333	1	7.100125
14.100000	1	6.223625
14.116667	1	5.572500
14.133333	1	5.086875
14.150000	1	4.719750
14.166667	1	4.436750
14.183333	1	4.214625
14.200000	1	4.036375
14.216667	1	3.890000
14.233333	1	3.766500
14.250000	1	3.660000
14.266667	1	3.566500
14.283333	1	3.483125
14.300000	1	3.407250
14.316667	1	3.338625
14.333333	1	3.275500
14.350000	1	3.217875
14.366667	1	3.163625
14.383333	1	3.114250
14.400000	1	3.067875
14.416667	1	3.025375
14.433333	1	2.985625
14.450000	1	2.949125
14.466667	1	2.915750
14.483333	1	2.884875
14.500000	1	2.856250
14.516667	1	2.829750
14.533333	1	2.805250
14.550000	1	2.782500
14.566667	1	2.761125
14.583333	1	2.741500
14.600000	1	2.723125
14.616667	1	2.706250
14.633333	1	2.691625
14.650000	1	2.680250
14.666667	1	2.671875
14.683333	1	2.666750
14.700000	1	2.666500
14.716667	1	2.670000
14.733333	1	2.679500
14.750000	1	2.694125
14.766667	1	2.713875
14.783333	1	2.737125
14.800000	1	2.763000
14.816667	1	2.789500
14.833333	1	2.814000
14.850000	1	2.834125
14.866667	1	2.847500
14.883333	1	2.852875
14.900000	1	2.846750
14.916667	1	2.829625
14.933333	1	2.800000
14.950000	1	2.758375
14.966667	1	2.704875
14.983333	1	2.642625
15.000000	1	2.572375
15.016667	1	2.497250
15.033333	1	2.418750
15.050000	1	2.340250
15.066667	1	2.262250
15.083333	1	2.187625
15.100000	1	2.116250
15.116667	1	2.050250
15.133333	1	1.989875
15.150000	1	1.934875
15.166667	1	1.885625
15.183333	1	1.842125
15.200000	1	1.803250
15.216667	1	1.769250
15.233333	1	1.740000
15.250000	1	1.715125
15.266667	1	1.694000
15.283333	1	1.677250
15.300000	1	1.665375
15.316667	1	1.656375
15.333333	1	1.652875
15.350000	1	1.655000
15.366667	1	1.662000
15.383333	1	1.674500
15.400000	1	1.692375
15.416667	1	1.715250
15.433333	1	1.741750
15.450000	1	1.772750
15.466667	1	1.806500
15.483333	1	1.840000
15.500000	1	1.871125
15.516667	1	1.899750
15.533333	1	1.922875
15.550000	1	1.939375
15.566667	1	1.947500
15.583333	1	1.946500
15.600000	1	1.937500
15.616667	1	1.919750
15.633333	1	1.894875
15.650000	1	1.863875
15.666667	1	1.827625
15.683333	1	1.788875
15.700000	1	1.747625
15.716667	1	1.706750
15.733333	1	1.665875
15.750000	1	1.627250
15.766667	1	1.590250
15.783333	1	1.555000
15.800000	1	1.521750
15.816667	1	1.489625
15.833333	1	1.459000
15.850000	1	1.429250
15.866667	1	1.400375
15.883333	1	1.374375
15.900000	1	1.348500
15.916667	1	1.324875
15.933333	1	1.302250
15.950000	1	1.281500
15.966667	1	1.263125
15.983333	1	1.247000
16.000000	1	1.233625
16.016667	1	1.222625
16.033333	1	1.213250
16.050000	1	1.206875
16.066667	1	1.201500
16.083333	1	1.197875
16.100000	1	1.195750
16.116667	1	1.195750
16.133333	1	1.196375
16.150000	1	1.197500
16.166667	1	1.199375
16.183333	1	1.201750
16.200000	1	1.204375
16.216667	1	1.206750
16.233333	1	1.209125
16.250000	1	1.210500
16.266667	1	1.210250
16.283333	1	1.209500
16.300000	1	1.208375
16.316667	1	1.205500
16.333333	1	1.201875
16.350000	1	1.197375
16.366667	1	1.191875
16.383333	1	1.186375
16.400000	1	1.180375
16.416667	1	1.174125
16.433333	1	1.168125
16.450000	1	1.163000
16.466667	1	1.159500
16.483333	1	1.156875
16.500000	1	1.156375
16.516667	1	1.156750
16.533333	1	1.159500
16.550000	1	1.163375
16.566667	1	1.168375
16.583333	1	1.175625
16.600000	1	1.182000
16.616667	1	1.189000
16.633333	1	1.195750
16.650000	1	1.201750
16.666667	1	1.206875
16.683333	1	1.210375
16.700000	1	1.213000
16.716667	1	1.215500
16.733333	1	1.215875
16.750000	1	1.215875
16.766667	1	1.216125
16.783333	1	1.216125
16.800000	1	1.216375
16.816667	1	1.217000
16.833333	1	1.218375
16.850000	1	1.220625
16.866667	1	1.222750
16.883333	1	1.225500
16.900000	1	1.228000
16.916667	1	1.230500
16.933333	1	1.232250
16.950000	1	1.233625
16.966667	1	1.234250
16.983333	1	1.234000
17.000000	1	1.231875
17.016667	1	1.228750
17.033333	1	1.224500
17.050000	1	1.219625
17.066667	1	1.214250
17.083333	1	1.208250
17.100000	1	1.203000
17.116667	1	1.197750
17.133333	1	1.193500
17.150000	1	1.189125
17.166667	1	1.186500
17.183333	1	1.184250
17.200000	1	1.182875
17.216667	1	1.182750
17.233333	1	1.183625
17.250000	1	1.185375
17.266667	1	1.188375
17.283333	1	1.191875
17.300000	1	1.195625
17.316667	1	1.200250
17.333333	1	1.205250
17.350000	1	1.211375
17.366667	1	1.216750
17.383333	1	1.222500
17.400000	1	1.227500
17.416667	1	1.231875
17.433333	1	1.235750
17.450000	1	1.238625
17.466667	1	1.240875
17.483333	1	1.241500
17.500000	1	1.240750
17.516667	1	1.238875
17.533333	1	1.234500
17.550000	1	1.229000
17.566667	1	1.221000
17.583333	1	1.211875
17.600000	1	1.201500
17.616667	1	1.189000
17.633333	1	1.175250
17.650000	1	1.160625
17.666667	1	1.144625
17.683333	1	1.128000
17.700000	1	1.110250
17.716667	1	1.092625
17.733333	1	1.074750
17.750000	1	1.057875
17.766667	1	1.040125
17.783333	1	1.022000
17.800000	1	1.004875
17.816667	1	0.988125
17.833333	1	0.971750
17.850000	1	0.956000
17.866667	1	0.940000
17.883333	1	0.924000
17.900000	1	0.909250
17.916667	1	0.894000
17.933333	1	0.880125
17.950000	1	0.866750
17.966667	1	0.854750
17.983333	1	0.842500
18.000000	1	0.830000
18.016667	1	0.818875
18.033333	1	0.808125
18.050000	1	0.796750
18.066667	1	0.787000
18.083333	1	0.777125
18.100000	1	0.767875
18.116667	1	0.759125
18.133333	1	0.750375
18.150000	1	0.742750
18.166667	1	0.736125
18.183333	1	0.730500
18.200000	1	0.725750
18.216667	1	0.721000
18.233333	1	0.718000
18.250000	1	0.716250
18.266667	1	0.715125
18.283333	1	0.714500
18.300000	1	0.714875
18.316667	1	0.716000
18.333333	1	0.717375
18.350000	1	0.718875
18.366667	1	0.722500
18.383333	1	0.725750
18.400000	1	0.729125
18.416667	1	0.733500
18.433333	1	0.739000
18.450000	1	0.745250
18.466667	1	0.752500
18.483333	1	0.760375
18.500000	1	0.770000
18.516667	1	0.780125
18.533333	1	0.792750
18.550000	1	0.807375
18.566667	1	0.823625
18.583333	1	0.842125
18.600000	1	0.861875
18.616667	1	0.883500
18.633333	1	0.907250
18.650000	1	0.933250
18.666667	1	0.960500
18.683333	1	0.990125
18.700000	1	1.021000
18.716667	1	1.053750
18.733333	1	1.086875
18.750000	1	1.120875
18.766667	1	1.155500
18.783333	1	1.190500
18.800000	1	1.225250
18.816667	1	1.258875
18.833333	1	1.292250
18.850000	1	1.323125
18.866667	1	1.351625
18.883333	1	1.376625
18.900000	1	1.397500
18.916667	1	1.413375
18.933333	1	1.424375
18.950000	1	1.429500
18.966667	1	1.427500
18.983333	1	1.419375
19.000000	1	1.404750
19.016667	1	1.382250
19.033333	1	1.352875
19.050000	1	1.318875
19.066667	1	1.279375
19.083333	1	1.235625
19.100000	1	1.187125
19.116667	1	1.137250
19.133333	1	1.086125
19.150000	1	1.035625
19.166667	1	0.985625
19.183333	1	0.937375
19.200000	1	0.891250
19.216667	1	0.848625
19.233333	1	0.810250
19.250000	1	0.776625
19.266667	1	0.747000
19.283333	1	0.723750
19.300000	1	0.706000
19.316667	1	0.694125
19.333333	1	0.687375
19.350000	1	0.686250
19.366667	1	0.691250
19.383333	1	0.700750
19.400000	1	0.715500
19.416667	1	0.735750
19.433333	1	0.759750
19.450000	1	0.787000
19.466667	1	0.817625
19.483333	1	0.850250
19.500000	1	0.883750
19.516667	1	0.918000
19.533333	1	0.951625
19.550000	1	0.983125
19.566667	1	1.012125
19.583333	1	1.037250
19.600000	1	1.057750
19.616667	1	1.072875
19.633333	1	1.082500
19.650000	1	1.086125
19.666667	1	1.084000
19.683333	1	1.075875
19.700000	1	1.062250
19.716667	1	1.043875
19.733333	1	1.021500
19.750000	1	0.995375
19.766667	1	0.966125
19.783333	1	0.934375
19.800000	1	0.901875
19.816667	1	0.868375
19.833333	1	0.834625
19.850000	1	0.801125
19.866667	1	0.769000
19.883333	1	0.738000
19.900000	1	0.708375
19.916667	1	0.681500
19.933333	1	0.657000
19.950000	1	0.634125
19.966667	1	0.613250
19.983333	1	0.595500
20.000000	1	0.579750
20.016667	1	0.566500
20.033333	1	0.556125
20.050000	1	0.547750
20.066667	1	0.541500
20.083333	1	0.538625
20.100000	1	0.538125
20.116667	1	0.540000
20.133333	1	0.544750
20.150000	1	0.552000
20.166667	1	0.561125
20.183333	1	0.573000
20.200000	1	0.586250
20.216667	1	0.601000
20.233333	1	0.616875
20.250000	1	0.633125
20.266667	1	0.649250
20.283333	1	0.664875
20.300000	1	0.679500
20.316667	1	0.692500
20.333333	1	0.703125
20.350000	1	0.711625
20.366667	1	0.716750
20.383333	1	0.718875
20.400000	1	0.717625
20.416667	1	0.712500
20.433333	1	0.704625
20.450000	1	0.694500
20.466667	1	0.682875
20.483333	1	0.670125
20.500000	1	0.657250
20.516667	1	0.644500
20.533333	1	0.634125
20.550000	1	0.626500
20.566667	1	0.623000
20.583333	1	0.623750
20.600000	1	0.630625
20.616667	1	0.642750
20.633333	1	0.662500
20.650000	1	0.689500
20.666667	1	0.723375
20.683333	1	0.765125
20.700000	1	0.814375
20.716667	1	0.870750
20.733333	1	0.932375
20.750000	1	0.998875
20.766667	1	1.069000
20.783333	1	1.140625
20.800000	1	1.211750
20.816667	1	1.280000
20.833333	1	1.343375
20.850000	1	1.399375
20.866667	1	1.446500
20.883333	1	1.482750
20.900000	1	1.506500
20.916667	1	1.516875
20.933333	1	1.513375
20.950000	1	1.496750
20.966667	1	1.466375
20.983333	1	1.423625
21.000000	1	1.371000
21.016667	1	1.311125
21.033333	1	1.243625
21.050000	1	1.171625
21.066667	1	1.097750
21.083333	1	1.022875
21.100000	1	0.949500
21.116667	1	0.877875
21.133333	1	0.811250
21.150000	1	0.749125
21.166667	1	0.691000
21.183333	1	0.638250
21.200000	1	0.591125
21.216667	1	0.549375
21.233333	1	0.512875
21.250000	1	0.481875
21.266667	1	0.454875
21.283333	1	0.432250
21.300000	1	0.413250
21.316667	1	0.397250
21.333333	1	0.384500
21.350000	1	0.374375
21.366667	1	0.366250
21.383333	1	0.360750
21.400000	1	0.356125
21.416667	1	0.353250
21.433333	1	0.351250
21.450000	1	0.349875
21.466667	1	0.349250
21.483333	1	0.348625
21.500000	1	0.348625
21.516667	1	0.350125
21.533333	1	0.352000
21.550000	1	0.354250
21.566667	1	0.357500
21.583333	1	0.361250
21.600000	1	0.365875
21.616667	1	0.370500
21.633333	1	0.376375
21.650000	1	0.383750
21.666667	1	0.391375
21.683333	1	0.400375
21.700000	1	0.410750
21.716667	1	0.422125
21.733333	1	0.435625
21.750000	1	0.449750
21.766667	1	0.465250
21.783333	1	0.482375
21.800000	1	0.500250
21.816667	1	0.519500
21.833333	1	0.540375
21.850000	1	0.562000
21.866667	1	0.584125
21.883333	1	0.606750
21.900000	1	0.629000
21.916667	1	0.650750
21.933333	1	0.672125
21.950000	1	0.693000
21.966667	1	0.711750
21.983333	1	0.728500
22.000000	1	0.743000
22.016667	1	0.754750
22.033333	1	0.764125
22.050000	1	0.770750
22.066667	1	0.774125
22.083333	1	0.774875
22.100000	1	0.772375
22.116667	1	0.767750
22.133333	1	0.760750
22.150000	1	0.751625
22.166667	1	0.739750
22.183333	1	0.726500
22.200000	1	0.710375
22.216667	1	0.693250
22.233333	1	0.675000
22.250000	1	0.656125
22.266667	1	0.636125
22.283333	1	0.616125
22.300000	1	0.595500
22.316667	1	0.573750
22.333333	1	0.552250
22.350000	1	0.530625
22.366667	1	0.509125
22.383333	1	0.488250
22.400000	1	0.467500
22.416667	1	0.447000
22.433333	1	0.427000
22.450000	1	0.408125
22.466667	1	0.390000
22.483333	1	0.373125
22.500000	1	0.356750
22.516667	1	0.342250
22.533333	1	0.327500
22.550000	1	0.313875
22.566667	1	0.301125
22.583333	1	0.289500
22.600000	1	0.278000
22.616667	1	0.268500
22.633333	1	0.260250
22.650000	1	0.252000
22.666667	1	0.243250
22.683333	1	0.235125
22.700000	1	0.229000
22.716667	1	0.223375
22.733333	1	0.217125
22.750000	1	0.211875
22.766667	1	0.207125
22.783333	1	0.202875
22.800000	1	0.198625
22.816667	1	0.194625
22.833333	1	0.191625
22.850000	1	0.187750
22.866667	1	0.185125
22.883333	1	0.182375
22.900000	1	0.180750
22.916667	1	0.179625
22.933333	1	0.178375
22.950000	1	0.176750
22.966667	1	0.176375
22.983333	1	0.176250
23.000000	1	0.176125
23.016667	1	0.176875
23.033333	1	0.178125
23.050000	1	0.179500
23.066667	1	0.181375
23.083333	1	0.184250
23.100000	1	0.187000
23.116667	1	0.190125
23.133333	1	0.193625
23.150000	1	0.196375
23.166667	1	0.200125
23.183333	1	0.204000
23.200000	1	0.209000
23.216667	1	0.213875
23.233333	1	0.219250
23.250000	1	0.225500
23.266667	1	0.232000
23.283333	1	0.239750
23.300000	1	0.248375
23.316667	1	0.259125
23.333333	1	0.271875
23.350000	1	0.287125
23.366667	1	0.305500
23.383333	1	0.327500
23.400000	1	0.353500
23.416667	1	0.385000
23.433333	1	0.422125
23.450000	1	0.466250
23.466667	1	0.518000
23.483333	1	0.579250
23.500000	1	0.650250
23.516667	1	0.733375
23.533333	1	0.829250
23.550000	1	0.938500
23.566667	1	1.063000
23.583333	1	1.203125
23.600000	1	1.359000
23.616667	1	1.530875
23.633333	1	1.718750
23.650000	1	1.921375
23.666667	1	2.138375
23.683333	1	2.367625
23.700000	1	2.607750
23.716667	1	2.855875
23.733333	1	3.106625
23.750000	1	3.357500
23.766667	1	3.602750
23.783333	1	3.836625
23.800000	1	4.055125
23.816667	1	4.254875
23.833333	1	4.429125
23.850000	1	4.574000
23.866667	1	4.687750
23.883333	1	4.765750
23.900000	1	4.807375
23.916667	1	4.812125
23.933333	1	4.778750
23.950000	1	4.710375
23.966667	1	4.608250
23.983333	1	4.474875
24.000000	1	4.314375
24.016667	1	4.131625
24.033333	1	3.930500
24.050000	1	3.716750
24.066667	1	3.493000
24.083333	1	3.264375
24.100000	1	3.035125
24.116667	1	2.807625
24.133333	1	2.586125
24.150000	1	2.371625
24.166667	1	2.167250
24.183333	1	1.975125
24.200000	1	1.795375
24.216667	1	1.628250
24.233333	1	1.475250
24.250000	1	1.335375
24.266667	1	1.209000
24.283333	1	1.094750
24.300000	1	0.992250
24.316667	1	0.900500
24.333333	1	0.819500
24.350000	1	0.748625
24.366667	1	0.686625
24.383333	1	0.631625
24.400000	1	0.584500
24.416667	1	0.543750
24.433333	1	0.509625
24.450000	1	0.480500
24.466667	1	0.456625
24.483333	1	0.436375
24.500000	1	0.419375
24.516667	1	0.405250
24.533333	1	0.393750
24.550000	1	0.384625
24.566667	1	0.376125
24.583333	1	0.369000
24.600000	1	0.363625
24.616667	1	0.358625
24.633333	1	0.354125
24.650000	1	0.350125
24.666667	1	0.345250
24.683333	1	0.341250
24.700000	1	0.337000
24.716667	1	0.332625
24.733333	1	0.328250
24.750000	1	0.323625
24.766667	1	0.318125
24.783333	1	0.312750
24.800000	1	0.307625
24.816667	1	0.302125
24.833333	1	0.297000
24.850000	1	0.291625
24.866667	1	0.286500
24.883333	1	0.282000
24.900000	1	0.277000
24.916667	1	0.271375
24.933333	1	0.267375
24.950000	1	0.262375
24.966667	1	0.258625
24.983333	1	0.254125
25.000000	1	0.249750
25.016667	1	0.245625
25.033333	1	0.241750
25.050000	1	0.237500
25.066667	1	0.234125
25.083333	1	0.231000
25.100000	1	0.227500
25.116667	1	0.223500
25.133333	1	0.219625
25.150000	1	0.215250
25.166667	1	0.211625
25.183333	1	0.207125
25.200000	1	0.203250
25.216667	1	0.199750
25.233333	1	0.196000
25.250000	1	0.193000
25.266667	1	0.189500
25.283333	1	0.185625
25.300000	1	0.182500
25.316667	1	0.179500
25.333333	1	0.176500
25.350000	1	0.173500
25.366667	1	0.169750
25.383333	1	0.166750
25.400000	1	0.165125
25.416667	1	0.163125
25.433333	1	0.161500
25.450000	1	0.159500
25.466667	1	0.158000
25.483333	1	0.156875
25.500000	1	0.156625
25.516667	1	0.156000
25.533333	1	0.155375
25.550000	1	0.154500
25.566667	1	0.153875
25.583333	1	0.153125
25.600000	1	0.152500
25.616667	1	0.152250
25.633333	1	0.152625
25.650000	1	0.152750
25.666667	1	0.153250
25.683333	1	0.153750
25.700000	1	0.154125
25.716667	1	0.154375
25.733333	1	0.153500
25.750000	1	0.154000
25.766667	1	0.154250
25.783333	1	0.154000
25.800000	1	0.154000
25.816667	1	0.154250
25.833333	1	0.154875
25.850000	1	0.155750
25.866667	1	0.156375
25.883333	1	0.158000
25.900000	1	0.159500
25.916667	1	0.161625
25.933333	1	0.164125
25.950000	1	0.166000
25.966667	1	0.168875
25.983333	1	0.171250
26.000000	1	0.174625
26.016667	1	0.178750
26.033333	1	0.182375
26.050000	1	0.186750
26.066667	1	0.190875
26.083333	1	0.194875
26.100000	1	0.199500
26.116667	1	0.204500
26.133333	1	0.209250
26.150000	1	0.214000
26.166667	1	0.218625
26.183333	1	0.223125
26.200000	1	0.227625
26.216667	1	0.231500
26.233333	1	0.235750
26.250000	1	0.238125
26.266667	1	0.240000
26.283333	1	0.242125
26.300000	1	0.243250
26.316667	1	0.244375
26.333333	1	0.244375
26.350000	1	0.243625
26.366667	1	0.242875
26.383333	1	0.241000
26.400000	1	0.238500
26.416667	1	0.235875
26.433333	1	0.232375
26.450000	1	0.228500
26.466667	1	0.223875
26.483333	1	0.218875
26.500000	1	0.213375
26.516667	1	0.207875
26.533333	1	0.202125
26.550000	1	0.196125
26.566667	1	0.189625
26.583333	1	0.183000
26.600000	1	0.176625
26.616667	1	0.170750
26.633333	1	0.164250
26.650000	1	0.157750
26.666667	1	0.152000
26.683333	1	0.146250
26.700000	1	0.140375
26.716667	1	0.135500
26.733333	1	0.130125
26.750000	1	0.125000
26.766667	1	0.119125
26.783333	1	0.114750
26.800000	1	0.111125
26.816667	1	0.107000
26.833333	1	0.104000
26.850000	1	0.100500
26.866667	1	0.096750
26.883333	1	0.092875
26.900000	1	0.090250
26.916667	1	0.088750
26.933333	1	0.087750
26.950000	1	0.086500
26.966667	1	0.086125
26.983333	1	0.085750
27.000000	1	0.086125
27.016667	1	0.086625
27.033333	1	0.088750
27.050000	1	0.090875
27.066667	1	0.094375
27.083333	1	0.098125
27.100000	1	0.102750
27.116667	1	0.108375
27.133333	1	0.115125
27.150000	1	0.123000
27.166667	1	0.132625
27.183333	1	0.143875
27.200000	1	0.156875
27.216667	1	0.172125
27.233333	1	0.190000
27.250000	1	0.210125
27.266667	1	0.234000
27.283333	1	0.261125
27.300000	1	0.292500
27.316667	1	0.327250
27.333333	1	0.367000
27.350000	1	0.412500
27.366667	1	0.463250
27.383333	1	0.521000
27.400000	1	0.585250
27.416667	1	0.657500
27.433333	1	0.737250
27.450000	1	0.825750
27.466667	1	0.923500
27.483333	1	1.030875
27.500000	1	1.147250
27.516667	1	1.273750
27.533333	1	1.409750
27.550000	1	1.555500
27.566667	1	1.709625
27.583333	1	1.871750
27.600000	1	2.041750
27.616667	1	2.217625
27.633333	1	2.397750
27.650000	1	2.581375
27.666667	1	2.766000
27.683333	1	2.949625
27.700000	1	3.130000
27.716667	1	3.304000
27.733333	1	3.469000
27.750000	1	3.622250
27.766667	1	3.761375
27.783333	1	3.884250
27.800000	1	3.988750
27.816667	1	4.071625
27.833333	1	4.132750
27.850000	1	4.170375
27.866667	1	4.183625
27.883333	1	4.171375
27.900000	1	4.133625
27.916667	1	4.071750
27.933333	1	3.986000
27.950000	1	3.878750
27.966667	1	3.751625
27.983333	1	3.608250
28.000000	1	3.449500
28.016667	1	3.278125
28.033333	1	3.098500
28.050000	1	2.912250
28.066667	1	2.721750
28.083333	1	2.531125
28.100000	1	2.342250
28.116667	1	2.157000
28.133333	1	1.977750
28.150000	1	1.806375
28.166667	1	1.644125
28.183333	1	1.492000
28.200000	1	1.350250
28.216667	1	1.219125
28.233333	1	1.099000
28.250000	1	0.989750
28.266667	1	0.890750
28.283333	1	0.801625
28.300000	1	0.722375
28.316667	1	0.652125
28.333333	1	0.590625
28.350000	1	0.537500
28.366667	1	0.492250
28.383333	1	0.453875
28.400000	1	0.422625
28.416667	1	0.395625
28.433333	1	0.374625
28.450000	1	0.357500
28.466667	1	0.345375
28.483333	1	0.337125
28.500000	1	0.331625
28.516667	1	0.329250
28.533333	1	0.330125
28.550000	1	0.332875
28.566667	1	0.337500
28.583333	1	0.343250
28.600000	1	0.350500
28.616667	1	0.359250
28.633333	1	0.369250
28.650000	1	0.379250
28.666667	1	0.389875
28.683333	1	0.401000
28.700000	1	0.411500
28.716667	1	0.421625
28.733333	1	0.431875
28.750000	1	0.441500
28.766667	1	0.450625
28.783333	1	0.459375
28.800000	1	0.467125
28.816667	1	0.474125
28.833333	1	0.480000
28.850000	1	0.484125
28.866667	1	0.488000
28.883333	1	0.491000
28.900000	1	0.491875
28.916667	1	0.491625
28.933333	1	0.489500
28.950000	1	0.487000
28.966667	1	0.484000
28.983333	1	0.479625
29.000000	1	0.473250
29.016667	1	0.466625
29.033333	1	0.459000
29.050000	1	0.450250
29.066667	1	0.440250
29.083333	1	0.429500
29.100000	1	0.417375
29.116667	1	0.404875
29.133333	1	0.392125
29.150000	1	0.379250
29.166667	1	0.365375
29.183333	1	0.351625
29.200000	1	0.337750
29.216667	1	0.323250
29.233333	1	0.309250
29.250000	1	0.295000
29.266667	1	0.280625
29.283333	1	0.266500
29.300000	1	0.253000
29.316667	1	0.239125
29.333333	1	0.225875
29.350000	1	0.212750
29.366667	1	0.200250
29.383333	1	0.188125
29.400000	1	0.176375
29.416667	1	0.165125
29.433333	1	0.154500
29.450000	1	0.144000
29.466667	1	0.134000
29.483333	1	0.125000
29.500000	1	0.116000
29.516667	1	0.107875
29.533333	1	0.100125
29.550000	1	0.092625
29.566667	1	0.085875
29.583333	1	0.078625
29.600000	1	0.072250
29.616667	1	0.066750
29.633333	1	0.061250
29.650000	1	0.056000
29.666667	1	0.051250
29.683333	1	0.047250
29.700000	1	0.043125
29.716667	1	0.040000
29.733333	1	0.037125
29.750000	1	0.033875
29.766667	1	0.031250
29.783333	1	0.029000
29.800000	1	0.026875
29.816667	1	0.024875
29.833333	1	0.024250
29.850000	1	0.023000
29.866667	1	0.021375
29.883333	1	0.020125
29.900000	1	0.019125
29.916667	1	0.017500
29.933333	1	0.017250
29.950000	1	0.016625
29.966667	1	0.016125
29.983333	1	0.015375
30.000000	1	0.015500
30.016667	1	0.015875
30.033333	1	0.015750
30.050000	1	0.015875
30.066667	1	0.016250
30.083333	1	0.016625
30.100000	1	0.017125
30.116667	1	0.017375
30.133333	1	0.017375
30.150000	1	0.017500
30.166667	1	0.018125
30.183333	1	0.018875
30.200000	1	0.019375
30.216667	1	0.020125
30.233333	1	0.020875
30.250000	1	0.021625
30.266667	1	0.022125
30.283333	1	0.022750
30.300000	1	0.023000
30.316667	1	0.024125
30.333333	1	0.024875
30.350000	1	0.025625
30.366667	1	0.026250
30.383333	1	0.027625
30.400000	1	0.028500
30.416667	1	0.029625
30.433333	1	0.030875
30.450000	1	0.032750
30.466667	1	0.034875
30.483333	1	0.036875
30.500000	1	0.039500
30.516667	1	0.042125
30.533333	1	0.045500
30.550000	1	0.048375
30.566667	1	0.052250
30.583333	1	0.056625
30.600000	1	0.061500
30.616667	1	0.066875
30.633333	1	0.073000
30.650000	1	0.078875
30.666667	1	0.085625
30.683333	1	0.092875
30.700000	1	0.100625
30.716667	1	0.109375
30.733333	1	0.119000
30.750000	1	0.128625
30.766667	1	0.139500
30.783333	1	0.151500
30.800000	1	0.164250
30.816667	1	0.178250
30.833333	1	0.192625
30.850000	1	0.208875
30.866667	1	0.226000
30.883333	1	0.244500
30.900000	1	0.263625
30.916667	1	0.285750
30.933333	1	0.309000
30.950000	1	0.335625
30.966667	1	0.363750
30.983333	1	0.395125
31.000000	1	0.429375
31.016667	1	0.466750
31.033333	1	0.508125
31.050000	1	0.553500
31.066667	1	0.603625
31.083333	1	0.658375
31.100000	1	0.717500
31.116667	1	0.782250
31.133333	1	0.852500
31.150000	1	0.928375
31.166667	1	1.009125
31.183333	1	1.095875
31.200000	1	1.188375
31.216667	1	1.286125
31.233333	1	1.388875
31.250000	1	1.496250
31.266667	1	1.607500
31.283333	1	1.721500
31.300000	1	1.837375
31.316667	1	1.955375
31.333333	1	2.073000
31.350000	1	2.189375
31.366667	1	2.303875
31.383333	1	2.415250
31.400000	1	2.521500
31.416667	1	2.622500
31.433333	1	2.714875
31.450000	1	2.798125
31.466667	1	2.871000
31.483333	1	2.933375
31.500000	1	2.984625
31.516667	1	3.022500
31.533333	1	3.046875
31.550000	1	3.058000
31.566667	1	3.055625
31.583333	1	3.039625
31.600000	1	3.010750
31.616667	1	2.968750
31.633333	1	2.914500
31.650000	1	2.849500
31.666667	1	2.774375
31.683333	1	2.689250
31.700000	1	2.596625
31.716667	1	2.496875
31.733333	1	2.392250
31.750000	1	2.284375
31.766667	1	2.172375
31.783333	1	2.058750
31.800000	1	1.944375
31.816667	1	1.831125
31.833333	1	1.718875
31.850000	1	1.608500
31.866667	1	1.501375
31.883333	1	1.398375
31.900000	1	1.299500
31.916667	1	1.204375
31.933333	1	1.114875
31.950000	1	1.030375
31.966667	1	0.951000
31.983333	1	0.876125
32.000000	1	0.806875
32.016667	1	0.742000
32.033333	1	0.682000
32.050000	1	0.627125
32.066667	1	0.575500
32.083333	1	0.527625
32.100000	1	0.484375
32.116667	1	0.443500
32.133333	1	0.405750
32.150000	1	0.372375
32.166667	1	0.340500
32.183333	1	0.310750
32.200000	1	0.283125
32.216667	1	0.257375
32.233333	1	0.233000
32.250000	1	0.210000
32.266667	1	0.188750
32.283333	1	0.168875
32.300000	1	0.149875
32.316667	1	0.131500
32.333333	1	0.114125
32.350000	1	0.099125
32.366667	1	0.083375
32.383333	1	0.069250
32.400000	1	0.055875
32.416667	1	0.043750
32.433333	1	0.031875
32.450000	1	0.020500
32.466667	1	0.010000
32.483333	1	0.000375
32.500000	1	-0.008875
32.516667	1	-0.016500
32.533333	1	-0.023625
32.550000	1	-0.029625
32.566667	1	-0.035250
32.583333	1	-0.040000
32.600000	1	-0.044250
32.616667	1	-0.048250
32.633333	1	-0.051625
32.650000	1	-0.054875
32.666667	1	-0.057375
32.683333	1	-0.059500
32.700000	1	-0.061125
32.716667	1	-0.062750
32.733333	1	-0.063500
32.750000	1	-0.064000
32.766667	1	-0.064875
32.783333	1	-0.064875
32.800000	1	-0.065250
32.816667	1	-0.065000
32.833333	1	-0.064625
32.850000	1	-0.064500
32.866667	1	-0.063625
32.883333	1	-0.062875
32.900000	1	-0.062750
32.916667	1	-0.062375
32.933333	1	-0.062250
32.950000	1	-0.061750
32.966667	1	-0.060500
32.983333	1	-0.059000
33.000000	1	-0.059250
33.016667	1	-0.058375
33.033333	1	-0.058125
33.050000	1	-0.057500
33.066667	1	-0.057000
33.083333	1	-0.056500
33.100000	1	-0.055500
33.116667	1	-0.054750
33.133333	1	-0.054125
33.150000	1	-0.053250
33.166667	1	-0.051625
33.183333	1	-0.050250
33.200000	1	-0.048625
33.216667	1	-0.046875
33.233333	1	-0.045500
33.250000	1	-0.043500
33.266667	1	-0.041000
33.283333	1	-0.038625
33.300000	1	-0.035125
33.316667	1	-0.031750
33.333333	1	-0.027750
33.350000	1	-0.024250
33.366667	1	-0.019125
33.383333	1	-0.014250
33.400000	1	-0.008500
33.416667	1	-0.002125
33.433333	1	0.005125
33.450000	1	0.012000
33.466667	1	0.019875
33.483333	1	0.028750
33.500000	1	0.038750
33.516667	1	0.049375
33.533333	1	0.061500
33.550000	1	0.073875
33.566667	1	0.087625
33.583333	1	0.102000
33.600000	1	0.116875
33.616667	1	0.133500
33.633333	1	0.151125
33.650000	1	0.169875
33.666667	1	0.189875
33.683333	1	0.210250
33.700000	1	0.231000
33.716667	1	0.253000
33.733333	1	0.276500
33.750000	1	0.300875
33.766667	1	0.325000
33.783333	1	0.350250
33.800000	1	0.376000
33.816667	1	0.401875
33.833333	1	0.427125
33.850000	1	0.452125
33.866667	1	0.476500
33.883333	1	0.500750
33.900000	1	0.524250
33.916667	1	0.546125
33.933333	1	0.566875
33.950000	1	0.586000
33.966667	1	0.603625
33.983333	1	0.619125
34.000000	1	0.632500
34.016667	1	0.644125
34.033333	1	0.652750
34.050000	1	0.658750
34.066667	1	0.662250
34.083333	1	0.663250
34.100000	1	0.662625
34.116667	1	0.659125
34.133333	1	0.653125
34.150000	1	0.644250
34.166667	1	0.634000
34.183333	1	0.621250
34.200000	1	0.606875
34.216667	1	0.590750
34.233333	1	0.573125
34.250000	1	0.554125
34.266667	1	0.534250
34.283333	1	0.513750
34.300000	1	0.492500
34.316667	1	0.471250
34.333333	1	0.449625
34.350000	1	0.428250
34.366667	1	0.406750
34.383333	1	0.385000
34.400000	1	0.364250
34.416667	1	0.344000
34.433333	1	0.324000
34.450000	1	0.305375
34.466667	1	0.287625
34.483333	1	0.270750
34.500000	1	0.254125
34.516667	1	0.238750
34.533333	1	0.224375
34.550000	1	0.211125
34.566667	1	0.198125
34.583333	1	0.186250
34.600000	1	0.175500
34.616667	1	0.165125
34.633333	1	0.155750
34.650000	1	0.146625
34.666667	1	0.138000
34.683333	1	0.130250
34.700000	1	0.123375
34.716667	1	0.117000
34.733333	1	0.110625
34.750000	1	0.104625
34.766667	1	0.099375
34.783333	1	0.094375
34.800000	1	0.090250
34.816667	1	0.086125
34.833333	1	0.081500
34.850000	1	0.077000
34.866667	1	0.073750
34.883333	1	0.069875
34.900000	1	0.066000
34.916667	1	0.063000
34.933333	1	0.060750
34.950000	1	0.058625
34.966667	1	0.056125
34.983333	1	0.053500
35.000000	1	0.051625
35.016667	1	0.049750
35.033333	1	0.047625
35.050000	1	0.046125
35.066667	1	0.044250
35.083333	1	0.043375
35.100000	1	0.042375
35.116667	1	0.041250
35.133333	1	0.040750
35.150000	1	0.040125
35.166667	1	0.039000
35.183333	1	0.038875
35.200000	1	0.039125
35.216667	1	0.039375
35.233333	1	0.039875
35.250000	1	0.040000
35.266667	1	0.041000
35.283333	1	0.042125
35.300000	1	0.043125
35.316667	1	0.044500
35.333333	1	0.045250
35.350000	1	0.046875
35.366667	1	0.049250
35.383333	1	0.050750
35.400000	1	0.052500
35.416667	1	0.054625
35.433333	1	0.056875
35.450000	1	0.059250
35.466667	1	0.061375
35.483333	1	0.063000
35.500000	1	0.064750
35.516667	1	0.066500
35.533333	1	0.068125
35.550000	1	0.070625
35.566667	1	0.073000
35.583333	1	0.074625
35.600000	1	0.076250
35.616667	1	0.078375
35.633333	1	0.079250
35.650000	1	0.081125
35.666667	1	0.081625
35.683333	1	0.082250
35.700000	1	0.083250
35.716667	1	0.083625
35.733333	1	0.084125
35.750000	1	0.085250
35.766667	1	0.085625
35.783333	1	0.085500
35.800000	1	0.085125
35.816667	1	0.084750
35.833333	1	0.084250
35.850000	1	0.083625
35.866667	1	0.083000
35.883333	1	0.082250
35.900000	1	0.081375
35.916667	1	0.080125
35.933333	1	0.079750
35.950000	1	0.078250
35.966667	1	0.077125
35.983333	1	0.075750
36.000000	1	0.075125
36.016667	1	0.073375
36.033333	1	0.071250
36.050000	1	0.069750
36.066667	1	0.068375
36.083333	1	0.067250
36.100000	1	0.065625
36.116667	1	0.064250
36.133333	1	0.063875
36.150000	1	0.062250
36.166667	1	0.061500
36.183333	1	0.060375
36.200000	1	0.059125
36.216667	1	0.057625
36.233333	1	0.056375
36.250000	1	0.055125
36.266667	1	0.054125
36.283333	1	0.053250
36.300000	1	0.052250
36.316667	1	0.050875
36.333333	1	0.049625
36.350000	1	0.048375
36.366667	1	0.047875
36.383333	1	0.046875
36.400000	1	0.046375
36.416667	1	0.045250
36.433333	1	0.043625
36.450000	1	0.042250
36.466667	1	0.040500
36.483333	1	0.039125
36.500000	1	0.036875
36.516667	1	0.035875
36.533333	1	0.034250
36.550000	1	0.032875
36.566667	1	0.030375
36.583333	1	0.028250
36.600000	1	0.025875
36.616667	1	0.023250
36.633333	1	0.021000
36.650000	1	0.018375
36.666667	1	0.016125
36.683333	1	0.014250
36.700000	1	0.011875
36.716667	1	0.009875
36.733333	1	0.007000
36.750000	1	0.004625
36.766667	1	0.001750
36.783333	1	-0.000250
36.800000	1	-0.003125
36.816667	1	-0.005500
36.833333	1	-0.007625
36.850000	1	-0.009875
36.866667	1	-0.011500
36.883333	1	-0.013875
36.900000	1	-0.016250
36.916667	1	-0.018625
36.933333	1	-0.019500
36.950000	1	-0.021125
36.966667	1	-0.022250
36.983333	1	-0.024125
37.000000	1	-0.025500
37.016667	1	-0.026750
37.033333	1	-0.028375
37.050000	1	-0.029000
37.066667	1	-0.029500
37.083333	1	-0.029875
37.100000	1	-0.030375
37.116667	1	-0.030500
37.133333	1	-0.030125
37.150000	1	-0.030125
37.166667	1	-0.030750
37.183333	1	-0.031125
37.200000	1	-0.030875
37.216667	1	-0.030000
37.233333	1	-0.029875
37.250000	1	-0.029250
37.266667	1	-0.028625
37.283333	1	-0.027875
37.300000	1	-0.027250
37.316667	1	-0.026875
37.333333	1	-0.026750
37.350000	1	-0.025125
37.366667	1	-0.024250
37.383333	1	-0.023000
37.400000	1	-0.022375
37.416667	1	-0.021875
37.433333	1	-0.021250
37.450000	1	-0.021000
37.466667	1	-0.020625
37.483333	1	-0.019875
37.500000	1	-0.019875
37.516667	1	-0.019500
37.533333	1	-0.018750
37.550000	1	-0.018250
37.566667	1	-0.018125
37.583333	1	-0.018750
37.600000	1	-0.018875
37.616667	1	-0.019000
37.633333	1	-0.019250
37.650000	1	-0.019000
37.666667	1	-0.019875
37.683333	1	-0.020375
37.700000	1	-0.020500
37.716667	1	-0.020250
37.733333	1	-0.020750
37.750000	1	-0.021375
37.766667	1	-0.022750
37.783333	1	-0.023250
37.800000	1	-0.024125
37.816667	1	-0.025000
37.833333	1	-0.025250
37.850000	1	-0.025750
37.866667	1	-0.026500
37.883333	1	-0.026875
37.900000	1	-0.026750
37.916667	1	-0.027125
37.933333	1	-0.027125
37.950000	1	-0.027750
37.966667	1	-0.027750
37.983333	1	-0.027375
38.000000	1	-0.027125
38.016667	1	-0.026375
38.033333	1	-0.025500
38.050000	1	-0.024875
38.066667	1	-0.023750
38.083333	1	-0.022125
38.100000	1	-0.020750
38.116667	1	-0.019000
38.133333	1	-0.017625
38.150000	1	-0.016500
38.166667	1	-0.014625
38.183333	1	-0.012875
38.200000	1	-0.010625
38.216667	1	-0.008375
38.233333	1	-0.007000
38.250000	1	-0.005000
38.266667	1	-0.003250
38.283333	1	-0.000875
38.300000	1	0.001625
38.316667	1	0.003375
38.333333	1	0.005125
38.350000	1	0.007000
38.366667	1	0.008125
38.383333	1	0.009375
38.400000	1	0.010750
38.416667	1	0.011750
38.433333	1	0.012625
38.450000	1	0.013500
38.466667	1	0.014125
38.483333	1	0.014875
38.500000	1	0.015375
38.516667	1	0.015375
38.533333	1	0.015875
38.550000	1	0.015875
38.566667	1	0.015750
38.583333	1	0.014875
38.600000	1	0.013875
38.616667	1	0.012250
38.633333	1	0.011000
38.650000	1	0.010875
38.666667	1	0.010125
38.683333	1	0.009000
38.700000	1	0.007875
38.716667	1	0.007125
38.733333	1	0.006125
38.750000	1	0.005375
38.766667	1	0.004500
38.783333	1	0.003250
38.800000	1	0.002875
38.816667	1	0.002000
38.833333	1	0.001375
38.850000	1	0.000625
38.866667	1	-0.000875
38.883333	1	-0.001375
38.900000	1	-0.002625
38.916667	1	-0.003750
38.933333	1	-0.004625
38.950000	1	-0.005625
38.966667	1	-0.007000
38.983333	1	-0.008125
39.000000	1	-0.010250
39.016667	1	-0.011125
39.033333	1	-0.012875
39.050000	1	-0.014750
39.066667	1	-0.016625
39.083333	1	-0.018625
39.100000	1	-0.020375
39.116667	1	-0.022750
39.133333	1	-0.024875
39.150000	1	-0.027125
39.166667	1	-0.029000
39.183333	1	-0.031875
39.200000	1	-0.034625
39.216667	1	-0.037375
39.233333	1	-0.039250
39.250000	1	-0.041875
39.266667	1	-0.044000
39.283333	1	-0.046125
39.300000	1	-0.048625
39.316667	1	-0.050375
39.333333	1	-0.052875
39.350000	1	-0.054625
39.366667	1	-0.056500
39.383333	1	-0.057875
39.400000	1	-0.059500
39.416667	1	-0.060875
39.433333	1	-0.061000
39.450000	1	-0.061500
39.466667	1	-0.062125
39.483333	1	-0.062125
39.500000	1	-0.062500
39.516667	1	-0.062375
39.533333	1	-0.062250
39.550000	1	-0.061500
39.566667	1	-0.060875
39.583333	1	-0.059750
39.600000	1	-0.058875
39.616667	1	-0.057750
39.633333	1	-0.056250
39.650000	1	-0.054500
39.666667	1	-0.053250
39.683333	1	-0.051875
39.700000	1	-0.050375
39.716667	1	-0.048875
39.733333	1	-0.047125
39.750000	1	-0.045750
39.766667	1	-0.044125
39.783333	1	-0.042250
39.800000	1	-0.040625
39.816667	1	-0.039750
39.833333	1	-0.037875
39.850000	1	-0.036125
39.866667	1	-0.034500
39.883333	1	-0.033500
39.900000	1	-0.032500
39.916667	1	-0.032000
39.933333	1	-0.030250
39.950000	1	-0.029125
39.966667	1	-0.028375
39.983333	1	-0.027250
40.000000	1	-0.027125
