URL	chrom://bioreactor/micro_cm7/HPLC_Ultimate_3000/Users/markusar/20240716_MA_pHrange2.seq/632.smp/RI_1.channel/RI_1.chm
Channel	RI_1

Injection Information:
Data Vault	micro_cm7
Sequence	20240716_MA_pHrange2
Name	Fp1_25H_4
Number	49
Position	BE1
Comment	
Processing Method	
Instrument Method	run_25B_method
Type	Unknown
Status	Finished
Inject Time	18.07.2024 02:52:57 +02:00
Volume (µl)	20.0000
Dilution Factor	1.0000
Weight	1.0000

Chromatogram Data Information:
Time Min. (min)	0.000000
Time Max. (min)	40.000000
Data Points	2401
Detector	RI
Generating Data System	Chromeleon 7.3.2.11814
Exporting Data System	Chromeleon 7.3.2.0
Operator	Instrument Controller
Signal Quantity	Refractive 
Signal Unit	µRIU
Signal Min.	-0.019000
Signal Max.	83.564875
Channel	RI_1
Driver Name	RID520Driver.dll
Channel Type	Evaluation
Min. Step (s)	1
Max. Step (s)	1
Average Step (s)	1

Signal Parameter Information:
Signal Info	

Chromatogram Data:
Time (min)	Step (s)	Value (µRIU)
0.000000	n.a.	0.054375
0.016667	1	0.054125
0.033333	1	0.054000
0.050000	1	0.053625
0.066667	1	0.053625
0.083333	1	0.053000
0.100000	1	0.053375
0.116667	1	0.053125
0.133333	1	0.052750
0.150000	1	0.052500
0.166667	1	0.052000
0.183333	1	0.051375
0.200000	1	0.051125
0.216667	1	0.050750
0.233333	1	0.050625
0.250000	1	0.050125
0.266667	1	0.049750
0.283333	1	0.049375
0.300000	1	0.049125
0.316667	1	0.049125
0.333333	1	0.049000
0.350000	1	0.048625
0.366667	1	0.048125
0.383333	1	0.047125
0.400000	1	0.046625
0.416667	1	0.045875
0.433333	1	0.046625
0.450000	1	0.048125
0.466667	1	0.049875
0.483333	1	0.051625
0.500000	1	0.053250
0.516667	1	0.054500
0.533333	1	0.055125
0.550000	1	0.055750
0.566667	1	0.055125
0.583333	1	0.053500
0.600000	1	0.052500
0.616667	1	0.052000
0.633333	1	0.052250
0.650000	1	0.052500
0.666667	1	0.053000
0.683333	1	0.053000
0.700000	1	0.053625
0.716667	1	0.054250
0.733333	1	0.054625
0.750000	1	0.055125
0.766667	1	0.055875
0.783333	1	0.056875
0.800000	1	0.058000
0.816667	1	0.058875
0.833333	1	0.059750
0.850000	1	0.060500
0.866667	1	0.061250
0.883333	1	0.061625
0.900000	1	0.062125
0.916667	1	0.062750
0.933333	1	0.063375
0.950000	1	0.064500
0.966667	1	0.065125
0.983333	1	0.065625
1.000000	1	0.065875
1.016667	1	0.066000
1.033333	1	0.066750
1.050000	1	0.066625
1.066667	1	0.067750
1.083333	1	0.068500
1.100000	1	0.069625
1.116667	1	0.070375
1.133333	1	0.071250
1.150000	1	0.072250
1.166667	1	0.072750
1.183333	1	0.073625
1.200000	1	0.075000
1.216667	1	0.075875
1.233333	1	0.076500
1.250000	1	0.076875
1.266667	1	0.077250
1.283333	1	0.078375
1.300000	1	0.079375
1.316667	1	0.080125
1.333333	1	0.080875
1.350000	1	0.081750
1.366667	1	0.082250
1.383333	1	0.082625
1.400000	1	0.082625
1.416667	1	0.082000
1.433333	1	0.082625
1.450000	1	0.083000
1.466667	1	0.083250
1.483333	1	0.083500
1.500000	1	0.083375
1.516667	1	0.082875
1.533333	1	0.082250
1.550000	1	0.081250
1.566667	1	0.080250
1.583333	1	0.079750
1.600000	1	0.078750
1.616667	1	0.078375
1.633333	1	0.077375
1.650000	1	0.076500
1.666667	1	0.075375
1.683333	1	0.073875
1.700000	1	0.072875
1.716667	1	0.071875
1.733333	1	0.071000
1.750000	1	0.070750
1.766667	1	0.069500
1.783333	1	0.068250
1.800000	1	0.067500
1.816667	1	0.066750
1.833333	1	0.066375
1.850000	1	0.066125
1.866667	1	0.065750
1.883333	1	0.065000
1.900000	1	0.064625
1.916667	1	0.064000
1.933333	1	0.063000
1.950000	1	0.062375
1.966667	1	0.062125
1.983333	1	0.061750
2.000000	1	0.061750
2.016667	1	0.061500
2.033333	1	0.061250
2.050000	1	0.061250
2.066667	1	0.061125
2.083333	1	0.060875
2.100000	1	0.060250
2.116667	1	0.059875
2.133333	1	0.059375
2.150000	1	0.059375
2.166667	1	0.059375
2.183333	1	0.059125
2.200000	1	0.058750
2.216667	1	0.058500
2.233333	1	0.058000
2.250000	1	0.056875
2.266667	1	0.056250
2.283333	1	0.056750
2.300000	1	0.056125
2.316667	1	0.055375
2.333333	1	0.055125
2.350000	1	0.054500
2.366667	1	0.054250
2.383333	1	0.053250
2.400000	1	0.052375
2.416667	1	0.051250
2.433333	1	0.050625
2.450000	1	0.050125
2.466667	1	0.049500
2.483333	1	0.048625
2.500000	1	0.047875
2.516667	1	0.047000
2.533333	1	0.046500
2.550000	1	0.046250
2.566667	1	0.045250
2.583333	1	0.044875
2.600000	1	0.044625
2.616667	1	0.044125
2.633333	1	0.043750
2.650000	1	0.042875
2.666667	1	0.042500
2.683333	1	0.042375
2.700000	1	0.042250
2.716667	1	0.042125
2.733333	1	0.042000
2.750000	1	0.041250
2.766667	1	0.041500
2.783333	1	0.041500
2.800000	1	0.041625
2.816667	1	0.042875
2.833333	1	0.043875
2.850000	1	0.044000
2.866667	1	0.044250
2.883333	1	0.043875
2.900000	1	0.043875
2.916667	1	0.044875
2.933333	1	0.045500
2.950000	1	0.046125
2.966667	1	0.047250
2.983333	1	0.048125
3.000000	1	0.049375
3.016667	1	0.050250
3.033333	1	0.051625
3.050000	1	0.052500
3.066667	1	0.053250
3.083333	1	0.054375
3.100000	1	0.055750
3.116667	1	0.057250
3.133333	1	0.058375
3.150000	1	0.059500
3.166667	1	0.060750
3.183333	1	0.061625
3.200000	1	0.063000
3.216667	1	0.064250
3.233333	1	0.065125
3.250000	1	0.067250
3.266667	1	0.068375
3.283333	1	0.070125
3.300000	1	0.071375
3.316667	1	0.072875
3.333333	1	0.074250
3.350000	1	0.075750
3.366667	1	0.077375
3.383333	1	0.079125
3.400000	1	0.080625
3.416667	1	0.082375
3.433333	1	0.083750
3.450000	1	0.085625
3.466667	1	0.086875
3.483333	1	0.088250
3.500000	1	0.090500
3.516667	1	0.092375
3.533333	1	0.094000
3.550000	1	0.096500
3.566667	1	0.097625
3.583333	1	0.099375
3.600000	1	0.101000
3.616667	1	0.102875
3.633333	1	0.104625
3.650000	1	0.105625
3.666667	1	0.107250
3.683333	1	0.108125
3.700000	1	0.109375
3.716667	1	0.110625
3.733333	1	0.111625
3.750000	1	0.112250
3.766667	1	0.113500
3.783333	1	0.115500
3.800000	1	0.117000
3.816667	1	0.118250
3.833333	1	0.119000
3.850000	1	0.119375
3.866667	1	0.120375
3.883333	1	0.120750
3.900000	1	0.121250
3.916667	1	0.121875
3.933333	1	0.123000
3.950000	1	0.123375
3.966667	1	0.124375
3.983333	1	0.124750
4.000000	1	0.125125
4.016667	1	0.126000
4.033333	1	0.126875
4.050000	1	0.127375
4.066667	1	0.128250
4.083333	1	0.128750
4.100000	1	0.129125
4.116667	1	0.130250
4.133333	1	0.131000
4.150000	1	0.132250
4.166667	1	0.133000
4.183333	1	0.134000
4.200000	1	0.134750
4.216667	1	0.136625
4.233333	1	0.137375
4.250000	1	0.138500
4.266667	1	0.139500
4.283333	1	0.141000
4.300000	1	0.142250
4.316667	1	0.144625
4.333333	1	0.146000
4.350000	1	0.147250
4.366667	1	0.149375
4.383333	1	0.150625
4.400000	1	0.152625
4.416667	1	0.154250
4.433333	1	0.156500
4.450000	1	0.158750
4.466667	1	0.160750
4.483333	1	0.163125
4.500000	1	0.165125
4.516667	1	0.166625
4.533333	1	0.168750
4.550000	1	0.171375
4.566667	1	0.173750
4.583333	1	0.175875
4.600000	1	0.178250
4.616667	1	0.181375
4.633333	1	0.184000
4.650000	1	0.186500
4.666667	1	0.188750
4.683333	1	0.190625
4.700000	1	0.193875
4.716667	1	0.196750
4.733333	1	0.198875
4.750000	1	0.201250
4.766667	1	0.204250
4.783333	1	0.206750
4.800000	1	0.209375
4.816667	1	0.212625
4.833333	1	0.215000
4.850000	1	0.217750
4.866667	1	0.220250
4.883333	1	0.223000
4.900000	1	0.226500
4.916667	1	0.229500
4.933333	1	0.232125
4.950000	1	0.234750
4.966667	1	0.237500
4.983333	1	0.240000
5.000000	1	0.242625
5.016667	1	0.245500
5.033333	1	0.248250
5.050000	1	0.250875
5.066667	1	0.253250
5.083333	1	0.256375
5.100000	1	0.259125
5.116667	1	0.261625
5.133333	1	0.263750
5.150000	1	0.265750
5.166667	1	0.267500
5.183333	1	0.269125
5.200000	1	0.271250
5.216667	1	0.272375
5.233333	1	0.273500
5.250000	1	0.274625
5.266667	1	0.275625
5.283333	1	0.275625
5.300000	1	0.276000
5.316667	1	0.276000
5.333333	1	0.276500
5.350000	1	0.276250
5.366667	1	0.275250
5.383333	1	0.274625
5.400000	1	0.273750
5.416667	1	0.272875
5.433333	1	0.271125
5.450000	1	0.269625
5.466667	1	0.267625
5.483333	1	0.264625
5.500000	1	0.261750
5.516667	1	0.258875
5.533333	1	0.255875
5.550000	1	0.252250
5.566667	1	0.248875
5.583333	1	0.246000
5.600000	1	0.242000
5.616667	1	0.238000
5.633333	1	0.234000
5.650000	1	0.229625
5.666667	1	0.225500
5.683333	1	0.220375
5.700000	1	0.215500
5.716667	1	0.210875
5.733333	1	0.206750
5.750000	1	0.201875
5.766667	1	0.197500
5.783333	1	0.193250
5.800000	1	0.189625
5.816667	1	0.185750
5.833333	1	0.181250
5.850000	1	0.177000
5.866667	1	0.172875
5.883333	1	0.169125
5.900000	1	0.165500
5.916667	1	0.161750
5.933333	1	0.158250
5.950000	1	0.154875
5.966667	1	0.151625
5.983333	1	0.148625
6.000000	1	0.145375
6.016667	1	0.142500
6.033333	1	0.139875
6.050000	1	0.137125
6.066667	1	0.134000
6.083333	1	0.131750
6.100000	1	0.129000
6.116667	1	0.126750
6.133333	1	0.123875
6.150000	1	0.121875
6.166667	1	0.120375
6.183333	1	0.118625
6.200000	1	0.117125
6.216667	1	0.115750
6.233333	1	0.113750
6.250000	1	0.112000
6.266667	1	0.110750
6.283333	1	0.109250
6.300000	1	0.107750
6.316667	1	0.105875
6.333333	1	0.104625
6.350000	1	0.102750
6.366667	1	0.102500
6.383333	1	0.101875
6.400000	1	0.100875
6.416667	1	0.100000
6.433333	1	0.099125
6.450000	1	0.098250
6.466667	1	0.097500
6.483333	1	0.096875
6.500000	1	0.097375
6.516667	1	0.096750
6.533333	1	0.096000
6.550000	1	0.095250
6.566667	1	0.095125
6.583333	1	0.095250
6.600000	1	0.096500
6.616667	1	0.097250
6.633333	1	0.097875
6.650000	1	0.098250
6.666667	1	0.098875
6.683333	1	0.099750
6.700000	1	0.100875
6.716667	1	0.102250
6.733333	1	0.103750
6.750000	1	0.105500
6.766667	1	0.107625
6.783333	1	0.109625
6.800000	1	0.111875
6.816667	1	0.113875
6.833333	1	0.116250
6.850000	1	0.119125
6.866667	1	0.122625
6.883333	1	0.125125
6.900000	1	0.128000
6.916667	1	0.130625
6.933333	1	0.133125
6.950000	1	0.135875
6.966667	1	0.138875
6.983333	1	0.140750
7.000000	1	0.143750
7.016667	1	0.147000
7.033333	1	0.149625
7.050000	1	0.151750
7.066667	1	0.154125
7.083333	1	0.156000
7.100000	1	0.158500
7.116667	1	0.160500
7.133333	1	0.161625
7.150000	1	0.162875
7.166667	1	0.164125
7.183333	1	0.165750
7.200000	1	0.167125
7.216667	1	0.167000
7.233333	1	0.167125
7.250000	1	0.166875
7.266667	1	0.167000
7.283333	1	0.166125
7.300000	1	0.164875
7.316667	1	0.163875
7.333333	1	0.162250
7.350000	1	0.161375
7.366667	1	0.159000
7.383333	1	0.156875
7.400000	1	0.154875
7.416667	1	0.153125
7.433333	1	0.150875
7.450000	1	0.148250
7.466667	1	0.145625
7.483333	1	0.141500
7.500000	1	0.138625
7.516667	1	0.135375
7.533333	1	0.132000
7.550000	1	0.128625
7.566667	1	0.125625
7.583333	1	0.122000
7.600000	1	0.118375
7.616667	1	0.114875
7.633333	1	0.111000
7.650000	1	0.107125
7.666667	1	0.102750
7.683333	1	0.098750
7.700000	1	0.095375
7.716667	1	0.091500
7.733333	1	0.087750
7.750000	1	0.084375
7.766667	1	0.080125
7.783333	1	0.075875
7.800000	1	0.071750
7.816667	1	0.068625
7.833333	1	0.065125
7.850000	1	0.061625
7.866667	1	0.058000
7.883333	1	0.055125
7.900000	1	0.052375
7.916667	1	0.049250
7.933333	1	0.046000
7.950000	1	0.043250
7.966667	1	0.040875
7.983333	1	0.038000
8.000000	1	0.035250
8.016667	1	0.032250
8.033333	1	0.030125
8.050000	1	0.027875
8.066667	1	0.026250
8.083333	1	0.024500
8.100000	1	0.022250
8.116667	1	0.019750
8.133333	1	0.018750
8.150000	1	0.017250
8.166667	1	0.016125
8.183333	1	0.015375
8.200000	1	0.014500
8.216667	1	0.013375
8.233333	1	0.012500
8.250000	1	0.011500
8.266667	1	0.010625
8.283333	1	0.009250
8.300000	1	0.008875
8.316667	1	0.008500
8.333333	1	0.009125
8.350000	1	0.009250
8.366667	1	0.009125
8.383333	1	0.009500
8.400000	1	0.009750
8.416667	1	0.010000
8.433333	1	0.010875
8.450000	1	0.011250
8.466667	1	0.011875
8.483333	1	0.012375
8.500000	1	0.012375
8.516667	1	0.013000
8.533333	1	0.014000
8.550000	1	0.015375
8.566667	1	0.015750
8.583333	1	0.016250
8.600000	1	0.017000
8.616667	1	0.017625
8.633333	1	0.018875
8.650000	1	0.020000
8.666667	1	0.020750
8.683333	1	0.021625
8.700000	1	0.022750
8.716667	1	0.023375
8.733333	1	0.024500
8.750000	1	0.025250
8.766667	1	0.026875
8.783333	1	0.027375
8.800000	1	0.028000
8.816667	1	0.029250
8.833333	1	0.030250
8.850000	1	0.030625
8.866667	1	0.031250
8.883333	1	0.032375
8.900000	1	0.033125
8.916667	1	0.033875
8.933333	1	0.034375
8.950000	1	0.035125
8.966667	1	0.035875
8.983333	1	0.036625
9.000000	1	0.037625
9.016667	1	0.038500
9.033333	1	0.038750
9.050000	1	0.039375
9.066667	1	0.040375
9.083333	1	0.040750
9.100000	1	0.041375
9.116667	1	0.040875
9.133333	1	0.040875
9.150000	1	0.040875
9.166667	1	0.040875
9.183333	1	0.040500
9.200000	1	0.040250
9.216667	1	0.039375
9.233333	1	0.038500
9.250000	1	0.037625
9.266667	1	0.037000
9.283333	1	0.036375
9.300000	1	0.035750
9.316667	1	0.034500
9.333333	1	0.032875
9.350000	1	0.031500
9.366667	1	0.030875
9.383333	1	0.028875
9.400000	1	0.026625
9.416667	1	0.025000
9.433333	1	0.022875
9.450000	1	0.020000
9.466667	1	0.018125
9.483333	1	0.016250
9.500000	1	0.014875
9.516667	1	0.012250
9.533333	1	0.010375
9.550000	1	0.008375
9.566667	1	0.006250
9.583333	1	0.004875
9.600000	1	0.003000
9.616667	1	0.001000
9.633333	1	0.000000
9.650000	1	-0.001250
9.666667	1	-0.002750
9.683333	1	-0.003875
9.700000	1	-0.004875
9.716667	1	-0.006125
9.733333	1	-0.006375
9.750000	1	-0.006250
9.766667	1	-0.006875
9.783333	1	-0.007375
9.800000	1	-0.007625
9.816667	1	-0.008000
9.833333	1	-0.008250
9.850000	1	-0.008250
9.866667	1	-0.008625
9.883333	1	-0.008000
9.900000	1	-0.007000
9.916667	1	-0.007250
9.933333	1	-0.006750
9.950000	1	-0.005625
9.966667	1	-0.004375
9.983333	1	-0.004250
10.000000	1	-0.003500
10.016667	1	-0.002500
10.033333	1	-0.001375
10.050000	1	0.000000
10.066667	1	0.001250
10.083333	1	0.003750
10.100000	1	0.006375
10.116667	1	0.009750
10.133333	1	0.013875
10.150000	1	0.019125
10.166667	1	0.024000
10.183333	1	0.029500
10.200000	1	0.036875
10.216667	1	0.045500
10.233333	1	0.054375
10.250000	1	0.065000
10.266667	1	0.077625
10.283333	1	0.091875
10.300000	1	0.107875
10.316667	1	0.125000
10.333333	1	0.142875
10.350000	1	0.160250
10.366667	1	0.174625
10.383333	1	0.182375
10.400000	1	0.180500
10.416667	1	0.164250
10.433333	1	0.131625
10.450000	1	0.085125
10.466667	1	0.032500
10.483333	1	-0.010500
10.500000	1	-0.019000
10.516667	1	0.044875
10.533333	1	0.225750
10.550000	1	0.577000
10.566667	1	1.155750
10.583333	1	2.019750
10.600000	1	3.223375
10.616667	1	4.811750
10.633333	1	6.819000
10.650000	1	9.265625
10.666667	1	12.166875
10.683333	1	15.525875
10.700000	1	19.334125
10.716667	1	23.573875
10.733333	1	28.214500
10.750000	1	33.218625
10.766667	1	38.531375
10.783333	1	44.098375
10.800000	1	49.852250
10.816667	1	55.703375
10.833333	1	61.533125
10.850000	1	67.174125
10.866667	1	72.394000
10.883333	1	76.851750
10.900000	1	80.095375
10.916667	1	81.598750
10.933333	1	80.866000
10.950000	1	77.607500
10.966667	1	71.908375
10.983333	1	64.272875
11.000000	1	55.510000
11.016667	1	46.509750
11.033333	1	38.016750
11.050000	1	30.494625
11.066667	1	24.141375
11.083333	1	18.963750
11.100000	1	14.854125
11.116667	1	11.658500
11.133333	1	9.211500
11.150000	1	7.357500
11.166667	1	5.963250
11.183333	1	4.917500
11.200000	1	4.132625
11.216667	1	3.540750
11.233333	1	3.090750
11.250000	1	2.745750
11.266667	1	2.477750
11.283333	1	2.266625
11.300000	1	2.097125
11.316667	1	1.957875
11.333333	1	1.841875
11.350000	1	1.743250
11.366667	1	1.658375
11.383333	1	1.583250
11.400000	1	1.516500
11.416667	1	1.457000
11.433333	1	1.404250
11.450000	1	1.356750
11.466667	1	1.314875
11.483333	1	1.278250
11.500000	1	1.246750
11.516667	1	1.219375
11.533333	1	1.196875
11.550000	1	1.179125
11.566667	1	1.165750
11.583333	1	1.157250
11.600000	1	1.153125
11.616667	1	1.153375
11.633333	1	1.157500
11.650000	1	1.166375
11.666667	1	1.179250
11.683333	1	1.196250
11.700000	1	1.215750
11.716667	1	1.238125
11.733333	1	1.262375
11.750000	1	1.286375
11.766667	1	1.310000
11.783333	1	1.331250
11.800000	1	1.348875
11.816667	1	1.362625
11.833333	1	1.371250
11.850000	1	1.375000
11.866667	1	1.373375
11.883333	1	1.366500
11.900000	1	1.355000
11.916667	1	1.340125
11.933333	1	1.321750
11.950000	1	1.301750
11.966667	1	1.281125
11.983333	1	1.260375
12.000000	1	1.240625
12.016667	1	1.222250
12.033333	1	1.204750
12.050000	1	1.190000
12.066667	1	1.177000
12.083333	1	1.166125
12.100000	1	1.156250
12.116667	1	1.148000
12.133333	1	1.141500
12.150000	1	1.135875
12.166667	1	1.132500
12.183333	1	1.130125
12.200000	1	1.129125
12.216667	1	1.130000
12.233333	1	1.133000
12.250000	1	1.138000
12.266667	1	1.145625
12.283333	1	1.158375
12.300000	1	1.177875
12.316667	1	1.207000
12.333333	1	1.249875
12.350000	1	1.312500
12.366667	1	1.403250
12.383333	1	1.531500
12.400000	1	1.713000
12.416667	1	1.963875
12.433333	1	2.308750
12.450000	1	2.776250
12.466667	1	3.402375
12.483333	1	4.229500
12.500000	1	5.305625
12.516667	1	6.686250
12.533333	1	8.426500
12.550000	1	10.586500
12.566667	1	13.222750
12.583333	1	16.383375
12.600000	1	20.097625
12.616667	1	24.371875
12.633333	1	29.189750
12.650000	1	34.499750
12.666667	1	40.209875
12.683333	1	46.180750
12.700000	1	52.226375
12.716667	1	58.125750
12.733333	1	63.637125
12.750000	1	68.510750
12.766667	1	72.514625
12.783333	1	75.454375
12.800000	1	77.196875
12.816667	1	77.683000
12.833333	1	76.932000
12.850000	1	75.033250
12.866667	1	72.146625
12.883333	1	68.482000
12.900000	1	64.283625
12.916667	1	59.797875
12.933333	1	55.259625
12.950000	1	50.870750
12.966667	1	46.789125
12.983333	1	43.127750
13.000000	1	39.955375
13.016667	1	37.297875
13.033333	1	35.148625
13.050000	1	33.479250
13.066667	1	32.247875
13.083333	1	31.405875
13.100000	1	30.901125
13.116667	1	30.686500
13.133333	1	30.714375
13.150000	1	30.943750
13.166667	1	31.338500
13.183333	1	31.869500
13.200000	1	32.511000
13.216667	1	33.244750
13.233333	1	34.055750
13.250000	1	34.932250
13.266667	1	35.863500
13.283333	1	36.843625
13.300000	1	37.865125
13.316667	1	38.925750
13.333333	1	40.021875
13.350000	1	41.150500
13.366667	1	42.309625
13.383333	1	43.498875
13.400000	1	44.716875
13.416667	1	45.963250
13.433333	1	47.238625
13.450000	1	48.544500
13.466667	1	49.880500
13.483333	1	51.246125
13.500000	1	52.643125
13.516667	1	54.069875
13.533333	1	55.526500
13.550000	1	57.013375
13.566667	1	58.531500
13.583333	1	60.081500
13.600000	1	61.662000
13.616667	1	63.274250
13.633333	1	64.922000
13.650000	1	66.605000
13.666667	1	68.324875
13.683333	1	70.081375
13.700000	1	71.874750
13.716667	1	73.705250
13.733333	1	75.570875
13.750000	1	77.461625
13.766667	1	79.332000
13.783333	1	81.074000
13.800000	1	82.500000
13.816667	1	83.391125
13.833333	1	83.564875
13.850000	1	82.925000
13.866667	1	81.434375
13.883333	1	79.043250
13.900000	1	75.617875
13.916667	1	70.952750
13.933333	1	64.874500
13.950000	1	57.438750
13.966667	1	49.082875
13.983333	1	40.563375
14.000000	1	32.658250
14.016667	1	25.884750
14.033333	1	20.413500
14.050000	1	16.156250
14.066667	1	12.911875
14.083333	1	10.470250
14.100000	1	8.648000
14.116667	1	7.299250
14.133333	1	6.306250
14.150000	1	5.574375
14.166667	1	5.032250
14.183333	1	4.625750
14.200000	1	4.315875
14.216667	1	4.075375
14.233333	1	3.883250
14.250000	1	3.726625
14.266667	1	3.596000
14.283333	1	3.483875
14.300000	1	3.385500
14.316667	1	3.299875
14.333333	1	3.223250
14.350000	1	3.153625
14.366667	1	3.090125
14.383333	1	3.031500
14.400000	1	2.977125
14.416667	1	2.927875
14.433333	1	2.881375
14.450000	1	2.839375
14.466667	1	2.799750
14.483333	1	2.762875
14.500000	1	2.728625
14.516667	1	2.696375
14.533333	1	2.666000
14.550000	1	2.637375
14.566667	1	2.609750
14.583333	1	2.583000
14.600000	1	2.557000
14.616667	1	2.531500
14.633333	1	2.506125
14.650000	1	2.480625
14.666667	1	2.455375
14.683333	1	2.429125
14.700000	1	2.402125
14.716667	1	2.375250
14.733333	1	2.346750
14.750000	1	2.318125
14.766667	1	2.289000
14.783333	1	2.260125
14.800000	1	2.231625
14.816667	1	2.202875
14.833333	1	2.174750
14.850000	1	2.145875
14.866667	1	2.117250
14.883333	1	2.089250
14.900000	1	2.061750
14.916667	1	2.034250
14.933333	1	2.007625
14.950000	1	1.981750
14.966667	1	1.955500
14.983333	1	1.929875
15.000000	1	1.904625
15.016667	1	1.880125
15.033333	1	1.856000
15.050000	1	1.831875
15.066667	1	1.808500
15.083333	1	1.785625
15.100000	1	1.763500
15.116667	1	1.742875
15.133333	1	1.722500
15.150000	1	1.703875
15.166667	1	1.685875
15.183333	1	1.668750
15.200000	1	1.653375
15.216667	1	1.639000
15.233333	1	1.626500
15.250000	1	1.615750
15.266667	1	1.606250
15.283333	1	1.599000
15.300000	1	1.594000
15.316667	1	1.591500
15.333333	1	1.591000
15.350000	1	1.594250
15.366667	1	1.600875
15.383333	1	1.610625
15.400000	1	1.624375
15.416667	1	1.641375
15.433333	1	1.662125
15.450000	1	1.687375
15.466667	1	1.715125
15.483333	1	1.744625
15.500000	1	1.774625
15.516667	1	1.805250
15.533333	1	1.834000
15.550000	1	1.859375
15.566667	1	1.880375
15.583333	1	1.894625
15.600000	1	1.903125
15.616667	1	1.903125
15.633333	1	1.895625
15.650000	1	1.879875
15.666667	1	1.857250
15.683333	1	1.828000
15.700000	1	1.794375
15.716667	1	1.757375
15.733333	1	1.719000
15.750000	1	1.679875
15.766667	1	1.640750
15.783333	1	1.602625
15.800000	1	1.565750
15.816667	1	1.531125
15.833333	1	1.497875
15.850000	1	1.466500
15.866667	1	1.436375
15.883333	1	1.407500
15.900000	1	1.379750
15.916667	1	1.354000
15.933333	1	1.328375
15.950000	1	1.304375
15.966667	1	1.282000
15.983333	1	1.260125
16.000000	1	1.241625
16.016667	1	1.224750
16.033333	1	1.210125
16.050000	1	1.197250
16.066667	1	1.186875
16.083333	1	1.178125
16.100000	1	1.171500
16.116667	1	1.166875
16.133333	1	1.163125
16.150000	1	1.159750
16.166667	1	1.159125
16.183333	1	1.158375
16.200000	1	1.158375
16.216667	1	1.158750
16.233333	1	1.159125
16.250000	1	1.159000
16.266667	1	1.158250
16.283333	1	1.157875
16.300000	1	1.156375
16.316667	1	1.154000
16.333333	1	1.151125
16.350000	1	1.147500
16.366667	1	1.143625
16.383333	1	1.140625
16.400000	1	1.136000
16.416667	1	1.130875
16.433333	1	1.125625
16.450000	1	1.120500
16.466667	1	1.115875
16.483333	1	1.111875
16.500000	1	1.108500
16.516667	1	1.106875
16.533333	1	1.105375
16.550000	1	1.105000
16.566667	1	1.105875
16.583333	1	1.108125
16.600000	1	1.112250
16.616667	1	1.116625
16.633333	1	1.121750
16.650000	1	1.128000
16.666667	1	1.133750
16.683333	1	1.139375
16.700000	1	1.144500
16.716667	1	1.148750
16.733333	1	1.152000
16.750000	1	1.154625
16.766667	1	1.156000
16.783333	1	1.156750
16.800000	1	1.156625
16.816667	1	1.156625
16.833333	1	1.156875
16.850000	1	1.157000
16.866667	1	1.157625
16.883333	1	1.158250
16.900000	1	1.158750
16.916667	1	1.159625
16.933333	1	1.160375
16.950000	1	1.161500
16.966667	1	1.162625
16.983333	1	1.163625
17.000000	1	1.163875
17.016667	1	1.163875
17.033333	1	1.163625
17.050000	1	1.162750
17.066667	1	1.161000
17.083333	1	1.158625
17.100000	1	1.156750
17.116667	1	1.155250
17.133333	1	1.154125
17.150000	1	1.153375
17.166667	1	1.152625
17.183333	1	1.153500
17.200000	1	1.155500
17.216667	1	1.158375
17.233333	1	1.161625
17.250000	1	1.166250
17.266667	1	1.172000
17.283333	1	1.178500
17.300000	1	1.186000
17.316667	1	1.193875
17.333333	1	1.201750
17.350000	1	1.210250
17.366667	1	1.219000
17.383333	1	1.227375
17.400000	1	1.236250
17.416667	1	1.244750
17.433333	1	1.251000
17.450000	1	1.256500
17.466667	1	1.260250
17.483333	1	1.263250
17.500000	1	1.264125
17.516667	1	1.262750
17.533333	1	1.259250
17.550000	1	1.253875
17.566667	1	1.246250
17.583333	1	1.236875
17.600000	1	1.225875
17.616667	1	1.212875
17.633333	1	1.198375
17.650000	1	1.183250
17.666667	1	1.166625
17.683333	1	1.149750
17.700000	1	1.131500
17.716667	1	1.113750
17.733333	1	1.096125
17.750000	1	1.079375
17.766667	1	1.062625
17.783333	1	1.046500
17.800000	1	1.031625
17.816667	1	1.016875
17.833333	1	1.003500
17.850000	1	0.989750
17.866667	1	0.978000
17.883333	1	0.966375
17.900000	1	0.956125
17.916667	1	0.945875
17.933333	1	0.936375
17.950000	1	0.927625
17.966667	1	0.919250
17.983333	1	0.911625
18.000000	1	0.903750
18.016667	1	0.896625
18.033333	1	0.890000
18.050000	1	0.883375
18.066667	1	0.876625
18.083333	1	0.870750
18.100000	1	0.864500
18.116667	1	0.857750
18.133333	1	0.851625
18.150000	1	0.845625
18.166667	1	0.839625
18.183333	1	0.833625
18.200000	1	0.828500
18.216667	1	0.822875
18.233333	1	0.818375
18.250000	1	0.814250
18.266667	1	0.810250
18.283333	1	0.807125
18.300000	1	0.804125
18.316667	1	0.801250
18.333333	1	0.799125
18.350000	1	0.798375
18.366667	1	0.798750
18.383333	1	0.799250
18.400000	1	0.800000
18.416667	1	0.801125
18.433333	1	0.803375
18.450000	1	0.806375
18.466667	1	0.810250
18.483333	1	0.814750
18.500000	1	0.820625
18.516667	1	0.827875
18.533333	1	0.836125
18.550000	1	0.846250
18.566667	1	0.858375
18.583333	1	0.873250
18.600000	1	0.889125
18.616667	1	0.907125
18.633333	1	0.927250
18.650000	1	0.949375
18.666667	1	0.974000
18.683333	1	0.999875
18.700000	1	1.027375
18.716667	1	1.057750
18.733333	1	1.088875
18.750000	1	1.121125
18.766667	1	1.153625
18.783333	1	1.188000
18.800000	1	1.222250
18.816667	1	1.256875
18.833333	1	1.290125
18.850000	1	1.322125
18.866667	1	1.351750
18.883333	1	1.378375
18.900000	1	1.401875
18.916667	1	1.421375
18.933333	1	1.437375
18.950000	1	1.447875
18.966667	1	1.453625
18.983333	1	1.452625
19.000000	1	1.445500
19.016667	1	1.431500
19.033333	1	1.411625
19.050000	1	1.386000
19.066667	1	1.354000
19.083333	1	1.316750
19.100000	1	1.276250
19.116667	1	1.232625
19.133333	1	1.186500
19.150000	1	1.138375
19.166667	1	1.089375
19.183333	1	1.041750
19.200000	1	0.994625
19.216667	1	0.950125
19.233333	1	0.908125
19.250000	1	0.870375
19.266667	1	0.836875
19.283333	1	0.807625
19.300000	1	0.783250
19.316667	1	0.763250
19.333333	1	0.748500
19.350000	1	0.739250
19.366667	1	0.733875
19.383333	1	0.733875
19.400000	1	0.738125
19.416667	1	0.746625
19.433333	1	0.759250
19.450000	1	0.775625
19.466667	1	0.795500
19.483333	1	0.818000
19.500000	1	0.843625
19.516667	1	0.870750
19.533333	1	0.900625
19.550000	1	0.930625
19.566667	1	0.960500
19.583333	1	0.988750
19.600000	1	1.016125
19.616667	1	1.040375
19.633333	1	1.061625
19.650000	1	1.078625
19.666667	1	1.091125
19.683333	1	1.098375
19.700000	1	1.100125
19.716667	1	1.095875
19.733333	1	1.087250
19.750000	1	1.072375
19.766667	1	1.052875
19.783333	1	1.029125
19.800000	1	1.001125
19.816667	1	0.970500
19.833333	1	0.938625
19.850000	1	0.904500
19.866667	1	0.870375
19.883333	1	0.836250
19.900000	1	0.802750
19.916667	1	0.771125
19.933333	1	0.741125
19.950000	1	0.713500
19.966667	1	0.687875
19.983333	1	0.665000
20.000000	1	0.644250
20.016667	1	0.626750
20.033333	1	0.611375
20.050000	1	0.599125
20.066667	1	0.589250
20.083333	1	0.581750
20.100000	1	0.576500
20.116667	1	0.574000
20.133333	1	0.574250
20.150000	1	0.576000
20.166667	1	0.580375
20.183333	1	0.586250
20.200000	1	0.593625
20.216667	1	0.602750
20.233333	1	0.614000
20.250000	1	0.625750
20.266667	1	0.638750
20.283333	1	0.651875
20.300000	1	0.664625
20.316667	1	0.678500
20.333333	1	0.692125
20.350000	1	0.704250
20.366667	1	0.715375
20.383333	1	0.725125
20.400000	1	0.732500
20.416667	1	0.738125
20.433333	1	0.742125
20.450000	1	0.744875
20.466667	1	0.746125
20.483333	1	0.746000
20.500000	1	0.746000
20.516667	1	0.746750
20.533333	1	0.748125
20.550000	1	0.751500
20.566667	1	0.758375
20.583333	1	0.767500
20.600000	1	0.782125
20.616667	1	0.801625
20.633333	1	0.827125
20.650000	1	0.858875
20.666667	1	0.896250
20.683333	1	0.940875
20.700000	1	0.991625
20.716667	1	1.048125
20.733333	1	1.109250
20.750000	1	1.174875
20.766667	1	1.243500
20.783333	1	1.313250
20.800000	1	1.382250
20.816667	1	1.449625
20.833333	1	1.512125
20.850000	1	1.567875
20.866667	1	1.615250
20.883333	1	1.652875
20.900000	1	1.678500
20.916667	1	1.691125
20.933333	1	1.690875
20.950000	1	1.677375
20.966667	1	1.650875
20.983333	1	1.612250
21.000000	1	1.562000
21.016667	1	1.503000
21.033333	1	1.436625
21.050000	1	1.366125
21.066667	1	1.291625
21.083333	1	1.215750
21.100000	1	1.140000
21.116667	1	1.066125
21.133333	1	0.996125
21.150000	1	0.930500
21.166667	1	0.868500
21.183333	1	0.812500
21.200000	1	0.761375
21.216667	1	0.716000
21.233333	1	0.676375
21.250000	1	0.641000
21.266667	1	0.610875
21.283333	1	0.584750
21.300000	1	0.561750
21.316667	1	0.543125
21.333333	1	0.526875
21.350000	1	0.513000
21.366667	1	0.501375
21.383333	1	0.491750
21.400000	1	0.483875
21.416667	1	0.477000
21.433333	1	0.471750
21.450000	1	0.467250
21.466667	1	0.463375
21.483333	1	0.460500
21.500000	1	0.458375
21.516667	1	0.457375
21.533333	1	0.457125
21.550000	1	0.457875
21.566667	1	0.460000
21.583333	1	0.462375
21.600000	1	0.466375
21.616667	1	0.472625
21.633333	1	0.480625
21.650000	1	0.489500
21.666667	1	0.500875
21.683333	1	0.514625
21.700000	1	0.530625
21.716667	1	0.548500
21.733333	1	0.568875
21.750000	1	0.592375
21.766667	1	0.617375
21.783333	1	0.645500
21.800000	1	0.675125
21.816667	1	0.707875
21.833333	1	0.742875
21.850000	1	0.779750
21.866667	1	0.818125
21.883333	1	0.858625
21.900000	1	0.899375
21.916667	1	0.941125
21.933333	1	0.982750
21.950000	1	1.023625
21.966667	1	1.064125
21.983333	1	1.100875
22.000000	1	1.135375
22.016667	1	1.167000
22.033333	1	1.194375
22.050000	1	1.216250
22.066667	1	1.232750
22.083333	1	1.243375
22.100000	1	1.248625
22.116667	1	1.247125
22.133333	1	1.239500
22.150000	1	1.225750
22.166667	1	1.206250
22.183333	1	1.181625
22.200000	1	1.151875
22.216667	1	1.119250
22.233333	1	1.082500
22.250000	1	1.043625
22.266667	1	1.002750
22.283333	1	0.961125
22.300000	1	0.918875
22.316667	1	0.876125
22.333333	1	0.834625
22.350000	1	0.793375
22.366667	1	0.753875
22.383333	1	0.715875
22.400000	1	0.679125
22.416667	1	0.645125
22.433333	1	0.612375
22.450000	1	0.581375
22.466667	1	0.553625
22.483333	1	0.527375
22.500000	1	0.503375
22.516667	1	0.481500
22.533333	1	0.461500
22.550000	1	0.443375
22.566667	1	0.426875
22.583333	1	0.411750
22.600000	1	0.398000
22.616667	1	0.386500
22.633333	1	0.376000
22.650000	1	0.366500
22.666667	1	0.357875
22.683333	1	0.350500
22.700000	1	0.343625
22.716667	1	0.337250
22.733333	1	0.332125
22.750000	1	0.326875
22.766667	1	0.321750
22.783333	1	0.317000
22.800000	1	0.313375
22.816667	1	0.310875
22.833333	1	0.307500
22.850000	1	0.304500
22.866667	1	0.301250
22.883333	1	0.298750
22.900000	1	0.296500
22.916667	1	0.294875
22.933333	1	0.293500
22.950000	1	0.292500
22.966667	1	0.291500
22.983333	1	0.290750
23.000000	1	0.289875
23.016667	1	0.289375
23.033333	1	0.288875
23.050000	1	0.289125
23.066667	1	0.289750
23.083333	1	0.290750
23.100000	1	0.291625
23.116667	1	0.293250
23.133333	1	0.295000
23.150000	1	0.297000
23.166667	1	0.299375
23.183333	1	0.300875
23.200000	1	0.303500
23.216667	1	0.306375
23.233333	1	0.309625
23.250000	1	0.314000
23.266667	1	0.318125
23.283333	1	0.324500
23.300000	1	0.331625
23.316667	1	0.340875
23.333333	1	0.351625
23.350000	1	0.365375
23.366667	1	0.382250
23.383333	1	0.402500
23.400000	1	0.426625
23.416667	1	0.455750
23.433333	1	0.490625
23.450000	1	0.531125
23.466667	1	0.578750
23.483333	1	0.634375
23.500000	1	0.697750
23.516667	1	0.770375
23.533333	1	0.853125
23.550000	1	0.946500
23.566667	1	1.050250
23.583333	1	1.165250
23.600000	1	1.291125
23.616667	1	1.428750
23.633333	1	1.577875
23.650000	1	1.738500
23.666667	1	1.910500
23.683333	1	2.092125
23.700000	1	2.283125
23.716667	1	2.482125
23.733333	1	2.686750
23.750000	1	2.894125
23.766667	1	3.101500
23.783333	1	3.305500
23.800000	1	3.503125
23.816667	1	3.691375
23.833333	1	3.865750
23.850000	1	4.022125
23.866667	1	4.157000
23.883333	1	4.268750
23.900000	1	4.353250
23.916667	1	4.408750
23.933333	1	4.433125
23.950000	1	4.426750
23.966667	1	4.389250
23.983333	1	4.321500
24.000000	1	4.225250
24.016667	1	4.104250
24.033333	1	3.959750
24.050000	1	3.796125
24.066667	1	3.616875
24.083333	1	3.425750
24.100000	1	3.227250
24.116667	1	3.023875
24.133333	1	2.820625
24.150000	1	2.619750
24.166667	1	2.423000
24.183333	1	2.234125
24.200000	1	2.054625
24.216667	1	1.885500
24.233333	1	1.728625
24.250000	1	1.583500
24.266667	1	1.450000
24.283333	1	1.329125
24.300000	1	1.220375
24.316667	1	1.122500
24.333333	1	1.035875
24.350000	1	0.958125
24.366667	1	0.891125
24.383333	1	0.832000
24.400000	1	0.780750
24.416667	1	0.736500
24.433333	1	0.698000
24.450000	1	0.664500
24.466667	1	0.637000
24.483333	1	0.612625
24.500000	1	0.591375
24.516667	1	0.573500
24.533333	1	0.558000
24.550000	1	0.544250
24.566667	1	0.532375
24.583333	1	0.521875
24.600000	1	0.512250
24.616667	1	0.502625
24.633333	1	0.493000
24.650000	1	0.484125
24.666667	1	0.474750
24.683333	1	0.466250
24.700000	1	0.457875
24.716667	1	0.449375
24.733333	1	0.440500
24.750000	1	0.431750
24.766667	1	0.423250
24.783333	1	0.413750
24.800000	1	0.405125
24.816667	1	0.396875
24.833333	1	0.387625
24.850000	1	0.379000
24.866667	1	0.371375
24.883333	1	0.363375
24.900000	1	0.355750
24.916667	1	0.349000
24.933333	1	0.342125
24.950000	1	0.336125
24.966667	1	0.330250
24.983333	1	0.325375
25.000000	1	0.320375
25.016667	1	0.315500
25.033333	1	0.311000
25.050000	1	0.307125
25.066667	1	0.304000
25.083333	1	0.300625
25.100000	1	0.297375
25.116667	1	0.294750
25.133333	1	0.292375
25.150000	1	0.290375
25.166667	1	0.288250
25.183333	1	0.285250
25.200000	1	0.282500
25.216667	1	0.280250
25.233333	1	0.278500
25.250000	1	0.276000
25.266667	1	0.273375
25.283333	1	0.271500
25.300000	1	0.269375
25.316667	1	0.266875
25.333333	1	0.265250
25.350000	1	0.262750
25.366667	1	0.260500
25.383333	1	0.258750
25.400000	1	0.257375
25.416667	1	0.255375
25.433333	1	0.253375
25.450000	1	0.251250
25.466667	1	0.250125
25.483333	1	0.248750
25.500000	1	0.248000
25.516667	1	0.247250
25.533333	1	0.246375
25.550000	1	0.246250
25.566667	1	0.245375
25.583333	1	0.245500
25.600000	1	0.245750
25.616667	1	0.245875
25.633333	1	0.245875
25.650000	1	0.246625
25.666667	1	0.247625
25.683333	1	0.248500
25.700000	1	0.249750
25.716667	1	0.251625
25.733333	1	0.253000
25.750000	1	0.254375
25.766667	1	0.256375
25.783333	1	0.258375
25.800000	1	0.261000
25.816667	1	0.263875
25.833333	1	0.266000
25.850000	1	0.268500
25.866667	1	0.272250
25.883333	1	0.275375
25.900000	1	0.280000
25.916667	1	0.284500
25.933333	1	0.288750
25.950000	1	0.292875
25.966667	1	0.297500
25.983333	1	0.302750
26.000000	1	0.307875
26.016667	1	0.312625
26.033333	1	0.317625
26.050000	1	0.324125
26.066667	1	0.330250
26.083333	1	0.335625
26.100000	1	0.340750
26.116667	1	0.346000
26.133333	1	0.351125
26.150000	1	0.356625
26.166667	1	0.361500
26.183333	1	0.365375
26.200000	1	0.368250
26.216667	1	0.371750
26.233333	1	0.374125
26.250000	1	0.376250
26.266667	1	0.377625
26.283333	1	0.377750
26.300000	1	0.377750
26.316667	1	0.377625
26.333333	1	0.376375
26.350000	1	0.375250
26.366667	1	0.372625
26.383333	1	0.370000
26.400000	1	0.366625
26.416667	1	0.362875
26.433333	1	0.358875
26.450000	1	0.354500
26.466667	1	0.349375
26.483333	1	0.344375
26.500000	1	0.339250
26.516667	1	0.334125
26.533333	1	0.327250
26.550000	1	0.322250
26.566667	1	0.316000
26.583333	1	0.310250
26.600000	1	0.304625
26.616667	1	0.299250
26.633333	1	0.293625
26.650000	1	0.288500
26.666667	1	0.283500
26.683333	1	0.278375
26.700000	1	0.273625
26.716667	1	0.269250
26.733333	1	0.264625
26.750000	1	0.260500
26.766667	1	0.256625
26.783333	1	0.254000
26.800000	1	0.250125
26.816667	1	0.247500
26.833333	1	0.245125
26.850000	1	0.242625
26.866667	1	0.240250
26.883333	1	0.238250
26.900000	1	0.236625
26.916667	1	0.235750
26.933333	1	0.234750
26.950000	1	0.233875
26.966667	1	0.233625
26.983333	1	0.234000
27.000000	1	0.235125
27.016667	1	0.236500
27.033333	1	0.238875
27.050000	1	0.241750
27.066667	1	0.245625
27.083333	1	0.250500
27.100000	1	0.256500
27.116667	1	0.264125
27.133333	1	0.272750
27.150000	1	0.282875
27.166667	1	0.294875
27.183333	1	0.308875
27.200000	1	0.325125
27.216667	1	0.344125
27.233333	1	0.365500
27.250000	1	0.390750
27.266667	1	0.418875
27.283333	1	0.451125
27.300000	1	0.487000
27.316667	1	0.527000
27.333333	1	0.572375
27.350000	1	0.622750
27.366667	1	0.677875
27.383333	1	0.738750
27.400000	1	0.806250
27.416667	1	0.880125
27.433333	1	0.960875
27.450000	1	1.048250
27.466667	1	1.143375
27.483333	1	1.245250
27.500000	1	1.355250
27.516667	1	1.472500
27.533333	1	1.596375
27.550000	1	1.727875
27.566667	1	1.865875
27.583333	1	2.010125
27.600000	1	2.159750
27.616667	1	2.313875
27.633333	1	2.472000
27.650000	1	2.631500
27.666667	1	2.792000
27.683333	1	2.951625
27.700000	1	3.109000
27.716667	1	3.261500
27.733333	1	3.408000
27.750000	1	3.545000
27.766667	1	3.671625
27.783333	1	3.784625
27.800000	1	3.883000
27.816667	1	3.965000
27.833333	1	4.029375
27.850000	1	4.072375
27.866667	1	4.095625
27.883333	1	4.096375
27.900000	1	4.075250
27.916667	1	4.032875
27.933333	1	3.967750
27.950000	1	3.881375
27.966667	1	3.776000
27.983333	1	3.653750
28.000000	1	3.516125
28.016667	1	3.364750
28.033333	1	3.201875
28.050000	1	3.030625
28.066667	1	2.853875
28.083333	1	2.674625
28.100000	1	2.495250
28.116667	1	2.317500
28.133333	1	2.144250
28.150000	1	1.976125
28.166667	1	1.815500
28.183333	1	1.663000
28.200000	1	1.520000
28.216667	1	1.387375
28.233333	1	1.264750
28.250000	1	1.152625
28.266667	1	1.050875
28.283333	1	0.960000
28.300000	1	0.879625
28.316667	1	0.808750
28.333333	1	0.746250
28.350000	1	0.692375
28.366667	1	0.646625
28.383333	1	0.608375
28.400000	1	0.576375
28.416667	1	0.549750
28.433333	1	0.528750
28.450000	1	0.512625
28.466667	1	0.499750
28.483333	1	0.490875
28.500000	1	0.485250
28.516667	1	0.482125
28.533333	1	0.482250
28.550000	1	0.484000
28.566667	1	0.488375
28.583333	1	0.493750
28.600000	1	0.500125
28.616667	1	0.507875
28.633333	1	0.515750
28.650000	1	0.524125
28.666667	1	0.533375
28.683333	1	0.542750
28.700000	1	0.551125
28.716667	1	0.559250
28.733333	1	0.567500
28.750000	1	0.575625
28.766667	1	0.582500
28.783333	1	0.589000
28.800000	1	0.595375
28.816667	1	0.599750
28.833333	1	0.604125
28.850000	1	0.607375
28.866667	1	0.609125
28.883333	1	0.609500
28.900000	1	0.609375
28.916667	1	0.608000
28.933333	1	0.605625
28.950000	1	0.602625
28.966667	1	0.597875
28.983333	1	0.592500
29.000000	1	0.586625
29.016667	1	0.579250
29.033333	1	0.571125
29.050000	1	0.562125
29.066667	1	0.552125
29.083333	1	0.541500
29.100000	1	0.530500
29.116667	1	0.519125
29.133333	1	0.507250
29.150000	1	0.494875
29.166667	1	0.482000
29.183333	1	0.469125
29.200000	1	0.456750
29.216667	1	0.444250
29.233333	1	0.430625
29.250000	1	0.417625
29.266667	1	0.404250
29.283333	1	0.391250
29.300000	1	0.378375
29.316667	1	0.366625
29.333333	1	0.354750
29.350000	1	0.343250
29.366667	1	0.332000
29.383333	1	0.321250
29.400000	1	0.310750
29.416667	1	0.300500
29.433333	1	0.291125
29.450000	1	0.281875
29.466667	1	0.273125
29.483333	1	0.264875
29.500000	1	0.256750
29.516667	1	0.248875
29.533333	1	0.242250
29.550000	1	0.235500
29.566667	1	0.228750
29.583333	1	0.222750
29.600000	1	0.217375
29.616667	1	0.211750
29.633333	1	0.206875
29.650000	1	0.201875
29.666667	1	0.197125
29.683333	1	0.193000
29.700000	1	0.188500
29.716667	1	0.184500
29.733333	1	0.180500
29.750000	1	0.176875
29.766667	1	0.173000
29.783333	1	0.169750
29.800000	1	0.166625
29.816667	1	0.163125
29.833333	1	0.160125
29.850000	1	0.156250
29.866667	1	0.153500
29.883333	1	0.150375
29.900000	1	0.147250
29.916667	1	0.144625
29.933333	1	0.142125
29.950000	1	0.139125
29.966667	1	0.136875
29.983333	1	0.134500
30.000000	1	0.132250
30.016667	1	0.130250
30.033333	1	0.128375
30.050000	1	0.126500
30.066667	1	0.124625
30.083333	1	0.122875
30.100000	1	0.121375
30.116667	1	0.119625
30.133333	1	0.118250
30.150000	1	0.116875
30.166667	1	0.116250
30.183333	1	0.115625
30.200000	1	0.114750
30.216667	1	0.113875
30.233333	1	0.113375
30.250000	1	0.113000
30.266667	1	0.113250
30.283333	1	0.113750
30.300000	1	0.114375
30.316667	1	0.115625
30.333333	1	0.115750
30.350000	1	0.115750
30.366667	1	0.116125
30.383333	1	0.118250
30.400000	1	0.120625
30.416667	1	0.122375
30.433333	1	0.124625
30.450000	1	0.126875
30.466667	1	0.129250
30.483333	1	0.132875
30.500000	1	0.136375
30.516667	1	0.140750
30.533333	1	0.145500
30.550000	1	0.150500
30.566667	1	0.156875
30.583333	1	0.163125
30.600000	1	0.170875
30.616667	1	0.179125
30.633333	1	0.189125
30.650000	1	0.199875
30.666667	1	0.211500
30.683333	1	0.224500
30.700000	1	0.238625
30.716667	1	0.254750
30.733333	1	0.272625
30.750000	1	0.292000
30.766667	1	0.314250
30.783333	1	0.339000
30.800000	1	0.366875
30.816667	1	0.397750
30.833333	1	0.431500
30.850000	1	0.469000
30.866667	1	0.510750
30.883333	1	0.556375
30.900000	1	0.606875
30.916667	1	0.663125
30.933333	1	0.724875
30.950000	1	0.792125
30.966667	1	0.866875
30.983333	1	0.947750
31.000000	1	1.035250
31.016667	1	1.130500
31.033333	1	1.233750
31.050000	1	1.344375
31.066667	1	1.463625
31.083333	1	1.591250
31.100000	1	1.725250
31.116667	1	1.868000
31.133333	1	2.017500
31.150000	1	2.174125
31.166667	1	2.337000
31.183333	1	2.506250
31.200000	1	2.680250
31.216667	1	2.858250
31.233333	1	3.038375
31.250000	1	3.219500
31.266667	1	3.400125
31.283333	1	3.578375
31.300000	1	3.752625
31.316667	1	3.920500
31.333333	1	4.080250
31.350000	1	4.230625
31.366667	1	4.370125
31.383333	1	4.495750
31.400000	1	4.606500
31.416667	1	4.701125
31.433333	1	4.776875
31.450000	1	4.834125
31.466667	1	4.871000
31.483333	1	4.887625
31.500000	1	4.883000
31.516667	1	4.858125
31.533333	1	4.813125
31.550000	1	4.747375
31.566667	1	4.663625
31.583333	1	4.561750
31.600000	1	4.443375
31.616667	1	4.309625
31.633333	1	4.163500
31.650000	1	4.006375
31.666667	1	3.839250
31.683333	1	3.665375
31.700000	1	3.486250
31.716667	1	3.303875
31.733333	1	3.120375
31.750000	1	2.936250
31.766667	1	2.753625
31.783333	1	2.573750
31.800000	1	2.397875
31.816667	1	2.228000
31.833333	1	2.063625
31.850000	1	1.906375
31.866667	1	1.756750
31.883333	1	1.615500
31.900000	1	1.482750
31.916667	1	1.358125
31.933333	1	1.242125
31.950000	1	1.135125
31.966667	1	1.035875
31.983333	1	0.944000
32.000000	1	0.860375
32.016667	1	0.783625
32.033333	1	0.713625
32.050000	1	0.650875
32.066667	1	0.593875
32.083333	1	0.543000
32.100000	1	0.497625
32.116667	1	0.456125
32.133333	1	0.419125
32.150000	1	0.386500
32.166667	1	0.357875
32.183333	1	0.331750
32.200000	1	0.308625
32.216667	1	0.288250
32.233333	1	0.270250
32.250000	1	0.254250
32.266667	1	0.239625
32.283333	1	0.226500
32.300000	1	0.215125
32.316667	1	0.204875
32.333333	1	0.194750
32.350000	1	0.185875
32.366667	1	0.177750
32.383333	1	0.170625
32.400000	1	0.164375
32.416667	1	0.157625
32.433333	1	0.152125
32.450000	1	0.146750
32.466667	1	0.141375
32.483333	1	0.136250
32.500000	1	0.131375
32.516667	1	0.127500
32.533333	1	0.123375
32.550000	1	0.119875
32.566667	1	0.116250
32.583333	1	0.112875
32.600000	1	0.109250
32.616667	1	0.105875
32.633333	1	0.103125
32.650000	1	0.100000
32.666667	1	0.097500
32.683333	1	0.095125
32.700000	1	0.092375
32.716667	1	0.090500
32.733333	1	0.088500
32.750000	1	0.086625
32.766667	1	0.085250
32.783333	1	0.083625
32.800000	1	0.082000
32.816667	1	0.080750
32.833333	1	0.079500
32.850000	1	0.078125
32.866667	1	0.077625
32.883333	1	0.076750
32.900000	1	0.075125
32.916667	1	0.074500
32.933333	1	0.073875
32.950000	1	0.073500
32.966667	1	0.073375
32.983333	1	0.072875
33.000000	1	0.072375
33.016667	1	0.072500
33.033333	1	0.072500
33.050000	1	0.073125
33.066667	1	0.074000
33.083333	1	0.074000
33.100000	1	0.074375
33.116667	1	0.075500
33.133333	1	0.077625
33.150000	1	0.079125
33.166667	1	0.081875
33.183333	1	0.084750
33.200000	1	0.088125
33.216667	1	0.091375
33.233333	1	0.095125
33.250000	1	0.100500
33.266667	1	0.106500
33.283333	1	0.112875
33.300000	1	0.120875
33.316667	1	0.129500
33.333333	1	0.139250
33.350000	1	0.150125
33.366667	1	0.162375
33.383333	1	0.175750
33.400000	1	0.190375
33.416667	1	0.206250
33.433333	1	0.223375
33.450000	1	0.242125
33.466667	1	0.262250
33.483333	1	0.284250
33.500000	1	0.308750
33.516667	1	0.334750
33.533333	1	0.362750
33.550000	1	0.393375
33.566667	1	0.426000
33.583333	1	0.459625
33.600000	1	0.497000
33.616667	1	0.535375
33.633333	1	0.576000
33.650000	1	0.619875
33.666667	1	0.665000
33.683333	1	0.712000
33.700000	1	0.760750
33.716667	1	0.812125
33.733333	1	0.864875
33.750000	1	0.919625
33.766667	1	0.975000
33.783333	1	1.031500
33.800000	1	1.088875
33.816667	1	1.146500
33.833333	1	1.203625
33.850000	1	1.260250
33.866667	1	1.316500
33.883333	1	1.370875
33.900000	1	1.423375
33.916667	1	1.474250
33.933333	1	1.522375
33.950000	1	1.567375
33.966667	1	1.608500
33.983333	1	1.645000
34.000000	1	1.676250
34.016667	1	1.703250
34.033333	1	1.725000
34.050000	1	1.741125
34.066667	1	1.751500
34.083333	1	1.755750
34.100000	1	1.754125
34.116667	1	1.746750
34.133333	1	1.733875
34.150000	1	1.715375
34.166667	1	1.691125
34.183333	1	1.662125
34.200000	1	1.628500
34.216667	1	1.589875
34.233333	1	1.547375
34.250000	1	1.501375
34.266667	1	1.452375
34.283333	1	1.401375
34.300000	1	1.348500
34.316667	1	1.294375
34.333333	1	1.238875
34.350000	1	1.183000
34.366667	1	1.127000
34.383333	1	1.071625
34.400000	1	1.016500
34.416667	1	0.962250
34.433333	1	0.909625
34.450000	1	0.859375
34.466667	1	0.809750
34.483333	1	0.762750
34.500000	1	0.718250
34.516667	1	0.676000
34.533333	1	0.636125
34.550000	1	0.598250
34.566667	1	0.563250
34.583333	1	0.530750
34.600000	1	0.500125
34.616667	1	0.471500
34.633333	1	0.445625
34.650000	1	0.420375
34.666667	1	0.397875
34.683333	1	0.376750
34.700000	1	0.358625
34.716667	1	0.341375
34.733333	1	0.325500
34.750000	1	0.310625
34.766667	1	0.296500
34.783333	1	0.284000
34.800000	1	0.272625
34.816667	1	0.262125
34.833333	1	0.252500
34.850000	1	0.243375
34.866667	1	0.235125
34.883333	1	0.226875
34.900000	1	0.219625
34.916667	1	0.213250
34.933333	1	0.207875
34.950000	1	0.202500
34.966667	1	0.197125
34.983333	1	0.192125
35.000000	1	0.187375
35.016667	1	0.182875
35.033333	1	0.178625
35.050000	1	0.175125
35.066667	1	0.171750
35.083333	1	0.168750
35.100000	1	0.165875
35.116667	1	0.163625
35.133333	1	0.160750
35.150000	1	0.159000
35.166667	1	0.156625
35.183333	1	0.155125
35.200000	1	0.153625
35.216667	1	0.152750
35.233333	1	0.152250
35.250000	1	0.151500
35.266667	1	0.151125
35.283333	1	0.150500
35.300000	1	0.150250
35.316667	1	0.150500
35.333333	1	0.151125
35.350000	1	0.152125
35.366667	1	0.152125
35.383333	1	0.152375
35.400000	1	0.153500
35.416667	1	0.154500
35.433333	1	0.155750
35.450000	1	0.156625
35.466667	1	0.157875
35.483333	1	0.158875
35.500000	1	0.160250
35.516667	1	0.161500
35.533333	1	0.163000
35.550000	1	0.163625
35.566667	1	0.165250
35.583333	1	0.166625
35.600000	1	0.168125
35.616667	1	0.169375
35.633333	1	0.170500
35.650000	1	0.171750
35.666667	1	0.173000
35.683333	1	0.173875
35.700000	1	0.174875
35.716667	1	0.175750
35.733333	1	0.176750
35.750000	1	0.177500
35.766667	1	0.178625
35.783333	1	0.179500
35.800000	1	0.179625
35.816667	1	0.180250
35.833333	1	0.180125
35.850000	1	0.180250
35.866667	1	0.181000
35.883333	1	0.181375
35.900000	1	0.181125
35.916667	1	0.181750
35.933333	1	0.181875
35.950000	1	0.181750
35.966667	1	0.182750
35.983333	1	0.182500
36.000000	1	0.183000
36.016667	1	0.183875
36.033333	1	0.184375
36.050000	1	0.184500
36.066667	1	0.184500
36.083333	1	0.184125
36.100000	1	0.184500
36.116667	1	0.184625
36.133333	1	0.185000
36.150000	1	0.185500
36.166667	1	0.185625
36.183333	1	0.185125
36.200000	1	0.184500
36.216667	1	0.183500
36.233333	1	0.183625
36.250000	1	0.183125
36.266667	1	0.182500
36.283333	1	0.181625
36.300000	1	0.180625
36.316667	1	0.179250
36.333333	1	0.178375
36.350000	1	0.177125
36.366667	1	0.176125
36.383333	1	0.174875
36.400000	1	0.172875
36.416667	1	0.171250
36.433333	1	0.169625
36.450000	1	0.167375
36.466667	1	0.165125
36.483333	1	0.162875
36.500000	1	0.160750
36.516667	1	0.158625
36.533333	1	0.156750
36.550000	1	0.154250
36.566667	1	0.152000
36.583333	1	0.149750
36.600000	1	0.147500
36.616667	1	0.144875
36.633333	1	0.142875
36.650000	1	0.140125
36.666667	1	0.137250
36.683333	1	0.134875
36.700000	1	0.132500
36.716667	1	0.130000
36.733333	1	0.127000
36.750000	1	0.124875
36.766667	1	0.122250
36.783333	1	0.120250
36.800000	1	0.117875
36.816667	1	0.115000
36.833333	1	0.112250
36.850000	1	0.110625
36.866667	1	0.108875
36.883333	1	0.107250
36.900000	1	0.105250
36.916667	1	0.104125
36.933333	1	0.103125
36.950000	1	0.101750
36.966667	1	0.101125
36.983333	1	0.100250
37.000000	1	0.099000
37.016667	1	0.097375
37.033333	1	0.096875
37.050000	1	0.096500
37.066667	1	0.096250
37.083333	1	0.095500
37.100000	1	0.095375
37.116667	1	0.095250
37.133333	1	0.095500
37.150000	1	0.095750
37.166667	1	0.096125
37.183333	1	0.096500
37.200000	1	0.097125
37.216667	1	0.098000
37.233333	1	0.098750
37.250000	1	0.099125
37.266667	1	0.099875
37.283333	1	0.100250
37.300000	1	0.100250
37.316667	1	0.101250
37.333333	1	0.102500
37.350000	1	0.103625
37.366667	1	0.103875
37.383333	1	0.104625
37.400000	1	0.105500
37.416667	1	0.106375
37.433333	1	0.106875
37.450000	1	0.107500
37.466667	1	0.108000
37.483333	1	0.108750
37.500000	1	0.109000
37.516667	1	0.109250
37.533333	1	0.110125
37.550000	1	0.110500
37.566667	1	0.111000
37.583333	1	0.110875
37.600000	1	0.111250
37.616667	1	0.111000
37.633333	1	0.111000
37.650000	1	0.111625
37.666667	1	0.111625
37.683333	1	0.111750
37.700000	1	0.111875
37.716667	1	0.112250
37.733333	1	0.112750
37.750000	1	0.112750
37.766667	1	0.112875
37.783333	1	0.112250
37.800000	1	0.112375
37.816667	1	0.112125
37.833333	1	0.111500
37.850000	1	0.111375
37.866667	1	0.111250
37.883333	1	0.111500
37.900000	1	0.111625
37.916667	1	0.111625
37.933333	1	0.111625
37.950000	1	0.111500
37.966667	1	0.111625
37.983333	1	0.111625
38.000000	1	0.111500
38.016667	1	0.111375
38.033333	1	0.110875
38.050000	1	0.110625
38.066667	1	0.110875
38.083333	1	0.110500
38.100000	1	0.111250
38.116667	1	0.111250
38.133333	1	0.110875
38.150000	1	0.110625
38.166667	1	0.111125
38.183333	1	0.111750
38.200000	1	0.111750
38.216667	1	0.111750
38.233333	1	0.112250
38.250000	1	0.112500
38.266667	1	0.112750
38.283333	1	0.113500
38.300000	1	0.114125
38.316667	1	0.114125
38.333333	1	0.114125
38.350000	1	0.113875
38.366667	1	0.114125
38.383333	1	0.113875
38.400000	1	0.113250
38.416667	1	0.114000
38.433333	1	0.113875
38.450000	1	0.113750
38.466667	1	0.113750
38.483333	1	0.114000
38.500000	1	0.114000
38.516667	1	0.113875
38.533333	1	0.113875
38.550000	1	0.114125
38.566667	1	0.113375
38.583333	1	0.112625
38.600000	1	0.112000
38.616667	1	0.111500
38.633333	1	0.110500
38.650000	1	0.109125
38.666667	1	0.108125
38.683333	1	0.107750
38.700000	1	0.106250
38.716667	1	0.105125
38.733333	1	0.103750
38.750000	1	0.101875
38.766667	1	0.100250
38.783333	1	0.098625
38.800000	1	0.096750
38.816667	1	0.095375
38.833333	1	0.093875
38.850000	1	0.091875
38.866667	1	0.090625
38.883333	1	0.089250
38.900000	1	0.086375
38.916667	1	0.084000
38.933333	1	0.082000
38.950000	1	0.080000
38.966667	1	0.077625
38.983333	1	0.075375
39.000000	1	0.073250
39.016667	1	0.070250
39.033333	1	0.068375
39.050000	1	0.066250
39.066667	1	0.064375
39.083333	1	0.063250
39.100000	1	0.061500
39.116667	1	0.059625
39.133333	1	0.057625
39.150000	1	0.056250
39.166667	1	0.054625
39.183333	1	0.052875
39.200000	1	0.051500
39.216667	1	0.050500
39.233333	1	0.049750
39.250000	1	0.048500
39.266667	1	0.047500
39.283333	1	0.047125
39.300000	1	0.046250
39.316667	1	0.045625
39.333333	1	0.044500
39.350000	1	0.044500
39.366667	1	0.044750
39.383333	1	0.044750
39.400000	1	0.044875
39.416667	1	0.044875
39.433333	1	0.044875
39.450000	1	0.045125
39.466667	1	0.045125
39.483333	1	0.046000
39.500000	1	0.046125
39.516667	1	0.046000
39.533333	1	0.046250
39.550000	1	0.046000
39.566667	1	0.045750
39.583333	1	0.045875
39.600000	1	0.045125
39.616667	1	0.045000
39.633333	1	0.044375
39.650000	1	0.043625
39.666667	1	0.043250
39.683333	1	0.043500
39.700000	1	0.042250
39.716667	1	0.041375
39.733333	1	0.040000
39.750000	1	0.039000
39.766667	1	0.038250
39.783333	1	0.036125
39.800000	1	0.034125
39.816667	1	0.032125
39.833333	1	0.030375
39.850000	1	0.028375
39.866667	1	0.026375
39.883333	1	0.023625
39.900000	1	0.021375
39.916667	1	0.019500
39.933333	1	0.017375
39.950000	1	0.014750
39.966667	1	0.012625
39.983333	1	0.010125
40.000000	1	0.009125
