URL	chrom://bioreactor/micro_cm7/HPLC_Ultimate_3000/Users/markusar/20240708_MA_pHrange1.seq/116.smp/RI_1.channel/RI_1.chm
Channel	RI_1

Injection Information:
Data Vault	micro_cm7
Sequence	20240708_MA_pHrange1
Name	Fp1_6.5_2
Number	48
Position	BE2
Comment	
Processing Method	
Instrument Method	run_25B_method
Type	Unknown
Status	Finished
Inject Time	09.07.2024 23:40:13 +02:00
Volume (µl)	20.0000
Dilution Factor	1.0000
Weight	1.0000

Chromatogram Data Information:
Time Min. (min)	0.000000
Time Max. (min)	40.000000
Data Points	2401
Detector	RI
Generating Data System	Chromeleon 7.3.2.11814
Exporting Data System	Chromeleon 7.3.2.0
Operator	Instrument Controller
Signal Quantity	Refractive 
Signal Unit	µRIU
Signal Min.	-0.023125
Signal Max.	83.313250
Channel	RI_1
Driver Name	RID520Driver.dll
Channel Type	Evaluation
Min. Step (s)	1
Max. Step (s)	1
Average Step (s)	1

Signal Parameter Information:
Signal Info	

Chromatogram Data:
Time (min)	Step (s)	Value (µRIU)
0.000000	n.a.	-0.014500
0.016667	1	-0.012625
0.033333	1	-0.011000
0.050000	1	-0.009500
0.066667	1	-0.008375
0.083333	1	-0.006375
0.100000	1	-0.004375
0.116667	1	-0.002500
0.133333	1	-0.001000
0.150000	1	0.000125
0.166667	1	0.001250
0.183333	1	0.002375
0.200000	1	0.003125
0.216667	1	0.003875
0.233333	1	0.005250
0.250000	1	0.006375
0.266667	1	0.007000
0.283333	1	0.008375
0.300000	1	0.009250
0.316667	1	0.009375
0.333333	1	0.010375
0.350000	1	0.010750
0.366667	1	0.010250
0.383333	1	0.009875
0.400000	1	0.009875
0.416667	1	0.011125
0.433333	1	0.013250
0.450000	1	0.015875
0.466667	1	0.018500
0.483333	1	0.019875
0.500000	1	0.021500
0.516667	1	0.022875
0.533333	1	0.024375
0.550000	1	0.025000
0.566667	1	0.025625
0.583333	1	0.024750
0.600000	1	0.023000
0.616667	1	0.022250
0.633333	1	0.021875
0.650000	1	0.022750
0.666667	1	0.023125
0.683333	1	0.023875
0.700000	1	0.024250
0.716667	1	0.024875
0.733333	1	0.025750
0.750000	1	0.026875
0.766667	1	0.028125
0.783333	1	0.028750
0.800000	1	0.029125
0.816667	1	0.030125
0.833333	1	0.030625
0.850000	1	0.030625
0.866667	1	0.031125
0.883333	1	0.031625
0.900000	1	0.032375
0.916667	1	0.032125
0.933333	1	0.033000
0.950000	1	0.033625
0.966667	1	0.034250
0.983333	1	0.033750
1.000000	1	0.034125
1.016667	1	0.034375
1.033333	1	0.034375
1.050000	1	0.034375
1.066667	1	0.035125
1.083333	1	0.035000
1.100000	1	0.035000
1.116667	1	0.034750
1.133333	1	0.034750
1.150000	1	0.034375
1.166667	1	0.035000
1.183333	1	0.035125
1.200000	1	0.035000
1.216667	1	0.034625
1.233333	1	0.034875
1.250000	1	0.035250
1.266667	1	0.035500
1.283333	1	0.036000
1.300000	1	0.035375
1.316667	1	0.035250
1.333333	1	0.035250
1.350000	1	0.034875
1.366667	1	0.034000
1.383333	1	0.033875
1.400000	1	0.033500
1.416667	1	0.033500
1.433333	1	0.033500
1.450000	1	0.034625
1.466667	1	0.034625
1.483333	1	0.034875
1.500000	1	0.034750
1.516667	1	0.034625
1.533333	1	0.035125
1.550000	1	0.035500
1.566667	1	0.035125
1.583333	1	0.035375
1.600000	1	0.034875
1.616667	1	0.035500
1.633333	1	0.036125
1.650000	1	0.035750
1.666667	1	0.036125
1.683333	1	0.036500
1.700000	1	0.036750
1.716667	1	0.036500
1.733333	1	0.036125
1.750000	1	0.036625
1.766667	1	0.036250
1.783333	1	0.036125
1.800000	1	0.035875
1.816667	1	0.036125
1.833333	1	0.035750
1.850000	1	0.036125
1.866667	1	0.035750
1.883333	1	0.035750
1.900000	1	0.035500
1.916667	1	0.035000
1.933333	1	0.034125
1.950000	1	0.033875
1.966667	1	0.033625
1.983333	1	0.032500
2.000000	1	0.031625
2.016667	1	0.031000
2.033333	1	0.029875
2.050000	1	0.029625
2.066667	1	0.029250
2.083333	1	0.028250
2.100000	1	0.027125
2.116667	1	0.026250
2.133333	1	0.025250
2.150000	1	0.024500
2.166667	1	0.023375
2.183333	1	0.022125
2.200000	1	0.020875
2.216667	1	0.019375
2.233333	1	0.018250
2.250000	1	0.016250
2.266667	1	0.015125
2.283333	1	0.014250
2.300000	1	0.012375
2.316667	1	0.011375
2.333333	1	0.010375
2.350000	1	0.009375
2.366667	1	0.008000
2.383333	1	0.007375
2.400000	1	0.006875
2.416667	1	0.005875
2.433333	1	0.004500
2.450000	1	0.003500
2.466667	1	0.002875
2.483333	1	0.002375
2.500000	1	0.002000
2.516667	1	0.001500
2.533333	1	0.001375
2.550000	1	0.001125
2.566667	1	0.001250
2.583333	1	0.001375
2.600000	1	0.001500
2.616667	1	0.001125
2.633333	1	0.001125
2.650000	1	0.000875
2.666667	1	0.000375
2.683333	1	0.000000
2.700000	1	0.000125
2.716667	1	0.000375
2.733333	1	0.000125
2.750000	1	-0.000625
2.766667	1	-0.000875
2.783333	1	-0.000625
2.800000	1	-0.001375
2.816667	1	-0.001125
2.833333	1	-0.001625
2.850000	1	-0.001500
2.866667	1	-0.001750
2.883333	1	-0.001750
2.900000	1	-0.002250
2.916667	1	-0.002750
2.933333	1	-0.002625
2.950000	1	-0.002375
2.966667	1	-0.002125
2.983333	1	-0.001500
3.000000	1	-0.001375
3.016667	1	-0.000875
3.033333	1	-0.000875
3.050000	1	-0.000125
3.066667	1	-0.000125
3.083333	1	0.000375
3.100000	1	0.000500
3.116667	1	0.001500
3.133333	1	0.002125
3.150000	1	0.002375
3.166667	1	0.003000
3.183333	1	0.004375
3.200000	1	0.006125
3.216667	1	0.007500
3.233333	1	0.009250
3.250000	1	0.011250
3.266667	1	0.013500
3.283333	1	0.015500
3.300000	1	0.018125
3.316667	1	0.020000
3.333333	1	0.021750
3.350000	1	0.023250
3.366667	1	0.025625
3.383333	1	0.028125
3.400000	1	0.030875
3.416667	1	0.033625
3.433333	1	0.035625
3.450000	1	0.038500
3.466667	1	0.041125
3.483333	1	0.043500
3.500000	1	0.045625
3.516667	1	0.047500
3.533333	1	0.050000
3.550000	1	0.052125
3.566667	1	0.054375
3.583333	1	0.056125
3.600000	1	0.058375
3.616667	1	0.060125
3.633333	1	0.061625
3.650000	1	0.063250
3.666667	1	0.065250
3.683333	1	0.066250
3.700000	1	0.067625
3.716667	1	0.069500
3.733333	1	0.071000
3.750000	1	0.071000
3.766667	1	0.071375
3.783333	1	0.072750
3.800000	1	0.073750
3.816667	1	0.075625
3.833333	1	0.076000
3.850000	1	0.076750
3.866667	1	0.077625
3.883333	1	0.077750
3.900000	1	0.078875
3.916667	1	0.080375
3.933333	1	0.080625
3.950000	1	0.080875
3.966667	1	0.082000
3.983333	1	0.082625
4.000000	1	0.083250
4.016667	1	0.084250
4.033333	1	0.084750
4.050000	1	0.085000
4.066667	1	0.086000
4.083333	1	0.087000
4.100000	1	0.087625
4.116667	1	0.088500
4.133333	1	0.089250
4.150000	1	0.090375
4.166667	1	0.091500
4.183333	1	0.093000
4.200000	1	0.093750
4.216667	1	0.094625
4.233333	1	0.096125
4.250000	1	0.096875
4.266667	1	0.098500
4.283333	1	0.099875
4.300000	1	0.101000
4.316667	1	0.101875
4.333333	1	0.102500
4.350000	1	0.104000
4.366667	1	0.104750
4.383333	1	0.106500
4.400000	1	0.107375
4.416667	1	0.108625
4.433333	1	0.109250
4.450000	1	0.110625
4.466667	1	0.111250
4.483333	1	0.111750
4.500000	1	0.112750
4.516667	1	0.113750
4.533333	1	0.114500
4.550000	1	0.115750
4.566667	1	0.116625
4.583333	1	0.117375
4.600000	1	0.118375
4.616667	1	0.119000
4.633333	1	0.119500
4.650000	1	0.120250
4.666667	1	0.121250
4.683333	1	0.121750
4.700000	1	0.122750
4.716667	1	0.123625
4.733333	1	0.124500
4.750000	1	0.125375
4.766667	1	0.126625
4.783333	1	0.127625
4.800000	1	0.128625
4.816667	1	0.130625
4.833333	1	0.132875
4.850000	1	0.135500
4.866667	1	0.137500
4.883333	1	0.139875
4.900000	1	0.141875
4.916667	1	0.144125
4.933333	1	0.147375
4.950000	1	0.151000
4.966667	1	0.154500
4.983333	1	0.158125
5.000000	1	0.161500
5.016667	1	0.165750
5.033333	1	0.170250
5.050000	1	0.174375
5.066667	1	0.178625
5.083333	1	0.183500
5.100000	1	0.188000
5.116667	1	0.192875
5.133333	1	0.197250
5.150000	1	0.202000
5.166667	1	0.206500
5.183333	1	0.211250
5.200000	1	0.215750
5.216667	1	0.220625
5.233333	1	0.224750
5.250000	1	0.229250
5.266667	1	0.234125
5.283333	1	0.238000
5.300000	1	0.242000
5.316667	1	0.246000
5.333333	1	0.250250
5.350000	1	0.253375
5.366667	1	0.256125
5.383333	1	0.259250
5.400000	1	0.261875
5.416667	1	0.264875
5.433333	1	0.266750
5.450000	1	0.268625
5.466667	1	0.270125
5.483333	1	0.271125
5.500000	1	0.272000
5.516667	1	0.272375
5.533333	1	0.272875
5.550000	1	0.273000
5.566667	1	0.272875
5.583333	1	0.272125
5.600000	1	0.271500
5.616667	1	0.271000
5.633333	1	0.269625
5.650000	1	0.267625
5.666667	1	0.265625
5.683333	1	0.264250
5.700000	1	0.261500
5.716667	1	0.259000
5.733333	1	0.256000
5.750000	1	0.252125
5.766667	1	0.248625
5.783333	1	0.244875
5.800000	1	0.240875
5.816667	1	0.237250
5.833333	1	0.233250
5.850000	1	0.228500
5.866667	1	0.224750
5.883333	1	0.219125
5.900000	1	0.213750
5.916667	1	0.208875
5.933333	1	0.204000
5.950000	1	0.199500
5.966667	1	0.193625
5.983333	1	0.188625
6.000000	1	0.183875
6.016667	1	0.178125
6.033333	1	0.173500
6.050000	1	0.168500
6.066667	1	0.163375
6.083333	1	0.157375
6.100000	1	0.151875
6.116667	1	0.146250
6.133333	1	0.141250
6.150000	1	0.135500
6.166667	1	0.130875
6.183333	1	0.126125
6.200000	1	0.120875
6.216667	1	0.115875
6.233333	1	0.110625
6.250000	1	0.105875
6.266667	1	0.101000
6.283333	1	0.096250
6.300000	1	0.091875
6.316667	1	0.088500
6.333333	1	0.084125
6.350000	1	0.080250
6.366667	1	0.075750
6.383333	1	0.071625
6.400000	1	0.068250
6.416667	1	0.064750
6.433333	1	0.061500
6.450000	1	0.058250
6.466667	1	0.054500
6.483333	1	0.052500
6.500000	1	0.050500
6.516667	1	0.048500
6.533333	1	0.046375
6.550000	1	0.044625
6.566667	1	0.043500
6.583333	1	0.042250
6.600000	1	0.040875
6.616667	1	0.040125
6.633333	1	0.040000
6.650000	1	0.039250
6.666667	1	0.037875
6.683333	1	0.037500
6.700000	1	0.037000
6.716667	1	0.036375
6.733333	1	0.036125
6.750000	1	0.036875
6.766667	1	0.037375
6.783333	1	0.038250
6.800000	1	0.039500
6.816667	1	0.040625
6.833333	1	0.041125
6.850000	1	0.042125
6.866667	1	0.043125
6.883333	1	0.044625
6.900000	1	0.045875
6.916667	1	0.047625
6.933333	1	0.049500
6.950000	1	0.052000
6.966667	1	0.055000
6.983333	1	0.057250
7.000000	1	0.059625
7.016667	1	0.062750
7.033333	1	0.065875
7.050000	1	0.068625
7.066667	1	0.071500
7.083333	1	0.074625
7.100000	1	0.078500
7.116667	1	0.082250
7.133333	1	0.086375
7.150000	1	0.090500
7.166667	1	0.094250
7.183333	1	0.098500
7.200000	1	0.101875
7.216667	1	0.105625
7.233333	1	0.109250
7.250000	1	0.112750
7.266667	1	0.115875
7.283333	1	0.120000
7.300000	1	0.123375
7.316667	1	0.126375
7.333333	1	0.129250
7.350000	1	0.131875
7.366667	1	0.134375
7.383333	1	0.136875
7.400000	1	0.138750
7.416667	1	0.140250
7.433333	1	0.141375
7.450000	1	0.141750
7.466667	1	0.142125
7.483333	1	0.141875
7.500000	1	0.141375
7.516667	1	0.139625
7.533333	1	0.138500
7.550000	1	0.137875
7.566667	1	0.136125
7.583333	1	0.133875
7.600000	1	0.131625
7.616667	1	0.128375
7.633333	1	0.124000
7.650000	1	0.120250
7.666667	1	0.116625
7.683333	1	0.111750
7.700000	1	0.106750
7.716667	1	0.102125
7.733333	1	0.097250
7.750000	1	0.092375
7.766667	1	0.087750
7.783333	1	0.082500
7.800000	1	0.076875
7.816667	1	0.071500
7.833333	1	0.066375
7.850000	1	0.061250
7.866667	1	0.056250
7.883333	1	0.051250
7.900000	1	0.046875
7.916667	1	0.042375
7.933333	1	0.038250
7.950000	1	0.034500
7.966667	1	0.030625
7.983333	1	0.027000
8.000000	1	0.023625
8.016667	1	0.020750
8.033333	1	0.017875
8.050000	1	0.015375
8.066667	1	0.013625
8.083333	1	0.011750
8.100000	1	0.010375
8.116667	1	0.009250
8.133333	1	0.008625
8.150000	1	0.008000
8.166667	1	0.007500
8.183333	1	0.007000
8.200000	1	0.006750
8.216667	1	0.006625
8.233333	1	0.006500
8.250000	1	0.007000
8.266667	1	0.007250
8.283333	1	0.007875
8.300000	1	0.009125
8.316667	1	0.009875
8.333333	1	0.010250
8.350000	1	0.011000
8.366667	1	0.012000
8.383333	1	0.013125
8.400000	1	0.013625
8.416667	1	0.014000
8.433333	1	0.014750
8.450000	1	0.015750
8.466667	1	0.016500
8.483333	1	0.017750
8.500000	1	0.018375
8.516667	1	0.019500
8.533333	1	0.020250
8.550000	1	0.021125
8.566667	1	0.021500
8.583333	1	0.022750
8.600000	1	0.023625
8.616667	1	0.024500
8.633333	1	0.025875
8.650000	1	0.026375
8.666667	1	0.027125
8.683333	1	0.028250
8.700000	1	0.029125
8.716667	1	0.030125
8.733333	1	0.031250
8.750000	1	0.032125
8.766667	1	0.032375
8.783333	1	0.033125
8.800000	1	0.034500
8.816667	1	0.035500
8.833333	1	0.036500
8.850000	1	0.038000
8.866667	1	0.039750
8.883333	1	0.039750
8.900000	1	0.040125
8.916667	1	0.041000
8.933333	1	0.042250
8.950000	1	0.042500
8.966667	1	0.043500
8.983333	1	0.044250
9.000000	1	0.044750
9.016667	1	0.045125
9.033333	1	0.045000
9.050000	1	0.045125
9.066667	1	0.044875
9.083333	1	0.044625
9.100000	1	0.044625
9.116667	1	0.044125
9.133333	1	0.043750
9.150000	1	0.043000
9.166667	1	0.042500
9.183333	1	0.041750
9.200000	1	0.040250
9.216667	1	0.038750
9.233333	1	0.038000
9.250000	1	0.036500
9.266667	1	0.035125
9.283333	1	0.034000
9.300000	1	0.032625
9.316667	1	0.031125
9.333333	1	0.029500
9.350000	1	0.029000
9.366667	1	0.027500
9.383333	1	0.025875
9.400000	1	0.023750
9.416667	1	0.022250
9.433333	1	0.020000
9.450000	1	0.018625
9.466667	1	0.016375
9.483333	1	0.014375
9.500000	1	0.012875
9.516667	1	0.011500
9.533333	1	0.009875
9.550000	1	0.007750
9.566667	1	0.006250
9.583333	1	0.004000
9.600000	1	0.003000
9.616667	1	0.001125
9.633333	1	-0.000250
9.650000	1	-0.002250
9.666667	1	-0.003750
9.683333	1	-0.005500
9.700000	1	-0.007125
9.716667	1	-0.009500
9.733333	1	-0.010625
9.750000	1	-0.012875
9.766667	1	-0.014375
9.783333	1	-0.015500
9.800000	1	-0.017000
9.816667	1	-0.018625
9.833333	1	-0.019625
9.850000	1	-0.020875
9.866667	1	-0.021500
9.883333	1	-0.022125
9.900000	1	-0.022500
9.916667	1	-0.022875
9.933333	1	-0.023125
9.950000	1	-0.022750
9.966667	1	-0.022875
9.983333	1	-0.021750
10.000000	1	-0.021000
10.016667	1	-0.019500
10.033333	1	-0.018375
10.050000	1	-0.015875
10.066667	1	-0.012375
10.083333	1	-0.008750
10.100000	1	-0.004250
10.116667	1	0.001750
10.133333	1	0.008250
10.150000	1	0.015750
10.166667	1	0.024625
10.183333	1	0.034000
10.200000	1	0.044625
10.216667	1	0.056000
10.233333	1	0.069500
10.250000	1	0.084750
10.266667	1	0.101750
10.283333	1	0.121125
10.300000	1	0.142375
10.316667	1	0.166250
10.333333	1	0.193375
10.350000	1	0.222250
10.366667	1	0.252375
10.383333	1	0.280750
10.400000	1	0.306500
10.416667	1	0.326000
10.433333	1	0.337000
10.450000	1	0.337000
10.466667	1	0.327875
10.483333	1	0.313000
10.500000	1	0.304750
10.516667	1	0.323250
10.533333	1	0.401250
10.550000	1	0.584250
10.566667	1	0.929750
10.583333	1	1.502625
10.600000	1	2.368125
10.616667	1	3.589375
10.633333	1	5.212750
10.650000	1	7.273375
10.666667	1	9.789125
10.683333	1	12.764125
10.700000	1	16.180500
10.716667	1	20.002250
10.733333	1	24.172375
10.750000	1	28.601250
10.766667	1	33.158625
10.783333	1	37.659250
10.800000	1	41.853625
10.816667	1	45.424000
10.833333	1	48.006500
10.850000	1	49.258125
10.866667	1	48.933250
10.883333	1	46.975625
10.900000	1	43.564875
10.916667	1	39.086375
10.933333	1	34.028875
10.950000	1	28.867000
10.966667	1	23.971875
10.983333	1	19.579875
11.000000	1	15.800375
11.016667	1	12.652250
11.033333	1	10.099000
11.050000	1	8.067750
11.066667	1	6.477375
11.083333	1	5.246000
11.100000	1	4.299875
11.116667	1	3.576500
11.133333	1	3.024125
11.150000	1	2.602125
11.166667	1	2.279125
11.183333	1	2.030625
11.200000	1	1.839500
11.216667	1	1.691000
11.233333	1	1.574000
11.250000	1	1.481250
11.266667	1	1.405500
11.283333	1	1.343250
11.300000	1	1.289625
11.316667	1	1.243125
11.333333	1	1.200250
11.350000	1	1.161250
11.366667	1	1.125000
11.383333	1	1.091250
11.400000	1	1.060375
11.416667	1	1.030000
11.433333	1	1.003375
11.450000	1	0.979000
11.466667	1	0.958750
11.483333	1	0.941875
11.500000	1	0.928875
11.516667	1	0.918375
11.533333	1	0.911250
11.550000	1	0.907625
11.566667	1	0.907875
11.583333	1	0.912625
11.600000	1	0.921875
11.616667	1	0.936000
11.633333	1	0.954500
11.650000	1	0.977500
11.666667	1	1.004375
11.683333	1	1.034000
11.700000	1	1.066000
11.716667	1	1.098250
11.733333	1	1.129750
11.750000	1	1.157750
11.766667	1	1.181750
11.783333	1	1.201125
11.800000	1	1.214000
11.816667	1	1.220500
11.833333	1	1.222125
11.850000	1	1.217000
11.866667	1	1.208125
11.883333	1	1.195375
11.900000	1	1.179500
11.916667	1	1.162625
11.933333	1	1.145500
11.950000	1	1.128875
11.966667	1	1.114250
11.983333	1	1.100750
12.000000	1	1.089250
12.016667	1	1.080125
12.033333	1	1.072125
12.050000	1	1.066875
12.066667	1	1.063625
12.083333	1	1.061750
12.100000	1	1.061500
12.116667	1	1.062625
12.133333	1	1.065125
12.150000	1	1.069000
12.166667	1	1.073875
12.183333	1	1.080500
12.200000	1	1.087875
12.216667	1	1.098375
12.233333	1	1.111875
12.250000	1	1.129375
12.266667	1	1.152750
12.283333	1	1.184500
12.300000	1	1.227125
12.316667	1	1.284250
12.333333	1	1.362000
12.350000	1	1.467250
12.366667	1	1.608875
12.383333	1	1.801750
12.400000	1	2.063125
12.416667	1	2.415875
12.433333	1	2.891250
12.450000	1	3.532500
12.466667	1	4.393000
12.483333	1	5.542000
12.500000	1	7.058500
12.516667	1	9.034250
12.533333	1	11.564375
12.550000	1	14.741750
12.566667	1	18.640750
12.583333	1	23.307625
12.600000	1	28.737250
12.616667	1	34.859375
12.633333	1	41.548125
12.650000	1	48.605750
12.666667	1	55.767125
12.683333	1	62.716125
12.700000	1	69.110500
12.716667	1	74.617125
12.733333	1	78.945500
12.750000	1	81.883000
12.766667	1	83.313250
12.783333	1	83.224250
12.800000	1	81.711125
12.816667	1	78.958250
12.833333	1	75.209375
12.850000	1	70.743625
12.866667	1	65.852000
12.883333	1	60.811000
12.900000	1	55.863625
12.916667	1	51.201125
12.933333	1	46.961875
12.950000	1	43.233875
12.966667	1	40.055250
12.983333	1	37.428125
13.000000	1	35.328000
13.016667	1	33.712625
13.033333	1	32.531375
13.050000	1	31.728875
13.066667	1	31.252125
13.083333	1	31.051500
13.100000	1	31.084500
13.116667	1	31.310625
13.133333	1	31.697125
13.150000	1	32.215125
13.166667	1	32.844000
13.183333	1	33.563625
13.200000	1	34.358500
13.216667	1	35.217250
13.233333	1	36.132000
13.250000	1	37.094875
13.266667	1	38.101250
13.283333	1	39.146250
13.300000	1	40.226500
13.316667	1	41.341750
13.333333	1	42.487125
13.350000	1	43.662875
13.366667	1	44.867125
13.383333	1	46.100375
13.400000	1	47.360625
13.416667	1	48.650000
13.433333	1	49.968375
13.450000	1	51.317500
13.466667	1	52.698250
13.483333	1	54.110000
13.500000	1	55.552125
13.516667	1	57.024875
13.533333	1	58.527000
13.550000	1	60.060125
13.566667	1	61.625625
13.583333	1	63.223500
13.600000	1	64.851750
13.616667	1	66.513750
13.633333	1	68.210375
13.650000	1	69.943750
13.666667	1	71.714375
13.683333	1	73.513125
13.700000	1	75.316125
13.716667	1	77.044500
13.733333	1	78.557000
13.750000	1	79.652750
13.766667	1	80.115375
13.783333	1	79.758875
13.800000	1	78.435375
13.816667	1	75.998625
13.833333	1	72.276375
13.850000	1	67.101875
13.866667	1	60.474375
13.883333	1	52.712500
13.900000	1	44.465500
13.916667	1	36.498125
13.933333	1	29.399625
13.950000	1	23.457250
13.966667	1	18.689875
13.983333	1	14.968500
14.000000	1	12.110750
14.016667	1	9.943125
14.033333	1	8.318000
14.050000	1	7.110125
14.066667	1	6.218000
14.083333	1	5.558625
14.100000	1	5.068750
14.116667	1	4.699750
14.133333	1	4.416000
14.150000	1	4.193500
14.166667	1	4.015125
14.183333	1	3.868125
14.200000	1	3.744250
14.216667	1	3.637625
14.233333	1	3.543250
14.250000	1	3.459875
14.266667	1	3.384125
14.283333	1	3.315375
14.300000	1	3.252375
14.316667	1	3.193125
14.333333	1	3.139125
14.350000	1	3.088500
14.366667	1	3.041375
14.383333	1	2.998625
14.400000	1	2.959000
14.416667	1	2.922625
14.433333	1	2.889375
14.450000	1	2.858250
14.466667	1	2.829375
14.483333	1	2.802750
14.500000	1	2.777875
14.516667	1	2.753000
14.533333	1	2.729125
14.550000	1	2.706000
14.566667	1	2.683000
14.583333	1	2.659750
14.600000	1	2.635875
14.616667	1	2.611625
14.633333	1	2.585625
14.650000	1	2.558625
14.666667	1	2.531500
14.683333	1	2.504250
14.700000	1	2.476500
14.716667	1	2.448875
14.733333	1	2.420250
14.750000	1	2.392500
14.766667	1	2.366000
14.783333	1	2.339500
14.800000	1	2.313125
14.816667	1	2.287500
14.833333	1	2.261500
14.850000	1	2.234625
14.866667	1	2.208500
14.883333	1	2.181750
14.900000	1	2.154375
14.916667	1	2.126375
14.933333	1	2.098375
14.950000	1	2.070375
14.966667	1	2.042250
14.983333	1	2.014125
15.000000	1	1.987500
15.016667	1	1.960375
15.033333	1	1.934375
15.050000	1	1.910000
15.066667	1	1.886000
15.083333	1	1.863625
15.100000	1	1.842625
15.116667	1	1.822000
15.133333	1	1.804000
15.150000	1	1.787000
15.166667	1	1.771375
15.183333	1	1.756500
15.200000	1	1.743500
15.216667	1	1.732000
15.233333	1	1.722000
15.250000	1	1.714250
15.266667	1	1.708500
15.283333	1	1.705500
15.300000	1	1.705625
15.316667	1	1.710000
15.333333	1	1.718125
15.350000	1	1.731125
15.366667	1	1.749500
15.383333	1	1.772625
15.400000	1	1.801250
15.416667	1	1.833750
15.433333	1	1.869375
15.450000	1	1.907000
15.466667	1	1.944250
15.483333	1	1.978750
15.500000	1	2.009000
15.516667	1	2.034500
15.533333	1	2.050625
15.550000	1	2.058375
15.566667	1	2.056250
15.583333	1	2.044875
15.600000	1	2.024750
15.616667	1	1.997250
15.633333	1	1.963625
15.650000	1	1.924875
15.666667	1	1.883375
15.683333	1	1.839875
15.700000	1	1.796250
15.716667	1	1.754000
15.733333	1	1.713500
15.750000	1	1.673250
15.766667	1	1.635250
15.783333	1	1.599250
15.800000	1	1.565500
15.816667	1	1.533500
15.833333	1	1.502375
15.850000	1	1.473500
15.866667	1	1.445625
15.883333	1	1.418875
15.900000	1	1.394125
15.916667	1	1.370875
15.933333	1	1.350250
15.950000	1	1.331250
15.966667	1	1.314125
15.983333	1	1.300375
16.000000	1	1.287625
16.016667	1	1.277375
16.033333	1	1.269500
16.050000	1	1.263375
16.066667	1	1.259125
16.083333	1	1.256500
16.100000	1	1.255375
16.116667	1	1.255750
16.133333	1	1.256125
16.150000	1	1.257000
16.166667	1	1.258875
16.183333	1	1.260625
16.200000	1	1.262625
16.216667	1	1.263625
16.233333	1	1.263875
16.250000	1	1.264000
16.266667	1	1.263250
16.283333	1	1.261125
16.300000	1	1.257875
16.316667	1	1.253750
16.333333	1	1.248500
16.350000	1	1.242625
16.366667	1	1.236750
16.383333	1	1.230750
16.400000	1	1.224750
16.416667	1	1.219500
16.433333	1	1.215625
16.450000	1	1.212875
16.466667	1	1.212000
16.483333	1	1.212250
16.500000	1	1.214375
16.516667	1	1.217875
16.533333	1	1.223250
16.550000	1	1.229250
16.566667	1	1.236250
16.583333	1	1.243250
16.600000	1	1.250750
16.616667	1	1.257375
16.633333	1	1.263625
16.650000	1	1.268125
16.666667	1	1.271000
16.683333	1	1.272875
16.700000	1	1.273500
16.716667	1	1.273500
16.733333	1	1.273000
16.750000	1	1.272625
16.766667	1	1.271625
16.783333	1	1.271500
16.800000	1	1.272125
16.816667	1	1.273625
16.833333	1	1.276500
16.850000	1	1.278625
16.866667	1	1.281500
16.883333	1	1.284875
16.900000	1	1.287750
16.916667	1	1.290125
16.933333	1	1.291000
16.950000	1	1.291125
16.966667	1	1.290000
16.983333	1	1.287875
17.000000	1	1.284375
17.016667	1	1.280375
17.033333	1	1.274125
17.050000	1	1.267375
17.066667	1	1.261500
17.083333	1	1.255750
17.100000	1	1.249500
17.116667	1	1.244125
17.133333	1	1.240000
17.150000	1	1.236875
17.166667	1	1.234625
17.183333	1	1.234500
17.200000	1	1.235000
17.216667	1	1.236750
17.233333	1	1.241125
17.250000	1	1.246500
17.266667	1	1.252625
17.283333	1	1.260125
17.300000	1	1.268625
17.316667	1	1.277000
17.333333	1	1.286125
17.350000	1	1.295500
17.366667	1	1.304500
17.383333	1	1.312875
17.400000	1	1.320625
17.416667	1	1.326875
17.433333	1	1.330500
17.450000	1	1.333875
17.466667	1	1.335375
17.483333	1	1.333875
17.500000	1	1.330250
17.516667	1	1.325000
17.533333	1	1.317000
17.550000	1	1.307875
17.566667	1	1.296625
17.583333	1	1.284375
17.600000	1	1.270875
17.616667	1	1.255750
17.633333	1	1.239875
17.650000	1	1.224625
17.666667	1	1.208375
17.683333	1	1.191750
17.700000	1	1.175875
17.716667	1	1.160625
17.733333	1	1.144750
17.750000	1	1.129500
17.766667	1	1.114375
17.783333	1	1.101375
17.800000	1	1.088000
17.816667	1	1.075125
17.833333	1	1.063000
17.850000	1	1.051375
17.866667	1	1.039750
17.883333	1	1.028750
17.900000	1	1.017625
17.916667	1	1.008125
17.933333	1	0.999125
17.950000	1	0.989750
17.966667	1	0.981250
17.983333	1	0.973000
18.000000	1	0.963750
18.016667	1	0.955125
18.033333	1	0.946375
18.050000	1	0.937875
18.066667	1	0.930000
18.083333	1	0.921500
18.100000	1	0.913375
18.116667	1	0.905875
18.133333	1	0.898625
18.150000	1	0.892000
18.166667	1	0.885625
18.183333	1	0.880750
18.200000	1	0.876125
18.216667	1	0.872375
18.233333	1	0.869250
18.250000	1	0.865875
18.266667	1	0.863125
18.283333	1	0.862125
18.300000	1	0.861375
18.316667	1	0.859875
18.333333	1	0.859250
18.350000	1	0.859500
18.366667	1	0.860375
18.383333	1	0.861625
18.400000	1	0.863125
18.416667	1	0.865375
18.433333	1	0.869375
18.450000	1	0.873750
18.466667	1	0.879625
18.483333	1	0.886500
18.500000	1	0.895375
18.516667	1	0.906000
18.533333	1	0.918250
18.550000	1	0.932625
18.566667	1	0.949000
18.583333	1	0.967875
18.600000	1	0.988125
18.616667	1	1.011375
18.633333	1	1.036375
18.650000	1	1.063500
18.666667	1	1.092375
18.683333	1	1.123125
18.700000	1	1.156125
18.716667	1	1.189750
18.733333	1	1.224875
18.750000	1	1.261000
18.766667	1	1.297750
18.783333	1	1.334000
18.800000	1	1.370125
18.816667	1	1.405125
18.833333	1	1.438500
18.850000	1	1.468875
18.866667	1	1.495750
18.883333	1	1.518750
18.900000	1	1.537500
18.916667	1	1.551250
18.933333	1	1.558250
18.950000	1	1.558875
18.966667	1	1.552000
18.983333	1	1.538625
19.000000	1	1.518000
19.016667	1	1.490375
19.033333	1	1.457125
19.050000	1	1.418250
19.066667	1	1.375000
19.083333	1	1.327375
19.100000	1	1.277375
19.116667	1	1.226375
19.133333	1	1.174875
19.150000	1	1.123750
19.166667	1	1.074375
19.183333	1	1.027000
19.200000	1	0.983625
19.216667	1	0.944250
19.233333	1	0.909750
19.250000	1	0.879625
19.266667	1	0.855000
19.283333	1	0.835875
19.300000	1	0.822500
19.316667	1	0.814250
19.333333	1	0.812750
19.350000	1	0.816750
19.366667	1	0.825750
19.383333	1	0.840125
19.400000	1	0.860000
19.416667	1	0.884625
19.433333	1	0.912000
19.450000	1	0.942125
19.466667	1	0.974750
19.483333	1	1.007375
19.500000	1	1.040250
19.516667	1	1.071375
19.533333	1	1.100125
19.550000	1	1.125750
19.566667	1	1.147625
19.583333	1	1.164250
19.600000	1	1.174625
19.616667	1	1.178875
19.633333	1	1.177375
19.650000	1	1.170125
19.666667	1	1.157750
19.683333	1	1.138875
19.700000	1	1.116000
19.716667	1	1.089875
19.733333	1	1.059375
19.750000	1	1.027000
19.766667	1	0.992750
19.783333	1	0.957500
19.800000	1	0.922500
19.816667	1	0.887250
19.833333	1	0.853250
19.850000	1	0.819875
19.866667	1	0.788125
19.883333	1	0.758750
19.900000	1	0.730625
19.916667	1	0.705000
19.933333	1	0.681250
19.950000	1	0.660000
19.966667	1	0.640750
19.983333	1	0.624375
20.000000	1	0.610000
20.016667	1	0.597250
20.033333	1	0.587125
20.050000	1	0.579875
20.066667	1	0.575375
20.083333	1	0.573125
20.100000	1	0.574250
20.116667	1	0.577250
20.133333	1	0.581875
20.150000	1	0.589500
20.166667	1	0.598625
20.183333	1	0.610625
20.200000	1	0.624000
20.216667	1	0.638375
20.233333	1	0.653875
20.250000	1	0.668875
20.266667	1	0.683750
20.283333	1	0.697625
20.300000	1	0.709750
20.316667	1	0.719875
20.333333	1	0.727500
20.350000	1	0.731875
20.366667	1	0.733875
20.383333	1	0.733250
20.400000	1	0.729000
20.416667	1	0.722375
20.433333	1	0.714250
20.450000	1	0.703750
20.466667	1	0.693375
20.483333	1	0.682375
20.500000	1	0.672750
20.516667	1	0.665000
20.533333	1	0.661000
20.550000	1	0.660250
20.566667	1	0.664125
20.583333	1	0.672625
20.600000	1	0.688125
20.616667	1	0.710875
20.633333	1	0.741375
20.650000	1	0.779875
20.666667	1	0.825500
20.683333	1	0.879625
20.700000	1	0.940750
20.716667	1	1.008500
20.733333	1	1.082000
20.750000	1	1.159250
20.766667	1	1.239875
20.783333	1	1.320500
20.800000	1	1.398875
20.816667	1	1.472500
20.833333	1	1.539375
20.850000	1	1.596750
20.866667	1	1.643000
20.883333	1	1.676125
20.900000	1	1.695250
20.916667	1	1.700875
20.933333	1	1.691375
20.950000	1	1.668625
20.966667	1	1.632500
20.983333	1	1.584250
21.000000	1	1.525875
21.016667	1	1.460500
21.033333	1	1.388875
21.050000	1	1.314000
21.066667	1	1.236750
21.083333	1	1.160875
21.100000	1	1.086375
21.116667	1	1.015375
21.133333	1	0.947750
21.150000	1	0.885375
21.166667	1	0.828125
21.183333	1	0.775875
21.200000	1	0.728750
21.216667	1	0.686500
21.233333	1	0.649000
21.250000	1	0.615875
21.266667	1	0.587000
21.283333	1	0.562250
21.300000	1	0.540750
21.316667	1	0.522000
21.333333	1	0.506250
21.350000	1	0.493250
21.366667	1	0.482500
21.383333	1	0.473125
21.400000	1	0.465000
21.416667	1	0.458500
21.433333	1	0.453500
21.450000	1	0.448250
21.466667	1	0.445125
21.483333	1	0.442250
21.500000	1	0.440625
21.516667	1	0.439500
21.533333	1	0.440125
21.550000	1	0.441500
21.566667	1	0.444375
21.583333	1	0.448625
21.600000	1	0.454875
21.616667	1	0.462625
21.633333	1	0.473250
21.650000	1	0.486000
21.666667	1	0.500375
21.683333	1	0.517875
21.700000	1	0.538500
21.716667	1	0.562250
21.733333	1	0.589875
21.750000	1	0.619625
21.766667	1	0.653125
21.783333	1	0.689750
21.800000	1	0.728750
21.816667	1	0.770250
21.833333	1	0.812875
21.850000	1	0.857000
21.866667	1	0.902000
21.883333	1	0.946625
21.900000	1	0.989625
21.916667	1	1.031000
21.933333	1	1.069375
21.950000	1	1.103750
21.966667	1	1.133875
21.983333	1	1.158000
22.000000	1	1.177875
22.016667	1	1.191125
22.033333	1	1.198250
22.050000	1	1.199500
22.066667	1	1.194125
22.083333	1	1.182625
22.100000	1	1.167125
22.116667	1	1.146000
22.133333	1	1.121375
22.150000	1	1.093500
22.166667	1	1.062500
22.183333	1	1.029625
22.200000	1	0.994750
22.216667	1	0.959625
22.233333	1	0.924125
22.250000	1	0.888625
22.266667	1	0.853375
22.283333	1	0.818875
22.300000	1	0.785375
22.316667	1	0.752875
22.333333	1	0.721250
22.350000	1	0.691375
22.366667	1	0.662250
22.383333	1	0.635875
22.400000	1	0.610375
22.416667	1	0.585875
22.433333	1	0.563125
22.450000	1	0.542750
22.466667	1	0.523625
22.483333	1	0.506250
22.500000	1	0.490250
22.516667	1	0.476375
22.533333	1	0.463250
22.550000	1	0.451375
22.566667	1	0.440625
22.583333	1	0.430250
22.600000	1	0.421500
22.616667	1	0.414000
22.633333	1	0.406500
22.650000	1	0.399250
22.666667	1	0.393125
22.683333	1	0.388250
22.700000	1	0.383375
22.716667	1	0.378125
22.733333	1	0.373625
22.750000	1	0.368875
22.766667	1	0.365750
22.783333	1	0.361625
22.800000	1	0.358250
22.816667	1	0.354625
22.833333	1	0.351000
22.850000	1	0.347375
22.866667	1	0.344375
22.883333	1	0.342250
22.900000	1	0.339625
22.916667	1	0.337000
22.933333	1	0.334125
22.950000	1	0.331625
22.966667	1	0.329625
22.983333	1	0.327875
23.000000	1	0.326375
23.016667	1	0.324625
23.033333	1	0.323625
23.050000	1	0.323000
23.066667	1	0.321875
23.083333	1	0.321750
23.100000	1	0.321750
23.116667	1	0.321875
23.133333	1	0.322000
23.150000	1	0.323500
23.166667	1	0.323875
23.183333	1	0.325125
23.200000	1	0.326375
23.216667	1	0.328250
23.233333	1	0.329750
23.250000	1	0.331875
23.266667	1	0.335125
23.283333	1	0.339875
23.300000	1	0.345000
23.316667	1	0.352625
23.333333	1	0.362125
23.350000	1	0.374000
23.366667	1	0.389250
23.383333	1	0.408125
23.400000	1	0.432625
23.416667	1	0.462625
23.433333	1	0.499250
23.450000	1	0.543500
23.466667	1	0.597125
23.483333	1	0.661500
23.500000	1	0.738250
23.516667	1	0.828625
23.533333	1	0.933750
23.550000	1	1.055125
23.566667	1	1.193875
23.583333	1	1.350625
23.600000	1	1.526250
23.616667	1	1.719375
23.633333	1	1.930125
23.650000	1	2.156750
23.666667	1	2.398500
23.683333	1	2.652875
23.700000	1	2.915125
23.716667	1	3.181875
23.733333	1	3.448750
23.750000	1	3.709875
23.766667	1	3.959500
23.783333	1	4.193625
23.800000	1	4.405875
23.816667	1	4.591500
23.833333	1	4.746750
23.850000	1	4.867375
23.866667	1	4.951000
23.883333	1	4.995375
23.900000	1	5.001250
23.916667	1	4.967375
23.933333	1	4.896250
23.950000	1	4.791000
23.966667	1	4.652875
23.983333	1	4.488250
24.000000	1	4.300125
24.016667	1	4.094000
24.033333	1	3.874875
24.050000	1	3.646750
24.066667	1	3.413750
24.083333	1	3.180000
24.100000	1	2.949625
24.116667	1	2.724750
24.133333	1	2.508625
24.150000	1	2.302500
24.166667	1	2.108500
24.183333	1	1.926875
24.200000	1	1.758875
24.216667	1	1.604375
24.233333	1	1.462875
24.250000	1	1.335125
24.266667	1	1.219875
24.283333	1	1.116125
24.300000	1	1.023625
24.316667	1	0.941875
24.333333	1	0.869375
24.350000	1	0.805625
24.366667	1	0.751250
24.383333	1	0.703500
24.400000	1	0.662625
24.416667	1	0.627625
24.433333	1	0.597875
24.450000	1	0.572625
24.466667	1	0.551125
24.483333	1	0.534500
24.500000	1	0.520500
24.516667	1	0.508875
24.533333	1	0.499500
24.550000	1	0.491375
24.566667	1	0.484625
24.583333	1	0.479125
24.600000	1	0.473375
24.616667	1	0.468375
24.633333	1	0.464000
24.650000	1	0.459375
24.666667	1	0.455250
24.683333	1	0.450625
24.700000	1	0.446250
24.716667	1	0.440875
24.733333	1	0.435750
24.750000	1	0.430250
24.766667	1	0.424625
24.783333	1	0.419500
24.800000	1	0.413375
24.816667	1	0.408375
24.833333	1	0.403000
24.850000	1	0.398125
24.866667	1	0.392500
24.883333	1	0.387625
24.900000	1	0.382625
24.916667	1	0.378000
24.933333	1	0.373500
24.950000	1	0.369750
24.966667	1	0.365750
24.983333	1	0.362000
25.000000	1	0.358000
25.016667	1	0.354875
25.033333	1	0.351375
25.050000	1	0.348000
25.066667	1	0.345000
25.083333	1	0.342000
25.100000	1	0.338500
25.116667	1	0.335500
25.133333	1	0.332875
25.150000	1	0.330125
25.166667	1	0.327250
25.183333	1	0.324375
25.200000	1	0.321625
25.216667	1	0.318750
25.233333	1	0.316125
25.250000	1	0.311875
25.266667	1	0.308625
25.283333	1	0.306125
25.300000	1	0.303375
25.316667	1	0.300750
25.333333	1	0.298250
25.350000	1	0.295625
25.366667	1	0.293625
25.383333	1	0.291625
25.400000	1	0.290000
25.416667	1	0.288375
25.433333	1	0.287250
25.450000	1	0.285500
25.466667	1	0.284000
25.483333	1	0.283125
25.500000	1	0.283375
25.516667	1	0.282875
25.533333	1	0.282750
25.550000	1	0.282375
25.566667	1	0.281875
25.583333	1	0.281375
25.600000	1	0.281625
25.616667	1	0.282125
25.633333	1	0.282000
25.650000	1	0.282750
25.666667	1	0.283375
25.683333	1	0.283750
25.700000	1	0.284125
25.716667	1	0.284625
25.733333	1	0.285500
25.750000	1	0.286250
25.766667	1	0.285750
25.783333	1	0.287125
25.800000	1	0.287625
25.816667	1	0.288625
25.833333	1	0.290125
25.850000	1	0.291125
25.866667	1	0.292625
25.883333	1	0.294875
25.900000	1	0.297000
25.916667	1	0.299875
25.933333	1	0.302750
25.950000	1	0.305625
25.966667	1	0.308625
25.983333	1	0.312750
26.000000	1	0.317375
26.016667	1	0.321875
26.033333	1	0.326250
26.050000	1	0.331375
26.066667	1	0.336750
26.083333	1	0.342000
26.100000	1	0.347750
26.116667	1	0.353750
26.133333	1	0.360500
26.150000	1	0.366375
26.166667	1	0.371250
26.183333	1	0.375875
26.200000	1	0.381125
26.216667	1	0.384500
26.233333	1	0.388125
26.250000	1	0.391250
26.266667	1	0.394250
26.283333	1	0.396750
26.300000	1	0.398000
26.316667	1	0.398500
26.333333	1	0.398375
26.350000	1	0.397250
26.366667	1	0.395625
26.383333	1	0.392750
26.400000	1	0.389500
26.416667	1	0.385000
26.433333	1	0.379625
26.450000	1	0.374875
26.466667	1	0.369000
26.483333	1	0.363125
26.500000	1	0.356375
26.516667	1	0.349250
26.533333	1	0.342125
26.550000	1	0.334875
26.566667	1	0.327375
26.583333	1	0.319625
26.600000	1	0.312375
26.616667	1	0.305625
26.633333	1	0.297500
26.650000	1	0.290625
26.666667	1	0.284125
26.683333	1	0.278500
26.700000	1	0.272375
26.716667	1	0.266875
26.733333	1	0.261750
26.750000	1	0.256500
26.766667	1	0.251125
26.783333	1	0.247250
26.800000	1	0.243625
26.816667	1	0.239875
26.833333	1	0.236500
26.850000	1	0.233375
26.866667	1	0.231375
26.883333	1	0.229125
26.900000	1	0.227875
26.916667	1	0.226500
26.933333	1	0.225125
26.950000	1	0.224250
26.966667	1	0.223500
26.983333	1	0.223750
27.000000	1	0.224375
27.016667	1	0.225750
27.033333	1	0.226375
27.050000	1	0.228625
27.066667	1	0.231750
27.083333	1	0.235375
27.100000	1	0.239875
27.116667	1	0.245000
27.133333	1	0.250875
27.150000	1	0.258375
27.166667	1	0.267000
27.183333	1	0.277000
27.200000	1	0.288375
27.216667	1	0.302500
27.233333	1	0.318875
27.250000	1	0.338375
27.266667	1	0.360250
27.283333	1	0.386250
27.300000	1	0.416375
27.316667	1	0.451375
27.333333	1	0.491125
27.350000	1	0.537125
27.366667	1	0.588250
27.383333	1	0.647625
27.400000	1	0.714625
27.416667	1	0.790125
27.433333	1	0.874875
27.450000	1	0.969625
27.466667	1	1.074375
27.483333	1	1.189750
27.500000	1	1.315250
27.516667	1	1.451625
27.533333	1	1.599000
27.550000	1	1.756250
27.566667	1	1.921375
27.583333	1	2.096125
27.600000	1	2.277625
27.616667	1	2.464000
27.633333	1	2.654875
27.650000	1	2.847250
27.666667	1	3.039125
27.683333	1	3.227625
27.700000	1	3.410000
27.716667	1	3.583250
27.733333	1	3.744625
27.750000	1	3.890500
27.766667	1	4.020375
27.783333	1	4.130250
27.800000	1	4.219500
27.816667	1	4.284500
27.833333	1	4.324250
27.850000	1	4.338375
27.866667	1	4.326750
27.883333	1	4.288500
27.900000	1	4.224000
27.916667	1	4.136625
27.933333	1	4.026500
27.950000	1	3.896500
27.966667	1	3.748375
27.983333	1	3.586000
28.000000	1	3.411500
28.016667	1	3.228125
28.033333	1	3.037875
28.050000	1	2.844625
28.066667	1	2.650500
28.083333	1	2.458875
28.100000	1	2.271750
28.116667	1	2.090000
28.133333	1	1.917250
28.150000	1	1.753125
28.166667	1	1.599250
28.183333	1	1.456500
28.200000	1	1.324500
28.216667	1	1.203375
28.233333	1	1.093625
28.250000	1	0.995125
28.266667	1	0.906375
28.283333	1	0.827250
28.300000	1	0.757625
28.316667	1	0.696375
28.333333	1	0.643875
28.350000	1	0.598375
28.366667	1	0.560000
28.383333	1	0.528375
28.400000	1	0.502500
28.416667	1	0.481875
28.433333	1	0.466250
28.450000	1	0.455375
28.466667	1	0.448000
28.483333	1	0.444125
28.500000	1	0.443125
28.516667	1	0.444250
28.533333	1	0.448000
28.550000	1	0.453625
28.566667	1	0.460625
28.583333	1	0.468500
28.600000	1	0.477750
28.616667	1	0.488250
28.633333	1	0.499000
28.650000	1	0.510875
28.666667	1	0.522750
28.683333	1	0.534375
28.700000	1	0.545875
28.716667	1	0.556750
28.733333	1	0.567750
28.750000	1	0.577125
28.766667	1	0.586125
28.783333	1	0.594375
28.800000	1	0.602000
28.816667	1	0.607750
28.833333	1	0.612750
28.850000	1	0.617125
28.866667	1	0.620375
28.883333	1	0.622375
28.900000	1	0.622875
28.916667	1	0.622375
28.933333	1	0.620750
28.950000	1	0.618000
28.966667	1	0.614000
28.983333	1	0.608250
29.000000	1	0.601875
29.016667	1	0.594000
29.033333	1	0.585500
29.050000	1	0.575625
29.066667	1	0.565000
29.083333	1	0.553375
29.100000	1	0.541875
29.116667	1	0.528750
29.133333	1	0.515125
29.150000	1	0.501250
29.166667	1	0.487625
29.183333	1	0.473375
29.200000	1	0.458500
29.216667	1	0.443250
29.233333	1	0.428250
29.250000	1	0.413000
29.266667	1	0.398625
29.283333	1	0.383500
29.300000	1	0.369250
29.316667	1	0.354375
29.333333	1	0.340750
29.350000	1	0.327500
29.366667	1	0.313875
29.383333	1	0.301000
29.400000	1	0.288625
29.416667	1	0.276625
29.433333	1	0.264875
29.450000	1	0.254250
29.466667	1	0.243375
29.483333	1	0.233375
29.500000	1	0.223625
29.516667	1	0.214000
29.533333	1	0.205500
29.550000	1	0.197250
29.566667	1	0.189250
29.583333	1	0.182625
29.600000	1	0.176125
29.616667	1	0.169375
29.633333	1	0.163875
29.650000	1	0.158125
29.666667	1	0.153500
29.683333	1	0.148625
29.700000	1	0.144375
29.716667	1	0.140500
29.733333	1	0.137000
29.750000	1	0.133750
29.766667	1	0.131500
29.783333	1	0.128875
29.800000	1	0.127375
29.816667	1	0.125500
29.833333	1	0.124375
29.850000	1	0.123000
29.866667	1	0.122125
29.883333	1	0.121000
29.900000	1	0.120250
29.916667	1	0.119250
29.933333	1	0.119000
29.950000	1	0.119250
29.966667	1	0.118750
29.983333	1	0.118625
30.000000	1	0.118750
30.016667	1	0.118125
30.033333	1	0.118875
30.050000	1	0.118875
30.066667	1	0.118750
30.083333	1	0.118125
30.100000	1	0.118375
30.116667	1	0.118500
30.133333	1	0.117750
30.150000	1	0.117625
30.166667	1	0.118625
30.183333	1	0.119125
30.200000	1	0.120125
30.216667	1	0.120000
30.233333	1	0.120000
30.250000	1	0.119625
30.266667	1	0.120750
30.283333	1	0.121500
30.300000	1	0.121875
30.316667	1	0.123375
30.333333	1	0.124375
30.350000	1	0.125625
30.366667	1	0.127750
30.383333	1	0.129750
30.400000	1	0.131875
30.416667	1	0.133875
30.433333	1	0.136500
30.450000	1	0.139250
30.466667	1	0.142000
30.483333	1	0.145625
30.500000	1	0.148625
30.516667	1	0.152500
30.533333	1	0.157000
30.550000	1	0.161500
30.566667	1	0.166625
30.583333	1	0.173125
30.600000	1	0.179500
30.616667	1	0.185750
30.633333	1	0.192875
30.650000	1	0.200500
30.666667	1	0.208500
30.683333	1	0.217375
30.700000	1	0.226750
30.716667	1	0.236875
30.733333	1	0.247125
30.750000	1	0.258625
30.766667	1	0.269875
30.783333	1	0.282375
30.800000	1	0.294875
30.816667	1	0.308625
30.833333	1	0.324125
30.850000	1	0.340500
30.866667	1	0.357500
30.883333	1	0.376375
30.900000	1	0.397000
30.916667	1	0.419250
30.933333	1	0.443875
30.950000	1	0.470875
30.966667	1	0.500375
30.983333	1	0.533250
31.000000	1	0.569875
31.016667	1	0.611375
31.033333	1	0.657625
31.050000	1	0.709125
31.066667	1	0.766125
31.083333	1	0.829125
31.100000	1	0.898250
31.116667	1	0.975125
31.133333	1	1.060000
31.150000	1	1.152250
31.166667	1	1.252250
31.183333	1	1.360250
31.200000	1	1.477000
31.216667	1	1.600750
31.233333	1	1.732750
31.250000	1	1.871125
31.266667	1	2.016000
31.283333	1	2.165375
31.300000	1	2.319000
31.316667	1	2.475125
31.333333	1	2.632875
31.350000	1	2.790375
31.366667	1	2.945375
31.383333	1	3.097000
31.400000	1	3.242750
31.416667	1	3.380875
31.433333	1	3.510125
31.450000	1	3.627375
31.466667	1	3.732625
31.483333	1	3.823000
31.500000	1	3.897125
31.516667	1	3.955875
31.533333	1	3.997000
31.550000	1	4.020125
31.566667	1	4.025000
31.583333	1	4.012125
31.600000	1	3.980625
31.616667	1	3.932375
31.633333	1	3.868125
31.650000	1	3.788500
31.666667	1	3.695125
31.683333	1	3.589250
31.700000	1	3.472625
31.716667	1	3.347250
31.733333	1	3.214375
31.750000	1	3.075250
31.766667	1	2.932000
31.783333	1	2.784375
31.800000	1	2.637375
31.816667	1	2.489375
31.833333	1	2.343500
31.850000	1	2.200125
31.866667	1	2.060125
31.883333	1	1.924625
31.900000	1	1.794750
31.916667	1	1.670750
31.933333	1	1.552750
31.950000	1	1.441500
31.966667	1	1.336375
31.983333	1	1.237750
32.000000	1	1.145750
32.016667	1	1.060000
32.033333	1	0.980125
32.050000	1	0.906750
32.066667	1	0.838750
32.083333	1	0.775625
32.100000	1	0.717250
32.116667	1	0.664000
32.133333	1	0.615750
32.150000	1	0.571000
32.166667	1	0.529750
32.183333	1	0.490750
32.200000	1	0.456125
32.216667	1	0.423750
32.233333	1	0.394375
32.250000	1	0.367250
32.266667	1	0.340875
32.283333	1	0.316625
32.300000	1	0.294000
32.316667	1	0.273375
32.333333	1	0.254000
32.350000	1	0.235500
32.366667	1	0.219000
32.383333	1	0.202875
32.400000	1	0.188250
32.416667	1	0.174625
32.433333	1	0.161250
32.450000	1	0.148875
32.466667	1	0.137500
32.483333	1	0.126625
32.500000	1	0.116125
32.516667	1	0.106500
32.533333	1	0.097625
32.550000	1	0.089750
32.566667	1	0.082125
32.583333	1	0.075375
32.600000	1	0.068750
32.616667	1	0.062000
32.633333	1	0.056500
32.650000	1	0.050500
32.666667	1	0.045375
32.683333	1	0.040500
32.700000	1	0.035750
32.716667	1	0.032000
32.733333	1	0.027875
32.750000	1	0.023375
32.766667	1	0.018750
32.783333	1	0.015375
32.800000	1	0.012625
32.816667	1	0.009750
32.833333	1	0.007125
32.850000	1	0.004750
32.866667	1	0.002375
32.883333	1	0.000625
32.900000	1	-0.000625
32.916667	1	-0.001875
32.933333	1	-0.003000
32.950000	1	-0.003625
32.966667	1	-0.003750
32.983333	1	-0.004750
33.000000	1	-0.005125
33.016667	1	-0.004750
33.033333	1	-0.004250
33.050000	1	-0.003625
33.066667	1	-0.002375
33.083333	1	-0.001000
33.100000	1	0.000250
33.116667	1	0.001875
33.133333	1	0.004125
33.150000	1	0.006500
33.166667	1	0.009625
33.183333	1	0.012625
33.200000	1	0.016375
33.216667	1	0.019625
33.233333	1	0.023375
33.250000	1	0.027000
33.266667	1	0.032375
33.283333	1	0.037500
33.300000	1	0.043250
33.316667	1	0.049125
33.333333	1	0.055375
33.350000	1	0.061875
33.366667	1	0.069625
33.383333	1	0.078000
33.400000	1	0.086875
33.416667	1	0.096250
33.433333	1	0.106625
33.450000	1	0.117000
33.466667	1	0.128875
33.483333	1	0.142000
33.500000	1	0.156000
33.516667	1	0.170875
33.533333	1	0.186625
33.550000	1	0.204375
33.566667	1	0.223375
33.583333	1	0.244000
33.600000	1	0.265375
33.616667	1	0.288125
33.633333	1	0.311875
33.650000	1	0.337125
33.666667	1	0.364125
33.683333	1	0.391625
33.700000	1	0.420500
33.716667	1	0.450875
33.733333	1	0.481625
33.750000	1	0.513500
33.766667	1	0.545625
33.783333	1	0.578000
33.800000	1	0.611000
33.816667	1	0.643875
33.833333	1	0.676375
33.850000	1	0.707250
33.866667	1	0.737500
33.883333	1	0.766625
33.900000	1	0.794000
33.916667	1	0.819750
33.933333	1	0.843250
33.950000	1	0.863875
33.966667	1	0.882625
33.983333	1	0.898250
34.000000	1	0.911125
34.016667	1	0.920625
34.033333	1	0.927375
34.050000	1	0.931250
34.066667	1	0.931125
34.083333	1	0.927750
34.100000	1	0.921500
34.116667	1	0.912750
34.133333	1	0.900750
34.150000	1	0.885125
34.166667	1	0.867625
34.183333	1	0.848250
34.200000	1	0.826625
34.216667	1	0.803000
34.233333	1	0.778375
34.250000	1	0.752875
34.266667	1	0.725500
34.283333	1	0.699000
34.300000	1	0.671750
34.316667	1	0.645125
34.333333	1	0.617375
34.350000	1	0.590625
34.366667	1	0.563375
34.383333	1	0.537500
34.400000	1	0.512375
34.416667	1	0.488500
34.433333	1	0.466000
34.450000	1	0.444250
34.466667	1	0.424250
34.483333	1	0.405000
34.500000	1	0.386625
34.516667	1	0.369750
34.533333	1	0.353875
34.550000	1	0.338750
34.566667	1	0.325500
34.583333	1	0.312875
34.600000	1	0.301250
34.616667	1	0.290125
34.633333	1	0.280125
34.650000	1	0.271125
34.666667	1	0.262750
34.683333	1	0.254750
34.700000	1	0.247125
34.716667	1	0.240125
34.733333	1	0.233500
34.750000	1	0.228250
34.766667	1	0.222625
34.783333	1	0.218000
34.800000	1	0.213625
34.816667	1	0.209250
34.833333	1	0.204750
34.850000	1	0.200500
34.866667	1	0.197625
34.883333	1	0.194625
34.900000	1	0.192000
34.916667	1	0.189375
34.933333	1	0.187250
34.950000	1	0.184875
34.966667	1	0.181500
34.983333	1	0.179500
35.000000	1	0.177750
35.016667	1	0.175125
35.033333	1	0.172500
35.050000	1	0.170375
35.066667	1	0.167625
35.083333	1	0.165250
35.100000	1	0.163875
35.116667	1	0.161500
35.133333	1	0.158625
35.150000	1	0.155750
35.166667	1	0.152750
35.183333	1	0.150250
35.200000	1	0.148125
35.216667	1	0.145625
35.233333	1	0.143625
35.250000	1	0.141250
35.266667	1	0.138500
35.283333	1	0.136125
35.300000	1	0.134000
35.316667	1	0.130875
35.333333	1	0.129000
35.350000	1	0.127500
35.366667	1	0.125375
35.383333	1	0.123750
35.400000	1	0.121875
35.416667	1	0.121000
35.433333	1	0.119875
35.450000	1	0.119875
35.466667	1	0.120125
35.483333	1	0.119875
35.500000	1	0.120250
35.516667	1	0.120750
35.533333	1	0.120875
35.550000	1	0.121750
35.566667	1	0.121625
35.583333	1	0.122625
35.600000	1	0.124375
35.616667	1	0.125750
35.633333	1	0.126500
35.650000	1	0.127500
35.666667	1	0.128750
35.683333	1	0.129875
35.700000	1	0.131375
35.716667	1	0.132250
35.733333	1	0.134625
35.750000	1	0.136125
35.766667	1	0.137250
35.783333	1	0.138750
35.800000	1	0.140500
35.816667	1	0.141875
35.833333	1	0.143000
35.850000	1	0.144375
35.866667	1	0.146250
35.883333	1	0.147500
35.900000	1	0.148625
35.916667	1	0.149875
35.933333	1	0.150875
35.950000	1	0.152000
35.966667	1	0.153000
35.983333	1	0.153000
36.000000	1	0.153500
36.016667	1	0.154125
36.033333	1	0.154875
36.050000	1	0.155125
36.066667	1	0.155500
36.083333	1	0.155500
36.100000	1	0.156000
36.116667	1	0.156250
36.133333	1	0.156750
36.150000	1	0.157000
36.166667	1	0.157500
36.183333	1	0.157375
36.200000	1	0.157875
36.216667	1	0.157750
36.233333	1	0.157375
36.250000	1	0.157625
36.266667	1	0.157625
36.283333	1	0.157750
36.300000	1	0.157875
36.316667	1	0.157375
36.333333	1	0.157500
36.350000	1	0.157250
36.366667	1	0.156750
36.383333	1	0.155625
36.400000	1	0.155250
36.416667	1	0.153875
36.433333	1	0.153125
36.450000	1	0.152125
36.466667	1	0.151000
36.483333	1	0.149125
36.500000	1	0.147250
36.516667	1	0.146250
36.533333	1	0.143750
36.550000	1	0.142000
36.566667	1	0.140375
36.583333	1	0.138250
36.600000	1	0.135750
36.616667	1	0.133250
36.633333	1	0.130750
36.650000	1	0.127625
36.666667	1	0.124500
36.683333	1	0.122125
36.700000	1	0.119250
36.716667	1	0.116500
36.733333	1	0.114000
36.750000	1	0.111625
36.766667	1	0.108875
36.783333	1	0.106000
36.800000	1	0.103250
36.816667	1	0.100875
36.833333	1	0.098000
36.850000	1	0.094875
36.866667	1	0.092375
36.883333	1	0.090625
36.900000	1	0.089125
36.916667	1	0.087500
36.933333	1	0.085500
36.950000	1	0.084375
36.966667	1	0.083000
36.983333	1	0.081500
37.000000	1	0.080125
37.016667	1	0.078500
37.033333	1	0.077125
37.050000	1	0.076500
37.066667	1	0.075750
37.083333	1	0.075125
37.100000	1	0.075125
37.116667	1	0.074500
37.133333	1	0.073750
37.150000	1	0.073500
37.166667	1	0.073000
37.183333	1	0.073125
37.200000	1	0.072375
37.216667	1	0.072625
37.233333	1	0.072125
37.250000	1	0.072250
37.266667	1	0.071875
37.283333	1	0.072125
37.300000	1	0.072250
37.316667	1	0.071875
37.333333	1	0.071750
37.350000	1	0.071750
37.366667	1	0.071125
37.383333	1	0.070875
37.400000	1	0.070625
37.416667	1	0.070000
37.433333	1	0.069500
37.450000	1	0.069250
37.466667	1	0.069625
37.483333	1	0.068625
37.500000	1	0.068500
37.516667	1	0.068000
37.533333	1	0.067250
37.550000	1	0.066250
37.566667	1	0.065125
37.583333	1	0.064875
37.600000	1	0.064375
37.616667	1	0.063625
37.633333	1	0.062625
37.650000	1	0.061750
37.666667	1	0.061250
37.683333	1	0.060375
37.700000	1	0.058875
37.716667	1	0.058000
37.733333	1	0.057000
37.750000	1	0.056125
37.766667	1	0.055125
37.783333	1	0.054250
37.800000	1	0.053250
37.816667	1	0.052125
37.833333	1	0.051000
37.850000	1	0.050625
37.866667	1	0.049375
37.883333	1	0.048875
37.900000	1	0.048250
37.916667	1	0.047875
37.933333	1	0.047000
37.950000	1	0.047000
37.966667	1	0.046625
37.983333	1	0.046750
38.000000	1	0.046750
38.016667	1	0.046000
38.033333	1	0.044750
38.050000	1	0.045000
38.066667	1	0.045875
38.083333	1	0.045750
38.100000	1	0.046750
38.116667	1	0.047125
38.133333	1	0.047375
38.150000	1	0.047250
38.166667	1	0.048125
38.183333	1	0.047750
38.200000	1	0.047875
38.216667	1	0.048000
38.233333	1	0.048125
38.250000	1	0.048250
38.266667	1	0.048750
38.283333	1	0.049125
38.300000	1	0.049125
38.316667	1	0.049000
38.333333	1	0.049250
38.350000	1	0.048750
38.366667	1	0.048125
38.383333	1	0.048000
38.400000	1	0.047250
38.416667	1	0.046750
38.433333	1	0.046750
38.450000	1	0.047000
38.466667	1	0.047000
38.483333	1	0.047250
38.500000	1	0.046875
38.516667	1	0.046125
38.533333	1	0.046500
38.550000	1	0.046625
38.566667	1	0.046625
38.583333	1	0.046500
38.600000	1	0.046375
38.616667	1	0.046875
38.633333	1	0.047000
38.650000	1	0.046625
38.666667	1	0.046875
38.683333	1	0.047500
38.700000	1	0.047500
38.716667	1	0.048125
38.733333	1	0.048250
38.750000	1	0.048375
38.766667	1	0.048000
38.783333	1	0.048875
38.800000	1	0.048500
38.816667	1	0.048125
38.833333	1	0.048625
38.850000	1	0.048750
38.866667	1	0.049125
38.883333	1	0.049500
38.900000	1	0.049750
38.916667	1	0.049875
38.933333	1	0.049875
38.950000	1	0.049875
38.966667	1	0.049500
38.983333	1	0.049125
39.000000	1	0.048625
39.016667	1	0.049000
39.033333	1	0.048625
39.050000	1	0.049250
39.066667	1	0.048875
39.083333	1	0.049375
39.100000	1	0.048500
39.116667	1	0.048000
39.133333	1	0.047625
39.150000	1	0.047625
39.166667	1	0.047000
39.183333	1	0.046875
39.200000	1	0.046125
39.216667	1	0.045500
39.233333	1	0.045000
39.250000	1	0.044250
39.266667	1	0.043375
39.283333	1	0.042375
39.300000	1	0.041750
39.316667	1	0.041375
39.333333	1	0.040875
39.350000	1	0.040000
39.366667	1	0.039000
39.383333	1	0.038375
39.400000	1	0.037500
39.416667	1	0.036625
39.433333	1	0.035500
39.450000	1	0.034500
39.466667	1	0.033750
39.483333	1	0.032500
39.500000	1	0.031625
39.516667	1	0.031250
39.533333	1	0.030250
39.550000	1	0.029250
39.566667	1	0.028375
39.583333	1	0.027500
39.600000	1	0.026750
39.616667	1	0.025875
39.633333	1	0.025500
39.650000	1	0.024375
39.666667	1	0.023125
39.683333	1	0.021875
39.700000	1	0.021375
39.716667	1	0.021000
39.733333	1	0.020125
39.750000	1	0.019000
39.766667	1	0.017875
39.783333	1	0.017250
39.800000	1	0.016625
39.816667	1	0.015000
39.833333	1	0.014500
39.850000	1	0.013125
39.866667	1	0.012000
39.883333	1	0.010750
39.900000	1	0.009000
39.916667	1	0.007625
39.933333	1	0.006375
39.950000	1	0.005375
39.966667	1	0.004500
39.983333	1	0.003250
40.000000	1	0.002125
