URL	chrom://bioreactor/micro_cm7/HPLC_Ultimate_3000/Users/markusar/20240708_MA_pHrange1.seq/439.smp/RI_1.channel/RI_1.chm
Channel	RI_1

Injection Information:
Data Vault	micro_cm7
Sequence	20240708_MA_pHrange1
Name	Fp1_5.7_3
Number	61
Position	BF3
Comment	
Processing Method	
Instrument Method	run_25B_method
Type	Unknown
Status	Finished
Inject Time	10.07.2024 08:32:51 +02:00
Volume (µl)	20.0000
Dilution Factor	1.0000
Weight	1.0000

Chromatogram Data Information:
Time Min. (min)	0.000000
Time Max. (min)	40.000000
Data Points	2401
Detector	RI
Generating Data System	Chromeleon 7.3.2.11814
Exporting Data System	Chromeleon 7.3.2.0
Operator	Instrument Controller
Signal Quantity	Refractive 
Signal Unit	µRIU
Signal Min.	-0.097000
Signal Max.	80.576875
Channel	RI_1
Driver Name	RID520Driver.dll
Channel Type	Evaluation
Min. Step (s)	1
Max. Step (s)	1
Average Step (s)	1

Signal Parameter Information:
Signal Info	

Chromatogram Data:
Time (min)	Step (s)	Value (µRIU)
0.000000	n.a.	0.003000
0.016667	1	0.002875
0.033333	1	0.003125
0.050000	1	0.003125
0.066667	1	0.003875
0.083333	1	0.004750
0.100000	1	0.005750
0.116667	1	0.006875
0.133333	1	0.008375
0.150000	1	0.009500
0.166667	1	0.011125
0.183333	1	0.012000
0.200000	1	0.013125
0.216667	1	0.014625
0.233333	1	0.017250
0.250000	1	0.019375
0.266667	1	0.020875
0.283333	1	0.022500
0.300000	1	0.024500
0.316667	1	0.026625
0.333333	1	0.028125
0.350000	1	0.030000
0.366667	1	0.030750
0.383333	1	0.031500
0.400000	1	0.032375
0.416667	1	0.034000
0.433333	1	0.036375
0.450000	1	0.039250
0.466667	1	0.042500
0.483333	1	0.044625
0.500000	1	0.046375
0.516667	1	0.048750
0.533333	1	0.049875
0.550000	1	0.049875
0.566667	1	0.049375
0.583333	1	0.048750
0.600000	1	0.047000
0.616667	1	0.045500
0.633333	1	0.043500
0.650000	1	0.042000
0.666667	1	0.041000
0.683333	1	0.039750
0.700000	1	0.038750
0.716667	1	0.037750
0.733333	1	0.037000
0.750000	1	0.036625
0.766667	1	0.035875
0.783333	1	0.034375
0.800000	1	0.033125
0.816667	1	0.031875
0.833333	1	0.030500
0.850000	1	0.029250
0.866667	1	0.027750
0.883333	1	0.026250
0.900000	1	0.024625
0.916667	1	0.023125
0.933333	1	0.021250
0.950000	1	0.019625
0.966667	1	0.019125
0.983333	1	0.017375
1.000000	1	0.015750
1.016667	1	0.014375
1.033333	1	0.012250
1.050000	1	0.010500
1.066667	1	0.008875
1.083333	1	0.008375
1.100000	1	0.007000
1.116667	1	0.006125
1.133333	1	0.005500
1.150000	1	0.005000
1.166667	1	0.004500
1.183333	1	0.003750
1.200000	1	0.002750
1.216667	1	0.002125
1.233333	1	0.001750
1.250000	1	0.001500
1.266667	1	0.001000
1.283333	1	0.000625
1.300000	1	0.000625
1.316667	1	0.000500
1.333333	1	0.000125
1.350000	1	-0.000250
1.366667	1	-0.000125
1.383333	1	-0.000250
1.400000	1	-0.000875
1.416667	1	-0.001125
1.433333	1	-0.000750
1.450000	1	-0.000750
1.466667	1	-0.001125
1.483333	1	-0.000875
1.500000	1	-0.000625
1.516667	1	-0.000500
1.533333	1	-0.000750
1.550000	1	-0.000125
1.566667	1	0.000000
1.583333	1	0.000000
1.600000	1	0.000000
1.616667	1	0.000000
1.633333	1	0.000000
1.650000	1	0.000125
1.666667	1	0.000125
1.683333	1	0.000875
1.700000	1	0.001625
1.716667	1	0.001625
1.733333	1	0.001125
1.750000	1	0.000625
1.766667	1	0.000500
1.783333	1	0.000875
1.800000	1	0.000625
1.816667	1	0.000125
1.833333	1	-0.000500
1.850000	1	-0.000875
1.866667	1	-0.001125
1.883333	1	-0.001375
1.900000	1	-0.001250
1.916667	1	-0.002000
1.933333	1	-0.002625
1.950000	1	-0.003000
1.966667	1	-0.003375
1.983333	1	-0.004250
2.000000	1	-0.005250
2.016667	1	-0.005500
2.033333	1	-0.006125
2.050000	1	-0.006875
2.066667	1	-0.007500
2.083333	1	-0.008500
2.100000	1	-0.009500
2.116667	1	-0.010750
2.133333	1	-0.011375
2.150000	1	-0.012125
2.166667	1	-0.013125
2.183333	1	-0.013875
2.200000	1	-0.014625
2.216667	1	-0.015875
2.233333	1	-0.016625
2.250000	1	-0.017750
2.266667	1	-0.019250
2.283333	1	-0.020125
2.300000	1	-0.020875
2.316667	1	-0.021750
2.333333	1	-0.022875
2.350000	1	-0.024375
2.366667	1	-0.026000
2.383333	1	-0.027750
2.400000	1	-0.029000
2.416667	1	-0.030125
2.433333	1	-0.031500
2.450000	1	-0.032750
2.466667	1	-0.034250
2.483333	1	-0.035500
2.500000	1	-0.036375
2.516667	1	-0.038500
2.533333	1	-0.039875
2.550000	1	-0.041500
2.566667	1	-0.043125
2.583333	1	-0.044875
2.600000	1	-0.045875
2.616667	1	-0.047000
2.633333	1	-0.048375
2.650000	1	-0.049625
2.666667	1	-0.051375
2.683333	1	-0.052375
2.700000	1	-0.053125
2.716667	1	-0.054250
2.733333	1	-0.054250
2.750000	1	-0.054500
2.766667	1	-0.055250
2.783333	1	-0.056000
2.800000	1	-0.056000
2.816667	1	-0.056500
2.833333	1	-0.056125
2.850000	1	-0.055500
2.866667	1	-0.054875
2.883333	1	-0.054625
2.900000	1	-0.054625
2.916667	1	-0.054125
2.933333	1	-0.053750
2.950000	1	-0.052625
2.966667	1	-0.052000
2.983333	1	-0.051000
3.000000	1	-0.049500
3.016667	1	-0.048500
3.033333	1	-0.046875
3.050000	1	-0.045125
3.066667	1	-0.042500
3.083333	1	-0.041125
3.100000	1	-0.039250
3.116667	1	-0.036750
3.133333	1	-0.034875
3.150000	1	-0.033000
3.166667	1	-0.030750
3.183333	1	-0.028000
3.200000	1	-0.026250
3.216667	1	-0.024000
3.233333	1	-0.021750
3.250000	1	-0.019250
3.266667	1	-0.017000
3.283333	1	-0.014500
3.300000	1	-0.012625
3.316667	1	-0.010250
3.333333	1	-0.007750
3.350000	1	-0.005625
3.366667	1	-0.003375
3.383333	1	-0.000375
3.400000	1	0.002000
3.416667	1	0.004375
3.433333	1	0.006375
3.450000	1	0.008375
3.466667	1	0.010625
3.483333	1	0.013125
3.500000	1	0.015750
3.516667	1	0.017500
3.533333	1	0.018625
3.550000	1	0.020125
3.566667	1	0.021875
3.583333	1	0.024250
3.600000	1	0.025500
3.616667	1	0.027500
3.633333	1	0.028500
3.650000	1	0.029625
3.666667	1	0.030750
3.683333	1	0.031375
3.700000	1	0.031875
3.716667	1	0.032750
3.733333	1	0.033250
3.750000	1	0.033125
3.766667	1	0.033625
3.783333	1	0.033625
3.800000	1	0.033875
3.816667	1	0.034875
3.833333	1	0.035500
3.850000	1	0.035250
3.866667	1	0.036000
3.883333	1	0.035875
3.900000	1	0.035750
3.916667	1	0.035250
3.933333	1	0.035250
3.950000	1	0.035625
3.966667	1	0.035625
3.983333	1	0.036000
4.000000	1	0.036000
4.016667	1	0.036125
4.033333	1	0.036375
4.050000	1	0.036125
4.066667	1	0.036125
4.083333	1	0.037250
4.100000	1	0.037750
4.116667	1	0.038000
4.133333	1	0.038375
4.150000	1	0.038500
4.166667	1	0.039375
4.183333	1	0.039875
4.200000	1	0.040625
4.216667	1	0.041750
4.233333	1	0.043250
4.250000	1	0.044125
4.266667	1	0.044875
4.283333	1	0.045875
4.300000	1	0.047000
4.316667	1	0.047875
4.333333	1	0.049000
4.350000	1	0.050250
4.366667	1	0.051250
4.383333	1	0.052625
4.400000	1	0.053875
4.416667	1	0.056125
4.433333	1	0.057500
4.450000	1	0.058750
4.466667	1	0.059750
4.483333	1	0.061750
4.500000	1	0.062875
4.516667	1	0.064250
4.533333	1	0.066000
4.550000	1	0.067375
4.566667	1	0.068625
4.583333	1	0.069500
4.600000	1	0.070500
4.616667	1	0.072375
4.633333	1	0.074375
4.650000	1	0.075500
4.666667	1	0.077500
4.683333	1	0.078875
4.700000	1	0.080375
4.716667	1	0.081875
4.733333	1	0.083000
4.750000	1	0.084750
4.766667	1	0.086500
4.783333	1	0.088625
4.800000	1	0.090625
4.816667	1	0.092375
4.833333	1	0.094000
4.850000	1	0.095625
4.866667	1	0.098375
4.883333	1	0.101125
4.900000	1	0.104000
4.916667	1	0.106875
4.933333	1	0.109375
4.950000	1	0.112500
4.966667	1	0.115625
4.983333	1	0.119000
5.000000	1	0.122375
5.016667	1	0.125625
5.033333	1	0.129500
5.050000	1	0.133375
5.066667	1	0.137250
5.083333	1	0.141250
5.100000	1	0.145125
5.116667	1	0.149375
5.133333	1	0.153500
5.150000	1	0.157000
5.166667	1	0.161250
5.183333	1	0.165750
5.200000	1	0.168875
5.216667	1	0.172750
5.233333	1	0.176500
5.250000	1	0.179875
5.266667	1	0.183000
5.283333	1	0.186875
5.300000	1	0.190250
5.316667	1	0.193750
5.333333	1	0.195875
5.350000	1	0.197875
5.366667	1	0.200250
5.383333	1	0.202250
5.400000	1	0.203500
5.416667	1	0.205125
5.433333	1	0.206375
5.450000	1	0.207125
5.466667	1	0.207625
5.483333	1	0.207750
5.500000	1	0.207125
5.516667	1	0.206625
5.533333	1	0.205375
5.550000	1	0.203500
5.566667	1	0.201625
5.583333	1	0.200125
5.600000	1	0.197625
5.616667	1	0.194625
5.633333	1	0.192000
5.650000	1	0.188750
5.666667	1	0.185625
5.683333	1	0.182000
5.700000	1	0.179125
5.716667	1	0.175250
5.733333	1	0.171750
5.750000	1	0.167375
5.766667	1	0.164000
5.783333	1	0.159750
5.800000	1	0.156125
5.816667	1	0.152500
5.833333	1	0.149000
5.850000	1	0.144750
5.866667	1	0.140875
5.883333	1	0.136625
5.900000	1	0.133375
5.916667	1	0.129125
5.933333	1	0.125000
5.950000	1	0.121250
5.966667	1	0.118000
5.983333	1	0.114375
6.000000	1	0.111000
6.016667	1	0.106875
6.033333	1	0.103375
6.050000	1	0.099875
6.066667	1	0.096375
6.083333	1	0.093000
6.100000	1	0.089250
6.116667	1	0.085875
6.133333	1	0.082500
6.150000	1	0.080000
6.166667	1	0.077375
6.183333	1	0.074750
6.200000	1	0.072375
6.216667	1	0.070000
6.233333	1	0.067125
6.250000	1	0.064375
6.266667	1	0.061750
6.283333	1	0.059625
6.300000	1	0.057250
6.316667	1	0.055500
6.333333	1	0.053375
6.350000	1	0.051625
6.366667	1	0.050750
6.383333	1	0.049500
6.400000	1	0.049125
6.416667	1	0.047875
6.433333	1	0.047000
6.450000	1	0.046125
6.466667	1	0.045125
6.483333	1	0.044000
6.500000	1	0.043375
6.516667	1	0.042750
6.533333	1	0.042250
6.550000	1	0.042125
6.566667	1	0.041250
6.583333	1	0.041000
6.600000	1	0.040000
6.616667	1	0.039250
6.633333	1	0.038875
6.650000	1	0.038500
6.666667	1	0.038750
6.683333	1	0.038750
6.700000	1	0.038375
6.716667	1	0.038375
6.733333	1	0.038000
6.750000	1	0.038250
6.766667	1	0.039000
6.783333	1	0.038625
6.800000	1	0.038875
6.816667	1	0.039500
6.833333	1	0.040125
6.850000	1	0.040750
6.866667	1	0.042250
6.883333	1	0.043625
6.900000	1	0.045125
6.916667	1	0.046625
6.933333	1	0.047875
6.950000	1	0.049000
6.966667	1	0.050875
6.983333	1	0.053125
7.000000	1	0.055000
7.016667	1	0.057125
7.033333	1	0.059875
7.050000	1	0.061125
7.066667	1	0.063250
7.083333	1	0.065000
7.100000	1	0.068000
7.116667	1	0.070500
7.133333	1	0.073250
7.150000	1	0.075500
7.166667	1	0.077250
7.183333	1	0.079250
7.200000	1	0.081750
7.216667	1	0.083500
7.233333	1	0.085375
7.250000	1	0.086625
7.266667	1	0.087250
7.283333	1	0.088000
7.300000	1	0.088875
7.316667	1	0.088750
7.333333	1	0.089375
7.350000	1	0.089000
7.366667	1	0.088625
7.383333	1	0.087500
7.400000	1	0.087000
7.416667	1	0.085250
7.433333	1	0.083250
7.450000	1	0.080875
7.466667	1	0.078500
7.483333	1	0.076125
7.500000	1	0.073000
7.516667	1	0.069875
7.533333	1	0.066375
7.550000	1	0.062750
7.566667	1	0.058250
7.583333	1	0.053750
7.600000	1	0.049375
7.616667	1	0.044250
7.633333	1	0.038875
7.650000	1	0.033375
7.666667	1	0.028250
7.683333	1	0.023125
7.700000	1	0.018250
7.716667	1	0.012375
7.733333	1	0.006625
7.750000	1	0.001125
7.766667	1	-0.004250
7.783333	1	-0.009625
7.800000	1	-0.014750
7.816667	1	-0.019500
7.833333	1	-0.024375
7.850000	1	-0.029500
7.866667	1	-0.034125
7.883333	1	-0.039125
7.900000	1	-0.043625
7.916667	1	-0.047875
7.933333	1	-0.051375
7.950000	1	-0.054250
7.966667	1	-0.057625
7.983333	1	-0.060625
8.000000	1	-0.063375
8.016667	1	-0.065750
8.033333	1	-0.067500
8.050000	1	-0.069125
8.066667	1	-0.070125
8.083333	1	-0.071125
8.100000	1	-0.071500
8.116667	1	-0.072750
8.133333	1	-0.072625
8.150000	1	-0.072125
8.166667	1	-0.072125
8.183333	1	-0.071250
8.200000	1	-0.070875
8.216667	1	-0.070250
8.233333	1	-0.069000
8.250000	1	-0.067750
8.266667	1	-0.066500
8.283333	1	-0.065500
8.300000	1	-0.064000
8.316667	1	-0.062375
8.333333	1	-0.060875
8.350000	1	-0.058750
8.366667	1	-0.056750
8.383333	1	-0.055500
8.400000	1	-0.054750
8.416667	1	-0.053375
8.433333	1	-0.051750
8.450000	1	-0.051125
8.466667	1	-0.050250
8.483333	1	-0.049625
8.500000	1	-0.048625
8.516667	1	-0.048000
8.533333	1	-0.047625
8.550000	1	-0.046875
8.566667	1	-0.046125
8.583333	1	-0.046000
8.600000	1	-0.046000
8.616667	1	-0.045500
8.633333	1	-0.045750
8.650000	1	-0.045750
8.666667	1	-0.046125
8.683333	1	-0.046625
8.700000	1	-0.046125
8.716667	1	-0.046125
8.733333	1	-0.045875
8.750000	1	-0.046625
8.766667	1	-0.046875
8.783333	1	-0.047125
8.800000	1	-0.047125
8.816667	1	-0.047875
8.833333	1	-0.048375
8.850000	1	-0.048375
8.866667	1	-0.048500
8.883333	1	-0.049125
8.900000	1	-0.049625
8.916667	1	-0.050250
8.933333	1	-0.050750
8.950000	1	-0.051750
8.966667	1	-0.052875
8.983333	1	-0.052875
9.000000	1	-0.054375
9.016667	1	-0.055375
9.033333	1	-0.055875
9.050000	1	-0.056750
9.066667	1	-0.057875
9.083333	1	-0.058625
9.100000	1	-0.059625
9.116667	1	-0.060750
9.133333	1	-0.061125
9.150000	1	-0.062125
9.166667	1	-0.063500
9.183333	1	-0.064625
9.200000	1	-0.066000
9.216667	1	-0.067250
9.233333	1	-0.068375
9.250000	1	-0.069625
9.266667	1	-0.070125
9.283333	1	-0.071250
9.300000	1	-0.071500
9.316667	1	-0.072125
9.333333	1	-0.072000
9.350000	1	-0.072875
9.366667	1	-0.073500
9.383333	1	-0.074375
9.400000	1	-0.075250
9.416667	1	-0.075750
9.433333	1	-0.076375
9.450000	1	-0.076875
9.466667	1	-0.077375
9.483333	1	-0.077500
9.500000	1	-0.077500
9.516667	1	-0.077875
9.533333	1	-0.078375
9.550000	1	-0.078500
9.566667	1	-0.078500
9.583333	1	-0.078875
9.600000	1	-0.079500
9.616667	1	-0.080000
9.633333	1	-0.080500
9.650000	1	-0.080625
9.666667	1	-0.081125
9.683333	1	-0.082125
9.700000	1	-0.083500
9.716667	1	-0.083875
9.733333	1	-0.084125
9.750000	1	-0.084875
9.766667	1	-0.085125
9.783333	1	-0.086375
9.800000	1	-0.087250
9.816667	1	-0.088250
9.833333	1	-0.089125
9.850000	1	-0.090500
9.866667	1	-0.091875
9.883333	1	-0.092625
9.900000	1	-0.093250
9.916667	1	-0.094000
9.933333	1	-0.094750
9.950000	1	-0.095250
9.966667	1	-0.096000
9.983333	1	-0.096750
10.000000	1	-0.097000
10.016667	1	-0.096500
10.033333	1	-0.095375
10.050000	1	-0.094875
10.066667	1	-0.093625
10.083333	1	-0.091750
10.100000	1	-0.088250
10.116667	1	-0.084000
10.133333	1	-0.078625
10.150000	1	-0.072250
10.166667	1	-0.064375
10.183333	1	-0.056875
10.200000	1	-0.047000
10.216667	1	-0.036375
10.233333	1	-0.024375
10.250000	1	-0.010875
10.266667	1	0.004250
10.283333	1	0.021375
10.300000	1	0.041125
10.316667	1	0.063250
10.333333	1	0.087750
10.350000	1	0.114375
10.366667	1	0.140500
10.383333	1	0.166250
10.400000	1	0.189125
10.416667	1	0.206625
10.433333	1	0.217125
10.450000	1	0.219750
10.466667	1	0.216750
10.483333	1	0.214500
10.500000	1	0.224375
10.516667	1	0.267000
10.533333	1	0.368750
10.550000	1	0.567500
10.566667	1	0.908625
10.583333	1	1.446625
10.600000	1	2.237000
10.616667	1	3.332875
10.633333	1	4.779750
10.650000	1	6.610875
10.666667	1	8.847875
10.683333	1	11.496125
10.700000	1	14.548625
10.716667	1	17.977375
10.733333	1	21.737000
10.750000	1	25.762750
10.766667	1	29.959250
10.783333	1	34.194125
10.800000	1	38.288750
10.816667	1	42.006375
10.833333	1	45.054125
10.850000	1	47.113625
10.866667	1	47.892125
10.883333	1	47.195625
10.900000	1	45.007500
10.916667	1	41.522500
10.933333	1	37.110250
10.950000	1	32.224125
10.966667	1	27.291000
10.983333	1	22.643750
11.000000	1	18.485875
11.016667	1	14.913500
11.033333	1	11.940750
11.050000	1	9.531000
11.066667	1	7.613875
11.083333	1	6.114250
11.100000	1	4.954000
11.116667	1	4.064250
11.133333	1	3.386125
11.150000	1	2.869250
11.166667	1	2.476125
11.183333	1	2.177625
11.200000	1	1.949000
11.216667	1	1.774625
11.233333	1	1.640750
11.250000	1	1.536875
11.266667	1	1.454250
11.283333	1	1.387875
11.300000	1	1.332125
11.316667	1	1.282625
11.333333	1	1.238750
11.350000	1	1.196500
11.366667	1	1.155375
11.383333	1	1.116000
11.400000	1	1.077000
11.416667	1	1.040250
11.433333	1	1.004750
11.450000	1	0.972500
11.466667	1	0.942750
11.483333	1	0.917375
11.500000	1	0.895750
11.516667	1	0.877625
11.533333	1	0.863500
11.550000	1	0.853625
11.566667	1	0.848625
11.583333	1	0.848125
11.600000	1	0.851625
11.616667	1	0.859625
11.633333	1	0.872500
11.650000	1	0.890125
11.666667	1	0.911750
11.683333	1	0.937125
11.700000	1	0.965125
11.716667	1	0.995000
11.733333	1	1.025000
11.750000	1	1.053500
11.766667	1	1.079375
11.783333	1	1.100750
11.800000	1	1.117250
11.816667	1	1.127375
11.833333	1	1.131875
11.850000	1	1.130500
11.866667	1	1.124500
11.883333	1	1.114000
11.900000	1	1.099875
11.916667	1	1.084000
11.933333	1	1.066250
11.950000	1	1.048000
11.966667	1	1.030500
11.983333	1	1.014375
12.000000	1	1.000000
12.016667	1	0.987125
12.033333	1	0.976750
12.050000	1	0.968625
12.066667	1	0.961500
12.083333	1	0.957250
12.100000	1	0.954250
12.116667	1	0.953250
12.133333	1	0.952750
12.150000	1	0.954375
12.166667	1	0.956625
12.183333	1	0.960875
12.200000	1	0.967625
12.216667	1	0.976250
12.233333	1	0.988125
12.250000	1	1.004875
12.266667	1	1.026750
12.283333	1	1.056750
12.300000	1	1.097875
12.316667	1	1.153000
12.333333	1	1.227625
12.350000	1	1.327500
12.366667	1	1.462375
12.383333	1	1.643250
12.400000	1	1.886375
12.416667	1	2.211250
12.433333	1	2.643500
12.450000	1	3.217500
12.466667	1	3.976125
12.483333	1	4.971500
12.500000	1	6.269250
12.516667	1	7.941250
12.533333	1	10.067750
12.550000	1	12.727750
12.566667	1	15.996375
12.583333	1	19.928250
12.600000	1	24.549875
12.616667	1	29.837750
12.633333	1	35.723375
12.650000	1	42.080250
12.666667	1	48.722125
12.683333	1	55.402875
12.700000	1	61.835750
12.716667	1	67.711125
12.733333	1	72.731000
12.750000	1	76.635750
12.766667	1	79.239875
12.783333	1	80.440000
12.800000	1	80.231875
12.816667	1	78.706000
12.833333	1	76.031500
12.850000	1	72.433250
12.866667	1	68.172125
12.883333	1	63.521500
12.900000	1	58.738625
12.916667	1	54.052375
12.933333	1	49.645250
12.950000	1	45.650375
12.966667	1	42.148125
12.983333	1	39.172875
13.000000	1	36.727125
13.016667	1	34.787625
13.033333	1	33.311250
13.050000	1	32.250000
13.066667	1	31.552000
13.083333	1	31.165000
13.100000	1	31.042125
13.116667	1	31.141000
13.133333	1	31.423250
13.150000	1	31.859125
13.166667	1	32.420625
13.183333	1	33.086750
13.200000	1	33.839000
13.216667	1	34.662500
13.233333	1	35.547125
13.250000	1	36.484500
13.266667	1	37.469375
13.283333	1	38.495750
13.300000	1	39.559875
13.316667	1	40.658375
13.333333	1	41.789375
13.350000	1	42.951375
13.366667	1	44.142125
13.383333	1	45.362375
13.400000	1	46.609625
13.416667	1	47.884500
13.433333	1	49.189125
13.450000	1	50.523875
13.466667	1	51.889500
13.483333	1	53.285250
13.500000	1	54.712375
13.516667	1	56.170750
13.533333	1	57.661375
13.550000	1	59.182875
13.566667	1	60.735125
13.583333	1	62.319750
13.600000	1	63.934500
13.616667	1	65.581625
13.633333	1	67.261375
13.650000	1	68.976750
13.666667	1	70.728625
13.683333	1	72.515000
13.700000	1	74.324875
13.716667	1	76.120500
13.733333	1	77.808750
13.750000	1	79.239375
13.766667	1	80.223000
13.783333	1	80.576875
13.800000	1	80.152250
13.816667	1	78.825250
13.833333	1	76.464250
13.850000	1	72.905500
13.866667	1	67.994375
13.883333	1	61.712125
13.900000	1	54.320500
13.916667	1	46.375750
13.933333	1	38.567625
13.950000	1	31.468125
13.966667	1	25.394000
13.983333	1	20.414750
14.000000	1	16.444625
14.016667	1	13.332000
14.033333	1	10.923125
14.050000	1	9.081750
14.066667	1	7.692250
14.083333	1	6.654375
14.100000	1	5.882375
14.116667	1	5.308250
14.133333	1	4.878000
14.150000	1	4.551125
14.166667	1	4.296250
14.183333	1	4.094375
14.200000	1	3.931000
14.216667	1	3.794375
14.233333	1	3.679125
14.250000	1	3.578375
14.266667	1	3.488750
14.283333	1	3.409000
14.300000	1	3.336125
14.316667	1	3.268750
14.333333	1	3.206375
14.350000	1	3.148625
14.366667	1	3.095000
14.383333	1	3.045625
14.400000	1	2.999375
14.416667	1	2.956750
14.433333	1	2.917000
14.450000	1	2.880125
14.466667	1	2.846000
14.483333	1	2.813750
14.500000	1	2.783250
14.516667	1	2.755000
14.533333	1	2.728625
14.550000	1	2.702875
14.566667	1	2.677375
14.583333	1	2.652625
14.600000	1	2.628625
14.616667	1	2.604500
14.633333	1	2.581375
14.650000	1	2.557625
14.666667	1	2.534875
14.683333	1	2.512000
14.700000	1	2.490625
14.716667	1	2.470625
14.733333	1	2.451750
14.750000	1	2.434375
14.766667	1	2.419375
14.783333	1	2.405000
14.800000	1	2.392250
14.816667	1	2.379625
14.833333	1	2.367000
14.850000	1	2.353375
14.866667	1	2.337500
14.883333	1	2.318125
14.900000	1	2.296125
14.916667	1	2.270625
14.933333	1	2.241875
14.950000	1	2.209750
14.966667	1	2.173250
14.983333	1	2.134875
15.000000	1	2.094250
15.016667	1	2.052250
15.033333	1	2.010125
15.050000	1	1.968500
15.066667	1	1.927750
15.083333	1	1.888250
15.100000	1	1.852375
15.116667	1	1.817500
15.133333	1	1.786000
15.150000	1	1.756750
15.166667	1	1.730250
15.183333	1	1.707125
15.200000	1	1.685875
15.216667	1	1.667375
15.233333	1	1.650750
15.250000	1	1.636875
15.266667	1	1.627000
15.283333	1	1.619375
15.300000	1	1.614875
15.316667	1	1.613375
15.333333	1	1.616250
15.350000	1	1.623375
15.366667	1	1.636125
15.383333	1	1.653500
15.400000	1	1.675375
15.416667	1	1.702375
15.433333	1	1.732625
15.450000	1	1.766000
15.466667	1	1.801750
15.483333	1	1.837375
15.500000	1	1.870375
15.516667	1	1.899875
15.533333	1	1.923625
15.550000	1	1.940375
15.566667	1	1.948750
15.583333	1	1.948875
15.600000	1	1.939125
15.616667	1	1.920875
15.633333	1	1.895750
15.650000	1	1.863625
15.666667	1	1.826250
15.683333	1	1.786625
15.700000	1	1.744875
15.716667	1	1.702375
15.733333	1	1.660125
15.750000	1	1.619250
15.766667	1	1.580500
15.783333	1	1.543000
15.800000	1	1.507375
15.816667	1	1.473375
15.833333	1	1.440000
15.850000	1	1.408250
15.866667	1	1.377625
15.883333	1	1.348750
15.900000	1	1.319750
15.916667	1	1.292750
15.933333	1	1.266750
15.950000	1	1.242750
15.966667	1	1.220625
15.983333	1	1.200750
16.000000	1	1.182875
16.016667	1	1.167750
16.033333	1	1.154125
16.050000	1	1.142750
16.066667	1	1.133875
16.083333	1	1.125625
16.100000	1	1.119625
16.116667	1	1.114625
16.133333	1	1.110500
16.150000	1	1.108125
16.166667	1	1.105875
16.183333	1	1.104000
16.200000	1	1.103000
16.216667	1	1.101625
16.233333	1	1.099875
16.250000	1	1.097125
16.266667	1	1.094375
16.283333	1	1.090625
16.300000	1	1.086375
16.316667	1	1.081875
16.333333	1	1.076375
16.350000	1	1.070750
16.366667	1	1.064750
16.383333	1	1.058500
16.400000	1	1.053625
16.416667	1	1.048750
16.433333	1	1.044500
16.450000	1	1.041250
16.466667	1	1.039375
16.483333	1	1.039250
16.500000	1	1.041125
16.516667	1	1.044625
16.533333	1	1.049750
16.550000	1	1.057375
16.566667	1	1.066125
16.583333	1	1.076250
16.600000	1	1.086625
16.616667	1	1.097125
16.633333	1	1.107250
16.650000	1	1.116625
16.666667	1	1.125625
16.683333	1	1.133125
16.700000	1	1.139500
16.716667	1	1.145375
16.733333	1	1.149875
16.750000	1	1.153375
16.766667	1	1.157500
16.783333	1	1.161500
16.800000	1	1.165250
16.816667	1	1.169875
16.833333	1	1.175500
16.850000	1	1.181500
16.866667	1	1.187625
16.883333	1	1.193875
16.900000	1	1.199500
16.916667	1	1.204875
16.933333	1	1.210125
16.950000	1	1.213875
16.966667	1	1.216875
16.983333	1	1.219125
17.000000	1	1.220125
17.016667	1	1.219625
17.033333	1	1.217500
17.050000	1	1.215125
17.066667	1	1.212125
17.083333	1	1.208625
17.100000	1	1.204625
17.116667	1	1.201000
17.133333	1	1.197500
17.150000	1	1.195125
17.166667	1	1.193875
17.183333	1	1.192875
17.200000	1	1.193250
17.216667	1	1.194625
17.233333	1	1.196375
17.250000	1	1.200125
17.266667	1	1.204250
17.283333	1	1.208375
17.300000	1	1.214750
17.316667	1	1.221000
17.333333	1	1.227250
17.350000	1	1.234000
17.366667	1	1.240375
17.383333	1	1.246375
17.400000	1	1.252625
17.416667	1	1.257625
17.433333	1	1.262000
17.450000	1	1.264625
17.466667	1	1.265500
17.483333	1	1.265000
17.500000	1	1.262125
17.516667	1	1.257750
17.533333	1	1.251500
17.550000	1	1.243125
17.566667	1	1.233125
17.583333	1	1.220625
17.600000	1	1.207125
17.616667	1	1.192000
17.633333	1	1.176625
17.650000	1	1.159500
17.666667	1	1.141875
17.683333	1	1.123375
17.700000	1	1.104625
17.716667	1	1.085375
17.733333	1	1.066750
17.750000	1	1.048875
17.766667	1	1.031250
17.783333	1	1.013875
17.800000	1	0.996625
17.816667	1	0.980625
17.833333	1	0.964500
17.850000	1	0.949250
17.866667	1	0.934875
17.883333	1	0.920625
17.900000	1	0.907000
17.916667	1	0.893750
17.933333	1	0.880875
17.950000	1	0.868625
17.966667	1	0.857250
17.983333	1	0.846250
18.000000	1	0.836250
18.016667	1	0.826750
18.033333	1	0.817875
18.050000	1	0.809375
18.066667	1	0.800875
18.083333	1	0.792875
18.100000	1	0.785000
18.116667	1	0.777875
18.133333	1	0.771500
18.150000	1	0.765625
18.166667	1	0.760625
18.183333	1	0.756250
18.200000	1	0.752250
18.216667	1	0.749500
18.233333	1	0.747875
18.250000	1	0.746625
18.266667	1	0.746000
18.283333	1	0.746000
18.300000	1	0.746750
18.316667	1	0.748500
18.333333	1	0.750750
18.350000	1	0.752750
18.366667	1	0.755125
18.383333	1	0.758250
18.400000	1	0.762000
18.416667	1	0.766500
18.433333	1	0.770750
18.450000	1	0.776000
18.466667	1	0.781875
18.483333	1	0.789250
18.500000	1	0.797500
18.516667	1	0.807375
18.533333	1	0.818750
18.550000	1	0.831875
18.566667	1	0.846750
18.583333	1	0.863500
18.600000	1	0.882750
18.616667	1	0.903375
18.633333	1	0.925875
18.650000	1	0.950625
18.666667	1	0.977500
18.683333	1	1.005375
18.700000	1	1.035625
18.716667	1	1.067000
18.733333	1	1.100000
18.750000	1	1.133375
18.766667	1	1.167500
18.783333	1	1.201875
18.800000	1	1.236500
18.816667	1	1.269875
18.833333	1	1.302625
18.850000	1	1.333000
18.866667	1	1.360250
18.883333	1	1.384375
18.900000	1	1.404750
18.916667	1	1.420125
18.933333	1	1.429875
18.950000	1	1.433750
18.966667	1	1.430750
18.983333	1	1.421375
19.000000	1	1.404625
19.016667	1	1.382250
19.033333	1	1.352375
19.050000	1	1.316375
19.066667	1	1.276000
19.083333	1	1.231250
19.100000	1	1.181875
19.116667	1	1.130375
19.133333	1	1.078625
19.150000	1	1.027625
19.166667	1	0.977000
19.183333	1	0.928500
19.200000	1	0.880750
19.216667	1	0.837500
19.233333	1	0.797250
19.250000	1	0.762625
19.266667	1	0.732875
19.283333	1	0.707625
19.300000	1	0.688250
19.316667	1	0.674875
19.333333	1	0.666250
19.350000	1	0.663375
19.366667	1	0.666250
19.383333	1	0.674375
19.400000	1	0.686875
19.416667	1	0.705000
19.433333	1	0.726375
19.450000	1	0.751000
19.466667	1	0.778750
19.483333	1	0.808625
19.500000	1	0.839625
19.516667	1	0.870250
19.533333	1	0.900750
19.550000	1	0.928500
19.566667	1	0.953500
19.583333	1	0.974750
19.600000	1	0.991625
19.616667	1	1.003000
19.633333	1	1.008250
19.650000	1	1.007750
19.666667	1	1.001250
19.683333	1	0.989250
19.700000	1	0.972000
19.716667	1	0.949875
19.733333	1	0.924250
19.750000	1	0.894750
19.766667	1	0.862375
19.783333	1	0.828875
19.800000	1	0.794375
19.816667	1	0.758875
19.833333	1	0.724125
19.850000	1	0.690750
19.866667	1	0.657875
19.883333	1	0.626625
19.900000	1	0.598000
19.916667	1	0.571500
19.933333	1	0.548125
19.950000	1	0.526625
19.966667	1	0.507625
19.983333	1	0.491250
20.000000	1	0.476625
20.016667	1	0.465250
20.033333	1	0.456625
20.050000	1	0.449375
20.066667	1	0.444875
20.083333	1	0.442500
20.100000	1	0.443375
20.116667	1	0.446000
20.133333	1	0.451250
20.150000	1	0.458750
20.166667	1	0.468500
20.183333	1	0.480375
20.200000	1	0.494375
20.216667	1	0.509250
20.233333	1	0.525750
20.250000	1	0.542375
20.266667	1	0.559500
20.283333	1	0.575875
20.300000	1	0.590875
20.316667	1	0.604875
20.333333	1	0.616875
20.350000	1	0.626375
20.366667	1	0.633000
20.383333	1	0.636250
20.400000	1	0.636000
20.416667	1	0.633750
20.433333	1	0.627750
20.450000	1	0.620750
20.466667	1	0.612500
20.483333	1	0.602125
20.500000	1	0.592500
20.516667	1	0.583875
20.533333	1	0.577625
20.550000	1	0.574375
20.566667	1	0.575125
20.583333	1	0.580250
20.600000	1	0.590750
20.616667	1	0.608250
20.633333	1	0.632125
20.650000	1	0.662375
20.666667	1	0.700375
20.683333	1	0.746375
20.700000	1	0.798875
20.716667	1	0.858375
20.733333	1	0.924125
20.750000	1	0.993875
20.766667	1	1.066625
20.783333	1	1.140625
20.800000	1	1.213875
20.816667	1	1.283875
20.833333	1	1.348750
20.850000	1	1.406875
20.866667	1	1.454250
20.883333	1	1.490250
20.900000	1	1.513875
20.916667	1	1.524625
20.933333	1	1.521500
20.950000	1	1.504875
20.966667	1	1.474875
20.983333	1	1.433250
21.000000	1	1.381625
21.016667	1	1.320875
21.033333	1	1.254625
21.050000	1	1.183750
21.066667	1	1.110250
21.083333	1	1.036875
21.100000	1	0.964375
21.116667	1	0.894000
21.133333	1	0.827250
21.150000	1	0.765375
21.166667	1	0.707875
21.183333	1	0.655250
21.200000	1	0.607750
21.216667	1	0.566000
21.233333	1	0.528875
21.250000	1	0.496750
21.266667	1	0.467875
21.283333	1	0.444250
21.300000	1	0.423750
21.316667	1	0.406875
21.333333	1	0.392000
21.350000	1	0.380375
21.366667	1	0.371000
21.383333	1	0.362750
21.400000	1	0.355875
21.416667	1	0.350500
21.433333	1	0.346250
21.450000	1	0.343125
21.466667	1	0.340875
21.483333	1	0.339500
21.500000	1	0.338750
21.516667	1	0.338750
21.533333	1	0.339375
21.550000	1	0.341000
21.566667	1	0.344625
21.583333	1	0.349125
21.600000	1	0.354750
21.616667	1	0.361500
21.633333	1	0.370500
21.650000	1	0.381500
21.666667	1	0.394375
21.683333	1	0.409375
21.700000	1	0.426875
21.716667	1	0.447000
21.733333	1	0.470500
21.750000	1	0.496875
21.766667	1	0.525500
21.783333	1	0.556125
21.800000	1	0.590000
21.816667	1	0.626125
21.833333	1	0.663875
21.850000	1	0.704125
21.866667	1	0.744875
21.883333	1	0.785750
21.900000	1	0.827500
21.916667	1	0.868000
21.933333	1	0.906500
21.950000	1	0.942750
21.966667	1	0.975250
21.983333	1	1.004125
22.000000	1	1.027500
22.016667	1	1.046000
22.033333	1	1.059000
22.050000	1	1.066375
22.066667	1	1.067875
22.083333	1	1.063500
22.100000	1	1.053375
22.116667	1	1.038375
22.133333	1	1.018375
22.150000	1	0.994500
22.166667	1	0.966625
22.183333	1	0.935750
22.200000	1	0.902750
22.216667	1	0.868125
22.233333	1	0.832125
22.250000	1	0.795250
22.266667	1	0.759000
22.283333	1	0.723625
22.300000	1	0.687875
22.316667	1	0.653875
22.333333	1	0.619875
22.350000	1	0.587500
22.366667	1	0.556500
22.383333	1	0.527125
22.400000	1	0.499000
22.416667	1	0.472125
22.433333	1	0.448000
22.450000	1	0.425750
22.466667	1	0.404500
22.483333	1	0.385000
22.500000	1	0.366875
22.516667	1	0.350250
22.533333	1	0.335000
22.550000	1	0.320875
22.566667	1	0.308500
22.583333	1	0.297250
22.600000	1	0.286875
22.616667	1	0.277125
22.633333	1	0.267750
22.650000	1	0.259625
22.666667	1	0.251875
22.683333	1	0.245125
22.700000	1	0.239000
22.716667	1	0.233000
22.733333	1	0.227625
22.750000	1	0.222250
22.766667	1	0.217375
22.783333	1	0.212250
22.800000	1	0.207750
22.816667	1	0.203125
22.833333	1	0.198375
22.850000	1	0.194125
22.866667	1	0.189875
22.883333	1	0.186625
22.900000	1	0.183250
22.916667	1	0.180500
22.933333	1	0.176750
22.950000	1	0.174250
22.966667	1	0.172125
22.983333	1	0.169625
23.000000	1	0.168125
23.016667	1	0.166500
23.033333	1	0.165500
23.050000	1	0.164375
23.066667	1	0.164250
23.083333	1	0.163750
23.100000	1	0.164625
23.116667	1	0.165250
23.133333	1	0.166875
23.150000	1	0.168875
23.166667	1	0.171000
23.183333	1	0.173375
23.200000	1	0.175875
23.216667	1	0.179375
23.233333	1	0.183000
23.250000	1	0.187250
23.266667	1	0.192375
23.283333	1	0.198750
23.300000	1	0.207250
23.316667	1	0.216750
23.333333	1	0.228000
23.350000	1	0.242875
23.366667	1	0.260000
23.383333	1	0.280375
23.400000	1	0.305625
23.416667	1	0.336000
23.433333	1	0.373125
23.450000	1	0.416750
23.466667	1	0.468375
23.483333	1	0.528875
23.500000	1	0.599875
23.516667	1	0.681875
23.533333	1	0.777250
23.550000	1	0.886250
23.566667	1	1.010125
23.583333	1	1.149000
23.600000	1	1.304375
23.616667	1	1.474750
23.633333	1	1.661625
23.650000	1	1.863375
23.666667	1	2.079000
23.683333	1	2.306750
23.700000	1	2.544250
23.716667	1	2.788625
23.733333	1	3.037125
23.750000	1	3.284375
23.766667	1	3.526625
23.783333	1	3.758000
23.800000	1	3.973875
23.816667	1	4.169250
23.833333	1	4.340000
23.850000	1	4.482500
23.866667	1	4.592875
23.883333	1	4.669500
23.900000	1	4.709875
23.916667	1	4.712750
23.933333	1	4.680000
23.950000	1	4.612000
23.966667	1	4.509625
23.983333	1	4.378375
24.000000	1	4.220500
24.016667	1	4.041375
24.033333	1	3.844625
24.050000	1	3.634875
24.066667	1	3.416875
24.083333	1	3.194750
24.100000	1	2.970500
24.116667	1	2.748750
24.133333	1	2.533500
24.150000	1	2.325500
24.166667	1	2.126875
24.183333	1	1.940250
24.200000	1	1.765125
24.216667	1	1.604125
24.233333	1	1.455875
24.250000	1	1.320125
24.266667	1	1.197000
24.283333	1	1.086500
24.300000	1	0.987625
24.316667	1	0.898750
24.333333	1	0.820750
24.350000	1	0.751125
24.366667	1	0.691000
24.383333	1	0.638625
24.400000	1	0.593000
24.416667	1	0.554125
24.433333	1	0.521125
24.450000	1	0.493125
24.466667	1	0.470250
24.483333	1	0.450625
24.500000	1	0.434250
24.516667	1	0.421000
24.533333	1	0.409125
24.550000	1	0.399375
24.566667	1	0.391250
24.583333	1	0.384375
24.600000	1	0.378000
24.616667	1	0.372500
24.633333	1	0.367000
24.650000	1	0.362125
24.666667	1	0.357125
24.683333	1	0.351750
24.700000	1	0.346500
24.716667	1	0.341250
24.733333	1	0.334875
24.750000	1	0.328500
24.766667	1	0.321750
24.783333	1	0.315000
24.800000	1	0.308750
24.816667	1	0.302500
24.833333	1	0.295500
24.850000	1	0.289125
24.866667	1	0.282500
24.883333	1	0.276875
24.900000	1	0.269875
24.916667	1	0.263750
24.933333	1	0.257750
24.950000	1	0.251750
24.966667	1	0.246500
24.983333	1	0.241750
25.000000	1	0.237000
25.016667	1	0.231875
25.033333	1	0.227125
25.050000	1	0.223000
25.066667	1	0.218875
25.083333	1	0.215250
25.100000	1	0.211625
25.116667	1	0.208000
25.133333	1	0.203875
25.150000	1	0.199625
25.166667	1	0.196000
25.183333	1	0.192875
25.200000	1	0.189875
25.216667	1	0.186750
25.233333	1	0.184375
25.250000	1	0.182250
25.266667	1	0.178875
25.283333	1	0.175750
25.300000	1	0.173750
25.316667	1	0.171625
25.333333	1	0.169125
25.350000	1	0.167250
25.366667	1	0.165000
25.383333	1	0.163375
25.400000	1	0.162000
25.416667	1	0.160250
25.433333	1	0.160125
25.450000	1	0.159125
25.466667	1	0.158875
25.483333	1	0.158375
25.500000	1	0.158500
25.516667	1	0.158375
25.533333	1	0.158625
25.550000	1	0.159000
25.566667	1	0.160125
25.583333	1	0.161000
25.600000	1	0.161750
25.616667	1	0.162375
25.633333	1	0.163875
25.650000	1	0.165000
25.666667	1	0.166500
25.683333	1	0.167500
25.700000	1	0.168875
25.716667	1	0.169625
25.733333	1	0.171250
25.750000	1	0.172750
25.766667	1	0.174250
25.783333	1	0.175875
25.800000	1	0.178000
25.816667	1	0.179875
25.833333	1	0.181875
25.850000	1	0.184375
25.866667	1	0.187500
25.883333	1	0.190500
25.900000	1	0.193375
25.916667	1	0.196250
25.933333	1	0.200000
25.950000	1	0.204000
25.966667	1	0.208000
25.983333	1	0.211750
26.000000	1	0.216000
26.016667	1	0.221125
26.033333	1	0.226375
26.050000	1	0.231875
26.066667	1	0.236500
26.083333	1	0.242125
26.100000	1	0.246500
26.116667	1	0.251000
26.133333	1	0.255500
26.150000	1	0.259625
26.166667	1	0.263875
26.183333	1	0.267500
26.200000	1	0.270875
26.216667	1	0.273625
26.233333	1	0.275625
26.250000	1	0.277125
26.266667	1	0.278125
26.283333	1	0.278500
26.300000	1	0.277875
26.316667	1	0.277250
26.333333	1	0.275375
26.350000	1	0.273000
26.366667	1	0.269250
26.383333	1	0.265125
26.400000	1	0.261250
26.416667	1	0.255750
26.433333	1	0.250125
26.450000	1	0.243750
26.466667	1	0.237250
26.483333	1	0.229750
26.500000	1	0.222375
26.516667	1	0.214625
26.533333	1	0.207000
26.550000	1	0.199000
26.566667	1	0.191125
26.583333	1	0.183250
26.600000	1	0.175500
26.616667	1	0.167375
26.633333	1	0.159750
26.650000	1	0.152500
26.666667	1	0.145750
26.683333	1	0.139875
26.700000	1	0.133625
26.716667	1	0.127375
26.733333	1	0.122125
26.750000	1	0.117250
26.766667	1	0.112750
26.783333	1	0.108250
26.800000	1	0.104125
26.816667	1	0.101500
26.833333	1	0.099125
26.850000	1	0.097500
26.866667	1	0.096000
26.883333	1	0.095000
26.900000	1	0.094125
26.916667	1	0.093375
26.933333	1	0.094125
26.950000	1	0.093750
26.966667	1	0.094875
26.983333	1	0.096625
27.000000	1	0.099000
27.016667	1	0.102125
27.033333	1	0.105750
27.050000	1	0.110125
27.066667	1	0.114500
27.083333	1	0.120000
27.100000	1	0.126250
27.116667	1	0.133125
27.133333	1	0.141625
27.150000	1	0.150875
27.166667	1	0.161000
27.183333	1	0.173000
27.200000	1	0.187000
27.216667	1	0.203625
27.233333	1	0.222250
27.250000	1	0.243375
27.266667	1	0.267625
27.283333	1	0.293875
27.300000	1	0.324750
27.316667	1	0.359875
27.333333	1	0.399250
27.350000	1	0.444750
27.366667	1	0.496125
27.383333	1	0.552875
27.400000	1	0.616875
27.416667	1	0.688375
27.433333	1	0.767125
27.450000	1	0.855125
27.466667	1	0.952125
27.483333	1	1.057875
27.500000	1	1.173375
27.516667	1	1.298750
27.533333	1	1.433125
27.550000	1	1.576625
27.566667	1	1.729125
27.583333	1	1.889125
27.600000	1	2.056250
27.616667	1	2.229125
27.633333	1	2.406000
27.650000	1	2.585500
27.666667	1	2.766000
27.683333	1	2.945250
27.700000	1	3.120250
27.716667	1	3.288750
27.733333	1	3.448500
27.750000	1	3.595875
27.766667	1	3.728625
27.783333	1	3.844625
27.800000	1	3.942000
27.816667	1	4.018750
27.833333	1	4.072500
27.850000	1	4.102500
27.866667	1	4.108750
27.883333	1	4.089875
27.900000	1	4.045500
27.916667	1	3.978625
27.933333	1	3.889250
27.950000	1	3.778250
27.966667	1	3.648250
27.983333	1	3.501625
28.000000	1	3.341750
28.016667	1	3.169875
28.033333	1	2.990000
28.050000	1	2.804875
28.066667	1	2.616000
28.083333	1	2.428000
28.100000	1	2.242000
28.116667	1	2.060750
28.133333	1	1.885375
28.150000	1	1.718250
28.166667	1	1.560125
28.183333	1	1.412250
28.200000	1	1.274250
28.216667	1	1.147250
28.233333	1	1.031250
28.250000	1	0.925625
28.266667	1	0.829750
28.283333	1	0.744375
28.300000	1	0.668625
28.316667	1	0.602125
28.333333	1	0.544250
28.350000	1	0.494250
28.366667	1	0.452000
28.383333	1	0.415625
28.400000	1	0.385750
28.416667	1	0.362125
28.433333	1	0.343750
28.450000	1	0.328875
28.466667	1	0.318375
28.483333	1	0.311750
28.500000	1	0.307875
28.516667	1	0.306625
28.533333	1	0.307875
28.550000	1	0.311750
28.566667	1	0.317375
28.583333	1	0.324375
28.600000	1	0.333000
28.616667	1	0.342875
28.633333	1	0.353500
28.650000	1	0.364125
28.666667	1	0.375500
28.683333	1	0.386500
28.700000	1	0.397625
28.716667	1	0.408500
28.733333	1	0.418750
28.750000	1	0.428500
28.766667	1	0.437750
28.783333	1	0.446875
28.800000	1	0.454500
28.816667	1	0.461000
28.833333	1	0.466500
28.850000	1	0.470750
28.866667	1	0.474750
28.883333	1	0.477250
28.900000	1	0.478000
28.916667	1	0.477750
28.933333	1	0.476250
28.950000	1	0.474250
28.966667	1	0.470125
28.983333	1	0.465375
29.000000	1	0.459500
29.016667	1	0.452750
29.033333	1	0.444750
29.050000	1	0.436000
29.066667	1	0.425750
29.083333	1	0.415000
29.100000	1	0.404000
29.116667	1	0.391875
29.133333	1	0.378875
29.150000	1	0.365500
29.166667	1	0.351750
29.183333	1	0.338250
29.200000	1	0.324375
29.216667	1	0.311250
29.233333	1	0.297125
29.250000	1	0.282875
29.266667	1	0.268750
29.283333	1	0.254875
29.300000	1	0.241250
29.316667	1	0.228125
29.333333	1	0.215500
29.350000	1	0.202750
29.366667	1	0.190750
29.383333	1	0.178750
29.400000	1	0.166875
29.416667	1	0.156125
29.433333	1	0.145625
29.450000	1	0.136000
29.466667	1	0.126625
29.483333	1	0.117375
29.500000	1	0.109250
29.516667	1	0.101375
29.533333	1	0.093500
29.550000	1	0.086375
29.566667	1	0.079875
29.583333	1	0.074125
29.600000	1	0.068375
29.616667	1	0.063125
29.633333	1	0.057750
29.650000	1	0.053625
29.666667	1	0.049750
29.683333	1	0.045250
29.700000	1	0.042250
29.716667	1	0.039500
29.733333	1	0.036500
29.750000	1	0.033875
29.766667	1	0.031750
29.783333	1	0.029625
29.800000	1	0.027500
29.816667	1	0.025500
29.833333	1	0.023875
29.850000	1	0.022250
29.866667	1	0.020625
29.883333	1	0.019250
29.900000	1	0.018875
29.916667	1	0.018125
29.933333	1	0.017125
29.950000	1	0.016125
29.966667	1	0.014625
29.983333	1	0.013250
30.000000	1	0.013500
30.016667	1	0.013625
30.033333	1	0.013375
30.050000	1	0.013125
30.066667	1	0.013250
30.083333	1	0.012875
30.100000	1	0.013125
30.116667	1	0.013125
30.133333	1	0.013500
30.150000	1	0.013500
30.166667	1	0.013875
30.183333	1	0.014875
30.200000	1	0.015125
30.216667	1	0.016125
30.233333	1	0.016375
30.250000	1	0.017125
30.266667	1	0.018125
30.283333	1	0.019125
30.300000	1	0.019500
30.316667	1	0.020750
30.333333	1	0.021875
30.350000	1	0.023375
30.366667	1	0.025000
30.383333	1	0.026125
30.400000	1	0.027625
30.416667	1	0.030250
30.433333	1	0.031625
30.450000	1	0.033250
30.466667	1	0.035625
30.483333	1	0.038000
30.500000	1	0.041250
30.516667	1	0.044000
30.533333	1	0.046625
30.550000	1	0.050250
30.566667	1	0.053750
30.583333	1	0.057500
30.600000	1	0.062625
30.616667	1	0.068250
30.633333	1	0.073750
30.650000	1	0.079875
30.666667	1	0.087000
30.683333	1	0.094250
30.700000	1	0.103000
30.716667	1	0.112000
30.733333	1	0.122000
30.750000	1	0.132625
30.766667	1	0.144250
30.783333	1	0.156875
30.800000	1	0.171375
30.816667	1	0.187375
30.833333	1	0.205375
30.850000	1	0.225250
30.866667	1	0.246375
30.883333	1	0.270375
30.900000	1	0.296625
30.916667	1	0.326375
30.933333	1	0.359125
30.950000	1	0.396000
30.966667	1	0.436375
30.983333	1	0.481750
31.000000	1	0.531625
31.016667	1	0.587750
31.033333	1	0.649125
31.050000	1	0.717625
31.066667	1	0.793250
31.083333	1	0.875500
31.100000	1	0.966000
31.116667	1	1.065000
31.133333	1	1.171375
31.150000	1	1.286500
31.166667	1	1.410250
31.183333	1	1.542625
31.200000	1	1.684000
31.216667	1	1.832875
31.233333	1	1.989875
31.250000	1	2.151625
31.266667	1	2.319625
31.283333	1	2.491500
31.300000	1	2.667125
31.316667	1	2.843250
31.333333	1	3.019125
31.350000	1	3.193750
31.366667	1	3.363000
31.383333	1	3.527000
31.400000	1	3.683125
31.416667	1	3.828625
31.433333	1	3.962750
31.450000	1	4.082125
31.466667	1	4.185625
31.483333	1	4.272375
31.500000	1	4.341000
31.516667	1	4.390500
31.533333	1	4.419750
31.550000	1	4.429250
31.566667	1	4.418625
31.583333	1	4.388000
31.600000	1	4.337500
31.616667	1	4.268000
31.633333	1	4.181625
31.650000	1	4.078250
31.666667	1	3.961125
31.683333	1	3.830875
31.700000	1	3.689875
31.716667	1	3.539375
31.733333	1	3.382250
31.750000	1	3.219875
31.766667	1	3.053875
31.783333	1	2.885125
31.800000	1	2.716250
31.816667	1	2.548250
31.833333	1	2.382625
31.850000	1	2.222125
31.866667	1	2.065375
31.883333	1	1.914250
31.900000	1	1.769875
31.916667	1	1.632250
31.933333	1	1.502375
31.950000	1	1.380625
31.966667	1	1.266500
31.983333	1	1.160375
32.000000	1	1.061250
32.016667	1	0.968625
32.033333	1	0.883375
32.050000	1	0.805250
32.066667	1	0.733500
32.083333	1	0.668250
32.100000	1	0.608375
32.116667	1	0.553250
32.133333	1	0.504125
32.150000	1	0.458750
32.166667	1	0.417500
32.183333	1	0.379750
32.200000	1	0.345750
32.216667	1	0.314250
32.233333	1	0.286000
32.250000	1	0.259500
32.266667	1	0.235250
32.283333	1	0.212875
32.300000	1	0.192500
32.316667	1	0.173000
32.333333	1	0.155250
32.350000	1	0.138875
32.366667	1	0.123625
32.383333	1	0.109500
32.400000	1	0.096500
32.416667	1	0.083625
32.433333	1	0.072125
32.450000	1	0.061625
32.466667	1	0.051625
32.483333	1	0.041500
32.500000	1	0.032625
32.516667	1	0.023875
32.533333	1	0.015750
32.550000	1	0.008250
32.566667	1	0.001000
32.583333	1	-0.005250
32.600000	1	-0.010875
32.616667	1	-0.016375
32.633333	1	-0.021375
32.650000	1	-0.025750
32.666667	1	-0.030125
32.683333	1	-0.033625
32.700000	1	-0.037625
32.716667	1	-0.040375
32.733333	1	-0.043375
32.750000	1	-0.046625
32.766667	1	-0.048125
32.783333	1	-0.049250
32.800000	1	-0.050875
32.816667	1	-0.052625
32.833333	1	-0.053875
32.850000	1	-0.054875
32.866667	1	-0.055875
32.883333	1	-0.056375
32.900000	1	-0.056250
32.916667	1	-0.056875
32.933333	1	-0.056875
32.950000	1	-0.056500
32.966667	1	-0.055500
32.983333	1	-0.054750
33.000000	1	-0.054000
33.016667	1	-0.053625
33.033333	1	-0.052250
33.050000	1	-0.051000
33.066667	1	-0.050375
33.083333	1	-0.049250
33.100000	1	-0.048125
33.116667	1	-0.046750
33.133333	1	-0.044875
33.150000	1	-0.042625
33.166667	1	-0.040250
33.183333	1	-0.038000
33.200000	1	-0.035250
33.216667	1	-0.033375
33.233333	1	-0.031125
33.250000	1	-0.027125
33.266667	1	-0.023000
33.283333	1	-0.019125
33.300000	1	-0.014375
33.316667	1	-0.009750
33.333333	1	-0.004000
33.350000	1	0.002500
33.366667	1	0.008875
33.383333	1	0.016875
33.400000	1	0.026000
33.416667	1	0.035000
33.433333	1	0.045250
33.450000	1	0.056250
33.466667	1	0.068500
33.483333	1	0.082625
33.500000	1	0.097000
33.516667	1	0.114000
33.533333	1	0.132625
33.550000	1	0.152375
33.566667	1	0.174250
33.583333	1	0.197875
33.600000	1	0.223750
33.616667	1	0.250875
33.633333	1	0.279750
33.650000	1	0.311125
33.666667	1	0.345125
33.683333	1	0.380125
33.700000	1	0.417625
33.716667	1	0.456375
33.733333	1	0.497250
33.750000	1	0.538750
33.766667	1	0.581375
33.783333	1	0.625375
33.800000	1	0.669875
33.816667	1	0.715250
33.833333	1	0.760250
33.850000	1	0.804125
33.866667	1	0.847250
33.883333	1	0.888500
33.900000	1	0.928125
33.916667	1	0.966125
33.933333	1	1.001000
33.950000	1	1.033500
33.966667	1	1.062250
33.983333	1	1.087125
34.000000	1	1.108875
34.016667	1	1.126625
34.033333	1	1.140250
34.050000	1	1.148875
34.066667	1	1.153000
34.083333	1	1.152125
34.100000	1	1.147000
34.116667	1	1.137375
34.133333	1	1.124750
34.150000	1	1.108000
34.166667	1	1.086750
34.183333	1	1.062625
34.200000	1	1.034375
34.216667	1	1.004875
34.233333	1	0.972250
34.250000	1	0.937625
34.266667	1	0.901375
34.283333	1	0.864250
34.300000	1	0.825625
34.316667	1	0.787125
34.333333	1	0.748375
34.350000	1	0.709125
34.366667	1	0.671250
34.383333	1	0.633375
34.400000	1	0.596625
34.416667	1	0.561000
34.433333	1	0.526875
34.450000	1	0.493750
34.466667	1	0.461875
34.483333	1	0.432000
34.500000	1	0.403500
34.516667	1	0.377500
34.533333	1	0.352250
34.550000	1	0.328625
34.566667	1	0.306125
34.583333	1	0.285375
34.600000	1	0.266750
34.616667	1	0.249250
34.633333	1	0.232750
34.650000	1	0.217500
34.666667	1	0.203125
34.683333	1	0.190000
34.700000	1	0.178125
34.716667	1	0.166500
34.733333	1	0.156125
34.750000	1	0.146875
34.766667	1	0.139000
34.783333	1	0.130375
34.800000	1	0.123250
34.816667	1	0.116875
34.833333	1	0.110375
34.850000	1	0.103750
34.866667	1	0.098500
34.883333	1	0.093500
34.900000	1	0.089125
34.916667	1	0.085250
34.933333	1	0.081000
34.950000	1	0.077500
34.966667	1	0.073500
34.983333	1	0.069750
35.000000	1	0.067250
35.016667	1	0.064375
35.033333	1	0.061750
35.050000	1	0.060375
35.066667	1	0.058125
35.083333	1	0.056500
35.100000	1	0.054375
35.116667	1	0.053500
35.133333	1	0.051125
35.150000	1	0.049750
35.166667	1	0.048000
35.183333	1	0.047625
35.200000	1	0.047000
35.216667	1	0.044875
35.233333	1	0.043625
35.250000	1	0.042625
35.266667	1	0.041375
35.283333	1	0.041000
35.300000	1	0.040625
35.316667	1	0.039750
35.333333	1	0.040250
35.350000	1	0.039250
35.366667	1	0.038500
35.383333	1	0.038375
35.400000	1	0.038000
35.416667	1	0.038250
35.433333	1	0.037875
35.450000	1	0.037750
35.466667	1	0.037250
35.483333	1	0.036750
35.500000	1	0.036500
35.516667	1	0.036875
35.533333	1	0.037125
35.550000	1	0.037125
35.566667	1	0.036875
35.583333	1	0.037000
35.600000	1	0.037250
35.616667	1	0.036875
35.633333	1	0.037625
35.650000	1	0.037500
35.666667	1	0.036625
35.683333	1	0.036625
35.700000	1	0.036375
35.716667	1	0.036625
35.733333	1	0.036375
35.750000	1	0.035875
35.766667	1	0.035000
35.783333	1	0.034500
35.800000	1	0.034375
35.816667	1	0.033500
35.833333	1	0.033500
35.850000	1	0.033250
35.866667	1	0.032750
35.883333	1	0.032125
35.900000	1	0.031250
35.916667	1	0.031000
35.933333	1	0.030250
35.950000	1	0.030375
35.966667	1	0.029750
35.983333	1	0.029750
36.000000	1	0.029250
36.016667	1	0.028875
36.033333	1	0.028625
36.050000	1	0.027750
36.066667	1	0.027125
36.083333	1	0.026875
36.100000	1	0.026750
36.116667	1	0.026500
36.133333	1	0.026125
36.150000	1	0.025875
36.166667	1	0.025500
36.183333	1	0.025375
36.200000	1	0.025125
36.216667	1	0.025750
36.233333	1	0.025875
36.250000	1	0.025750
36.266667	1	0.026375
36.283333	1	0.026250
36.300000	1	0.026875
36.316667	1	0.027250
36.333333	1	0.028000
36.350000	1	0.027750
36.366667	1	0.027625
36.383333	1	0.027625
36.400000	1	0.027625
36.416667	1	0.027250
36.433333	1	0.027125
36.450000	1	0.027375
36.466667	1	0.026875
36.483333	1	0.027125
36.500000	1	0.026625
36.516667	1	0.025625
36.533333	1	0.024500
36.550000	1	0.024125
36.566667	1	0.023875
36.583333	1	0.023000
36.600000	1	0.021625
36.616667	1	0.019875
36.633333	1	0.018625
36.650000	1	0.016625
36.666667	1	0.014875
36.683333	1	0.013625
36.700000	1	0.012375
36.716667	1	0.010125
36.733333	1	0.007875
36.750000	1	0.005500
36.766667	1	0.004125
36.783333	1	0.003125
36.800000	1	0.001875
36.816667	1	0.000125
36.833333	1	-0.001750
36.850000	1	-0.003250
36.866667	1	-0.004000
36.883333	1	-0.004875
36.900000	1	-0.005500
36.916667	1	-0.005625
36.933333	1	-0.005875
36.950000	1	-0.005500
36.966667	1	-0.005500
36.983333	1	-0.005000
37.000000	1	-0.004125
37.016667	1	-0.003250
37.033333	1	-0.002750
37.050000	1	-0.001250
37.066667	1	0.000250
37.083333	1	0.001375
37.100000	1	0.002750
37.116667	1	0.004125
37.133333	1	0.006375
37.150000	1	0.008750
37.166667	1	0.010875
37.183333	1	0.012625
37.200000	1	0.014375
37.216667	1	0.016625
37.233333	1	0.018125
37.250000	1	0.020000
37.266667	1	0.022000
37.283333	1	0.023500
37.300000	1	0.025500
37.316667	1	0.026500
37.333333	1	0.027875
37.350000	1	0.029750
37.366667	1	0.031125
37.383333	1	0.031125
37.400000	1	0.031750
37.416667	1	0.032500
37.433333	1	0.032875
37.450000	1	0.033875
37.466667	1	0.033875
37.483333	1	0.033500
37.500000	1	0.032125
37.516667	1	0.031250
37.533333	1	0.030750
37.550000	1	0.030375
37.566667	1	0.029500
37.583333	1	0.028125
37.600000	1	0.026750
37.616667	1	0.025375
37.633333	1	0.024250
37.650000	1	0.022875
37.666667	1	0.021000
37.683333	1	0.019375
37.700000	1	0.017750
37.716667	1	0.016375
37.733333	1	0.015250
37.750000	1	0.014000
37.766667	1	0.012500
37.783333	1	0.010375
37.800000	1	0.009000
37.816667	1	0.007500
37.833333	1	0.005875
37.850000	1	0.003625
37.866667	1	0.002500
37.883333	1	0.001375
37.900000	1	-0.000625
37.916667	1	-0.001375
37.933333	1	-0.002250
37.950000	1	-0.002625
37.966667	1	-0.003625
37.983333	1	-0.004250
38.000000	1	-0.004625
38.016667	1	-0.005625
38.033333	1	-0.006500
38.050000	1	-0.006125
38.066667	1	-0.006000
38.083333	1	-0.005875
38.100000	1	-0.005500
38.116667	1	-0.005500
38.133333	1	-0.005250
38.150000	1	-0.004750
38.166667	1	-0.004250
38.183333	1	-0.003500
38.200000	1	-0.002750
38.216667	1	-0.002250
38.233333	1	-0.001875
38.250000	1	-0.001375
38.266667	1	-0.000875
38.283333	1	0.000000
38.300000	1	0.001125
38.316667	1	0.002000
38.333333	1	0.003125
38.350000	1	0.003750
38.366667	1	0.004375
38.383333	1	0.005500
38.400000	1	0.005750
38.416667	1	0.006375
38.433333	1	0.007125
38.450000	1	0.008500
38.466667	1	0.009375
38.483333	1	0.010375
38.500000	1	0.011750
38.516667	1	0.012875
38.533333	1	0.013750
38.550000	1	0.014875
38.566667	1	0.015125
38.583333	1	0.016000
38.600000	1	0.016500
38.616667	1	0.017000
38.633333	1	0.017500
38.650000	1	0.017625
38.666667	1	0.018125
38.683333	1	0.018500
38.700000	1	0.019000
38.716667	1	0.019500
38.733333	1	0.019625
38.750000	1	0.019500
38.766667	1	0.019125
38.783333	1	0.018875
38.800000	1	0.018250
38.816667	1	0.018125
38.833333	1	0.017750
38.850000	1	0.016625
38.866667	1	0.016125
38.883333	1	0.015125
38.900000	1	0.015000
38.916667	1	0.014500
38.933333	1	0.013500
38.950000	1	0.012500
38.966667	1	0.012125
38.983333	1	0.010875
39.000000	1	0.010500
39.016667	1	0.009750
39.033333	1	0.008250
39.050000	1	0.008000
39.066667	1	0.007000
39.083333	1	0.006500
39.100000	1	0.006125
39.116667	1	0.005000
39.133333	1	0.003875
39.150000	1	0.003000
39.166667	1	0.002125
39.183333	1	0.001250
39.200000	1	0.000750
39.216667	1	0.000625
39.233333	1	0.000125
39.250000	1	-0.000125
39.266667	1	-0.001000
39.283333	1	-0.001875
39.300000	1	-0.002625
39.316667	1	-0.002500
39.333333	1	-0.002250
39.350000	1	-0.002750
39.366667	1	-0.002625
39.383333	1	-0.003375
39.400000	1	-0.004250
39.416667	1	-0.005125
39.433333	1	-0.005875
39.450000	1	-0.006125
39.466667	1	-0.006250
39.483333	1	-0.006625
39.500000	1	-0.006625
39.516667	1	-0.007250
39.533333	1	-0.008625
39.550000	1	-0.009625
39.566667	1	-0.010125
39.583333	1	-0.010125
39.600000	1	-0.010500
39.616667	1	-0.011000
39.633333	1	-0.010625
39.650000	1	-0.010625
39.666667	1	-0.010750
39.683333	1	-0.011375
39.700000	1	-0.011875
39.716667	1	-0.012750
39.733333	1	-0.013500
39.750000	1	-0.014000
39.766667	1	-0.014125
39.783333	1	-0.014875
39.800000	1	-0.015875
39.816667	1	-0.016750
39.833333	1	-0.017125
39.850000	1	-0.017875
39.866667	1	-0.018125
39.883333	1	-0.019250
39.900000	1	-0.019750
39.916667	1	-0.020500
39.933333	1	-0.020875
39.950000	1	-0.021875
39.966667	1	-0.022125
39.983333	1	-0.023250
40.000000	1	-0.024000
