URL	chrom://bioreactor/micro_cm7/HPLC_Ultimate_3000/Users/markusar/20240716_MA_pHrange2.seq/693.smp/RI_1.channel/RI_1.chm
Channel	RI_1

Injection Information:
Data Vault	micro_cm7
Sequence	20240716_MA_pHrange2
Name	Fp1_40H_4
Number	43
Position	BD7
Comment	
Processing Method	
Instrument Method	run_25B_method
Type	Unknown
Status	Finished
Inject Time	17.07.2024 22:47:11 +02:00
Volume (µl)	20.0000
Dilution Factor	1.0000
Weight	1.0000

Chromatogram Data Information:
Time Min. (min)	0.000000
Time Max. (min)	40.000000
Data Points	2401
Detector	RI
Generating Data System	Chromeleon 7.3.2.11814
Exporting Data System	Chromeleon 7.3.2.0
Operator	Instrument Controller
Signal Quantity	Refractive 
Signal Unit	µRIU
Signal Min.	-0.081875
Signal Max.	82.150125
Channel	RI_1
Driver Name	RID520Driver.dll
Channel Type	Evaluation
Min. Step (s)	1
Max. Step (s)	1
Average Step (s)	1

Signal Parameter Information:
Signal Info	

Chromatogram Data:
Time (min)	Step (s)	Value (µRIU)
0.000000	n.a.	-0.012875
0.016667	1	-0.012750
0.033333	1	-0.011875
0.050000	1	-0.011125
0.066667	1	-0.011250
0.083333	1	-0.010875
0.100000	1	-0.010000
0.116667	1	-0.009000
0.133333	1	-0.008250
0.150000	1	-0.007875
0.166667	1	-0.007750
0.183333	1	-0.007500
0.200000	1	-0.006750
0.216667	1	-0.006750
0.233333	1	-0.006750
0.250000	1	-0.006500
0.266667	1	-0.006500
0.283333	1	-0.006125
0.300000	1	-0.005500
0.316667	1	-0.005250
0.333333	1	-0.005250
0.350000	1	-0.004625
0.366667	1	-0.004750
0.383333	1	-0.004875
0.400000	1	-0.005250
0.416667	1	-0.005000
0.433333	1	-0.004000
0.450000	1	-0.002375
0.466667	1	-0.001000
0.483333	1	0.000875
0.500000	1	0.002625
0.516667	1	0.004250
0.533333	1	0.005750
0.550000	1	0.006375
0.566667	1	0.005750
0.583333	1	0.005125
0.600000	1	0.004500
0.616667	1	0.004375
0.633333	1	0.004500
0.650000	1	0.004500
0.666667	1	0.005625
0.683333	1	0.005625
0.700000	1	0.006000
0.716667	1	0.006250
0.733333	1	0.007125
0.750000	1	0.008125
0.766667	1	0.008125
0.783333	1	0.009000
0.800000	1	0.009375
0.816667	1	0.010250
0.833333	1	0.011500
0.850000	1	0.012000
0.866667	1	0.012250
0.883333	1	0.012625
0.900000	1	0.012750
0.916667	1	0.013250
0.933333	1	0.013375
0.950000	1	0.013500
0.966667	1	0.013875
0.983333	1	0.014000
1.000000	1	0.014375
1.016667	1	0.014500
1.033333	1	0.014750
1.050000	1	0.014625
1.066667	1	0.014750
1.083333	1	0.015000
1.100000	1	0.015000
1.116667	1	0.014875
1.133333	1	0.015625
1.150000	1	0.014750
1.166667	1	0.015125
1.183333	1	0.014750
1.200000	1	0.014625
1.216667	1	0.013875
1.233333	1	0.013625
1.250000	1	0.013625
1.266667	1	0.013625
1.283333	1	0.013500
1.300000	1	0.014375
1.316667	1	0.013250
1.333333	1	0.013125
1.350000	1	0.013500
1.366667	1	0.013375
1.383333	1	0.013000
1.400000	1	0.012250
1.416667	1	0.012250
1.433333	1	0.011375
1.450000	1	0.011250
1.466667	1	0.011250
1.483333	1	0.010500
1.500000	1	0.010500
1.516667	1	0.010125
1.533333	1	0.009625
1.550000	1	0.009500
1.566667	1	0.008625
1.583333	1	0.008250
1.600000	1	0.007625
1.616667	1	0.007125
1.633333	1	0.006875
1.650000	1	0.006125
1.666667	1	0.005250
1.683333	1	0.004750
1.700000	1	0.004000
1.716667	1	0.003500
1.733333	1	0.003500
1.750000	1	0.002750
1.766667	1	0.001875
1.783333	1	0.001250
1.800000	1	0.001000
1.816667	1	0.000250
1.833333	1	-0.000500
1.850000	1	-0.002000
1.866667	1	-0.002375
1.883333	1	-0.003000
1.900000	1	-0.003000
1.916667	1	-0.004125
1.933333	1	-0.004500
1.950000	1	-0.004500
1.966667	1	-0.005000
1.983333	1	-0.005750
2.000000	1	-0.006375
2.016667	1	-0.006875
2.033333	1	-0.007000
2.050000	1	-0.007125
2.066667	1	-0.007000
2.083333	1	-0.007000
2.100000	1	-0.007750
2.116667	1	-0.007875
2.133333	1	-0.008250
2.150000	1	-0.008875
2.166667	1	-0.008875
2.183333	1	-0.008500
2.200000	1	-0.008625
2.216667	1	-0.008250
2.233333	1	-0.008500
2.250000	1	-0.007875
2.266667	1	-0.009000
2.283333	1	-0.009125
2.300000	1	-0.010000
2.316667	1	-0.010375
2.333333	1	-0.010750
2.350000	1	-0.011875
2.366667	1	-0.012875
2.383333	1	-0.013250
2.400000	1	-0.013750
2.416667	1	-0.014625
2.433333	1	-0.015750
2.450000	1	-0.015500
2.466667	1	-0.016125
2.483333	1	-0.017000
2.500000	1	-0.017750
2.516667	1	-0.018500
2.533333	1	-0.019250
2.550000	1	-0.019500
2.566667	1	-0.020750
2.583333	1	-0.022000
2.600000	1	-0.022375
2.616667	1	-0.023000
2.633333	1	-0.023125
2.650000	1	-0.023375
2.666667	1	-0.023375
2.683333	1	-0.023625
2.700000	1	-0.023875
2.716667	1	-0.024000
2.733333	1	-0.023375
2.750000	1	-0.022875
2.766667	1	-0.023000
2.783333	1	-0.023000
2.800000	1	-0.022750
2.816667	1	-0.022000
2.833333	1	-0.020750
2.850000	1	-0.020500
2.866667	1	-0.019625
2.883333	1	-0.019000
2.900000	1	-0.018625
2.916667	1	-0.017750
2.933333	1	-0.016875
2.950000	1	-0.015750
2.966667	1	-0.014375
2.983333	1	-0.013000
3.000000	1	-0.011750
3.016667	1	-0.010750
3.033333	1	-0.009375
3.050000	1	-0.008250
3.066667	1	-0.007250
3.083333	1	-0.005875
3.100000	1	-0.004750
3.116667	1	-0.003500
3.133333	1	-0.002500
3.150000	1	-0.001500
3.166667	1	-0.000625
3.183333	1	0.000875
3.200000	1	0.002500
3.216667	1	0.003250
3.233333	1	0.004375
3.250000	1	0.004875
3.266667	1	0.006000
3.283333	1	0.007125
3.300000	1	0.007750
3.316667	1	0.009500
3.333333	1	0.010875
3.350000	1	0.012250
3.366667	1	0.013000
3.383333	1	0.013875
3.400000	1	0.015000
3.416667	1	0.016125
3.433333	1	0.016875
3.450000	1	0.018500
3.466667	1	0.020125
3.483333	1	0.021125
3.500000	1	0.022125
3.516667	1	0.023250
3.533333	1	0.024250
3.550000	1	0.025500
3.566667	1	0.027125
3.583333	1	0.028750
3.600000	1	0.029875
3.616667	1	0.031125
3.633333	1	0.032625
3.650000	1	0.033375
3.666667	1	0.034625
3.683333	1	0.035625
3.700000	1	0.037000
3.716667	1	0.037375
3.733333	1	0.038625
3.750000	1	0.040250
3.766667	1	0.041125
3.783333	1	0.042250
3.800000	1	0.043250
3.816667	1	0.043625
3.833333	1	0.044250
3.850000	1	0.045125
3.866667	1	0.045875
3.883333	1	0.046000
3.900000	1	0.046375
3.916667	1	0.047000
3.933333	1	0.047625
3.950000	1	0.047375
3.966667	1	0.047500
3.983333	1	0.048000
4.000000	1	0.048500
4.016667	1	0.048625
4.033333	1	0.048375
4.050000	1	0.048250
4.066667	1	0.048375
4.083333	1	0.048500
4.100000	1	0.048750
4.116667	1	0.049250
4.133333	1	0.049625
4.150000	1	0.050000
4.166667	1	0.050250
4.183333	1	0.050750
4.200000	1	0.051125
4.216667	1	0.050875
4.233333	1	0.051625
4.250000	1	0.052000
4.266667	1	0.053125
4.283333	1	0.053875
4.300000	1	0.054375
4.316667	1	0.054750
4.333333	1	0.055250
4.350000	1	0.056250
4.366667	1	0.057750
4.383333	1	0.059375
4.400000	1	0.060250
4.416667	1	0.061625
4.433333	1	0.063500
4.450000	1	0.065125
4.466667	1	0.066750
4.483333	1	0.068250
4.500000	1	0.070000
4.516667	1	0.071375
4.533333	1	0.072875
4.550000	1	0.074625
4.566667	1	0.076875
4.583333	1	0.078125
4.600000	1	0.080000
4.616667	1	0.082250
4.633333	1	0.084375
4.650000	1	0.086625
4.666667	1	0.088625
4.683333	1	0.090250
4.700000	1	0.092500
4.716667	1	0.094500
4.733333	1	0.097125
4.750000	1	0.099500
4.766667	1	0.102000
4.783333	1	0.103625
4.800000	1	0.106000
4.816667	1	0.109125
4.833333	1	0.111500
4.850000	1	0.113375
4.866667	1	0.116250
4.883333	1	0.118625
4.900000	1	0.121125
4.916667	1	0.124000
4.933333	1	0.128000
4.950000	1	0.131000
4.966667	1	0.133875
4.983333	1	0.137000
5.000000	1	0.140125
5.016667	1	0.143125
5.033333	1	0.147125
5.050000	1	0.150000
5.066667	1	0.152750
5.083333	1	0.156250
5.100000	1	0.159375
5.116667	1	0.162250
5.133333	1	0.164875
5.150000	1	0.167875
5.166667	1	0.170625
5.183333	1	0.173500
5.200000	1	0.176000
5.216667	1	0.178750
5.233333	1	0.181625
5.250000	1	0.184000
5.266667	1	0.185375
5.283333	1	0.187000
5.300000	1	0.189000
5.316667	1	0.190250
5.333333	1	0.191500
5.350000	1	0.192750
5.366667	1	0.193250
5.383333	1	0.194000
5.400000	1	0.194500
5.416667	1	0.194125
5.433333	1	0.194875
5.450000	1	0.194125
5.466667	1	0.193500
5.483333	1	0.191875
5.500000	1	0.191250
5.516667	1	0.189875
5.533333	1	0.188750
5.550000	1	0.186375
5.566667	1	0.183500
5.583333	1	0.181500
5.600000	1	0.178875
5.616667	1	0.176500
5.633333	1	0.173875
5.650000	1	0.170625
5.666667	1	0.167375
5.683333	1	0.164250
5.700000	1	0.160875
5.716667	1	0.157750
5.733333	1	0.154000
5.750000	1	0.150875
5.766667	1	0.146875
5.783333	1	0.143250
5.800000	1	0.139625
5.816667	1	0.136250
5.833333	1	0.133000
5.850000	1	0.129875
5.866667	1	0.125875
5.883333	1	0.122000
5.900000	1	0.118500
5.916667	1	0.114625
5.933333	1	0.111250
5.950000	1	0.107875
5.966667	1	0.104375
5.983333	1	0.100875
6.000000	1	0.097250
6.016667	1	0.093875
6.033333	1	0.090125
6.050000	1	0.087375
6.066667	1	0.084875
6.083333	1	0.082000
6.100000	1	0.078750
6.116667	1	0.074875
6.133333	1	0.072500
6.150000	1	0.068875
6.166667	1	0.066000
6.183333	1	0.063625
6.200000	1	0.060500
6.216667	1	0.058375
6.233333	1	0.055875
6.250000	1	0.053875
6.266667	1	0.051375
6.283333	1	0.049250
6.300000	1	0.047000
6.316667	1	0.044875
6.333333	1	0.043125
6.350000	1	0.042125
6.366667	1	0.040375
6.383333	1	0.039000
6.400000	1	0.038000
6.416667	1	0.037125
6.433333	1	0.036375
6.450000	1	0.035750
6.466667	1	0.034125
6.483333	1	0.033375
6.500000	1	0.033250
6.516667	1	0.034000
6.533333	1	0.033875
6.550000	1	0.033625
6.566667	1	0.034250
6.583333	1	0.034750
6.600000	1	0.035750
6.616667	1	0.036500
6.633333	1	0.037625
6.650000	1	0.038375
6.666667	1	0.039875
6.683333	1	0.040625
6.700000	1	0.041750
6.716667	1	0.043250
6.733333	1	0.044750
6.750000	1	0.046875
6.766667	1	0.049250
6.783333	1	0.050375
6.800000	1	0.053250
6.816667	1	0.054875
6.833333	1	0.056875
6.850000	1	0.059375
6.866667	1	0.061750
6.883333	1	0.064875
6.900000	1	0.068125
6.916667	1	0.070875
6.933333	1	0.073125
6.950000	1	0.076125
6.966667	1	0.079250
6.983333	1	0.081125
7.000000	1	0.084000
7.016667	1	0.086500
7.033333	1	0.089625
7.050000	1	0.092500
7.066667	1	0.095375
7.083333	1	0.097375
7.100000	1	0.099375
7.116667	1	0.101500
7.133333	1	0.103625
7.150000	1	0.106125
7.166667	1	0.108125
7.183333	1	0.110000
7.200000	1	0.111000
7.216667	1	0.112125
7.233333	1	0.113000
7.250000	1	0.113375
7.266667	1	0.113875
7.283333	1	0.114250
7.300000	1	0.113375
7.316667	1	0.113000
7.333333	1	0.112250
7.350000	1	0.111000
7.366667	1	0.109625
7.383333	1	0.108250
7.400000	1	0.105750
7.416667	1	0.103000
7.433333	1	0.100125
7.450000	1	0.097000
7.466667	1	0.093375
7.483333	1	0.089125
7.500000	1	0.084625
7.516667	1	0.080125
7.533333	1	0.076125
7.550000	1	0.070875
7.566667	1	0.066125
7.583333	1	0.060500
7.600000	1	0.054125
7.616667	1	0.048875
7.633333	1	0.042875
7.650000	1	0.037125
7.666667	1	0.030375
7.683333	1	0.023750
7.700000	1	0.017625
7.716667	1	0.011625
7.733333	1	0.005500
7.750000	1	-0.000250
7.766667	1	-0.005875
7.783333	1	-0.011625
7.800000	1	-0.017625
7.816667	1	-0.023125
7.833333	1	-0.028125
7.850000	1	-0.033000
7.866667	1	-0.037875
7.883333	1	-0.042625
7.900000	1	-0.046875
7.916667	1	-0.051500
7.933333	1	-0.055125
7.950000	1	-0.058125
7.966667	1	-0.061125
7.983333	1	-0.064125
8.000000	1	-0.066875
8.016667	1	-0.069500
8.033333	1	-0.072000
8.050000	1	-0.073875
8.066667	1	-0.075750
8.083333	1	-0.077250
8.100000	1	-0.078625
8.116667	1	-0.079500
8.133333	1	-0.080250
8.150000	1	-0.080500
8.166667	1	-0.081125
8.183333	1	-0.081625
8.200000	1	-0.081875
8.216667	1	-0.081625
8.233333	1	-0.081125
8.250000	1	-0.080875
8.266667	1	-0.080750
8.283333	1	-0.081125
8.300000	1	-0.081125
8.316667	1	-0.080250
8.333333	1	-0.080000
8.350000	1	-0.079000
8.366667	1	-0.078000
8.383333	1	-0.077250
8.400000	1	-0.075750
8.416667	1	-0.075000
8.433333	1	-0.074125
8.450000	1	-0.072625
8.466667	1	-0.071625
8.483333	1	-0.070875
8.500000	1	-0.070750
8.516667	1	-0.069500
8.533333	1	-0.069000
8.550000	1	-0.067875
8.566667	1	-0.066375
8.583333	1	-0.065000
8.600000	1	-0.064250
8.616667	1	-0.063000
8.633333	1	-0.062250
8.650000	1	-0.060000
8.666667	1	-0.058875
8.683333	1	-0.058125
8.700000	1	-0.056875
8.716667	1	-0.055875
8.733333	1	-0.054375
8.750000	1	-0.052625
8.766667	1	-0.051500
8.783333	1	-0.050375
8.800000	1	-0.049125
8.816667	1	-0.047000
8.833333	1	-0.046500
8.850000	1	-0.045125
8.866667	1	-0.043625
8.883333	1	-0.041625
8.900000	1	-0.040000
8.916667	1	-0.037875
8.933333	1	-0.035375
8.950000	1	-0.034125
8.966667	1	-0.031875
8.983333	1	-0.030625
9.000000	1	-0.028500
9.016667	1	-0.027625
9.033333	1	-0.025750
9.050000	1	-0.023875
9.066667	1	-0.021875
9.083333	1	-0.021125
9.100000	1	-0.020250
9.116667	1	-0.019000
9.133333	1	-0.017250
9.150000	1	-0.016250
9.166667	1	-0.015000
9.183333	1	-0.013875
9.200000	1	-0.012875
9.216667	1	-0.011750
9.233333	1	-0.010750
9.250000	1	-0.010250
9.266667	1	-0.009875
9.283333	1	-0.009125
9.300000	1	-0.008750
9.316667	1	-0.009500
9.333333	1	-0.009000
9.350000	1	-0.008750
9.366667	1	-0.009375
9.383333	1	-0.010000
9.400000	1	-0.011375
9.416667	1	-0.011625
9.433333	1	-0.012000
9.450000	1	-0.012500
9.466667	1	-0.013750
9.483333	1	-0.014750
9.500000	1	-0.015250
9.516667	1	-0.016500
9.533333	1	-0.017125
9.550000	1	-0.018500
9.566667	1	-0.020000
9.583333	1	-0.021375
9.600000	1	-0.023000
9.616667	1	-0.024500
9.633333	1	-0.026375
9.650000	1	-0.027750
9.666667	1	-0.029625
9.683333	1	-0.031375
9.700000	1	-0.033500
9.716667	1	-0.034875
9.733333	1	-0.036750
9.750000	1	-0.037750
9.766667	1	-0.039250
9.783333	1	-0.041125
9.800000	1	-0.043625
9.816667	1	-0.045625
9.833333	1	-0.048000
9.850000	1	-0.050125
9.866667	1	-0.052125
9.883333	1	-0.053750
9.900000	1	-0.054875
9.916667	1	-0.056625
9.933333	1	-0.058125
9.950000	1	-0.059375
9.966667	1	-0.060875
9.983333	1	-0.061625
10.000000	1	-0.062125
10.016667	1	-0.063000
10.033333	1	-0.063625
10.050000	1	-0.062750
10.066667	1	-0.061750
10.083333	1	-0.060625
10.100000	1	-0.058875
10.116667	1	-0.056500
10.133333	1	-0.052000
10.150000	1	-0.047750
10.166667	1	-0.041625
10.183333	1	-0.034875
10.200000	1	-0.027250
10.216667	1	-0.018500
10.233333	1	-0.008500
10.250000	1	0.003125
10.266667	1	0.015250
10.283333	1	0.029625
10.300000	1	0.046375
10.316667	1	0.064750
10.333333	1	0.084250
10.350000	1	0.103750
10.366667	1	0.121125
10.383333	1	0.135250
10.400000	1	0.141250
10.416667	1	0.135750
10.433333	1	0.115625
10.450000	1	0.080875
10.466667	1	0.035125
10.483333	1	-0.009750
10.500000	1	-0.034750
10.516667	1	-0.008250
10.533333	1	0.108875
10.550000	1	0.365750
10.566667	1	0.816500
10.583333	1	1.517375
10.600000	1	2.522375
10.616667	1	3.881875
10.633333	1	5.633875
10.650000	1	7.803250
10.666667	1	10.410750
10.683333	1	13.464000
10.700000	1	16.959750
10.716667	1	20.883875
10.733333	1	25.210000
10.750000	1	29.903875
10.766667	1	34.912875
10.783333	1	40.180625
10.800000	1	45.636375
10.816667	1	51.180500
10.833333	1	56.672625
10.850000	1	61.918500
10.866667	1	66.646375
10.883333	1	70.481875
10.900000	1	72.962375
10.916667	1	73.604125
10.933333	1	72.034000
10.950000	1	68.147375
10.966667	1	62.214625
10.983333	1	54.843000
11.000000	1	46.812750
11.016667	1	38.872750
11.033333	1	31.581000
11.050000	1	25.246250
11.066667	1	19.963125
11.083333	1	15.691375
11.100000	1	12.319000
11.116667	1	9.704625
11.133333	1	7.706000
11.150000	1	6.192375
11.166667	1	5.052250
11.183333	1	4.194750
11.200000	1	3.548625
11.216667	1	3.059750
11.233333	1	2.686500
11.250000	1	2.399000
11.266667	1	2.174000
11.283333	1	1.995750
11.300000	1	1.851250
11.316667	1	1.733000
11.333333	1	1.633500
11.350000	1	1.548625
11.366667	1	1.473750
11.383333	1	1.408625
11.400000	1	1.349500
11.416667	1	1.296250
11.433333	1	1.247875
11.450000	1	1.205125
11.466667	1	1.166625
11.483333	1	1.132750
11.500000	1	1.103750
11.516667	1	1.078500
11.533333	1	1.057500
11.550000	1	1.040375
11.566667	1	1.027250
11.583333	1	1.018250
11.600000	1	1.013750
11.616667	1	1.012500
11.633333	1	1.016250
11.650000	1	1.023750
11.666667	1	1.035750
11.683333	1	1.050625
11.700000	1	1.069625
11.716667	1	1.090750
11.733333	1	1.114000
11.750000	1	1.137500
11.766667	1	1.160625
11.783333	1	1.181500
11.800000	1	1.200125
11.816667	1	1.213625
11.833333	1	1.222250
11.850000	1	1.225750
11.866667	1	1.223750
11.883333	1	1.216750
11.900000	1	1.205625
11.916667	1	1.191000
11.933333	1	1.174125
11.950000	1	1.155500
11.966667	1	1.136000
11.983333	1	1.116250
12.000000	1	1.097750
12.016667	1	1.080500
12.033333	1	1.065750
12.050000	1	1.052125
12.066667	1	1.040500
12.083333	1	1.031250
12.100000	1	1.023500
12.116667	1	1.017750
12.133333	1	1.013000
12.150000	1	1.010000
12.166667	1	1.008375
12.183333	1	1.008375
12.200000	1	1.009625
12.216667	1	1.012375
12.233333	1	1.016875
12.250000	1	1.023500
12.266667	1	1.033500
12.283333	1	1.048125
12.300000	1	1.068750
12.316667	1	1.098000
12.333333	1	1.139875
12.350000	1	1.200250
12.366667	1	1.285375
12.383333	1	1.405125
12.400000	1	1.572500
12.416667	1	1.802750
12.433333	1	2.116875
12.450000	1	2.542625
12.466667	1	3.113000
12.483333	1	3.868125
12.500000	1	4.855625
12.516667	1	6.130250
12.533333	1	7.750250
12.550000	1	9.775250
12.566667	1	12.268750
12.583333	1	15.285750
12.600000	1	18.863000
12.616667	1	23.014250
12.633333	1	27.727000
12.650000	1	32.953750
12.666667	1	38.605000
12.683333	1	44.541000
12.700000	1	50.573875
12.716667	1	56.480125
12.733333	1	62.007750
12.750000	1	66.907375
12.766667	1	70.945875
12.783333	1	73.929500
12.800000	1	75.724125
12.816667	1	76.271000
12.833333	1	75.589875
12.850000	1	73.773500
12.866667	1	70.980625
12.883333	1	67.421125
12.900000	1	63.333875
12.916667	1	58.963375
12.933333	1	54.540250
12.950000	1	50.262000
12.966667	1	46.284375
12.983333	1	42.716375
13.000000	1	39.622375
13.016667	1	37.029125
13.033333	1	34.931875
13.050000	1	33.301375
13.066667	1	32.099000
13.083333	1	31.277500
13.100000	1	30.785625
13.116667	1	30.576625
13.133333	1	30.605125
13.150000	1	30.831500
13.166667	1	31.222375
13.183333	1	31.747250
13.200000	1	32.383250
13.216667	1	33.110375
13.233333	1	33.914375
13.250000	1	34.783625
13.266667	1	35.708125
13.283333	1	36.681625
13.300000	1	37.698500
13.316667	1	38.754250
13.333333	1	39.845125
13.350000	1	40.969250
13.366667	1	42.123750
13.383333	1	43.308625
13.400000	1	44.521250
13.416667	1	45.761625
13.433333	1	47.031125
13.450000	1	48.330750
13.466667	1	49.660250
13.483333	1	51.020500
13.500000	1	52.410250
13.516667	1	53.829875
13.533333	1	55.279625
13.550000	1	56.758750
13.566667	1	58.268500
13.583333	1	59.810125
13.600000	1	61.382875
13.616667	1	62.986500
13.633333	1	64.624250
13.650000	1	66.296250
13.666667	1	68.005625
13.683333	1	69.751125
13.700000	1	71.533750
13.716667	1	73.351000
13.733333	1	75.200875
13.750000	1	77.060375
13.766667	1	78.859500
13.783333	1	80.450000
13.800000	1	81.619500
13.816667	1	82.150125
13.833333	1	81.888125
13.850000	1	80.740000
13.866667	1	78.620250
13.883333	1	75.378625
13.900000	1	70.789750
13.916667	1	64.692000
13.933333	1	57.181750
13.950000	1	48.749125
13.966667	1	40.184500
13.983333	1	32.280375
14.000000	1	25.543500
14.016667	1	20.116500
14.033333	1	15.897500
14.050000	1	12.680250
14.066667	1	10.255750
14.083333	1	8.444875
14.100000	1	7.103375
14.116667	1	6.114125
14.133333	1	5.385125
14.150000	1	4.845500
14.166667	1	4.441000
14.183333	1	4.133000
14.200000	1	3.893625
14.216667	1	3.703000
14.233333	1	3.547375
14.250000	1	3.416750
14.266667	1	3.307125
14.283333	1	3.210875
14.300000	1	3.126125
14.316667	1	3.049500
14.333333	1	2.981000
14.350000	1	2.918875
14.366667	1	2.861625
14.383333	1	2.808000
14.400000	1	2.758375
14.416667	1	2.712750
14.433333	1	2.669750
14.450000	1	2.629875
14.466667	1	2.593125
14.483333	1	2.559000
14.500000	1	2.527250
14.516667	1	2.497625
14.533333	1	2.469375
14.550000	1	2.442375
14.566667	1	2.416000
14.583333	1	2.391375
14.600000	1	2.366000
14.616667	1	2.340875
14.633333	1	2.315875
14.650000	1	2.290750
14.666667	1	2.264875
14.683333	1	2.238125
14.700000	1	2.210500
14.716667	1	2.182375
14.733333	1	2.153625
14.750000	1	2.124375
14.766667	1	2.094625
14.783333	1	2.064625
14.800000	1	2.034250
14.816667	1	2.005125
14.833333	1	1.976125
14.850000	1	1.947000
14.866667	1	1.918500
14.883333	1	1.889250
14.900000	1	1.861000
14.916667	1	1.833625
14.933333	1	1.806250
14.950000	1	1.779000
14.966667	1	1.752500
14.983333	1	1.726625
15.000000	1	1.701375
15.016667	1	1.677125
15.033333	1	1.653250
15.050000	1	1.630375
15.066667	1	1.608125
15.083333	1	1.586250
15.100000	1	1.565750
15.116667	1	1.546250
15.133333	1	1.527750
15.150000	1	1.509625
15.166667	1	1.493125
15.183333	1	1.477125
15.200000	1	1.462875
15.216667	1	1.449875
15.233333	1	1.439125
15.250000	1	1.428750
15.266667	1	1.420375
15.283333	1	1.413500
15.300000	1	1.408875
15.316667	1	1.406500
15.333333	1	1.407375
15.350000	1	1.410875
15.366667	1	1.418000
15.383333	1	1.429125
15.400000	1	1.443000
15.416667	1	1.460500
15.433333	1	1.482250
15.450000	1	1.507500
15.466667	1	1.536125
15.483333	1	1.566625
15.500000	1	1.597750
15.516667	1	1.628000
15.533333	1	1.657625
15.550000	1	1.683375
15.566667	1	1.704125
15.583333	1	1.719500
15.600000	1	1.727875
15.616667	1	1.727750
15.633333	1	1.719750
15.650000	1	1.704125
15.666667	1	1.682000
15.683333	1	1.654250
15.700000	1	1.622000
15.716667	1	1.586000
15.733333	1	1.548875
15.750000	1	1.511375
15.766667	1	1.473750
15.783333	1	1.437500
15.800000	1	1.402375
15.816667	1	1.369625
15.833333	1	1.338375
15.850000	1	1.307625
15.866667	1	1.278750
15.883333	1	1.251000
15.900000	1	1.225000
15.916667	1	1.200000
15.933333	1	1.176125
15.950000	1	1.154000
15.966667	1	1.133125
15.983333	1	1.114125
16.000000	1	1.096750
16.016667	1	1.081375
16.033333	1	1.066875
16.050000	1	1.055125
16.066667	1	1.045250
16.083333	1	1.038250
16.100000	1	1.032375
16.116667	1	1.028125
16.133333	1	1.025500
16.150000	1	1.023625
16.166667	1	1.022375
16.183333	1	1.022375
16.200000	1	1.022125
16.216667	1	1.022625
16.233333	1	1.023250
16.250000	1	1.023125
16.266667	1	1.022875
16.283333	1	1.022375
16.300000	1	1.020625
16.316667	1	1.018750
16.333333	1	1.016250
16.350000	1	1.012625
16.366667	1	1.008875
16.383333	1	1.004875
16.400000	1	1.000500
16.416667	1	0.996375
16.433333	1	0.991875
16.450000	1	0.988125
16.466667	1	0.984375
16.483333	1	0.981125
16.500000	1	0.978875
16.516667	1	0.978500
16.533333	1	0.979250
16.550000	1	0.981500
16.566667	1	0.985125
16.583333	1	0.989500
16.600000	1	0.996125
16.616667	1	1.003500
16.633333	1	1.011375
16.650000	1	1.020000
16.666667	1	1.028875
16.683333	1	1.037375
16.700000	1	1.045000
16.716667	1	1.052250
16.733333	1	1.058375
16.750000	1	1.064125
16.766667	1	1.068625
16.783333	1	1.072375
16.800000	1	1.075875
16.816667	1	1.078625
16.833333	1	1.081875
16.850000	1	1.085375
16.866667	1	1.088875
16.883333	1	1.091875
16.900000	1	1.096250
16.916667	1	1.099500
16.933333	1	1.103250
16.950000	1	1.107000
16.966667	1	1.109625
16.983333	1	1.112500
17.000000	1	1.114250
17.016667	1	1.114750
17.033333	1	1.115500
17.050000	1	1.114750
17.066667	1	1.113375
17.083333	1	1.110500
17.100000	1	1.109125
17.116667	1	1.107000
17.133333	1	1.104125
17.150000	1	1.102250
17.166667	1	1.101125
17.183333	1	1.100750
17.200000	1	1.101500
17.216667	1	1.102500
17.233333	1	1.104500
17.250000	1	1.107750
17.266667	1	1.111625
17.283333	1	1.116625
17.300000	1	1.122125
17.316667	1	1.128500
17.333333	1	1.135000
17.350000	1	1.141875
17.366667	1	1.148625
17.383333	1	1.155250
17.400000	1	1.161250
17.416667	1	1.166625
17.433333	1	1.171625
17.450000	1	1.175375
17.466667	1	1.177500
17.483333	1	1.178250
17.500000	1	1.176750
17.516667	1	1.173625
17.533333	1	1.168375
17.550000	1	1.161000
17.566667	1	1.151000
17.583333	1	1.139625
17.600000	1	1.125875
17.616667	1	1.110875
17.633333	1	1.094375
17.650000	1	1.076250
17.666667	1	1.058125
17.683333	1	1.039000
17.700000	1	1.019500
17.716667	1	0.999375
17.733333	1	0.979750
17.750000	1	0.960250
17.766667	1	0.941500
17.783333	1	0.924375
17.800000	1	0.907625
17.816667	1	0.890750
17.833333	1	0.876000
17.850000	1	0.860875
17.866667	1	0.847625
17.883333	1	0.833875
17.900000	1	0.821875
17.916667	1	0.811125
17.933333	1	0.800000
17.950000	1	0.789375
17.966667	1	0.779875
17.983333	1	0.771250
18.000000	1	0.763875
18.016667	1	0.756250
18.033333	1	0.749250
18.050000	1	0.742250
18.066667	1	0.735750
18.083333	1	0.729000
18.100000	1	0.723125
18.116667	1	0.717250
18.133333	1	0.711750
18.150000	1	0.706000
18.166667	1	0.700750
18.183333	1	0.695250
18.200000	1	0.689875
18.216667	1	0.685250
18.233333	1	0.680625
18.250000	1	0.676375
18.266667	1	0.673125
18.283333	1	0.671250
18.300000	1	0.669500
18.316667	1	0.668625
18.333333	1	0.667500
18.350000	1	0.666750
18.366667	1	0.667500
18.383333	1	0.668250
18.400000	1	0.669875
18.416667	1	0.671875
18.433333	1	0.674500
18.450000	1	0.678000
18.466667	1	0.683125
18.483333	1	0.687250
18.500000	1	0.693375
18.516667	1	0.701250
18.533333	1	0.709750
18.550000	1	0.720625
18.566667	1	0.732750
18.583333	1	0.746875
18.600000	1	0.763625
18.616667	1	0.781750
18.633333	1	0.802125
18.650000	1	0.824500
18.666667	1	0.849875
18.683333	1	0.875875
18.700000	1	0.903750
18.716667	1	0.933625
18.733333	1	0.964250
18.750000	1	0.996625
18.766667	1	1.030500
18.783333	1	1.065000
18.800000	1	1.100250
18.816667	1	1.134750
18.833333	1	1.168875
18.850000	1	1.201625
18.866667	1	1.232125
18.883333	1	1.259625
18.900000	1	1.284000
18.916667	1	1.304750
18.933333	1	1.321375
18.950000	1	1.332750
18.966667	1	1.338625
18.983333	1	1.338125
19.000000	1	1.331250
19.016667	1	1.318125
19.033333	1	1.299375
19.050000	1	1.273750
19.066667	1	1.242125
19.083333	1	1.206500
19.100000	1	1.166500
19.116667	1	1.123125
19.133333	1	1.076625
19.150000	1	1.029125
19.166667	1	0.981250
19.183333	1	0.934000
19.200000	1	0.888500
19.216667	1	0.845125
19.233333	1	0.804625
19.250000	1	0.767375
19.266667	1	0.734625
19.283333	1	0.706125
19.300000	1	0.681750
19.316667	1	0.662375
19.333333	1	0.647625
19.350000	1	0.638500
19.366667	1	0.633250
19.383333	1	0.633250
19.400000	1	0.638000
19.416667	1	0.646875
19.433333	1	0.660000
19.450000	1	0.676375
19.466667	1	0.696375
19.483333	1	0.719625
19.500000	1	0.745875
19.516667	1	0.773750
19.533333	1	0.802750
19.550000	1	0.832750
19.566667	1	0.862375
19.583333	1	0.891375
19.600000	1	0.918375
19.616667	1	0.942875
19.633333	1	0.963625
19.650000	1	0.979750
19.666667	1	0.992125
19.683333	1	0.999125
19.700000	1	1.000625
19.716667	1	0.995875
19.733333	1	0.986250
19.750000	1	0.971625
19.766667	1	0.951750
19.783333	1	0.928250
19.800000	1	0.901375
19.816667	1	0.871750
19.833333	1	0.839625
19.850000	1	0.806500
19.866667	1	0.774000
19.883333	1	0.740875
19.900000	1	0.708000
19.916667	1	0.677000
19.933333	1	0.647625
19.950000	1	0.620750
19.966667	1	0.596000
19.983333	1	0.573750
20.000000	1	0.553000
20.016667	1	0.535000
20.033333	1	0.519750
20.050000	1	0.507125
20.066667	1	0.497125
20.083333	1	0.489625
20.100000	1	0.484125
20.116667	1	0.481625
20.133333	1	0.481125
20.150000	1	0.483375
20.166667	1	0.487625
20.183333	1	0.493625
20.200000	1	0.501250
20.216667	1	0.510625
20.233333	1	0.520875
20.250000	1	0.533000
20.266667	1	0.545625
20.283333	1	0.558500
20.300000	1	0.571750
20.316667	1	0.585000
20.333333	1	0.597500
20.350000	1	0.609625
20.366667	1	0.620125
20.383333	1	0.628875
20.400000	1	0.635500
20.416667	1	0.640125
20.433333	1	0.642250
20.450000	1	0.643125
20.466667	1	0.642500
20.483333	1	0.640500
20.500000	1	0.638500
20.516667	1	0.637000
20.533333	1	0.636125
20.550000	1	0.637500
20.566667	1	0.642000
20.583333	1	0.649875
20.600000	1	0.662000
20.616667	1	0.679500
20.633333	1	0.703500
20.650000	1	0.733250
20.666667	1	0.769625
20.683333	1	0.812125
20.700000	1	0.861875
20.716667	1	0.917375
20.733333	1	0.978250
20.750000	1	1.043000
20.766667	1	1.112000
20.783333	1	1.182500
20.800000	1	1.252375
20.816667	1	1.320125
20.833333	1	1.383750
20.850000	1	1.440875
20.866667	1	1.489375
20.883333	1	1.529125
20.900000	1	1.556750
20.916667	1	1.572500
20.933333	1	1.574125
20.950000	1	1.562375
20.966667	1	1.538000
20.983333	1	1.501125
21.000000	1	1.452625
21.016667	1	1.395375
21.033333	1	1.330500
21.050000	1	1.260500
21.066667	1	1.186875
21.083333	1	1.111625
21.100000	1	1.036625
21.116667	1	0.963500
21.133333	1	0.893375
21.150000	1	0.827625
21.166667	1	0.765250
21.183333	1	0.709250
21.200000	1	0.658000
21.216667	1	0.611250
21.233333	1	0.570625
21.250000	1	0.534750
21.266667	1	0.503625
21.283333	1	0.476375
21.300000	1	0.454000
21.316667	1	0.433875
21.333333	1	0.417375
21.350000	1	0.403500
21.366667	1	0.391000
21.383333	1	0.381125
21.400000	1	0.372625
21.416667	1	0.365875
21.433333	1	0.360250
21.450000	1	0.355375
21.466667	1	0.351625
21.483333	1	0.348875
21.500000	1	0.347250
21.516667	1	0.346625
21.533333	1	0.346125
21.550000	1	0.346875
21.566667	1	0.348500
21.583333	1	0.351000
21.600000	1	0.355750
21.616667	1	0.362500
21.633333	1	0.369750
21.650000	1	0.379250
21.666667	1	0.391250
21.683333	1	0.404375
21.700000	1	0.420125
21.716667	1	0.437750
21.733333	1	0.458375
21.750000	1	0.480750
21.766667	1	0.505875
21.783333	1	0.533250
21.800000	1	0.562500
21.816667	1	0.595000
21.833333	1	0.629875
21.850000	1	0.666375
21.866667	1	0.704250
21.883333	1	0.742875
21.900000	1	0.782625
21.916667	1	0.823125
21.933333	1	0.862750
21.950000	1	0.902000
21.966667	1	0.939500
21.983333	1	0.974750
22.000000	1	1.006750
22.016667	1	1.035250
22.033333	1	1.059000
22.050000	1	1.078000
22.066667	1	1.091250
22.083333	1	1.098500
22.100000	1	1.100125
22.116667	1	1.095500
22.133333	1	1.084875
22.150000	1	1.068750
22.166667	1	1.046875
22.183333	1	1.020750
22.200000	1	0.990500
22.216667	1	0.956500
22.233333	1	0.919875
22.250000	1	0.881125
22.266667	1	0.840875
22.283333	1	0.800250
22.300000	1	0.759625
22.316667	1	0.718875
22.333333	1	0.679250
22.350000	1	0.640750
22.366667	1	0.603625
22.383333	1	0.568500
22.400000	1	0.535375
22.416667	1	0.503500
22.433333	1	0.474125
22.450000	1	0.447375
22.466667	1	0.422375
22.483333	1	0.400500
22.500000	1	0.380250
22.516667	1	0.362250
22.533333	1	0.345625
22.550000	1	0.331625
22.566667	1	0.318750
22.583333	1	0.307625
22.600000	1	0.298500
22.616667	1	0.289625
22.633333	1	0.282250
22.650000	1	0.276000
22.666667	1	0.270625
22.683333	1	0.266250
22.700000	1	0.262625
22.716667	1	0.258125
22.733333	1	0.255000
22.750000	1	0.251875
22.766667	1	0.249875
22.783333	1	0.248125
22.800000	1	0.246250
22.816667	1	0.244250
22.833333	1	0.242625
22.850000	1	0.241125
22.866667	1	0.239625
22.883333	1	0.237875
22.900000	1	0.236000
22.916667	1	0.234875
22.933333	1	0.233625
22.950000	1	0.233125
22.966667	1	0.232250
22.983333	1	0.232375
23.000000	1	0.231875
23.016667	1	0.231250
23.033333	1	0.231500
23.050000	1	0.231625
23.066667	1	0.231875
23.083333	1	0.232750
23.100000	1	0.233750
23.116667	1	0.234625
23.133333	1	0.235875
23.150000	1	0.237625
23.166667	1	0.239375
23.183333	1	0.240875
23.200000	1	0.243750
23.216667	1	0.246125
23.233333	1	0.248625
23.250000	1	0.252625
23.266667	1	0.257125
23.283333	1	0.261875
23.300000	1	0.267875
23.316667	1	0.276375
23.333333	1	0.286125
23.350000	1	0.298375
23.366667	1	0.314250
23.383333	1	0.332250
23.400000	1	0.354375
23.416667	1	0.381250
23.433333	1	0.412750
23.450000	1	0.450375
23.466667	1	0.495125
23.483333	1	0.547125
23.500000	1	0.607375
23.516667	1	0.676500
23.533333	1	0.755375
23.550000	1	0.844875
23.566667	1	0.945125
23.583333	1	1.057125
23.600000	1	1.181500
23.616667	1	1.317625
23.633333	1	1.465875
23.650000	1	1.626375
23.666667	1	1.797875
23.683333	1	1.980750
23.700000	1	2.172750
23.716667	1	2.373000
23.733333	1	2.579000
23.750000	1	2.787500
23.766667	1	2.997000
23.783333	1	3.203250
23.800000	1	3.402250
23.816667	1	3.590875
23.833333	1	3.765000
23.850000	1	3.921000
23.866667	1	4.055750
23.883333	1	4.164500
23.900000	1	4.246500
23.916667	1	4.298875
23.933333	1	4.320250
23.950000	1	4.309875
23.966667	1	4.268250
23.983333	1	4.197000
24.000000	1	4.097375
24.016667	1	3.971125
24.033333	1	3.823125
24.050000	1	3.656750
24.066667	1	3.475625
24.083333	1	3.283750
24.100000	1	3.083500
24.116667	1	2.880125
24.133333	1	2.676125
24.150000	1	2.474375
24.166667	1	2.278375
24.183333	1	2.090250
24.200000	1	1.911750
24.216667	1	1.743125
24.233333	1	1.585375
24.250000	1	1.441250
24.266667	1	1.309250
24.283333	1	1.188875
24.300000	1	1.079625
24.316667	1	0.982250
24.333333	1	0.895375
24.350000	1	0.819000
24.366667	1	0.751625
24.383333	1	0.693250
24.400000	1	0.642375
24.416667	1	0.598250
24.433333	1	0.560875
24.450000	1	0.529375
24.466667	1	0.502250
24.483333	1	0.479250
24.500000	1	0.460375
24.516667	1	0.444625
24.533333	1	0.431625
24.550000	1	0.421125
24.566667	1	0.412000
24.583333	1	0.403625
24.600000	1	0.396250
24.616667	1	0.390500
24.633333	1	0.385000
24.650000	1	0.381125
24.666667	1	0.376750
24.683333	1	0.372500
24.700000	1	0.367625
24.716667	1	0.363375
24.733333	1	0.358750
24.750000	1	0.353875
24.766667	1	0.349125
24.783333	1	0.344250
24.800000	1	0.339625
24.816667	1	0.334250
24.833333	1	0.329625
24.850000	1	0.324375
24.866667	1	0.318875
24.883333	1	0.314000
24.900000	1	0.308625
24.916667	1	0.303750
24.933333	1	0.298000
24.950000	1	0.293125
24.966667	1	0.288125
24.983333	1	0.282875
25.000000	1	0.278250
25.016667	1	0.273625
25.033333	1	0.269625
25.050000	1	0.265125
25.066667	1	0.260125
25.083333	1	0.255500
25.100000	1	0.251000
25.116667	1	0.246375
25.133333	1	0.241750
25.150000	1	0.237625
25.166667	1	0.233375
25.183333	1	0.228625
25.200000	1	0.225000
25.216667	1	0.220625
25.233333	1	0.216375
25.250000	1	0.213000
25.266667	1	0.209000
25.283333	1	0.204500
25.300000	1	0.200625
25.316667	1	0.197125
25.333333	1	0.193625
25.350000	1	0.190875
25.366667	1	0.187625
25.383333	1	0.184625
25.400000	1	0.182250
25.416667	1	0.179125
25.433333	1	0.177125
25.450000	1	0.174875
25.466667	1	0.172625
25.483333	1	0.171250
25.500000	1	0.170375
25.516667	1	0.169125
25.533333	1	0.167875
25.550000	1	0.167375
25.566667	1	0.167125
25.583333	1	0.166625
25.600000	1	0.166750
25.616667	1	0.166375
25.633333	1	0.166500
25.650000	1	0.166875
25.666667	1	0.167250
25.683333	1	0.168625
25.700000	1	0.169000
25.716667	1	0.170875
25.733333	1	0.171750
25.750000	1	0.173250
25.766667	1	0.174375
25.783333	1	0.176375
25.800000	1	0.178750
25.816667	1	0.181500
25.833333	1	0.184125
25.850000	1	0.187000
25.866667	1	0.190250
25.883333	1	0.194500
25.900000	1	0.198625
25.916667	1	0.202875
25.933333	1	0.207750
25.950000	1	0.212750
25.966667	1	0.217750
25.983333	1	0.223000
26.000000	1	0.228500
26.016667	1	0.234500
26.033333	1	0.239750
26.050000	1	0.245375
26.066667	1	0.251000
26.083333	1	0.256500
26.100000	1	0.261250
26.116667	1	0.266250
26.133333	1	0.271250
26.150000	1	0.275375
26.166667	1	0.279000
26.183333	1	0.281875
26.200000	1	0.285000
26.216667	1	0.286750
26.233333	1	0.288625
26.250000	1	0.289250
26.266667	1	0.289500
26.283333	1	0.289375
26.300000	1	0.287625
26.316667	1	0.285500
26.333333	1	0.282375
26.350000	1	0.278000
26.366667	1	0.273250
26.383333	1	0.267500
26.400000	1	0.261250
26.416667	1	0.254500
26.433333	1	0.247125
26.450000	1	0.239500
26.466667	1	0.230625
26.483333	1	0.221875
26.500000	1	0.212875
26.516667	1	0.203250
26.533333	1	0.193000
26.550000	1	0.183750
26.566667	1	0.173375
26.583333	1	0.163875
26.600000	1	0.154125
26.616667	1	0.144750
26.633333	1	0.136000
26.650000	1	0.126625
26.666667	1	0.118375
26.683333	1	0.110375
26.700000	1	0.102125
26.716667	1	0.095125
26.733333	1	0.088750
26.750000	1	0.082625
26.766667	1	0.077375
26.783333	1	0.072375
26.800000	1	0.068500
26.816667	1	0.065000
26.833333	1	0.062125
26.850000	1	0.060375
26.866667	1	0.058750
26.883333	1	0.058125
26.900000	1	0.058500
26.916667	1	0.059750
26.933333	1	0.061375
26.950000	1	0.063750
26.966667	1	0.067000
26.983333	1	0.070875
27.000000	1	0.074875
27.016667	1	0.079500
27.033333	1	0.086250
27.050000	1	0.093250
27.066667	1	0.101125
27.083333	1	0.110625
27.100000	1	0.120375
27.116667	1	0.131875
27.133333	1	0.144875
27.150000	1	0.158500
27.166667	1	0.174000
27.183333	1	0.190750
27.200000	1	0.210500
27.216667	1	0.232875
27.233333	1	0.256125
27.250000	1	0.282875
27.266667	1	0.312375
27.283333	1	0.345000
27.300000	1	0.382250
27.316667	1	0.423375
27.333333	1	0.468250
27.350000	1	0.518500
27.366667	1	0.574000
27.383333	1	0.635250
27.400000	1	0.702625
27.416667	1	0.775750
27.433333	1	0.855875
27.450000	1	0.943500
27.466667	1	1.038750
27.483333	1	1.140875
27.500000	1	1.250750
27.516667	1	1.368375
27.533333	1	1.493125
27.550000	1	1.625750
27.566667	1	1.764750
27.583333	1	1.909625
27.600000	1	2.060250
27.616667	1	2.216125
27.633333	1	2.375625
27.650000	1	2.537875
27.666667	1	2.699875
27.683333	1	2.861750
27.700000	1	3.020125
27.716667	1	3.173375
27.733333	1	3.319000
27.750000	1	3.455875
27.766667	1	3.581375
27.783333	1	3.693375
27.800000	1	3.790500
27.816667	1	3.870250
27.833333	1	3.930625
27.850000	1	3.970875
27.866667	1	3.989375
27.883333	1	3.986375
27.900000	1	3.960250
27.916667	1	3.912125
27.933333	1	3.843125
27.950000	1	3.753250
27.966667	1	3.644125
27.983333	1	3.518500
28.000000	1	3.377500
28.016667	1	3.224000
28.033333	1	3.060750
28.050000	1	2.888625
28.066667	1	2.711750
28.083333	1	2.533125
28.100000	1	2.354000
28.116667	1	2.177250
28.133333	1	2.004875
28.150000	1	1.838875
28.166667	1	1.680750
28.183333	1	1.530875
28.200000	1	1.391000
28.216667	1	1.261125
28.233333	1	1.141500
28.250000	1	1.030875
28.266667	1	0.932125
28.283333	1	0.842625
28.300000	1	0.763750
28.316667	1	0.693875
28.333333	1	0.632250
28.350000	1	0.579000
28.366667	1	0.533000
28.383333	1	0.494625
28.400000	1	0.462000
28.416667	1	0.435000
28.433333	1	0.413250
28.450000	1	0.396500
28.466667	1	0.384500
28.483333	1	0.375125
28.500000	1	0.369625
28.516667	1	0.367000
28.533333	1	0.366000
28.550000	1	0.366750
28.566667	1	0.369875
28.583333	1	0.374500
28.600000	1	0.380250
28.616667	1	0.387000
28.633333	1	0.394625
28.650000	1	0.403250
28.666667	1	0.411500
28.683333	1	0.420375
28.700000	1	0.429000
28.716667	1	0.437250
28.733333	1	0.445625
28.750000	1	0.452875
28.766667	1	0.459750
28.783333	1	0.466750
28.800000	1	0.472375
28.816667	1	0.476625
28.833333	1	0.480875
28.850000	1	0.484625
28.866667	1	0.487000
28.883333	1	0.489000
28.900000	1	0.488875
28.916667	1	0.487875
28.933333	1	0.486375
28.950000	1	0.483500
28.966667	1	0.479375
28.983333	1	0.475000
29.000000	1	0.470125
29.016667	1	0.463625
29.033333	1	0.456375
29.050000	1	0.447750
29.066667	1	0.438625
29.083333	1	0.429250
29.100000	1	0.419125
29.116667	1	0.407625
29.133333	1	0.396125
29.150000	1	0.384000
29.166667	1	0.371750
29.183333	1	0.359250
29.200000	1	0.346625
29.216667	1	0.333875
29.233333	1	0.321250
29.250000	1	0.308250
29.266667	1	0.295500
29.283333	1	0.283125
29.300000	1	0.270250
29.316667	1	0.257875
29.333333	1	0.245875
29.350000	1	0.234125
29.366667	1	0.222875
29.383333	1	0.211000
29.400000	1	0.200375
29.416667	1	0.190375
29.433333	1	0.180500
29.450000	1	0.171500
29.466667	1	0.162750
29.483333	1	0.153750
29.500000	1	0.145375
29.516667	1	0.137750
29.533333	1	0.131250
29.550000	1	0.124875
29.566667	1	0.118875
29.583333	1	0.112750
29.600000	1	0.106875
29.616667	1	0.101875
29.633333	1	0.097125
29.650000	1	0.092875
29.666667	1	0.088500
29.683333	1	0.084750
29.700000	1	0.081625
29.716667	1	0.078875
29.733333	1	0.076000
29.750000	1	0.073500
29.766667	1	0.071500
29.783333	1	0.069625
29.800000	1	0.067750
29.816667	1	0.066750
29.833333	1	0.065750
29.850000	1	0.065375
29.866667	1	0.063875
29.883333	1	0.063250
29.900000	1	0.063125
29.916667	1	0.062875
29.933333	1	0.061625
29.950000	1	0.061000
29.966667	1	0.060375
29.983333	1	0.059750
30.000000	1	0.059375
30.016667	1	0.059500
30.033333	1	0.058500
30.050000	1	0.058375
30.066667	1	0.058875
30.083333	1	0.058250
30.100000	1	0.057125
30.116667	1	0.056625
30.133333	1	0.056750
30.150000	1	0.056625
30.166667	1	0.056750
30.183333	1	0.057000
30.200000	1	0.056875
30.216667	1	0.057000
30.233333	1	0.057250
30.250000	1	0.057625
30.266667	1	0.057750
30.283333	1	0.057625
30.300000	1	0.057875
30.316667	1	0.058750
30.333333	1	0.059125
30.350000	1	0.059875
30.366667	1	0.060750
30.383333	1	0.062000
30.400000	1	0.063000
30.416667	1	0.065000
30.433333	1	0.068000
30.450000	1	0.070250
30.466667	1	0.072875
30.483333	1	0.076250
30.500000	1	0.079750
30.516667	1	0.084375
30.533333	1	0.088500
30.550000	1	0.093750
30.566667	1	0.099125
30.583333	1	0.105750
30.600000	1	0.112875
30.616667	1	0.120625
30.633333	1	0.129125
30.650000	1	0.139125
30.666667	1	0.149875
30.683333	1	0.161250
30.700000	1	0.174250
30.716667	1	0.188125
30.733333	1	0.203375
30.750000	1	0.220875
30.766667	1	0.239625
30.783333	1	0.261375
30.800000	1	0.285000
30.816667	1	0.311250
30.833333	1	0.340375
30.850000	1	0.373625
30.866667	1	0.409750
30.883333	1	0.450000
30.900000	1	0.494500
30.916667	1	0.543500
30.933333	1	0.597250
30.950000	1	0.656875
30.966667	1	0.722625
30.983333	1	0.795000
31.000000	1	0.874875
31.016667	1	0.961875
31.033333	1	1.056625
31.050000	1	1.159375
31.066667	1	1.269750
31.083333	1	1.388250
31.100000	1	1.515125
31.116667	1	1.650750
31.133333	1	1.794000
31.150000	1	1.944750
31.166667	1	2.103375
31.183333	1	2.268500
31.200000	1	2.440000
31.216667	1	2.616250
31.233333	1	2.796125
31.250000	1	2.978625
31.266667	1	3.161250
31.283333	1	3.343750
31.300000	1	3.523500
31.316667	1	3.698000
31.333333	1	3.865500
31.350000	1	4.025375
31.366667	1	4.174750
31.383333	1	4.312125
31.400000	1	4.435375
31.416667	1	4.543000
31.433333	1	4.633000
31.450000	1	4.704375
31.466667	1	4.755625
31.483333	1	4.787625
31.500000	1	4.797625
31.516667	1	4.786375
31.533333	1	4.754125
31.550000	1	4.702250
31.566667	1	4.631375
31.583333	1	4.540625
31.600000	1	4.433250
31.616667	1	4.309500
31.633333	1	4.171875
31.650000	1	4.021750
31.666667	1	3.860750
31.683333	1	3.692250
31.700000	1	3.516500
31.716667	1	3.337375
31.733333	1	3.155375
31.750000	1	2.972250
31.766667	1	2.789750
31.783333	1	2.609125
31.800000	1	2.432125
31.816667	1	2.260375
31.833333	1	2.094375
31.850000	1	1.934125
31.866667	1	1.781375
31.883333	1	1.636000
31.900000	1	1.499000
31.916667	1	1.370625
31.933333	1	1.250500
31.950000	1	1.139750
31.966667	1	1.036500
31.983333	1	0.940875
32.000000	1	0.853500
32.016667	1	0.772625
32.033333	1	0.699500
32.050000	1	0.632750
32.066667	1	0.571875
32.083333	1	0.516750
32.100000	1	0.467625
32.116667	1	0.423375
32.133333	1	0.383250
32.150000	1	0.347250
32.166667	1	0.315250
32.183333	1	0.285750
32.200000	1	0.260375
32.216667	1	0.237000
32.233333	1	0.216125
32.250000	1	0.197250
32.266667	1	0.180625
32.283333	1	0.165875
32.300000	1	0.151750
32.316667	1	0.139000
32.333333	1	0.127250
32.350000	1	0.116625
32.366667	1	0.107750
32.383333	1	0.099125
32.400000	1	0.090625
32.416667	1	0.083375
32.433333	1	0.076750
32.450000	1	0.069875
32.466667	1	0.063875
32.483333	1	0.058500
32.500000	1	0.052750
32.516667	1	0.047625
32.533333	1	0.043125
32.550000	1	0.039250
32.566667	1	0.035125
32.583333	1	0.031750
32.600000	1	0.028875
32.616667	1	0.026125
32.633333	1	0.023625
32.650000	1	0.020750
32.666667	1	0.018000
32.683333	1	0.016375
32.700000	1	0.014125
32.716667	1	0.013500
32.733333	1	0.012250
32.750000	1	0.011000
32.766667	1	0.009875
32.783333	1	0.009125
32.800000	1	0.008750
32.816667	1	0.008000
32.833333	1	0.007125
32.850000	1	0.006625
32.866667	1	0.005625
32.883333	1	0.005750
32.900000	1	0.005625
32.916667	1	0.005500
32.933333	1	0.005500
32.950000	1	0.006000
32.966667	1	0.006125
32.983333	1	0.006375
33.000000	1	0.007000
33.016667	1	0.008125
33.033333	1	0.008625
33.050000	1	0.009500
33.066667	1	0.010375
33.083333	1	0.011000
33.100000	1	0.012750
33.116667	1	0.014500
33.133333	1	0.016375
33.150000	1	0.018750
33.166667	1	0.021125
33.183333	1	0.024000
33.200000	1	0.026875
33.216667	1	0.030625
33.233333	1	0.034625
33.250000	1	0.039375
33.266667	1	0.045375
33.283333	1	0.051375
33.300000	1	0.058000
33.316667	1	0.065625
33.333333	1	0.073375
33.350000	1	0.082875
33.366667	1	0.093125
33.383333	1	0.104875
33.400000	1	0.117625
33.416667	1	0.131375
33.433333	1	0.147125
33.450000	1	0.163625
33.466667	1	0.181500
33.483333	1	0.201500
33.500000	1	0.223000
33.516667	1	0.246125
33.533333	1	0.270750
33.550000	1	0.298000
33.566667	1	0.328000
33.583333	1	0.359625
33.600000	1	0.392625
33.616667	1	0.428000
33.633333	1	0.466250
33.650000	1	0.506000
33.666667	1	0.547875
33.683333	1	0.592375
33.700000	1	0.638000
33.716667	1	0.686125
33.733333	1	0.736250
33.750000	1	0.787250
33.766667	1	0.839625
33.783333	1	0.893500
33.800000	1	0.948125
33.816667	1	1.002500
33.833333	1	1.057000
33.850000	1	1.111750
33.866667	1	1.164875
33.883333	1	1.217000
33.900000	1	1.267625
33.916667	1	1.315500
33.933333	1	1.361750
33.950000	1	1.404375
33.966667	1	1.443250
33.983333	1	1.478875
34.000000	1	1.509500
34.016667	1	1.535250
34.033333	1	1.556250
34.050000	1	1.571875
34.066667	1	1.581500
34.083333	1	1.586750
34.100000	1	1.585750
34.116667	1	1.579375
34.133333	1	1.567875
34.150000	1	1.551125
34.166667	1	1.528875
34.183333	1	1.501750
34.200000	1	1.469750
34.216667	1	1.434375
34.233333	1	1.394500
34.250000	1	1.351625
34.266667	1	1.306500
34.283333	1	1.258250
34.300000	1	1.208625
34.316667	1	1.157500
34.333333	1	1.105875
34.350000	1	1.053750
34.366667	1	1.000750
34.383333	1	0.948750
34.400000	1	0.897250
34.416667	1	0.846125
34.433333	1	0.796875
34.450000	1	0.748875
34.466667	1	0.703000
34.483333	1	0.658625
34.500000	1	0.616875
34.516667	1	0.577000
34.533333	1	0.539250
34.550000	1	0.503500
34.566667	1	0.469500
34.583333	1	0.438375
34.600000	1	0.409000
34.616667	1	0.381000
34.633333	1	0.355375
34.650000	1	0.331500
34.666667	1	0.309375
34.683333	1	0.290000
34.700000	1	0.271625
34.716667	1	0.254875
34.733333	1	0.239375
34.750000	1	0.224125
34.766667	1	0.210500
34.783333	1	0.198250
34.800000	1	0.186500
34.816667	1	0.176375
34.833333	1	0.167125
34.850000	1	0.158500
34.866667	1	0.150250
34.883333	1	0.142625
34.900000	1	0.135750
34.916667	1	0.129875
34.933333	1	0.124125
34.950000	1	0.118125
34.966667	1	0.113500
34.983333	1	0.109375
35.000000	1	0.105625
35.016667	1	0.101375
35.033333	1	0.098375
35.050000	1	0.094875
35.066667	1	0.091500
35.083333	1	0.089625
35.100000	1	0.087250
35.116667	1	0.085250
35.133333	1	0.083375
35.150000	1	0.081000
35.166667	1	0.079750
35.183333	1	0.078750
35.200000	1	0.077750
35.216667	1	0.077500
35.233333	1	0.076750
35.250000	1	0.076250
35.266667	1	0.076250
35.283333	1	0.076625
35.300000	1	0.077125
35.316667	1	0.079000
35.333333	1	0.080000
35.350000	1	0.081000
35.366667	1	0.082125
35.383333	1	0.083875
35.400000	1	0.085125
35.416667	1	0.086500
35.433333	1	0.087875
35.450000	1	0.089875
35.466667	1	0.091375
35.483333	1	0.093125
35.500000	1	0.095000
35.516667	1	0.097375
35.533333	1	0.098875
35.550000	1	0.100875
35.566667	1	0.103250
35.583333	1	0.104875
35.600000	1	0.107125
35.616667	1	0.108750
35.633333	1	0.110375
35.650000	1	0.111750
35.666667	1	0.113375
35.683333	1	0.114250
35.700000	1	0.116000
35.716667	1	0.116750
35.733333	1	0.117500
35.750000	1	0.118000
35.766667	1	0.119250
35.783333	1	0.120000
35.800000	1	0.120000
35.816667	1	0.120250
35.833333	1	0.120125
35.850000	1	0.119500
35.866667	1	0.119125
35.883333	1	0.119250
35.900000	1	0.119125
35.916667	1	0.118750
35.933333	1	0.118375
35.950000	1	0.117875
35.966667	1	0.117875
35.983333	1	0.117625
36.000000	1	0.116875
36.016667	1	0.116875
36.033333	1	0.116625
36.050000	1	0.116375
36.066667	1	0.115250
36.083333	1	0.115375
36.100000	1	0.115500
36.116667	1	0.115250
36.133333	1	0.115000
36.150000	1	0.114875
36.166667	1	0.114000
36.183333	1	0.113625
36.200000	1	0.113500
36.216667	1	0.113125
36.233333	1	0.112625
36.250000	1	0.111875
36.266667	1	0.111125
36.283333	1	0.109875
36.300000	1	0.109375
36.316667	1	0.108750
36.333333	1	0.107750
36.350000	1	0.107125
36.366667	1	0.105750
36.383333	1	0.104375
36.400000	1	0.102875
36.416667	1	0.101000
36.433333	1	0.099500
36.450000	1	0.097125
36.466667	1	0.095000
36.483333	1	0.093125
36.500000	1	0.091125
36.516667	1	0.089250
36.533333	1	0.087125
36.550000	1	0.084250
36.566667	1	0.081000
36.583333	1	0.078625
36.600000	1	0.076125
36.616667	1	0.073625
36.633333	1	0.070625
36.650000	1	0.068250
36.666667	1	0.065750
36.683333	1	0.063125
36.700000	1	0.060250
36.716667	1	0.058250
36.733333	1	0.055875
36.750000	1	0.053625
36.766667	1	0.051000
36.783333	1	0.048250
36.800000	1	0.046125
36.816667	1	0.044875
36.833333	1	0.043250
36.850000	1	0.042000
36.866667	1	0.040625
36.883333	1	0.039875
36.900000	1	0.039250
36.916667	1	0.038500
36.933333	1	0.038000
36.950000	1	0.037500
36.966667	1	0.036625
36.983333	1	0.036125
37.000000	1	0.036250
37.016667	1	0.036500
37.033333	1	0.036375
37.050000	1	0.036875
37.066667	1	0.037250
37.083333	1	0.038000
37.100000	1	0.038625
37.116667	1	0.038500
37.133333	1	0.039250
37.150000	1	0.040125
37.166667	1	0.041000
37.183333	1	0.041375
37.200000	1	0.042000
37.216667	1	0.042750
37.233333	1	0.043250
37.250000	1	0.043875
37.266667	1	0.044625
37.283333	1	0.044875
37.300000	1	0.045000
37.316667	1	0.045250
37.333333	1	0.045875
37.350000	1	0.046500
37.366667	1	0.047000
37.383333	1	0.047000
37.400000	1	0.046750
37.416667	1	0.046625
37.433333	1	0.045750
37.450000	1	0.045625
37.466667	1	0.046000
37.483333	1	0.046125
37.500000	1	0.045375
37.516667	1	0.045875
37.533333	1	0.045375
37.550000	1	0.044375
37.566667	1	0.043125
37.583333	1	0.043125
37.600000	1	0.041750
37.616667	1	0.041000
37.633333	1	0.040250
37.650000	1	0.040000
37.666667	1	0.039375
37.683333	1	0.038750
37.700000	1	0.037375
37.716667	1	0.036750
37.733333	1	0.035500
37.750000	1	0.035000
37.766667	1	0.033500
37.783333	1	0.032500
37.800000	1	0.031375
37.816667	1	0.030125
37.833333	1	0.029125
37.850000	1	0.028625
37.866667	1	0.027375
37.883333	1	0.026500
37.900000	1	0.025250
37.916667	1	0.024125
37.933333	1	0.022750
37.950000	1	0.023125
37.966667	1	0.022375
37.983333	1	0.020875
38.000000	1	0.020250
38.016667	1	0.019250
38.033333	1	0.018000
38.050000	1	0.017625
38.066667	1	0.017125
38.083333	1	0.016500
38.100000	1	0.015750
38.116667	1	0.015375
38.133333	1	0.014750
38.150000	1	0.014000
38.166667	1	0.013250
38.183333	1	0.012750
38.200000	1	0.012125
38.216667	1	0.012250
38.233333	1	0.011500
38.250000	1	0.011125
38.266667	1	0.010875
38.283333	1	0.010125
38.300000	1	0.009625
38.316667	1	0.009500
38.333333	1	0.009125
38.350000	1	0.008750
38.366667	1	0.008500
38.383333	1	0.008375
38.400000	1	0.006875
38.416667	1	0.006375
38.433333	1	0.006000
38.450000	1	0.005250
38.466667	1	0.005375
38.483333	1	0.004750
38.500000	1	0.004125
38.516667	1	0.003625
38.533333	1	0.002875
38.550000	1	0.002750
38.566667	1	0.002000
38.583333	1	0.000750
38.600000	1	0.000250
38.616667	1	-0.001250
38.633333	1	-0.002250
38.650000	1	-0.003000
38.666667	1	-0.003875
38.683333	1	-0.004625
38.700000	1	-0.005250
38.716667	1	-0.006375
38.733333	1	-0.007625
38.750000	1	-0.008500
38.766667	1	-0.009250
38.783333	1	-0.009250
38.800000	1	-0.009625
38.816667	1	-0.010250
38.833333	1	-0.010625
38.850000	1	-0.010750
38.866667	1	-0.010125
38.883333	1	-0.010375
38.900000	1	-0.009875
38.916667	1	-0.009625
38.933333	1	-0.009625
38.950000	1	-0.009125
38.966667	1	-0.008375
38.983333	1	-0.007500
39.000000	1	-0.007250
39.016667	1	-0.006500
39.033333	1	-0.005500
39.050000	1	-0.004125
39.066667	1	-0.003125
39.083333	1	-0.001875
39.100000	1	0.000000
39.116667	1	0.001250
39.133333	1	0.002625
39.150000	1	0.003125
39.166667	1	0.004000
39.183333	1	0.004375
39.200000	1	0.006000
39.216667	1	0.006500
39.233333	1	0.007625
39.250000	1	0.008375
39.266667	1	0.009000
39.283333	1	0.009375
39.300000	1	0.009875
39.316667	1	0.010625
39.333333	1	0.010875
39.350000	1	0.011000
39.366667	1	0.011250
39.383333	1	0.011000
39.400000	1	0.011625
39.416667	1	0.011500
39.433333	1	0.011875
39.450000	1	0.011250
39.466667	1	0.011375
39.483333	1	0.011125
39.500000	1	0.011125
39.516667	1	0.011000
39.533333	1	0.010375
39.550000	1	0.009875
39.566667	1	0.009625
39.583333	1	0.010000
39.600000	1	0.009250
39.616667	1	0.008625
39.633333	1	0.009375
39.650000	1	0.009500
39.666667	1	0.009250
39.683333	1	0.010000
39.700000	1	0.010125
39.716667	1	0.009875
39.733333	1	0.008750
39.750000	1	0.008875
39.766667	1	0.008500
39.783333	1	0.008500
39.800000	1	0.008750
39.816667	1	0.008625
39.833333	1	0.008375
39.850000	1	0.008750
39.866667	1	0.009000
39.883333	1	0.008500
39.900000	1	0.008500
39.916667	1	0.008500
39.933333	1	0.008000
39.950000	1	0.007625
39.966667	1	0.007750
39.983333	1	0.007750
40.000000	1	0.008250
