URL	chrom://bioreactor/micro_cm7/HPLC_Ultimate_3000/Users/markusar/20240716_MA_pHrange2.seq/265.smp/RI_1.channel/RI_1.chm
Channel	RI_1

Injection Information:
Data Vault	micro_cm7
Sequence	20240716_MA_pHrange2
Name	Fp1_25H_1
Number	31
Position	BC7
Comment	
Processing Method	
Instrument Method	run_25B_method
Type	Unknown
Status	Finished
Inject Time	17.07.2024 14:35:35 +02:00
Volume (µl)	20.0000
Dilution Factor	1.0000
Weight	1.0000

Chromatogram Data Information:
Time Min. (min)	0.000000
Time Max. (min)	40.000000
Data Points	2401
Detector	RI
Generating Data System	Chromeleon 7.3.2.11814
Exporting Data System	Chromeleon 7.3.2.0
Operator	Instrument Controller
Signal Quantity	Refractive 
Signal Unit	µRIU
Signal Min.	-0.145125
Signal Max.	84.721875
Channel	RI_1
Driver Name	RID520Driver.dll
Channel Type	Evaluation
Min. Step (s)	1
Max. Step (s)	1
Average Step (s)	1

Signal Parameter Information:
Signal Info	

Chromatogram Data:
Time (min)	Step (s)	Value (µRIU)
0.000000	n.a.	0.023875
0.016667	1	0.023750
0.033333	1	0.023125
0.050000	1	0.023000
0.066667	1	0.022000
0.083333	1	0.020875
0.100000	1	0.019000
0.116667	1	0.017625
0.133333	1	0.016500
0.150000	1	0.014625
0.166667	1	0.012625
0.183333	1	0.011125
0.200000	1	0.009375
0.216667	1	0.007250
0.233333	1	0.005375
0.250000	1	0.004000
0.266667	1	0.002375
0.283333	1	0.000250
0.300000	1	-0.001375
0.316667	1	-0.003625
0.333333	1	-0.005000
0.350000	1	-0.006875
0.366667	1	-0.009500
0.383333	1	-0.011625
0.400000	1	-0.013875
0.416667	1	-0.015500
0.433333	1	-0.015250
0.450000	1	-0.015000
0.466667	1	-0.014250
0.483333	1	-0.014125
0.500000	1	-0.013625
0.516667	1	-0.014625
0.533333	1	-0.015375
0.550000	1	-0.017250
0.566667	1	-0.019750
0.583333	1	-0.022375
0.600000	1	-0.024625
0.616667	1	-0.026875
0.633333	1	-0.028875
0.650000	1	-0.029875
0.666667	1	-0.030625
0.683333	1	-0.031375
0.700000	1	-0.032250
0.716667	1	-0.032500
0.733333	1	-0.032625
0.750000	1	-0.033125
0.766667	1	-0.033625
0.783333	1	-0.033875
0.800000	1	-0.034250
0.816667	1	-0.034375
0.833333	1	-0.034375
0.850000	1	-0.033875
0.866667	1	-0.034000
0.883333	1	-0.032500
0.900000	1	-0.032750
0.916667	1	-0.032125
0.933333	1	-0.031250
0.950000	1	-0.031750
0.966667	1	-0.031750
0.983333	1	-0.031875
1.000000	1	-0.031625
1.016667	1	-0.031500
1.033333	1	-0.031375
1.050000	1	-0.030500
1.066667	1	-0.029750
1.083333	1	-0.030000
1.100000	1	-0.029375
1.116667	1	-0.028375
1.133333	1	-0.028375
1.150000	1	-0.028125
1.166667	1	-0.028250
1.183333	1	-0.028500
1.200000	1	-0.028000
1.216667	1	-0.027250
1.233333	1	-0.027375
1.250000	1	-0.027375
1.266667	1	-0.026625
1.283333	1	-0.026000
1.300000	1	-0.027250
1.316667	1	-0.027500
1.333333	1	-0.027875
1.350000	1	-0.027500
1.366667	1	-0.028250
1.383333	1	-0.028750
1.400000	1	-0.029500
1.416667	1	-0.030000
1.433333	1	-0.031125
1.450000	1	-0.031750
1.466667	1	-0.032875
1.483333	1	-0.034375
1.500000	1	-0.035625
1.516667	1	-0.037375
1.533333	1	-0.039875
1.550000	1	-0.042500
1.566667	1	-0.045250
1.583333	1	-0.048125
1.600000	1	-0.051000
1.616667	1	-0.053500
1.633333	1	-0.056375
1.650000	1	-0.058875
1.666667	1	-0.061750
1.683333	1	-0.064750
1.700000	1	-0.068125
1.716667	1	-0.071125
1.733333	1	-0.074125
1.750000	1	-0.077250
1.766667	1	-0.080750
1.783333	1	-0.084125
1.800000	1	-0.086750
1.816667	1	-0.089500
1.833333	1	-0.091750
1.850000	1	-0.094375
1.866667	1	-0.097125
1.883333	1	-0.099875
1.900000	1	-0.102000
1.916667	1	-0.103500
1.933333	1	-0.105000
1.950000	1	-0.106250
1.966667	1	-0.107625
1.983333	1	-0.108750
2.000000	1	-0.109625
2.016667	1	-0.109500
2.033333	1	-0.110000
2.050000	1	-0.110125
2.066667	1	-0.110000
2.083333	1	-0.110375
2.100000	1	-0.109750
2.116667	1	-0.109250
2.133333	1	-0.108375
2.150000	1	-0.107375
2.166667	1	-0.106000
2.183333	1	-0.104125
2.200000	1	-0.102375
2.216667	1	-0.101000
2.233333	1	-0.098250
2.250000	1	-0.095500
2.266667	1	-0.092000
2.283333	1	-0.089000
2.300000	1	-0.085375
2.316667	1	-0.081875
2.333333	1	-0.077875
2.350000	1	-0.073500
2.366667	1	-0.069875
2.383333	1	-0.066375
2.400000	1	-0.061750
2.416667	1	-0.057375
2.433333	1	-0.052750
2.450000	1	-0.048375
2.466667	1	-0.043250
2.483333	1	-0.038625
2.500000	1	-0.034750
2.516667	1	-0.029500
2.533333	1	-0.025375
2.550000	1	-0.020750
2.566667	1	-0.016125
2.583333	1	-0.012625
2.600000	1	-0.008500
2.616667	1	-0.004500
2.633333	1	-0.000750
2.650000	1	0.003000
2.666667	1	0.006750
2.683333	1	0.010875
2.700000	1	0.013500
2.716667	1	0.016500
2.733333	1	0.019125
2.750000	1	0.021500
2.766667	1	0.023875
2.783333	1	0.026375
2.800000	1	0.028375
2.816667	1	0.030500
2.833333	1	0.032250
2.850000	1	0.033375
2.866667	1	0.035125
2.883333	1	0.036250
2.900000	1	0.036750
2.916667	1	0.037375
2.933333	1	0.037500
2.950000	1	0.037625
2.966667	1	0.037750
2.983333	1	0.037750
3.000000	1	0.037250
3.016667	1	0.037000
3.033333	1	0.036250
3.050000	1	0.035375
3.066667	1	0.034000
3.083333	1	0.032375
3.100000	1	0.031125
3.116667	1	0.030125
3.133333	1	0.029375
3.150000	1	0.027000
3.166667	1	0.025375
3.183333	1	0.023375
3.200000	1	0.022125
3.216667	1	0.020500
3.233333	1	0.019000
3.250000	1	0.017000
3.266667	1	0.015000
3.283333	1	0.013625
3.300000	1	0.011500
3.316667	1	0.010125
3.333333	1	0.008625
3.350000	1	0.006500
3.366667	1	0.005375
3.383333	1	0.004250
3.400000	1	0.002875
3.416667	1	0.002625
3.433333	1	0.001750
3.450000	1	0.000375
3.466667	1	-0.000750
3.483333	1	-0.001875
3.500000	1	-0.001750
3.516667	1	-0.002500
3.533333	1	-0.002750
3.550000	1	-0.002500
3.566667	1	-0.002875
3.583333	1	-0.002375
3.600000	1	-0.002125
3.616667	1	-0.002250
3.633333	1	-0.002000
3.650000	1	-0.001875
3.666667	1	-0.001500
3.683333	1	-0.000875
3.700000	1	-0.000625
3.716667	1	-0.000500
3.733333	1	-0.000500
3.750000	1	0.000375
3.766667	1	0.001375
3.783333	1	0.001875
3.800000	1	0.002750
3.816667	1	0.003000
3.833333	1	0.003875
3.850000	1	0.004750
3.866667	1	0.005875
3.883333	1	0.006750
3.900000	1	0.007625
3.916667	1	0.007250
3.933333	1	0.007750
3.950000	1	0.008500
3.966667	1	0.009500
3.983333	1	0.009750
4.000000	1	0.010250
4.016667	1	0.011750
4.033333	1	0.013000
4.050000	1	0.013375
4.066667	1	0.014625
4.083333	1	0.015375
4.100000	1	0.015500
4.116667	1	0.016500
4.133333	1	0.017750
4.150000	1	0.019125
4.166667	1	0.020875
4.183333	1	0.022500
4.200000	1	0.023875
4.216667	1	0.025875
4.233333	1	0.028375
4.250000	1	0.030375
4.266667	1	0.032750
4.283333	1	0.035000
4.300000	1	0.037250
4.316667	1	0.040125
4.333333	1	0.042500
4.350000	1	0.045625
4.366667	1	0.048625
4.383333	1	0.051375
4.400000	1	0.054625
4.416667	1	0.058125
4.433333	1	0.061875
4.450000	1	0.065375
4.466667	1	0.069125
4.483333	1	0.072875
4.500000	1	0.076625
4.516667	1	0.079625
4.533333	1	0.082625
4.550000	1	0.086125
4.566667	1	0.089625
4.583333	1	0.093500
4.600000	1	0.097125
4.616667	1	0.100750
4.633333	1	0.104125
4.650000	1	0.107375
4.666667	1	0.111125
4.683333	1	0.115250
4.700000	1	0.119250
4.716667	1	0.122875
4.733333	1	0.126000
4.750000	1	0.129375
4.766667	1	0.132875
4.783333	1	0.136875
4.800000	1	0.140250
4.816667	1	0.144000
4.833333	1	0.148000
4.850000	1	0.151250
4.866667	1	0.155000
4.883333	1	0.158875
4.900000	1	0.162375
4.916667	1	0.165875
4.933333	1	0.169250
4.950000	1	0.173125
4.966667	1	0.177000
4.983333	1	0.180375
5.000000	1	0.184000
5.016667	1	0.187500
5.033333	1	0.190750
5.050000	1	0.194000
5.066667	1	0.197250
5.083333	1	0.200500
5.100000	1	0.203750
5.116667	1	0.206625
5.133333	1	0.209375
5.150000	1	0.212125
5.166667	1	0.214375
5.183333	1	0.217125
5.200000	1	0.219125
5.216667	1	0.220625
5.233333	1	0.222250
5.250000	1	0.223250
5.266667	1	0.224625
5.283333	1	0.225250
5.300000	1	0.226000
5.316667	1	0.226250
5.333333	1	0.226375
5.350000	1	0.226375
5.366667	1	0.226625
5.383333	1	0.225250
5.400000	1	0.224125
5.416667	1	0.222875
5.433333	1	0.222250
5.450000	1	0.220625
5.466667	1	0.218500
5.483333	1	0.216625
5.500000	1	0.214500
5.516667	1	0.212000
5.533333	1	0.209250
5.550000	1	0.207375
5.566667	1	0.204125
5.583333	1	0.200750
5.600000	1	0.197000
5.616667	1	0.193500
5.633333	1	0.189375
5.650000	1	0.185750
5.666667	1	0.181000
5.683333	1	0.176500
5.700000	1	0.170750
5.716667	1	0.166000
5.733333	1	0.160875
5.750000	1	0.155875
5.766667	1	0.150500
5.783333	1	0.146125
5.800000	1	0.141125
5.816667	1	0.135250
5.833333	1	0.130000
5.850000	1	0.124875
5.866667	1	0.119625
5.883333	1	0.114125
5.900000	1	0.108750
5.916667	1	0.103000
5.933333	1	0.097500
5.950000	1	0.092750
5.966667	1	0.087500
5.983333	1	0.082750
6.000000	1	0.077875
6.016667	1	0.072875
6.033333	1	0.067375
6.050000	1	0.062500
6.066667	1	0.057125
6.083333	1	0.052625
6.100000	1	0.047250
6.116667	1	0.043375
6.133333	1	0.038125
6.150000	1	0.033125
6.166667	1	0.027875
6.183333	1	0.023125
6.200000	1	0.018500
6.216667	1	0.013375
6.233333	1	0.008625
6.250000	1	0.004000
6.266667	1	-0.000500
6.283333	1	-0.005250
6.300000	1	-0.010250
6.316667	1	-0.014625
6.333333	1	-0.019125
6.350000	1	-0.023125
6.366667	1	-0.026625
6.383333	1	-0.029500
6.400000	1	-0.032625
6.416667	1	-0.035875
6.433333	1	-0.038625
6.450000	1	-0.041125
6.466667	1	-0.043750
6.483333	1	-0.045875
6.500000	1	-0.047000
6.516667	1	-0.048625
6.533333	1	-0.049000
6.550000	1	-0.049500
6.566667	1	-0.049500
6.583333	1	-0.049375
6.600000	1	-0.048875
6.616667	1	-0.048125
6.633333	1	-0.047250
6.650000	1	-0.046500
6.666667	1	-0.045625
6.683333	1	-0.044125
6.700000	1	-0.042500
6.716667	1	-0.041125
6.733333	1	-0.039250
6.750000	1	-0.037500
6.766667	1	-0.036000
6.783333	1	-0.033875
6.800000	1	-0.031875
6.816667	1	-0.030250
6.833333	1	-0.028125
6.850000	1	-0.026875
6.866667	1	-0.025000
6.883333	1	-0.023875
6.900000	1	-0.022250
6.916667	1	-0.021250
6.933333	1	-0.020250
6.950000	1	-0.018875
6.966667	1	-0.018125
6.983333	1	-0.017625
7.000000	1	-0.016875
7.016667	1	-0.016875
7.033333	1	-0.017125
7.050000	1	-0.017000
7.066667	1	-0.016875
7.083333	1	-0.017250
7.100000	1	-0.017375
7.116667	1	-0.017750
7.133333	1	-0.018500
7.150000	1	-0.019125
7.166667	1	-0.019625
7.183333	1	-0.020125
7.200000	1	-0.020750
7.216667	1	-0.020875
7.233333	1	-0.021000
7.250000	1	-0.021375
7.266667	1	-0.021625
7.283333	1	-0.021875
7.300000	1	-0.021750
7.316667	1	-0.022000
7.333333	1	-0.021625
7.350000	1	-0.021125
7.366667	1	-0.020625
7.383333	1	-0.019750
7.400000	1	-0.018875
7.416667	1	-0.018750
7.433333	1	-0.017625
7.450000	1	-0.016250
7.466667	1	-0.014875
7.483333	1	-0.013625
7.500000	1	-0.012500
7.516667	1	-0.011000
7.533333	1	-0.008750
7.550000	1	-0.006000
7.566667	1	-0.003875
7.583333	1	-0.001750
7.600000	1	0.000000
7.616667	1	0.002000
7.633333	1	0.004125
7.650000	1	0.006375
7.666667	1	0.007625
7.683333	1	0.009875
7.700000	1	0.012250
7.716667	1	0.014000
7.733333	1	0.015750
7.750000	1	0.018000
7.766667	1	0.019375
7.783333	1	0.020250
7.800000	1	0.021375
7.816667	1	0.022500
7.833333	1	0.022625
7.850000	1	0.023375
7.866667	1	0.024250
7.883333	1	0.025375
7.900000	1	0.025875
7.916667	1	0.026250
7.933333	1	0.026750
7.950000	1	0.027750
7.966667	1	0.028250
7.983333	1	0.028625
8.000000	1	0.028875
8.016667	1	0.028750
8.033333	1	0.028125
8.050000	1	0.028000
8.066667	1	0.028250
8.083333	1	0.028250
8.100000	1	0.027500
8.116667	1	0.027875
8.133333	1	0.027375
8.150000	1	0.027125
8.166667	1	0.027625
8.183333	1	0.027750
8.200000	1	0.027125
8.216667	1	0.027875
8.233333	1	0.027875
8.250000	1	0.028000
8.266667	1	0.028125
8.283333	1	0.027250
8.300000	1	0.027125
8.316667	1	0.027250
8.333333	1	0.027750
8.350000	1	0.028500
8.366667	1	0.029375
8.383333	1	0.029000
8.400000	1	0.029125
8.416667	1	0.029625
8.433333	1	0.029750
8.450000	1	0.029375
8.466667	1	0.029000
8.483333	1	0.028875
8.500000	1	0.029125
8.516667	1	0.029125
8.533333	1	0.029125
8.550000	1	0.028875
8.566667	1	0.028750
8.583333	1	0.028500
8.600000	1	0.027625
8.616667	1	0.026375
8.633333	1	0.025625
8.650000	1	0.025125
8.666667	1	0.024500
8.683333	1	0.023375
8.700000	1	0.022250
8.716667	1	0.021500
8.733333	1	0.020625
8.750000	1	0.019625
8.766667	1	0.018500
8.783333	1	0.017625
8.800000	1	0.017000
8.816667	1	0.015375
8.833333	1	0.013750
8.850000	1	0.012000
8.866667	1	0.010375
8.883333	1	0.009250
8.900000	1	0.008000
8.916667	1	0.006375
8.933333	1	0.004875
8.950000	1	0.003500
8.966667	1	0.001625
8.983333	1	-0.000125
9.000000	1	-0.002000
9.016667	1	-0.004250
9.033333	1	-0.004875
9.050000	1	-0.006375
9.066667	1	-0.008500
9.083333	1	-0.010250
9.100000	1	-0.011875
9.116667	1	-0.013625
9.133333	1	-0.016000
9.150000	1	-0.017875
9.166667	1	-0.019625
9.183333	1	-0.021375
9.200000	1	-0.023500
9.216667	1	-0.025375
9.233333	1	-0.028375
9.250000	1	-0.030250
9.266667	1	-0.032250
9.283333	1	-0.034375
9.300000	1	-0.036125
9.316667	1	-0.038125
9.333333	1	-0.040625
9.350000	1	-0.042750
9.366667	1	-0.045000
9.383333	1	-0.047375
9.400000	1	-0.049375
9.416667	1	-0.051375
9.433333	1	-0.052875
9.450000	1	-0.054500
9.466667	1	-0.055625
9.483333	1	-0.057125
9.500000	1	-0.058125
9.516667	1	-0.059750
9.533333	1	-0.060625
9.550000	1	-0.060750
9.566667	1	-0.061500
9.583333	1	-0.061750
9.600000	1	-0.063000
9.616667	1	-0.063125
9.633333	1	-0.063125
9.650000	1	-0.063125
9.666667	1	-0.062750
9.683333	1	-0.063000
9.700000	1	-0.063750
9.716667	1	-0.063750
9.733333	1	-0.064375
9.750000	1	-0.064625
9.766667	1	-0.064750
9.783333	1	-0.065125
9.800000	1	-0.065500
9.816667	1	-0.065375
9.833333	1	-0.065500
9.850000	1	-0.066000
9.866667	1	-0.067375
9.883333	1	-0.068250
9.900000	1	-0.070000
9.916667	1	-0.072000
9.933333	1	-0.073250
9.950000	1	-0.075250
9.966667	1	-0.077375
9.983333	1	-0.079625
10.000000	1	-0.081750
10.016667	1	-0.085125
10.033333	1	-0.087625
10.050000	1	-0.089875
10.066667	1	-0.092625
10.083333	1	-0.094875
10.100000	1	-0.096625
10.116667	1	-0.097375
10.133333	1	-0.097250
10.150000	1	-0.096125
10.166667	1	-0.094125
10.183333	1	-0.090625
10.200000	1	-0.085875
10.216667	1	-0.078875
10.233333	1	-0.070000
10.250000	1	-0.059500
10.266667	1	-0.046750
10.283333	1	-0.032125
10.300000	1	-0.015250
10.316667	1	0.004000
10.333333	1	0.024500
10.350000	1	0.044750
10.366667	1	0.063000
10.383333	1	0.076000
10.400000	1	0.079375
10.416667	1	0.069375
10.433333	1	0.042375
10.450000	1	-0.001750
10.466667	1	-0.058875
10.483333	1	-0.114500
10.500000	1	-0.145125
10.516667	1	-0.116500
10.533333	1	0.016750
10.550000	1	0.311375
10.566667	1	0.826125
10.583333	1	1.624875
10.600000	1	2.767375
10.616667	1	4.304625
10.633333	1	6.279000
10.650000	1	8.717750
10.666667	1	11.643500
10.683333	1	15.064125
10.700000	1	18.977625
10.716667	1	23.369625
10.733333	1	28.218125
10.750000	1	33.487125
10.766667	1	39.131125
10.783333	1	45.087375
10.800000	1	51.275625
10.816667	1	57.582250
10.833333	1	63.843250
10.850000	1	69.817125
10.866667	1	75.161375
10.883333	1	79.397375
10.900000	1	81.939625
10.916667	1	82.199750
10.933333	1	79.775375
10.950000	1	74.653000
10.966667	1	67.295875
10.983333	1	58.530000
11.000000	1	49.304375
11.016667	1	40.445375
11.033333	1	32.510750
11.050000	1	25.753875
11.066667	1	20.211375
11.083333	1	15.788625
11.100000	1	12.334375
11.116667	1	9.679250
11.133333	1	7.663500
11.150000	1	6.144875
11.166667	1	5.005125
11.183333	1	4.150500
11.200000	1	3.507375
11.216667	1	3.019375
11.233333	1	2.647875
11.250000	1	2.361000
11.266667	1	2.136375
11.283333	1	1.957500
11.300000	1	1.812500
11.316667	1	1.692500
11.333333	1	1.590875
11.350000	1	1.503375
11.366667	1	1.427375
11.383333	1	1.360500
11.400000	1	1.300875
11.416667	1	1.247250
11.433333	1	1.200250
11.450000	1	1.158125
11.466667	1	1.121750
11.483333	1	1.091000
11.500000	1	1.065375
11.516667	1	1.044625
11.533333	1	1.029625
11.550000	1	1.018750
11.566667	1	1.012250
11.583333	1	1.010125
11.600000	1	1.012750
11.616667	1	1.020375
11.633333	1	1.033500
11.650000	1	1.050625
11.666667	1	1.073000
11.683333	1	1.099000
11.700000	1	1.127250
11.716667	1	1.158625
11.733333	1	1.190875
11.750000	1	1.222125
11.766667	1	1.250500
11.783333	1	1.275750
11.800000	1	1.295875
11.816667	1	1.310250
11.833333	1	1.318000
11.850000	1	1.319125
11.866667	1	1.314250
11.883333	1	1.302500
11.900000	1	1.286500
11.916667	1	1.267000
11.933333	1	1.244250
11.950000	1	1.221375
11.966667	1	1.197500
11.983333	1	1.174375
12.000000	1	1.151875
12.016667	1	1.131000
12.033333	1	1.112125
12.050000	1	1.095750
12.066667	1	1.080875
12.083333	1	1.068125
12.100000	1	1.057875
12.116667	1	1.049000
12.133333	1	1.042500
12.150000	1	1.037125
12.166667	1	1.032750
12.183333	1	1.030500
12.200000	1	1.029750
12.216667	1	1.030500
12.233333	1	1.033250
12.250000	1	1.038625
12.266667	1	1.047750
12.283333	1	1.061500
12.300000	1	1.082250
12.316667	1	1.112875
12.333333	1	1.157250
12.350000	1	1.222125
12.366667	1	1.312875
12.383333	1	1.442125
12.400000	1	1.624750
12.416667	1	1.877875
12.433333	1	2.228250
12.450000	1	2.706625
12.466667	1	3.355875
12.483333	1	4.226500
12.500000	1	5.377750
12.516667	1	6.880750
12.533333	1	8.810750
12.550000	1	11.248000
12.566667	1	14.270625
12.583333	1	17.943750
12.600000	1	22.308250
12.616667	1	27.368500
12.633333	1	33.091125
12.650000	1	39.391250
12.666667	1	46.122750
12.683333	1	53.078625
12.700000	1	59.997000
12.716667	1	66.581250
12.733333	1	72.522375
12.750000	1	77.521625
12.766667	1	81.328250
12.783333	1	83.758500
12.800000	1	84.721875
12.816667	1	84.224250
12.833333	1	82.363875
12.850000	1	79.314125
12.866667	1	75.313000
12.883333	1	70.637000
12.900000	1	65.576750
12.916667	1	60.404500
12.933333	1	55.361375
12.950000	1	50.634375
12.966667	1	46.358000
12.983333	1	42.612375
13.000000	1	39.435625
13.016667	1	36.827125
13.033333	1	34.756375
13.050000	1	33.179750
13.066667	1	32.041750
13.083333	1	31.286875
13.100000	1	30.858875
13.116667	1	30.707875
13.133333	1	30.786500
13.150000	1	31.055875
13.166667	1	31.481000
13.183333	1	32.035875
13.200000	1	32.695125
13.216667	1	33.441750
13.233333	1	34.262000
13.250000	1	35.144125
13.266667	1	36.079875
13.283333	1	37.063375
13.300000	1	38.087875
13.316667	1	39.150625
13.333333	1	40.247250
13.350000	1	41.376625
13.366667	1	42.538125
13.383333	1	43.730125
13.400000	1	44.949750
13.416667	1	46.197875
13.433333	1	47.476375
13.450000	1	48.784125
13.466667	1	50.124000
13.483333	1	51.494875
13.500000	1	52.895750
13.516667	1	54.327750
13.533333	1	55.791000
13.550000	1	57.284625
13.566667	1	58.810000
13.583333	1	60.366500
13.600000	1	61.953250
13.616667	1	63.572250
13.633333	1	65.224250
13.650000	1	66.912125
13.666667	1	68.635625
13.683333	1	70.396125
13.700000	1	72.193375
13.716667	1	74.027375
13.733333	1	75.894375
13.750000	1	77.779750
13.766667	1	79.624750
13.783333	1	81.296625
13.800000	1	82.583125
13.816667	1	83.244375
13.833333	1	83.068500
13.850000	1	81.895625
13.866667	1	79.567625
13.883333	1	75.886875
13.900000	1	70.647000
13.916667	1	63.789500
13.933333	1	55.599125
13.950000	1	46.751750
13.966667	1	38.108625
13.983333	1	30.391875
14.000000	1	23.974125
14.016667	1	18.882875
14.033333	1	14.957750
14.050000	1	11.976625
14.066667	1	9.735875
14.083333	1	8.066125
14.100000	1	6.831125
14.116667	1	5.922875
14.133333	1	5.253500
14.150000	1	4.756625
14.166667	1	4.383125
14.183333	1	4.098000
14.200000	1	3.875125
14.216667	1	3.696500
14.233333	1	3.550250
14.250000	1	3.427750
14.266667	1	3.323125
14.283333	1	3.231500
14.300000	1	3.149875
14.316667	1	3.076625
14.333333	1	3.009000
14.350000	1	2.947750
14.366667	1	2.891250
14.383333	1	2.839750
14.400000	1	2.790625
14.416667	1	2.745625
14.433333	1	2.704000
14.450000	1	2.665750
14.466667	1	2.629250
14.483333	1	2.596500
14.500000	1	2.564875
14.516667	1	2.535000
14.533333	1	2.507250
14.550000	1	2.481000
14.566667	1	2.455625
14.583333	1	2.430125
14.600000	1	2.405500
14.616667	1	2.380875
14.633333	1	2.356125
14.650000	1	2.329750
14.666667	1	2.303500
14.683333	1	2.277250
14.700000	1	2.250625
14.716667	1	2.222250
14.733333	1	2.194000
14.750000	1	2.165375
14.766667	1	2.136250
14.783333	1	2.107625
14.800000	1	2.079125
14.816667	1	2.051250
14.833333	1	2.023875
14.850000	1	1.996375
14.866667	1	1.969500
14.883333	1	1.942375
14.900000	1	1.916000
14.916667	1	1.890500
14.933333	1	1.865750
14.950000	1	1.841125
14.966667	1	1.816250
14.983333	1	1.792375
15.000000	1	1.767750
15.016667	1	1.744500
15.033333	1	1.722250
15.050000	1	1.700875
15.066667	1	1.679250
15.083333	1	1.658625
15.100000	1	1.638000
15.116667	1	1.618125
15.133333	1	1.599000
15.150000	1	1.580250
15.166667	1	1.563125
15.183333	1	1.546500
15.200000	1	1.530750
15.216667	1	1.516375
15.233333	1	1.502250
15.250000	1	1.490375
15.266667	1	1.479625
15.283333	1	1.470750
15.300000	1	1.464375
15.316667	1	1.460375
15.333333	1	1.458125
15.350000	1	1.460375
15.366667	1	1.466500
15.383333	1	1.476375
15.400000	1	1.489375
15.416667	1	1.507125
15.433333	1	1.528875
15.450000	1	1.554250
15.466667	1	1.581500
15.483333	1	1.611000
15.500000	1	1.640125
15.516667	1	1.667375
15.533333	1	1.691125
15.550000	1	1.710125
15.566667	1	1.723125
15.583333	1	1.728250
15.600000	1	1.725750
15.616667	1	1.714875
15.633333	1	1.696750
15.650000	1	1.670000
15.666667	1	1.638125
15.683333	1	1.601250
15.700000	1	1.561750
15.716667	1	1.520125
15.733333	1	1.479250
15.750000	1	1.438875
15.766667	1	1.399500
15.783333	1	1.361500
15.800000	1	1.325500
15.816667	1	1.291125
15.833333	1	1.258750
15.850000	1	1.228000
15.866667	1	1.198125
15.883333	1	1.169750
15.900000	1	1.142125
15.916667	1	1.117250
15.933333	1	1.092875
15.950000	1	1.070875
15.966667	1	1.050875
15.983333	1	1.033125
16.000000	1	1.017500
16.016667	1	1.004500
16.033333	1	0.993875
16.050000	1	0.985625
16.066667	1	0.980375
16.083333	1	0.976250
16.100000	1	0.975250
16.116667	1	0.974625
16.133333	1	0.975875
16.150000	1	0.978500
16.166667	1	0.982000
16.183333	1	0.985750
16.200000	1	0.990625
16.216667	1	0.995500
16.233333	1	1.000500
16.250000	1	1.004125
16.266667	1	1.008000
16.283333	1	1.010250
16.300000	1	1.012000
16.316667	1	1.012875
16.333333	1	1.013000
16.350000	1	1.012750
16.366667	1	1.011625
16.383333	1	1.010000
16.400000	1	1.008500
16.416667	1	1.007125
16.433333	1	1.004625
16.450000	1	1.002875
16.466667	1	1.002375
16.483333	1	1.003125
16.500000	1	1.004625
16.516667	1	1.008000
16.533333	1	1.012000
16.550000	1	1.018250
16.566667	1	1.025000
16.583333	1	1.034125
16.600000	1	1.043375
16.616667	1	1.053875
16.633333	1	1.063750
16.650000	1	1.073875
16.666667	1	1.083000
16.683333	1	1.091750
16.700000	1	1.098875
16.716667	1	1.104625
16.733333	1	1.110125
16.750000	1	1.113500
16.766667	1	1.116875
16.783333	1	1.119375
16.800000	1	1.121125
16.816667	1	1.121750
16.833333	1	1.122500
16.850000	1	1.123625
16.866667	1	1.124875
16.883333	1	1.126000
16.900000	1	1.127000
16.916667	1	1.127250
16.933333	1	1.127125
16.950000	1	1.126125
16.966667	1	1.124875
16.983333	1	1.122125
17.000000	1	1.118750
17.016667	1	1.114125
17.033333	1	1.108750
17.050000	1	1.101750
17.066667	1	1.094875
17.083333	1	1.087250
17.100000	1	1.079750
17.116667	1	1.072625
17.133333	1	1.065375
17.150000	1	1.058750
17.166667	1	1.053625
17.183333	1	1.049500
17.200000	1	1.046250
17.216667	1	1.044000
17.233333	1	1.042500
17.250000	1	1.042250
17.266667	1	1.043000
17.283333	1	1.044375
17.300000	1	1.046750
17.316667	1	1.049250
17.333333	1	1.052000
17.350000	1	1.055625
17.366667	1	1.059625
17.383333	1	1.063375
17.400000	1	1.067000
17.416667	1	1.070375
17.433333	1	1.073625
17.450000	1	1.075750
17.466667	1	1.076250
17.483333	1	1.076500
17.500000	1	1.074750
17.516667	1	1.072250
17.533333	1	1.068125
17.550000	1	1.060875
17.566667	1	1.053000
17.583333	1	1.042875
17.600000	1	1.031125
17.616667	1	1.017500
17.633333	1	1.003000
17.650000	1	0.987875
17.666667	1	0.971750
17.683333	1	0.955000
17.700000	1	0.938125
17.716667	1	0.920750
17.733333	1	0.902875
17.750000	1	0.886000
17.766667	1	0.870375
17.783333	1	0.854125
17.800000	1	0.839500
17.816667	1	0.825625
17.833333	1	0.812625
17.850000	1	0.799750
17.866667	1	0.787625
17.883333	1	0.776625
17.900000	1	0.766500
17.916667	1	0.757000
17.933333	1	0.748000
17.950000	1	0.740500
17.966667	1	0.733500
17.983333	1	0.727250
18.000000	1	0.721625
18.016667	1	0.716375
18.033333	1	0.712750
18.050000	1	0.708750
18.066667	1	0.704250
18.083333	1	0.700500
18.100000	1	0.697000
18.116667	1	0.694250
18.133333	1	0.691125
18.150000	1	0.687750
18.166667	1	0.684750
18.183333	1	0.682625
18.200000	1	0.680375
18.216667	1	0.678500
18.233333	1	0.677125
18.250000	1	0.676000
18.266667	1	0.676125
18.283333	1	0.676875
18.300000	1	0.678000
18.316667	1	0.679875
18.333333	1	0.681875
18.350000	1	0.684000
18.366667	1	0.687250
18.383333	1	0.691375
18.400000	1	0.696125
18.416667	1	0.701375
18.433333	1	0.707625
18.450000	1	0.713750
18.466667	1	0.721000
18.483333	1	0.729250
18.500000	1	0.738875
18.516667	1	0.749500
18.533333	1	0.762500
18.550000	1	0.775750
18.566667	1	0.792000
18.583333	1	0.810000
18.600000	1	0.829750
18.616667	1	0.852375
18.633333	1	0.877000
18.650000	1	0.904250
18.666667	1	0.932750
18.683333	1	0.963250
18.700000	1	0.994750
18.716667	1	1.028750
18.733333	1	1.064125
18.750000	1	1.101000
18.766667	1	1.138750
18.783333	1	1.177250
18.800000	1	1.215625
18.816667	1	1.253750
18.833333	1	1.290375
18.850000	1	1.325000
18.866667	1	1.357500
18.883333	1	1.387125
18.900000	1	1.412250
18.916667	1	1.432250
18.933333	1	1.447500
18.950000	1	1.457500
18.966667	1	1.461125
18.983333	1	1.458625
19.000000	1	1.448875
19.016667	1	1.432750
19.033333	1	1.409625
19.050000	1	1.380000
19.066667	1	1.344250
19.083333	1	1.304500
19.100000	1	1.261000
19.116667	1	1.214000
19.133333	1	1.164625
19.150000	1	1.114500
19.166667	1	1.063875
19.183333	1	1.013875
19.200000	1	0.966000
19.216667	1	0.921250
19.233333	1	0.879125
19.250000	1	0.841250
19.266667	1	0.808000
19.283333	1	0.778625
19.300000	1	0.753750
19.316667	1	0.734000
19.333333	1	0.720375
19.350000	1	0.711500
19.366667	1	0.707750
19.383333	1	0.709375
19.400000	1	0.715875
19.416667	1	0.728500
19.433333	1	0.744375
19.450000	1	0.764875
19.466667	1	0.789125
19.483333	1	0.817625
19.500000	1	0.848625
19.516667	1	0.882625
19.533333	1	0.918500
19.550000	1	0.954000
19.566667	1	0.990250
19.583333	1	1.024125
19.600000	1	1.057250
19.616667	1	1.087500
19.633333	1	1.113375
19.650000	1	1.134125
19.666667	1	1.149750
19.683333	1	1.160500
19.700000	1	1.165750
19.716667	1	1.165125
19.733333	1	1.158875
19.750000	1	1.147625
19.766667	1	1.132000
19.783333	1	1.111875
19.800000	1	1.087625
19.816667	1	1.060125
19.833333	1	1.030375
19.850000	1	0.998750
19.866667	1	0.965125
19.883333	1	0.931875
19.900000	1	0.898000
19.916667	1	0.864500
19.933333	1	0.831125
19.950000	1	0.799250
19.966667	1	0.768625
19.983333	1	0.739625
20.000000	1	0.713125
20.016667	1	0.688375
20.033333	1	0.665375
20.050000	1	0.645000
20.066667	1	0.627000
20.083333	1	0.611375
20.100000	1	0.599250
20.116667	1	0.589125
20.133333	1	0.582875
20.150000	1	0.578750
20.166667	1	0.577750
20.183333	1	0.578375
20.200000	1	0.581875
20.216667	1	0.586750
20.233333	1	0.594125
20.250000	1	0.602250
20.266667	1	0.611500
20.283333	1	0.621125
20.300000	1	0.631000
20.316667	1	0.639750
20.333333	1	0.648625
20.350000	1	0.655500
20.366667	1	0.660625
20.383333	1	0.663375
20.400000	1	0.663875
20.416667	1	0.662250
20.433333	1	0.658500
20.450000	1	0.652875
20.466667	1	0.645625
20.483333	1	0.637625
20.500000	1	0.629000
20.516667	1	0.621625
20.533333	1	0.616375
20.550000	1	0.613875
20.566667	1	0.615000
20.583333	1	0.620250
20.600000	1	0.630625
20.616667	1	0.647875
20.633333	1	0.671375
20.650000	1	0.701625
20.666667	1	0.739625
20.683333	1	0.785000
20.700000	1	0.837125
20.716667	1	0.896375
20.733333	1	0.960250
20.750000	1	1.028625
20.766667	1	1.100500
20.783333	1	1.172750
20.800000	1	1.244500
20.816667	1	1.313125
20.833333	1	1.376250
20.850000	1	1.431500
20.866667	1	1.477875
20.883333	1	1.512500
20.900000	1	1.534625
20.916667	1	1.543500
20.933333	1	1.539000
20.950000	1	1.521250
20.966667	1	1.490125
20.983333	1	1.447125
21.000000	1	1.393875
21.016667	1	1.332125
21.033333	1	1.264125
21.050000	1	1.192125
21.066667	1	1.118000
21.083333	1	1.043625
21.100000	1	0.971125
21.116667	1	0.900875
21.133333	1	0.834500
21.150000	1	0.772000
21.166667	1	0.715625
21.183333	1	0.664875
21.200000	1	0.619125
21.216667	1	0.578625
21.233333	1	0.543500
21.250000	1	0.513000
21.266667	1	0.487500
21.283333	1	0.466000
21.300000	1	0.448125
21.316667	1	0.433625
21.333333	1	0.421125
21.350000	1	0.411625
21.366667	1	0.403375
21.383333	1	0.396750
21.400000	1	0.391500
21.416667	1	0.387000
21.433333	1	0.383875
21.450000	1	0.382125
21.466667	1	0.379875
21.483333	1	0.379625
21.500000	1	0.379250
21.516667	1	0.378875
21.533333	1	0.379375
21.550000	1	0.380250
21.566667	1	0.381500
21.583333	1	0.383625
21.600000	1	0.386000
21.616667	1	0.389875
21.633333	1	0.393750
21.650000	1	0.398000
21.666667	1	0.403875
21.683333	1	0.410125
21.700000	1	0.417250
21.716667	1	0.425625
21.733333	1	0.435250
21.750000	1	0.446500
21.766667	1	0.458000
21.783333	1	0.470375
21.800000	1	0.483500
21.816667	1	0.498000
21.833333	1	0.512750
21.850000	1	0.528625
21.866667	1	0.544000
21.883333	1	0.560125
21.900000	1	0.576500
21.916667	1	0.593125
21.933333	1	0.608875
21.950000	1	0.624000
21.966667	1	0.637875
21.983333	1	0.651375
22.000000	1	0.664625
22.016667	1	0.675375
22.033333	1	0.684750
22.050000	1	0.691750
22.066667	1	0.697250
22.083333	1	0.701125
22.100000	1	0.702750
22.116667	1	0.701875
22.133333	1	0.699375
22.150000	1	0.694375
22.166667	1	0.687875
22.183333	1	0.679000
22.200000	1	0.668500
22.216667	1	0.657000
22.233333	1	0.643500
22.250000	1	0.628750
22.266667	1	0.613125
22.283333	1	0.597000
22.300000	1	0.579750
22.316667	1	0.562625
22.333333	1	0.544500
22.350000	1	0.526375
22.366667	1	0.508375
22.383333	1	0.489625
22.400000	1	0.471750
22.416667	1	0.454000
22.433333	1	0.437000
22.450000	1	0.420250
22.466667	1	0.404125
22.483333	1	0.389250
22.500000	1	0.375625
22.516667	1	0.362250
22.533333	1	0.350000
22.550000	1	0.338250
22.566667	1	0.327250
22.583333	1	0.318000
22.600000	1	0.309250
22.616667	1	0.301125
22.633333	1	0.293500
22.650000	1	0.286125
22.666667	1	0.279750
22.683333	1	0.273750
22.700000	1	0.268500
22.716667	1	0.263750
22.733333	1	0.259625
22.750000	1	0.255500
22.766667	1	0.251250
22.783333	1	0.248000
22.800000	1	0.243875
22.816667	1	0.240875
22.833333	1	0.237875
22.850000	1	0.234875
22.866667	1	0.232250
22.883333	1	0.230125
22.900000	1	0.228250
22.916667	1	0.227250
22.933333	1	0.225500
22.950000	1	0.224875
22.966667	1	0.224500
22.983333	1	0.224125
23.000000	1	0.223875
23.016667	1	0.224625
23.033333	1	0.224500
23.050000	1	0.225375
23.066667	1	0.226500
23.083333	1	0.228250
23.100000	1	0.230875
23.116667	1	0.232250
23.133333	1	0.234750
23.150000	1	0.236875
23.166667	1	0.239875
23.183333	1	0.242750
23.200000	1	0.245875
23.216667	1	0.249500
23.233333	1	0.252875
23.250000	1	0.257875
23.266667	1	0.263750
23.283333	1	0.270125
23.300000	1	0.277500
23.316667	1	0.287250
23.333333	1	0.298125
23.350000	1	0.312375
23.366667	1	0.329500
23.383333	1	0.349875
23.400000	1	0.375000
23.416667	1	0.404375
23.433333	1	0.440000
23.450000	1	0.481875
23.466667	1	0.531750
23.483333	1	0.590625
23.500000	1	0.658500
23.516667	1	0.737500
23.533333	1	0.827500
23.550000	1	0.930625
23.566667	1	1.046750
23.583333	1	1.176750
23.600000	1	1.321875
23.616667	1	1.481625
23.633333	1	1.656250
23.650000	1	1.844750
23.666667	1	2.047500
23.683333	1	2.262000
23.700000	1	2.486625
23.716667	1	2.719375
23.733333	1	2.957250
23.750000	1	3.195750
23.766667	1	3.432625
23.783333	1	3.662500
23.800000	1	3.880750
23.816667	1	4.082750
23.833333	1	4.264875
23.850000	1	4.422000
23.866667	1	4.550625
23.883333	1	4.648750
23.900000	1	4.713000
23.916667	1	4.742250
23.933333	1	4.735625
23.950000	1	4.694375
23.966667	1	4.618625
23.983333	1	4.510250
24.000000	1	4.373500
24.016667	1	4.211625
24.033333	1	4.028000
24.050000	1	3.828375
24.066667	1	3.615875
24.083333	1	3.395000
24.100000	1	3.168875
24.116667	1	2.943625
24.133333	1	2.720500
24.150000	1	2.503500
24.166667	1	2.294750
24.183333	1	2.095625
24.200000	1	1.908500
24.216667	1	1.734375
24.233333	1	1.573000
24.250000	1	1.426000
24.266667	1	1.291875
24.283333	1	1.171000
24.300000	1	1.062375
24.316667	1	0.965250
24.333333	1	0.879375
24.350000	1	0.803875
24.366667	1	0.737875
24.383333	1	0.680750
24.400000	1	0.631375
24.416667	1	0.587875
24.433333	1	0.551625
24.450000	1	0.520875
24.466667	1	0.495250
24.483333	1	0.473250
24.500000	1	0.454625
24.516667	1	0.439250
24.533333	1	0.426375
24.550000	1	0.416000
24.566667	1	0.406875
24.583333	1	0.398500
24.600000	1	0.390625
24.616667	1	0.384250
24.633333	1	0.378125
24.650000	1	0.372500
24.666667	1	0.367000
24.683333	1	0.360875
24.700000	1	0.354875
24.716667	1	0.348375
24.733333	1	0.341375
24.750000	1	0.334500
24.766667	1	0.327250
24.783333	1	0.319625
24.800000	1	0.312125
24.816667	1	0.304875
24.833333	1	0.297250
24.850000	1	0.290250
24.866667	1	0.281875
24.883333	1	0.274500
24.900000	1	0.266375
24.916667	1	0.258875
24.933333	1	0.252000
24.950000	1	0.245500
24.966667	1	0.238375
24.983333	1	0.231750
25.000000	1	0.225000
25.016667	1	0.218000
25.033333	1	0.211625
25.050000	1	0.206000
25.066667	1	0.200250
25.083333	1	0.193875
25.100000	1	0.188375
25.116667	1	0.183125
25.133333	1	0.178125
25.150000	1	0.173250
25.166667	1	0.168500
25.183333	1	0.163750
25.200000	1	0.159000
25.216667	1	0.154875
25.233333	1	0.151125
25.250000	1	0.146375
25.266667	1	0.143125
25.283333	1	0.139875
25.300000	1	0.136875
25.316667	1	0.133875
25.333333	1	0.130500
25.350000	1	0.127375
25.366667	1	0.124500
25.383333	1	0.122750
25.400000	1	0.120875
25.416667	1	0.119750
25.433333	1	0.118500
25.450000	1	0.117250
25.466667	1	0.116250
25.483333	1	0.115875
25.500000	1	0.115750
25.516667	1	0.115750
25.533333	1	0.115500
25.550000	1	0.115875
25.566667	1	0.116250
25.583333	1	0.116750
25.600000	1	0.117625
25.616667	1	0.118750
25.633333	1	0.119750
25.650000	1	0.121375
25.666667	1	0.122750
25.683333	1	0.124375
25.700000	1	0.126250
25.716667	1	0.128000
25.733333	1	0.129750
25.750000	1	0.131500
25.766667	1	0.133500
25.783333	1	0.136000
25.800000	1	0.138500
25.816667	1	0.141750
25.833333	1	0.145375
25.850000	1	0.149125
25.866667	1	0.153125
25.883333	1	0.157000
25.900000	1	0.160500
25.916667	1	0.165250
25.933333	1	0.169750
25.950000	1	0.174500
25.966667	1	0.179250
25.983333	1	0.184375
26.000000	1	0.189250
26.016667	1	0.194375
26.033333	1	0.200375
26.050000	1	0.206500
26.066667	1	0.212500
26.083333	1	0.218625
26.100000	1	0.224875
26.116667	1	0.231750
26.133333	1	0.237875
26.150000	1	0.242750
26.166667	1	0.248000
26.183333	1	0.253125
26.200000	1	0.257875
26.216667	1	0.262875
26.233333	1	0.267375
26.250000	1	0.271750
26.266667	1	0.275125
26.283333	1	0.278000
26.300000	1	0.280875
26.316667	1	0.283375
26.333333	1	0.284625
26.350000	1	0.286625
26.366667	1	0.287375
26.383333	1	0.287125
26.400000	1	0.286875
26.416667	1	0.286375
26.433333	1	0.285125
26.450000	1	0.283875
26.466667	1	0.282500
26.483333	1	0.281250
26.500000	1	0.279500
26.516667	1	0.277500
26.533333	1	0.274625
26.550000	1	0.272000
26.566667	1	0.269875
26.583333	1	0.266875
26.600000	1	0.264375
26.616667	1	0.261250
26.633333	1	0.259250
26.650000	1	0.256250
26.666667	1	0.254000
26.683333	1	0.251000
26.700000	1	0.249375
26.716667	1	0.247625
26.733333	1	0.245500
26.750000	1	0.243750
26.766667	1	0.241625
26.783333	1	0.240250
26.800000	1	0.238625
26.816667	1	0.237375
26.833333	1	0.236625
26.850000	1	0.235625
26.866667	1	0.235000
26.883333	1	0.234375
26.900000	1	0.234000
26.916667	1	0.234375
26.933333	1	0.235250
26.950000	1	0.235750
26.966667	1	0.236250
26.983333	1	0.237375
27.000000	1	0.238750
27.016667	1	0.240000
27.033333	1	0.242250
27.050000	1	0.245500
27.066667	1	0.249000
27.083333	1	0.253875
27.100000	1	0.259625
27.116667	1	0.265875
27.133333	1	0.272625
27.150000	1	0.280125
27.166667	1	0.290125
27.183333	1	0.301750
27.200000	1	0.315500
27.216667	1	0.331125
27.233333	1	0.349375
27.250000	1	0.369500
27.266667	1	0.394375
27.283333	1	0.422000
27.300000	1	0.453625
27.316667	1	0.489375
27.333333	1	0.529375
27.350000	1	0.575250
27.366667	1	0.627500
27.383333	1	0.685875
27.400000	1	0.750250
27.416667	1	0.822375
27.433333	1	0.902000
27.450000	1	0.989250
27.466667	1	1.085375
27.483333	1	1.190125
27.500000	1	1.304000
27.516667	1	1.426375
27.533333	1	1.557000
27.550000	1	1.695875
27.566667	1	1.842375
27.583333	1	1.996000
27.600000	1	2.155250
27.616667	1	2.319625
27.633333	1	2.487750
27.650000	1	2.657500
27.666667	1	2.828500
27.683333	1	2.997250
27.700000	1	3.161875
27.716667	1	3.320500
27.733333	1	3.469500
27.750000	1	3.607750
27.766667	1	3.732500
27.783333	1	3.841250
27.800000	1	3.933250
27.816667	1	4.005000
27.833333	1	4.056000
27.850000	1	4.085000
27.866667	1	4.091250
27.883333	1	4.073125
27.900000	1	4.031500
27.916667	1	3.967500
27.933333	1	3.881125
27.950000	1	3.775125
27.966667	1	3.651250
27.983333	1	3.511125
28.000000	1	3.357250
28.016667	1	3.191625
28.033333	1	3.017750
28.050000	1	2.838250
28.066667	1	2.654375
28.083333	1	2.471250
28.100000	1	2.289625
28.116667	1	2.112500
28.133333	1	1.940750
28.150000	1	1.775875
28.166667	1	1.619875
28.183333	1	1.473500
28.200000	1	1.337750
28.216667	1	1.212875
28.233333	1	1.098625
28.250000	1	0.994250
28.266667	1	0.900750
28.283333	1	0.817250
28.300000	1	0.742875
28.316667	1	0.677000
28.333333	1	0.619500
28.350000	1	0.570000
28.366667	1	0.527250
28.383333	1	0.491250
28.400000	1	0.460750
28.416667	1	0.436375
28.433333	1	0.416750
28.450000	1	0.401375
28.466667	1	0.389750
28.483333	1	0.380875
28.500000	1	0.375375
28.516667	1	0.372625
28.533333	1	0.371625
28.550000	1	0.372250
28.566667	1	0.375500
28.583333	1	0.379625
28.600000	1	0.385500
28.616667	1	0.392500
28.633333	1	0.400250
28.650000	1	0.408625
28.666667	1	0.417000
28.683333	1	0.425500
28.700000	1	0.434375
28.716667	1	0.442500
28.733333	1	0.451500
28.750000	1	0.459250
28.766667	1	0.466625
28.783333	1	0.473875
28.800000	1	0.480125
28.816667	1	0.486000
28.833333	1	0.490875
28.850000	1	0.495000
28.866667	1	0.498250
28.883333	1	0.500250
28.900000	1	0.501875
28.916667	1	0.502375
28.933333	1	0.501000
28.950000	1	0.499625
28.966667	1	0.496375
28.983333	1	0.492625
29.000000	1	0.487625
29.016667	1	0.481625
29.033333	1	0.475000
29.050000	1	0.467125
29.066667	1	0.458750
29.083333	1	0.449375
29.100000	1	0.439000
29.116667	1	0.427875
29.133333	1	0.416375
29.150000	1	0.404375
29.166667	1	0.392125
29.183333	1	0.379875
29.200000	1	0.367375
29.216667	1	0.354500
29.233333	1	0.341750
29.250000	1	0.328250
29.266667	1	0.314875
29.283333	1	0.301625
29.300000	1	0.288625
29.316667	1	0.275875
29.333333	1	0.263500
29.350000	1	0.251250
29.366667	1	0.238750
29.383333	1	0.227750
29.400000	1	0.217375
29.416667	1	0.207125
29.433333	1	0.196625
29.450000	1	0.187250
29.466667	1	0.177875
29.483333	1	0.169750
29.500000	1	0.161625
29.516667	1	0.154250
29.533333	1	0.147125
29.550000	1	0.140375
29.566667	1	0.134500
29.583333	1	0.128875
29.600000	1	0.124250
29.616667	1	0.119750
29.633333	1	0.116000
29.650000	1	0.112125
29.666667	1	0.109250
29.683333	1	0.106250
29.700000	1	0.103750
29.716667	1	0.102000
29.733333	1	0.100000
29.750000	1	0.098250
29.766667	1	0.096500
29.783333	1	0.095000
29.800000	1	0.093625
29.816667	1	0.092875
29.833333	1	0.091875
29.850000	1	0.090625
29.866667	1	0.090250
29.883333	1	0.089375
29.900000	1	0.088250
29.916667	1	0.086250
29.933333	1	0.084875
29.950000	1	0.084000
29.966667	1	0.082125
29.983333	1	0.080375
30.000000	1	0.079375
30.016667	1	0.076875
30.033333	1	0.075375
30.050000	1	0.073000
30.066667	1	0.071250
30.083333	1	0.068250
30.100000	1	0.066125
30.116667	1	0.063875
30.133333	1	0.061000
30.150000	1	0.058375
30.166667	1	0.056750
30.183333	1	0.054375
30.200000	1	0.052625
30.216667	1	0.050625
30.233333	1	0.048500
30.250000	1	0.047000
30.266667	1	0.045000
30.283333	1	0.044250
30.300000	1	0.043500
30.316667	1	0.042750
30.333333	1	0.042875
30.350000	1	0.043000
30.366667	1	0.043375
30.383333	1	0.044500
30.400000	1	0.045750
30.416667	1	0.048250
30.433333	1	0.050875
30.450000	1	0.053625
30.466667	1	0.056500
30.483333	1	0.060125
30.500000	1	0.063875
30.516667	1	0.068500
30.533333	1	0.073250
30.550000	1	0.079000
30.566667	1	0.084625
30.583333	1	0.091250
30.600000	1	0.099125
30.616667	1	0.107625
30.633333	1	0.117375
30.650000	1	0.128250
30.666667	1	0.139750
30.683333	1	0.152125
30.700000	1	0.166750
30.716667	1	0.182375
30.733333	1	0.200625
30.750000	1	0.220625
30.766667	1	0.243750
30.783333	1	0.269375
30.800000	1	0.298625
30.816667	1	0.332250
30.833333	1	0.371000
30.850000	1	0.413875
30.866667	1	0.462875
30.883333	1	0.518125
30.900000	1	0.579875
30.916667	1	0.650500
30.933333	1	0.729625
30.950000	1	0.818625
30.966667	1	0.917625
30.983333	1	1.028000
31.000000	1	1.151125
31.016667	1	1.287250
31.033333	1	1.437500
31.050000	1	1.600875
31.066667	1	1.779875
31.083333	1	1.974875
31.100000	1	2.185000
31.116667	1	2.411000
31.133333	1	2.652750
31.150000	1	2.909625
31.166667	1	3.180375
31.183333	1	3.464375
31.200000	1	3.760000
31.216667	1	4.066125
31.233333	1	4.380000
31.250000	1	4.699250
31.266667	1	5.020375
31.283333	1	5.341750
31.300000	1	5.658750
31.316667	1	5.969375
31.333333	1	6.267750
31.350000	1	6.552500
31.366667	1	6.819500
31.383333	1	7.065375
31.400000	1	7.286500
31.416667	1	7.481125
31.433333	1	7.644750
31.450000	1	7.775875
31.466667	1	7.872625
31.483333	1	7.933875
31.500000	1	7.959500
31.516667	1	7.948250
31.533333	1	7.901625
31.550000	1	7.819875
31.566667	1	7.705125
31.583333	1	7.557875
31.600000	1	7.382125
31.616667	1	7.178625
31.633333	1	6.951750
31.650000	1	6.703000
31.666667	1	6.438250
31.683333	1	6.158625
31.700000	1	5.867500
31.716667	1	5.570250
31.733333	1	5.267875
31.750000	1	4.964625
31.766667	1	4.661875
31.783333	1	4.363250
31.800000	1	4.069500
31.816667	1	3.784375
31.833333	1	3.507750
31.850000	1	3.242375
31.866667	1	2.988375
31.883333	1	2.747125
31.900000	1	2.518875
31.916667	1	2.304625
31.933333	1	2.103875
31.950000	1	1.917000
31.966667	1	1.743375
31.983333	1	1.582125
32.000000	1	1.433375
32.016667	1	1.297250
32.033333	1	1.172250
32.050000	1	1.057500
32.066667	1	0.954000
32.083333	1	0.859750
32.100000	1	0.773875
32.116667	1	0.696000
32.133333	1	0.626250
32.150000	1	0.563375
32.166667	1	0.506625
32.183333	1	0.455375
32.200000	1	0.409750
32.216667	1	0.368625
32.233333	1	0.331750
32.250000	1	0.298750
32.266667	1	0.268500
32.283333	1	0.242500
32.300000	1	0.218500
32.316667	1	0.196750
32.333333	1	0.177375
32.350000	1	0.160500
32.366667	1	0.145625
32.383333	1	0.131375
32.400000	1	0.119375
32.416667	1	0.107500
32.433333	1	0.097250
32.450000	1	0.087875
32.466667	1	0.079125
32.483333	1	0.072000
32.500000	1	0.065000
32.516667	1	0.058375
32.533333	1	0.051750
32.550000	1	0.045750
32.566667	1	0.040375
32.583333	1	0.035500
32.600000	1	0.031125
32.616667	1	0.027125
32.633333	1	0.023500
32.650000	1	0.020125
32.666667	1	0.017250
32.683333	1	0.013250
32.700000	1	0.010375
32.716667	1	0.007750
32.733333	1	0.005375
32.750000	1	0.003375
32.766667	1	0.000750
32.783333	1	-0.000500
32.800000	1	-0.001375
32.816667	1	-0.002250
32.833333	1	-0.003000
32.850000	1	-0.004125
32.866667	1	-0.005125
32.883333	1	-0.005625
32.900000	1	-0.004875
32.916667	1	-0.004375
32.933333	1	-0.003875
32.950000	1	-0.003375
32.966667	1	-0.002750
32.983333	1	-0.002000
33.000000	1	-0.001500
33.016667	1	0.000500
33.033333	1	0.002250
33.050000	1	0.004250
33.066667	1	0.005625
33.083333	1	0.007875
33.100000	1	0.010500
33.116667	1	0.012875
33.133333	1	0.016000
33.150000	1	0.018750
33.166667	1	0.021625
33.183333	1	0.024750
33.200000	1	0.027875
33.216667	1	0.031000
33.233333	1	0.034500
33.250000	1	0.038125
33.266667	1	0.041875
33.283333	1	0.045375
33.300000	1	0.049125
33.316667	1	0.053625
33.333333	1	0.057750
33.350000	1	0.061250
33.366667	1	0.066000
33.383333	1	0.070500
33.400000	1	0.075375
33.416667	1	0.080000
33.433333	1	0.085250
33.450000	1	0.090500
33.466667	1	0.096375
33.483333	1	0.102500
33.500000	1	0.108625
33.516667	1	0.115250
33.533333	1	0.122625
33.550000	1	0.129125
33.566667	1	0.137125
33.583333	1	0.145500
33.600000	1	0.153875
33.616667	1	0.162375
33.633333	1	0.172250
33.650000	1	0.181500
33.666667	1	0.191375
33.683333	1	0.201500
33.700000	1	0.212500
33.716667	1	0.223875
33.733333	1	0.235625
33.750000	1	0.247000
33.766667	1	0.258875
33.783333	1	0.271375
33.800000	1	0.283500
33.816667	1	0.296250
33.833333	1	0.308750
33.850000	1	0.320500
33.866667	1	0.332000
33.883333	1	0.343125
33.900000	1	0.354000
33.916667	1	0.364250
33.933333	1	0.374000
33.950000	1	0.382375
33.966667	1	0.390875
33.983333	1	0.397750
34.000000	1	0.403875
34.016667	1	0.408500
34.033333	1	0.411500
34.050000	1	0.413125
34.066667	1	0.414000
34.083333	1	0.413125
34.100000	1	0.411500
34.116667	1	0.408250
34.133333	1	0.404250
34.150000	1	0.398625
34.166667	1	0.392125
34.183333	1	0.384000
34.200000	1	0.376000
34.216667	1	0.366750
34.233333	1	0.356875
34.250000	1	0.346250
34.266667	1	0.335875
34.283333	1	0.325000
34.300000	1	0.314375
34.316667	1	0.303500
34.333333	1	0.292375
34.350000	1	0.282000
34.366667	1	0.271375
34.383333	1	0.262000
34.400000	1	0.251625
34.416667	1	0.242500
34.433333	1	0.233875
34.450000	1	0.225875
34.466667	1	0.218625
34.483333	1	0.211875
34.500000	1	0.205750
34.516667	1	0.200250
34.533333	1	0.195375
34.550000	1	0.190375
34.566667	1	0.185875
34.583333	1	0.182500
34.600000	1	0.179000
34.616667	1	0.176500
34.633333	1	0.174000
34.650000	1	0.171875
34.666667	1	0.169875
34.683333	1	0.168375
34.700000	1	0.166750
34.716667	1	0.165000
34.733333	1	0.164000
34.750000	1	0.163000
34.766667	1	0.162000
34.783333	1	0.161125
34.800000	1	0.160500
34.816667	1	0.159125
34.833333	1	0.158625
34.850000	1	0.157750
34.866667	1	0.157375
34.883333	1	0.157125
34.900000	1	0.156375
34.916667	1	0.156625
34.933333	1	0.156125
34.950000	1	0.155375
34.966667	1	0.155250
34.983333	1	0.155125
35.000000	1	0.154625
35.016667	1	0.154250
35.033333	1	0.153375
35.050000	1	0.152875
35.066667	1	0.152375
35.083333	1	0.151750
35.100000	1	0.150875
35.116667	1	0.149500
35.133333	1	0.147875
35.150000	1	0.146875
35.166667	1	0.145250
35.183333	1	0.143750
35.200000	1	0.141625
35.216667	1	0.140000
35.233333	1	0.138250
35.250000	1	0.135875
35.266667	1	0.133875
35.283333	1	0.131500
35.300000	1	0.128625
35.316667	1	0.126875
35.333333	1	0.124625
35.350000	1	0.122250
35.366667	1	0.119125
35.383333	1	0.116625
35.400000	1	0.114125
35.416667	1	0.111625
35.433333	1	0.108500
35.450000	1	0.106250
35.466667	1	0.103500
35.483333	1	0.100750
35.500000	1	0.098750
35.516667	1	0.096375
35.533333	1	0.094625
35.550000	1	0.092375
35.566667	1	0.091250
35.583333	1	0.089500
35.600000	1	0.087500
35.616667	1	0.085375
35.633333	1	0.084250
35.650000	1	0.082625
35.666667	1	0.081000
35.683333	1	0.080000
35.700000	1	0.078625
35.716667	1	0.078125
35.733333	1	0.078250
35.750000	1	0.078250
35.766667	1	0.078125
35.783333	1	0.078625
35.800000	1	0.079500
35.816667	1	0.079500
35.833333	1	0.080375
35.850000	1	0.081000
35.866667	1	0.081500
35.883333	1	0.082875
35.900000	1	0.084125
35.916667	1	0.085125
35.933333	1	0.086250
35.950000	1	0.088125
35.966667	1	0.089000
35.983333	1	0.090000
36.000000	1	0.091625
36.016667	1	0.092625
36.033333	1	0.093875
36.050000	1	0.095000
36.066667	1	0.096500
36.083333	1	0.098125
36.100000	1	0.099750
36.116667	1	0.101250
36.133333	1	0.103375
36.150000	1	0.105500
36.166667	1	0.107750
36.183333	1	0.110000
36.200000	1	0.112375
36.216667	1	0.114375
36.233333	1	0.116625
36.250000	1	0.118875
36.266667	1	0.121000
36.283333	1	0.122750
36.300000	1	0.125000
36.316667	1	0.127500
36.333333	1	0.130375
36.350000	1	0.132750
36.366667	1	0.135000
36.383333	1	0.136375
36.400000	1	0.138125
36.416667	1	0.139375
36.433333	1	0.140000
36.450000	1	0.141125
36.466667	1	0.142500
36.483333	1	0.143000
36.500000	1	0.142750
36.516667	1	0.142875
36.533333	1	0.142375
36.550000	1	0.141625
36.566667	1	0.141000
36.583333	1	0.139625
36.600000	1	0.137375
36.616667	1	0.136250
36.633333	1	0.134625
36.650000	1	0.133000
36.666667	1	0.130125
36.683333	1	0.127625
36.700000	1	0.125125
36.716667	1	0.122375
36.733333	1	0.119875
36.750000	1	0.117250
36.766667	1	0.114625
36.783333	1	0.110875
36.800000	1	0.108500
36.816667	1	0.106000
36.833333	1	0.103625
36.850000	1	0.100000
36.866667	1	0.097750
36.883333	1	0.095750
36.900000	1	0.093375
36.916667	1	0.091375
36.933333	1	0.089000
36.950000	1	0.087000
36.966667	1	0.084375
36.983333	1	0.082250
37.000000	1	0.080750
37.016667	1	0.078500
37.033333	1	0.076625
37.050000	1	0.074750
37.066667	1	0.073125
37.083333	1	0.072000
37.100000	1	0.070250
37.116667	1	0.068375
37.133333	1	0.066625
37.150000	1	0.064750
37.166667	1	0.063375
37.183333	1	0.062000
37.200000	1	0.060750
37.216667	1	0.059375
37.233333	1	0.057625
37.250000	1	0.056500
37.266667	1	0.056000
37.283333	1	0.055000
37.300000	1	0.053125
37.316667	1	0.051625
37.333333	1	0.049750
37.350000	1	0.048375
37.366667	1	0.046875
37.383333	1	0.046125
37.400000	1	0.045000
37.416667	1	0.044000
37.433333	1	0.043375
37.450000	1	0.041875
37.466667	1	0.041000
37.483333	1	0.040250
37.500000	1	0.039125
37.516667	1	0.037750
37.533333	1	0.036125
37.550000	1	0.035125
37.566667	1	0.034375
37.583333	1	0.032625
37.600000	1	0.031125
37.616667	1	0.030000
37.633333	1	0.028500
37.650000	1	0.027125
37.666667	1	0.026000
37.683333	1	0.024875
37.700000	1	0.023250
37.716667	1	0.021375
37.733333	1	0.020250
37.750000	1	0.018250
37.766667	1	0.016750
37.783333	1	0.014750
37.800000	1	0.012875
37.816667	1	0.011000
37.833333	1	0.009500
37.850000	1	0.007750
37.866667	1	0.006000
37.883333	1	0.004375
37.900000	1	0.003625
37.916667	1	0.002125
37.933333	1	0.001375
37.950000	1	-0.000125
37.966667	1	-0.001625
37.983333	1	-0.002750
38.000000	1	-0.004500
38.016667	1	-0.005375
38.033333	1	-0.006625
38.050000	1	-0.006750
38.066667	1	-0.007375
38.083333	1	-0.008250
38.100000	1	-0.009125
38.116667	1	-0.008375
38.133333	1	-0.008125
38.150000	1	-0.008500
38.166667	1	-0.008125
38.183333	1	-0.008000
38.200000	1	-0.008000
38.216667	1	-0.007375
38.233333	1	-0.007125
38.250000	1	-0.006875
38.266667	1	-0.006125
38.283333	1	-0.004875
38.300000	1	-0.003875
38.316667	1	-0.003500
38.333333	1	-0.002625
38.350000	1	-0.002250
38.366667	1	-0.001750
38.383333	1	-0.000625
38.400000	1	0.000000
38.416667	1	-0.000125
38.433333	1	0.000500
38.450000	1	0.001500
38.466667	1	0.002500
38.483333	1	0.002625
38.500000	1	0.003250
38.516667	1	0.003875
38.533333	1	0.004625
38.550000	1	0.004250
38.566667	1	0.004750
38.583333	1	0.005375
38.600000	1	0.005375
38.616667	1	0.005375
38.633333	1	0.005750
38.650000	1	0.005750
38.666667	1	0.005875
38.683333	1	0.006000
38.700000	1	0.006125
38.716667	1	0.005375
38.733333	1	0.004750
38.750000	1	0.004250
38.766667	1	0.004250
38.783333	1	0.003875
38.800000	1	0.002875
38.816667	1	0.001500
38.833333	1	0.001000
38.850000	1	0.000500
38.866667	1	-0.000250
38.883333	1	-0.002250
38.900000	1	-0.004000
38.916667	1	-0.005125
38.933333	1	-0.006625
38.950000	1	-0.009125
38.966667	1	-0.011125
38.983333	1	-0.013500
39.000000	1	-0.015625
39.016667	1	-0.017875
39.033333	1	-0.020625
39.050000	1	-0.023125
39.066667	1	-0.025625
39.083333	1	-0.027625
39.100000	1	-0.030625
39.116667	1	-0.033625
39.133333	1	-0.036500
39.150000	1	-0.039375
39.166667	1	-0.042250
39.183333	1	-0.045125
39.200000	1	-0.048500
39.216667	1	-0.051625
39.233333	1	-0.054375
39.250000	1	-0.056625
39.266667	1	-0.059000
39.283333	1	-0.061375
39.300000	1	-0.064000
39.316667	1	-0.066500
39.333333	1	-0.068875
39.350000	1	-0.071875
39.366667	1	-0.074375
39.383333	1	-0.076125
39.400000	1	-0.077625
39.416667	1	-0.078500
39.433333	1	-0.080875
39.450000	1	-0.082250
39.466667	1	-0.084125
39.483333	1	-0.085500
39.500000	1	-0.086875
39.516667	1	-0.088000
39.533333	1	-0.088750
39.550000	1	-0.090625
39.566667	1	-0.091750
39.583333	1	-0.092750
39.600000	1	-0.093625
39.616667	1	-0.094500
39.633333	1	-0.095250
39.650000	1	-0.096625
39.666667	1	-0.096875
39.683333	1	-0.097250
39.700000	1	-0.097500
39.716667	1	-0.097875
39.733333	1	-0.097875
39.750000	1	-0.098000
39.766667	1	-0.098250
39.783333	1	-0.098250
39.800000	1	-0.097750
39.816667	1	-0.096875
39.833333	1	-0.096500
39.850000	1	-0.096250
39.866667	1	-0.095625
39.883333	1	-0.094750
39.900000	1	-0.093750
39.916667	1	-0.093250
39.933333	1	-0.092125
39.950000	1	-0.090750
39.966667	1	-0.090250
39.983333	1	-0.088875
40.000000	1	-0.087750
