File Path	chrom://marshall/Chromeleon7/HPLC_Ultimate_3000/Users/markusar/20221226.seq/403.smp/RI_1.channel/RI_1.chm
Channel	RI_1

Injection Information:
Data Vault	Chromeleon7
Injection	fp2.3
Injection Number	12
Position	RB4
Comment	
Processing Method	
Instrument Method	std_method
Type	Unknown
Status	Finished
Injection Date	26.12.2022
Injection Time	23:41:14
Injection Volume (µl)	20.000
Dilution Factor	1.0000
Weight	1.0000

Chromatogram Data Information:
Time Min. (min)	0.000000
Time Max. (min)	40.000000
Data Points	2401
Detector	RI
Generating Data System	Chromeleon 7.2.5.9507
Exporting Data System	Chromeleon 7.2.5.0
Operator	Instrument Controller
Signal Quantity	Refractive 
Signal Unit	µRIU
Signal Min.	-0.085375
Signal Max.	99.426875
Channel	RI_1
Driver Name	RID520Driver.dll
Channel Type	Evaluation
Min. Step (s)	1
Max. Step (s)	1
Average Step (s)	1

Signal Parameter Information:
Signal Info	

Chromatogram Data:
Time (min)	Step (s)	Value (µRIU)
0.000000	n.a.	0.092375
0.016667	1	0.091375
0.033333	1	0.091125
0.050000	1	0.091750
0.066667	1	0.091875
0.083333	1	0.091125
0.100000	1	0.090625
0.116667	1	0.089500
0.133333	1	0.088750
0.150000	1	0.088375
0.166667	1	0.088375
0.183333	1	0.088000
0.200000	1	0.087000
0.216667	1	0.086000
0.233333	1	0.085375
0.250000	1	0.084875
0.266667	1	0.083625
0.283333	1	0.080875
0.300000	1	0.076875
0.316667	1	0.072875
0.333333	1	0.071000
0.350000	1	0.073750
0.366667	1	0.078500
0.383333	1	0.081875
0.400000	1	0.083875
0.416667	1	0.085125
0.433333	1	0.086000
0.450000	1	0.086250
0.466667	1	0.085000
0.483333	1	0.082125
0.500000	1	0.078125
0.516667	1	0.074000
0.533333	1	0.070750
0.550000	1	0.067250
0.566667	1	0.065250
0.583333	1	0.064125
0.600000	1	0.063000
0.616667	1	0.062000
0.633333	1	0.060375
0.650000	1	0.059375
0.666667	1	0.058250
0.683333	1	0.057375
0.700000	1	0.056625
0.716667	1	0.055625
0.733333	1	0.054875
0.750000	1	0.053625
0.766667	1	0.052375
0.783333	1	0.052000
0.800000	1	0.051125
0.816667	1	0.050125
0.833333	1	0.049000
0.850000	1	0.047625
0.866667	1	0.046375
0.883333	1	0.045375
0.900000	1	0.044875
0.916667	1	0.044250
0.933333	1	0.043375
0.950000	1	0.042250
0.966667	1	0.041000
0.983333	1	0.039750
1.000000	1	0.039250
1.016667	1	0.037500
1.033333	1	0.036250
1.050000	1	0.035000
1.066667	1	0.033250
1.083333	1	0.031375
1.100000	1	0.030375
1.116667	1	0.028500
1.133333	1	0.027375
1.150000	1	0.025750
1.166667	1	0.024875
1.183333	1	0.022875
1.200000	1	0.020625
1.216667	1	0.019250
1.233333	1	0.018000
1.250000	1	0.016500
1.266667	1	0.014250
1.283333	1	0.012500
1.300000	1	0.011125
1.316667	1	0.009125
1.333333	1	0.007250
1.350000	1	0.005750
1.366667	1	0.004375
1.383333	1	0.002500
1.400000	1	0.000875
1.416667	1	-0.001000
1.433333	1	-0.003000
1.450000	1	-0.005000
1.466667	1	-0.006625
1.483333	1	-0.008000
1.500000	1	-0.010375
1.516667	1	-0.012125
1.533333	1	-0.013875
1.550000	1	-0.015875
1.566667	1	-0.018000
1.583333	1	-0.020000
1.600000	1	-0.021375
1.616667	1	-0.023000
1.633333	1	-0.024750
1.650000	1	-0.026250
1.666667	1	-0.027500
1.683333	1	-0.028875
1.700000	1	-0.030750
1.716667	1	-0.032750
1.733333	1	-0.034250
1.750000	1	-0.035750
1.766667	1	-0.037500
1.783333	1	-0.039250
1.800000	1	-0.040250
1.816667	1	-0.041375
1.833333	1	-0.042875
1.850000	1	-0.044500
1.866667	1	-0.045500
1.883333	1	-0.046750
1.900000	1	-0.047875
1.916667	1	-0.049750
1.933333	1	-0.051375
1.950000	1	-0.052875
1.966667	1	-0.054875
1.983333	1	-0.056125
2.000000	1	-0.057250
2.016667	1	-0.058625
2.033333	1	-0.059875
2.050000	1	-0.060750
2.066667	1	-0.062500
2.083333	1	-0.063750
2.100000	1	-0.065375
2.116667	1	-0.066500
2.133333	1	-0.067875
2.150000	1	-0.070000
2.166667	1	-0.071125
2.183333	1	-0.072250
2.200000	1	-0.073750
2.216667	1	-0.075125
2.233333	1	-0.076250
2.250000	1	-0.077250
2.266667	1	-0.078625
2.283333	1	-0.079375
2.300000	1	-0.080125
2.316667	1	-0.081125
2.333333	1	-0.082250
2.350000	1	-0.083125
2.366667	1	-0.084000
2.383333	1	-0.084250
2.400000	1	-0.084250
2.416667	1	-0.084625
2.433333	1	-0.085125
2.450000	1	-0.085375
2.466667	1	-0.085000
2.483333	1	-0.084875
2.500000	1	-0.084750
2.516667	1	-0.084375
2.533333	1	-0.084375
2.550000	1	-0.083625
2.566667	1	-0.082625
2.583333	1	-0.081875
2.600000	1	-0.080750
2.616667	1	-0.080000
2.633333	1	-0.079000
2.650000	1	-0.078375
2.666667	1	-0.077625
2.683333	1	-0.076500
2.700000	1	-0.076000
2.716667	1	-0.075125
2.733333	1	-0.074000
2.750000	1	-0.072250
2.766667	1	-0.070750
2.783333	1	-0.069375
2.800000	1	-0.067750
2.816667	1	-0.065875
2.833333	1	-0.064375
2.850000	1	-0.062875
2.866667	1	-0.062125
2.883333	1	-0.060875
2.900000	1	-0.059125
2.916667	1	-0.057875
2.933333	1	-0.056875
2.950000	1	-0.055250
2.966667	1	-0.053625
2.983333	1	-0.051875
3.000000	1	-0.050375
3.016667	1	-0.048625
3.033333	1	-0.046625
3.050000	1	-0.045625
3.066667	1	-0.044500
3.083333	1	-0.042875
3.100000	1	-0.041625
3.116667	1	-0.040375
3.133333	1	-0.040000
3.150000	1	-0.039125
3.166667	1	-0.037750
3.183333	1	-0.036875
3.200000	1	-0.035375
3.216667	1	-0.034250
3.233333	1	-0.033000
3.250000	1	-0.032875
3.266667	1	-0.032000
3.283333	1	-0.030750
3.300000	1	-0.029750
3.316667	1	-0.028750
3.333333	1	-0.027625
3.350000	1	-0.027000
3.366667	1	-0.026125
3.383333	1	-0.025375
3.400000	1	-0.024500
3.416667	1	-0.023375
3.433333	1	-0.022250
3.450000	1	-0.021125
3.466667	1	-0.020375
3.483333	1	-0.019750
3.500000	1	-0.019125
3.516667	1	-0.018250
3.533333	1	-0.017125
3.550000	1	-0.016625
3.566667	1	-0.016125
3.583333	1	-0.015375
3.600000	1	-0.014500
3.616667	1	-0.013000
3.633333	1	-0.012250
3.650000	1	-0.011875
3.666667	1	-0.011125
3.683333	1	-0.010500
3.700000	1	-0.009750
3.716667	1	-0.008625
3.733333	1	-0.008125
3.750000	1	-0.007375
3.766667	1	-0.006000
3.783333	1	-0.005125
3.800000	1	-0.004500
3.816667	1	-0.003750
3.833333	1	-0.003125
3.850000	1	-0.002625
3.866667	1	-0.001625
3.883333	1	-0.000750
3.900000	1	-0.000750
3.916667	1	0.000250
3.933333	1	0.001125
3.950000	1	0.001250
3.966667	1	0.001750
3.983333	1	0.002125
4.000000	1	0.003000
4.016667	1	0.003750
4.033333	1	0.004375
4.050000	1	0.004375
4.066667	1	0.005000
4.083333	1	0.006000
4.100000	1	0.006875
4.116667	1	0.008250
4.133333	1	0.008625
4.150000	1	0.009250
4.166667	1	0.010000
4.183333	1	0.010875
4.200000	1	0.011750
4.216667	1	0.012750
4.233333	1	0.013500
4.250000	1	0.014375
4.266667	1	0.014750
4.283333	1	0.015125
4.300000	1	0.015250
4.316667	1	0.016125
4.333333	1	0.016750
4.350000	1	0.017375
4.366667	1	0.017750
4.383333	1	0.017875
4.400000	1	0.018250
4.416667	1	0.018250
4.433333	1	0.018125
4.450000	1	0.018250
4.466667	1	0.018125
4.483333	1	0.018125
4.500000	1	0.017750
4.516667	1	0.017500
4.533333	1	0.016750
4.550000	1	0.016625
4.566667	1	0.016500
4.583333	1	0.015125
4.600000	1	0.014125
4.616667	1	0.013125
4.633333	1	0.012375
4.650000	1	0.011500
4.666667	1	0.010750
4.683333	1	0.010125
4.700000	1	0.009125
4.716667	1	0.008625
4.733333	1	0.007375
4.750000	1	0.006750
4.766667	1	0.005500
4.783333	1	0.005125
4.800000	1	0.004000
4.816667	1	0.003125
4.833333	1	0.002375
4.850000	1	0.001625
4.866667	1	0.000750
4.883333	1	0.000250
4.900000	1	-0.000500
4.916667	1	-0.001000
4.933333	1	-0.001500
4.950000	1	-0.001625
4.966667	1	-0.001750
4.983333	1	-0.002250
5.000000	1	-0.003000
5.016667	1	-0.003625
5.033333	1	-0.003750
5.050000	1	-0.003375
5.066667	1	-0.003500
5.083333	1	-0.003000
5.100000	1	-0.002000
5.116667	1	-0.002000
5.133333	1	-0.001625
5.150000	1	-0.001250
5.166667	1	-0.000875
5.183333	1	-0.000500
5.200000	1	0.000000
5.216667	1	0.000750
5.233333	1	0.001875
5.250000	1	0.003000
5.266667	1	0.003625
5.283333	1	0.003875
5.300000	1	0.004875
5.316667	1	0.005750
5.333333	1	0.007000
5.350000	1	0.008000
5.366667	1	0.009125
5.383333	1	0.009875
5.400000	1	0.011375
5.416667	1	0.012500
5.433333	1	0.014250
5.450000	1	0.015000
5.466667	1	0.017000
5.483333	1	0.018500
5.500000	1	0.019625
5.516667	1	0.020375
5.533333	1	0.021625
5.550000	1	0.023500
5.566667	1	0.024750
5.583333	1	0.026000
5.600000	1	0.026625
5.616667	1	0.028250
5.633333	1	0.029375
5.650000	1	0.031000
5.666667	1	0.032875
5.683333	1	0.034750
5.700000	1	0.037125
5.716667	1	0.039000
5.733333	1	0.040875
5.750000	1	0.042625
5.766667	1	0.044000
5.783333	1	0.045750
5.800000	1	0.047875
5.816667	1	0.050125
5.833333	1	0.052250
5.850000	1	0.054500
5.866667	1	0.056375
5.883333	1	0.058000
5.900000	1	0.060250
5.916667	1	0.061625
5.933333	1	0.063375
5.950000	1	0.065375
5.966667	1	0.067500
5.983333	1	0.069250
6.000000	1	0.071125
6.016667	1	0.072625
6.033333	1	0.074125
6.050000	1	0.075875
6.066667	1	0.076750
6.083333	1	0.078000
6.100000	1	0.079000
6.116667	1	0.080250
6.133333	1	0.081500
6.150000	1	0.082250
6.166667	1	0.083625
6.183333	1	0.084875
6.200000	1	0.085875
6.216667	1	0.086625
6.233333	1	0.086625
6.250000	1	0.087000
6.266667	1	0.087000
6.283333	1	0.087000
6.300000	1	0.086750
6.316667	1	0.087000
6.333333	1	0.087500
6.350000	1	0.087625
6.366667	1	0.087500
6.383333	1	0.087250
6.400000	1	0.087625
6.416667	1	0.087375
6.433333	1	0.087250
6.450000	1	0.087625
6.466667	1	0.087125
6.483333	1	0.087500
6.500000	1	0.087500
6.516667	1	0.087250
6.533333	1	0.087250
6.550000	1	0.087250
6.566667	1	0.087000
6.583333	1	0.087250
6.600000	1	0.087375
6.616667	1	0.087375
6.633333	1	0.087250
6.650000	1	0.087500
6.666667	1	0.088125
6.683333	1	0.089000
6.700000	1	0.089375
6.716667	1	0.089625
6.733333	1	0.090250
6.750000	1	0.091000
6.766667	1	0.091375
6.783333	1	0.091625
6.800000	1	0.091875
6.816667	1	0.093125
6.833333	1	0.094000
6.850000	1	0.094625
6.866667	1	0.095750
6.883333	1	0.096625
6.900000	1	0.098250
6.916667	1	0.099250
6.933333	1	0.100375
6.950000	1	0.101750
6.966667	1	0.103125
6.983333	1	0.104125
7.000000	1	0.105375
7.016667	1	0.107000
7.033333	1	0.108250
7.050000	1	0.110000
7.066667	1	0.111250
7.083333	1	0.113125
7.100000	1	0.115000
7.116667	1	0.116750
7.133333	1	0.118250
7.150000	1	0.119750
7.166667	1	0.121750
7.183333	1	0.123625
7.200000	1	0.126000
7.216667	1	0.128500
7.233333	1	0.130250
7.250000	1	0.132125
7.266667	1	0.133500
7.283333	1	0.135875
7.300000	1	0.138125
7.316667	1	0.140625
7.333333	1	0.143000
7.350000	1	0.144875
7.366667	1	0.146875
7.383333	1	0.149250
7.400000	1	0.151125
7.416667	1	0.152750
7.433333	1	0.154875
7.450000	1	0.156500
7.466667	1	0.158375
7.483333	1	0.160000
7.500000	1	0.161625
7.516667	1	0.163625
7.533333	1	0.164875
7.550000	1	0.165750
7.566667	1	0.166625
7.583333	1	0.167250
7.600000	1	0.168625
7.616667	1	0.169000
7.633333	1	0.169500
7.650000	1	0.170375
7.666667	1	0.170875
7.683333	1	0.171250
7.700000	1	0.170750
7.716667	1	0.170125
7.733333	1	0.169750
7.750000	1	0.169500
7.766667	1	0.169125
7.783333	1	0.169125
7.800000	1	0.168500
7.816667	1	0.168000
7.833333	1	0.166375
7.850000	1	0.165750
7.866667	1	0.163875
7.883333	1	0.162500
7.900000	1	0.160125
7.916667	1	0.158375
7.933333	1	0.157125
7.950000	1	0.155875
7.966667	1	0.153375
7.983333	1	0.152125
8.000000	1	0.150375
8.016667	1	0.148500
8.033333	1	0.146625
8.050000	1	0.144000
8.066667	1	0.141625
8.083333	1	0.139000
8.100000	1	0.136250
8.116667	1	0.133750
8.133333	1	0.131500
8.150000	1	0.129125
8.166667	1	0.126125
8.183333	1	0.122750
8.200000	1	0.120000
8.216667	1	0.116875
8.233333	1	0.114250
8.250000	1	0.111750
8.266667	1	0.108750
8.283333	1	0.105625
8.300000	1	0.103125
8.316667	1	0.100875
8.333333	1	0.098625
8.350000	1	0.096875
8.366667	1	0.095000
8.383333	1	0.091625
8.400000	1	0.089625
8.416667	1	0.087375
8.433333	1	0.085500
8.450000	1	0.083625
8.466667	1	0.082125
8.483333	1	0.080500
8.500000	1	0.079625
8.516667	1	0.078500
8.533333	1	0.077625
8.550000	1	0.076750
8.566667	1	0.076125
8.583333	1	0.075000
8.600000	1	0.074500
8.616667	1	0.074500
8.633333	1	0.074625
8.650000	1	0.074125
8.666667	1	0.074125
8.683333	1	0.074500
8.700000	1	0.075000
8.716667	1	0.075500
8.733333	1	0.075625
8.750000	1	0.076250
8.766667	1	0.077500
8.783333	1	0.078125
8.800000	1	0.079125
8.816667	1	0.079625
8.833333	1	0.080250
8.850000	1	0.081125
8.866667	1	0.082125
8.883333	1	0.083375
8.900000	1	0.084625
8.916667	1	0.085875
8.933333	1	0.087250
8.950000	1	0.089000
8.966667	1	0.090250
8.983333	1	0.091500
9.000000	1	0.093250
9.016667	1	0.095625
9.033333	1	0.097000
9.050000	1	0.098875
9.066667	1	0.100750
9.083333	1	0.102500
9.100000	1	0.105125
9.116667	1	0.106875
9.133333	1	0.109500
9.150000	1	0.111500
9.166667	1	0.114375
9.183333	1	0.116750
9.200000	1	0.119000
9.216667	1	0.121500
9.233333	1	0.124125
9.250000	1	0.127125
9.266667	1	0.129500
9.283333	1	0.133000
9.300000	1	0.136125
9.316667	1	0.139875
9.333333	1	0.144500
9.350000	1	0.148250
9.366667	1	0.151875
9.383333	1	0.156750
9.400000	1	0.162500
9.416667	1	0.167875
9.433333	1	0.174000
9.450000	1	0.180375
9.466667	1	0.187500
9.483333	1	0.195875
9.500000	1	0.204375
9.516667	1	0.215250
9.533333	1	0.227000
9.550000	1	0.240500
9.566667	1	0.255250
9.583333	1	0.272625
9.600000	1	0.291750
9.616667	1	0.313125
9.633333	1	0.338250
9.650000	1	0.365625
9.666667	1	0.395250
9.683333	1	0.428250
9.700000	1	0.463625
9.716667	1	0.503125
9.733333	1	0.547000
9.750000	1	0.595625
9.766667	1	0.648625
9.783333	1	0.704500
9.800000	1	0.756375
9.816667	1	0.793250
9.833333	1	0.800625
9.850000	1	0.768125
9.866667	1	0.698500
9.883333	1	0.613125
9.900000	1	0.552750
9.916667	1	0.575125
9.933333	1	0.740375
9.950000	1	1.106625
9.966667	1	1.724125
9.983333	1	2.633625
10.000000	1	3.869125
10.016667	1	5.458375
10.033333	1	7.426375
10.050000	1	9.787125
10.066667	1	12.553000
10.083333	1	15.730125
10.100000	1	19.315500
10.116667	1	23.294875
10.133333	1	27.643125
10.150000	1	32.324125
10.166667	1	37.293375
10.183333	1	42.498250
10.200000	1	47.878625
10.216667	1	53.374875
10.233333	1	58.924375
10.250000	1	64.459875
10.266667	1	69.916500
10.283333	1	75.219875
10.300000	1	80.285000
10.316667	1	85.007875
10.333333	1	89.270000
10.350000	1	92.942500
10.366667	1	95.898375
10.383333	1	98.021250
10.400000	1	99.218625
10.416667	1	99.426875
10.433333	1	98.608250
10.450000	1	96.758250
10.466667	1	93.894000
10.483333	1	90.060250
10.500000	1	85.324875
10.516667	1	79.781875
10.533333	1	73.549625
10.550000	1	66.779000
10.566667	1	59.670250
10.583333	1	52.479000
10.600000	1	45.505625
10.616667	1	39.047250
10.633333	1	33.335625
10.650000	1	28.484125
10.666667	1	24.486375
10.683333	1	21.262375
10.700000	1	18.697500
10.716667	1	16.673000
10.733333	1	15.079500
10.750000	1	13.824500
10.766667	1	12.833000
10.783333	1	12.046750
10.800000	1	11.419250
10.816667	1	10.913625
10.833333	1	10.501125
10.850000	1	10.156750
10.866667	1	9.861250
10.883333	1	9.596875
10.900000	1	9.349375
10.916667	1	9.106500
10.933333	1	8.859000
10.950000	1	8.600250
10.966667	1	8.325500
10.983333	1	8.031875
11.000000	1	7.718250
11.016667	1	7.387875
11.033333	1	7.043375
11.050000	1	6.691625
11.066667	1	6.339375
11.083333	1	5.994000
11.100000	1	5.664375
11.116667	1	5.355125
11.133333	1	5.071000
11.150000	1	4.814875
11.166667	1	4.587625
11.183333	1	4.388375
11.200000	1	4.216750
11.216667	1	4.069875
11.233333	1	3.945125
11.250000	1	3.840125
11.266667	1	3.752500
11.283333	1	3.680750
11.300000	1	3.623000
11.316667	1	3.577250
11.333333	1	3.543000
11.350000	1	3.517000
11.366667	1	3.500000
11.383333	1	3.489125
11.400000	1	3.482500
11.416667	1	3.476875
11.433333	1	3.471125
11.450000	1	3.463250
11.466667	1	3.451000
11.483333	1	3.432875
11.500000	1	3.407250
11.516667	1	3.374125
11.533333	1	3.332875
11.550000	1	3.284750
11.566667	1	3.229625
11.583333	1	3.168250
11.600000	1	3.102500
11.616667	1	3.033250
11.633333	1	2.961750
11.650000	1	2.890250
11.666667	1	2.818625
11.683333	1	2.748625
11.700000	1	2.679375
11.716667	1	2.613750
11.733333	1	2.551625
11.750000	1	2.493125
11.766667	1	2.438500
11.783333	1	2.387500
11.800000	1	2.340750
11.816667	1	2.297625
11.833333	1	2.258375
11.850000	1	2.222625
11.866667	1	2.189625
11.883333	1	2.159750
11.900000	1	2.132500
11.916667	1	2.107625
11.933333	1	2.083875
11.950000	1	2.063000
11.966667	1	2.044125
11.983333	1	2.027125
12.000000	1	2.011125
12.016667	1	1.997375
12.033333	1	1.986250
12.050000	1	1.977000
12.066667	1	1.971125
12.083333	1	1.970125
12.100000	1	1.973500
12.116667	1	1.983750
12.133333	1	2.002125
12.150000	1	2.029875
12.166667	1	2.069625
12.183333	1	2.121500
12.200000	1	2.188625
12.216667	1	2.273000
12.233333	1	2.378000
12.250000	1	2.506125
12.266667	1	2.660750
12.283333	1	2.844250
12.300000	1	3.060125
12.316667	1	3.311000
12.333333	1	3.598375
12.350000	1	3.923000
12.366667	1	4.284250
12.383333	1	4.681125
12.400000	1	5.112375
12.416667	1	5.573875
12.433333	1	6.064875
12.450000	1	6.583625
12.466667	1	7.129375
12.483333	1	7.699500
12.500000	1	8.292625
12.516667	1	8.906000
12.533333	1	9.536375
12.550000	1	10.180875
12.566667	1	10.833250
12.583333	1	11.488125
12.600000	1	12.138875
12.616667	1	12.777750
12.633333	1	13.396500
12.650000	1	13.990125
12.666667	1	14.550500
12.683333	1	15.071250
12.700000	1	15.545375
12.716667	1	15.968250
12.733333	1	16.336500
12.750000	1	16.646500
12.766667	1	16.897250
12.783333	1	17.088875
12.800000	1	17.221500
12.816667	1	17.296625
12.833333	1	17.317750
12.850000	1	17.290250
12.866667	1	17.217750
12.883333	1	17.107000
12.900000	1	16.962875
12.916667	1	16.791500
12.933333	1	16.598250
12.950000	1	16.388625
12.966667	1	16.164000
12.983333	1	15.927500
13.000000	1	15.679000
13.016667	1	15.420125
13.033333	1	15.152250
13.050000	1	14.876375
13.066667	1	14.594875
13.083333	1	14.308000
13.100000	1	14.019000
13.116667	1	13.729125
13.133333	1	13.441500
13.150000	1	13.156500
13.166667	1	12.877125
13.183333	1	12.603625
13.200000	1	12.337875
13.216667	1	12.079250
13.233333	1	11.828375
13.250000	1	11.584250
13.266667	1	11.346375
13.283333	1	11.115000
13.300000	1	10.888500
13.316667	1	10.667000
13.333333	1	10.449625
13.350000	1	10.235500
13.366667	1	10.024750
13.383333	1	9.816375
13.400000	1	9.610000
13.416667	1	9.404250
13.433333	1	9.199000
13.450000	1	8.992625
13.466667	1	8.783375
13.483333	1	8.567750
13.500000	1	8.343625
13.516667	1	8.107625
13.533333	1	7.857625
13.550000	1	7.590375
13.566667	1	7.304250
13.583333	1	6.999000
13.600000	1	6.674500
13.616667	1	6.333125
13.633333	1	5.980375
13.650000	1	5.625625
13.666667	1	5.284750
13.683333	1	4.977375
13.700000	1	4.716125
13.716667	1	4.503625
13.733333	1	4.335750
13.750000	1	4.203750
13.766667	1	4.100500
13.783333	1	4.017625
13.800000	1	3.950000
13.816667	1	3.894125
13.833333	1	3.847000
13.850000	1	3.807375
13.866667	1	3.772750
13.883333	1	3.740875
13.900000	1	3.710375
13.916667	1	3.680375
13.933333	1	3.649000
13.950000	1	3.613875
13.966667	1	3.574875
13.983333	1	3.529375
14.000000	1	3.476750
14.016667	1	3.416750
14.033333	1	3.349250
14.050000	1	3.273750
14.066667	1	3.191375
14.083333	1	3.102500
14.100000	1	3.009500
14.116667	1	2.913875
14.133333	1	2.817625
14.150000	1	2.723625
14.166667	1	2.633750
14.183333	1	2.550125
14.200000	1	2.476250
14.216667	1	2.411125
14.233333	1	2.356875
14.250000	1	2.312625
14.266667	1	2.277250
14.283333	1	2.250000
14.300000	1	2.229750
14.316667	1	2.215625
14.333333	1	2.205500
14.350000	1	2.199250
14.366667	1	2.197375
14.383333	1	2.198000
14.400000	1	2.202375
14.416667	1	2.209250
14.433333	1	2.219875
14.450000	1	2.234500
14.466667	1	2.254375
14.483333	1	2.281125
14.500000	1	2.318375
14.516667	1	2.369250
14.533333	1	2.437875
14.550000	1	2.531125
14.566667	1	2.656500
14.583333	1	2.820875
14.600000	1	3.031250
14.616667	1	3.294125
14.633333	1	3.615750
14.650000	1	3.998500
14.666667	1	4.444125
14.683333	1	4.948000
14.700000	1	5.505625
14.716667	1	6.109875
14.733333	1	6.752250
14.750000	1	7.425250
14.766667	1	8.122250
14.783333	1	8.838125
14.800000	1	9.570125
14.816667	1	10.320500
14.833333	1	11.089500
14.850000	1	11.878375
14.866667	1	12.688750
14.883333	1	13.519375
14.900000	1	14.362750
14.916667	1	15.209750
14.933333	1	16.047750
14.950000	1	16.861000
14.966667	1	17.630375
14.983333	1	18.338750
15.000000	1	18.970000
15.016667	1	19.509625
15.033333	1	19.944625
15.050000	1	20.264125
15.066667	1	20.458000
15.083333	1	20.520750
15.100000	1	20.450000
15.116667	1	20.245250
15.133333	1	19.908875
15.150000	1	19.446000
15.166667	1	18.865000
15.183333	1	18.178625
15.200000	1	17.401750
15.216667	1	16.550125
15.233333	1	15.641875
15.250000	1	14.696750
15.266667	1	13.731500
15.283333	1	12.765500
15.300000	1	11.815000
15.316667	1	10.895250
15.333333	1	10.017750
15.350000	1	9.192375
15.366667	1	8.425625
15.383333	1	7.722375
15.400000	1	7.083500
15.416667	1	6.508375
15.433333	1	5.994625
15.450000	1	5.540625
15.466667	1	5.139875
15.483333	1	4.790375
15.500000	1	4.487500
15.516667	1	4.226375
15.533333	1	4.002750
15.550000	1	3.814375
15.566667	1	3.657500
15.583333	1	3.530500
15.600000	1	3.429000
15.616667	1	3.350875
15.633333	1	3.295000
15.650000	1	3.257500
15.666667	1	3.236625
15.683333	1	3.230500
15.700000	1	3.235875
15.716667	1	3.251500
15.733333	1	3.275000
15.750000	1	3.304375
15.766667	1	3.338750
15.783333	1	3.376875
15.800000	1	3.419375
15.816667	1	3.466125
15.833333	1	3.516125
15.850000	1	3.570875
15.866667	1	3.632750
15.883333	1	3.702125
15.900000	1	3.779625
15.916667	1	3.867000
15.933333	1	3.964875
15.950000	1	4.071875
15.966667	1	4.187875
15.983333	1	4.310250
16.000000	1	4.436750
16.016667	1	4.565000
16.033333	1	4.693625
16.050000	1	4.819625
16.066667	1	4.941125
16.083333	1	5.057500
16.100000	1	5.168875
16.116667	1	5.275250
16.133333	1	5.377125
16.150000	1	5.474500
16.166667	1	5.567750
16.183333	1	5.658250
16.200000	1	5.745125
16.216667	1	5.826875
16.233333	1	5.902375
16.250000	1	5.971000
16.266667	1	6.030125
16.283333	1	6.076875
16.300000	1	6.111625
16.316667	1	6.132500
16.333333	1	6.137500
16.350000	1	6.125625
16.366667	1	6.095625
16.383333	1	6.047500
16.400000	1	5.979750
16.416667	1	5.892875
16.433333	1	5.785000
16.450000	1	5.658500
16.466667	1	5.512375
16.483333	1	5.349000
16.500000	1	5.169625
16.516667	1	4.976500
16.533333	1	4.772750
16.550000	1	4.562375
16.566667	1	4.348500
16.583333	1	4.133125
16.600000	1	3.920625
16.616667	1	3.712875
16.633333	1	3.513625
16.650000	1	3.325125
16.666667	1	3.148250
16.683333	1	2.984000
16.700000	1	2.833750
16.716667	1	2.697750
16.733333	1	2.574875
16.750000	1	2.465125
16.766667	1	2.368000
16.783333	1	2.282375
16.800000	1	2.207625
16.816667	1	2.142250
16.833333	1	2.084500
16.850000	1	2.033750
16.866667	1	1.989750
16.883333	1	1.950000
16.900000	1	1.915000
16.916667	1	1.883500
16.933333	1	1.854875
16.950000	1	1.828125
16.966667	1	1.803500
16.983333	1	1.779750
17.000000	1	1.757250
17.016667	1	1.735000
17.033333	1	1.714125
17.050000	1	1.693000
17.066667	1	1.673250
17.083333	1	1.655125
17.100000	1	1.637625
17.116667	1	1.621250
17.133333	1	1.605375
17.150000	1	1.590625
17.166667	1	1.576125
17.183333	1	1.563125
17.200000	1	1.550625
17.216667	1	1.538625
17.233333	1	1.527875
17.250000	1	1.518125
17.266667	1	1.508625
17.283333	1	1.500125
17.300000	1	1.492125
17.316667	1	1.484625
17.333333	1	1.477250
17.350000	1	1.470625
17.366667	1	1.464125
17.383333	1	1.458125
17.400000	1	1.453750
17.416667	1	1.449750
17.433333	1	1.446375
17.450000	1	1.444125
17.466667	1	1.442500
17.483333	1	1.441875
17.500000	1	1.442250
17.516667	1	1.443500
17.533333	1	1.447125
17.550000	1	1.451625
17.566667	1	1.458375
17.583333	1	1.466125
17.600000	1	1.475375
17.616667	1	1.486625
17.633333	1	1.499375
17.650000	1	1.514000
17.666667	1	1.530500
17.683333	1	1.548250
17.700000	1	1.567125
17.716667	1	1.587125
17.733333	1	1.607750
17.750000	1	1.629500
17.766667	1	1.652125
17.783333	1	1.675000
17.800000	1	1.699000
17.816667	1	1.723750
17.833333	1	1.748875
17.850000	1	1.773875
17.866667	1	1.798750
17.883333	1	1.823750
17.900000	1	1.848250
17.916667	1	1.871375
17.933333	1	1.893875
17.950000	1	1.915500
17.966667	1	1.935750
17.983333	1	1.955250
18.000000	1	1.972250
18.016667	1	1.987875
18.033333	1	2.000875
18.050000	1	2.012625
18.066667	1	2.022000
18.083333	1	2.029375
18.100000	1	2.033625
18.116667	1	2.036000
18.133333	1	2.036625
18.150000	1	2.034500
18.166667	1	2.029250
18.183333	1	2.022750
18.200000	1	2.013875
18.216667	1	2.003250
18.233333	1	1.990500
18.250000	1	1.975750
18.266667	1	1.959000
18.283333	1	1.940500
18.300000	1	1.921125
18.316667	1	1.900125
18.333333	1	1.878375
18.350000	1	1.855250
18.366667	1	1.832125
18.383333	1	1.808500
18.400000	1	1.783875
18.416667	1	1.758875
18.433333	1	1.734625
18.450000	1	1.710125
18.466667	1	1.685500
18.483333	1	1.661500
18.500000	1	1.637500
18.516667	1	1.613375
18.533333	1	1.589750
18.550000	1	1.567000
18.566667	1	1.545250
18.583333	1	1.524000
18.600000	1	1.502500
18.616667	1	1.482250
18.633333	1	1.462000
18.650000	1	1.442625
18.666667	1	1.424875
18.683333	1	1.407500
18.700000	1	1.390625
18.716667	1	1.373875
18.733333	1	1.358250
18.750000	1	1.343500
18.766667	1	1.329250
18.783333	1	1.316125
18.800000	1	1.303750
18.816667	1	1.292625
18.833333	1	1.283250
18.850000	1	1.274750
18.866667	1	1.268250
18.883333	1	1.263875
18.900000	1	1.262125
18.916667	1	1.261375
18.933333	1	1.263875
18.950000	1	1.268125
18.966667	1	1.274750
18.983333	1	1.283000
19.000000	1	1.294125
19.016667	1	1.306125
19.033333	1	1.320000
19.050000	1	1.336500
19.066667	1	1.354125
19.083333	1	1.373625
19.100000	1	1.394500
19.116667	1	1.416125
19.133333	1	1.438250
19.150000	1	1.462375
19.166667	1	1.487250
19.183333	1	1.513250
19.200000	1	1.540000
19.216667	1	1.567750
19.233333	1	1.596000
19.250000	1	1.624500
19.266667	1	1.653750
19.283333	1	1.682500
19.300000	1	1.711500
19.316667	1	1.739750
19.333333	1	1.767375
19.350000	1	1.793375
19.366667	1	1.818375
19.383333	1	1.841750
19.400000	1	1.863125
19.416667	1	1.883000
19.433333	1	1.900000
19.450000	1	1.913625
19.466667	1	1.925000
19.483333	1	1.933625
19.500000	1	1.938875
19.516667	1	1.940500
19.533333	1	1.938750
19.550000	1	1.933125
19.566667	1	1.924000
19.583333	1	1.912000
19.600000	1	1.896000
19.616667	1	1.876500
19.633333	1	1.855125
19.650000	1	1.831000
19.666667	1	1.805500
19.683333	1	1.777375
19.700000	1	1.747625
19.716667	1	1.716625
19.733333	1	1.685500
19.750000	1	1.654250
19.766667	1	1.622500
19.783333	1	1.591125
19.800000	1	1.561250
19.816667	1	1.532625
19.833333	1	1.505000
19.850000	1	1.479500
19.866667	1	1.456500
19.883333	1	1.435750
19.900000	1	1.418000
19.916667	1	1.403750
19.933333	1	1.393000
19.950000	1	1.386375
19.966667	1	1.383375
19.983333	1	1.385000
20.000000	1	1.391000
20.016667	1	1.402375
20.033333	1	1.419000
20.050000	1	1.442625
20.066667	1	1.473875
20.083333	1	1.512000
20.100000	1	1.557250
20.116667	1	1.611500
20.133333	1	1.674375
20.150000	1	1.746625
20.166667	1	1.827250
20.183333	1	1.915500
20.200000	1	2.011000
20.216667	1	2.112500
20.233333	1	2.219375
20.250000	1	2.330125
20.266667	1	2.442750
20.283333	1	2.556375
20.300000	1	2.670375
20.316667	1	2.783875
20.333333	1	2.897375
20.350000	1	3.010750
20.366667	1	3.125000
20.383333	1	3.240500
20.400000	1	3.358250
20.416667	1	3.479500
20.433333	1	3.605000
20.450000	1	3.734750
20.466667	1	3.867750
20.483333	1	4.004500
20.500000	1	4.144625
20.516667	1	4.287250
20.533333	1	4.431375
20.550000	1	4.574875
20.566667	1	4.715875
20.583333	1	4.853375
20.600000	1	4.985000
20.616667	1	5.109500
20.633333	1	5.224875
20.650000	1	5.329125
20.666667	1	5.421250
20.683333	1	5.498375
20.700000	1	5.559875
20.716667	1	5.603750
20.733333	1	5.628125
20.750000	1	5.631750
20.766667	1	5.614500
20.783333	1	5.574500
20.800000	1	5.511375
20.816667	1	5.425375
20.833333	1	5.317625
20.850000	1	5.189500
20.866667	1	5.042875
20.883333	1	4.880500
20.900000	1	4.704375
20.916667	1	4.517875
20.933333	1	4.324500
20.950000	1	4.126500
20.966667	1	3.927750
20.983333	1	3.729875
21.000000	1	3.536500
21.016667	1	3.349500
21.033333	1	3.171125
21.050000	1	3.003375
21.066667	1	2.845625
21.083333	1	2.699375
21.100000	1	2.563875
21.116667	1	2.440125
21.133333	1	2.326750
21.150000	1	2.222625
21.166667	1	2.127750
21.183333	1	2.040750
21.200000	1	1.960750
21.216667	1	1.886625
21.233333	1	1.818000
21.250000	1	1.752875
21.266667	1	1.691750
21.283333	1	1.632875
21.300000	1	1.576500
21.316667	1	1.522000
21.333333	1	1.468375
21.350000	1	1.416500
21.366667	1	1.364875
21.383333	1	1.315125
21.400000	1	1.266000
21.416667	1	1.218125
21.433333	1	1.172375
21.450000	1	1.128750
21.466667	1	1.087375
21.483333	1	1.047625
21.500000	1	1.009750
21.516667	1	0.975000
21.533333	1	0.942750
21.550000	1	0.912875
21.566667	1	0.885875
21.583333	1	0.862250
21.600000	1	0.840875
21.616667	1	0.821500
21.633333	1	0.805125
21.650000	1	0.791625
21.666667	1	0.779625
21.683333	1	0.769750
21.700000	1	0.762000
21.716667	1	0.756000
21.733333	1	0.751500
21.750000	1	0.749125
21.766667	1	0.748375
21.783333	1	0.748125
21.800000	1	0.749375
21.816667	1	0.752000
21.833333	1	0.755125
21.850000	1	0.759000
21.866667	1	0.763750
21.883333	1	0.769750
21.900000	1	0.775875
21.916667	1	0.782875
21.933333	1	0.790375
21.950000	1	0.798375
21.966667	1	0.807125
21.983333	1	0.815875
22.000000	1	0.825250
22.016667	1	0.835375
22.033333	1	0.845500
22.050000	1	0.855375
22.066667	1	0.866125
22.083333	1	0.877375
22.100000	1	0.887875
22.116667	1	0.897500
22.133333	1	0.907625
22.150000	1	0.917000
22.166667	1	0.925250
22.183333	1	0.932750
22.200000	1	0.939500
22.216667	1	0.944625
22.233333	1	0.949250
22.250000	1	0.952000
22.266667	1	0.953750
22.283333	1	0.954375
22.300000	1	0.953250
22.316667	1	0.950500
22.333333	1	0.945500
22.350000	1	0.939500
22.366667	1	0.933250
22.383333	1	0.925000
22.400000	1	0.915375
22.416667	1	0.905625
22.433333	1	0.895000
22.450000	1	0.884125
22.466667	1	0.873250
22.483333	1	0.862250
22.500000	1	0.851500
22.516667	1	0.840750
22.533333	1	0.830375
22.550000	1	0.820750
22.566667	1	0.812750
22.583333	1	0.805000
22.600000	1	0.798000
22.616667	1	0.792750
22.633333	1	0.787500
22.650000	1	0.783875
22.666667	1	0.780875
22.683333	1	0.778625
22.700000	1	0.777375
22.716667	1	0.776625
22.733333	1	0.776375
22.750000	1	0.777000
22.766667	1	0.777625
22.783333	1	0.777875
22.800000	1	0.778750
22.816667	1	0.780875
22.833333	1	0.782000
22.850000	1	0.783500
22.866667	1	0.784750
22.883333	1	0.785125
22.900000	1	0.785625
22.916667	1	0.785000
22.933333	1	0.784125
22.950000	1	0.782375
22.966667	1	0.780750
22.983333	1	0.779000
23.000000	1	0.776000
23.016667	1	0.772125
23.033333	1	0.768500
23.050000	1	0.763750
23.066667	1	0.758875
23.083333	1	0.752750
23.100000	1	0.746750
23.116667	1	0.738875
23.133333	1	0.731750
23.150000	1	0.723125
23.166667	1	0.714375
23.183333	1	0.706000
23.200000	1	0.697500
23.216667	1	0.688000
23.233333	1	0.678875
23.250000	1	0.668250
23.266667	1	0.659125
23.283333	1	0.649375
23.300000	1	0.640250
23.316667	1	0.631000
23.333333	1	0.622250
23.350000	1	0.614625
23.366667	1	0.607750
23.383333	1	0.602125
23.400000	1	0.596875
23.416667	1	0.593500
23.433333	1	0.592375
23.450000	1	0.592500
23.466667	1	0.594375
23.483333	1	0.599375
23.500000	1	0.607625
23.516667	1	0.618375
23.533333	1	0.632000
23.550000	1	0.648500
23.566667	1	0.668000
23.583333	1	0.691125
23.600000	1	0.717250
23.616667	1	0.746250
23.633333	1	0.778500
23.650000	1	0.812750
23.666667	1	0.848875
23.683333	1	0.887750
23.700000	1	0.928500
23.716667	1	0.971250
23.733333	1	1.015250
23.750000	1	1.060000
23.766667	1	1.107375
23.783333	1	1.155625
23.800000	1	1.206125
23.816667	1	1.257375
23.833333	1	1.310250
23.850000	1	1.364500
23.866667	1	1.421750
23.883333	1	1.479625
23.900000	1	1.539125
23.916667	1	1.599625
23.933333	1	1.661750
23.950000	1	1.725375
23.966667	1	1.788875
23.983333	1	1.852375
24.000000	1	1.914750
24.016667	1	1.976250
24.033333	1	2.036750
24.050000	1	2.094375
24.066667	1	2.149500
24.083333	1	2.200375
24.100000	1	2.246750
24.116667	1	2.288750
24.133333	1	2.325500
24.150000	1	2.356000
24.166667	1	2.380500
24.183333	1	2.397875
24.200000	1	2.407125
24.216667	1	2.408625
24.233333	1	2.402250
24.250000	1	2.388125
24.266667	1	2.365875
24.283333	1	2.335625
24.300000	1	2.297250
24.316667	1	2.252250
24.333333	1	2.201000
24.350000	1	2.144000
24.366667	1	2.081750
24.383333	1	2.015750
24.400000	1	1.946250
24.416667	1	1.875625
24.433333	1	1.802875
24.450000	1	1.731000
24.466667	1	1.659500
24.483333	1	1.589250
24.500000	1	1.521875
24.516667	1	1.457000
24.533333	1	1.395500
24.550000	1	1.337375
24.566667	1	1.284500
24.583333	1	1.236125
24.600000	1	1.192250
24.616667	1	1.152250
24.633333	1	1.117250
24.650000	1	1.086000
24.666667	1	1.058875
24.683333	1	1.035250
24.700000	1	1.014875
24.716667	1	0.997125
24.733333	1	0.980875
24.750000	1	0.967875
24.766667	1	0.956125
24.783333	1	0.945625
24.800000	1	0.936625
24.816667	1	0.928500
24.833333	1	0.919875
24.850000	1	0.911375
24.866667	1	0.902750
24.883333	1	0.893750
24.900000	1	0.885000
24.916667	1	0.874125
24.933333	1	0.863750
24.950000	1	0.852000
24.966667	1	0.838750
24.983333	1	0.825000
25.000000	1	0.810250
25.016667	1	0.794375
25.033333	1	0.777500
25.050000	1	0.760125
25.066667	1	0.741750
25.083333	1	0.721875
25.100000	1	0.702250
25.116667	1	0.682625
25.133333	1	0.662875
25.150000	1	0.643000
25.166667	1	0.622375
25.183333	1	0.603000
25.200000	1	0.583875
25.216667	1	0.564250
25.233333	1	0.546250
25.250000	1	0.529125
25.266667	1	0.512750
25.283333	1	0.497375
25.300000	1	0.483250
25.316667	1	0.469500
25.333333	1	0.457125
25.350000	1	0.445750
25.366667	1	0.436000
25.383333	1	0.426375
25.400000	1	0.418375
25.416667	1	0.411375
25.433333	1	0.405500
25.450000	1	0.401375
25.466667	1	0.398000
25.483333	1	0.395375
25.500000	1	0.392875
25.516667	1	0.392250
25.533333	1	0.391875
25.550000	1	0.391750
25.566667	1	0.392125
25.583333	1	0.394125
25.600000	1	0.396625
25.616667	1	0.398750
25.633333	1	0.400875
25.650000	1	0.403625
25.666667	1	0.406750
25.683333	1	0.410000
25.700000	1	0.413875
25.716667	1	0.418000
25.733333	1	0.421250
25.750000	1	0.425125
25.766667	1	0.429000
25.783333	1	0.433125
25.800000	1	0.436750
25.816667	1	0.440375
25.833333	1	0.445000
25.850000	1	0.449000
25.866667	1	0.453375
25.883333	1	0.457000
25.900000	1	0.461125
25.916667	1	0.464500
25.933333	1	0.468125
25.950000	1	0.471375
25.966667	1	0.475125
25.983333	1	0.479125
26.000000	1	0.483125
26.016667	1	0.486875
26.033333	1	0.490500
26.050000	1	0.494250
26.066667	1	0.498625
26.083333	1	0.502625
26.100000	1	0.506750
26.116667	1	0.510375
26.133333	1	0.514375
26.150000	1	0.519000
26.166667	1	0.522375
26.183333	1	0.526375
26.200000	1	0.529750
26.216667	1	0.533250
26.233333	1	0.537875
26.250000	1	0.542250
26.266667	1	0.547125
26.283333	1	0.551875
26.300000	1	0.555875
26.316667	1	0.559625
26.333333	1	0.563875
26.350000	1	0.567500
26.366667	1	0.570750
26.383333	1	0.574125
26.400000	1	0.577125
26.416667	1	0.580125
26.433333	1	0.582875
26.450000	1	0.586250
26.466667	1	0.588500
26.483333	1	0.590375
26.500000	1	0.591500
26.516667	1	0.593125
26.533333	1	0.593500
26.550000	1	0.594000
26.566667	1	0.594625
26.583333	1	0.594500
26.600000	1	0.594000
26.616667	1	0.593000
26.633333	1	0.591750
26.650000	1	0.589750
26.666667	1	0.587625
26.683333	1	0.585375
26.700000	1	0.582375
26.716667	1	0.579250
26.733333	1	0.575625
26.750000	1	0.571750
26.766667	1	0.567000
26.783333	1	0.562000
26.800000	1	0.556750
26.816667	1	0.551000
26.833333	1	0.545375
26.850000	1	0.538000
26.866667	1	0.530875
26.883333	1	0.523375
26.900000	1	0.515250
26.916667	1	0.507000
26.933333	1	0.498625
26.950000	1	0.490125
26.966667	1	0.481375
26.983333	1	0.472500
27.000000	1	0.463125
27.016667	1	0.453750
27.033333	1	0.443750
27.050000	1	0.433625
27.066667	1	0.423500
27.083333	1	0.414500
27.100000	1	0.404750
27.116667	1	0.394375
27.133333	1	0.385250
27.150000	1	0.376125
27.166667	1	0.367625
27.183333	1	0.358875
27.200000	1	0.350625
27.216667	1	0.343000
27.233333	1	0.335875
27.250000	1	0.329750
27.266667	1	0.324125
27.283333	1	0.318875
27.300000	1	0.314750
27.316667	1	0.311500
27.333333	1	0.309125
27.350000	1	0.307875
27.366667	1	0.307625
27.383333	1	0.308875
27.400000	1	0.310625
27.416667	1	0.314375
27.433333	1	0.319625
27.450000	1	0.327750
27.466667	1	0.337375
27.483333	1	0.349750
27.500000	1	0.364250
27.516667	1	0.381750
27.533333	1	0.401750
27.550000	1	0.424250
27.566667	1	0.450250
27.583333	1	0.479500
27.600000	1	0.511625
27.616667	1	0.547625
27.633333	1	0.587125
27.650000	1	0.629500
27.666667	1	0.675000
27.683333	1	0.723125
27.700000	1	0.774375
27.716667	1	0.828250
27.733333	1	0.883500
27.750000	1	0.941875
27.766667	1	1.001500
27.783333	1	1.063000
27.800000	1	1.125125
27.816667	1	1.188750
27.833333	1	1.253750
27.850000	1	1.319500
27.866667	1	1.386375
27.883333	1	1.454500
27.900000	1	1.524125
27.916667	1	1.594000
27.933333	1	1.665500
27.950000	1	1.737750
27.966667	1	1.810750
27.983333	1	1.884500
28.000000	1	1.959250
28.016667	1	2.034625
28.033333	1	2.110250
28.050000	1	2.186750
28.066667	1	2.262625
28.083333	1	2.338625
28.100000	1	2.413875
28.116667	1	2.487750
28.133333	1	2.561000
28.150000	1	2.632000
28.166667	1	2.701125
28.183333	1	2.766875
28.200000	1	2.829500
28.216667	1	2.888250
28.233333	1	2.942875
28.250000	1	2.994000
28.266667	1	3.040250
28.283333	1	3.080875
28.300000	1	3.116125
28.316667	1	3.145375
28.333333	1	3.169000
28.350000	1	3.186250
28.366667	1	3.196250
28.383333	1	3.198625
28.400000	1	3.194125
28.416667	1	3.180375
28.433333	1	3.159500
28.450000	1	3.129750
28.466667	1	3.092125
28.483333	1	3.045375
28.500000	1	2.989750
28.516667	1	2.926250
28.533333	1	2.854375
28.550000	1	2.774500
28.566667	1	2.687250
28.583333	1	2.593375
28.600000	1	2.493125
28.616667	1	2.388250
28.633333	1	2.278625
28.650000	1	2.165500
28.666667	1	2.050000
28.683333	1	1.933000
28.700000	1	1.815625
28.716667	1	1.698250
28.733333	1	1.583375
28.750000	1	1.471250
28.766667	1	1.362875
28.783333	1	1.258875
28.800000	1	1.160000
28.816667	1	1.066250
28.833333	1	0.977625
28.850000	1	0.894500
28.866667	1	0.817500
28.883333	1	0.746750
28.900000	1	0.682125
28.916667	1	0.623625
28.933333	1	0.570000
28.950000	1	0.522000
28.966667	1	0.478625
28.983333	1	0.440500
29.000000	1	0.406625
29.016667	1	0.377250
29.033333	1	0.351000
29.050000	1	0.327625
29.066667	1	0.307875
29.083333	1	0.291625
29.100000	1	0.277250
29.116667	1	0.265125
29.133333	1	0.255000
29.150000	1	0.246750
29.166667	1	0.240000
29.183333	1	0.235000
29.200000	1	0.231625
29.216667	1	0.229125
29.233333	1	0.227500
29.250000	1	0.227125
29.266667	1	0.227375
29.283333	1	0.228750
29.300000	1	0.231500
29.316667	1	0.235000
29.333333	1	0.239125
29.350000	1	0.244500
29.366667	1	0.250375
29.383333	1	0.256375
29.400000	1	0.263000
29.416667	1	0.270250
29.433333	1	0.278500
29.450000	1	0.286750
29.466667	1	0.295125
29.483333	1	0.304250
29.500000	1	0.314000
29.516667	1	0.324125
29.533333	1	0.334000
29.550000	1	0.343875
29.566667	1	0.355000
29.583333	1	0.365500
29.600000	1	0.376000
29.616667	1	0.387375
29.633333	1	0.398375
29.650000	1	0.409625
29.666667	1	0.420000
29.683333	1	0.431000
29.700000	1	0.441875
29.716667	1	0.452750
29.733333	1	0.462750
29.750000	1	0.473125
29.766667	1	0.482750
29.783333	1	0.493125
29.800000	1	0.503250
29.816667	1	0.512125
29.833333	1	0.521000
29.850000	1	0.529375
29.866667	1	0.537375
29.883333	1	0.545625
29.900000	1	0.553375
29.916667	1	0.560250
29.933333	1	0.566750
29.950000	1	0.572875
29.966667	1	0.578375
29.983333	1	0.583750
30.000000	1	0.588875
30.016667	1	0.592875
30.033333	1	0.597250
30.050000	1	0.600500
30.066667	1	0.603250
30.083333	1	0.605250
30.100000	1	0.607125
30.116667	1	0.608750
30.133333	1	0.609875
30.150000	1	0.610625
30.166667	1	0.610750
30.183333	1	0.610625
30.200000	1	0.609875
30.216667	1	0.608500
30.233333	1	0.606500
30.250000	1	0.604625
30.266667	1	0.601875
30.283333	1	0.599250
30.300000	1	0.596375
30.316667	1	0.593000
30.333333	1	0.590125
30.350000	1	0.587125
30.366667	1	0.583875
30.383333	1	0.580500
30.400000	1	0.576250
30.416667	1	0.572750
30.433333	1	0.569125
30.450000	1	0.565500
30.466667	1	0.561500
30.483333	1	0.558125
30.500000	1	0.554625
30.516667	1	0.551375
30.533333	1	0.547750
30.550000	1	0.544250
30.566667	1	0.541250
30.583333	1	0.538500
30.600000	1	0.535750
30.616667	1	0.533250
30.633333	1	0.531375
30.650000	1	0.529375
30.666667	1	0.527875
30.683333	1	0.526500
30.700000	1	0.524875
30.716667	1	0.524375
30.733333	1	0.523250
30.750000	1	0.523000
30.766667	1	0.522875
30.783333	1	0.522125
30.800000	1	0.522500
30.816667	1	0.522750
30.833333	1	0.523125
30.850000	1	0.523625
30.866667	1	0.524375
30.883333	1	0.525500
30.900000	1	0.526875
30.916667	1	0.529250
30.933333	1	0.531125
30.950000	1	0.532750
30.966667	1	0.534750
30.983333	1	0.536500
31.000000	1	0.539125
31.016667	1	0.541750
31.033333	1	0.544625
31.050000	1	0.547375
31.066667	1	0.549375
31.083333	1	0.551125
31.100000	1	0.553750
31.116667	1	0.556500
31.133333	1	0.558500
31.150000	1	0.560625
31.166667	1	0.562500
31.183333	1	0.564625
31.200000	1	0.566125
31.216667	1	0.567375
31.233333	1	0.568250
31.250000	1	0.568875
31.266667	1	0.569875
31.283333	1	0.570125
31.300000	1	0.569875
31.316667	1	0.569500
31.333333	1	0.568750
31.350000	1	0.567500
31.366667	1	0.566125
31.383333	1	0.564250
31.400000	1	0.562125
31.416667	1	0.559625
31.433333	1	0.556500
31.450000	1	0.553500
31.466667	1	0.550375
31.483333	1	0.547125
31.500000	1	0.544000
31.516667	1	0.539375
31.533333	1	0.535500
31.550000	1	0.531750
31.566667	1	0.528125
31.583333	1	0.524000
31.600000	1	0.520250
31.616667	1	0.517250
31.633333	1	0.513750
31.650000	1	0.511000
31.666667	1	0.508250
31.683333	1	0.506000
31.700000	1	0.503500
31.716667	1	0.501750
31.733333	1	0.500500
31.750000	1	0.499875
31.766667	1	0.499625
31.783333	1	0.499625
31.800000	1	0.500375
31.816667	1	0.501500
31.833333	1	0.502000
31.850000	1	0.503500
31.866667	1	0.505625
31.883333	1	0.507625
31.900000	1	0.510625
31.916667	1	0.512875
31.933333	1	0.516000
31.950000	1	0.519500
31.966667	1	0.523000
31.983333	1	0.527125
32.000000	1	0.531750
32.016667	1	0.536125
32.033333	1	0.541000
32.050000	1	0.545875
32.066667	1	0.550250
32.083333	1	0.555500
32.100000	1	0.561375
32.116667	1	0.566500
32.133333	1	0.572000
32.150000	1	0.576875
32.166667	1	0.582875
32.183333	1	0.587875
32.200000	1	0.593250
32.216667	1	0.598125
32.233333	1	0.603000
32.250000	1	0.607750
32.266667	1	0.612750
32.283333	1	0.617500
32.300000	1	0.622000
32.316667	1	0.625875
32.333333	1	0.629375
32.350000	1	0.633125
32.366667	1	0.636375
32.383333	1	0.639250
32.400000	1	0.641375
32.416667	1	0.643375
32.433333	1	0.644500
32.450000	1	0.644875
32.466667	1	0.645000
32.483333	1	0.645750
32.500000	1	0.644250
32.516667	1	0.642875
32.533333	1	0.640750
32.550000	1	0.637750
32.566667	1	0.634625
32.583333	1	0.630375
32.600000	1	0.625375
32.616667	1	0.620500
32.633333	1	0.615250
32.650000	1	0.608500
32.666667	1	0.601375
32.683333	1	0.593750
32.700000	1	0.585250
32.716667	1	0.576000
32.733333	1	0.566875
32.750000	1	0.556250
32.766667	1	0.546000
32.783333	1	0.535250
32.800000	1	0.524000
32.816667	1	0.512250
32.833333	1	0.499125
32.850000	1	0.486750
32.866667	1	0.474625
32.883333	1	0.462125
32.900000	1	0.449125
32.916667	1	0.435625
32.933333	1	0.422250
32.950000	1	0.409250
32.966667	1	0.395875
32.983333	1	0.383000
33.000000	1	0.370250
33.016667	1	0.357750
33.033333	1	0.345625
33.050000	1	0.333500
33.066667	1	0.321125
33.083333	1	0.308250
33.100000	1	0.296875
33.116667	1	0.286375
33.133333	1	0.275125
33.150000	1	0.264250
33.166667	1	0.254125
33.183333	1	0.243875
33.200000	1	0.234250
33.216667	1	0.225125
33.233333	1	0.216875
33.250000	1	0.208750
33.266667	1	0.201000
33.283333	1	0.193375
33.300000	1	0.185750
33.316667	1	0.178750
33.333333	1	0.172250
33.350000	1	0.165625
33.366667	1	0.159750
33.383333	1	0.154250
33.400000	1	0.149250
33.416667	1	0.145125
33.433333	1	0.140750
33.450000	1	0.137000
33.466667	1	0.132875
33.483333	1	0.129250
33.500000	1	0.126000
33.516667	1	0.123125
33.533333	1	0.120500
33.550000	1	0.118250
33.566667	1	0.116375
33.583333	1	0.114375
33.600000	1	0.112750
33.616667	1	0.110875
33.633333	1	0.110000
33.650000	1	0.109250
33.666667	1	0.108250
33.683333	1	0.107500
33.700000	1	0.107625
33.716667	1	0.108625
33.733333	1	0.108125
33.750000	1	0.108375
33.766667	1	0.109750
33.783333	1	0.110500
33.800000	1	0.112125
33.816667	1	0.114375
33.833333	1	0.116375
33.850000	1	0.118750
33.866667	1	0.121125
33.883333	1	0.123500
33.900000	1	0.126125
33.916667	1	0.129625
33.933333	1	0.132750
33.950000	1	0.136250
33.966667	1	0.140250
33.983333	1	0.144000
34.000000	1	0.149125
34.016667	1	0.153125
34.033333	1	0.158000
34.050000	1	0.162375
34.066667	1	0.167750
34.083333	1	0.173125
34.100000	1	0.177875
34.116667	1	0.183125
34.133333	1	0.188750
34.150000	1	0.194375
34.166667	1	0.200375
34.183333	1	0.206000
34.200000	1	0.212000
34.216667	1	0.217750
34.233333	1	0.223750
34.250000	1	0.229500
34.266667	1	0.236375
34.283333	1	0.242875
34.300000	1	0.249125
34.316667	1	0.256000
34.333333	1	0.263250
34.350000	1	0.270375
34.366667	1	0.277000
34.383333	1	0.283500
34.400000	1	0.290625
34.416667	1	0.297500
34.433333	1	0.305375
34.450000	1	0.312750
34.466667	1	0.320000
34.483333	1	0.327000
34.500000	1	0.333750
34.516667	1	0.340500
34.533333	1	0.347375
34.550000	1	0.354375
34.566667	1	0.360750
34.583333	1	0.367000
34.600000	1	0.372250
34.616667	1	0.377875
34.633333	1	0.382625
34.650000	1	0.387375
34.666667	1	0.391625
34.683333	1	0.395500
34.700000	1	0.399000
34.716667	1	0.401875
34.733333	1	0.403875
34.750000	1	0.405750
34.766667	1	0.406125
34.783333	1	0.407000
34.800000	1	0.406125
34.816667	1	0.405125
34.833333	1	0.403875
34.850000	1	0.401125
34.866667	1	0.397625
34.883333	1	0.394125
34.900000	1	0.389125
34.916667	1	0.384250
34.933333	1	0.378375
34.950000	1	0.371500
34.966667	1	0.364500
34.983333	1	0.357125
35.000000	1	0.348875
35.016667	1	0.339750
35.033333	1	0.330750
35.050000	1	0.321375
35.066667	1	0.312125
35.083333	1	0.303000
35.100000	1	0.293125
35.116667	1	0.283250
35.133333	1	0.273000
35.150000	1	0.262875
35.166667	1	0.254125
35.183333	1	0.244500
35.200000	1	0.235750
35.216667	1	0.226875
35.233333	1	0.218500
35.250000	1	0.210125
35.266667	1	0.202625
35.283333	1	0.195875
35.300000	1	0.189875
35.316667	1	0.183625
35.333333	1	0.177000
35.350000	1	0.171000
35.366667	1	0.165750
35.383333	1	0.162000
35.400000	1	0.158375
35.416667	1	0.155625
35.433333	1	0.152750
35.450000	1	0.150375
35.466667	1	0.148500
35.483333	1	0.147125
35.500000	1	0.146625
35.516667	1	0.145875
35.533333	1	0.145625
35.550000	1	0.145750
35.566667	1	0.146375
35.583333	1	0.147625
35.600000	1	0.148500
35.616667	1	0.149125
35.633333	1	0.150625
35.650000	1	0.152125
35.666667	1	0.154000
35.683333	1	0.156500
35.700000	1	0.159375
35.716667	1	0.161875
35.733333	1	0.164375
35.750000	1	0.166000
35.766667	1	0.168750
35.783333	1	0.170625
35.800000	1	0.173500
35.816667	1	0.176000
35.833333	1	0.179125
35.850000	1	0.181625
35.866667	1	0.184750
35.883333	1	0.188125
35.900000	1	0.190875
35.916667	1	0.193125
35.933333	1	0.196375
35.950000	1	0.199000
35.966667	1	0.201500
35.983333	1	0.203625
36.000000	1	0.205500
36.016667	1	0.208250
36.033333	1	0.210125
36.050000	1	0.212750
36.066667	1	0.215125
36.083333	1	0.217500
36.100000	1	0.219375
36.116667	1	0.221375
36.133333	1	0.223000
36.150000	1	0.225375
36.166667	1	0.227125
36.183333	1	0.228750
36.200000	1	0.230750
36.216667	1	0.232625
36.233333	1	0.234125
36.250000	1	0.236000
36.266667	1	0.238375
36.283333	1	0.240375
36.300000	1	0.242500
36.316667	1	0.244375
36.333333	1	0.246125
36.350000	1	0.247500
36.366667	1	0.249000
36.383333	1	0.251000
36.400000	1	0.253750
36.416667	1	0.255125
36.433333	1	0.256375
36.450000	1	0.258250
36.466667	1	0.260625
36.483333	1	0.262500
36.500000	1	0.264500
36.516667	1	0.265875
36.533333	1	0.267500
36.550000	1	0.269000
36.566667	1	0.270750
36.583333	1	0.272375
36.600000	1	0.273875
36.616667	1	0.275375
36.633333	1	0.277000
36.650000	1	0.277875
36.666667	1	0.278750
36.683333	1	0.280000
36.700000	1	0.280250
36.716667	1	0.280750
36.733333	1	0.281250
36.750000	1	0.281625
36.766667	1	0.282000
36.783333	1	0.281875
36.800000	1	0.282125
36.816667	1	0.282000
36.833333	1	0.281250
36.850000	1	0.280250
36.866667	1	0.279000
36.883333	1	0.277125
36.900000	1	0.276375
36.916667	1	0.274625
36.933333	1	0.272250
36.950000	1	0.269875
36.966667	1	0.268250
36.983333	1	0.265750
37.000000	1	0.263000
37.016667	1	0.259750
37.033333	1	0.256250
37.050000	1	0.253000
37.066667	1	0.249375
37.083333	1	0.245875
37.100000	1	0.242500
37.116667	1	0.238750
37.133333	1	0.234875
37.150000	1	0.231000
37.166667	1	0.227125
37.183333	1	0.223250
37.200000	1	0.219250
37.216667	1	0.214625
37.233333	1	0.210500
37.250000	1	0.205875
37.266667	1	0.201250
37.283333	1	0.196875
37.300000	1	0.192375
37.316667	1	0.187375
37.333333	1	0.182625
37.350000	1	0.178750
37.366667	1	0.174125
37.383333	1	0.169750
37.400000	1	0.164875
37.416667	1	0.160000
37.433333	1	0.154875
37.450000	1	0.150625
37.466667	1	0.145875
37.483333	1	0.140875
37.500000	1	0.136000
37.516667	1	0.131125
37.533333	1	0.126375
37.550000	1	0.121750
37.566667	1	0.117250
37.583333	1	0.112125
37.600000	1	0.107875
37.616667	1	0.103750
37.633333	1	0.099500
37.650000	1	0.095375
37.666667	1	0.091375
37.683333	1	0.087375
37.700000	1	0.083125
37.716667	1	0.079125
37.733333	1	0.075500
37.750000	1	0.072500
37.766667	1	0.069625
37.783333	1	0.066125
37.800000	1	0.063500
37.816667	1	0.060625
37.833333	1	0.058000
37.850000	1	0.055875
37.866667	1	0.053250
37.883333	1	0.050875
37.900000	1	0.048750
37.916667	1	0.047125
37.933333	1	0.045625
37.950000	1	0.044500
37.966667	1	0.042875
37.983333	1	0.041500
38.000000	1	0.040125
38.016667	1	0.039125
38.033333	1	0.038125
38.050000	1	0.038375
38.066667	1	0.037375
38.083333	1	0.036875
38.100000	1	0.036625
38.116667	1	0.036250
38.133333	1	0.035625
38.150000	1	0.035375
38.166667	1	0.034750
38.183333	1	0.034625
38.200000	1	0.035250
38.216667	1	0.035000
38.233333	1	0.035375
38.250000	1	0.035750
38.266667	1	0.035625
38.283333	1	0.035625
38.300000	1	0.036250
38.316667	1	0.036125
38.333333	1	0.036500
38.350000	1	0.036625
38.366667	1	0.037250
38.383333	1	0.037000
38.400000	1	0.037250
38.416667	1	0.038000
38.433333	1	0.037875
38.450000	1	0.038250
38.466667	1	0.038500
38.483333	1	0.038875
38.500000	1	0.039250
38.516667	1	0.039500
38.533333	1	0.039750
38.550000	1	0.039625
38.566667	1	0.040375
38.583333	1	0.040500
38.600000	1	0.040625
38.616667	1	0.041125
38.633333	1	0.041625
38.650000	1	0.042250
38.666667	1	0.042750
38.683333	1	0.043125
38.700000	1	0.043375
38.716667	1	0.044000
38.733333	1	0.044625
38.750000	1	0.045000
38.766667	1	0.045375
38.783333	1	0.045750
38.800000	1	0.046625
38.816667	1	0.047000
38.833333	1	0.047375
38.850000	1	0.047625
38.866667	1	0.048250
38.883333	1	0.048625
38.900000	1	0.049375
38.916667	1	0.049875
38.933333	1	0.050125
38.950000	1	0.050750
38.966667	1	0.051000
38.983333	1	0.051500
39.000000	1	0.052250
39.016667	1	0.052625
39.033333	1	0.052875
39.050000	1	0.053000
39.066667	1	0.053375
39.083333	1	0.053500
39.100000	1	0.053125
39.116667	1	0.053250
39.133333	1	0.053500
39.150000	1	0.053500
39.166667	1	0.053750
39.183333	1	0.054000
39.200000	1	0.053875
39.216667	1	0.053875
39.233333	1	0.054250
39.250000	1	0.054500
39.266667	1	0.054625
39.283333	1	0.053875
39.300000	1	0.054125
39.316667	1	0.054750
39.333333	1	0.054875
39.350000	1	0.055125
39.366667	1	0.055250
39.383333	1	0.056000
39.400000	1	0.056625
39.416667	1	0.057375
39.433333	1	0.058375
39.450000	1	0.058500
39.466667	1	0.059250
39.483333	1	0.059250
39.500000	1	0.059125
39.516667	1	0.059000
39.533333	1	0.059125
39.550000	1	0.060125
39.566667	1	0.060750
39.583333	1	0.061375
39.600000	1	0.061750
39.616667	1	0.061750
39.633333	1	0.062000
39.650000	1	0.062875
39.666667	1	0.063125
39.683333	1	0.063125
39.700000	1	0.063625
39.716667	1	0.064375
39.733333	1	0.064750
39.750000	1	0.065500
39.766667	1	0.066250
39.783333	1	0.067000
39.800000	1	0.067500
39.816667	1	0.068000
39.833333	1	0.068250
39.850000	1	0.069625
39.866667	1	0.070250
39.883333	1	0.070250
39.900000	1	0.071125
39.916667	1	0.072125
39.933333	1	0.073375
39.950000	1	0.073750
39.966667	1	0.075125
39.983333	1	0.076250
40.000000	1	0.076750
