File Path	chrom://marshall/Chromeleon7/HPLC_Ultimate_3000/Users/markusar/20221226.seq/200.smp/RI_1.channel/RI_1.chm
Channel	RI_1

Injection Information:
Data Vault	Chromeleon7
Injection	fp2.4
Injection Number	13
Position	RB5
Comment	
Processing Method	
Instrument Method	std_method
Type	Unknown
Status	Finished
Injection Date	27.12.2022
Injection Time	00:22:12
Injection Volume (µl)	20.000
Dilution Factor	1.0000
Weight	1.0000

Chromatogram Data Information:
Time Min. (min)	0.000000
Time Max. (min)	40.000000
Data Points	2401
Detector	RI
Generating Data System	Chromeleon 7.2.5.9507
Exporting Data System	Chromeleon 7.2.5.0
Operator	Instrument Controller
Signal Quantity	Refractive 
Signal Unit	µRIU
Signal Min.	-0.070750
Signal Max.	99.849250
Channel	RI_1
Driver Name	RID520Driver.dll
Channel Type	Evaluation
Min. Step (s)	1
Max. Step (s)	1
Average Step (s)	1

Signal Parameter Information:
Signal Info	

Chromatogram Data:
Time (min)	Step (s)	Value (µRIU)
0.000000	n.a.	0.111000
0.016667	1	0.110750
0.033333	1	0.110625
0.050000	1	0.110250
0.066667	1	0.110125
0.083333	1	0.109875
0.100000	1	0.109500
0.116667	1	0.108250
0.133333	1	0.107125
0.150000	1	0.107125
0.166667	1	0.106375
0.183333	1	0.105125
0.200000	1	0.104125
0.216667	1	0.103000
0.233333	1	0.102250
0.250000	1	0.101500
0.266667	1	0.099125
0.283333	1	0.096125
0.300000	1	0.091875
0.316667	1	0.086500
0.333333	1	0.083750
0.350000	1	0.085500
0.366667	1	0.089375
0.383333	1	0.091750
0.400000	1	0.092750
0.416667	1	0.093000
0.433333	1	0.093125
0.450000	1	0.092125
0.466667	1	0.090500
0.483333	1	0.087125
0.500000	1	0.082125
0.516667	1	0.077125
0.533333	1	0.073000
0.550000	1	0.070000
0.566667	1	0.066750
0.583333	1	0.064125
0.600000	1	0.061500
0.616667	1	0.059625
0.633333	1	0.057875
0.650000	1	0.056250
0.666667	1	0.054250
0.683333	1	0.052875
0.700000	1	0.051125
0.716667	1	0.049375
0.733333	1	0.048625
0.750000	1	0.047250
0.766667	1	0.046250
0.783333	1	0.044500
0.800000	1	0.043000
0.816667	1	0.042375
0.833333	1	0.041000
0.850000	1	0.040375
0.866667	1	0.039625
0.883333	1	0.038750
0.900000	1	0.037250
0.916667	1	0.036375
0.933333	1	0.036000
0.950000	1	0.035125
0.966667	1	0.033500
0.983333	1	0.032125
1.000000	1	0.030625
1.016667	1	0.029875
1.033333	1	0.028500
1.050000	1	0.027500
1.066667	1	0.026000
1.083333	1	0.025125
1.100000	1	0.023750
1.116667	1	0.022375
1.133333	1	0.020875
1.150000	1	0.019500
1.166667	1	0.018000
1.183333	1	0.016250
1.200000	1	0.015375
1.216667	1	0.013625
1.233333	1	0.011875
1.250000	1	0.010875
1.266667	1	0.009375
1.283333	1	0.007500
1.300000	1	0.006125
1.316667	1	0.004625
1.333333	1	0.002500
1.350000	1	0.000500
1.366667	1	-0.000625
1.383333	1	-0.002000
1.400000	1	-0.003625
1.416667	1	-0.004625
1.433333	1	-0.006500
1.450000	1	-0.007875
1.466667	1	-0.009375
1.483333	1	-0.010500
1.500000	1	-0.011625
1.516667	1	-0.012875
1.533333	1	-0.013875
1.550000	1	-0.015750
1.566667	1	-0.016250
1.583333	1	-0.017750
1.600000	1	-0.018750
1.616667	1	-0.020625
1.633333	1	-0.022375
1.650000	1	-0.023750
1.666667	1	-0.024875
1.683333	1	-0.026500
1.700000	1	-0.027375
1.716667	1	-0.028375
1.733333	1	-0.029750
1.750000	1	-0.030875
1.766667	1	-0.032000
1.783333	1	-0.032625
1.800000	1	-0.033500
1.816667	1	-0.034500
1.833333	1	-0.035625
1.850000	1	-0.036625
1.866667	1	-0.037500
1.883333	1	-0.038625
1.900000	1	-0.040000
1.916667	1	-0.041000
1.933333	1	-0.042125
1.950000	1	-0.043125
1.966667	1	-0.043875
1.983333	1	-0.044750
2.000000	1	-0.045500
2.016667	1	-0.046875
2.033333	1	-0.048125
2.050000	1	-0.048625
2.066667	1	-0.049625
2.083333	1	-0.050125
2.100000	1	-0.051375
2.116667	1	-0.052375
2.133333	1	-0.053875
2.150000	1	-0.054875
2.166667	1	-0.055750
2.183333	1	-0.057375
2.200000	1	-0.058625
2.216667	1	-0.059500
2.233333	1	-0.060500
2.250000	1	-0.061500
2.266667	1	-0.062750
2.283333	1	-0.063250
2.300000	1	-0.064000
2.316667	1	-0.065000
2.333333	1	-0.065375
2.350000	1	-0.066125
2.366667	1	-0.067000
2.383333	1	-0.067500
2.400000	1	-0.068375
2.416667	1	-0.068750
2.433333	1	-0.069375
2.450000	1	-0.069500
2.466667	1	-0.069625
2.483333	1	-0.069250
2.500000	1	-0.070250
2.516667	1	-0.070750
2.533333	1	-0.070375
2.550000	1	-0.070250
2.566667	1	-0.070500
2.583333	1	-0.070375
2.600000	1	-0.069750
2.616667	1	-0.070000
2.633333	1	-0.069875
2.650000	1	-0.069500
2.666667	1	-0.069250
2.683333	1	-0.069125
2.700000	1	-0.068625
2.716667	1	-0.068125
2.733333	1	-0.067625
2.750000	1	-0.067250
2.766667	1	-0.066500
2.783333	1	-0.065375
2.800000	1	-0.064375
2.816667	1	-0.063750
2.833333	1	-0.062500
2.850000	1	-0.061625
2.866667	1	-0.060625
2.883333	1	-0.060125
2.900000	1	-0.059625
2.916667	1	-0.058875
2.933333	1	-0.057625
2.950000	1	-0.056375
2.966667	1	-0.054625
2.983333	1	-0.054250
3.000000	1	-0.052750
3.016667	1	-0.052375
3.033333	1	-0.050625
3.050000	1	-0.049375
3.066667	1	-0.047625
3.083333	1	-0.046625
3.100000	1	-0.045750
3.116667	1	-0.045000
3.133333	1	-0.043375
3.150000	1	-0.041875
3.166667	1	-0.040500
3.183333	1	-0.039625
3.200000	1	-0.038750
3.216667	1	-0.037250
3.233333	1	-0.035875
3.250000	1	-0.035375
3.266667	1	-0.033875
3.283333	1	-0.032125
3.300000	1	-0.030875
3.316667	1	-0.029875
3.333333	1	-0.029125
3.350000	1	-0.028125
3.366667	1	-0.026625
3.383333	1	-0.025625
3.400000	1	-0.024000
3.416667	1	-0.022250
3.433333	1	-0.021250
3.450000	1	-0.019500
3.466667	1	-0.018375
3.483333	1	-0.017625
3.500000	1	-0.016625
3.516667	1	-0.015250
3.533333	1	-0.013750
3.550000	1	-0.012500
3.566667	1	-0.011625
3.583333	1	-0.010250
3.600000	1	-0.009250
3.616667	1	-0.008000
3.633333	1	-0.007500
3.650000	1	-0.007125
3.666667	1	-0.006375
3.683333	1	-0.005500
3.700000	1	-0.005125
3.716667	1	-0.005000
3.733333	1	-0.003625
3.750000	1	-0.002625
3.766667	1	-0.001750
3.783333	1	-0.000500
3.800000	1	-0.000250
3.816667	1	0.000375
3.833333	1	0.000875
3.850000	1	0.001625
3.866667	1	0.002125
3.883333	1	0.002750
3.900000	1	0.003250
3.916667	1	0.003625
3.933333	1	0.004000
3.950000	1	0.004750
3.966667	1	0.005250
3.983333	1	0.005625
4.000000	1	0.006125
4.016667	1	0.006750
4.033333	1	0.006625
4.050000	1	0.007375
4.066667	1	0.007125
4.083333	1	0.007250
4.100000	1	0.007625
4.116667	1	0.007875
4.133333	1	0.008125
4.150000	1	0.008125
4.166667	1	0.007500
4.183333	1	0.006875
4.200000	1	0.006500
4.216667	1	0.006000
4.233333	1	0.005500
4.250000	1	0.005625
4.266667	1	0.004875
4.283333	1	0.004500
4.300000	1	0.004250
4.316667	1	0.003500
4.333333	1	0.003625
4.350000	1	0.002875
4.366667	1	0.002500
4.383333	1	0.001875
4.400000	1	0.001375
4.416667	1	0.001125
4.433333	1	0.000625
4.450000	1	0.000125
4.466667	1	-0.000750
4.483333	1	-0.001000
4.500000	1	-0.001125
4.516667	1	-0.001625
4.533333	1	-0.002250
4.550000	1	-0.002875
4.566667	1	-0.003625
4.583333	1	-0.003500
4.600000	1	-0.003500
4.616667	1	-0.004125
4.633333	1	-0.005000
4.650000	1	-0.004875
4.666667	1	-0.005125
4.683333	1	-0.004875
4.700000	1	-0.004375
4.716667	1	-0.004750
4.733333	1	-0.005000
4.750000	1	-0.004750
4.766667	1	-0.004875
4.783333	1	-0.005125
4.800000	1	-0.005125
4.816667	1	-0.005000
4.833333	1	-0.005375
4.850000	1	-0.004875
4.866667	1	-0.004625
4.883333	1	-0.004750
4.900000	1	-0.004875
4.916667	1	-0.004875
4.933333	1	-0.004500
4.950000	1	-0.004750
4.966667	1	-0.004500
4.983333	1	-0.004250
5.000000	1	-0.003625
5.016667	1	-0.003500
5.033333	1	-0.002750
5.050000	1	-0.003000
5.066667	1	-0.003125
5.083333	1	-0.002625
5.100000	1	-0.002125
5.116667	1	-0.001875
5.133333	1	-0.001500
5.150000	1	-0.001125
5.166667	1	-0.000750
5.183333	1	-0.000375
5.200000	1	-0.000125
5.216667	1	0.000500
5.233333	1	0.000750
5.250000	1	0.001750
5.266667	1	0.002375
5.283333	1	0.003250
5.300000	1	0.003875
5.316667	1	0.005250
5.333333	1	0.005875
5.350000	1	0.006375
5.366667	1	0.007375
5.383333	1	0.008500
5.400000	1	0.009750
5.416667	1	0.011000
5.433333	1	0.012250
5.450000	1	0.013500
5.466667	1	0.015000
5.483333	1	0.015625
5.500000	1	0.016875
5.516667	1	0.018625
5.533333	1	0.020125
5.550000	1	0.021625
5.566667	1	0.022875
5.583333	1	0.024000
5.600000	1	0.025750
5.616667	1	0.027625
5.633333	1	0.028750
5.650000	1	0.030875
5.666667	1	0.032750
5.683333	1	0.034625
5.700000	1	0.036375
5.716667	1	0.038125
5.733333	1	0.040125
5.750000	1	0.042000
5.766667	1	0.044375
5.783333	1	0.046000
5.800000	1	0.047750
5.816667	1	0.050625
5.833333	1	0.052875
5.850000	1	0.054500
5.866667	1	0.056000
5.883333	1	0.058250
5.900000	1	0.060500
5.916667	1	0.062375
5.933333	1	0.064375
5.950000	1	0.065625
5.966667	1	0.067250
5.983333	1	0.068625
6.000000	1	0.069875
6.016667	1	0.071750
6.033333	1	0.073125
6.050000	1	0.074875
6.066667	1	0.076625
6.083333	1	0.078125
6.100000	1	0.078875
6.116667	1	0.080375
6.133333	1	0.081875
6.150000	1	0.083375
6.166667	1	0.084500
6.183333	1	0.085750
6.200000	1	0.086875
6.216667	1	0.087250
6.233333	1	0.088375
6.250000	1	0.089375
6.266667	1	0.091125
6.283333	1	0.091875
6.300000	1	0.093125
6.316667	1	0.093750
6.333333	1	0.094500
6.350000	1	0.095500
6.366667	1	0.097000
6.383333	1	0.097625
6.400000	1	0.098125
6.416667	1	0.098875
6.433333	1	0.099375
6.450000	1	0.100000
6.466667	1	0.100375
6.483333	1	0.101250
6.500000	1	0.101875
6.516667	1	0.101375
6.533333	1	0.101875
6.550000	1	0.102000
6.566667	1	0.101750
6.583333	1	0.102125
6.600000	1	0.101500
6.616667	1	0.101375
6.633333	1	0.101000
6.650000	1	0.100625
6.666667	1	0.100125
6.683333	1	0.099625
6.700000	1	0.099500
6.716667	1	0.098375
6.733333	1	0.097125
6.750000	1	0.096625
6.766667	1	0.095875
6.783333	1	0.095250
6.800000	1	0.094250
6.816667	1	0.093375
6.833333	1	0.092625
6.850000	1	0.091500
6.866667	1	0.091000
6.883333	1	0.090125
6.900000	1	0.089500
6.916667	1	0.088500
6.933333	1	0.087375
6.950000	1	0.087375
6.966667	1	0.086875
6.983333	1	0.086750
7.000000	1	0.086000
7.016667	1	0.085875
7.033333	1	0.085750
7.050000	1	0.086000
7.066667	1	0.085750
7.083333	1	0.085500
7.100000	1	0.085875
7.116667	1	0.086125
7.133333	1	0.087500
7.150000	1	0.088500
7.166667	1	0.089500
7.183333	1	0.089875
7.200000	1	0.090875
7.216667	1	0.092125
7.233333	1	0.093750
7.250000	1	0.094875
7.266667	1	0.095500
7.283333	1	0.097000
7.300000	1	0.097875
7.316667	1	0.099375
7.333333	1	0.100875
7.350000	1	0.103250
7.366667	1	0.105000
7.383333	1	0.106125
7.400000	1	0.108125
7.416667	1	0.109000
7.433333	1	0.110375
7.450000	1	0.113000
7.466667	1	0.114500
7.483333	1	0.116250
7.500000	1	0.118000
7.516667	1	0.119375
7.533333	1	0.121500
7.550000	1	0.123000
7.566667	1	0.124250
7.583333	1	0.125875
7.600000	1	0.127750
7.616667	1	0.128875
7.633333	1	0.129625
7.650000	1	0.130875
7.666667	1	0.131750
7.683333	1	0.132750
7.700000	1	0.133250
7.716667	1	0.134000
7.733333	1	0.135250
7.750000	1	0.136125
7.766667	1	0.136500
7.783333	1	0.136875
7.800000	1	0.137250
7.816667	1	0.137750
7.833333	1	0.137125
7.850000	1	0.136500
7.866667	1	0.136250
7.883333	1	0.136125
7.900000	1	0.136000
7.916667	1	0.135750
7.933333	1	0.134625
7.950000	1	0.133500
7.966667	1	0.132750
7.983333	1	0.131625
8.000000	1	0.130875
8.016667	1	0.129875
8.033333	1	0.128750
8.050000	1	0.127500
8.066667	1	0.125875
8.083333	1	0.124875
8.100000	1	0.123375
8.116667	1	0.121250
8.133333	1	0.119625
8.150000	1	0.118250
8.166667	1	0.116750
8.183333	1	0.116625
8.200000	1	0.114000
8.216667	1	0.112250
8.233333	1	0.110500
8.250000	1	0.109250
8.266667	1	0.107875
8.283333	1	0.106250
8.300000	1	0.104750
8.316667	1	0.102750
8.333333	1	0.101500
8.350000	1	0.100250
8.366667	1	0.099500
8.383333	1	0.098250
8.400000	1	0.097250
8.416667	1	0.096375
8.433333	1	0.095625
8.450000	1	0.094375
8.466667	1	0.093625
8.483333	1	0.093250
8.500000	1	0.092750
8.516667	1	0.092375
8.533333	1	0.092250
8.550000	1	0.092125
8.566667	1	0.091250
8.583333	1	0.090875
8.600000	1	0.091625
8.616667	1	0.091500
8.633333	1	0.092125
8.650000	1	0.092875
8.666667	1	0.093125
8.683333	1	0.093125
8.700000	1	0.094125
8.716667	1	0.095125
8.733333	1	0.095500
8.750000	1	0.096375
8.766667	1	0.096875
8.783333	1	0.097875
8.800000	1	0.099750
8.816667	1	0.100500
8.833333	1	0.101750
8.850000	1	0.103750
8.866667	1	0.105250
8.883333	1	0.107125
8.900000	1	0.108375
8.916667	1	0.109750
8.933333	1	0.111625
8.950000	1	0.113500
8.966667	1	0.114875
8.983333	1	0.116750
9.000000	1	0.118500
9.016667	1	0.120500
9.033333	1	0.122500
9.050000	1	0.124375
9.066667	1	0.126250
9.083333	1	0.128500
9.100000	1	0.130750
9.116667	1	0.132875
9.133333	1	0.135125
9.150000	1	0.137125
9.166667	1	0.139000
9.183333	1	0.140750
9.200000	1	0.142500
9.216667	1	0.144750
9.233333	1	0.146750
9.250000	1	0.148625
9.266667	1	0.150875
9.283333	1	0.153500
9.300000	1	0.155875
9.316667	1	0.157750
9.333333	1	0.160750
9.350000	1	0.163500
9.366667	1	0.166750
9.383333	1	0.169750
9.400000	1	0.173625
9.416667	1	0.178125
9.433333	1	0.182500
9.450000	1	0.187375
9.466667	1	0.192125
9.483333	1	0.198625
9.500000	1	0.205250
9.516667	1	0.213500
9.533333	1	0.223250
9.550000	1	0.234625
9.566667	1	0.247125
9.583333	1	0.262250
9.600000	1	0.279375
9.616667	1	0.298750
9.633333	1	0.321000
9.650000	1	0.345375
9.666667	1	0.373250
9.683333	1	0.403750
9.700000	1	0.437375
9.716667	1	0.474625
9.733333	1	0.516750
9.750000	1	0.563375
9.766667	1	0.615500
9.783333	1	0.670250
9.800000	1	0.722500
9.816667	1	0.762500
9.833333	1	0.775625
9.850000	1	0.749750
9.866667	1	0.685500
9.883333	1	0.599625
9.900000	1	0.532125
9.916667	1	0.537250
9.933333	1	0.675625
9.950000	1	1.006250
9.966667	1	1.580125
9.983333	1	2.440250
10.000000	1	3.623000
10.016667	1	5.156750
10.033333	1	7.066125
10.050000	1	9.367875
10.066667	1	12.072125
10.083333	1	15.188500
10.100000	1	18.715125
10.116667	1	22.640000
10.133333	1	26.940500
10.150000	1	31.580500
10.166667	1	36.517250
10.183333	1	41.701125
10.200000	1	47.071750
10.216667	1	52.570125
10.233333	1	58.134500
10.250000	1	63.696750
10.266667	1	69.189250
10.283333	1	74.544625
10.300000	1	79.677625
10.316667	1	84.487500
10.333333	1	88.857875
10.350000	1	92.661250
10.366667	1	95.769875
10.383333	1	98.064125
10.400000	1	99.446875
10.416667	1	99.849250
10.433333	1	99.227875
10.450000	1	97.574250
10.466667	1	94.900000
10.483333	1	91.243875
10.500000	1	86.669875
10.516667	1	81.269250
10.533333	1	75.154000
10.550000	1	68.466000
10.566667	1	61.390750
10.583333	1	54.173375
10.600000	1	47.103375
10.616667	1	40.489000
10.633333	1	34.582750
10.650000	1	29.527125
10.666667	1	25.337125
10.683333	1	21.945000
10.700000	1	19.241000
10.716667	1	17.103500
10.733333	1	15.420250
10.750000	1	14.095125
10.766667	1	13.049375
10.783333	1	12.220875
10.800000	1	11.560375
10.816667	1	11.029625
10.833333	1	10.595125
10.850000	1	10.234000
10.866667	1	9.924250
10.883333	1	9.648750
10.900000	1	9.392625
10.916667	1	9.144375
10.933333	1	8.894500
10.950000	1	8.634125
10.966667	1	8.358875
10.983333	1	8.065500
11.000000	1	7.754500
11.016667	1	7.426125
11.033333	1	7.083000
11.050000	1	6.731750
11.066667	1	6.379000
11.083333	1	6.030875
11.100000	1	5.696625
11.116667	1	5.382125
11.133333	1	5.092750
11.150000	1	4.830750
11.166667	1	4.597875
11.183333	1	4.393875
11.200000	1	4.216750
11.216667	1	4.065250
11.233333	1	3.936125
11.250000	1	3.827625
11.266667	1	3.737375
11.283333	1	3.663125
11.300000	1	3.602625
11.316667	1	3.553875
11.333333	1	3.518250
11.350000	1	3.491000
11.366667	1	3.472500
11.383333	1	3.460000
11.400000	1	3.450875
11.416667	1	3.444875
11.433333	1	3.438500
11.450000	1	3.430250
11.466667	1	3.417125
11.483333	1	3.398125
11.500000	1	3.372875
11.516667	1	3.339375
11.533333	1	3.297875
11.550000	1	3.249125
11.566667	1	3.193500
11.583333	1	3.131750
11.600000	1	3.065250
11.616667	1	2.995125
11.633333	1	2.922625
11.650000	1	2.849625
11.666667	1	2.776750
11.683333	1	2.705125
11.700000	1	2.635375
11.716667	1	2.568625
11.733333	1	2.505375
11.750000	1	2.445375
11.766667	1	2.389250
11.783333	1	2.337500
11.800000	1	2.289625
11.816667	1	2.245750
11.833333	1	2.205375
11.850000	1	2.168000
11.866667	1	2.134375
11.883333	1	2.103875
11.900000	1	2.077000
11.916667	1	2.052625
11.933333	1	2.030875
11.950000	1	2.010875
11.966667	1	1.993875
11.983333	1	1.978625
12.000000	1	1.965625
12.016667	1	1.953625
12.033333	1	1.944625
12.050000	1	1.938250
12.066667	1	1.934250
12.083333	1	1.933875
12.100000	1	1.939375
12.116667	1	1.951375
12.133333	1	1.970250
12.150000	1	1.998625
12.166667	1	2.037625
12.183333	1	2.090000
12.200000	1	2.156750
12.216667	1	2.240250
12.233333	1	2.343000
12.250000	1	2.468875
12.266667	1	2.620375
12.283333	1	2.799750
12.300000	1	3.011750
12.316667	1	3.258000
12.333333	1	3.541000
12.350000	1	3.860125
12.366667	1	4.216500
12.383333	1	4.608875
12.400000	1	5.034875
12.416667	1	5.492500
12.433333	1	5.979125
12.450000	1	6.494125
12.466667	1	7.035375
12.483333	1	7.601875
12.500000	1	8.191125
12.516667	1	8.800875
12.533333	1	9.427625
12.550000	1	10.068125
12.566667	1	10.717125
12.583333	1	11.369375
12.600000	1	12.016750
12.616667	1	12.651750
12.633333	1	13.268000
12.650000	1	13.857875
12.666667	1	14.414750
12.683333	1	14.931875
12.700000	1	15.402125
12.716667	1	15.821750
12.733333	1	16.187000
12.750000	1	16.493625
12.766667	1	16.741000
12.783333	1	16.929250
12.800000	1	17.057875
12.816667	1	17.128750
12.833333	1	17.147000
12.850000	1	17.113500
12.866667	1	17.036000
12.883333	1	16.919000
12.900000	1	16.769000
12.916667	1	16.591500
12.933333	1	16.393750
12.950000	1	16.179375
12.966667	1	15.952875
12.983333	1	15.715625
13.000000	1	15.468500
13.016667	1	15.213500
13.033333	1	14.951000
13.050000	1	14.682250
13.066667	1	14.409625
13.083333	1	14.134000
13.100000	1	13.857125
13.116667	1	13.581125
13.133333	1	13.307125
13.150000	1	13.037000
13.166667	1	12.772000
13.183333	1	12.513500
13.200000	1	12.261000
13.216667	1	12.016250
13.233333	1	11.778375
13.250000	1	11.547375
13.266667	1	11.322500
13.283333	1	11.103125
13.300000	1	10.887875
13.316667	1	10.676125
13.333333	1	10.467625
13.350000	1	10.261375
13.366667	1	10.057750
13.383333	1	9.856500
13.400000	1	9.656125
13.416667	1	9.456625
13.433333	1	9.257000
13.450000	1	9.055500
13.466667	1	8.850750
13.483333	1	8.640500
13.500000	1	8.421750
13.516667	1	8.191250
13.533333	1	7.947000
13.550000	1	7.685875
13.566667	1	7.405750
13.583333	1	7.106875
13.600000	1	6.788500
13.616667	1	6.452500
13.633333	1	6.101125
13.650000	1	5.744375
13.666667	1	5.395625
13.683333	1	5.073500
13.700000	1	4.793875
13.716667	1	4.563500
13.733333	1	4.380500
13.750000	1	4.236375
13.766667	1	4.123375
13.783333	1	4.033125
13.800000	1	3.960500
13.816667	1	3.900875
13.833333	1	3.851250
13.850000	1	3.809125
13.866667	1	3.772250
13.883333	1	3.739375
13.900000	1	3.707875
13.916667	1	3.677625
13.933333	1	3.645500
13.950000	1	3.610125
13.966667	1	3.569875
13.983333	1	3.523375
14.000000	1	3.468500
14.016667	1	3.406000
14.033333	1	3.333875
14.050000	1	3.254375
14.066667	1	3.166625
14.083333	1	3.072375
14.100000	1	2.972375
14.116667	1	2.868750
14.133333	1	2.764375
14.150000	1	2.661000
14.166667	1	2.561875
14.183333	1	2.468875
14.200000	1	2.383375
14.216667	1	2.306875
14.233333	1	2.238875
14.250000	1	2.181250
14.266667	1	2.132500
14.283333	1	2.092750
14.300000	1	2.061250
14.316667	1	2.035750
14.333333	1	2.016750
14.350000	1	2.002375
14.366667	1	1.992750
14.383333	1	1.987375
14.400000	1	1.985750
14.416667	1	1.987750
14.433333	1	1.993875
14.450000	1	2.004750
14.466667	1	2.020750
14.483333	1	2.043875
14.500000	1	2.075500
14.516667	1	2.120250
14.533333	1	2.183750
14.550000	1	2.269500
14.566667	1	2.386375
14.583333	1	2.540500
14.600000	1	2.738625
14.616667	1	2.988500
14.633333	1	3.296125
14.650000	1	3.664625
14.666667	1	4.094250
14.683333	1	4.583500
14.700000	1	5.127875
14.716667	1	5.720875
14.733333	1	6.354375
14.750000	1	7.020375
14.766667	1	7.712875
14.783333	1	8.427625
14.800000	1	9.161625
14.816667	1	9.913875
14.833333	1	10.687000
14.850000	1	11.481750
14.866667	1	12.297125
14.883333	1	13.131125
14.900000	1	13.977750
14.916667	1	14.827375
14.933333	1	15.667375
14.950000	1	16.482125
14.966667	1	17.254500
14.983333	1	17.967250
15.000000	1	18.604375
15.016667	1	19.151500
15.033333	1	19.595500
15.050000	1	19.926125
15.066667	1	20.133125
15.083333	1	20.211625
15.100000	1	20.157750
15.116667	1	19.971875
15.133333	1	19.654500
15.150000	1	19.212500
15.166667	1	18.653875
15.183333	1	17.989375
15.200000	1	17.234625
15.216667	1	16.404750
15.233333	1	15.518625
15.250000	1	14.592625
15.266667	1	13.646000
15.283333	1	12.696250
15.300000	1	11.760625
15.316667	1	10.853875
15.333333	1	9.987500
15.350000	1	9.171250
15.366667	1	8.411125
15.383333	1	7.714000
15.400000	1	7.079000
15.416667	1	6.506625
15.433333	1	5.994125
15.450000	1	5.540250
15.466667	1	5.140625
15.483333	1	4.791250
15.500000	1	4.487375
15.516667	1	4.225000
15.533333	1	4.001500
15.550000	1	3.812250
15.566667	1	3.655250
15.583333	1	3.526125
15.600000	1	3.424250
15.616667	1	3.344750
15.633333	1	3.287125
15.650000	1	3.249375
15.666667	1	3.226750
15.683333	1	3.219250
15.700000	1	3.223625
15.716667	1	3.238125
15.733333	1	3.260750
15.750000	1	3.290250
15.766667	1	3.324250
15.783333	1	3.361625
15.800000	1	3.402750
15.816667	1	3.446125
15.833333	1	3.492625
15.850000	1	3.543750
15.866667	1	3.598875
15.883333	1	3.660500
15.900000	1	3.728750
15.916667	1	3.804125
15.933333	1	3.886750
15.950000	1	3.977125
15.966667	1	4.073000
15.983333	1	4.174875
16.000000	1	4.279750
16.016667	1	4.385500
16.033333	1	4.489750
16.050000	1	4.592125
16.066667	1	4.689250
16.083333	1	4.780375
16.100000	1	4.866625
16.116667	1	4.947500
16.133333	1	5.022250
16.150000	1	5.091875
16.166667	1	5.156875
16.183333	1	5.217500
16.200000	1	5.274875
16.216667	1	5.327250
16.233333	1	5.373500
16.250000	1	5.412750
16.266667	1	5.444375
16.283333	1	5.465750
16.300000	1	5.478500
16.316667	1	5.478125
16.333333	1	5.466000
16.350000	1	5.441000
16.366667	1	5.402875
16.383333	1	5.350250
16.400000	1	5.283000
16.416667	1	5.200000
16.433333	1	5.102125
16.450000	1	4.989750
16.466667	1	4.863000
16.483333	1	4.723250
16.500000	1	4.571000
16.516667	1	4.409250
16.533333	1	4.239000
16.550000	1	4.063375
16.566667	1	3.885375
16.583333	1	3.707375
16.600000	1	3.532000
16.616667	1	3.360875
16.633333	1	3.196750
16.650000	1	3.041125
16.666667	1	2.895750
16.683333	1	2.760750
16.700000	1	2.637125
16.716667	1	2.525125
16.733333	1	2.425000
16.750000	1	2.335875
16.766667	1	2.255875
16.783333	1	2.186375
16.800000	1	2.125000
16.816667	1	2.072125
16.833333	1	2.025625
16.850000	1	1.984125
16.866667	1	1.947875
16.883333	1	1.916000
16.900000	1	1.887375
16.916667	1	1.860750
16.933333	1	1.836875
16.950000	1	1.814000
16.966667	1	1.792250
16.983333	1	1.771250
17.000000	1	1.751250
17.016667	1	1.731250
17.033333	1	1.712000
17.050000	1	1.692875
17.066667	1	1.674750
17.083333	1	1.657500
17.100000	1	1.640875
17.116667	1	1.625500
17.133333	1	1.609875
17.150000	1	1.595125
17.166667	1	1.580875
17.183333	1	1.568375
17.200000	1	1.556625
17.216667	1	1.544875
17.233333	1	1.534250
17.250000	1	1.524250
17.266667	1	1.515000
17.283333	1	1.506625
17.300000	1	1.498625
17.316667	1	1.491375
17.333333	1	1.484125
17.350000	1	1.477875
17.366667	1	1.472000
17.383333	1	1.466500
17.400000	1	1.461375
17.416667	1	1.457250
17.433333	1	1.452875
17.450000	1	1.449625
17.466667	1	1.446875
17.483333	1	1.446000
17.500000	1	1.445875
17.516667	1	1.446625
17.533333	1	1.449500
17.550000	1	1.454000
17.566667	1	1.459375
17.583333	1	1.466625
17.600000	1	1.475750
17.616667	1	1.485875
17.633333	1	1.497625
17.650000	1	1.510750
17.666667	1	1.524875
17.683333	1	1.540500
17.700000	1	1.557875
17.716667	1	1.576125
17.733333	1	1.595125
17.750000	1	1.615375
17.766667	1	1.635625
17.783333	1	1.657375
17.800000	1	1.679125
17.816667	1	1.701750
17.833333	1	1.724375
17.850000	1	1.747500
17.866667	1	1.770000
17.883333	1	1.792625
17.900000	1	1.815250
17.916667	1	1.837750
17.933333	1	1.858125
17.950000	1	1.878000
17.966667	1	1.896375
17.983333	1	1.912875
18.000000	1	1.928125
18.016667	1	1.942250
18.033333	1	1.954000
18.050000	1	1.964250
18.066667	1	1.971625
18.083333	1	1.977500
18.100000	1	1.981125
18.116667	1	1.982750
18.133333	1	1.982500
18.150000	1	1.979625
18.166667	1	1.973625
18.183333	1	1.965875
18.200000	1	1.956625
18.216667	1	1.944500
18.233333	1	1.931375
18.250000	1	1.916000
18.266667	1	1.899375
18.283333	1	1.880750
18.300000	1	1.861625
18.316667	1	1.840500
18.333333	1	1.818250
18.350000	1	1.795625
18.366667	1	1.772000
18.383333	1	1.748000
18.400000	1	1.724250
18.416667	1	1.699875
18.433333	1	1.675750
18.450000	1	1.652125
18.466667	1	1.628500
18.483333	1	1.604750
18.500000	1	1.581250
18.516667	1	1.559000
18.533333	1	1.537250
18.550000	1	1.516125
18.566667	1	1.495250
18.583333	1	1.474750
18.600000	1	1.454875
18.616667	1	1.435875
18.633333	1	1.417625
18.650000	1	1.399750
18.666667	1	1.382375
18.683333	1	1.366250
18.700000	1	1.350250
18.716667	1	1.335000
18.733333	1	1.320250
18.750000	1	1.306625
18.766667	1	1.294250
18.783333	1	1.282750
18.800000	1	1.271750
18.816667	1	1.262375
18.833333	1	1.254000
18.850000	1	1.247125
18.866667	1	1.242250
18.883333	1	1.239500
18.900000	1	1.238250
18.916667	1	1.238875
18.933333	1	1.241500
18.950000	1	1.246625
18.966667	1	1.254250
18.983333	1	1.263625
19.000000	1	1.275250
19.016667	1	1.288500
19.033333	1	1.303875
19.050000	1	1.321000
19.066667	1	1.338875
19.083333	1	1.358750
19.100000	1	1.379500
19.116667	1	1.401000
19.133333	1	1.424875
19.150000	1	1.448875
19.166667	1	1.474500
19.183333	1	1.500750
19.200000	1	1.528500
19.216667	1	1.556000
19.233333	1	1.584625
19.250000	1	1.612875
19.266667	1	1.642875
19.283333	1	1.672625
19.300000	1	1.702500
19.316667	1	1.730875
19.333333	1	1.758625
19.350000	1	1.785375
19.366667	1	1.811500
19.383333	1	1.835250
19.400000	1	1.856625
19.416667	1	1.875625
19.433333	1	1.892125
19.450000	1	1.907500
19.466667	1	1.918125
19.483333	1	1.927125
19.500000	1	1.932500
19.516667	1	1.934625
19.533333	1	1.933375
19.550000	1	1.927750
19.566667	1	1.918375
19.583333	1	1.905750
19.600000	1	1.889375
19.616667	1	1.870000
19.633333	1	1.847875
19.650000	1	1.823500
19.666667	1	1.796875
19.683333	1	1.768500
19.700000	1	1.738250
19.716667	1	1.706875
19.733333	1	1.675250
19.750000	1	1.642625
19.766667	1	1.610375
19.783333	1	1.578625
19.800000	1	1.547500
19.816667	1	1.516625
19.833333	1	1.488625
19.850000	1	1.461875
19.866667	1	1.437500
19.883333	1	1.415750
19.900000	1	1.397125
19.916667	1	1.381375
19.933333	1	1.369875
19.950000	1	1.361750
19.966667	1	1.357625
19.983333	1	1.358750
20.000000	1	1.364000
20.016667	1	1.373875
20.033333	1	1.390125
20.050000	1	1.413125
20.066667	1	1.442625
20.083333	1	1.479625
20.100000	1	1.524750
20.116667	1	1.578375
20.133333	1	1.640750
20.150000	1	1.712125
20.166667	1	1.792875
20.183333	1	1.881875
20.200000	1	1.978125
20.216667	1	2.081250
20.233333	1	2.189625
20.250000	1	2.301750
20.266667	1	2.416375
20.283333	1	2.533375
20.300000	1	2.650500
20.316667	1	2.767375
20.333333	1	2.883875
20.350000	1	3.000625
20.366667	1	3.118000
20.383333	1	3.236875
20.400000	1	3.358625
20.416667	1	3.483875
20.433333	1	3.612250
20.450000	1	3.745750
20.466667	1	3.883625
20.483333	1	4.025375
20.500000	1	4.170250
20.516667	1	4.318500
20.533333	1	4.467750
20.550000	1	4.616375
20.566667	1	4.763500
20.583333	1	4.907125
20.600000	1	5.044750
20.616667	1	5.175125
20.633333	1	5.296500
20.650000	1	5.407125
20.666667	1	5.504875
20.683333	1	5.588125
20.700000	1	5.654500
20.716667	1	5.703375
20.733333	1	5.733125
20.750000	1	5.741625
20.766667	1	5.727875
20.783333	1	5.691250
20.800000	1	5.630375
20.816667	1	5.547125
20.833333	1	5.442125
20.850000	1	5.316000
20.866667	1	5.170000
20.883333	1	5.006625
20.900000	1	4.829875
20.916667	1	4.641000
20.933333	1	4.444125
20.950000	1	4.242250
20.966667	1	4.039250
20.983333	1	3.837875
21.000000	1	3.640250
21.016667	1	3.448375
21.033333	1	3.266000
21.050000	1	3.093375
21.066667	1	2.930500
21.083333	1	2.780500
21.100000	1	2.641625
21.116667	1	2.513625
21.133333	1	2.396500
21.150000	1	2.289250
21.166667	1	2.191750
21.183333	1	2.101750
21.200000	1	2.019625
21.216667	1	1.944500
21.233333	1	1.874375
21.250000	1	1.809000
21.266667	1	1.746625
21.283333	1	1.687625
21.300000	1	1.630875
21.316667	1	1.575875
21.333333	1	1.522000
21.350000	1	1.470000
21.366667	1	1.418625
21.383333	1	1.368000
21.400000	1	1.319000
21.416667	1	1.271750
21.433333	1	1.226000
21.450000	1	1.182375
21.466667	1	1.140375
21.483333	1	1.100625
21.500000	1	1.064250
21.516667	1	1.029375
21.533333	1	0.997625
21.550000	1	0.968375
21.566667	1	0.941750
21.583333	1	0.917625
21.600000	1	0.896375
21.616667	1	0.877875
21.633333	1	0.862375
21.650000	1	0.849375
21.666667	1	0.838375
21.683333	1	0.829500
21.700000	1	0.823375
21.716667	1	0.819250
21.733333	1	0.816875
21.750000	1	0.815500
21.766667	1	0.815750
21.783333	1	0.817375
21.800000	1	0.821000
21.816667	1	0.825750
21.833333	1	0.831125
21.850000	1	0.837000
21.866667	1	0.843875
21.883333	1	0.851500
21.900000	1	0.860125
21.916667	1	0.869750
21.933333	1	0.879500
21.950000	1	0.889500
21.966667	1	0.901125
21.983333	1	0.913375
22.000000	1	0.925875
22.016667	1	0.939000
22.033333	1	0.952500
22.050000	1	0.966000
22.066667	1	0.980125
22.083333	1	0.993625
22.100000	1	1.007375
22.116667	1	1.020250
22.133333	1	1.032625
22.150000	1	1.044000
22.166667	1	1.054250
22.183333	1	1.063500
22.200000	1	1.072125
22.216667	1	1.078500
22.233333	1	1.082500
22.250000	1	1.085500
22.266667	1	1.086125
22.283333	1	1.084750
22.300000	1	1.081000
22.316667	1	1.074875
22.333333	1	1.067625
22.350000	1	1.057375
22.366667	1	1.045875
22.383333	1	1.032875
22.400000	1	1.017500
22.416667	1	1.001500
22.433333	1	0.985000
22.450000	1	0.967250
22.466667	1	0.949250
22.483333	1	0.931500
22.500000	1	0.914125
22.516667	1	0.897125
22.533333	1	0.880000
22.550000	1	0.864125
22.566667	1	0.849000
22.583333	1	0.835125
22.600000	1	0.821625
22.616667	1	0.810500
22.633333	1	0.800125
22.650000	1	0.791375
22.666667	1	0.783500
22.683333	1	0.777000
22.700000	1	0.773000
22.716667	1	0.768000
22.733333	1	0.765625
22.750000	1	0.763250
22.766667	1	0.761625
22.783333	1	0.760625
22.800000	1	0.760000
22.816667	1	0.759875
22.833333	1	0.759750
22.850000	1	0.760000
22.866667	1	0.759125
22.883333	1	0.759125
22.900000	1	0.758625
22.916667	1	0.758250
22.933333	1	0.756750
22.950000	1	0.755125
22.966667	1	0.753500
22.983333	1	0.751000
23.000000	1	0.748500
23.016667	1	0.745000
23.033333	1	0.741125
23.050000	1	0.736375
23.066667	1	0.731375
23.083333	1	0.725875
23.100000	1	0.719750
23.116667	1	0.713000
23.133333	1	0.705750
23.150000	1	0.698125
23.166667	1	0.689500
23.183333	1	0.681250
23.200000	1	0.671875
23.216667	1	0.662500
23.233333	1	0.653000
23.250000	1	0.643000
23.266667	1	0.632875
23.283333	1	0.623500
23.300000	1	0.614375
23.316667	1	0.606250
23.333333	1	0.598125
23.350000	1	0.589875
23.366667	1	0.582375
23.383333	1	0.576625
23.400000	1	0.572125
23.416667	1	0.569000
23.433333	1	0.568250
23.450000	1	0.568875
23.466667	1	0.571500
23.483333	1	0.576000
23.500000	1	0.583750
23.516667	1	0.594500
23.533333	1	0.608000
23.550000	1	0.624250
23.566667	1	0.644250
23.583333	1	0.667750
23.600000	1	0.693750
23.616667	1	0.722625
23.633333	1	0.754750
23.650000	1	0.789375
23.666667	1	0.826500
23.683333	1	0.865500
23.700000	1	0.906625
23.716667	1	0.949875
23.733333	1	0.994750
23.750000	1	1.039875
23.766667	1	1.087375
23.783333	1	1.136500
23.800000	1	1.186875
23.816667	1	1.239000
23.833333	1	1.292375
23.850000	1	1.348125
23.866667	1	1.404750
23.883333	1	1.463250
23.900000	1	1.523250
23.916667	1	1.584625
23.933333	1	1.647875
23.950000	1	1.711125
23.966667	1	1.775125
23.983333	1	1.839250
24.000000	1	1.903375
24.016667	1	1.966375
24.033333	1	2.027250
24.050000	1	2.085875
24.066667	1	2.141750
24.083333	1	2.193875
24.100000	1	2.241500
24.116667	1	2.284500
24.133333	1	2.322375
24.150000	1	2.353750
24.166667	1	2.377750
24.183333	1	2.395625
24.200000	1	2.406250
24.216667	1	2.408625
24.233333	1	2.403250
24.250000	1	2.389250
24.266667	1	2.367375
24.283333	1	2.337625
24.300000	1	2.300375
24.316667	1	2.256125
24.333333	1	2.204500
24.350000	1	2.147000
24.366667	1	2.084250
24.383333	1	2.017875
24.400000	1	1.948500
24.416667	1	1.876750
24.433333	1	1.803875
24.450000	1	1.730625
24.466667	1	1.658000
24.483333	1	1.586750
24.500000	1	1.518125
24.516667	1	1.451750
24.533333	1	1.389625
24.550000	1	1.330750
24.566667	1	1.276875
24.583333	1	1.227000
24.600000	1	1.181875
24.616667	1	1.141250
24.633333	1	1.104250
24.650000	1	1.071500
24.666667	1	1.043375
24.683333	1	1.018625
24.700000	1	0.996875
24.716667	1	0.978250
24.733333	1	0.962250
24.750000	1	0.948125
24.766667	1	0.935500
24.783333	1	0.924375
24.800000	1	0.914875
24.816667	1	0.905500
24.833333	1	0.897375
24.850000	1	0.888500
24.866667	1	0.879750
24.883333	1	0.871000
24.900000	1	0.861250
24.916667	1	0.851250
24.933333	1	0.840625
24.950000	1	0.828750
24.966667	1	0.816625
24.983333	1	0.803500
25.000000	1	0.788250
25.016667	1	0.771750
25.033333	1	0.755125
25.050000	1	0.737500
25.066667	1	0.718625
25.083333	1	0.699500
25.100000	1	0.680375
25.116667	1	0.661125
25.133333	1	0.640250
25.150000	1	0.620125
25.166667	1	0.600625
25.183333	1	0.580375
25.200000	1	0.560500
25.216667	1	0.542125
25.233333	1	0.524500
25.250000	1	0.507125
25.266667	1	0.490375
25.283333	1	0.474625
25.300000	1	0.459375
25.316667	1	0.444875
25.333333	1	0.432250
25.350000	1	0.421000
25.366667	1	0.410000
25.383333	1	0.401000
25.400000	1	0.393500
25.416667	1	0.385750
25.433333	1	0.380000
25.450000	1	0.374875
25.466667	1	0.370250
25.483333	1	0.366875
25.500000	1	0.364375
25.516667	1	0.362250
25.533333	1	0.361125
25.550000	1	0.360875
25.566667	1	0.361000
25.583333	1	0.361750
25.600000	1	0.362625
25.616667	1	0.365125
25.633333	1	0.367250
25.650000	1	0.369875
25.666667	1	0.372500
25.683333	1	0.375500
25.700000	1	0.377625
25.716667	1	0.381125
25.733333	1	0.384000
25.750000	1	0.387500
25.766667	1	0.390875
25.783333	1	0.394125
25.800000	1	0.397125
25.816667	1	0.400750
25.833333	1	0.404375
25.850000	1	0.407750
25.866667	1	0.411125
25.883333	1	0.414750
25.900000	1	0.418125
25.916667	1	0.421750
25.933333	1	0.425125
25.950000	1	0.428500
25.966667	1	0.431500
25.983333	1	0.434625
26.000000	1	0.437750
26.016667	1	0.440875
26.033333	1	0.444125
26.050000	1	0.447125
26.066667	1	0.450500
26.083333	1	0.453625
26.100000	1	0.456250
26.116667	1	0.459875
26.133333	1	0.463750
26.150000	1	0.467250
26.166667	1	0.470125
26.183333	1	0.473625
26.200000	1	0.477250
26.216667	1	0.481000
26.233333	1	0.485250
26.250000	1	0.489000
26.266667	1	0.492625
26.283333	1	0.496625
26.300000	1	0.501375
26.316667	1	0.505000
26.333333	1	0.508250
26.350000	1	0.512375
26.366667	1	0.516250
26.383333	1	0.519500
26.400000	1	0.522750
26.416667	1	0.526375
26.433333	1	0.530375
26.450000	1	0.534000
26.466667	1	0.537500
26.483333	1	0.540500
26.500000	1	0.543250
26.516667	1	0.545875
26.533333	1	0.548125
26.550000	1	0.550250
26.566667	1	0.552750
26.583333	1	0.554625
26.600000	1	0.556000
26.616667	1	0.557250
26.633333	1	0.558000
26.650000	1	0.558625
26.666667	1	0.558750
26.683333	1	0.558875
26.700000	1	0.558500
26.716667	1	0.557375
26.733333	1	0.556250
26.750000	1	0.555125
26.766667	1	0.552500
26.783333	1	0.549375
26.800000	1	0.545750
26.816667	1	0.541875
26.833333	1	0.537875
26.850000	1	0.533250
26.866667	1	0.527750
26.883333	1	0.522125
26.900000	1	0.515750
26.916667	1	0.509375
26.933333	1	0.502500
26.950000	1	0.495000
26.966667	1	0.487125
26.983333	1	0.478750
27.000000	1	0.470125
27.016667	1	0.461125
27.033333	1	0.452250
27.050000	1	0.443125
27.066667	1	0.433625
27.083333	1	0.424125
27.100000	1	0.415125
27.116667	1	0.405875
27.133333	1	0.396625
27.150000	1	0.387375
27.166667	1	0.378750
27.183333	1	0.370250
27.200000	1	0.362000
27.216667	1	0.354625
27.233333	1	0.347500
27.250000	1	0.340625
27.266667	1	0.334375
27.283333	1	0.328625
27.300000	1	0.323875
27.316667	1	0.320000
27.333333	1	0.316375
27.350000	1	0.314875
27.366667	1	0.314750
27.383333	1	0.315375
27.400000	1	0.318125
27.416667	1	0.322375
27.433333	1	0.328250
27.450000	1	0.335875
27.466667	1	0.345750
27.483333	1	0.357875
27.500000	1	0.371625
27.516667	1	0.388375
27.533333	1	0.408750
27.550000	1	0.432750
27.566667	1	0.459000
27.583333	1	0.488875
27.600000	1	0.521375
27.616667	1	0.557625
27.633333	1	0.598000
27.650000	1	0.640375
27.666667	1	0.686000
27.683333	1	0.734625
27.700000	1	0.786000
27.716667	1	0.839875
27.733333	1	0.896500
27.750000	1	0.955375
27.766667	1	1.016125
27.783333	1	1.077500
27.800000	1	1.140750
27.816667	1	1.205125
27.833333	1	1.271125
27.850000	1	1.337625
27.866667	1	1.404875
27.883333	1	1.473875
27.900000	1	1.543375
27.916667	1	1.614625
27.933333	1	1.686000
27.950000	1	1.758750
27.966667	1	1.832625
27.983333	1	1.906750
28.000000	1	1.981500
28.016667	1	2.057500
28.033333	1	2.134000
28.050000	1	2.210125
28.066667	1	2.286375
28.083333	1	2.362250
28.100000	1	2.437625
28.116667	1	2.512125
28.133333	1	2.584750
28.150000	1	2.655750
28.166667	1	2.723625
28.183333	1	2.789000
28.200000	1	2.851500
28.216667	1	2.910375
28.233333	1	2.965000
28.250000	1	3.014375
28.266667	1	3.059375
28.283333	1	3.099250
28.300000	1	3.133875
28.316667	1	3.163000
28.333333	1	3.185875
28.350000	1	3.201500
28.366667	1	3.210000
28.383333	1	3.211250
28.400000	1	3.204875
28.416667	1	3.190375
28.433333	1	3.167875
28.450000	1	3.136625
28.466667	1	3.097000
28.483333	1	3.048125
28.500000	1	2.991625
28.516667	1	2.926375
28.533333	1	2.853500
28.550000	1	2.772375
28.566667	1	2.683625
28.583333	1	2.589250
28.600000	1	2.488250
28.616667	1	2.382125
28.633333	1	2.271000
28.650000	1	2.156625
28.666667	1	2.040000
28.683333	1	1.921875
28.700000	1	1.804375
28.716667	1	1.687375
28.733333	1	1.572375
28.750000	1	1.460250
28.766667	1	1.351500
28.783333	1	1.246750
28.800000	1	1.147375
28.816667	1	1.053500
28.833333	1	0.964500
28.850000	1	0.882125
28.866667	1	0.806250
28.883333	1	0.735750
28.900000	1	0.671875
28.916667	1	0.613875
28.933333	1	0.560750
28.950000	1	0.513500
28.966667	1	0.471250
28.983333	1	0.433250
29.000000	1	0.400500
29.016667	1	0.372000
29.033333	1	0.346375
29.050000	1	0.325625
29.066667	1	0.307125
29.083333	1	0.290875
29.100000	1	0.277625
29.116667	1	0.266000
29.133333	1	0.256625
29.150000	1	0.249500
29.166667	1	0.244375
29.183333	1	0.240375
29.200000	1	0.237125
29.216667	1	0.235875
29.233333	1	0.235500
29.250000	1	0.236500
29.266667	1	0.238000
29.283333	1	0.240625
29.300000	1	0.244000
29.316667	1	0.248500
29.333333	1	0.253500
29.350000	1	0.259625
29.366667	1	0.266000
29.383333	1	0.272500
29.400000	1	0.280625
29.416667	1	0.288125
29.433333	1	0.296250
29.450000	1	0.304875
29.466667	1	0.314375
29.483333	1	0.324000
29.500000	1	0.333375
29.516667	1	0.343750
29.533333	1	0.354125
29.550000	1	0.364750
29.566667	1	0.375500
29.583333	1	0.386500
29.600000	1	0.397750
29.616667	1	0.408875
29.633333	1	0.419875
29.650000	1	0.430500
29.666667	1	0.441500
29.683333	1	0.452250
29.700000	1	0.463125
29.716667	1	0.473500
29.733333	1	0.483500
29.750000	1	0.493625
29.766667	1	0.504000
29.783333	1	0.513625
29.800000	1	0.523250
29.816667	1	0.532375
29.833333	1	0.541000
29.850000	1	0.549250
29.866667	1	0.557875
29.883333	1	0.565750
29.900000	1	0.572875
29.916667	1	0.579750
29.933333	1	0.585750
29.950000	1	0.591625
29.966667	1	0.597000
29.983333	1	0.602125
30.000000	1	0.606250
30.016667	1	0.610500
30.033333	1	0.614500
30.050000	1	0.617625
30.066667	1	0.620500
30.083333	1	0.622500
30.100000	1	0.623875
30.116667	1	0.624625
30.133333	1	0.624875
30.150000	1	0.624500
30.166667	1	0.624125
30.183333	1	0.623500
30.200000	1	0.621875
30.216667	1	0.619375
30.233333	1	0.616875
30.250000	1	0.613875
30.266667	1	0.610750
30.283333	1	0.607625
30.300000	1	0.603625
30.316667	1	0.599625
30.333333	1	0.595000
30.350000	1	0.590250
30.366667	1	0.585750
30.383333	1	0.580375
30.400000	1	0.575500
30.416667	1	0.570125
30.433333	1	0.565125
30.450000	1	0.560500
30.466667	1	0.555500
30.483333	1	0.551000
30.500000	1	0.546375
30.516667	1	0.542625
30.533333	1	0.538125
30.550000	1	0.534250
30.566667	1	0.530625
30.583333	1	0.527000
30.600000	1	0.524250
30.616667	1	0.521750
30.633333	1	0.518875
30.650000	1	0.516250
30.666667	1	0.513875
30.683333	1	0.512625
30.700000	1	0.511375
30.716667	1	0.510500
30.733333	1	0.510375
30.750000	1	0.510250
30.766667	1	0.510750
30.783333	1	0.510250
30.800000	1	0.510875
30.816667	1	0.511875
30.833333	1	0.513500
30.850000	1	0.514375
30.866667	1	0.516125
30.883333	1	0.518250
30.900000	1	0.521125
30.916667	1	0.523625
30.933333	1	0.526625
30.950000	1	0.529875
30.966667	1	0.533125
30.983333	1	0.537125
31.000000	1	0.540875
31.016667	1	0.544750
31.033333	1	0.547875
31.050000	1	0.551000
31.066667	1	0.554625
31.083333	1	0.558750
31.100000	1	0.563125
31.116667	1	0.567500
31.133333	1	0.570875
31.150000	1	0.574875
31.166667	1	0.577500
31.183333	1	0.580375
31.200000	1	0.583000
31.216667	1	0.585875
31.233333	1	0.587875
31.250000	1	0.589750
31.266667	1	0.590875
31.283333	1	0.592000
31.300000	1	0.592250
31.316667	1	0.591500
31.333333	1	0.591250
31.350000	1	0.590750
31.366667	1	0.589375
31.383333	1	0.587000
31.400000	1	0.584875
31.416667	1	0.582125
31.433333	1	0.578625
31.450000	1	0.574250
31.466667	1	0.570750
31.483333	1	0.566750
31.500000	1	0.562125
31.516667	1	0.557125
31.533333	1	0.552125
31.550000	1	0.547250
31.566667	1	0.541750
31.583333	1	0.537250
31.600000	1	0.532125
31.616667	1	0.527125
31.633333	1	0.522875
31.650000	1	0.519000
31.666667	1	0.514750
31.683333	1	0.511375
31.700000	1	0.508000
31.716667	1	0.505000
31.733333	1	0.503500
31.750000	1	0.501500
31.766667	1	0.500375
31.783333	1	0.499375
31.800000	1	0.498375
31.816667	1	0.499125
31.833333	1	0.499500
31.850000	1	0.500500
31.866667	1	0.501375
31.883333	1	0.502875
31.900000	1	0.504875
31.916667	1	0.507750
31.933333	1	0.511375
31.950000	1	0.514500
31.966667	1	0.518375
31.983333	1	0.521875
32.000000	1	0.525625
32.016667	1	0.530250
32.033333	1	0.535375
32.050000	1	0.540500
32.066667	1	0.545000
32.083333	1	0.550375
32.100000	1	0.555750
32.116667	1	0.561625
32.133333	1	0.567250
32.150000	1	0.572625
32.166667	1	0.577875
32.183333	1	0.583375
32.200000	1	0.589000
32.216667	1	0.594875
32.233333	1	0.600750
32.250000	1	0.606250
32.266667	1	0.611375
32.283333	1	0.616625
32.300000	1	0.621500
32.316667	1	0.625750
32.333333	1	0.630000
32.350000	1	0.634125
32.366667	1	0.637750
32.383333	1	0.641000
32.400000	1	0.643625
32.416667	1	0.645875
32.433333	1	0.647625
32.450000	1	0.649000
32.466667	1	0.649750
32.483333	1	0.650000
32.500000	1	0.650125
32.516667	1	0.649500
32.533333	1	0.648000
32.550000	1	0.646000
32.566667	1	0.643250
32.583333	1	0.640500
32.600000	1	0.636375
32.616667	1	0.632250
32.633333	1	0.627000
32.650000	1	0.620875
32.666667	1	0.614500
32.683333	1	0.607000
32.700000	1	0.598500
32.716667	1	0.589375
32.733333	1	0.580875
32.750000	1	0.571375
32.766667	1	0.561000
32.783333	1	0.550250
32.800000	1	0.538875
32.816667	1	0.526750
32.833333	1	0.514375
32.850000	1	0.501250
32.866667	1	0.488250
32.883333	1	0.475125
32.900000	1	0.461875
32.916667	1	0.447375
32.933333	1	0.433000
32.950000	1	0.418875
32.966667	1	0.404875
32.983333	1	0.390625
33.000000	1	0.376250
33.016667	1	0.362500
33.033333	1	0.348125
33.050000	1	0.333875
33.066667	1	0.320375
33.083333	1	0.306375
33.100000	1	0.294000
33.116667	1	0.280875
33.133333	1	0.268125
33.150000	1	0.255250
33.166667	1	0.243000
33.183333	1	0.231875
33.200000	1	0.220250
33.216667	1	0.209875
33.233333	1	0.199875
33.250000	1	0.190125
33.266667	1	0.180625
33.283333	1	0.171500
33.300000	1	0.162500
33.316667	1	0.154500
33.333333	1	0.146875
33.350000	1	0.140250
33.366667	1	0.133625
33.383333	1	0.127625
33.400000	1	0.121375
33.416667	1	0.116625
33.433333	1	0.111875
33.450000	1	0.107125
33.466667	1	0.103250
33.483333	1	0.100250
33.500000	1	0.096625
33.516667	1	0.093500
33.533333	1	0.090375
33.550000	1	0.087875
33.566667	1	0.085500
33.583333	1	0.083500
33.600000	1	0.082500
33.616667	1	0.081625
33.633333	1	0.081125
33.650000	1	0.080875
33.666667	1	0.080500
33.683333	1	0.080625
33.700000	1	0.080750
33.716667	1	0.081125
33.733333	1	0.082000
33.750000	1	0.083125
33.766667	1	0.084625
33.783333	1	0.086500
33.800000	1	0.089375
33.816667	1	0.092375
33.833333	1	0.095375
33.850000	1	0.099000
33.866667	1	0.103125
33.883333	1	0.107125
33.900000	1	0.111625
33.916667	1	0.116500
33.933333	1	0.122125
33.950000	1	0.127750
33.966667	1	0.133875
33.983333	1	0.140125
34.000000	1	0.146500
34.016667	1	0.154000
34.033333	1	0.162375
34.050000	1	0.170500
34.066667	1	0.178875
34.083333	1	0.187500
34.100000	1	0.197000
34.116667	1	0.206000
34.133333	1	0.215625
34.150000	1	0.225875
34.166667	1	0.236000
34.183333	1	0.245750
34.200000	1	0.256750
34.216667	1	0.267125
34.233333	1	0.278125
34.250000	1	0.289250
34.266667	1	0.301875
34.283333	1	0.314625
34.300000	1	0.327500
34.316667	1	0.339750
34.333333	1	0.352625
34.350000	1	0.365625
34.366667	1	0.378750
34.383333	1	0.391875
34.400000	1	0.405250
34.416667	1	0.417625
34.433333	1	0.431750
34.450000	1	0.445750
34.466667	1	0.458750
34.483333	1	0.472500
34.500000	1	0.486000
34.516667	1	0.498500
34.533333	1	0.511000
34.550000	1	0.522625
34.566667	1	0.534375
34.583333	1	0.545875
34.600000	1	0.557000
34.616667	1	0.567000
34.633333	1	0.576875
34.650000	1	0.586125
34.666667	1	0.594750
34.683333	1	0.602000
34.700000	1	0.607625
34.716667	1	0.613500
34.733333	1	0.617875
34.750000	1	0.621250
34.766667	1	0.623625
34.783333	1	0.625000
34.800000	1	0.625375
34.816667	1	0.624125
34.833333	1	0.621250
34.850000	1	0.618000
34.866667	1	0.613500
34.883333	1	0.608000
34.900000	1	0.600750
34.916667	1	0.592125
34.933333	1	0.582625
34.950000	1	0.572000
34.966667	1	0.559875
34.983333	1	0.547375
35.000000	1	0.534375
35.016667	1	0.520000
35.033333	1	0.505625
35.050000	1	0.490750
35.066667	1	0.475125
35.083333	1	0.459375
35.100000	1	0.443250
35.116667	1	0.426875
35.133333	1	0.410250
35.150000	1	0.394500
35.166667	1	0.378000
35.183333	1	0.362250
35.200000	1	0.346625
35.216667	1	0.331125
35.233333	1	0.316000
35.250000	1	0.301500
35.266667	1	0.287750
35.283333	1	0.274500
35.300000	1	0.261875
35.316667	1	0.249750
35.333333	1	0.238750
35.350000	1	0.228625
35.366667	1	0.218375
35.383333	1	0.209500
35.400000	1	0.200750
35.416667	1	0.193500
35.433333	1	0.186875
35.450000	1	0.179875
35.466667	1	0.174125
35.483333	1	0.169125
35.500000	1	0.164625
35.516667	1	0.160750
35.533333	1	0.157125
35.550000	1	0.154250
35.566667	1	0.151500
35.583333	1	0.149250
35.600000	1	0.147625
35.616667	1	0.147000
35.633333	1	0.146125
35.650000	1	0.146125
35.666667	1	0.146250
35.683333	1	0.146375
35.700000	1	0.147250
35.716667	1	0.148125
35.733333	1	0.148875
35.750000	1	0.150250
35.766667	1	0.151875
35.783333	1	0.153625
35.800000	1	0.155250
35.816667	1	0.157625
35.833333	1	0.160375
35.850000	1	0.162875
35.866667	1	0.165250
35.883333	1	0.168125
35.900000	1	0.170125
35.916667	1	0.173625
35.933333	1	0.176500
35.950000	1	0.179000
35.966667	1	0.182000
35.983333	1	0.185000
36.000000	1	0.189000
36.016667	1	0.193000
36.033333	1	0.196375
36.050000	1	0.199500
36.066667	1	0.202750
36.083333	1	0.205375
36.100000	1	0.208875
36.116667	1	0.212500
36.133333	1	0.215250
36.150000	1	0.218625
36.166667	1	0.221750
36.183333	1	0.225250
36.200000	1	0.228375
36.216667	1	0.231250
36.233333	1	0.233875
36.250000	1	0.237625
36.266667	1	0.241125
36.283333	1	0.244625
36.300000	1	0.247375
36.316667	1	0.250500
36.333333	1	0.253750
36.350000	1	0.257125
36.366667	1	0.259625
36.383333	1	0.262500
36.400000	1	0.265000
36.416667	1	0.268750
36.433333	1	0.271625
36.450000	1	0.274750
36.466667	1	0.277250
36.483333	1	0.280250
36.500000	1	0.282375
36.516667	1	0.284375
36.533333	1	0.286375
36.550000	1	0.288500
36.566667	1	0.290125
36.583333	1	0.292375
36.600000	1	0.294125
36.616667	1	0.295375
36.633333	1	0.296875
36.650000	1	0.298000
36.666667	1	0.298750
36.683333	1	0.299750
36.700000	1	0.300250
36.716667	1	0.300750
36.733333	1	0.300500
36.750000	1	0.300250
36.766667	1	0.298750
36.783333	1	0.298375
36.800000	1	0.297375
36.816667	1	0.295750
36.833333	1	0.294250
36.850000	1	0.292125
36.866667	1	0.290500
36.883333	1	0.288625
36.900000	1	0.286125
36.916667	1	0.284125
36.933333	1	0.280750
36.950000	1	0.277375
36.966667	1	0.273750
36.983333	1	0.270500
37.000000	1	0.266875
37.016667	1	0.263250
37.033333	1	0.259250
37.050000	1	0.255000
37.066667	1	0.250750
37.083333	1	0.246250
37.100000	1	0.242500
37.116667	1	0.237750
37.133333	1	0.233125
37.150000	1	0.227875
37.166667	1	0.222500
37.183333	1	0.216875
37.200000	1	0.211875
37.216667	1	0.205875
37.233333	1	0.201125
37.250000	1	0.195875
37.266667	1	0.190750
37.283333	1	0.185625
37.300000	1	0.179625
37.316667	1	0.174125
37.333333	1	0.168625
37.350000	1	0.162750
37.366667	1	0.156875
37.383333	1	0.151625
37.400000	1	0.145750
37.416667	1	0.139625
37.433333	1	0.134000
37.450000	1	0.129000
37.466667	1	0.123000
37.483333	1	0.117250
37.500000	1	0.111000
37.516667	1	0.105625
37.533333	1	0.099875
37.550000	1	0.094625
37.566667	1	0.089500
37.583333	1	0.085000
37.600000	1	0.079750
37.616667	1	0.075250
37.633333	1	0.069875
37.650000	1	0.065500
37.666667	1	0.060500
37.683333	1	0.056000
37.700000	1	0.051750
37.716667	1	0.048000
37.733333	1	0.044500
37.750000	1	0.041375
37.766667	1	0.037625
37.783333	1	0.034625
37.800000	1	0.031500
37.816667	1	0.028625
37.833333	1	0.025500
37.850000	1	0.022875
37.866667	1	0.020875
37.883333	1	0.018500
37.900000	1	0.016625
37.916667	1	0.014125
37.933333	1	0.012250
37.950000	1	0.010750
37.966667	1	0.010000
37.983333	1	0.009125
38.000000	1	0.008375
38.016667	1	0.007625
38.033333	1	0.007000
38.050000	1	0.006250
38.066667	1	0.006500
38.083333	1	0.006500
38.100000	1	0.006500
38.116667	1	0.006750
38.133333	1	0.006875
38.150000	1	0.007375
38.166667	1	0.007625
38.183333	1	0.007500
38.200000	1	0.008000
38.216667	1	0.008500
38.233333	1	0.009125
38.250000	1	0.010375
38.266667	1	0.011250
38.283333	1	0.012250
38.300000	1	0.013500
38.316667	1	0.014250
38.333333	1	0.015125
38.350000	1	0.016250
38.366667	1	0.017625
38.383333	1	0.018750
38.400000	1	0.020000
38.416667	1	0.021000
38.433333	1	0.022375
38.450000	1	0.024125
38.466667	1	0.025000
38.483333	1	0.026000
38.500000	1	0.026875
38.516667	1	0.028500
38.533333	1	0.029750
38.550000	1	0.030750
38.566667	1	0.031750
38.583333	1	0.032625
38.600000	1	0.034125
38.616667	1	0.035875
38.633333	1	0.036625
38.650000	1	0.037125
38.666667	1	0.037750
38.683333	1	0.038250
38.700000	1	0.039125
38.716667	1	0.040125
38.733333	1	0.040750
38.750000	1	0.041125
38.766667	1	0.041375
38.783333	1	0.042125
38.800000	1	0.042375
38.816667	1	0.043000
38.833333	1	0.043750
38.850000	1	0.043500
38.866667	1	0.043625
38.883333	1	0.043500
38.900000	1	0.043875
38.916667	1	0.043500
38.933333	1	0.043125
38.950000	1	0.042750
38.966667	1	0.042750
38.983333	1	0.042500
39.000000	1	0.041625
39.016667	1	0.041625
39.033333	1	0.040750
39.050000	1	0.041125
39.066667	1	0.041000
39.083333	1	0.040625
39.100000	1	0.040250
39.116667	1	0.040250
39.133333	1	0.039625
39.150000	1	0.040250
39.166667	1	0.040000
39.183333	1	0.039375
39.200000	1	0.039500
39.216667	1	0.039500
39.233333	1	0.039250
39.250000	1	0.038625
39.266667	1	0.038250
39.283333	1	0.038000
39.300000	1	0.038250
39.316667	1	0.038000
39.333333	1	0.037750
39.350000	1	0.037375
39.366667	1	0.037250
39.383333	1	0.037250
39.400000	1	0.037000
39.416667	1	0.036625
39.433333	1	0.036750
39.450000	1	0.037375
39.466667	1	0.038125
39.483333	1	0.038500
39.500000	1	0.039125
39.516667	1	0.039625
39.533333	1	0.039875
39.550000	1	0.040250
39.566667	1	0.040875
39.583333	1	0.041625
39.600000	1	0.042875
39.616667	1	0.043250
39.633333	1	0.043750
39.650000	1	0.044750
39.666667	1	0.046500
39.683333	1	0.047125
39.700000	1	0.048750
39.716667	1	0.050375
39.733333	1	0.051625
39.750000	1	0.052875
39.766667	1	0.054250
39.783333	1	0.055625
39.800000	1	0.057000
39.816667	1	0.058375
39.833333	1	0.060000
39.850000	1	0.061500
39.866667	1	0.062750
39.883333	1	0.064500
39.900000	1	0.066125
39.916667	1	0.067750
39.933333	1	0.069375
39.950000	1	0.071625
39.966667	1	0.073750
39.983333	1	0.075875
40.000000	1	0.078000
