URL	chrom://7040-86g6c92/XVault/Ultimate_3000/20/20240517_CMO_FP23_FP25_MarkusDeplate.seq/486.smp/RI_1.channel/RI_1.chm
Channel	RI_1

Injection Information:
Data Vault	XVault
Sequence	20240517_CMO_FP23_FP25_MarkusDeplate
Name	FP23_24_s6
Number	30
Position	BC6
Comment	
Processing Method	
Instrument Method	run_25B_method
Type	Unknown
Status	Finished
Inject Time	28.05.2024 13:50:28 +02:00
Volume (µl)	20.0000
Dilution Factor	1.0000
Weight	1.0000

Chromatogram Data Information:
Time Min. (min)	0.000000
Time Max. (min)	40.000000
Data Points	2401
Detector	RI
Generating Data System	Chromeleon 7.3.2.11814
Exporting Data System	Chromeleon 7.3.2.0
Operator	Instrument Controller
Signal Quantity	Refractive 
Signal Unit	µRIU
Signal Min.	-0.722000
Signal Max.	52.296000
Channel	RI_1
Driver Name	RID520Driver.dll
Channel Type	Evaluation
Min. Step (s)	1
Max. Step (s)	1
Average Step (s)	1

Signal Parameter Information:
Signal Info	

Chromatogram Data:
Time (min)	Step (s)	Value (µRIU)
0.000000	n.a.	0.014000
0.016667	1	0.012875
0.033333	1	0.011875
0.050000	1	0.011000
0.066667	1	0.010500
0.083333	1	0.010375
0.100000	1	0.009875
0.116667	1	0.009000
0.133333	1	0.008000
0.150000	1	0.006625
0.166667	1	0.005375
0.183333	1	0.004250
0.200000	1	0.003000
0.216667	1	0.002500
0.233333	1	0.001625
0.250000	1	0.000875
0.266667	1	0.000625
0.283333	1	0.000250
0.300000	1	-0.000625
0.316667	1	-0.001750
0.333333	1	-0.002250
0.350000	1	-0.003125
0.366667	1	-0.004500
0.383333	1	-0.005625
0.400000	1	-0.006750
0.416667	1	-0.006875
0.433333	1	-0.005875
0.450000	1	-0.004500
0.466667	1	-0.002875
0.483333	1	-0.001375
0.500000	1	0.000000
0.516667	1	0.000375
0.533333	1	0.000625
0.550000	1	0.000625
0.566667	1	-0.000750
0.583333	1	-0.002250
0.600000	1	-0.003750
0.616667	1	-0.006375
0.633333	1	-0.007750
0.650000	1	-0.009125
0.666667	1	-0.009000
0.683333	1	-0.008750
0.700000	1	-0.009250
0.716667	1	-0.008875
0.733333	1	-0.008625
0.750000	1	-0.008375
0.766667	1	-0.008375
0.783333	1	-0.007875
0.800000	1	-0.007875
0.816667	1	-0.008125
0.833333	1	-0.007875
0.850000	1	-0.007500
0.866667	1	-0.006875
0.883333	1	-0.006250
0.900000	1	-0.006000
0.916667	1	-0.005375
0.933333	1	-0.005125
0.950000	1	-0.004750
0.966667	1	-0.004625
0.983333	1	-0.004500
1.000000	1	-0.004875
1.016667	1	-0.005250
1.033333	1	-0.005000
1.050000	1	-0.005000
1.066667	1	-0.005375
1.083333	1	-0.005750
1.100000	1	-0.006500
1.116667	1	-0.006250
1.133333	1	-0.006500
1.150000	1	-0.007125
1.166667	1	-0.007000
1.183333	1	-0.007750
1.200000	1	-0.008375
1.216667	1	-0.009250
1.233333	1	-0.010500
1.250000	1	-0.011625
1.266667	1	-0.011625
1.283333	1	-0.012375
1.300000	1	-0.013125
1.316667	1	-0.013750
1.333333	1	-0.014500
1.350000	1	-0.015250
1.366667	1	-0.016000
1.383333	1	-0.017500
1.400000	1	-0.018000
1.416667	1	-0.019250
1.433333	1	-0.019750
1.450000	1	-0.020750
1.466667	1	-0.020625
1.483333	1	-0.020375
1.500000	1	-0.020750
1.516667	1	-0.020875
1.533333	1	-0.020625
1.550000	1	-0.019875
1.566667	1	-0.019500
1.583333	1	-0.020125
1.600000	1	-0.019625
1.616667	1	-0.018625
1.633333	1	-0.017625
1.650000	1	-0.016625
1.666667	1	-0.015125
1.683333	1	-0.013125
1.700000	1	-0.012250
1.716667	1	-0.011375
1.733333	1	-0.009250
1.750000	1	-0.007250
1.766667	1	-0.004500
1.783333	1	-0.002625
1.800000	1	-0.000250
1.816667	1	0.001875
1.833333	1	0.004250
1.850000	1	0.006875
1.866667	1	0.009250
1.883333	1	0.011750
1.900000	1	0.014375
1.916667	1	0.015625
1.933333	1	0.018000
1.950000	1	0.020000
1.966667	1	0.022125
1.983333	1	0.024000
2.000000	1	0.025875
2.016667	1	0.026875
2.033333	1	0.028250
2.050000	1	0.028875
2.066667	1	0.030125
2.083333	1	0.031250
2.100000	1	0.032625
2.116667	1	0.032750
2.133333	1	0.032875
2.150000	1	0.032875
2.166667	1	0.032500
2.183333	1	0.033000
2.200000	1	0.032375
2.216667	1	0.032250
2.233333	1	0.032125
2.250000	1	0.031250
2.266667	1	0.030250
2.283333	1	0.029250
2.300000	1	0.027375
2.316667	1	0.026125
2.333333	1	0.024750
2.350000	1	0.023375
2.366667	1	0.021875
2.383333	1	0.020125
2.400000	1	0.018000
2.416667	1	0.016750
2.433333	1	0.014750
2.450000	1	0.013000
2.466667	1	0.010750
2.483333	1	0.008375
2.500000	1	0.005625
2.516667	1	0.003750
2.533333	1	0.001625
2.550000	1	-0.001125
2.566667	1	-0.003250
2.583333	1	-0.006125
2.600000	1	-0.008625
2.616667	1	-0.010000
2.633333	1	-0.011500
2.650000	1	-0.013500
2.666667	1	-0.015125
2.683333	1	-0.017375
2.700000	1	-0.019375
2.716667	1	-0.021750
2.733333	1	-0.023250
2.750000	1	-0.024875
2.766667	1	-0.026625
2.783333	1	-0.028250
2.800000	1	-0.029000
2.816667	1	-0.030375
2.833333	1	-0.032125
2.850000	1	-0.032750
2.866667	1	-0.033375
2.883333	1	-0.034500
2.900000	1	-0.035500
2.916667	1	-0.036500
2.933333	1	-0.037125
2.950000	1	-0.037750
2.966667	1	-0.037875
2.983333	1	-0.037875
3.000000	1	-0.038250
3.016667	1	-0.038000
3.033333	1	-0.038250
3.050000	1	-0.037500
3.066667	1	-0.037375
3.083333	1	-0.037250
3.100000	1	-0.037500
3.116667	1	-0.037125
3.133333	1	-0.036000
3.150000	1	-0.035125
3.166667	1	-0.034500
3.183333	1	-0.034000
3.200000	1	-0.033250
3.216667	1	-0.033000
3.233333	1	-0.032000
3.250000	1	-0.030875
3.266667	1	-0.029500
3.283333	1	-0.028750
3.300000	1	-0.027625
3.316667	1	-0.026500
3.333333	1	-0.025625
3.350000	1	-0.025250
3.366667	1	-0.024375
3.383333	1	-0.024125
3.400000	1	-0.022125
3.416667	1	-0.020875
3.433333	1	-0.020375
3.450000	1	-0.019750
3.466667	1	-0.018875
3.483333	1	-0.018125
3.500000	1	-0.016750
3.516667	1	-0.016250
3.533333	1	-0.015500
3.550000	1	-0.014250
3.566667	1	-0.013250
3.583333	1	-0.012125
3.600000	1	-0.010875
3.616667	1	-0.009500
3.633333	1	-0.008750
3.650000	1	-0.007500
3.666667	1	-0.006250
3.683333	1	-0.004625
3.700000	1	-0.003250
3.716667	1	-0.002250
3.733333	1	-0.001375
3.750000	1	0.000125
3.766667	1	0.001750
3.783333	1	0.003750
3.800000	1	0.005125
3.816667	1	0.007750
3.833333	1	0.009375
3.850000	1	0.011000
3.866667	1	0.013125
3.883333	1	0.014500
3.900000	1	0.016250
3.916667	1	0.018250
3.933333	1	0.020125
3.950000	1	0.021625
3.966667	1	0.022875
3.983333	1	0.024500
4.000000	1	0.025875
4.016667	1	0.027000
4.033333	1	0.028250
4.050000	1	0.028375
4.066667	1	0.029250
4.083333	1	0.029375
4.100000	1	0.030125
4.116667	1	0.030250
4.133333	1	0.031250
4.150000	1	0.031375
4.166667	1	0.031625
4.183333	1	0.031500
4.200000	1	0.031875
4.216667	1	0.032375
4.233333	1	0.032500
4.250000	1	0.032250
4.266667	1	0.032375
4.283333	1	0.032000
4.300000	1	0.032250
4.316667	1	0.032375
4.333333	1	0.032250
4.350000	1	0.032500
4.366667	1	0.032625
4.383333	1	0.033000
4.400000	1	0.033125
4.416667	1	0.032875
4.433333	1	0.033000
4.450000	1	0.033500
4.466667	1	0.033500
4.483333	1	0.033500
4.500000	1	0.034000
4.516667	1	0.035000
4.533333	1	0.035125
4.550000	1	0.035750
4.566667	1	0.035375
4.583333	1	0.036500
4.600000	1	0.036750
4.616667	1	0.036875
4.633333	1	0.038000
4.650000	1	0.038375
4.666667	1	0.039375
4.683333	1	0.039625
4.700000	1	0.039625
4.716667	1	0.040125
4.733333	1	0.040375
4.750000	1	0.041375
4.766667	1	0.042500
4.783333	1	0.042875
4.800000	1	0.043625
4.816667	1	0.043625
4.833333	1	0.044375
4.850000	1	0.045125
4.866667	1	0.046375
4.883333	1	0.047500
4.900000	1	0.048250
4.916667	1	0.048750
4.933333	1	0.049125
4.950000	1	0.049875
4.966667	1	0.050750
4.983333	1	0.051250
5.000000	1	0.052250
5.016667	1	0.053625
5.033333	1	0.054750
5.050000	1	0.056000
5.066667	1	0.057375
5.083333	1	0.058500
5.100000	1	0.059375
5.116667	1	0.060375
5.133333	1	0.061875
5.150000	1	0.064375
5.166667	1	0.066750
5.183333	1	0.069625
5.200000	1	0.072125
5.216667	1	0.075125
5.233333	1	0.078750
5.250000	1	0.082875
5.266667	1	0.086250
5.283333	1	0.090000
5.300000	1	0.094500
5.316667	1	0.099625
5.333333	1	0.104000
5.350000	1	0.109125
5.366667	1	0.114000
5.383333	1	0.118750
5.400000	1	0.123875
5.416667	1	0.129625
5.433333	1	0.134625
5.450000	1	0.139375
5.466667	1	0.144625
5.483333	1	0.149500
5.500000	1	0.154375
5.516667	1	0.158875
5.533333	1	0.163875
5.550000	1	0.167875
5.566667	1	0.172500
5.583333	1	0.176375
5.600000	1	0.180625
5.616667	1	0.184000
5.633333	1	0.187875
5.650000	1	0.191000
5.666667	1	0.194250
5.683333	1	0.197000
5.700000	1	0.199500
5.716667	1	0.201875
5.733333	1	0.203500
5.750000	1	0.205500
5.766667	1	0.206875
5.783333	1	0.207875
5.800000	1	0.208750
5.816667	1	0.210000
5.833333	1	0.210875
5.850000	1	0.211125
5.866667	1	0.211625
5.883333	1	0.211125
5.900000	1	0.210750
5.916667	1	0.210125
5.933333	1	0.209500
5.950000	1	0.209125
5.966667	1	0.207750
5.983333	1	0.207125
6.000000	1	0.206250
6.016667	1	0.204500
6.033333	1	0.203125
6.050000	1	0.201875
6.066667	1	0.200375
6.083333	1	0.199125
6.100000	1	0.196875
6.116667	1	0.195000
6.133333	1	0.193750
6.150000	1	0.192875
6.166667	1	0.192125
6.183333	1	0.190500
6.200000	1	0.189125
6.216667	1	0.188125
6.233333	1	0.187125
6.250000	1	0.185250
6.266667	1	0.183625
6.283333	1	0.182375
6.300000	1	0.181500
6.316667	1	0.180000
6.333333	1	0.178625
6.350000	1	0.177125
6.366667	1	0.176000
6.383333	1	0.174750
6.400000	1	0.172750
6.416667	1	0.170000
6.433333	1	0.167375
6.450000	1	0.165125
6.466667	1	0.162625
6.483333	1	0.159625
6.500000	1	0.156750
6.516667	1	0.153875
6.533333	1	0.150125
6.550000	1	0.146875
6.566667	1	0.142375
6.583333	1	0.139000
6.600000	1	0.135750
6.616667	1	0.132250
6.633333	1	0.128500
6.650000	1	0.124625
6.666667	1	0.120625
6.683333	1	0.116750
6.700000	1	0.111625
6.716667	1	0.107000
6.733333	1	0.102625
6.750000	1	0.098125
6.766667	1	0.094000
6.783333	1	0.089375
6.800000	1	0.085000
6.816667	1	0.081500
6.833333	1	0.077250
6.850000	1	0.073125
6.866667	1	0.070125
6.883333	1	0.066250
6.900000	1	0.063125
6.916667	1	0.060875
6.933333	1	0.058250
6.950000	1	0.055875
6.966667	1	0.054375
6.983333	1	0.052375
7.000000	1	0.051000
7.016667	1	0.049375
7.033333	1	0.048750
7.050000	1	0.048000
7.066667	1	0.047250
7.083333	1	0.047250
7.100000	1	0.047250
7.116667	1	0.047375
7.133333	1	0.047750
7.150000	1	0.048500
7.166667	1	0.049375
7.183333	1	0.051000
7.200000	1	0.052125
7.216667	1	0.053125
7.233333	1	0.054000
7.250000	1	0.054500
7.266667	1	0.056000
7.283333	1	0.058375
7.300000	1	0.059500
7.316667	1	0.061375
7.333333	1	0.062875
7.350000	1	0.064500
7.366667	1	0.065875
7.383333	1	0.068250
7.400000	1	0.070750
7.416667	1	0.072750
7.433333	1	0.074500
7.450000	1	0.076375
7.466667	1	0.078000
7.483333	1	0.080375
7.500000	1	0.082375
7.516667	1	0.084750
7.533333	1	0.086375
7.550000	1	0.087750
7.566667	1	0.089750
7.583333	1	0.092500
7.600000	1	0.094500
7.616667	1	0.096250
7.633333	1	0.098000
7.650000	1	0.099750
7.666667	1	0.101500
7.683333	1	0.102625
7.700000	1	0.103500
7.716667	1	0.104500
7.733333	1	0.105625
7.750000	1	0.106875
7.766667	1	0.107000
7.783333	1	0.108000
7.800000	1	0.109000
7.816667	1	0.110000
7.833333	1	0.110125
7.850000	1	0.110500
7.866667	1	0.109875
7.883333	1	0.109875
7.900000	1	0.110000
7.916667	1	0.109875
7.933333	1	0.109375
7.950000	1	0.108750
7.966667	1	0.108500
7.983333	1	0.107125
8.000000	1	0.106500
8.016667	1	0.105625
8.033333	1	0.103750
8.050000	1	0.101875
8.066667	1	0.100250
8.083333	1	0.098625
8.100000	1	0.096125
8.116667	1	0.094000
8.133333	1	0.091625
8.150000	1	0.089750
8.166667	1	0.086875
8.183333	1	0.084375
8.200000	1	0.081000
8.216667	1	0.078500
8.233333	1	0.075000
8.250000	1	0.071625
8.266667	1	0.068000
8.283333	1	0.065500
8.300000	1	0.061750
8.316667	1	0.058375
8.333333	1	0.055125
8.350000	1	0.051250
8.366667	1	0.048000
8.383333	1	0.044250
8.400000	1	0.041000
8.416667	1	0.037375
8.433333	1	0.033500
8.450000	1	0.029750
8.466667	1	0.025875
8.483333	1	0.022125
8.500000	1	0.018750
8.516667	1	0.015875
8.533333	1	0.012500
8.550000	1	0.009250
8.566667	1	0.006250
8.583333	1	0.003000
8.600000	1	0.000625
8.616667	1	-0.002250
8.633333	1	-0.005625
8.650000	1	-0.008375
8.666667	1	-0.010875
8.683333	1	-0.012500
8.700000	1	-0.014125
8.716667	1	-0.016000
8.733333	1	-0.017750
8.750000	1	-0.019125
8.766667	1	-0.020625
8.783333	1	-0.021625
8.800000	1	-0.023250
8.816667	1	-0.023625
8.833333	1	-0.023875
8.850000	1	-0.024500
8.866667	1	-0.025125
8.883333	1	-0.024375
8.900000	1	-0.023750
8.916667	1	-0.023250
8.933333	1	-0.022375
8.950000	1	-0.021750
8.966667	1	-0.020500
8.983333	1	-0.019250
9.000000	1	-0.018375
9.016667	1	-0.017375
9.033333	1	-0.015750
9.050000	1	-0.014625
9.066667	1	-0.013000
9.083333	1	-0.011625
9.100000	1	-0.009750
9.116667	1	-0.008250
9.133333	1	-0.006500
9.150000	1	-0.005000
9.166667	1	-0.003250
9.183333	1	-0.002500
9.200000	1	-0.001250
9.216667	1	0.000250
9.233333	1	0.000750
9.250000	1	0.001875
9.266667	1	0.002125
9.283333	1	0.003375
9.300000	1	0.004000
9.316667	1	0.005375
9.333333	1	0.006750
9.350000	1	0.007625
9.366667	1	0.008375
9.383333	1	0.008875
9.400000	1	0.009125
9.416667	1	0.009500
9.433333	1	0.009625
9.450000	1	0.009500
9.466667	1	0.009750
9.483333	1	0.009625
9.500000	1	0.010375
9.516667	1	0.010500
9.533333	1	0.010250
9.550000	1	0.010375
9.566667	1	0.010750
9.583333	1	0.011000
9.600000	1	0.011375
9.616667	1	0.011250
9.633333	1	0.011625
9.650000	1	0.011750
9.666667	1	0.012125
9.683333	1	0.011875
9.700000	1	0.011625
9.716667	1	0.011375
9.733333	1	0.011625
9.750000	1	0.012625
9.766667	1	0.012625
9.783333	1	0.012625
9.800000	1	0.012500
9.816667	1	0.012875
9.833333	1	0.012750
9.850000	1	0.012375
9.866667	1	0.012125
9.883333	1	0.012000
9.900000	1	0.011250
9.916667	1	0.010500
9.933333	1	0.009625
9.950000	1	0.009125
9.966667	1	0.008375
9.983333	1	0.007250
10.000000	1	0.005500
10.016667	1	0.005000
10.033333	1	0.004375
10.050000	1	0.004125
10.066667	1	0.004125
10.083333	1	0.005625
10.100000	1	0.007500
10.116667	1	0.010125
10.133333	1	0.014000
10.150000	1	0.019125
10.166667	1	0.024875
10.183333	1	0.032625
10.200000	1	0.041750
10.216667	1	0.053250
10.233333	1	0.065875
10.250000	1	0.081000
10.266667	1	0.099125
10.283333	1	0.119375
10.300000	1	0.141875
10.316667	1	0.167875
10.333333	1	0.196500
10.350000	1	0.229125
10.366667	1	0.265750
10.383333	1	0.306625
10.400000	1	0.352125
10.416667	1	0.399375
10.433333	1	0.441125
10.450000	1	0.467500
10.466667	1	0.464000
10.483333	1	0.423750
10.500000	1	0.351375
10.516667	1	0.273875
10.533333	1	0.247375
10.550000	1	0.351875
10.566667	1	0.687125
10.583333	1	1.353875
10.600000	1	2.446500
10.616667	1	4.040875
10.633333	1	6.190500
10.650000	1	8.921750
10.666667	1	12.248875
10.683333	1	16.156750
10.700000	1	20.604000
10.716667	1	25.510875
10.733333	1	30.744000
10.750000	1	36.100625
10.766667	1	41.288000
10.783333	1	45.928375
10.800000	1	49.577625
10.816667	1	51.802750
10.833333	1	52.296000
10.850000	1	50.989375
10.866667	1	48.079750
10.883333	1	43.978875
10.900000	1	39.190375
10.916667	1	34.181000
10.933333	1	29.308625
10.950000	1	24.803125
10.966667	1	20.788250
10.983333	1	17.310750
11.000000	1	14.365000
11.016667	1	11.916250
11.033333	1	9.913125
11.050000	1	8.292000
11.066667	1	6.987500
11.083333	1	5.941625
11.100000	1	5.102000
11.116667	1	4.425750
11.133333	1	3.878750
11.150000	1	3.432500
11.166667	1	3.066375
11.183333	1	2.763625
11.200000	1	2.511250
11.216667	1	2.299625
11.233333	1	2.119875
11.250000	1	1.966875
11.266667	1	1.835500
11.283333	1	1.722250
11.300000	1	1.624375
11.316667	1	1.539000
11.333333	1	1.464500
11.350000	1	1.398500
11.366667	1	1.341125
11.383333	1	1.290625
11.400000	1	1.245625
11.416667	1	1.205375
11.433333	1	1.168750
11.450000	1	1.135625
11.466667	1	1.106375
11.483333	1	1.080125
11.500000	1	1.055500
11.516667	1	1.033000
11.533333	1	1.013000
11.550000	1	0.994250
11.566667	1	0.977125
11.583333	1	0.962250
11.600000	1	0.948500
11.616667	1	0.937000
11.633333	1	0.927500
11.650000	1	0.919750
11.666667	1	0.913375
11.683333	1	0.909500
11.700000	1	0.907875
11.716667	1	0.908375
11.733333	1	0.909750
11.750000	1	0.913125
11.766667	1	0.916625
11.783333	1	0.921625
11.800000	1	0.928125
11.816667	1	0.934125
11.833333	1	0.940000
11.850000	1	0.945250
11.866667	1	0.950250
11.883333	1	0.954500
11.900000	1	0.958875
11.916667	1	0.963375
11.933333	1	0.966875
11.950000	1	0.970750
11.966667	1	0.974500
11.983333	1	0.978375
12.000000	1	0.982625
12.016667	1	0.988125
12.033333	1	0.993750
12.050000	1	0.999125
12.066667	1	1.006000
12.083333	1	1.012875
12.100000	1	1.021625
12.116667	1	1.030625
12.133333	1	1.039750
12.150000	1	1.050000
12.166667	1	1.060625
12.183333	1	1.072625
12.200000	1	1.085250
12.216667	1	1.099625
12.233333	1	1.115625
12.250000	1	1.132625
12.266667	1	1.151250
12.283333	1	1.172250
12.300000	1	1.194875
12.316667	1	1.220250
12.333333	1	1.249250
12.350000	1	1.283125
12.366667	1	1.325500
12.383333	1	1.379500
12.400000	1	1.451000
12.416667	1	1.546250
12.433333	1	1.673000
12.450000	1	1.839125
12.466667	1	2.053625
12.483333	1	2.323375
12.500000	1	2.653750
12.516667	1	3.047125
12.533333	1	3.502625
12.550000	1	4.014625
12.566667	1	4.575250
12.583333	1	5.172625
12.600000	1	5.793750
12.616667	1	6.422250
12.633333	1	7.045750
12.650000	1	7.651625
12.666667	1	8.232875
12.683333	1	8.785625
12.700000	1	9.308875
12.716667	1	9.807000
12.733333	1	10.286125
12.750000	1	10.754625
12.766667	1	11.220500
12.783333	1	11.692125
12.800000	1	12.176500
12.816667	1	12.677750
12.833333	1	13.194375
12.850000	1	13.713000
12.866667	1	14.192500
12.883333	1	14.553000
12.900000	1	14.680875
12.916667	1	14.467250
12.933333	1	13.855875
12.950000	1	12.873375
12.966667	1	11.623375
12.983333	1	10.245875
13.000000	1	8.873625
13.016667	1	7.599000
13.033333	1	6.469000
13.050000	1	5.499875
13.066667	1	4.685000
13.083333	1	4.012375
13.100000	1	3.464500
13.116667	1	3.023125
13.133333	1	2.671000
13.150000	1	2.391875
13.166667	1	2.170625
13.183333	1	1.995500
13.200000	1	1.857250
13.216667	1	1.746500
13.233333	1	1.656625
13.250000	1	1.582500
13.266667	1	1.520250
13.283333	1	1.466875
13.300000	1	1.420625
13.316667	1	1.379750
13.333333	1	1.342500
13.350000	1	1.309500
13.366667	1	1.279875
13.383333	1	1.253000
13.400000	1	1.228500
13.416667	1	1.206875
13.433333	1	1.187500
13.450000	1	1.171250
13.466667	1	1.157375
13.483333	1	1.146250
13.500000	1	1.137375
13.516667	1	1.130375
13.533333	1	1.125125
13.550000	1	1.121500
13.566667	1	1.117875
13.583333	1	1.114500
13.600000	1	1.109000
13.616667	1	1.102375
13.633333	1	1.093625
13.650000	1	1.082625
13.666667	1	1.069375
13.683333	1	1.053500
13.700000	1	1.035750
13.716667	1	1.016375
13.733333	1	0.996625
13.750000	1	0.975625
13.766667	1	0.954375
13.783333	1	0.932750
13.800000	1	0.911875
13.816667	1	0.892000
13.833333	1	0.872250
13.850000	1	0.852250
13.866667	1	0.833500
13.883333	1	0.815375
13.900000	1	0.798625
13.916667	1	0.782125
13.933333	1	0.766000
13.950000	1	0.750500
13.966667	1	0.736125
13.983333	1	0.721375
14.000000	1	0.708125
14.016667	1	0.695125
14.033333	1	0.682625
14.050000	1	0.671125
14.066667	1	0.659750
14.083333	1	0.649250
14.100000	1	0.639250
14.116667	1	0.629625
14.133333	1	0.620875
14.150000	1	0.613125
14.166667	1	0.605750
14.183333	1	0.599125
14.200000	1	0.593625
14.216667	1	0.589250
14.233333	1	0.585625
14.250000	1	0.583375
14.266667	1	0.581625
14.283333	1	0.580750
14.300000	1	0.580750
14.316667	1	0.582500
14.333333	1	0.585625
14.350000	1	0.590125
14.366667	1	0.595750
14.383333	1	0.603750
14.400000	1	0.613750
14.416667	1	0.626250
14.433333	1	0.641750
14.450000	1	0.663625
14.466667	1	0.696625
14.483333	1	0.746375
14.500000	1	0.823750
14.516667	1	0.944750
14.533333	1	1.131625
14.550000	1	1.414125
14.566667	1	1.831250
14.583333	1	2.429625
14.600000	1	3.263250
14.616667	1	4.395500
14.633333	1	5.890375
14.650000	1	7.806625
14.666667	1	10.187625
14.683333	1	13.052875
14.700000	1	16.389375
14.716667	1	20.142875
14.733333	1	24.222000
14.750000	1	28.493875
14.766667	1	32.786000
14.783333	1	36.907500
14.800000	1	40.666500
14.816667	1	43.879875
14.833333	1	46.389250
14.850000	1	48.076875
14.866667	1	48.878000
14.883333	1	48.787625
14.900000	1	47.853375
14.916667	1	46.175375
14.933333	1	43.884500
14.950000	1	41.132500
14.966667	1	38.073500
14.983333	1	34.854875
15.000000	1	31.600000
15.016667	1	28.411500
15.033333	1	25.365125
15.050000	1	22.514375
15.066667	1	19.889375
15.083333	1	17.506000
15.100000	1	15.367125
15.116667	1	13.462625
15.133333	1	11.777375
15.150000	1	10.292875
15.166667	1	8.990250
15.183333	1	7.850500
15.200000	1	6.855000
15.216667	1	5.987125
15.233333	1	5.232875
15.250000	1	4.579750
15.266667	1	4.018875
15.283333	1	3.539500
15.300000	1	3.133750
15.316667	1	2.795875
15.333333	1	2.515750
15.350000	1	2.288250
15.366667	1	2.107125
15.383333	1	1.964750
15.400000	1	1.855375
15.416667	1	1.772750
15.433333	1	1.711375
15.450000	1	1.665000
15.466667	1	1.628625
15.483333	1	1.598125
15.500000	1	1.568875
15.516667	1	1.540000
15.533333	1	1.509000
15.550000	1	1.475875
15.566667	1	1.439000
15.583333	1	1.400625
15.600000	1	1.360875
15.616667	1	1.321125
15.633333	1	1.282375
15.650000	1	1.245000
15.666667	1	1.209000
15.683333	1	1.175500
15.700000	1	1.144000
15.716667	1	1.115000
15.733333	1	1.087125
15.750000	1	1.061250
15.766667	1	1.035875
15.783333	1	1.012375
15.800000	1	0.989625
15.816667	1	0.967000
15.833333	1	0.945625
15.850000	1	0.925500
15.866667	1	0.907000
15.883333	1	0.889750
15.900000	1	0.874500
15.916667	1	0.861625
15.933333	1	0.850250
15.950000	1	0.841125
15.966667	1	0.834500
15.983333	1	0.829750
16.000000	1	0.826000
16.016667	1	0.824000
16.033333	1	0.823125
16.050000	1	0.823500
16.066667	1	0.825000
16.083333	1	0.826875
16.100000	1	0.828875
16.116667	1	0.831375
16.133333	1	0.833750
16.150000	1	0.835750
16.166667	1	0.837500
16.183333	1	0.838125
16.200000	1	0.838000
16.216667	1	0.837500
16.233333	1	0.836875
16.250000	1	0.835375
16.266667	1	0.832250
16.283333	1	0.828875
16.300000	1	0.825750
16.316667	1	0.822750
16.333333	1	0.820000
16.350000	1	0.817875
16.366667	1	0.816250
16.383333	1	0.816625
16.400000	1	0.818250
16.416667	1	0.821375
16.433333	1	0.825875
16.450000	1	0.831625
16.466667	1	0.837750
16.483333	1	0.844500
16.500000	1	0.850875
16.516667	1	0.856750
16.533333	1	0.861500
16.550000	1	0.864375
16.566667	1	0.866500
16.583333	1	0.866875
16.600000	1	0.865125
16.616667	1	0.861750
16.633333	1	0.857125
16.650000	1	0.852125
16.666667	1	0.847250
16.683333	1	0.842500
16.700000	1	0.839000
16.716667	1	0.837125
16.733333	1	0.837250
16.750000	1	0.838875
16.766667	1	0.842750
16.783333	1	0.848250
16.800000	1	0.855875
16.816667	1	0.864000
16.833333	1	0.872875
16.850000	1	0.880750
16.866667	1	0.888000
16.883333	1	0.894500
16.900000	1	0.899125
16.916667	1	0.902375
16.933333	1	0.903625
16.950000	1	0.903500
16.966667	1	0.902125
16.983333	1	0.899875
17.000000	1	0.896750
17.016667	1	0.892875
17.033333	1	0.889000
17.050000	1	0.885625
17.066667	1	0.883000
17.083333	1	0.880750
17.100000	1	0.879375
17.116667	1	0.879000
17.133333	1	0.878875
17.150000	1	0.879500
17.166667	1	0.881375
17.183333	1	0.882750
17.200000	1	0.884500
17.216667	1	0.888125
17.233333	1	0.891875
17.250000	1	0.895875
17.266667	1	0.900125
17.283333	1	0.904000
17.300000	1	0.909000
17.316667	1	0.914125
17.333333	1	0.919250
17.350000	1	0.924500
17.366667	1	0.929875
17.383333	1	0.934625
17.400000	1	0.938875
17.416667	1	0.942625
17.433333	1	0.945125
17.450000	1	0.946875
17.466667	1	0.947000
17.483333	1	0.945500
17.500000	1	0.942875
17.516667	1	0.939250
17.533333	1	0.933250
17.550000	1	0.926000
17.566667	1	0.917375
17.583333	1	0.908125
17.600000	1	0.897000
17.616667	1	0.885750
17.633333	1	0.873750
17.650000	1	0.861250
17.666667	1	0.848500
17.683333	1	0.836000
17.700000	1	0.823500
17.716667	1	0.811000
17.733333	1	0.798375
17.750000	1	0.787125
17.766667	1	0.776625
17.783333	1	0.767000
17.800000	1	0.757875
17.816667	1	0.749625
17.833333	1	0.742125
17.850000	1	0.735500
17.866667	1	0.729750
17.883333	1	0.723000
17.900000	1	0.718250
17.916667	1	0.714000
17.933333	1	0.710125
17.950000	1	0.705500
17.966667	1	0.701375
17.983333	1	0.696625
18.000000	1	0.691625
18.016667	1	0.687000
18.033333	1	0.682625
18.050000	1	0.677375
18.066667	1	0.672250
18.083333	1	0.668500
18.100000	1	0.664500
18.116667	1	0.661000
18.133333	1	0.657500
18.150000	1	0.655125
18.166667	1	0.654000
18.183333	1	0.652875
18.200000	1	0.651875
18.216667	1	0.652000
18.233333	1	0.653000
18.250000	1	0.653625
18.266667	1	0.653500
18.283333	1	0.653500
18.300000	1	0.653500
18.316667	1	0.654000
18.333333	1	0.654375
18.350000	1	0.655375
18.366667	1	0.657000
18.383333	1	0.659125
18.400000	1	0.661750
18.416667	1	0.665875
18.433333	1	0.671000
18.450000	1	0.677875
18.466667	1	0.685750
18.483333	1	0.696625
18.500000	1	0.709250
18.516667	1	0.723500
18.533333	1	0.739750
18.550000	1	0.757750
18.566667	1	0.777875
18.583333	1	0.800000
18.600000	1	0.824250
18.616667	1	0.850125
18.633333	1	0.877625
18.650000	1	0.906125
18.666667	1	0.936250
18.683333	1	0.967750
18.700000	1	1.000750
18.716667	1	1.034000
18.733333	1	1.068500
18.750000	1	1.102500
18.766667	1	1.136875
18.783333	1	1.170000
18.800000	1	1.201625
18.816667	1	1.231500
18.833333	1	1.258500
18.850000	1	1.282125
18.866667	1	1.301250
18.883333	1	1.315375
18.900000	1	1.324125
18.916667	1	1.326375
18.933333	1	1.322750
18.950000	1	1.313000
18.966667	1	1.296375
18.983333	1	1.274500
19.000000	1	1.246750
19.016667	1	1.214250
19.033333	1	1.178000
19.050000	1	1.139500
19.066667	1	1.098875
19.083333	1	1.058000
19.100000	1	1.018375
19.116667	1	0.981375
19.133333	1	0.949875
19.150000	1	0.925250
19.166667	1	0.908000
19.183333	1	0.902125
19.200000	1	0.908500
19.216667	1	0.930125
19.233333	1	0.969625
19.250000	1	1.029250
19.266667	1	1.111625
19.283333	1	1.217625
19.300000	1	1.347125
19.316667	1	1.499625
19.333333	1	1.675875
19.350000	1	1.872500
19.366667	1	2.085875
19.383333	1	2.310875
19.400000	1	2.543000
19.416667	1	2.773375
19.433333	1	2.995250
19.450000	1	3.201125
19.466667	1	3.385625
19.483333	1	3.541250
19.500000	1	3.663375
19.516667	1	3.749375
19.533333	1	3.797875
19.550000	1	3.808750
19.566667	1	3.783250
19.583333	1	3.723625
19.600000	1	3.633000
19.616667	1	3.517625
19.633333	1	3.382625
19.650000	1	3.232500
19.666667	1	3.070875
19.683333	1	2.903250
19.700000	1	2.734875
19.716667	1	2.567500
19.733333	1	2.404250
19.750000	1	2.246250
19.766667	1	2.094625
19.783333	1	1.951375
19.800000	1	1.816375
19.816667	1	1.689500
19.833333	1	1.570500
19.850000	1	1.460500
19.866667	1	1.358625
19.883333	1	1.264625
19.900000	1	1.178000
19.916667	1	1.100125
19.933333	1	1.028750
19.950000	1	0.963875
19.966667	1	0.907500
19.983333	1	0.858375
20.000000	1	0.816125
20.016667	1	0.782375
20.033333	1	0.756500
20.050000	1	0.738375
20.066667	1	0.728750
20.083333	1	0.726625
20.100000	1	0.733375
20.116667	1	0.747875
20.133333	1	0.769250
20.150000	1	0.795875
20.166667	1	0.827375
20.183333	1	0.862750
20.200000	1	0.900000
20.216667	1	0.937250
20.233333	1	0.973000
20.250000	1	1.005875
20.266667	1	1.032750
20.283333	1	1.054500
20.300000	1	1.068500
20.316667	1	1.074500
20.333333	1	1.071875
20.350000	1	1.060500
20.366667	1	1.042500
20.383333	1	1.016250
20.400000	1	0.984875
20.416667	1	0.949375
20.433333	1	0.909000
20.450000	1	0.866625
20.466667	1	0.823875
20.483333	1	0.781625
20.500000	1	0.741625
20.516667	1	0.704750
20.533333	1	0.672625
20.550000	1	0.646250
20.566667	1	0.625750
20.583333	1	0.612000
20.600000	1	0.606375
20.616667	1	0.609000
20.633333	1	0.621250
20.650000	1	0.643125
20.666667	1	0.674750
20.683333	1	0.716750
20.700000	1	0.767250
20.716667	1	0.826250
20.733333	1	0.893250
20.750000	1	0.965375
20.766667	1	1.042500
20.783333	1	1.120375
20.800000	1	1.197250
20.816667	1	1.270000
20.833333	1	1.336625
20.850000	1	1.393875
20.866667	1	1.441125
20.883333	1	1.476375
20.900000	1	1.498000
20.916667	1	1.506250
20.933333	1	1.500875
20.950000	1	1.482750
20.966667	1	1.453250
20.983333	1	1.413250
21.000000	1	1.365000
21.016667	1	1.310000
21.033333	1	1.250000
21.050000	1	1.188500
21.066667	1	1.124625
21.083333	1	1.061875
21.100000	1	1.000375
21.116667	1	0.941500
21.133333	1	0.885000
21.150000	1	0.833250
21.166667	1	0.784125
21.183333	1	0.739375
21.200000	1	0.697750
21.216667	1	0.660250
21.233333	1	0.625750
21.250000	1	0.595125
21.266667	1	0.566625
21.283333	1	0.540625
21.300000	1	0.517375
21.316667	1	0.496875
21.333333	1	0.477500
21.350000	1	0.460750
21.366667	1	0.445625
21.383333	1	0.431125
21.400000	1	0.418125
21.416667	1	0.405500
21.433333	1	0.394125
21.450000	1	0.383750
21.466667	1	0.374750
21.483333	1	0.365750
21.500000	1	0.357750
21.516667	1	0.351250
21.533333	1	0.345875
21.550000	1	0.341625
21.566667	1	0.338125
21.583333	1	0.335750
21.600000	1	0.334625
21.616667	1	0.334750
21.633333	1	0.336000
21.650000	1	0.339750
21.666667	1	0.344375
21.683333	1	0.351000
21.700000	1	0.360000
21.716667	1	0.371000
21.733333	1	0.383250
21.750000	1	0.396750
21.766667	1	0.412875
21.783333	1	0.429500
21.800000	1	0.446875
21.816667	1	0.465125
21.833333	1	0.482750
21.850000	1	0.501625
21.866667	1	0.519625
21.883333	1	0.537000
21.900000	1	0.552375
21.916667	1	0.567250
21.933333	1	0.580375
21.950000	1	0.591750
21.966667	1	0.601125
21.983333	1	0.608375
22.000000	1	0.614250
22.016667	1	0.618250
22.033333	1	0.620625
22.050000	1	0.621375
22.066667	1	0.620375
22.083333	1	0.618875
22.100000	1	0.617250
22.116667	1	0.613375
22.133333	1	0.609250
22.150000	1	0.603000
22.166667	1	0.596625
22.183333	1	0.589750
22.200000	1	0.581875
22.216667	1	0.573000
22.233333	1	0.562750
22.250000	1	0.551875
22.266667	1	0.539875
22.283333	1	0.527375
22.300000	1	0.514375
22.316667	1	0.501000
22.333333	1	0.487125
22.350000	1	0.472500
22.366667	1	0.458125
22.383333	1	0.443500
22.400000	1	0.428625
22.416667	1	0.414250
22.433333	1	0.400625
22.450000	1	0.388000
22.466667	1	0.375250
22.483333	1	0.362125
22.500000	1	0.350375
22.516667	1	0.339625
22.533333	1	0.329750
22.550000	1	0.320625
22.566667	1	0.311250
22.583333	1	0.302500
22.600000	1	0.294125
22.616667	1	0.286750
22.633333	1	0.279250
22.650000	1	0.272500
22.666667	1	0.266000
22.683333	1	0.259750
22.700000	1	0.253875
22.716667	1	0.249250
22.733333	1	0.244625
22.750000	1	0.240375
22.766667	1	0.236750
22.783333	1	0.233250
22.800000	1	0.230625
22.816667	1	0.227500
22.833333	1	0.225375
22.850000	1	0.222875
22.866667	1	0.221375
22.883333	1	0.220250
22.900000	1	0.219750
22.916667	1	0.219625
22.933333	1	0.220000
22.950000	1	0.221000
22.966667	1	0.222125
22.983333	1	0.223750
23.000000	1	0.225625
23.016667	1	0.227125
23.033333	1	0.229000
23.050000	1	0.231375
23.066667	1	0.234375
23.083333	1	0.236625
23.100000	1	0.239375
23.116667	1	0.242125
23.133333	1	0.244500
23.150000	1	0.246875
23.166667	1	0.248875
23.183333	1	0.251250
23.200000	1	0.252750
23.216667	1	0.255625
23.233333	1	0.256875
23.250000	1	0.258875
23.266667	1	0.261500
23.283333	1	0.265625
23.300000	1	0.271375
23.316667	1	0.279375
23.333333	1	0.289750
23.350000	1	0.304125
23.366667	1	0.324000
23.383333	1	0.351500
23.400000	1	0.387625
23.416667	1	0.436125
23.433333	1	0.498500
23.450000	1	0.578750
23.466667	1	0.680625
23.483333	1	0.806750
23.500000	1	0.962000
23.516667	1	1.150375
23.533333	1	1.375125
23.550000	1	1.640000
23.566667	1	1.947250
23.583333	1	2.298250
23.600000	1	2.693000
23.616667	1	3.129875
23.633333	1	3.605750
23.650000	1	4.115000
23.666667	1	4.651125
23.683333	1	5.205875
23.700000	1	5.768875
23.716667	1	6.329000
23.733333	1	6.874000
23.750000	1	7.390875
23.766667	1	7.867375
23.783333	1	8.292000
23.800000	1	8.654750
23.816667	1	8.948375
23.833333	1	9.166125
23.850000	1	9.305250
23.866667	1	9.363875
23.883333	1	9.343750
23.900000	1	9.249000
23.916667	1	9.083750
23.933333	1	8.855500
23.950000	1	8.571625
23.966667	1	8.241625
23.983333	1	7.876375
24.000000	1	7.484750
24.016667	1	7.074125
24.033333	1	6.654125
24.050000	1	6.232125
24.066667	1	5.814000
24.083333	1	5.403625
24.100000	1	5.005250
24.116667	1	4.623500
24.133333	1	4.260250
24.150000	1	3.916250
24.166667	1	3.592750
24.183333	1	3.290875
24.200000	1	3.010750
24.216667	1	2.750125
24.233333	1	2.509125
24.250000	1	2.286750
24.266667	1	2.083750
24.283333	1	1.896500
24.300000	1	1.725500
24.316667	1	1.568125
24.333333	1	1.425250
24.350000	1	1.296250
24.366667	1	1.179750
24.383333	1	1.074875
24.400000	1	0.980500
24.416667	1	0.896750
24.433333	1	0.822125
24.450000	1	0.755875
24.466667	1	0.697750
24.483333	1	0.646750
24.500000	1	0.601625
24.516667	1	0.562500
24.533333	1	0.528375
24.550000	1	0.498875
24.566667	1	0.472875
24.583333	1	0.450750
24.600000	1	0.430500
24.616667	1	0.412875
24.633333	1	0.398000
24.650000	1	0.384000
24.666667	1	0.371875
24.683333	1	0.360750
24.700000	1	0.350500
24.716667	1	0.341000
24.733333	1	0.332125
24.750000	1	0.323125
24.766667	1	0.315500
24.783333	1	0.308000
24.800000	1	0.301000
24.816667	1	0.293750
24.833333	1	0.288000
24.850000	1	0.282625
24.866667	1	0.277750
24.883333	1	0.273125
24.900000	1	0.268875
24.916667	1	0.264875
24.933333	1	0.261500
24.950000	1	0.258500
24.966667	1	0.255875
24.983333	1	0.253250
25.000000	1	0.251750
25.016667	1	0.250750
25.033333	1	0.249875
25.050000	1	0.249750
25.066667	1	0.248875
25.083333	1	0.249000
25.100000	1	0.248875
25.116667	1	0.249500
25.133333	1	0.249250
25.150000	1	0.249250
25.166667	1	0.248625
25.183333	1	0.248500
25.200000	1	0.248875
25.216667	1	0.248625
25.233333	1	0.248625
25.250000	1	0.248125
25.266667	1	0.247625
25.283333	1	0.247125
25.300000	1	0.247000
25.316667	1	0.246375
25.333333	1	0.245750
25.350000	1	0.244875
25.366667	1	0.243750
25.383333	1	0.243125
25.400000	1	0.242000
25.416667	1	0.241375
25.433333	1	0.240500
25.450000	1	0.240375
25.466667	1	0.239625
25.483333	1	0.238625
25.500000	1	0.238625
25.516667	1	0.238375
25.533333	1	0.238625
25.550000	1	0.238250
25.566667	1	0.237375
25.583333	1	0.237500
25.600000	1	0.237250
25.616667	1	0.237375
25.633333	1	0.237500
25.650000	1	0.237625
25.666667	1	0.237375
25.683333	1	0.236125
25.700000	1	0.236375
25.716667	1	0.236000
25.733333	1	0.235375
25.750000	1	0.234750
25.766667	1	0.233625
25.783333	1	0.232625
25.800000	1	0.231750
25.816667	1	0.231000
25.833333	1	0.230750
25.850000	1	0.230125
25.866667	1	0.229875
25.883333	1	0.229625
25.900000	1	0.229500
25.916667	1	0.229625
25.933333	1	0.230000
25.950000	1	0.231125
25.966667	1	0.232250
25.983333	1	0.234625
26.000000	1	0.235875
26.016667	1	0.238000
26.033333	1	0.240750
26.050000	1	0.244625
26.066667	1	0.248375
26.083333	1	0.253625
26.100000	1	0.258375
26.116667	1	0.262750
26.133333	1	0.267875
26.150000	1	0.273625
26.166667	1	0.279375
26.183333	1	0.285375
26.200000	1	0.292375
26.216667	1	0.298625
26.233333	1	0.304750
26.250000	1	0.310875
26.266667	1	0.316625
26.283333	1	0.322500
26.300000	1	0.328125
26.316667	1	0.332750
26.333333	1	0.336875
26.350000	1	0.340875
26.366667	1	0.343500
26.383333	1	0.345125
26.400000	1	0.345875
26.416667	1	0.346250
26.433333	1	0.346500
26.450000	1	0.345125
26.466667	1	0.343000
26.483333	1	0.341000
26.500000	1	0.338000
26.516667	1	0.333500
26.533333	1	0.329000
26.550000	1	0.323625
26.566667	1	0.318000
26.583333	1	0.312000
26.600000	1	0.306000
26.616667	1	0.299375
26.633333	1	0.292375
26.650000	1	0.286750
26.666667	1	0.280875
26.683333	1	0.275250
26.700000	1	0.269375
26.716667	1	0.263125
26.733333	1	0.257625
26.750000	1	0.251750
26.766667	1	0.247375
26.783333	1	0.243000
26.800000	1	0.238875
26.816667	1	0.235500
26.833333	1	0.232500
26.850000	1	0.229500
26.866667	1	0.227625
26.883333	1	0.225875
26.900000	1	0.225000
26.916667	1	0.223875
26.933333	1	0.223250
26.950000	1	0.222750
26.966667	1	0.223000
26.983333	1	0.223000
27.000000	1	0.223875
27.016667	1	0.224500
27.033333	1	0.225875
27.050000	1	0.227875
27.066667	1	0.229750
27.083333	1	0.231500
27.100000	1	0.233250
27.116667	1	0.234875
27.133333	1	0.237500
27.150000	1	0.240375
27.166667	1	0.244125
27.183333	1	0.248375
27.200000	1	0.252750
27.216667	1	0.257750
27.233333	1	0.264375
27.250000	1	0.271375
27.266667	1	0.280000
27.283333	1	0.291125
27.300000	1	0.303750
27.316667	1	0.319625
27.333333	1	0.338750
27.350000	1	0.361500
27.366667	1	0.388500
27.383333	1	0.420500
27.400000	1	0.458500
27.416667	1	0.503250
27.433333	1	0.556750
27.450000	1	0.618750
27.466667	1	0.689625
27.483333	1	0.770750
27.500000	1	0.862250
27.516667	1	0.965750
27.533333	1	1.080375
27.550000	1	1.206750
27.566667	1	1.345750
27.583333	1	1.495500
27.600000	1	1.655250
27.616667	1	1.825500
27.633333	1	2.004125
27.650000	1	2.189750
27.666667	1	2.380500
27.683333	1	2.574000
27.700000	1	2.767250
27.716667	1	2.957875
27.733333	1	3.142625
27.750000	1	3.318625
27.766667	1	3.482375
27.783333	1	3.631000
27.800000	1	3.762750
27.816667	1	3.875000
27.833333	1	3.965750
27.850000	1	4.032250
27.866667	1	4.074875
27.883333	1	4.091875
27.900000	1	4.083625
27.916667	1	4.050625
27.933333	1	3.993375
27.950000	1	3.914000
27.966667	1	3.814000
27.983333	1	3.696750
28.000000	1	3.563875
28.016667	1	3.417875
28.033333	1	3.261250
28.050000	1	3.097625
28.066667	1	2.929000
28.083333	1	2.758125
28.100000	1	2.587125
28.116667	1	2.418125
28.133333	1	2.253375
28.150000	1	2.093375
28.166667	1	1.940250
28.183333	1	1.793875
28.200000	1	1.656125
28.216667	1	1.526625
28.233333	1	1.404875
28.250000	1	1.291500
28.266667	1	1.186000
28.283333	1	1.088500
28.300000	1	0.998625
28.316667	1	0.916875
28.333333	1	0.842000
28.350000	1	0.774000
28.366667	1	0.712375
28.383333	1	0.657000
28.400000	1	0.607375
28.416667	1	0.562375
28.433333	1	0.523250
28.450000	1	0.488125
28.466667	1	0.457875
28.483333	1	0.431875
28.500000	1	0.409250
28.516667	1	0.390875
28.533333	1	0.375125
28.550000	1	0.362375
28.566667	1	0.353125
28.583333	1	0.346750
28.600000	1	0.342375
28.616667	1	0.340250
28.633333	1	0.339875
28.650000	1	0.342000
28.666667	1	0.345375
28.683333	1	0.350625
28.700000	1	0.356000
28.716667	1	0.362250
28.733333	1	0.369250
28.750000	1	0.377750
28.766667	1	0.386375
28.783333	1	0.396125
28.800000	1	0.406000
28.816667	1	0.415375
28.833333	1	0.425375
28.850000	1	0.434125
28.866667	1	0.442875
28.883333	1	0.451500
28.900000	1	0.459250
28.916667	1	0.465750
28.933333	1	0.472125
28.950000	1	0.478125
28.966667	1	0.482250
28.983333	1	0.486125
29.000000	1	0.488875
29.016667	1	0.489500
29.033333	1	0.489125
29.050000	1	0.487875
29.066667	1	0.484625
29.083333	1	0.480125
29.100000	1	0.473375
29.116667	1	0.465250
29.133333	1	0.455125
29.150000	1	0.443125
29.166667	1	0.429750
29.183333	1	0.414250
29.200000	1	0.396750
29.216667	1	0.377250
29.233333	1	0.355250
29.250000	1	0.332000
29.266667	1	0.305625
29.283333	1	0.277875
29.300000	1	0.248375
29.316667	1	0.215500
29.333333	1	0.181125
29.350000	1	0.145125
29.366667	1	0.106375
29.383333	1	0.067125
29.400000	1	0.026250
29.416667	1	-0.015875
29.433333	1	-0.060125
29.450000	1	-0.105250
29.466667	1	-0.151250
29.483333	1	-0.197375
29.500000	1	-0.243750
29.516667	1	-0.290375
29.533333	1	-0.335750
29.550000	1	-0.380125
29.566667	1	-0.423500
29.583333	1	-0.465000
29.600000	1	-0.504125
29.616667	1	-0.540875
29.633333	1	-0.574375
29.650000	1	-0.605125
29.666667	1	-0.632500
29.683333	1	-0.657125
29.700000	1	-0.677875
29.716667	1	-0.694750
29.733333	1	-0.707250
29.750000	1	-0.716000
29.766667	1	-0.721000
29.783333	1	-0.722000
29.800000	1	-0.719000
29.816667	1	-0.712875
29.833333	1	-0.702125
29.850000	1	-0.689250
29.866667	1	-0.674125
29.883333	1	-0.655625
29.900000	1	-0.634750
29.916667	1	-0.612125
29.933333	1	-0.587125
29.950000	1	-0.561250
29.966667	1	-0.533375
29.983333	1	-0.504875
30.000000	1	-0.476000
30.016667	1	-0.446375
30.033333	1	-0.417125
30.050000	1	-0.388125
30.066667	1	-0.359250
30.083333	1	-0.330250
30.100000	1	-0.302875
30.116667	1	-0.276250
30.133333	1	-0.250125
30.150000	1	-0.225125
30.166667	1	-0.201375
30.183333	1	-0.179125
30.200000	1	-0.157875
30.216667	1	-0.137625
30.233333	1	-0.118500
30.250000	1	-0.099875
30.266667	1	-0.083000
30.283333	1	-0.067875
30.300000	1	-0.053750
30.316667	1	-0.040750
30.333333	1	-0.028625
30.350000	1	-0.016875
30.366667	1	-0.006375
30.383333	1	0.003125
30.400000	1	0.011875
30.416667	1	0.020000
30.433333	1	0.027750
30.450000	1	0.033625
30.466667	1	0.040750
30.483333	1	0.046125
30.500000	1	0.051250
30.516667	1	0.056000
30.533333	1	0.060875
30.550000	1	0.066125
30.566667	1	0.070750
30.583333	1	0.075750
30.600000	1	0.080625
30.616667	1	0.086000
30.633333	1	0.090750
30.650000	1	0.095625
30.666667	1	0.101125
30.683333	1	0.107875
30.700000	1	0.113500
30.716667	1	0.119750
30.733333	1	0.126625
30.750000	1	0.133750
30.766667	1	0.141625
30.783333	1	0.149625
30.800000	1	0.157625
30.816667	1	0.166375
30.833333	1	0.175875
30.850000	1	0.186250
30.866667	1	0.196500
30.883333	1	0.207500
30.900000	1	0.219000
30.916667	1	0.231500
30.933333	1	0.245750
30.950000	1	0.261625
30.966667	1	0.279375
30.983333	1	0.300000
31.000000	1	0.323000
31.016667	1	0.349500
31.033333	1	0.379500
31.050000	1	0.414875
31.066667	1	0.455250
31.083333	1	0.502750
31.100000	1	0.557875
31.116667	1	0.620375
31.133333	1	0.693250
31.150000	1	0.776125
31.166667	1	0.870750
31.183333	1	0.977750
31.200000	1	1.097750
31.216667	1	1.232625
31.233333	1	1.381875
31.250000	1	1.546625
31.266667	1	1.726625
31.283333	1	1.921375
31.300000	1	2.131625
31.316667	1	2.355500
31.333333	1	2.592125
31.350000	1	2.840875
31.366667	1	3.098500
31.383333	1	3.363500
31.400000	1	3.633375
31.416667	1	3.906500
31.433333	1	4.178625
31.450000	1	4.447250
31.466667	1	4.707750
31.483333	1	4.956875
31.500000	1	5.192000
31.516667	1	5.409750
31.533333	1	5.607500
31.550000	1	5.782625
31.566667	1	5.932875
31.583333	1	6.056250
31.600000	1	6.152500
31.616667	1	6.219625
31.633333	1	6.257625
31.650000	1	6.266250
31.666667	1	6.246375
31.683333	1	6.197750
31.700000	1	6.124500
31.716667	1	6.026625
31.733333	1	5.906500
31.750000	1	5.766375
31.766667	1	5.607625
31.783333	1	5.433750
31.800000	1	5.247250
31.816667	1	5.049625
31.833333	1	4.844125
31.850000	1	4.632125
31.866667	1	4.417125
31.883333	1	4.200750
31.900000	1	3.985375
31.916667	1	3.771875
31.933333	1	3.561625
31.950000	1	3.356000
31.966667	1	3.155875
31.983333	1	2.962000
32.000000	1	2.774500
32.016667	1	2.595125
32.033333	1	2.422375
32.050000	1	2.258750
32.066667	1	2.102500
32.083333	1	1.955250
32.100000	1	1.815500
32.116667	1	1.684125
32.133333	1	1.559500
32.150000	1	1.441750
32.166667	1	1.331625
32.183333	1	1.227875
32.200000	1	1.130875
32.216667	1	1.040000
32.233333	1	0.954125
32.250000	1	0.873875
32.266667	1	0.799000
32.283333	1	0.729625
32.300000	1	0.664625
32.316667	1	0.605000
32.333333	1	0.549125
32.350000	1	0.497375
32.366667	1	0.449125
32.383333	1	0.404625
32.400000	1	0.363875
32.416667	1	0.325250
32.433333	1	0.290375
32.450000	1	0.258250
32.466667	1	0.228875
32.483333	1	0.201625
32.500000	1	0.176375
32.516667	1	0.153875
32.533333	1	0.133375
32.550000	1	0.115000
32.566667	1	0.097875
32.583333	1	0.081250
32.600000	1	0.067250
32.616667	1	0.054500
32.633333	1	0.042875
32.650000	1	0.032375
32.666667	1	0.023125
32.683333	1	0.015375
32.700000	1	0.007750
32.716667	1	0.001000
32.733333	1	-0.004500
32.750000	1	-0.009375
32.766667	1	-0.014375
32.783333	1	-0.018125
32.800000	1	-0.021250
32.816667	1	-0.023875
32.833333	1	-0.026125
32.850000	1	-0.028250
32.866667	1	-0.029625
32.883333	1	-0.030750
32.900000	1	-0.031500
32.916667	1	-0.031375
32.933333	1	-0.031125
32.950000	1	-0.030750
32.966667	1	-0.030500
32.983333	1	-0.028625
33.000000	1	-0.027375
33.016667	1	-0.026250
33.033333	1	-0.025250
33.050000	1	-0.024500
33.066667	1	-0.022875
33.083333	1	-0.021250
33.100000	1	-0.020000
33.116667	1	-0.018000
33.133333	1	-0.016250
33.150000	1	-0.014250
33.166667	1	-0.012625
33.183333	1	-0.011125
33.200000	1	-0.009000
33.216667	1	-0.007125
33.233333	1	-0.005000
33.250000	1	-0.003250
33.266667	1	-0.001375
33.283333	1	0.000125
33.300000	1	0.001500
33.316667	1	0.003625
33.333333	1	0.005750
33.350000	1	0.007375
33.366667	1	0.009250
33.383333	1	0.010375
33.400000	1	0.011500
33.416667	1	0.012500
33.433333	1	0.013875
33.450000	1	0.015250
33.466667	1	0.015875
33.483333	1	0.016625
33.500000	1	0.017125
33.516667	1	0.018375
33.533333	1	0.018000
33.550000	1	0.018875
33.566667	1	0.019500
33.583333	1	0.020375
33.600000	1	0.020250
33.616667	1	0.020250
33.633333	1	0.020250
33.650000	1	0.019750
33.666667	1	0.020625
33.683333	1	0.020375
33.700000	1	0.020250
33.716667	1	0.020000
33.733333	1	0.019875
33.750000	1	0.020250
33.766667	1	0.021375
33.783333	1	0.022375
33.800000	1	0.023000
33.816667	1	0.022000
33.833333	1	0.023000
33.850000	1	0.024000
33.866667	1	0.024625
33.883333	1	0.025125
33.900000	1	0.026375
33.916667	1	0.027625
33.933333	1	0.029000
33.950000	1	0.029875
33.966667	1	0.030625
33.983333	1	0.031750
34.000000	1	0.032375
34.016667	1	0.033125
34.033333	1	0.034250
34.050000	1	0.034875
34.066667	1	0.035375
34.083333	1	0.035750
34.100000	1	0.036250
34.116667	1	0.036875
34.133333	1	0.038000
34.150000	1	0.039125
34.166667	1	0.039625
34.183333	1	0.040625
34.200000	1	0.041875
34.216667	1	0.042125
34.233333	1	0.042375
34.250000	1	0.043125
34.266667	1	0.044500
34.283333	1	0.045125
34.300000	1	0.045750
34.316667	1	0.047000
34.333333	1	0.048875
34.350000	1	0.050625
34.366667	1	0.052375
34.383333	1	0.054250
34.400000	1	0.056000
34.416667	1	0.058375
34.433333	1	0.060250
34.450000	1	0.062000
34.466667	1	0.064875
34.483333	1	0.067500
34.500000	1	0.070750
34.516667	1	0.074000
34.533333	1	0.076750
34.550000	1	0.079625
34.566667	1	0.083125
34.583333	1	0.086750
34.600000	1	0.090875
34.616667	1	0.094125
34.633333	1	0.097375
34.650000	1	0.100375
34.666667	1	0.103750
34.683333	1	0.106500
34.700000	1	0.109250
34.716667	1	0.112125
34.733333	1	0.114500
34.750000	1	0.117125
34.766667	1	0.119625
34.783333	1	0.120625
34.800000	1	0.121875
34.816667	1	0.123125
34.833333	1	0.123375
34.850000	1	0.124000
34.866667	1	0.124250
34.883333	1	0.124500
34.900000	1	0.124250
34.916667	1	0.123500
34.933333	1	0.121875
34.950000	1	0.120625
34.966667	1	0.119250
34.983333	1	0.117375
35.000000	1	0.115500
35.016667	1	0.113750
35.033333	1	0.111500
35.050000	1	0.109250
35.066667	1	0.107125
35.083333	1	0.103625
35.100000	1	0.100750
35.116667	1	0.099125
35.133333	1	0.097375
35.150000	1	0.095125
35.166667	1	0.092875
35.183333	1	0.090250
35.200000	1	0.088000
35.216667	1	0.085875
35.233333	1	0.084000
35.250000	1	0.081500
35.266667	1	0.079125
35.283333	1	0.077250
35.300000	1	0.075750
35.316667	1	0.074250
35.333333	1	0.073000
35.350000	1	0.071875
35.366667	1	0.071250
35.383333	1	0.070250
35.400000	1	0.068750
35.416667	1	0.068000
35.433333	1	0.068125
35.450000	1	0.067500
35.466667	1	0.066750
35.483333	1	0.067250
35.500000	1	0.067375
35.516667	1	0.068125
35.533333	1	0.068625
35.550000	1	0.070000
35.566667	1	0.070125
35.583333	1	0.070375
35.600000	1	0.071125
35.616667	1	0.072125
35.633333	1	0.073125
35.650000	1	0.074875
35.666667	1	0.076375
35.683333	1	0.077500
35.700000	1	0.079250
35.716667	1	0.080875
35.733333	1	0.082250
35.750000	1	0.083750
35.766667	1	0.084500
35.783333	1	0.084875
35.800000	1	0.086250
35.816667	1	0.087125
35.833333	1	0.088250
35.850000	1	0.089000
35.866667	1	0.089875
35.883333	1	0.090875
35.900000	1	0.091000
35.916667	1	0.091250
35.933333	1	0.091750
35.950000	1	0.091750
35.966667	1	0.091500
35.983333	1	0.090500
36.000000	1	0.090375
36.016667	1	0.089875
36.033333	1	0.089250
36.050000	1	0.087875
36.066667	1	0.086875
36.083333	1	0.086250
36.100000	1	0.085375
36.116667	1	0.084375
36.133333	1	0.084125
36.150000	1	0.083375
36.166667	1	0.083125
36.183333	1	0.082375
36.200000	1	0.081000
36.216667	1	0.079875
36.233333	1	0.079125
36.250000	1	0.078375
36.266667	1	0.077875
36.283333	1	0.078000
36.300000	1	0.078000
36.316667	1	0.077750
36.333333	1	0.077875
36.350000	1	0.078500
36.366667	1	0.078500
36.383333	1	0.078250
36.400000	1	0.078500
36.416667	1	0.079500
36.433333	1	0.080250
36.450000	1	0.081625
36.466667	1	0.082500
36.483333	1	0.083375
36.500000	1	0.084250
36.516667	1	0.084750
36.533333	1	0.085500
36.550000	1	0.086875
36.566667	1	0.087500
36.583333	1	0.088500
36.600000	1	0.089500
36.616667	1	0.090000
36.633333	1	0.090125
36.650000	1	0.089500
36.666667	1	0.089750
36.683333	1	0.089750
36.700000	1	0.090000
36.716667	1	0.089500
36.733333	1	0.088625
36.750000	1	0.087750
36.766667	1	0.087000
36.783333	1	0.086000
36.800000	1	0.084125
36.816667	1	0.082375
36.833333	1	0.080500
36.850000	1	0.077875
36.866667	1	0.076125
36.883333	1	0.074625
36.900000	1	0.072250
36.916667	1	0.069625
36.933333	1	0.066875
36.950000	1	0.064250
36.966667	1	0.062000
36.983333	1	0.059750
37.000000	1	0.057000
37.016667	1	0.054875
37.033333	1	0.052500
37.050000	1	0.050500
37.066667	1	0.048125
37.083333	1	0.046250
37.100000	1	0.044500
37.116667	1	0.043000
37.133333	1	0.042000
37.150000	1	0.040500
37.166667	1	0.039375
37.183333	1	0.038750
37.200000	1	0.037500
37.216667	1	0.035875
37.233333	1	0.033875
37.250000	1	0.033000
37.266667	1	0.030875
37.283333	1	0.029000
37.300000	1	0.027375
37.316667	1	0.025875
37.333333	1	0.024375
37.350000	1	0.022250
37.366667	1	0.020250
37.383333	1	0.018250
37.400000	1	0.016375
37.416667	1	0.013875
37.433333	1	0.011750
37.450000	1	0.009625
37.466667	1	0.007125
37.483333	1	0.005125
37.500000	1	0.002625
37.516667	1	-0.000125
37.533333	1	-0.002875
37.550000	1	-0.005000
37.566667	1	-0.006875
37.583333	1	-0.009000
37.600000	1	-0.011250
37.616667	1	-0.012875
37.633333	1	-0.014875
37.650000	1	-0.016625
37.666667	1	-0.018500
37.683333	1	-0.019250
37.700000	1	-0.020625
37.716667	1	-0.021250
37.733333	1	-0.021750
37.750000	1	-0.022250
37.766667	1	-0.022250
37.783333	1	-0.022500
37.800000	1	-0.022875
37.816667	1	-0.022875
37.833333	1	-0.022750
37.850000	1	-0.022375
37.866667	1	-0.021375
37.883333	1	-0.021250
37.900000	1	-0.020625
37.916667	1	-0.020375
37.933333	1	-0.020125
37.950000	1	-0.019000
37.966667	1	-0.018750
37.983333	1	-0.017875
38.000000	1	-0.017125
38.016667	1	-0.016375
38.033333	1	-0.015875
38.050000	1	-0.015250
38.066667	1	-0.014625
38.083333	1	-0.013875
38.100000	1	-0.012750
38.116667	1	-0.012125
38.133333	1	-0.010625
38.150000	1	-0.009750
38.166667	1	-0.008500
38.183333	1	-0.007250
38.200000	1	-0.005375
38.216667	1	-0.004000
38.233333	1	-0.002875
38.250000	1	-0.001125
38.266667	1	0.000500
38.283333	1	0.002250
38.300000	1	0.004500
38.316667	1	0.006375
38.333333	1	0.008375
38.350000	1	0.010375
38.366667	1	0.012625
38.383333	1	0.015375
38.400000	1	0.017125
38.416667	1	0.019250
38.433333	1	0.021875
38.450000	1	0.023750
38.466667	1	0.025500
38.483333	1	0.027875
38.500000	1	0.028750
38.516667	1	0.030250
38.533333	1	0.032000
38.550000	1	0.032500
38.566667	1	0.033625
38.583333	1	0.033750
38.600000	1	0.033875
38.616667	1	0.033750
38.633333	1	0.033125
38.650000	1	0.033125
38.666667	1	0.032625
38.683333	1	0.032375
38.700000	1	0.031625
38.716667	1	0.029750
38.733333	1	0.028125
38.750000	1	0.027000
38.766667	1	0.024875
38.783333	1	0.023500
38.800000	1	0.021375
38.816667	1	0.018625
38.833333	1	0.016375
38.850000	1	0.014625
38.866667	1	0.013000
38.883333	1	0.010875
38.900000	1	0.009500
38.916667	1	0.007750
38.933333	1	0.005875
38.950000	1	0.004125
38.966667	1	0.003000
38.983333	1	0.001000
39.000000	1	-0.000250
39.016667	1	-0.001750
39.033333	1	-0.003125
39.050000	1	-0.004000
39.066667	1	-0.004375
39.083333	1	-0.004375
39.100000	1	-0.004125
39.116667	1	-0.004125
39.133333	1	-0.004125
39.150000	1	-0.003250
39.166667	1	-0.002625
39.183333	1	-0.001500
39.200000	1	-0.001000
39.216667	1	0.000625
39.233333	1	0.001500
39.250000	1	0.002750
39.266667	1	0.004625
39.283333	1	0.006625
39.300000	1	0.008625
39.316667	1	0.010375
39.333333	1	0.012000
39.350000	1	0.013000
39.366667	1	0.014000
39.383333	1	0.015125
39.400000	1	0.015750
39.416667	1	0.016625
39.433333	1	0.017625
39.450000	1	0.018375
39.466667	1	0.018875
39.483333	1	0.019250
39.500000	1	0.019750
39.516667	1	0.019875
39.533333	1	0.019875
39.550000	1	0.018625
39.566667	1	0.018250
39.583333	1	0.018250
39.600000	1	0.017500
39.616667	1	0.016500
39.633333	1	0.016375
39.650000	1	0.015250
39.666667	1	0.014125
39.683333	1	0.013500
39.700000	1	0.012750
39.716667	1	0.012125
39.733333	1	0.011500
39.750000	1	0.010750
39.766667	1	0.010000
39.783333	1	0.009875
39.800000	1	0.009250
39.816667	1	0.008625
39.833333	1	0.008375
39.850000	1	0.008500
39.866667	1	0.008000
39.883333	1	0.008625
39.900000	1	0.008625
39.916667	1	0.009250
39.933333	1	0.009250
39.950000	1	0.009500
39.966667	1	0.010500
39.983333	1	0.010750
40.000000	1	0.011125
