URL	chrom://7040-86g6c92/XVault/Ultimate_3000/20/20240517_CMO_FP23_FP25_MarkusDeplate.seq/898.smp/RI_1.channel/RI_1.chm
Channel	RI_1

Injection Information:
Data Vault	XVault
Sequence	20240517_CMO_FP23_FP25_MarkusDeplate
Name	FP23_24_s2
Number	26
Position	BC2
Comment	
Processing Method	
Instrument Method	run_25B_method
Type	Unknown
Status	Finished
Inject Time	28.05.2024 11:06:34 +02:00
Volume (µl)	20.0000
Dilution Factor	1.0000
Weight	1.0000

Chromatogram Data Information:
Time Min. (min)	0.000000
Time Max. (min)	40.000000
Data Points	2401
Detector	RI
Generating Data System	Chromeleon 7.3.2.11814
Exporting Data System	Chromeleon 7.3.2.0
Operator	Instrument Controller
Signal Quantity	Refractive 
Signal Unit	µRIU
Signal Min.	-1.706875
Signal Max.	68.953250
Channel	RI_1
Driver Name	RID520Driver.dll
Channel Type	Evaluation
Min. Step (s)	1
Max. Step (s)	1
Average Step (s)	1

Signal Parameter Information:
Signal Info	

Chromatogram Data:
Time (min)	Step (s)	Value (µRIU)
0.000000	n.a.	-0.063375
0.016667	1	-0.065375
0.033333	1	-0.066750
0.050000	1	-0.068375
0.066667	1	-0.069375
0.083333	1	-0.070875
0.100000	1	-0.071750
0.116667	1	-0.072500
0.133333	1	-0.073125
0.150000	1	-0.073625
0.166667	1	-0.074000
0.183333	1	-0.073625
0.200000	1	-0.073500
0.216667	1	-0.072875
0.233333	1	-0.072000
0.250000	1	-0.070875
0.266667	1	-0.069250
0.283333	1	-0.067750
0.300000	1	-0.065625
0.316667	1	-0.062875
0.333333	1	-0.061250
0.350000	1	-0.059625
0.366667	1	-0.057250
0.383333	1	-0.055500
0.400000	1	-0.053375
0.416667	1	-0.050375
0.433333	1	-0.046625
0.450000	1	-0.041875
0.466667	1	-0.036625
0.483333	1	-0.031750
0.500000	1	-0.027750
0.516667	1	-0.025250
0.533333	1	-0.022375
0.550000	1	-0.020250
0.566667	1	-0.018625
0.583333	1	-0.018000
0.600000	1	-0.018375
0.616667	1	-0.018625
0.633333	1	-0.017750
0.650000	1	-0.017125
0.666667	1	-0.015750
0.683333	1	-0.014875
0.700000	1	-0.013625
0.716667	1	-0.012250
0.733333	1	-0.011375
0.750000	1	-0.010000
0.766667	1	-0.009500
0.783333	1	-0.008250
0.800000	1	-0.007125
0.816667	1	-0.006000
0.833333	1	-0.005000
0.850000	1	-0.003750
0.866667	1	-0.003500
0.883333	1	-0.002125
0.900000	1	-0.000875
0.916667	1	-0.000125
0.933333	1	0.001000
0.950000	1	0.002250
0.966667	1	0.002875
0.983333	1	0.003375
1.000000	1	0.004125
1.016667	1	0.005375
1.033333	1	0.006500
1.050000	1	0.008875
1.066667	1	0.010125
1.083333	1	0.012375
1.100000	1	0.014625
1.116667	1	0.016125
1.133333	1	0.017000
1.150000	1	0.018375
1.166667	1	0.020000
1.183333	1	0.022000
1.200000	1	0.023500
1.216667	1	0.024750
1.233333	1	0.026625
1.250000	1	0.028125
1.266667	1	0.029500
1.283333	1	0.031000
1.300000	1	0.032375
1.316667	1	0.033000
1.333333	1	0.034250
1.350000	1	0.035625
1.366667	1	0.036375
1.383333	1	0.037500
1.400000	1	0.038375
1.416667	1	0.038125
1.433333	1	0.038750
1.450000	1	0.039500
1.466667	1	0.039500
1.483333	1	0.039750
1.500000	1	0.039500
1.516667	1	0.039375
1.533333	1	0.039125
1.550000	1	0.038750
1.566667	1	0.038375
1.583333	1	0.038000
1.600000	1	0.037000
1.616667	1	0.036625
1.633333	1	0.035875
1.650000	1	0.035125
1.666667	1	0.034000
1.683333	1	0.033375
1.700000	1	0.032250
1.716667	1	0.030875
1.733333	1	0.029750
1.750000	1	0.029000
1.766667	1	0.027250
1.783333	1	0.025500
1.800000	1	0.023750
1.816667	1	0.022500
1.833333	1	0.021000
1.850000	1	0.019000
1.866667	1	0.017500
1.883333	1	0.015750
1.900000	1	0.014500
1.916667	1	0.011625
1.933333	1	0.009750
1.950000	1	0.007500
1.966667	1	0.004750
1.983333	1	0.002625
2.000000	1	0.000375
2.016667	1	-0.001750
2.033333	1	-0.004000
2.050000	1	-0.005750
2.066667	1	-0.007750
2.083333	1	-0.009375
2.100000	1	-0.011250
2.116667	1	-0.013250
2.133333	1	-0.015750
2.150000	1	-0.017125
2.166667	1	-0.019500
2.183333	1	-0.021125
2.200000	1	-0.022125
2.216667	1	-0.023625
2.233333	1	-0.024750
2.250000	1	-0.025250
2.266667	1	-0.026375
2.283333	1	-0.027000
2.300000	1	-0.027500
2.316667	1	-0.028250
2.333333	1	-0.028250
2.350000	1	-0.028625
2.366667	1	-0.028500
2.383333	1	-0.028000
2.400000	1	-0.027625
2.416667	1	-0.027375
2.433333	1	-0.026250
2.450000	1	-0.025875
2.466667	1	-0.024875
2.483333	1	-0.023875
2.500000	1	-0.022875
2.516667	1	-0.021500
2.533333	1	-0.020375
2.550000	1	-0.019250
2.566667	1	-0.016875
2.583333	1	-0.014875
2.600000	1	-0.013375
2.616667	1	-0.012000
2.633333	1	-0.010625
2.650000	1	-0.009375
2.666667	1	-0.007875
2.683333	1	-0.006125
2.700000	1	-0.004125
2.716667	1	-0.002375
2.733333	1	-0.000375
2.750000	1	0.001000
2.766667	1	0.002000
2.783333	1	0.003375
2.800000	1	0.004750
2.816667	1	0.005875
2.833333	1	0.006625
2.850000	1	0.008000
2.866667	1	0.008750
2.883333	1	0.008625
2.900000	1	0.009250
2.916667	1	0.010000
2.933333	1	0.010000
2.950000	1	0.010500
2.966667	1	0.010500
2.983333	1	0.009750
3.000000	1	0.009000
3.016667	1	0.008750
3.033333	1	0.008250
3.050000	1	0.007625
3.066667	1	0.007500
3.083333	1	0.006375
3.100000	1	0.005750
3.116667	1	0.004625
3.133333	1	0.003500
3.150000	1	0.003000
3.166667	1	0.002250
3.183333	1	0.001250
3.200000	1	0.000000
3.216667	1	-0.000750
3.233333	1	-0.001375
3.250000	1	-0.002125
3.266667	1	-0.003125
3.283333	1	-0.004000
3.300000	1	-0.004000
3.316667	1	-0.004375
3.333333	1	-0.004625
3.350000	1	-0.004500
3.366667	1	-0.004125
3.383333	1	-0.004875
3.400000	1	-0.004375
3.416667	1	-0.004000
3.433333	1	-0.003250
3.450000	1	-0.002500
3.466667	1	-0.002125
3.483333	1	-0.001750
3.500000	1	-0.002250
3.516667	1	-0.001750
3.533333	1	-0.001625
3.550000	1	-0.001250
3.566667	1	-0.001000
3.583333	1	-0.000750
3.600000	1	-0.000250
3.616667	1	0.000000
3.633333	1	0.000000
3.650000	1	-0.000250
3.666667	1	-0.000250
3.683333	1	-0.000875
3.700000	1	-0.001625
3.716667	1	-0.001875
3.733333	1	-0.002000
3.750000	1	-0.001625
3.766667	1	-0.001375
3.783333	1	-0.001250
3.800000	1	-0.001375
3.816667	1	-0.001000
3.833333	1	-0.000375
3.850000	1	-0.000250
3.866667	1	0.000000
3.883333	1	0.000000
3.900000	1	0.000625
3.916667	1	0.001250
3.933333	1	0.002125
3.950000	1	0.002750
3.966667	1	0.003625
3.983333	1	0.004750
4.000000	1	0.006000
4.016667	1	0.007375
4.033333	1	0.009000
4.050000	1	0.010125
4.066667	1	0.011125
4.083333	1	0.012500
4.100000	1	0.014125
4.116667	1	0.016000
4.133333	1	0.018000
4.150000	1	0.019500
4.166667	1	0.021250
4.183333	1	0.022875
4.200000	1	0.023875
4.216667	1	0.025750
4.233333	1	0.026750
4.250000	1	0.028500
4.266667	1	0.029875
4.283333	1	0.030875
4.300000	1	0.032000
4.316667	1	0.033125
4.333333	1	0.033750
4.350000	1	0.034625
4.366667	1	0.035500
4.383333	1	0.036750
4.400000	1	0.038250
4.416667	1	0.040000
4.433333	1	0.041125
4.450000	1	0.042375
4.466667	1	0.042625
4.483333	1	0.043500
4.500000	1	0.044500
4.516667	1	0.045500
4.533333	1	0.045750
4.550000	1	0.047375
4.566667	1	0.048125
4.583333	1	0.049375
4.600000	1	0.049875
4.616667	1	0.051375
4.633333	1	0.052125
4.650000	1	0.053125
4.666667	1	0.054875
4.683333	1	0.055750
4.700000	1	0.057000
4.716667	1	0.057375
4.733333	1	0.058375
4.750000	1	0.059500
4.766667	1	0.060000
4.783333	1	0.060125
4.800000	1	0.060375
4.816667	1	0.061000
4.833333	1	0.062375
4.850000	1	0.063625
4.866667	1	0.064750
4.883333	1	0.065250
4.900000	1	0.066625
4.916667	1	0.067625
4.933333	1	0.069000
4.950000	1	0.069625
4.966667	1	0.070500
4.983333	1	0.071625
5.000000	1	0.072750
5.016667	1	0.074000
5.033333	1	0.075250
5.050000	1	0.076875
5.066667	1	0.078625
5.083333	1	0.079750
5.100000	1	0.081125
5.116667	1	0.083250
5.133333	1	0.084875
5.150000	1	0.087000
5.166667	1	0.088750
5.183333	1	0.091000
5.200000	1	0.093625
5.216667	1	0.096000
5.233333	1	0.097875
5.250000	1	0.100125
5.266667	1	0.102750
5.283333	1	0.105625
5.300000	1	0.108625
5.316667	1	0.111125
5.333333	1	0.113250
5.350000	1	0.116250
5.366667	1	0.118750
5.383333	1	0.122000
5.400000	1	0.124875
5.416667	1	0.127625
5.433333	1	0.130500
5.450000	1	0.132500
5.466667	1	0.134625
5.483333	1	0.136875
5.500000	1	0.139375
5.516667	1	0.141000
5.533333	1	0.142375
5.550000	1	0.144250
5.566667	1	0.146125
5.583333	1	0.147625
5.600000	1	0.148125
5.616667	1	0.149250
5.633333	1	0.150250
5.650000	1	0.151125
5.666667	1	0.151875
5.683333	1	0.151750
5.700000	1	0.152250
5.716667	1	0.152125
5.733333	1	0.151875
5.750000	1	0.151875
5.766667	1	0.151875
5.783333	1	0.152500
5.800000	1	0.153375
5.816667	1	0.153375
5.833333	1	0.153500
5.850000	1	0.154000
5.866667	1	0.154125
5.883333	1	0.154500
5.900000	1	0.154750
5.916667	1	0.155000
5.933333	1	0.155625
5.950000	1	0.156250
5.966667	1	0.156625
5.983333	1	0.156750
6.000000	1	0.157500
6.016667	1	0.158375
6.033333	1	0.159250
6.050000	1	0.158875
6.066667	1	0.159625
6.083333	1	0.160125
6.100000	1	0.161375
6.116667	1	0.161375
6.133333	1	0.161125
6.150000	1	0.161000
6.166667	1	0.161125
6.183333	1	0.161000
6.200000	1	0.161125
6.216667	1	0.160500
6.233333	1	0.159750
6.250000	1	0.159125
6.266667	1	0.158875
6.283333	1	0.158250
6.300000	1	0.157250
6.316667	1	0.156375
6.333333	1	0.156500
6.350000	1	0.156125
6.366667	1	0.155875
6.383333	1	0.155250
6.400000	1	0.154625
6.416667	1	0.154125
6.433333	1	0.153750
6.450000	1	0.153875
6.466667	1	0.152750
6.483333	1	0.152875
6.500000	1	0.152250
6.516667	1	0.151750
6.533333	1	0.151625
6.550000	1	0.151125
6.566667	1	0.150375
6.583333	1	0.150250
6.600000	1	0.149875
6.616667	1	0.148875
6.633333	1	0.147875
6.650000	1	0.145875
6.666667	1	0.144375
6.683333	1	0.142625
6.700000	1	0.140875
6.716667	1	0.138750
6.733333	1	0.136500
6.750000	1	0.134625
6.766667	1	0.132125
6.783333	1	0.129125
6.800000	1	0.126125
6.816667	1	0.122625
6.833333	1	0.119625
6.850000	1	0.116375
6.866667	1	0.112500
6.883333	1	0.108375
6.900000	1	0.104250
6.916667	1	0.099750
6.933333	1	0.095875
6.950000	1	0.091375
6.966667	1	0.087750
6.983333	1	0.084000
7.000000	1	0.079375
7.016667	1	0.074875
7.033333	1	0.070875
7.050000	1	0.066625
7.066667	1	0.063250
7.083333	1	0.059750
7.100000	1	0.057250
7.116667	1	0.054750
7.133333	1	0.052000
7.150000	1	0.050250
7.166667	1	0.048375
7.183333	1	0.046875
7.200000	1	0.045375
7.216667	1	0.045375
7.233333	1	0.046125
7.250000	1	0.046625
7.266667	1	0.046875
7.283333	1	0.048000
7.300000	1	0.049500
7.316667	1	0.051125
7.333333	1	0.053500
7.350000	1	0.056625
7.366667	1	0.059250
7.383333	1	0.063125
7.400000	1	0.066875
7.416667	1	0.070500
7.433333	1	0.074000
7.450000	1	0.077500
7.466667	1	0.081875
7.483333	1	0.086000
7.500000	1	0.090750
7.516667	1	0.095250
7.533333	1	0.099250
7.550000	1	0.103625
7.566667	1	0.108125
7.583333	1	0.112375
7.600000	1	0.116500
7.616667	1	0.119500
7.633333	1	0.122500
7.650000	1	0.125625
7.666667	1	0.128875
7.683333	1	0.131000
7.700000	1	0.133000
7.716667	1	0.136125
7.733333	1	0.137750
7.750000	1	0.139750
7.766667	1	0.140500
7.783333	1	0.141375
7.800000	1	0.141750
7.816667	1	0.142375
7.833333	1	0.142750
7.850000	1	0.142500
7.866667	1	0.142250
7.883333	1	0.141125
7.900000	1	0.140625
7.916667	1	0.138875
7.933333	1	0.137500
7.950000	1	0.135875
7.966667	1	0.133750
7.983333	1	0.131750
8.000000	1	0.129375
8.016667	1	0.127125
8.033333	1	0.124625
8.050000	1	0.121750
8.066667	1	0.118875
8.083333	1	0.115125
8.100000	1	0.111375
8.116667	1	0.107500
8.133333	1	0.103875
8.150000	1	0.100500
8.166667	1	0.097250
8.183333	1	0.093625
8.200000	1	0.089625
8.216667	1	0.086000
8.233333	1	0.081750
8.250000	1	0.077000
8.266667	1	0.073125
8.283333	1	0.069000
8.300000	1	0.065500
8.316667	1	0.062125
8.333333	1	0.059625
8.350000	1	0.057000
8.366667	1	0.053375
8.383333	1	0.050875
8.400000	1	0.047750
8.416667	1	0.045000
8.433333	1	0.043250
8.450000	1	0.040625
8.466667	1	0.038625
8.483333	1	0.036875
8.500000	1	0.035000
8.516667	1	0.033375
8.533333	1	0.032375
8.550000	1	0.031250
8.566667	1	0.030125
8.583333	1	0.029125
8.600000	1	0.027625
8.616667	1	0.026875
8.633333	1	0.025250
8.650000	1	0.023750
8.666667	1	0.022500
8.683333	1	0.021375
8.700000	1	0.020000
8.716667	1	0.019000
8.733333	1	0.018250
8.750000	1	0.016875
8.766667	1	0.015375
8.783333	1	0.014500
8.800000	1	0.013875
8.816667	1	0.012250
8.833333	1	0.010750
8.850000	1	0.009375
8.866667	1	0.008250
8.883333	1	0.007125
8.900000	1	0.006250
8.916667	1	0.005375
8.933333	1	0.005125
8.950000	1	0.004875
8.966667	1	0.004250
8.983333	1	0.003625
9.000000	1	0.004000
9.016667	1	0.004000
9.033333	1	0.003750
9.050000	1	0.003625
9.066667	1	0.003625
9.083333	1	0.003500
9.100000	1	0.004750
9.116667	1	0.004875
9.133333	1	0.005625
9.150000	1	0.006375
9.166667	1	0.006875
9.183333	1	0.007500
9.200000	1	0.008250
9.216667	1	0.008125
9.233333	1	0.008875
9.250000	1	0.009500
9.266667	1	0.010500
9.283333	1	0.011500
9.300000	1	0.012375
9.316667	1	0.013875
9.333333	1	0.014375
9.350000	1	0.015625
9.366667	1	0.017000
9.383333	1	0.017625
9.400000	1	0.018375
9.416667	1	0.020250
9.433333	1	0.020875
9.450000	1	0.022500
9.466667	1	0.024000
9.483333	1	0.025750
9.500000	1	0.027000
9.516667	1	0.029000
9.533333	1	0.030750
9.550000	1	0.032875
9.566667	1	0.034500
9.583333	1	0.035375
9.600000	1	0.036625
9.616667	1	0.037375
9.633333	1	0.038500
9.650000	1	0.039125
9.666667	1	0.040250
9.683333	1	0.041375
9.700000	1	0.041875
9.716667	1	0.042250
9.733333	1	0.042625
9.750000	1	0.042500
9.766667	1	0.042750
9.783333	1	0.042625
9.800000	1	0.042250
9.816667	1	0.041250
9.833333	1	0.039875
9.850000	1	0.038250
9.866667	1	0.036750
9.883333	1	0.035125
9.900000	1	0.033500
9.916667	1	0.032000
9.933333	1	0.029625
9.950000	1	0.027125
9.966667	1	0.024875
9.983333	1	0.023125
10.000000	1	0.020750
10.016667	1	0.018125
10.033333	1	0.015875
10.050000	1	0.014500
10.066667	1	0.014000
10.083333	1	0.014500
10.100000	1	0.015000
10.116667	1	0.017750
10.133333	1	0.020125
10.150000	1	0.024875
10.166667	1	0.030625
10.183333	1	0.037500
10.200000	1	0.045875
10.216667	1	0.055875
10.233333	1	0.068625
10.250000	1	0.083250
10.266667	1	0.100500
10.283333	1	0.119500
10.300000	1	0.141250
10.316667	1	0.166750
10.333333	1	0.194875
10.350000	1	0.226625
10.366667	1	0.263000
10.383333	1	0.303500
10.400000	1	0.348250
10.416667	1	0.392375
10.433333	1	0.428750
10.450000	1	0.444125
10.466667	1	0.427125
10.483333	1	0.371625
10.500000	1	0.287875
10.516667	1	0.210625
10.533333	1	0.205250
10.550000	1	0.358500
10.566667	1	0.773125
10.583333	1	1.550000
10.600000	1	2.779250
10.616667	1	4.531500
10.633333	1	6.851625
10.650000	1	9.764250
10.666667	1	13.274250
10.683333	1	17.362625
10.700000	1	21.977750
10.716667	1	27.026625
10.733333	1	32.356750
10.750000	1	37.742625
10.766667	1	42.863750
10.783333	1	47.317250
10.800000	1	50.646000
10.816667	1	52.436750
10.833333	1	52.432500
10.850000	1	50.641000
10.866667	1	47.330875
10.883333	1	42.956375
10.900000	1	38.028000
10.916667	1	32.991750
10.933333	1	28.173000
10.950000	1	23.771000
10.966667	1	19.887250
10.983333	1	16.546250
11.000000	1	13.732000
11.016667	1	11.403250
11.033333	1	9.505000
11.050000	1	7.971625
11.066667	1	6.740625
11.083333	1	5.752750
11.100000	1	4.960625
11.116667	1	4.320375
11.133333	1	3.801500
11.150000	1	3.377000
11.166667	1	3.028250
11.183333	1	2.739250
11.200000	1	2.497375
11.216667	1	2.293750
11.233333	1	2.120875
11.250000	1	1.973625
11.266667	1	1.846875
11.283333	1	1.738125
11.300000	1	1.643250
11.316667	1	1.560125
11.333333	1	1.487375
11.350000	1	1.424125
11.366667	1	1.368125
11.383333	1	1.318875
11.400000	1	1.274875
11.416667	1	1.235750
11.433333	1	1.201250
11.450000	1	1.170250
11.466667	1	1.142250
11.483333	1	1.117000
11.500000	1	1.094125
11.516667	1	1.073875
11.533333	1	1.055000
11.550000	1	1.038500
11.566667	1	1.023750
11.583333	1	1.011125
11.600000	1	1.000375
11.616667	1	0.991500
11.633333	1	0.983125
11.650000	1	0.976875
11.666667	1	0.972750
11.683333	1	0.970750
11.700000	1	0.970500
11.716667	1	0.972125
11.733333	1	0.973625
11.750000	1	0.977250
11.766667	1	0.982500
11.783333	1	0.989000
11.800000	1	0.995125
11.816667	1	1.001500
11.833333	1	1.007750
11.850000	1	1.012750
11.866667	1	1.017875
11.883333	1	1.022750
11.900000	1	1.025875
11.916667	1	1.029250
11.933333	1	1.032375
11.950000	1	1.035125
11.966667	1	1.037375
11.983333	1	1.039875
12.000000	1	1.043000
12.016667	1	1.045875
12.033333	1	1.049625
12.050000	1	1.053625
12.066667	1	1.057875
12.083333	1	1.063125
12.100000	1	1.068250
12.116667	1	1.074250
12.133333	1	1.080750
12.150000	1	1.087500
12.166667	1	1.095625
12.183333	1	1.104500
12.200000	1	1.114125
12.216667	1	1.125250
12.233333	1	1.137875
12.250000	1	1.152625
12.266667	1	1.169375
12.283333	1	1.187750
12.300000	1	1.208250
12.316667	1	1.231500
12.333333	1	1.259125
12.350000	1	1.293750
12.366667	1	1.338000
12.383333	1	1.396750
12.400000	1	1.475625
12.416667	1	1.581125
12.433333	1	1.721875
12.450000	1	1.905375
12.466667	1	2.142000
12.483333	1	2.437125
12.500000	1	2.796750
12.516667	1	3.221875
12.533333	1	3.710375
12.550000	1	4.255250
12.566667	1	4.846625
12.583333	1	5.470000
12.600000	1	6.111500
12.616667	1	6.754125
12.633333	1	7.385000
12.650000	1	7.994250
12.666667	1	8.572500
12.683333	1	9.118750
12.700000	1	9.633000
12.716667	1	10.120750
12.733333	1	10.588875
12.750000	1	11.046750
12.766667	1	11.504250
12.783333	1	11.970625
12.800000	1	12.450625
12.816667	1	12.950875
12.833333	1	13.472500
12.850000	1	14.007375
12.866667	1	14.528500
12.883333	1	14.971000
12.900000	1	15.230375
12.916667	1	15.184875
12.933333	1	14.744250
12.950000	1	13.893875
12.966667	1	12.707500
12.983333	1	11.318750
13.000000	1	9.873250
13.016667	1	8.487000
13.033333	1	7.232125
13.050000	1	6.137875
13.066667	1	5.208625
13.083333	1	4.433500
13.100000	1	3.797875
13.116667	1	3.282750
13.133333	1	2.870250
13.150000	1	2.541875
13.166667	1	2.282125
13.183333	1	2.076625
13.200000	1	1.913625
13.216667	1	1.784125
13.233333	1	1.679500
13.250000	1	1.594250
13.266667	1	1.524000
13.283333	1	1.464875
13.300000	1	1.413250
13.316667	1	1.368375
13.333333	1	1.328875
13.350000	1	1.293750
13.366667	1	1.262125
13.383333	1	1.233750
13.400000	1	1.207875
13.416667	1	1.186750
13.433333	1	1.166875
13.450000	1	1.151125
13.466667	1	1.136625
13.483333	1	1.125375
13.500000	1	1.117125
13.516667	1	1.110000
13.533333	1	1.105375
13.550000	1	1.101750
13.566667	1	1.097875
13.583333	1	1.093750
13.600000	1	1.089000
13.616667	1	1.081500
13.633333	1	1.072250
13.650000	1	1.061625
13.666667	1	1.047125
13.683333	1	1.032125
13.700000	1	1.014750
13.716667	1	0.995250
13.733333	1	0.974625
13.750000	1	0.954375
13.766667	1	0.934250
13.783333	1	0.914125
13.800000	1	0.894125
13.816667	1	0.873875
13.833333	1	0.855125
13.850000	1	0.836625
13.866667	1	0.818875
13.883333	1	0.801875
13.900000	1	0.786250
13.916667	1	0.770250
13.933333	1	0.755625
13.950000	1	0.741625
13.966667	1	0.728750
13.983333	1	0.717000
14.000000	1	0.705375
14.016667	1	0.694500
14.033333	1	0.684250
14.050000	1	0.674625
14.066667	1	0.665750
14.083333	1	0.657000
14.100000	1	0.649000
14.116667	1	0.641750
14.133333	1	0.635250
14.150000	1	0.628625
14.166667	1	0.623250
14.183333	1	0.618875
14.200000	1	0.614750
14.216667	1	0.612500
14.233333	1	0.611375
14.250000	1	0.610375
14.266667	1	0.610125
14.283333	1	0.610625
14.300000	1	0.612750
14.316667	1	0.615750
14.333333	1	0.620500
14.350000	1	0.626875
14.366667	1	0.634250
14.383333	1	0.644250
14.400000	1	0.656750
14.416667	1	0.673000
14.433333	1	0.695750
14.450000	1	0.729125
14.466667	1	0.779250
14.483333	1	0.856250
14.500000	1	0.979000
14.516667	1	1.171875
14.533333	1	1.467750
14.550000	1	1.910375
14.566667	1	2.560500
14.583333	1	3.484500
14.600000	1	4.763875
14.616667	1	6.486625
14.633333	1	8.740500
14.650000	1	11.604750
14.666667	1	15.133125
14.683333	1	19.344875
14.700000	1	24.207000
14.716667	1	29.633625
14.733333	1	35.481250
14.750000	1	41.549875
14.766667	1	47.589625
14.783333	1	53.323125
14.800000	1	58.477375
14.816667	1	62.797875
14.833333	1	66.070375
14.850000	1	68.146250
14.866667	1	68.953250
14.883333	1	68.504000
14.900000	1	66.887000
14.916667	1	64.259375
14.933333	1	60.818625
14.950000	1	56.785750
14.966667	1	52.380000
14.983333	1	47.804000
15.000000	1	43.223500
15.016667	1	38.771375
15.033333	1	34.544625
15.050000	1	30.609000
15.066667	1	27.002125
15.083333	1	23.738625
15.100000	1	20.816625
15.116667	1	18.217625
15.133333	1	15.918625
15.150000	1	13.892500
15.166667	1	12.113500
15.183333	1	10.554375
15.200000	1	9.191375
15.216667	1	8.001750
15.233333	1	6.967000
15.250000	1	6.069750
15.266667	1	5.296250
15.283333	1	4.634250
15.300000	1	4.071875
15.316667	1	3.599500
15.333333	1	3.205875
15.350000	1	2.882000
15.366667	1	2.619500
15.383333	1	2.409125
15.400000	1	2.241250
15.416667	1	2.109750
15.433333	1	2.006250
15.450000	1	1.923875
15.466667	1	1.856875
15.483333	1	1.798625
15.500000	1	1.745750
15.516667	1	1.696625
15.533333	1	1.648625
15.550000	1	1.599625
15.566667	1	1.550500
15.583333	1	1.502125
15.600000	1	1.453250
15.616667	1	1.406375
15.633333	1	1.360500
15.650000	1	1.317250
15.666667	1	1.277250
15.683333	1	1.239375
15.700000	1	1.204250
15.716667	1	1.170750
15.733333	1	1.139125
15.750000	1	1.109500
15.766667	1	1.080875
15.783333	1	1.053000
15.800000	1	1.026125
15.816667	1	0.999875
15.833333	1	0.975375
15.850000	1	0.952000
15.866667	1	0.929875
15.883333	1	0.909625
15.900000	1	0.891125
15.916667	1	0.875375
15.933333	1	0.861000
15.950000	1	0.848500
15.966667	1	0.837875
15.983333	1	0.830000
16.000000	1	0.823875
16.016667	1	0.819750
16.033333	1	0.816750
16.050000	1	0.815125
16.066667	1	0.814625
16.083333	1	0.815125
16.100000	1	0.815625
16.116667	1	0.817375
16.133333	1	0.818000
16.150000	1	0.820000
16.166667	1	0.820750
16.183333	1	0.820875
16.200000	1	0.820375
16.216667	1	0.819875
16.233333	1	0.818875
16.250000	1	0.817500
16.266667	1	0.815000
16.283333	1	0.812375
16.300000	1	0.809750
16.316667	1	0.808000
16.333333	1	0.806125
16.350000	1	0.805250
16.366667	1	0.805875
16.383333	1	0.806750
16.400000	1	0.809875
16.416667	1	0.814500
16.433333	1	0.820125
16.450000	1	0.827125
16.466667	1	0.834750
16.483333	1	0.842625
16.500000	1	0.851000
16.516667	1	0.857000
16.533333	1	0.863500
16.550000	1	0.868125
16.566667	1	0.870625
16.583333	1	0.871500
16.600000	1	0.871125
16.616667	1	0.869375
16.633333	1	0.866375
16.650000	1	0.862000
16.666667	1	0.858750
16.683333	1	0.856375
16.700000	1	0.855750
16.716667	1	0.856500
16.733333	1	0.858375
16.750000	1	0.862375
16.766667	1	0.868125
16.783333	1	0.875625
16.800000	1	0.884125
16.816667	1	0.893000
16.833333	1	0.902250
16.850000	1	0.910500
16.866667	1	0.918375
16.883333	1	0.925375
16.900000	1	0.929875
16.916667	1	0.932625
16.933333	1	0.933875
16.950000	1	0.933875
16.966667	1	0.932875
16.983333	1	0.930250
17.000000	1	0.926625
17.016667	1	0.922750
17.033333	1	0.918875
17.050000	1	0.916000
17.066667	1	0.913375
17.083333	1	0.911375
17.100000	1	0.910250
17.116667	1	0.910625
17.133333	1	0.911750
17.150000	1	0.913625
17.166667	1	0.916125
17.183333	1	0.919500
17.200000	1	0.923500
17.216667	1	0.927875
17.233333	1	0.933000
17.250000	1	0.937875
17.266667	1	0.943375
17.283333	1	0.949250
17.300000	1	0.955250
17.316667	1	0.961500
17.333333	1	0.968625
17.350000	1	0.975625
17.366667	1	0.983125
17.383333	1	0.989625
17.400000	1	0.995250
17.416667	1	1.000000
17.433333	1	1.004000
17.450000	1	1.006750
17.466667	1	1.007500
17.483333	1	1.007375
17.500000	1	1.004625
17.516667	1	1.001000
17.533333	1	0.995000
17.550000	1	0.988125
17.566667	1	0.979250
17.583333	1	0.969000
17.600000	1	0.957625
17.616667	1	0.945250
17.633333	1	0.931750
17.650000	1	0.917875
17.666667	1	0.903250
17.683333	1	0.888375
17.700000	1	0.873375
17.716667	1	0.858125
17.733333	1	0.843875
17.750000	1	0.829875
17.766667	1	0.816375
17.783333	1	0.803125
17.800000	1	0.790875
17.816667	1	0.779000
17.833333	1	0.768250
17.850000	1	0.758375
17.866667	1	0.749000
17.883333	1	0.740250
17.900000	1	0.732625
17.916667	1	0.725125
17.933333	1	0.717625
17.950000	1	0.710000
17.966667	1	0.702500
17.983333	1	0.694875
18.000000	1	0.687250
18.016667	1	0.679375
18.033333	1	0.671625
18.050000	1	0.664000
18.066667	1	0.656875
18.083333	1	0.649875
18.100000	1	0.643625
18.116667	1	0.638875
18.133333	1	0.634375
18.150000	1	0.631000
18.166667	1	0.628750
18.183333	1	0.626625
18.200000	1	0.624125
18.216667	1	0.623750
18.233333	1	0.623125
18.250000	1	0.622625
18.266667	1	0.622375
18.283333	1	0.622750
18.300000	1	0.623125
18.316667	1	0.623625
18.333333	1	0.625125
18.350000	1	0.626500
18.366667	1	0.628500
18.383333	1	0.631500
18.400000	1	0.635875
18.416667	1	0.641500
18.433333	1	0.648625
18.450000	1	0.657375
18.466667	1	0.667875
18.483333	1	0.680500
18.500000	1	0.694625
18.516667	1	0.711250
18.533333	1	0.729750
18.550000	1	0.750375
18.566667	1	0.773000
18.583333	1	0.797500
18.600000	1	0.823750
18.616667	1	0.851625
18.633333	1	0.881375
18.650000	1	0.912625
18.666667	1	0.945375
18.683333	1	0.979125
18.700000	1	1.014500
18.716667	1	1.050375
18.733333	1	1.085750
18.750000	1	1.121500
18.766667	1	1.155750
18.783333	1	1.189750
18.800000	1	1.223125
18.816667	1	1.254125
18.833333	1	1.281375
18.850000	1	1.304750
18.866667	1	1.323500
18.883333	1	1.336500
18.900000	1	1.344500
18.916667	1	1.346125
18.933333	1	1.341375
18.950000	1	1.330125
18.966667	1	1.312625
18.983333	1	1.289000
19.000000	1	1.259875
19.016667	1	1.226000
19.033333	1	1.188625
19.050000	1	1.148750
19.066667	1	1.106250
19.083333	1	1.063000
19.100000	1	1.020000
19.116667	1	0.978875
19.133333	1	0.939875
19.150000	1	0.903500
19.166667	1	0.872250
19.183333	1	0.845625
19.200000	1	0.825625
19.216667	1	0.812500
19.233333	1	0.807875
19.250000	1	0.810250
19.266667	1	0.822750
19.283333	1	0.844375
19.300000	1	0.876000
19.316667	1	0.917000
19.333333	1	0.967750
19.350000	1	1.026250
19.366667	1	1.091875
19.383333	1	1.163000
19.400000	1	1.237000
19.416667	1	1.312375
19.433333	1	1.387125
19.450000	1	1.458125
19.466667	1	1.523625
19.483333	1	1.581750
19.500000	1	1.630250
19.516667	1	1.668750
19.533333	1	1.696125
19.550000	1	1.712875
19.566667	1	1.718250
19.583333	1	1.712875
19.600000	1	1.697250
19.616667	1	1.672500
19.633333	1	1.640750
19.650000	1	1.602250
19.666667	1	1.558000
19.683333	1	1.509500
19.700000	1	1.458125
19.716667	1	1.404500
19.733333	1	1.349250
19.750000	1	1.293375
19.766667	1	1.237000
19.783333	1	1.180875
19.800000	1	1.125000
19.816667	1	1.069750
19.833333	1	1.015625
19.850000	1	0.962750
19.866667	1	0.912375
19.883333	1	0.864000
19.900000	1	0.817875
19.916667	1	0.773625
19.933333	1	0.733000
19.950000	1	0.695375
19.966667	1	0.662250
19.983333	1	0.631250
20.000000	1	0.606000
20.016667	1	0.584875
20.033333	1	0.568250
20.050000	1	0.555875
20.066667	1	0.548375
20.083333	1	0.546750
20.100000	1	0.549250
20.116667	1	0.556250
20.133333	1	0.566750
20.150000	1	0.581750
20.166667	1	0.599125
20.183333	1	0.618875
20.200000	1	0.640000
20.216667	1	0.660500
20.233333	1	0.680125
20.250000	1	0.698250
20.266667	1	0.712625
20.283333	1	0.724000
20.300000	1	0.731375
20.316667	1	0.733375
20.333333	1	0.730500
20.350000	1	0.723125
20.366667	1	0.711625
20.383333	1	0.696250
20.400000	1	0.677125
20.416667	1	0.656500
20.433333	1	0.634500
20.450000	1	0.612000
20.466667	1	0.588875
20.483333	1	0.568000
20.500000	1	0.549875
20.516667	1	0.534000
20.533333	1	0.522500
20.550000	1	0.515125
20.566667	1	0.513750
20.583333	1	0.517625
20.600000	1	0.529250
20.616667	1	0.549000
20.633333	1	0.576875
20.650000	1	0.613500
20.666667	1	0.659250
20.683333	1	0.714375
20.700000	1	0.777875
20.716667	1	0.847750
20.733333	1	0.924625
20.750000	1	1.006125
20.766667	1	1.090375
20.783333	1	1.174625
20.800000	1	1.255625
20.816667	1	1.331625
20.833333	1	1.399375
20.850000	1	1.456625
20.866667	1	1.501875
20.883333	1	1.534375
20.900000	1	1.552625
20.916667	1	1.557000
20.933333	1	1.547375
20.950000	1	1.524750
20.966667	1	1.489625
20.983333	1	1.446000
21.000000	1	1.393625
21.016667	1	1.335750
21.033333	1	1.273375
21.050000	1	1.208875
21.066667	1	1.144375
21.083333	1	1.080875
21.100000	1	1.019625
21.116667	1	0.960375
21.133333	1	0.904375
21.150000	1	0.852000
21.166667	1	0.803625
21.183333	1	0.759250
21.200000	1	0.718250
21.216667	1	0.681375
21.233333	1	0.647750
21.250000	1	0.618000
21.266667	1	0.591000
21.283333	1	0.566750
21.300000	1	0.545125
21.316667	1	0.525750
21.333333	1	0.507875
21.350000	1	0.491750
21.366667	1	0.477625
21.383333	1	0.464375
21.400000	1	0.452250
21.416667	1	0.441625
21.433333	1	0.431500
21.450000	1	0.422625
21.466667	1	0.413875
21.483333	1	0.406875
21.500000	1	0.400000
21.516667	1	0.393875
21.533333	1	0.389750
21.550000	1	0.386125
21.566667	1	0.382375
21.583333	1	0.380000
21.600000	1	0.378250
21.616667	1	0.376500
21.633333	1	0.376875
21.650000	1	0.378375
21.666667	1	0.381125
21.683333	1	0.385125
21.700000	1	0.390125
21.716667	1	0.396250
21.733333	1	0.403375
21.750000	1	0.411250
21.766667	1	0.420125
21.783333	1	0.430000
21.800000	1	0.440000
21.816667	1	0.449500
21.833333	1	0.459750
21.850000	1	0.469875
21.866667	1	0.480375
21.883333	1	0.490500
21.900000	1	0.500875
21.916667	1	0.510250
21.933333	1	0.519875
21.950000	1	0.528625
21.966667	1	0.536625
21.983333	1	0.543875
22.000000	1	0.551125
22.016667	1	0.557000
22.033333	1	0.562875
22.050000	1	0.568375
22.066667	1	0.573875
22.083333	1	0.577500
22.100000	1	0.581250
22.116667	1	0.584500
22.133333	1	0.586375
22.150000	1	0.587250
22.166667	1	0.587375
22.183333	1	0.586500
22.200000	1	0.583500
22.216667	1	0.580500
22.233333	1	0.575875
22.250000	1	0.569375
22.266667	1	0.562250
22.283333	1	0.554000
22.300000	1	0.544500
22.316667	1	0.534375
22.333333	1	0.523750
22.350000	1	0.513000
22.366667	1	0.501625
22.383333	1	0.490625
22.400000	1	0.479125
22.416667	1	0.467500
22.433333	1	0.456625
22.450000	1	0.445500
22.466667	1	0.434750
22.483333	1	0.424375
22.500000	1	0.414000
22.516667	1	0.404750
22.533333	1	0.395750
22.550000	1	0.387125
22.566667	1	0.379000
22.583333	1	0.371000
22.600000	1	0.363125
22.616667	1	0.356000
22.633333	1	0.348625
22.650000	1	0.341500
22.666667	1	0.334500
22.683333	1	0.327125
22.700000	1	0.321125
22.716667	1	0.314750
22.733333	1	0.308750
22.750000	1	0.301250
22.766667	1	0.294250
22.783333	1	0.288375
22.800000	1	0.282000
22.816667	1	0.275500
22.833333	1	0.269000
22.850000	1	0.263375
22.866667	1	0.258000
22.883333	1	0.252250
22.900000	1	0.247125
22.916667	1	0.243125
22.933333	1	0.238625
22.950000	1	0.235250
22.966667	1	0.231250
22.983333	1	0.227625
23.000000	1	0.224625
23.016667	1	0.223750
23.033333	1	0.221875
23.050000	1	0.221000
23.066667	1	0.220875
23.083333	1	0.220750
23.100000	1	0.220875
23.116667	1	0.221750
23.133333	1	0.222750
23.150000	1	0.224500
23.166667	1	0.226250
23.183333	1	0.227875
23.200000	1	0.229250
23.216667	1	0.232125
23.233333	1	0.234250
23.250000	1	0.237250
23.266667	1	0.241375
23.283333	1	0.245500
23.300000	1	0.251125
23.316667	1	0.257875
23.333333	1	0.266500
23.350000	1	0.278375
23.366667	1	0.293375
23.383333	1	0.312500
23.400000	1	0.337750
23.416667	1	0.370500
23.433333	1	0.412500
23.450000	1	0.465125
23.466667	1	0.530250
23.483333	1	0.611750
23.500000	1	0.711250
23.516667	1	0.830375
23.533333	1	0.971375
23.550000	1	1.137500
23.566667	1	1.328500
23.583333	1	1.545125
23.600000	1	1.788125
23.616667	1	2.056125
23.633333	1	2.346500
23.650000	1	2.655625
23.666667	1	2.979375
23.683333	1	3.313500
23.700000	1	3.651125
23.716667	1	3.985250
23.733333	1	4.310000
23.750000	1	4.616250
23.766667	1	4.896375
23.783333	1	5.145500
23.800000	1	5.356125
23.816667	1	5.524875
23.833333	1	5.647500
23.850000	1	5.723875
23.866667	1	5.752875
23.883333	1	5.734500
23.900000	1	5.672125
23.916667	1	5.568375
23.933333	1	5.428375
23.950000	1	5.256625
23.966667	1	5.059000
23.983333	1	4.839625
24.000000	1	4.606125
24.016667	1	4.363125
24.033333	1	4.114875
24.050000	1	3.865375
24.066667	1	3.619250
24.083333	1	3.378500
24.100000	1	3.146000
24.116667	1	2.922750
24.133333	1	2.709375
24.150000	1	2.508375
24.166667	1	2.320125
24.183333	1	2.142750
24.200000	1	1.977875
24.216667	1	1.824500
24.233333	1	1.682875
24.250000	1	1.552000
24.266667	1	1.430875
24.283333	1	1.319750
24.300000	1	1.218000
24.316667	1	1.125250
24.333333	1	1.040500
24.350000	1	0.964375
24.366667	1	0.895625
24.383333	1	0.834000
24.400000	1	0.777625
24.416667	1	0.728125
24.433333	1	0.684000
24.450000	1	0.646250
24.466667	1	0.612000
24.483333	1	0.583000
24.500000	1	0.556625
24.516667	1	0.534500
24.533333	1	0.515000
24.550000	1	0.498000
24.566667	1	0.483375
24.583333	1	0.469750
24.600000	1	0.457750
24.616667	1	0.446500
24.633333	1	0.436375
24.650000	1	0.427000
24.666667	1	0.418000
24.683333	1	0.409375
24.700000	1	0.401125
24.716667	1	0.393250
24.733333	1	0.386125
24.750000	1	0.377875
24.766667	1	0.370375
24.783333	1	0.363000
24.800000	1	0.355625
24.816667	1	0.348375
24.833333	1	0.341125
24.850000	1	0.335125
24.866667	1	0.329125
24.883333	1	0.323000
24.900000	1	0.317500
24.916667	1	0.311875
24.933333	1	0.306625
24.950000	1	0.301250
24.966667	1	0.297000
24.983333	1	0.293125
25.000000	1	0.289250
25.016667	1	0.286000
25.033333	1	0.282500
25.050000	1	0.279375
25.066667	1	0.276250
25.083333	1	0.273000
25.100000	1	0.270375
25.116667	1	0.267875
25.133333	1	0.265000
25.150000	1	0.262000
25.166667	1	0.258750
25.183333	1	0.255625
25.200000	1	0.252750
25.216667	1	0.250250
25.233333	1	0.247125
25.250000	1	0.244250
25.266667	1	0.241375
25.283333	1	0.239125
25.300000	1	0.236750
25.316667	1	0.235125
25.333333	1	0.231750
25.350000	1	0.229375
25.366667	1	0.226375
25.383333	1	0.224625
25.400000	1	0.223125
25.416667	1	0.222500
25.433333	1	0.221125
25.450000	1	0.219750
25.466667	1	0.219250
25.483333	1	0.219000
25.500000	1	0.219000
25.516667	1	0.218500
25.533333	1	0.218875
25.550000	1	0.219625
25.566667	1	0.220500
25.583333	1	0.222000
25.600000	1	0.223250
25.616667	1	0.224875
25.633333	1	0.226000
25.650000	1	0.228125
25.666667	1	0.230750
25.683333	1	0.232375
25.700000	1	0.234250
25.716667	1	0.236000
25.733333	1	0.238250
25.750000	1	0.240375
25.766667	1	0.241500
25.783333	1	0.243250
25.800000	1	0.244375
25.816667	1	0.247000
25.833333	1	0.248750
25.850000	1	0.251000
25.866667	1	0.253500
25.883333	1	0.256250
25.900000	1	0.258750
25.916667	1	0.261500
25.933333	1	0.264750
25.950000	1	0.268375
25.966667	1	0.272125
25.983333	1	0.275750
26.000000	1	0.279375
26.016667	1	0.283625
26.033333	1	0.288500
26.050000	1	0.293375
26.066667	1	0.298875
26.083333	1	0.304250
26.100000	1	0.310500
26.116667	1	0.316500
26.133333	1	0.322500
26.150000	1	0.328625
26.166667	1	0.334375
26.183333	1	0.341000
26.200000	1	0.346875
26.216667	1	0.352625
26.233333	1	0.358000
26.250000	1	0.362500
26.266667	1	0.368125
26.283333	1	0.372000
26.300000	1	0.375750
26.316667	1	0.378125
26.333333	1	0.380875
26.350000	1	0.382500
26.366667	1	0.383875
26.383333	1	0.384250
26.400000	1	0.383250
26.416667	1	0.382000
26.433333	1	0.379125
26.450000	1	0.376750
26.466667	1	0.373625
26.483333	1	0.369750
26.500000	1	0.365625
26.516667	1	0.361500
26.533333	1	0.356625
26.550000	1	0.351625
26.566667	1	0.346750
26.583333	1	0.340875
26.600000	1	0.334750
26.616667	1	0.330125
26.633333	1	0.325500
26.650000	1	0.321000
26.666667	1	0.316000
26.683333	1	0.311000
26.700000	1	0.306750
26.716667	1	0.302500
26.733333	1	0.298500
26.750000	1	0.295000
26.766667	1	0.291625
26.783333	1	0.289250
26.800000	1	0.287000
26.816667	1	0.285000
26.833333	1	0.282625
26.850000	1	0.281125
26.866667	1	0.279250
26.883333	1	0.277625
26.900000	1	0.276750
26.916667	1	0.275500
26.933333	1	0.274125
26.950000	1	0.272500
26.966667	1	0.271875
26.983333	1	0.270250
27.000000	1	0.268750
27.016667	1	0.266875
27.033333	1	0.265500
27.050000	1	0.264500
27.066667	1	0.263250
27.083333	1	0.262625
27.100000	1	0.261500
27.116667	1	0.261000
27.133333	1	0.260875
27.150000	1	0.261250
27.166667	1	0.261750
27.183333	1	0.263125
27.200000	1	0.264750
27.216667	1	0.268000
27.233333	1	0.272875
27.250000	1	0.279875
27.266667	1	0.288000
27.283333	1	0.298500
27.300000	1	0.311625
27.316667	1	0.328375
27.333333	1	0.348875
27.350000	1	0.373625
27.366667	1	0.403375
27.383333	1	0.438750
27.400000	1	0.480750
27.416667	1	0.530500
27.433333	1	0.589250
27.450000	1	0.656750
27.466667	1	0.734125
27.483333	1	0.822625
27.500000	1	0.921875
27.516667	1	1.033750
27.533333	1	1.157250
27.550000	1	1.293250
27.566667	1	1.441000
27.583333	1	1.600125
27.600000	1	1.770875
27.616667	1	1.950375
27.633333	1	2.138375
27.650000	1	2.333125
27.666667	1	2.533000
27.683333	1	2.733875
27.700000	1	2.934500
27.716667	1	3.130750
27.733333	1	3.320875
27.750000	1	3.500875
27.766667	1	3.668000
27.783333	1	3.818750
27.800000	1	3.951500
27.816667	1	4.064125
27.833333	1	4.153750
27.850000	1	4.218375
27.866667	1	4.258000
27.883333	1	4.271500
27.900000	1	4.258625
27.916667	1	4.221250
27.933333	1	4.159000
27.950000	1	4.075125
27.966667	1	3.970625
27.983333	1	3.849125
28.000000	1	3.712250
28.016667	1	3.563750
28.033333	1	3.404750
28.050000	1	3.238375
28.066667	1	3.068750
28.083333	1	2.896250
28.100000	1	2.725375
28.116667	1	2.556500
28.133333	1	2.391625
28.150000	1	2.232375
28.166667	1	2.080750
28.183333	1	1.935125
28.200000	1	1.798125
28.216667	1	1.668875
28.233333	1	1.548500
28.250000	1	1.435875
28.266667	1	1.331750
28.283333	1	1.234750
28.300000	1	1.145500
28.316667	1	1.063500
28.333333	1	0.988500
28.350000	1	0.920125
28.366667	1	0.858125
28.383333	1	0.802500
28.400000	1	0.751750
28.416667	1	0.706125
28.433333	1	0.665375
28.450000	1	0.629000
28.466667	1	0.596750
28.483333	1	0.569000
28.500000	1	0.544625
28.516667	1	0.524250
28.533333	1	0.506625
28.550000	1	0.492000
28.566667	1	0.480375
28.583333	1	0.471500
28.600000	1	0.464750
28.616667	1	0.461000
28.633333	1	0.458625
28.650000	1	0.458250
28.666667	1	0.459625
28.683333	1	0.462250
28.700000	1	0.465375
28.716667	1	0.470250
28.733333	1	0.475375
28.750000	1	0.481375
28.766667	1	0.487875
28.783333	1	0.494125
28.800000	1	0.500875
28.816667	1	0.507625
28.833333	1	0.514125
28.850000	1	0.520250
28.866667	1	0.525375
28.883333	1	0.530125
28.900000	1	0.534375
28.916667	1	0.537375
28.933333	1	0.539500
28.950000	1	0.540500
28.966667	1	0.540875
28.983333	1	0.540375
29.000000	1	0.538500
29.016667	1	0.534250
29.033333	1	0.528125
29.050000	1	0.520625
29.066667	1	0.511250
29.083333	1	0.499875
29.100000	1	0.486125
29.116667	1	0.470000
29.133333	1	0.452625
29.150000	1	0.431625
29.166667	1	0.407375
29.183333	1	0.381000
29.200000	1	0.350875
29.216667	1	0.317500
29.233333	1	0.280375
29.250000	1	0.239250
29.266667	1	0.194250
29.283333	1	0.145250
29.300000	1	0.092125
29.316667	1	0.034750
29.333333	1	-0.026750
29.350000	1	-0.092500
29.366667	1	-0.162500
29.383333	1	-0.235375
29.400000	1	-0.312125
29.416667	1	-0.392625
29.433333	1	-0.475500
29.450000	1	-0.561250
29.466667	1	-0.648875
29.483333	1	-0.737125
29.500000	1	-0.825625
29.516667	1	-0.915125
29.533333	1	-1.002625
29.550000	1	-1.088750
29.566667	1	-1.171375
29.583333	1	-1.250625
29.600000	1	-1.325125
29.616667	1	-1.394875
29.633333	1	-1.459250
29.650000	1	-1.517875
29.666667	1	-1.568500
29.683333	1	-1.612500
29.700000	1	-1.647750
29.716667	1	-1.675000
29.733333	1	-1.694000
29.750000	1	-1.704750
29.766667	1	-1.706875
29.783333	1	-1.701375
29.800000	1	-1.688000
29.816667	1	-1.667500
29.833333	1	-1.639750
29.850000	1	-1.605375
29.866667	1	-1.564500
29.883333	1	-1.517625
29.900000	1	-1.466500
29.916667	1	-1.411500
29.933333	1	-1.353000
29.950000	1	-1.291500
29.966667	1	-1.227250
29.983333	1	-1.162125
30.000000	1	-1.095750
30.016667	1	-1.028625
30.033333	1	-0.961625
30.050000	1	-0.896125
30.066667	1	-0.830750
30.083333	1	-0.767125
30.100000	1	-0.705750
30.116667	1	-0.646000
30.133333	1	-0.588000
30.150000	1	-0.533000
30.166667	1	-0.480500
30.183333	1	-0.429500
30.200000	1	-0.381625
30.216667	1	-0.336750
30.233333	1	-0.294875
30.250000	1	-0.254750
30.266667	1	-0.217250
30.283333	1	-0.182625
30.300000	1	-0.151125
30.316667	1	-0.121875
30.333333	1	-0.094375
30.350000	1	-0.069625
30.366667	1	-0.046625
30.383333	1	-0.026000
30.400000	1	-0.007000
30.416667	1	0.010625
30.433333	1	0.026250
30.450000	1	0.040250
30.466667	1	0.053250
30.483333	1	0.064625
30.500000	1	0.075250
30.516667	1	0.085500
30.533333	1	0.093375
30.550000	1	0.101500
30.566667	1	0.109500
30.583333	1	0.116500
30.600000	1	0.123000
30.616667	1	0.129500
30.633333	1	0.135500
30.650000	1	0.141750
30.666667	1	0.147750
30.683333	1	0.154250
30.700000	1	0.161000
30.716667	1	0.168250
30.733333	1	0.175500
30.750000	1	0.182375
30.766667	1	0.189750
30.783333	1	0.197500
30.800000	1	0.206000
30.816667	1	0.214750
30.833333	1	0.223750
30.850000	1	0.233875
30.866667	1	0.244500
30.883333	1	0.256125
30.900000	1	0.269375
30.916667	1	0.283875
30.933333	1	0.300500
30.950000	1	0.318625
30.966667	1	0.339125
30.983333	1	0.362875
31.000000	1	0.390375
31.016667	1	0.422375
31.033333	1	0.459750
31.050000	1	0.502500
31.066667	1	0.552250
31.083333	1	0.609375
31.100000	1	0.676625
31.116667	1	0.754250
31.133333	1	0.842375
31.150000	1	0.943000
31.166667	1	1.057500
31.183333	1	1.187250
31.200000	1	1.332625
31.216667	1	1.494875
31.233333	1	1.675375
31.250000	1	1.872500
31.266667	1	2.086500
31.283333	1	2.319000
31.300000	1	2.567750
31.316667	1	2.832500
31.333333	1	3.110625
31.350000	1	3.401500
31.366667	1	3.702625
31.383333	1	4.010500
31.400000	1	4.323000
31.416667	1	4.636125
31.433333	1	4.947000
31.450000	1	5.250875
31.466667	1	5.544000
31.483333	1	5.823125
31.500000	1	6.083000
31.516667	1	6.321750
31.533333	1	6.535625
31.550000	1	6.721625
31.566667	1	6.878250
31.583333	1	7.004125
31.600000	1	7.096625
31.616667	1	7.155500
31.633333	1	7.181250
31.650000	1	7.173125
31.666667	1	7.133125
31.683333	1	7.061500
31.700000	1	6.961250
31.716667	1	6.833500
31.733333	1	6.681625
31.750000	1	6.508250
31.766667	1	6.315875
31.783333	1	6.106625
31.800000	1	5.883750
31.816667	1	5.650375
31.833333	1	5.409375
31.850000	1	5.163125
31.866667	1	4.914000
31.883333	1	4.664625
31.900000	1	4.416125
31.916667	1	4.172500
31.933333	1	3.933250
31.950000	1	3.700250
31.966667	1	3.473625
31.983333	1	3.255625
32.000000	1	3.044750
32.016667	1	2.842750
32.033333	1	2.650375
32.050000	1	2.467250
32.066667	1	2.293750
32.083333	1	2.129125
32.100000	1	1.974500
32.116667	1	1.829375
32.133333	1	1.692375
32.150000	1	1.563250
32.166667	1	1.442750
32.183333	1	1.329250
32.200000	1	1.223125
32.216667	1	1.124125
32.233333	1	1.031375
32.250000	1	0.944875
32.266667	1	0.863875
32.283333	1	0.788875
32.300000	1	0.719375
32.316667	1	0.655125
32.333333	1	0.595875
32.350000	1	0.541000
32.366667	1	0.491000
32.383333	1	0.444250
32.400000	1	0.401125
32.416667	1	0.361875
32.433333	1	0.325875
32.450000	1	0.293375
32.466667	1	0.264125
32.483333	1	0.237750
32.500000	1	0.213250
32.516667	1	0.191250
32.533333	1	0.171500
32.550000	1	0.153625
32.566667	1	0.137625
32.583333	1	0.123250
32.600000	1	0.110500
32.616667	1	0.099375
32.633333	1	0.088625
32.650000	1	0.080625
32.666667	1	0.073000
32.683333	1	0.066375
32.700000	1	0.060625
32.716667	1	0.056125
32.733333	1	0.051375
32.750000	1	0.047250
32.766667	1	0.044000
32.783333	1	0.042000
32.800000	1	0.040000
32.816667	1	0.038250
32.833333	1	0.037000
32.850000	1	0.036125
32.866667	1	0.036250
32.883333	1	0.035250
32.900000	1	0.035250
32.916667	1	0.035750
32.933333	1	0.036125
32.950000	1	0.036375
32.966667	1	0.037625
32.983333	1	0.038000
33.000000	1	0.039375
33.016667	1	0.040625
33.033333	1	0.041500
33.050000	1	0.042750
33.066667	1	0.044500
33.083333	1	0.045625
33.100000	1	0.047125
33.116667	1	0.048375
33.133333	1	0.050000
33.150000	1	0.051375
33.166667	1	0.052750
33.183333	1	0.054500
33.200000	1	0.054625
33.216667	1	0.056125
33.233333	1	0.056750
33.250000	1	0.057750
33.266667	1	0.058750
33.283333	1	0.059750
33.300000	1	0.060500
33.316667	1	0.061125
33.333333	1	0.060875
33.350000	1	0.061625
33.366667	1	0.062250
33.383333	1	0.062000
33.400000	1	0.061625
33.416667	1	0.061375
33.433333	1	0.061375
33.450000	1	0.062000
33.466667	1	0.061625
33.483333	1	0.060750
33.500000	1	0.060375
33.516667	1	0.061125
33.533333	1	0.061250
33.550000	1	0.061375
33.566667	1	0.061500
33.583333	1	0.061625
33.600000	1	0.062000
33.616667	1	0.062250
33.633333	1	0.063125
33.650000	1	0.063625
33.666667	1	0.064750
33.683333	1	0.065375
33.700000	1	0.066750
33.716667	1	0.068000
33.733333	1	0.070000
33.750000	1	0.071875
33.766667	1	0.074750
33.783333	1	0.076500
33.800000	1	0.078875
33.816667	1	0.080750
33.833333	1	0.083375
33.850000	1	0.086375
33.866667	1	0.089125
33.883333	1	0.092250
33.900000	1	0.095375
33.916667	1	0.098125
33.933333	1	0.101250
33.950000	1	0.104375
33.966667	1	0.107500
33.983333	1	0.110125
34.000000	1	0.112750
34.016667	1	0.115375
34.033333	1	0.117625
34.050000	1	0.119375
34.066667	1	0.120875
34.083333	1	0.122750
34.100000	1	0.123750
34.116667	1	0.125750
34.133333	1	0.127500
34.150000	1	0.128500
34.166667	1	0.129875
34.183333	1	0.130750
34.200000	1	0.130625
34.216667	1	0.131750
34.233333	1	0.131875
34.250000	1	0.132125
34.266667	1	0.132250
34.283333	1	0.132625
34.300000	1	0.133000
34.316667	1	0.133625
34.333333	1	0.134250
34.350000	1	0.135375
34.366667	1	0.136250
34.383333	1	0.136625
34.400000	1	0.137750
34.416667	1	0.138625
34.433333	1	0.139500
34.450000	1	0.140875
34.466667	1	0.142500
34.483333	1	0.144125
34.500000	1	0.145875
34.516667	1	0.148125
34.533333	1	0.150250
34.550000	1	0.152750
34.566667	1	0.155000
34.583333	1	0.157125
34.600000	1	0.159875
34.616667	1	0.163000
34.633333	1	0.164750
34.650000	1	0.166750
34.666667	1	0.168875
34.683333	1	0.170250
34.700000	1	0.171875
34.716667	1	0.174125
34.733333	1	0.175250
34.750000	1	0.177000
34.766667	1	0.178125
34.783333	1	0.178875
34.800000	1	0.179500
34.816667	1	0.179875
34.833333	1	0.180375
34.850000	1	0.180500
34.866667	1	0.180125
34.883333	1	0.179875
34.900000	1	0.179250
34.916667	1	0.178375
34.933333	1	0.177000
34.950000	1	0.175375
34.966667	1	0.173500
34.983333	1	0.172125
35.000000	1	0.170000
35.016667	1	0.167750
35.033333	1	0.165250
35.050000	1	0.162125
35.066667	1	0.158750
35.083333	1	0.155750
35.100000	1	0.152500
35.116667	1	0.148875
35.133333	1	0.145625
35.150000	1	0.141750
35.166667	1	0.138625
35.183333	1	0.134875
35.200000	1	0.131375
35.216667	1	0.127750
35.233333	1	0.124625
35.250000	1	0.120750
35.266667	1	0.117375
35.283333	1	0.113750
35.300000	1	0.110875
35.316667	1	0.108125
35.333333	1	0.105125
35.350000	1	0.102750
35.366667	1	0.100125
35.383333	1	0.097125
35.400000	1	0.094500
35.416667	1	0.093250
35.433333	1	0.091500
35.450000	1	0.089875
35.466667	1	0.088625
35.483333	1	0.087750
35.500000	1	0.087250
35.516667	1	0.086875
35.533333	1	0.086875
35.550000	1	0.087500
35.566667	1	0.088250
35.583333	1	0.089625
35.600000	1	0.091500
35.616667	1	0.093375
35.633333	1	0.094625
35.650000	1	0.096875
35.666667	1	0.099625
35.683333	1	0.101750
35.700000	1	0.104625
35.716667	1	0.108000
35.733333	1	0.111500
35.750000	1	0.114625
35.766667	1	0.118500
35.783333	1	0.122375
35.800000	1	0.126250
35.816667	1	0.130250
35.833333	1	0.134375
35.850000	1	0.137875
35.866667	1	0.141625
35.883333	1	0.145375
35.900000	1	0.149000
35.916667	1	0.152250
35.933333	1	0.156750
35.950000	1	0.160250
35.966667	1	0.163250
35.983333	1	0.165875
36.000000	1	0.168750
36.016667	1	0.171375
36.033333	1	0.173750
36.050000	1	0.176125
36.066667	1	0.178375
36.083333	1	0.180375
36.100000	1	0.181875
36.116667	1	0.183000
36.133333	1	0.184250
36.150000	1	0.186000
36.166667	1	0.186625
36.183333	1	0.186250
36.200000	1	0.186250
36.216667	1	0.186125
36.233333	1	0.186125
36.250000	1	0.185500
36.266667	1	0.185250
36.283333	1	0.185500
36.300000	1	0.184750
36.316667	1	0.184250
36.333333	1	0.183000
36.350000	1	0.181625
36.366667	1	0.180500
36.383333	1	0.178875
36.400000	1	0.177625
36.416667	1	0.176375
36.433333	1	0.175375
36.450000	1	0.173875
36.466667	1	0.172750
36.483333	1	0.171875
36.500000	1	0.171125
36.516667	1	0.170375
36.533333	1	0.169375
36.550000	1	0.168375
36.566667	1	0.167375
36.583333	1	0.165750
36.600000	1	0.164375
36.616667	1	0.164250
36.633333	1	0.163000
36.650000	1	0.161375
36.666667	1	0.160125
36.683333	1	0.158375
36.700000	1	0.157750
36.716667	1	0.157000
36.733333	1	0.155375
36.750000	1	0.154125
36.766667	1	0.153250
36.783333	1	0.152375
36.800000	1	0.150750
36.816667	1	0.149500
36.833333	1	0.147500
36.850000	1	0.145875
36.866667	1	0.143375
36.883333	1	0.141875
36.900000	1	0.140250
36.916667	1	0.138250
36.933333	1	0.135875
36.950000	1	0.133875
36.966667	1	0.131625
36.983333	1	0.129750
37.000000	1	0.126875
37.016667	1	0.124375
37.033333	1	0.122000
37.050000	1	0.119500
37.066667	1	0.117375
37.083333	1	0.115250
37.100000	1	0.113125
37.116667	1	0.111375
37.133333	1	0.109375
37.150000	1	0.107875
37.166667	1	0.105750
37.183333	1	0.103375
37.200000	1	0.101125
37.216667	1	0.099500
37.233333	1	0.097625
37.250000	1	0.095750
37.266667	1	0.094500
37.283333	1	0.092750
37.300000	1	0.091000
37.316667	1	0.089250
37.333333	1	0.087500
37.350000	1	0.086750
37.366667	1	0.085125
37.383333	1	0.083875
37.400000	1	0.082875
37.416667	1	0.081125
37.433333	1	0.079625
37.450000	1	0.078500
37.466667	1	0.077375
37.483333	1	0.076625
37.500000	1	0.074625
37.516667	1	0.074000
37.533333	1	0.073125
37.550000	1	0.072500
37.566667	1	0.072000
37.583333	1	0.071625
37.600000	1	0.070500
37.616667	1	0.070625
37.633333	1	0.069875
37.650000	1	0.069500
37.666667	1	0.068375
37.683333	1	0.067375
37.700000	1	0.067625
37.716667	1	0.066875
37.733333	1	0.065875
37.750000	1	0.065125
37.766667	1	0.064875
37.783333	1	0.064250
37.800000	1	0.063375
37.816667	1	0.062750
37.833333	1	0.061875
37.850000	1	0.060875
37.866667	1	0.060000
37.883333	1	0.059000
37.900000	1	0.058000
37.916667	1	0.057000
37.933333	1	0.055750
37.950000	1	0.054250
37.966667	1	0.053250
37.983333	1	0.051875
38.000000	1	0.050750
38.016667	1	0.049375
38.033333	1	0.047750
38.050000	1	0.046125
38.066667	1	0.045000
38.083333	1	0.043625
38.100000	1	0.042750
38.116667	1	0.042250
38.133333	1	0.041750
38.150000	1	0.041375
38.166667	1	0.040750
38.183333	1	0.040250
38.200000	1	0.039500
38.216667	1	0.039000
38.233333	1	0.038875
38.250000	1	0.039750
38.266667	1	0.040375
38.283333	1	0.041875
38.300000	1	0.042250
38.316667	1	0.043000
38.333333	1	0.044000
38.350000	1	0.045125
38.366667	1	0.046375
38.383333	1	0.048375
38.400000	1	0.049375
38.416667	1	0.050250
38.433333	1	0.052250
38.450000	1	0.053375
38.466667	1	0.054750
38.483333	1	0.056750
38.500000	1	0.058250
38.516667	1	0.059375
38.533333	1	0.060125
38.550000	1	0.060750
38.566667	1	0.061625
38.583333	1	0.061625
38.600000	1	0.061500
38.616667	1	0.061625
38.633333	1	0.061500
38.650000	1	0.061250
38.666667	1	0.061000
38.683333	1	0.060000
38.700000	1	0.059250
38.716667	1	0.059000
38.733333	1	0.058250
38.750000	1	0.056625
38.766667	1	0.055375
38.783333	1	0.054250
38.800000	1	0.052500
38.816667	1	0.051250
38.833333	1	0.050375
38.850000	1	0.048625
38.866667	1	0.047125
38.883333	1	0.046375
38.900000	1	0.044000
38.916667	1	0.042875
38.933333	1	0.040750
38.950000	1	0.039750
38.966667	1	0.038625
38.983333	1	0.038250
39.000000	1	0.037375
39.016667	1	0.036125
39.033333	1	0.035875
39.050000	1	0.035250
39.066667	1	0.034375
39.083333	1	0.034250
39.100000	1	0.034000
39.116667	1	0.034500
39.133333	1	0.035250
39.150000	1	0.035875
39.166667	1	0.036125
39.183333	1	0.037000
39.200000	1	0.037500
39.216667	1	0.038375
39.233333	1	0.039625
39.250000	1	0.041250
39.266667	1	0.042750
39.283333	1	0.043250
39.300000	1	0.044250
39.316667	1	0.045500
39.333333	1	0.046875
39.350000	1	0.048250
39.366667	1	0.049250
39.383333	1	0.049750
39.400000	1	0.050875
39.416667	1	0.052250
39.433333	1	0.053000
39.450000	1	0.053625
39.466667	1	0.053875
39.483333	1	0.054250
39.500000	1	0.055125
39.516667	1	0.056125
39.533333	1	0.056500
39.550000	1	0.056625
39.566667	1	0.057250
39.583333	1	0.056500
39.600000	1	0.055750
39.616667	1	0.055125
39.633333	1	0.055375
39.650000	1	0.054625
39.666667	1	0.053875
39.683333	1	0.053375
39.700000	1	0.052500
39.716667	1	0.051125
39.733333	1	0.049375
39.750000	1	0.048625
39.766667	1	0.046875
39.783333	1	0.045875
39.800000	1	0.044625
39.816667	1	0.043500
39.833333	1	0.041625
39.850000	1	0.040000
39.866667	1	0.038500
39.883333	1	0.037250
39.900000	1	0.035375
39.916667	1	0.034125
39.933333	1	0.032875
39.950000	1	0.031750
39.966667	1	0.030750
39.983333	1	0.028875
40.000000	1	0.028250
