URL	chrom://7040-86g6c92/XVault/Ultimate_3000/20/20240517_CMO_FP23_FP25_MarkusDeplate.seq/627.smp/RI_1.channel/RI_1.chm
Channel	RI_1

Injection Information:
Data Vault	XVault
Sequence	20240517_CMO_FP23_FP25_MarkusDeplate
Name	FP23_19.2_s6
Number	36
Position	BC12
Comment	
Processing Method	
Instrument Method	run_25B_method
Type	Unknown
Status	Finished
Inject Time	28.05.2024 17:56:19 +02:00
Volume (µl)	20.0000
Dilution Factor	1.0000
Weight	1.0000

Chromatogram Data Information:
Time Min. (min)	0.000000
Time Max. (min)	40.000000
Data Points	2401
Detector	RI
Generating Data System	Chromeleon 7.3.2.11814
Exporting Data System	Chromeleon 7.3.2.0
Operator	Instrument Controller
Signal Quantity	Refractive 
Signal Unit	µRIU
Signal Min.	-0.753375
Signal Max.	54.115875
Channel	RI_1
Driver Name	RID520Driver.dll
Channel Type	Evaluation
Min. Step (s)	1
Max. Step (s)	1
Average Step (s)	1

Signal Parameter Information:
Signal Info	

Chromatogram Data:
Time (min)	Step (s)	Value (µRIU)
0.000000	n.a.	0.038625
0.016667	1	0.038750
0.033333	1	0.039250
0.050000	1	0.041250
0.066667	1	0.042625
0.083333	1	0.043875
0.100000	1	0.044250
0.116667	1	0.045125
0.133333	1	0.046125
0.150000	1	0.046750
0.166667	1	0.046375
0.183333	1	0.047000
0.200000	1	0.046875
0.216667	1	0.047125
0.233333	1	0.047250
0.250000	1	0.046625
0.266667	1	0.046000
0.283333	1	0.045000
0.300000	1	0.044625
0.316667	1	0.044000
0.333333	1	0.042875
0.350000	1	0.041250
0.366667	1	0.039875
0.383333	1	0.038250
0.400000	1	0.036125
0.416667	1	0.034625
0.433333	1	0.034000
0.450000	1	0.034375
0.466667	1	0.035125
0.483333	1	0.035125
0.500000	1	0.035000
0.516667	1	0.033750
0.533333	1	0.031875
0.550000	1	0.030125
0.566667	1	0.027125
0.583333	1	0.024000
0.600000	1	0.020375
0.616667	1	0.016375
0.633333	1	0.013125
0.650000	1	0.010750
0.666667	1	0.008875
0.683333	1	0.007375
0.700000	1	0.005875
0.716667	1	0.005000
0.733333	1	0.004375
0.750000	1	0.003500
0.766667	1	0.002750
0.783333	1	0.001625
0.800000	1	0.001875
0.816667	1	0.001375
0.833333	1	0.001875
0.850000	1	0.001750
0.866667	1	0.001875
0.883333	1	0.002125
0.900000	1	0.002125
0.916667	1	0.002625
0.933333	1	0.003250
0.950000	1	0.003750
0.966667	1	0.004625
0.983333	1	0.004875
1.000000	1	0.005625
1.016667	1	0.006750
1.033333	1	0.007875
1.050000	1	0.008625
1.066667	1	0.009125
1.083333	1	0.010500
1.100000	1	0.011125
1.116667	1	0.012500
1.133333	1	0.013000
1.150000	1	0.013500
1.166667	1	0.014250
1.183333	1	0.015125
1.200000	1	0.016000
1.216667	1	0.016375
1.233333	1	0.017250
1.250000	1	0.017625
1.266667	1	0.018125
1.283333	1	0.018625
1.300000	1	0.018750
1.316667	1	0.019250
1.333333	1	0.019750
1.350000	1	0.019625
1.366667	1	0.019625
1.383333	1	0.019000
1.400000	1	0.018875
1.416667	1	0.018125
1.433333	1	0.017750
1.450000	1	0.017375
1.466667	1	0.017000
1.483333	1	0.016250
1.500000	1	0.015250
1.516667	1	0.014000
1.533333	1	0.013750
1.550000	1	0.012875
1.566667	1	0.011750
1.583333	1	0.011000
1.600000	1	0.010500
1.616667	1	0.009625
1.633333	1	0.009125
1.650000	1	0.008875
1.666667	1	0.008250
1.683333	1	0.008250
1.700000	1	0.008000
1.716667	1	0.008125
1.733333	1	0.007625
1.750000	1	0.008125
1.766667	1	0.008250
1.783333	1	0.009250
1.800000	1	0.010250
1.816667	1	0.011750
1.833333	1	0.013000
1.850000	1	0.014125
1.866667	1	0.014500
1.883333	1	0.015500
1.900000	1	0.017000
1.916667	1	0.018750
1.933333	1	0.020000
1.950000	1	0.021375
1.966667	1	0.022625
1.983333	1	0.023250
2.000000	1	0.023875
2.016667	1	0.024750
2.033333	1	0.025625
2.050000	1	0.026750
2.066667	1	0.027500
2.083333	1	0.027625
2.100000	1	0.028250
2.116667	1	0.028625
2.133333	1	0.029000
2.150000	1	0.029000
2.166667	1	0.029125
2.183333	1	0.029500
2.200000	1	0.029250
2.216667	1	0.029375
2.233333	1	0.029000
2.250000	1	0.029125
2.266667	1	0.028875
2.283333	1	0.028375
2.300000	1	0.027625
2.316667	1	0.027750
2.333333	1	0.027250
2.350000	1	0.027125
2.366667	1	0.026750
2.383333	1	0.026000
2.400000	1	0.025125
2.416667	1	0.024875
2.433333	1	0.024750
2.450000	1	0.024375
2.466667	1	0.023750
2.483333	1	0.022625
2.500000	1	0.022000
2.516667	1	0.020875
2.533333	1	0.019875
2.550000	1	0.019750
2.566667	1	0.019500
2.583333	1	0.018875
2.600000	1	0.017625
2.616667	1	0.017000
2.633333	1	0.016000
2.650000	1	0.015625
2.666667	1	0.014625
2.683333	1	0.013250
2.700000	1	0.011875
2.716667	1	0.010250
2.733333	1	0.008375
2.750000	1	0.006875
2.766667	1	0.006125
2.783333	1	0.005000
2.800000	1	0.004125
2.816667	1	0.002750
2.833333	1	0.001625
2.850000	1	0.000125
2.866667	1	-0.000750
2.883333	1	-0.002000
2.900000	1	-0.003000
2.916667	1	-0.004000
2.933333	1	-0.004000
2.950000	1	-0.005000
2.966667	1	-0.005625
2.983333	1	-0.005750
3.000000	1	-0.006625
3.016667	1	-0.007375
3.033333	1	-0.007125
3.050000	1	-0.007250
3.066667	1	-0.007000
3.083333	1	-0.006750
3.100000	1	-0.006500
3.116667	1	-0.005750
3.133333	1	-0.004625
3.150000	1	-0.004125
3.166667	1	-0.003000
3.183333	1	-0.002125
3.200000	1	-0.000750
3.216667	1	0.000875
3.233333	1	0.003000
3.250000	1	0.005000
3.266667	1	0.006625
3.283333	1	0.008375
3.300000	1	0.010375
3.316667	1	0.013000
3.333333	1	0.015250
3.350000	1	0.017875
3.366667	1	0.020125
3.383333	1	0.022375
3.400000	1	0.025375
3.416667	1	0.027875
3.433333	1	0.031000
3.450000	1	0.033125
3.466667	1	0.035500
3.483333	1	0.037875
3.500000	1	0.040625
3.516667	1	0.042750
3.533333	1	0.044375
3.550000	1	0.045875
3.566667	1	0.047750
3.583333	1	0.049000
3.600000	1	0.050875
3.616667	1	0.052375
3.633333	1	0.053500
3.650000	1	0.054375
3.666667	1	0.055500
3.683333	1	0.056500
3.700000	1	0.056875
3.716667	1	0.057375
3.733333	1	0.057625
3.750000	1	0.057125
3.766667	1	0.056375
3.783333	1	0.056000
3.800000	1	0.055750
3.816667	1	0.055750
3.833333	1	0.054750
3.850000	1	0.054000
3.866667	1	0.053125
3.883333	1	0.051875
3.900000	1	0.050250
3.916667	1	0.048750
3.933333	1	0.047250
3.950000	1	0.046125
3.966667	1	0.044625
3.983333	1	0.043125
4.000000	1	0.041375
4.016667	1	0.039875
4.033333	1	0.038375
4.050000	1	0.036625
4.066667	1	0.035125
4.083333	1	0.033500
4.100000	1	0.031875
4.116667	1	0.029875
4.133333	1	0.028125
4.150000	1	0.026500
4.166667	1	0.025250
4.183333	1	0.023875
4.200000	1	0.022125
4.216667	1	0.021250
4.233333	1	0.020250
4.250000	1	0.018500
4.266667	1	0.017125
4.283333	1	0.015125
4.300000	1	0.013625
4.316667	1	0.012625
4.333333	1	0.011750
4.350000	1	0.010500
4.366667	1	0.009250
4.383333	1	0.008500
4.400000	1	0.007375
4.416667	1	0.005750
4.433333	1	0.004625
4.450000	1	0.004250
4.466667	1	0.002750
4.483333	1	0.002125
4.500000	1	0.001250
4.516667	1	0.000875
4.533333	1	0.000625
4.550000	1	-0.000125
4.566667	1	-0.000875
4.583333	1	-0.000500
4.600000	1	-0.000250
4.616667	1	0.000750
4.633333	1	0.000625
4.650000	1	0.001125
4.666667	1	0.002000
4.683333	1	0.002500
4.700000	1	0.003250
4.716667	1	0.003875
4.733333	1	0.005000
4.750000	1	0.006750
4.766667	1	0.008375
4.783333	1	0.010250
4.800000	1	0.011375
4.816667	1	0.014000
4.833333	1	0.016625
4.850000	1	0.019250
4.866667	1	0.022000
4.883333	1	0.024375
4.900000	1	0.027375
4.916667	1	0.029750
4.933333	1	0.032750
4.950000	1	0.036000
4.966667	1	0.039750
4.983333	1	0.043125
5.000000	1	0.046750
5.016667	1	0.050125
5.033333	1	0.053875
5.050000	1	0.057500
5.066667	1	0.061125
5.083333	1	0.065000
5.100000	1	0.068875
5.116667	1	0.072000
5.133333	1	0.075750
5.150000	1	0.079875
5.166667	1	0.084250
5.183333	1	0.088000
5.200000	1	0.092375
5.216667	1	0.097125
5.233333	1	0.101625
5.250000	1	0.105750
5.266667	1	0.110000
5.283333	1	0.114125
5.300000	1	0.117375
5.316667	1	0.121750
5.333333	1	0.126875
5.350000	1	0.131625
5.366667	1	0.136250
5.383333	1	0.140000
5.400000	1	0.143875
5.416667	1	0.148375
5.433333	1	0.153000
5.450000	1	0.157250
5.466667	1	0.161500
5.483333	1	0.166125
5.500000	1	0.170125
5.516667	1	0.174375
5.533333	1	0.178375
5.550000	1	0.183000
5.566667	1	0.186875
5.583333	1	0.190250
5.600000	1	0.194625
5.616667	1	0.198000
5.633333	1	0.202125
5.650000	1	0.205500
5.666667	1	0.208375
5.683333	1	0.210375
5.700000	1	0.212875
5.716667	1	0.215250
5.733333	1	0.217125
5.750000	1	0.218625
5.766667	1	0.219625
5.783333	1	0.221125
5.800000	1	0.222375
5.816667	1	0.222625
5.833333	1	0.223125
5.850000	1	0.222750
5.866667	1	0.223000
5.883333	1	0.222875
5.900000	1	0.222250
5.916667	1	0.221375
5.933333	1	0.219875
5.950000	1	0.218375
5.966667	1	0.217125
5.983333	1	0.215875
6.000000	1	0.214125
6.016667	1	0.212250
6.033333	1	0.210500
6.050000	1	0.208125
6.066667	1	0.206000
6.083333	1	0.203750
6.100000	1	0.201125
6.116667	1	0.199000
6.133333	1	0.196375
6.150000	1	0.195250
6.166667	1	0.193625
6.183333	1	0.191875
6.200000	1	0.189000
6.216667	1	0.186750
6.233333	1	0.184625
6.250000	1	0.183500
6.266667	1	0.181625
6.283333	1	0.179875
6.300000	1	0.178750
6.316667	1	0.177000
6.333333	1	0.176000
6.350000	1	0.174125
6.366667	1	0.171625
6.383333	1	0.169875
6.400000	1	0.168500
6.416667	1	0.166750
6.433333	1	0.165375
6.450000	1	0.163375
6.466667	1	0.162000
6.483333	1	0.160000
6.500000	1	0.158625
6.516667	1	0.157000
6.533333	1	0.154500
6.550000	1	0.152750
6.566667	1	0.150875
6.583333	1	0.149000
6.600000	1	0.147250
6.616667	1	0.145250
6.633333	1	0.143250
6.650000	1	0.141125
6.666667	1	0.139500
6.683333	1	0.137625
6.700000	1	0.135500
6.716667	1	0.133750
6.733333	1	0.131625
6.750000	1	0.130000
6.766667	1	0.128125
6.783333	1	0.127125
6.800000	1	0.125750
6.816667	1	0.124500
6.833333	1	0.123125
6.850000	1	0.122375
6.866667	1	0.120500
6.883333	1	0.119750
6.900000	1	0.118375
6.916667	1	0.117250
6.933333	1	0.116500
6.950000	1	0.115500
6.966667	1	0.115250
6.983333	1	0.115375
7.000000	1	0.115250
7.016667	1	0.114625
7.033333	1	0.114750
7.050000	1	0.114125
7.066667	1	0.113625
7.083333	1	0.113000
7.100000	1	0.113000
7.116667	1	0.113125
7.133333	1	0.113125
7.150000	1	0.113000
7.166667	1	0.113875
7.183333	1	0.114250
7.200000	1	0.114750
7.216667	1	0.115000
7.233333	1	0.116250
7.250000	1	0.117250
7.266667	1	0.118250
7.283333	1	0.119000
7.300000	1	0.120250
7.316667	1	0.121375
7.333333	1	0.122250
7.350000	1	0.123875
7.366667	1	0.125125
7.383333	1	0.126875
7.400000	1	0.127875
7.416667	1	0.129125
7.433333	1	0.131000
7.450000	1	0.132875
7.466667	1	0.134375
7.483333	1	0.135625
7.500000	1	0.136875
7.516667	1	0.139125
7.533333	1	0.140375
7.550000	1	0.142125
7.566667	1	0.144000
7.583333	1	0.146250
7.600000	1	0.147625
7.616667	1	0.149000
7.633333	1	0.150750
7.650000	1	0.151875
7.666667	1	0.152750
7.683333	1	0.154250
7.700000	1	0.155875
7.716667	1	0.157000
7.733333	1	0.157750
7.750000	1	0.159000
7.766667	1	0.159750
7.783333	1	0.160375
7.800000	1	0.160125
7.816667	1	0.160000
7.833333	1	0.159625
7.850000	1	0.158625
7.866667	1	0.157750
7.883333	1	0.157750
7.900000	1	0.156000
7.916667	1	0.155250
7.933333	1	0.154000
7.950000	1	0.152250
7.966667	1	0.150875
7.983333	1	0.150000
8.000000	1	0.147375
8.016667	1	0.144875
8.033333	1	0.142625
8.050000	1	0.140750
8.066667	1	0.138125
8.083333	1	0.135500
8.100000	1	0.132250
8.116667	1	0.129875
8.133333	1	0.127000
8.150000	1	0.124500
8.166667	1	0.121000
8.183333	1	0.117875
8.200000	1	0.115375
8.216667	1	0.112375
8.233333	1	0.109375
8.250000	1	0.106000
8.266667	1	0.102875
8.283333	1	0.100125
8.300000	1	0.097625
8.316667	1	0.094875
8.333333	1	0.091875
8.350000	1	0.089375
8.366667	1	0.086875
8.383333	1	0.084000
8.400000	1	0.081250
8.416667	1	0.078750
8.433333	1	0.077000
8.450000	1	0.074625
8.466667	1	0.072250
8.483333	1	0.070250
8.500000	1	0.069125
8.516667	1	0.067125
8.533333	1	0.066250
8.550000	1	0.064750
8.566667	1	0.063125
8.583333	1	0.061875
8.600000	1	0.061125
8.616667	1	0.059375
8.633333	1	0.057875
8.650000	1	0.057625
8.666667	1	0.057125
8.683333	1	0.056250
8.700000	1	0.054750
8.716667	1	0.053375
8.733333	1	0.052750
8.750000	1	0.051375
8.766667	1	0.050125
8.783333	1	0.048750
8.800000	1	0.047750
8.816667	1	0.046250
8.833333	1	0.044625
8.850000	1	0.043250
8.866667	1	0.042500
8.883333	1	0.040750
8.900000	1	0.038750
8.916667	1	0.037250
8.933333	1	0.035875
8.950000	1	0.034125
8.966667	1	0.032625
8.983333	1	0.030750
9.000000	1	0.028000
9.016667	1	0.025750
9.033333	1	0.023625
9.050000	1	0.022000
9.066667	1	0.019625
9.083333	1	0.017500
9.100000	1	0.015625
9.116667	1	0.013375
9.133333	1	0.011500
9.150000	1	0.009625
9.166667	1	0.007875
9.183333	1	0.006125
9.200000	1	0.004125
9.216667	1	0.002750
9.233333	1	0.001375
9.250000	1	0.000250
9.266667	1	-0.001250
9.283333	1	-0.002750
9.300000	1	-0.003625
9.316667	1	-0.004500
9.333333	1	-0.005125
9.350000	1	-0.005375
9.366667	1	-0.006625
9.383333	1	-0.007000
9.400000	1	-0.007875
9.416667	1	-0.008375
9.433333	1	-0.008375
9.450000	1	-0.008875
9.466667	1	-0.009000
9.483333	1	-0.009625
9.500000	1	-0.009500
9.516667	1	-0.010000
9.533333	1	-0.010125
9.550000	1	-0.009750
9.566667	1	-0.009625
9.583333	1	-0.009625
9.600000	1	-0.010125
9.616667	1	-0.010625
9.633333	1	-0.011250
9.650000	1	-0.011000
9.666667	1	-0.011000
9.683333	1	-0.010625
9.700000	1	-0.010250
9.716667	1	-0.009000
9.733333	1	-0.008625
9.750000	1	-0.008000
9.766667	1	-0.007625
9.783333	1	-0.006375
9.800000	1	-0.005750
9.816667	1	-0.005875
9.833333	1	-0.005250
9.850000	1	-0.004750
9.866667	1	-0.004500
9.883333	1	-0.003875
9.900000	1	-0.003500
9.916667	1	-0.003375
9.933333	1	-0.003125
9.950000	1	-0.003000
9.966667	1	-0.001875
9.983333	1	-0.001500
10.000000	1	-0.000500
10.016667	1	0.000625
10.033333	1	0.002250
10.050000	1	0.004375
10.066667	1	0.007750
10.083333	1	0.011375
10.100000	1	0.015375
10.116667	1	0.020625
10.133333	1	0.026875
10.150000	1	0.033625
10.166667	1	0.042000
10.183333	1	0.051125
10.200000	1	0.062000
10.216667	1	0.075625
10.233333	1	0.089500
10.250000	1	0.105750
10.266667	1	0.124750
10.283333	1	0.145750
10.300000	1	0.169250
10.316667	1	0.195875
10.333333	1	0.224250
10.350000	1	0.256000
10.366667	1	0.291000
10.383333	1	0.330625
10.400000	1	0.372750
10.416667	1	0.416375
10.433333	1	0.453250
10.450000	1	0.474625
10.466667	1	0.468625
10.483333	1	0.426250
10.500000	1	0.353375
10.516667	1	0.276750
10.533333	1	0.250875
10.550000	1	0.355500
10.566667	1	0.689250
10.583333	1	1.351625
10.600000	1	2.438125
10.616667	1	4.024750
10.633333	1	6.166375
10.650000	1	8.893125
10.666667	1	12.221500
10.683333	1	16.140375
10.700000	1	20.614000
10.716667	1	25.567875
10.733333	1	30.879375
10.750000	1	36.360375
10.766667	1	41.734375
10.783333	1	46.632000
10.800000	1	50.609750
10.816667	1	53.208125
10.833333	1	54.073500
10.850000	1	53.077125
10.866667	1	50.366250
10.883333	1	46.331250
10.900000	1	41.484000
10.916667	1	36.325500
10.933333	1	31.249500
10.950000	1	26.516500
10.966667	1	22.268625
10.983333	1	18.568875
11.000000	1	15.418000
11.016667	1	12.785750
11.033333	1	10.622000
11.050000	1	8.864500
11.066667	1	7.447625
11.083333	1	6.311500
11.100000	1	5.400000
11.116667	1	4.666875
11.133333	1	4.074875
11.150000	1	3.594000
11.166667	1	3.201750
11.183333	1	2.877375
11.200000	1	2.606375
11.216667	1	2.379375
11.233333	1	2.186750
11.250000	1	2.023250
11.266667	1	1.883125
11.283333	1	1.762500
11.300000	1	1.658625
11.316667	1	1.568500
11.333333	1	1.490375
11.350000	1	1.421500
11.366667	1	1.361750
11.383333	1	1.309750
11.400000	1	1.264000
11.416667	1	1.223625
11.433333	1	1.188000
11.450000	1	1.156500
11.466667	1	1.128875
11.483333	1	1.104875
11.500000	1	1.082875
11.516667	1	1.063875
11.533333	1	1.047000
11.550000	1	1.031875
11.566667	1	1.019000
11.583333	1	1.008875
11.600000	1	0.999000
11.616667	1	0.991250
11.633333	1	0.984625
11.650000	1	0.980625
11.666667	1	0.977750
11.683333	1	0.976375
11.700000	1	0.976625
11.716667	1	0.978750
11.733333	1	0.982125
11.750000	1	0.987875
11.766667	1	0.994250
11.783333	1	1.001625
11.800000	1	1.009500
11.816667	1	1.017625
11.833333	1	1.025750
11.850000	1	1.033875
11.866667	1	1.041500
11.883333	1	1.048375
11.900000	1	1.054750
11.916667	1	1.060625
11.933333	1	1.066000
11.950000	1	1.071625
11.966667	1	1.078000
11.983333	1	1.084375
12.000000	1	1.091250
12.016667	1	1.097875
12.033333	1	1.104375
12.050000	1	1.112000
12.066667	1	1.120375
12.083333	1	1.129375
12.100000	1	1.139250
12.116667	1	1.150125
12.133333	1	1.161375
12.150000	1	1.174875
12.166667	1	1.189750
12.183333	1	1.206625
12.200000	1	1.226250
12.216667	1	1.249000
12.233333	1	1.274875
12.250000	1	1.305125
12.266667	1	1.337750
12.283333	1	1.375125
12.300000	1	1.414875
12.316667	1	1.458625
12.333333	1	1.506375
12.350000	1	1.558375
12.366667	1	1.617375
12.383333	1	1.685875
12.400000	1	1.769500
12.416667	1	1.872500
12.433333	1	2.003000
12.450000	1	2.169625
12.466667	1	2.382125
12.483333	1	2.647125
12.500000	1	2.970875
12.516667	1	3.357375
12.533333	1	3.807625
12.550000	1	4.315250
12.566667	1	4.873625
12.583333	1	5.471000
12.600000	1	6.091625
12.616667	1	6.719375
12.633333	1	7.341125
12.650000	1	7.942125
12.666667	1	8.515250
12.683333	1	9.054625
12.700000	1	9.561000
12.716667	1	10.037000
12.733333	1	10.490375
12.750000	1	10.930000
12.766667	1	11.364375
12.783333	1	11.804125
12.800000	1	12.256875
12.816667	1	12.726750
12.833333	1	13.212125
12.850000	1	13.697375
12.866667	1	14.139500
12.883333	1	14.455500
12.900000	1	14.533625
12.916667	1	14.271000
12.933333	1	13.619375
12.950000	1	12.612625
12.966667	1	11.357750
12.983333	1	9.992875
13.000000	1	8.643875
13.016667	1	7.399125
13.033333	1	6.300500
13.050000	1	5.360625
13.066667	1	4.573000
13.083333	1	3.925000
13.100000	1	3.398125
13.116667	1	2.975625
13.133333	1	2.638125
13.150000	1	2.371000
13.166667	1	2.159750
13.183333	1	1.992625
13.200000	1	1.859625
13.216667	1	1.752750
13.233333	1	1.667125
13.250000	1	1.595125
13.266667	1	1.535750
13.283333	1	1.483625
13.300000	1	1.439625
13.316667	1	1.399750
13.333333	1	1.364250
13.350000	1	1.332500
13.366667	1	1.303750
13.383333	1	1.277625
13.400000	1	1.255000
13.416667	1	1.234750
13.433333	1	1.217375
13.450000	1	1.202250
13.466667	1	1.190000
13.483333	1	1.181125
13.500000	1	1.173625
13.516667	1	1.168125
13.533333	1	1.164625
13.550000	1	1.162875
13.566667	1	1.161625
13.583333	1	1.159625
13.600000	1	1.156375
13.616667	1	1.151625
13.633333	1	1.145125
13.650000	1	1.136500
13.666667	1	1.124625
13.683333	1	1.111125
13.700000	1	1.095625
13.716667	1	1.077875
13.733333	1	1.059625
13.750000	1	1.040500
13.766667	1	1.021750
13.783333	1	1.003000
13.800000	1	0.984125
13.816667	1	0.966000
13.833333	1	0.948375
13.850000	1	0.931250
13.866667	1	0.915125
13.883333	1	0.900125
13.900000	1	0.885500
13.916667	1	0.871500
13.933333	1	0.858000
13.950000	1	0.845000
13.966667	1	0.833750
13.983333	1	0.822125
14.000000	1	0.811875
14.016667	1	0.801875
14.033333	1	0.792375
14.050000	1	0.783375
14.066667	1	0.775375
14.083333	1	0.767125
14.100000	1	0.759250
14.116667	1	0.751625
14.133333	1	0.744875
14.150000	1	0.738250
14.166667	1	0.732375
14.183333	1	0.728000
14.200000	1	0.724250
14.216667	1	0.721750
14.233333	1	0.719375
14.250000	1	0.718500
14.266667	1	0.719125
14.283333	1	0.720750
14.300000	1	0.723500
14.316667	1	0.728875
14.333333	1	0.734875
14.350000	1	0.742625
14.366667	1	0.752000
14.383333	1	0.763250
14.400000	1	0.776000
14.416667	1	0.791875
14.433333	1	0.811375
14.450000	1	0.836000
14.466667	1	0.872000
14.483333	1	0.925250
14.500000	1	1.008250
14.516667	1	1.137125
14.533333	1	1.335625
14.550000	1	1.636750
14.566667	1	2.082750
14.583333	1	2.724750
14.600000	1	3.621250
14.616667	1	4.841375
14.633333	1	6.456375
14.650000	1	8.531000
14.666667	1	11.115750
14.683333	1	14.234250
14.700000	1	17.876125
14.716667	1	21.983875
14.733333	1	26.463625
14.750000	1	31.171125
14.766667	1	35.923375
14.783333	1	40.507750
14.800000	1	44.712000
14.816667	1	48.329500
14.833333	1	51.183000
14.850000	1	53.137750
14.866667	1	54.115875
14.883333	1	54.103125
14.900000	1	53.147000
14.916667	1	51.353375
14.933333	1	48.863500
14.950000	1	45.844625
14.966667	1	42.470375
14.983333	1	38.905250
15.000000	1	35.288125
15.016667	1	31.735250
15.033333	1	28.334125
15.050000	1	25.146625
15.066667	1	22.209750
15.083333	1	19.541125
15.100000	1	17.144625
15.116667	1	15.011500
15.133333	1	13.122625
15.150000	1	11.459875
15.166667	1	10.000750
15.183333	1	8.725375
15.200000	1	7.612750
15.216667	1	6.643500
15.233333	1	5.801500
15.250000	1	5.074000
15.266667	1	4.447625
15.283333	1	3.913375
15.300000	1	3.461375
15.316667	1	3.083125
15.333333	1	2.771125
15.350000	1	2.516125
15.366667	1	2.311625
15.383333	1	2.151375
15.400000	1	2.027750
15.416667	1	1.933000
15.433333	1	1.861500
15.450000	1	1.806625
15.466667	1	1.763500
15.483333	1	1.726250
15.500000	1	1.691875
15.516667	1	1.658375
15.533333	1	1.621750
15.550000	1	1.583250
15.566667	1	1.541375
15.583333	1	1.498000
15.600000	1	1.452625
15.616667	1	1.406875
15.633333	1	1.361750
15.650000	1	1.318125
15.666667	1	1.277125
15.683333	1	1.238625
15.700000	1	1.202250
15.716667	1	1.168625
15.733333	1	1.137250
15.750000	1	1.107750
15.766667	1	1.079875
15.783333	1	1.054500
15.800000	1	1.030125
15.816667	1	1.007125
15.833333	1	0.986750
15.850000	1	0.966750
15.866667	1	0.949125
15.883333	1	0.933250
15.900000	1	0.920000
15.916667	1	0.909750
15.933333	1	0.902250
15.950000	1	0.897000
15.966667	1	0.894750
15.983333	1	0.894750
16.000000	1	0.896375
16.016667	1	0.900250
16.033333	1	0.905750
16.050000	1	0.911250
16.066667	1	0.917375
16.083333	1	0.923000
16.100000	1	0.927875
16.116667	1	0.931875
16.133333	1	0.934125
16.150000	1	0.934625
16.166667	1	0.934125
16.183333	1	0.932625
16.200000	1	0.929250
16.216667	1	0.924875
16.233333	1	0.919250
16.250000	1	0.912750
16.266667	1	0.905875
16.283333	1	0.898375
16.300000	1	0.891000
16.316667	1	0.884000
16.333333	1	0.877000
16.350000	1	0.871625
16.366667	1	0.867625
16.383333	1	0.865375
16.400000	1	0.865000
16.416667	1	0.866375
16.433333	1	0.868750
16.450000	1	0.873375
16.466667	1	0.878000
16.483333	1	0.883375
16.500000	1	0.888375
16.516667	1	0.894375
16.533333	1	0.898625
16.550000	1	0.901625
16.566667	1	0.903500
16.583333	1	0.903125
16.600000	1	0.901625
16.616667	1	0.898000
16.633333	1	0.894375
16.650000	1	0.889875
16.666667	1	0.886000
16.683333	1	0.882625
16.700000	1	0.880875
16.716667	1	0.880125
16.733333	1	0.882000
16.750000	1	0.885750
16.766667	1	0.891625
16.783333	1	0.899875
16.800000	1	0.909750
16.816667	1	0.920250
16.833333	1	0.930875
16.850000	1	0.941500
16.866667	1	0.951750
16.883333	1	0.960875
16.900000	1	0.968000
16.916667	1	0.974000
16.933333	1	0.977750
16.950000	1	0.980500
16.966667	1	0.980750
16.983333	1	0.980750
17.000000	1	0.980125
17.016667	1	0.978750
17.033333	1	0.977000
17.050000	1	0.976125
17.066667	1	0.976000
17.083333	1	0.977125
17.100000	1	0.977625
17.116667	1	0.979875
17.133333	1	0.982125
17.150000	1	0.986000
17.166667	1	0.989375
17.183333	1	0.993750
17.200000	1	0.998375
17.216667	1	1.003375
17.233333	1	1.008250
17.250000	1	1.012250
17.266667	1	1.016750
17.283333	1	1.022000
17.300000	1	1.026875
17.316667	1	1.031250
17.333333	1	1.036500
17.350000	1	1.041750
17.366667	1	1.047000
17.383333	1	1.051750
17.400000	1	1.056625
17.416667	1	1.060125
17.433333	1	1.063125
17.450000	1	1.064375
17.466667	1	1.064750
17.483333	1	1.063625
17.500000	1	1.060875
17.516667	1	1.056375
17.533333	1	1.050750
17.550000	1	1.043875
17.566667	1	1.035750
17.583333	1	1.026125
17.600000	1	1.015875
17.616667	1	1.004375
17.633333	1	0.991875
17.650000	1	0.978875
17.666667	1	0.965625
17.683333	1	0.952000
17.700000	1	0.938500
17.716667	1	0.924750
17.733333	1	0.910500
17.750000	1	0.897500
17.766667	1	0.884125
17.783333	1	0.871625
17.800000	1	0.860125
17.816667	1	0.848750
17.833333	1	0.837500
17.850000	1	0.827250
17.866667	1	0.817000
17.883333	1	0.807250
17.900000	1	0.797250
17.916667	1	0.788375
17.933333	1	0.779250
17.950000	1	0.769625
17.966667	1	0.760250
17.983333	1	0.750875
18.000000	1	0.741000
18.016667	1	0.731750
18.033333	1	0.722625
18.050000	1	0.713250
18.066667	1	0.705000
18.083333	1	0.697500
18.100000	1	0.690500
18.116667	1	0.684875
18.133333	1	0.680250
18.150000	1	0.676125
18.166667	1	0.673250
18.183333	1	0.670500
18.200000	1	0.668875
18.216667	1	0.667875
18.233333	1	0.667500
18.250000	1	0.667125
18.266667	1	0.667250
18.283333	1	0.668000
18.300000	1	0.668625
18.316667	1	0.669125
18.333333	1	0.670000
18.350000	1	0.671750
18.366667	1	0.673875
18.383333	1	0.676375
18.400000	1	0.680125
18.416667	1	0.686250
18.433333	1	0.692500
18.450000	1	0.700625
18.466667	1	0.711125
18.483333	1	0.723625
18.500000	1	0.738375
18.516667	1	0.754375
18.533333	1	0.772625
18.550000	1	0.793750
18.566667	1	0.816000
18.583333	1	0.841000
18.600000	1	0.867375
18.616667	1	0.896250
18.633333	1	0.926125
18.650000	1	0.957875
18.666667	1	0.990750
18.683333	1	1.025000
18.700000	1	1.060375
18.716667	1	1.097000
18.733333	1	1.133750
18.750000	1	1.170250
18.766667	1	1.206875
18.783333	1	1.243625
18.800000	1	1.278625
18.816667	1	1.311125
18.833333	1	1.340375
18.850000	1	1.365750
18.866667	1	1.387000
18.883333	1	1.402500
18.900000	1	1.411750
18.916667	1	1.414000
18.933333	1	1.410375
18.950000	1	1.400000
18.966667	1	1.382000
18.983333	1	1.357625
19.000000	1	1.326750
19.016667	1	1.290250
19.033333	1	1.248875
19.050000	1	1.204625
19.066667	1	1.157125
19.083333	1	1.108625
19.100000	1	1.058375
19.116667	1	1.008375
19.133333	1	0.959750
19.150000	1	0.913500
19.166667	1	0.869375
19.183333	1	0.829750
19.200000	1	0.794125
19.216667	1	0.763750
19.233333	1	0.737750
19.250000	1	0.718250
19.266667	1	0.703500
19.283333	1	0.695375
19.300000	1	0.693875
19.316667	1	0.698375
19.333333	1	0.708625
19.350000	1	0.724250
19.366667	1	0.745125
19.383333	1	0.769000
19.400000	1	0.797750
19.416667	1	0.827625
19.433333	1	0.859125
19.450000	1	0.890250
19.466667	1	0.920625
19.483333	1	0.948375
19.500000	1	0.972125
19.516667	1	0.992250
19.533333	1	1.008000
19.550000	1	1.018500
19.566667	1	1.023500
19.583333	1	1.022750
19.600000	1	1.016500
19.616667	1	1.006125
19.633333	1	0.991625
19.650000	1	0.973125
19.666667	1	0.951250
19.683333	1	0.927625
19.700000	1	0.901500
19.716667	1	0.874000
19.733333	1	0.846125
19.750000	1	0.818125
19.766667	1	0.790375
19.783333	1	0.763250
19.800000	1	0.736125
19.816667	1	0.709875
19.833333	1	0.684375
19.850000	1	0.660000
19.866667	1	0.637250
19.883333	1	0.616250
19.900000	1	0.596750
19.916667	1	0.579125
19.933333	1	0.561875
19.950000	1	0.546750
19.966667	1	0.533625
19.983333	1	0.522250
20.000000	1	0.513000
20.016667	1	0.506000
20.033333	1	0.501000
20.050000	1	0.499125
20.066667	1	0.499875
20.083333	1	0.503000
20.100000	1	0.509375
20.116667	1	0.517125
20.133333	1	0.528875
20.150000	1	0.542500
20.166667	1	0.557625
20.183333	1	0.574250
20.200000	1	0.591875
20.216667	1	0.609000
20.233333	1	0.625500
20.250000	1	0.641000
20.266667	1	0.654500
20.283333	1	0.665000
20.300000	1	0.672250
20.316667	1	0.675750
20.333333	1	0.675500
20.350000	1	0.672000
20.366667	1	0.665375
20.383333	1	0.654875
20.400000	1	0.642250
20.416667	1	0.626750
20.433333	1	0.610500
20.450000	1	0.593750
20.466667	1	0.576125
20.483333	1	0.560125
20.500000	1	0.545750
20.516667	1	0.533625
20.533333	1	0.524875
20.550000	1	0.520125
20.566667	1	0.519875
20.583333	1	0.524875
20.600000	1	0.536250
20.616667	1	0.554500
20.633333	1	0.579875
20.650000	1	0.613125
20.666667	1	0.655750
20.683333	1	0.707000
20.700000	1	0.765875
20.716667	1	0.832000
20.733333	1	0.905000
20.750000	1	0.982625
20.766667	1	1.062625
20.783333	1	1.144000
20.800000	1	1.223250
20.816667	1	1.298250
20.833333	1	1.366875
20.850000	1	1.426000
20.866667	1	1.474875
20.883333	1	1.510625
20.900000	1	1.533125
20.916667	1	1.542000
20.933333	1	1.536875
20.950000	1	1.519625
20.966667	1	1.490250
20.983333	1	1.450375
21.000000	1	1.401500
21.016667	1	1.346750
21.033333	1	1.287625
21.050000	1	1.225500
21.066667	1	1.161750
21.083333	1	1.098625
21.100000	1	1.036500
21.116667	1	0.977625
21.133333	1	0.921500
21.150000	1	0.869000
21.166667	1	0.820375
21.183333	1	0.775250
21.200000	1	0.733500
21.216667	1	0.695250
21.233333	1	0.661375
21.250000	1	0.630375
21.266667	1	0.602125
21.283333	1	0.577875
21.300000	1	0.554500
21.316667	1	0.534125
21.333333	1	0.515750
21.350000	1	0.498625
21.366667	1	0.483625
21.383333	1	0.469875
21.400000	1	0.458125
21.416667	1	0.447000
21.433333	1	0.437000
21.450000	1	0.429125
21.466667	1	0.421625
21.483333	1	0.416125
21.500000	1	0.412625
21.516667	1	0.410625
21.533333	1	0.411500
21.550000	1	0.414500
21.566667	1	0.421750
21.583333	1	0.433000
21.600000	1	0.448875
21.616667	1	0.470125
21.633333	1	0.498000
21.650000	1	0.532625
21.666667	1	0.575625
21.683333	1	0.626875
21.700000	1	0.685750
21.716667	1	0.754375
21.733333	1	0.830500
21.750000	1	0.915125
21.766667	1	1.007250
21.783333	1	1.105500
21.800000	1	1.208625
21.816667	1	1.313375
21.833333	1	1.418625
21.850000	1	1.522250
21.866667	1	1.621250
21.883333	1	1.714375
21.900000	1	1.797500
21.916667	1	1.869500
21.933333	1	1.928500
21.950000	1	1.974250
21.966667	1	2.003500
21.983333	1	2.017625
22.000000	1	2.017375
22.016667	1	2.001500
22.033333	1	1.972625
22.050000	1	1.931625
22.066667	1	1.880625
22.083333	1	1.820875
22.100000	1	1.754500
22.116667	1	1.683000
22.133333	1	1.608375
22.150000	1	1.531750
22.166667	1	1.453500
22.183333	1	1.375875
22.200000	1	1.300500
22.216667	1	1.226750
22.233333	1	1.155625
22.250000	1	1.087375
22.266667	1	1.022250
22.283333	1	0.960500
22.300000	1	0.901875
22.316667	1	0.846125
22.333333	1	0.794250
22.350000	1	0.745750
22.366667	1	0.700500
22.383333	1	0.658125
22.400000	1	0.619375
22.416667	1	0.583625
22.433333	1	0.550250
22.450000	1	0.519875
22.466667	1	0.492625
22.483333	1	0.468125
22.500000	1	0.445625
22.516667	1	0.425125
22.533333	1	0.407000
22.550000	1	0.391000
22.566667	1	0.376625
22.583333	1	0.364000
22.600000	1	0.352375
22.616667	1	0.342250
22.633333	1	0.332750
22.650000	1	0.324625
22.666667	1	0.317125
22.683333	1	0.310750
22.700000	1	0.304625
22.716667	1	0.299375
22.733333	1	0.294750
22.750000	1	0.290125
22.766667	1	0.286000
22.783333	1	0.281750
22.800000	1	0.278625
22.816667	1	0.276000
22.833333	1	0.273000
22.850000	1	0.269750
22.866667	1	0.267375
22.883333	1	0.264875
22.900000	1	0.263500
22.916667	1	0.262000
22.933333	1	0.260500
22.950000	1	0.259750
22.966667	1	0.258750
22.983333	1	0.257375
23.000000	1	0.257375
23.016667	1	0.258250
23.033333	1	0.259000
23.050000	1	0.260000
23.066667	1	0.260875
23.083333	1	0.261750
23.100000	1	0.262875
23.116667	1	0.264000
23.133333	1	0.266125
23.150000	1	0.267875
23.166667	1	0.269375
23.183333	1	0.271625
23.200000	1	0.272875
23.216667	1	0.273750
23.233333	1	0.276125
23.250000	1	0.278250
23.266667	1	0.280875
23.283333	1	0.283875
23.300000	1	0.287875
23.316667	1	0.293750
23.333333	1	0.301375
23.350000	1	0.312250
23.366667	1	0.326875
23.383333	1	0.346625
23.400000	1	0.372750
23.416667	1	0.407875
23.433333	1	0.453750
23.450000	1	0.512750
23.466667	1	0.587000
23.483333	1	0.681125
23.500000	1	0.795750
23.516667	1	0.934875
23.533333	1	1.102125
23.550000	1	1.298625
23.566667	1	1.527375
23.583333	1	1.789875
23.600000	1	2.085250
23.616667	1	2.412500
23.633333	1	2.769625
23.650000	1	3.152375
23.666667	1	3.557000
23.683333	1	3.976125
23.700000	1	4.403500
23.716667	1	4.829500
23.733333	1	5.245875
23.750000	1	5.642875
23.766667	1	6.011125
23.783333	1	6.341375
23.800000	1	6.626375
23.816667	1	6.859625
23.833333	1	7.035875
23.850000	1	7.153375
23.866667	1	7.210250
23.883333	1	7.207375
23.900000	1	7.146875
23.916667	1	7.032625
23.933333	1	6.868875
23.950000	1	6.662875
23.966667	1	6.420000
23.983333	1	6.148375
24.000000	1	5.854750
24.016667	1	5.546250
24.033333	1	5.228500
24.050000	1	4.908125
24.066667	1	4.590500
24.083333	1	4.278250
24.100000	1	3.974750
24.116667	1	3.683000
24.133333	1	3.404000
24.150000	1	3.140000
24.166667	1	2.891375
24.183333	1	2.658500
24.200000	1	2.442000
24.216667	1	2.240875
24.233333	1	2.054250
24.250000	1	1.882125
24.266667	1	1.723625
24.283333	1	1.577875
24.300000	1	1.444250
24.316667	1	1.321875
24.333333	1	1.211500
24.350000	1	1.110500
24.366667	1	1.019875
24.383333	1	0.938000
24.400000	1	0.865375
24.416667	1	0.801000
24.433333	1	0.743875
24.450000	1	0.692875
24.466667	1	0.648250
24.483333	1	0.609250
24.500000	1	0.575000
24.516667	1	0.546125
24.533333	1	0.520375
24.550000	1	0.497625
24.566667	1	0.478125
24.583333	1	0.461000
24.600000	1	0.446000
24.616667	1	0.432500
24.633333	1	0.420500
24.650000	1	0.409500
24.666667	1	0.399875
24.683333	1	0.390875
24.700000	1	0.382250
24.716667	1	0.373875
24.733333	1	0.365625
24.750000	1	0.357625
24.766667	1	0.350375
24.783333	1	0.342625
24.800000	1	0.335375
24.816667	1	0.328375
24.833333	1	0.321625
24.850000	1	0.314875
24.866667	1	0.309000
24.883333	1	0.303125
24.900000	1	0.297750
24.916667	1	0.293125
24.933333	1	0.289250
24.950000	1	0.284875
24.966667	1	0.281125
24.983333	1	0.277625
25.000000	1	0.274875
25.016667	1	0.271875
25.033333	1	0.270000
25.050000	1	0.267750
25.066667	1	0.266000
25.083333	1	0.264750
25.100000	1	0.264125
25.116667	1	0.262875
25.133333	1	0.262375
25.150000	1	0.261500
25.166667	1	0.260750
25.183333	1	0.260500
25.200000	1	0.259500
25.216667	1	0.259000
25.233333	1	0.258250
25.250000	1	0.258375
25.266667	1	0.257625
25.283333	1	0.257625
25.300000	1	0.257000
25.316667	1	0.256875
25.333333	1	0.256750
25.350000	1	0.257000
25.366667	1	0.256750
25.383333	1	0.256500
25.400000	1	0.255500
25.416667	1	0.254250
25.433333	1	0.254250
25.450000	1	0.253375
25.466667	1	0.252375
25.483333	1	0.251500
25.500000	1	0.251000
25.516667	1	0.250500
25.533333	1	0.248750
25.550000	1	0.247750
25.566667	1	0.247000
25.583333	1	0.245625
25.600000	1	0.244125
25.616667	1	0.242000
25.633333	1	0.240875
25.650000	1	0.239125
25.666667	1	0.238375
25.683333	1	0.236625
25.700000	1	0.234750
25.716667	1	0.232750
25.733333	1	0.230750
25.750000	1	0.228500
25.766667	1	0.226625
25.783333	1	0.224500
25.800000	1	0.222875
25.816667	1	0.221500
25.833333	1	0.220625
25.850000	1	0.220000
25.866667	1	0.219125
25.883333	1	0.218375
25.900000	1	0.218625
25.916667	1	0.218875
25.933333	1	0.220000
25.950000	1	0.221625
25.966667	1	0.223500
25.983333	1	0.225625
26.000000	1	0.228375
26.016667	1	0.231875
26.033333	1	0.235625
26.050000	1	0.240625
26.066667	1	0.245750
26.083333	1	0.252125
26.100000	1	0.257875
26.116667	1	0.263875
26.133333	1	0.270125
26.150000	1	0.276625
26.166667	1	0.283625
26.183333	1	0.291125
26.200000	1	0.297375
26.216667	1	0.303625
26.233333	1	0.309750
26.250000	1	0.316250
26.266667	1	0.322125
26.283333	1	0.328250
26.300000	1	0.333625
26.316667	1	0.337750
26.333333	1	0.341625
26.350000	1	0.345000
26.366667	1	0.347125
26.383333	1	0.349375
26.400000	1	0.351125
26.416667	1	0.352000
26.433333	1	0.352250
26.450000	1	0.350750
26.466667	1	0.349125
26.483333	1	0.347250
26.500000	1	0.345625
26.516667	1	0.342375
26.533333	1	0.339000
26.550000	1	0.335875
26.566667	1	0.332375
26.583333	1	0.329125
26.600000	1	0.324750
26.616667	1	0.321000
26.633333	1	0.317125
26.650000	1	0.313000
26.666667	1	0.309750
26.683333	1	0.306000
26.700000	1	0.302500
26.716667	1	0.299625
26.733333	1	0.296750
26.750000	1	0.294000
26.766667	1	0.291875
26.783333	1	0.290875
26.800000	1	0.289500
26.816667	1	0.288125
26.833333	1	0.286875
26.850000	1	0.286625
26.866667	1	0.285625
26.883333	1	0.284875
26.900000	1	0.285250
26.916667	1	0.285500
26.933333	1	0.286000
26.950000	1	0.286750
26.966667	1	0.287500
26.983333	1	0.288625
27.000000	1	0.288750
27.016667	1	0.289750
27.033333	1	0.290125
27.050000	1	0.290750
27.066667	1	0.292250
27.083333	1	0.293375
27.100000	1	0.294750
27.116667	1	0.296375
27.133333	1	0.298625
27.150000	1	0.300000
27.166667	1	0.302750
27.183333	1	0.305500
27.200000	1	0.308875
27.216667	1	0.312750
27.233333	1	0.318750
27.250000	1	0.325375
27.266667	1	0.333875
27.283333	1	0.344000
27.300000	1	0.357250
27.316667	1	0.373250
27.333333	1	0.392875
27.350000	1	0.415875
27.366667	1	0.444500
27.383333	1	0.478500
27.400000	1	0.518000
27.416667	1	0.566375
27.433333	1	0.622500
27.450000	1	0.688125
27.466667	1	0.763875
27.483333	1	0.850500
27.500000	1	0.948375
27.516667	1	1.058375
27.533333	1	1.180625
27.550000	1	1.315625
27.566667	1	1.463750
27.583333	1	1.623125
27.600000	1	1.794125
27.616667	1	1.975125
27.633333	1	2.165250
27.650000	1	2.363375
27.666667	1	2.566875
27.683333	1	2.772375
27.700000	1	2.978375
27.716667	1	3.180750
27.733333	1	3.377625
27.750000	1	3.564875
27.766667	1	3.740375
27.783333	1	3.899625
27.800000	1	4.040625
27.816667	1	4.161625
27.833333	1	4.259375
27.850000	1	4.331750
27.866667	1	4.378125
27.883333	1	4.398250
27.900000	1	4.391500
27.916667	1	4.359000
27.933333	1	4.300375
27.950000	1	4.218250
27.966667	1	4.115000
27.983333	1	3.992375
28.000000	1	3.853625
28.016667	1	3.700875
28.033333	1	3.537250
28.050000	1	3.365500
28.066667	1	3.189250
28.083333	1	3.009625
28.100000	1	2.830125
28.116667	1	2.653125
28.133333	1	2.478500
28.150000	1	2.310625
28.166667	1	2.149375
28.183333	1	1.995875
28.200000	1	1.850375
28.216667	1	1.713750
28.233333	1	1.584750
28.250000	1	1.465375
28.266667	1	1.354375
28.283333	1	1.251875
28.300000	1	1.157625
28.316667	1	1.071250
28.333333	1	0.992875
28.350000	1	0.921000
28.366667	1	0.856625
28.383333	1	0.797750
28.400000	1	0.745000
28.416667	1	0.697375
28.433333	1	0.656000
28.450000	1	0.619250
28.466667	1	0.586875
28.483333	1	0.557750
28.500000	1	0.533750
28.516667	1	0.512625
28.533333	1	0.496125
28.550000	1	0.482250
28.566667	1	0.471125
28.583333	1	0.463250
28.600000	1	0.458125
28.616667	1	0.455125
28.633333	1	0.454750
28.650000	1	0.456125
28.666667	1	0.458500
28.683333	1	0.462375
28.700000	1	0.467250
28.716667	1	0.473875
28.733333	1	0.480875
28.750000	1	0.488375
28.766667	1	0.496125
28.783333	1	0.504250
28.800000	1	0.512375
28.816667	1	0.520000
28.833333	1	0.527750
28.850000	1	0.535125
28.866667	1	0.542375
28.883333	1	0.548375
28.900000	1	0.553500
28.916667	1	0.557625
28.933333	1	0.561375
28.950000	1	0.563250
28.966667	1	0.563875
28.983333	1	0.563625
29.000000	1	0.563375
29.016667	1	0.561125
29.033333	1	0.557375
29.050000	1	0.552750
29.066667	1	0.546375
29.083333	1	0.538375
29.100000	1	0.528375
29.116667	1	0.517625
29.133333	1	0.504875
29.150000	1	0.489625
29.166667	1	0.473875
29.183333	1	0.455625
29.200000	1	0.435375
29.216667	1	0.414000
29.233333	1	0.390875
29.250000	1	0.365000
29.266667	1	0.337250
29.283333	1	0.307000
29.300000	1	0.275750
29.316667	1	0.241625
29.333333	1	0.206000
29.350000	1	0.167750
29.366667	1	0.128125
29.383333	1	0.087125
29.400000	1	0.044125
29.416667	1	-0.000125
29.433333	1	-0.046500
29.450000	1	-0.093750
29.466667	1	-0.142125
29.483333	1	-0.190750
29.500000	1	-0.240500
29.516667	1	-0.288750
29.533333	1	-0.337250
29.550000	1	-0.384000
29.566667	1	-0.429375
29.583333	1	-0.473375
29.600000	1	-0.515500
29.616667	1	-0.554375
29.633333	1	-0.590750
29.650000	1	-0.624750
29.666667	1	-0.654500
29.683333	1	-0.680875
29.700000	1	-0.703125
29.716667	1	-0.721375
29.733333	1	-0.735500
29.750000	1	-0.746375
29.766667	1	-0.751625
29.783333	1	-0.753375
29.800000	1	-0.750750
29.816667	1	-0.744750
29.833333	1	-0.734875
29.850000	1	-0.720625
29.866667	1	-0.703875
29.883333	1	-0.683625
29.900000	1	-0.661125
29.916667	1	-0.636625
29.933333	1	-0.609750
29.950000	1	-0.581500
29.966667	1	-0.552000
29.983333	1	-0.521750
30.000000	1	-0.490625
30.016667	1	-0.459375
30.033333	1	-0.428000
30.050000	1	-0.396625
30.066667	1	-0.366375
30.083333	1	-0.336250
30.100000	1	-0.307125
30.116667	1	-0.278625
30.133333	1	-0.251250
30.150000	1	-0.224875
30.166667	1	-0.199750
30.183333	1	-0.175750
30.200000	1	-0.152625
30.216667	1	-0.130875
30.233333	1	-0.110500
30.250000	1	-0.092250
30.266667	1	-0.073875
30.283333	1	-0.056500
30.300000	1	-0.040750
30.316667	1	-0.026375
30.333333	1	-0.013250
30.350000	1	-0.001000
30.366667	1	0.010375
30.383333	1	0.021500
30.400000	1	0.031875
30.416667	1	0.040750
30.433333	1	0.049250
30.450000	1	0.057625
30.466667	1	0.065875
30.483333	1	0.072875
30.500000	1	0.080500
30.516667	1	0.087125
30.533333	1	0.094125
30.550000	1	0.100375
30.566667	1	0.107625
30.583333	1	0.114625
30.600000	1	0.121875
30.616667	1	0.128875
30.633333	1	0.136000
30.650000	1	0.143750
30.666667	1	0.151125
30.683333	1	0.158875
30.700000	1	0.167500
30.716667	1	0.175750
30.733333	1	0.185125
30.750000	1	0.194250
30.766667	1	0.204000
30.783333	1	0.213500
30.800000	1	0.223125
30.816667	1	0.233125
30.833333	1	0.243375
30.850000	1	0.253875
30.866667	1	0.264875
30.883333	1	0.276000
30.900000	1	0.287125
30.916667	1	0.299750
30.933333	1	0.312750
30.950000	1	0.326875
30.966667	1	0.341625
30.983333	1	0.357500
31.000000	1	0.375625
31.016667	1	0.395750
31.033333	1	0.418250
31.050000	1	0.444375
31.066667	1	0.474000
31.083333	1	0.507250
31.100000	1	0.545250
31.116667	1	0.589500
31.133333	1	0.640000
31.150000	1	0.697625
31.166667	1	0.763500
31.183333	1	0.838000
31.200000	1	0.921500
31.216667	1	1.015500
31.233333	1	1.119375
31.250000	1	1.234375
31.266667	1	1.360625
31.283333	1	1.498250
31.300000	1	1.646250
31.316667	1	1.804250
31.333333	1	1.971375
31.350000	1	2.147625
31.366667	1	2.331125
31.383333	1	2.520500
31.400000	1	2.714500
31.416667	1	2.910375
31.433333	1	3.106875
31.450000	1	3.302000
31.466667	1	3.492000
31.483333	1	3.674500
31.500000	1	3.848000
31.516667	1	4.009625
31.533333	1	4.156875
31.550000	1	4.288500
31.566667	1	4.403375
31.583333	1	4.499500
31.600000	1	4.575500
31.616667	1	4.630875
31.633333	1	4.664875
31.650000	1	4.677375
31.666667	1	4.669125
31.683333	1	4.640125
31.700000	1	4.591250
31.716667	1	4.524250
31.733333	1	4.440500
31.750000	1	4.341375
31.766667	1	4.228375
31.783333	1	4.103125
31.800000	1	3.967375
31.816667	1	3.823625
31.833333	1	3.673125
31.850000	1	3.517250
31.866667	1	3.358000
31.883333	1	3.196750
31.900000	1	3.035125
31.916667	1	2.875625
31.933333	1	2.717750
31.950000	1	2.562500
31.966667	1	2.410750
31.983333	1	2.264125
32.000000	1	2.122500
32.016667	1	1.985750
32.033333	1	1.854875
32.050000	1	1.730125
32.066667	1	1.610750
32.083333	1	1.497375
32.100000	1	1.389875
32.116667	1	1.288125
32.133333	1	1.191875
32.150000	1	1.101375
32.166667	1	1.017000
32.183333	1	0.936750
32.200000	1	0.862125
32.216667	1	0.791875
32.233333	1	0.725875
32.250000	1	0.663875
32.266667	1	0.605625
32.283333	1	0.551875
32.300000	1	0.501875
32.316667	1	0.455750
32.333333	1	0.412875
32.350000	1	0.373375
32.366667	1	0.336375
32.383333	1	0.302875
32.400000	1	0.271500
32.416667	1	0.242750
32.433333	1	0.216250
32.450000	1	0.192500
32.466667	1	0.171000
32.483333	1	0.150875
32.500000	1	0.133500
32.516667	1	0.117375
32.533333	1	0.102625
32.550000	1	0.089250
32.566667	1	0.077375
32.583333	1	0.067000
32.600000	1	0.057375
32.616667	1	0.049250
32.633333	1	0.041750
32.650000	1	0.034500
32.666667	1	0.028875
32.683333	1	0.024750
32.700000	1	0.020750
32.716667	1	0.017500
32.733333	1	0.014250
32.750000	1	0.011750
32.766667	1	0.010000
32.783333	1	0.008000
32.800000	1	0.007000
32.816667	1	0.006250
32.833333	1	0.006250
32.850000	1	0.006250
32.866667	1	0.006500
32.883333	1	0.006875
32.900000	1	0.007625
32.916667	1	0.008000
32.933333	1	0.008875
32.950000	1	0.010250
32.966667	1	0.011750
32.983333	1	0.012625
33.000000	1	0.013750
33.016667	1	0.014875
33.033333	1	0.016125
33.050000	1	0.017125
33.066667	1	0.019000
33.083333	1	0.020250
33.100000	1	0.020875
33.116667	1	0.021125
33.133333	1	0.022000
33.150000	1	0.023000
33.166667	1	0.023750
33.183333	1	0.023500
33.200000	1	0.023750
33.216667	1	0.024000
33.233333	1	0.024375
33.250000	1	0.023625
33.266667	1	0.023375
33.283333	1	0.023000
33.300000	1	0.023000
33.316667	1	0.022875
33.333333	1	0.023000
33.350000	1	0.022875
33.366667	1	0.023000
33.383333	1	0.023000
33.400000	1	0.023250
33.416667	1	0.023375
33.433333	1	0.024000
33.450000	1	0.024625
33.466667	1	0.025250
33.483333	1	0.026250
33.500000	1	0.027500
33.516667	1	0.028625
33.533333	1	0.030125
33.550000	1	0.032250
33.566667	1	0.033500
33.583333	1	0.035000
33.600000	1	0.037500
33.616667	1	0.039625
33.633333	1	0.042250
33.650000	1	0.045125
33.666667	1	0.048125
33.683333	1	0.051000
33.700000	1	0.054250
33.716667	1	0.058375
33.733333	1	0.062125
33.750000	1	0.065875
33.766667	1	0.070000
33.783333	1	0.074500
33.800000	1	0.079000
33.816667	1	0.082875
33.833333	1	0.087625
33.850000	1	0.091875
33.866667	1	0.095375
33.883333	1	0.098625
33.900000	1	0.102625
33.916667	1	0.106375
33.933333	1	0.110500
33.950000	1	0.113500
33.966667	1	0.116875
33.983333	1	0.119875
34.000000	1	0.123250
34.016667	1	0.124500
34.033333	1	0.126125
34.050000	1	0.127750
34.066667	1	0.129500
34.083333	1	0.130500
34.100000	1	0.131750
34.116667	1	0.132375
34.133333	1	0.132000
34.150000	1	0.132000
34.166667	1	0.131625
34.183333	1	0.131625
34.200000	1	0.130625
34.216667	1	0.129625
34.233333	1	0.127875
34.250000	1	0.126000
34.266667	1	0.124500
34.283333	1	0.122625
34.300000	1	0.120625
34.316667	1	0.118625
34.333333	1	0.116750
34.350000	1	0.115250
34.366667	1	0.113750
34.383333	1	0.112625
34.400000	1	0.111625
34.416667	1	0.110250
34.433333	1	0.109375
34.450000	1	0.108750
34.466667	1	0.108375
34.483333	1	0.107125
34.500000	1	0.107000
34.516667	1	0.107375
34.533333	1	0.108125
34.550000	1	0.109125
34.566667	1	0.109625
34.583333	1	0.110250
34.600000	1	0.111000
34.616667	1	0.112250
34.633333	1	0.112875
34.650000	1	0.114250
34.666667	1	0.115250
34.683333	1	0.116625
34.700000	1	0.117625
34.716667	1	0.119000
34.733333	1	0.121000
34.750000	1	0.121750
34.766667	1	0.121875
34.783333	1	0.122500
34.800000	1	0.123250
34.816667	1	0.124125
34.833333	1	0.124625
34.850000	1	0.124875
34.866667	1	0.125125
34.883333	1	0.125625
34.900000	1	0.124875
34.916667	1	0.124250
34.933333	1	0.122750
34.950000	1	0.122250
34.966667	1	0.121375
34.983333	1	0.120125
35.000000	1	0.118625
35.016667	1	0.117250
35.033333	1	0.115250
35.050000	1	0.113250
35.066667	1	0.111500
35.083333	1	0.110125
35.100000	1	0.108625
35.116667	1	0.107000
35.133333	1	0.105000
35.150000	1	0.103125
35.166667	1	0.101000
35.183333	1	0.099750
35.200000	1	0.098125
35.216667	1	0.096750
35.233333	1	0.095250
35.250000	1	0.094000
35.266667	1	0.092500
35.283333	1	0.091625
35.300000	1	0.092000
35.316667	1	0.091500
35.333333	1	0.091125
35.350000	1	0.090375
35.366667	1	0.090875
35.383333	1	0.091250
35.400000	1	0.091375
35.416667	1	0.092250
35.433333	1	0.093000
35.450000	1	0.093625
35.466667	1	0.094250
35.483333	1	0.095750
35.500000	1	0.097125
35.516667	1	0.098875
35.533333	1	0.100125
35.550000	1	0.101500
35.566667	1	0.103500
35.583333	1	0.105250
35.600000	1	0.106000
35.616667	1	0.107000
35.633333	1	0.108375
35.650000	1	0.110375
35.666667	1	0.111500
35.683333	1	0.113250
35.700000	1	0.114375
35.716667	1	0.115125
35.733333	1	0.116125
35.750000	1	0.116500
35.766667	1	0.118000
35.783333	1	0.119000
35.800000	1	0.119375
35.816667	1	0.119375
35.833333	1	0.119125
35.850000	1	0.119500
35.866667	1	0.119500
35.883333	1	0.119125
35.900000	1	0.119375
35.916667	1	0.119375
35.933333	1	0.119125
35.950000	1	0.118125
35.966667	1	0.117250
35.983333	1	0.115750
36.000000	1	0.114375
36.016667	1	0.113375
36.033333	1	0.112625
36.050000	1	0.111125
36.066667	1	0.109625
36.083333	1	0.108250
36.100000	1	0.107500
36.116667	1	0.106000
36.133333	1	0.104750
36.150000	1	0.103750
36.166667	1	0.101875
36.183333	1	0.100625
36.200000	1	0.099125
36.216667	1	0.097750
36.233333	1	0.096500
36.250000	1	0.095125
36.266667	1	0.093750
36.283333	1	0.093625
36.300000	1	0.093375
36.316667	1	0.092625
36.333333	1	0.092625
36.350000	1	0.092875
36.366667	1	0.092250
36.383333	1	0.091750
36.400000	1	0.091625
36.416667	1	0.091750
36.433333	1	0.091750
36.450000	1	0.092500
36.466667	1	0.092875
36.483333	1	0.093500
36.500000	1	0.094750
36.516667	1	0.095625
36.533333	1	0.096750
36.550000	1	0.098000
36.566667	1	0.099125
36.583333	1	0.099375
36.600000	1	0.100250
36.616667	1	0.100375
36.633333	1	0.101250
36.650000	1	0.101500
36.666667	1	0.102500
36.683333	1	0.103125
36.700000	1	0.103375
36.716667	1	0.103500
36.733333	1	0.103750
36.750000	1	0.103375
36.766667	1	0.102750
36.783333	1	0.102500
36.800000	1	0.102375
36.816667	1	0.102250
36.833333	1	0.102375
36.850000	1	0.101625
36.866667	1	0.101375
36.883333	1	0.101125
36.900000	1	0.100750
36.916667	1	0.100375
36.933333	1	0.100000
36.950000	1	0.100250
36.966667	1	0.099750
36.983333	1	0.100250
37.000000	1	0.100250
37.016667	1	0.100500
37.033333	1	0.100750
37.050000	1	0.101125
37.066667	1	0.101875
37.083333	1	0.103000
37.100000	1	0.103500
37.116667	1	0.104500
37.133333	1	0.105000
37.150000	1	0.106625
37.166667	1	0.107000
37.183333	1	0.108375
37.200000	1	0.109875
37.216667	1	0.111500
37.233333	1	0.112750
37.250000	1	0.114375
37.266667	1	0.115875
37.283333	1	0.117250
37.300000	1	0.118875
37.316667	1	0.119750
37.333333	1	0.120375
37.350000	1	0.120875
37.366667	1	0.121750
37.383333	1	0.122625
37.400000	1	0.123250
37.416667	1	0.123750
37.433333	1	0.124375
37.450000	1	0.124375
37.466667	1	0.124250
37.483333	1	0.124625
37.500000	1	0.124500
37.516667	1	0.123875
37.533333	1	0.123250
37.550000	1	0.122375
37.566667	1	0.121375
37.583333	1	0.120375
37.600000	1	0.119125
37.616667	1	0.117250
37.633333	1	0.115750
37.650000	1	0.113250
37.666667	1	0.111125
37.683333	1	0.108875
37.700000	1	0.106000
37.716667	1	0.103375
37.733333	1	0.100375
37.750000	1	0.098250
37.766667	1	0.095250
37.783333	1	0.092000
37.800000	1	0.088625
37.816667	1	0.085375
37.833333	1	0.082000
37.850000	1	0.078875
37.866667	1	0.075875
37.883333	1	0.073375
37.900000	1	0.070500
37.916667	1	0.067750
37.933333	1	0.064875
37.950000	1	0.061375
37.966667	1	0.057875
37.983333	1	0.055875
38.000000	1	0.053500
38.016667	1	0.051500
38.033333	1	0.049250
38.050000	1	0.047500
38.066667	1	0.046000
38.083333	1	0.043875
38.100000	1	0.042250
38.116667	1	0.040750
38.133333	1	0.039750
38.150000	1	0.038500
38.166667	1	0.038625
38.183333	1	0.037625
38.200000	1	0.037000
38.216667	1	0.036375
38.233333	1	0.036000
38.250000	1	0.035750
38.266667	1	0.035750
38.283333	1	0.035500
38.300000	1	0.035875
38.316667	1	0.036500
38.333333	1	0.037000
38.350000	1	0.037125
38.366667	1	0.037000
38.383333	1	0.037375
38.400000	1	0.038125
38.416667	1	0.037875
38.433333	1	0.038000
38.450000	1	0.037750
38.466667	1	0.038125
38.483333	1	0.038750
38.500000	1	0.038500
38.516667	1	0.038750
38.533333	1	0.038625
38.550000	1	0.039000
38.566667	1	0.039250
38.583333	1	0.039125
38.600000	1	0.038500
38.616667	1	0.039000
38.633333	1	0.038625
38.650000	1	0.038750
38.666667	1	0.038375
38.683333	1	0.038625
38.700000	1	0.038375
38.716667	1	0.038500
38.733333	1	0.037875
38.750000	1	0.037250
38.766667	1	0.037125
38.783333	1	0.036500
38.800000	1	0.037000
38.816667	1	0.036750
38.833333	1	0.036375
38.850000	1	0.036250
38.866667	1	0.036000
38.883333	1	0.036375
38.900000	1	0.036375
38.916667	1	0.036125
38.933333	1	0.036375
38.950000	1	0.035875
38.966667	1	0.036250
38.983333	1	0.036500
39.000000	1	0.036500
39.016667	1	0.036375
39.033333	1	0.036375
39.050000	1	0.036750
39.066667	1	0.037500
39.083333	1	0.037125
39.100000	1	0.036375
39.116667	1	0.036125
39.133333	1	0.035625
39.150000	1	0.036125
39.166667	1	0.035250
39.183333	1	0.034750
39.200000	1	0.033750
39.216667	1	0.033250
39.233333	1	0.032250
39.250000	1	0.031750
39.266667	1	0.030500
39.283333	1	0.029125
39.300000	1	0.028000
39.316667	1	0.027250
39.333333	1	0.025250
39.350000	1	0.023125
39.366667	1	0.020875
39.383333	1	0.019500
39.400000	1	0.017375
39.416667	1	0.015500
39.433333	1	0.014000
39.450000	1	0.012375
39.466667	1	0.011000
39.483333	1	0.009000
39.500000	1	0.007500
39.516667	1	0.006000
39.533333	1	0.004500
39.550000	1	0.003250
39.566667	1	0.001625
39.583333	1	0.000625
39.600000	1	-0.000875
39.616667	1	-0.001875
39.633333	1	-0.002500
39.650000	1	-0.004250
39.666667	1	-0.004875
39.683333	1	-0.005625
39.700000	1	-0.005875
39.716667	1	-0.006250
39.733333	1	-0.007375
39.750000	1	-0.008000
39.766667	1	-0.008375
39.783333	1	-0.009625
39.800000	1	-0.009500
39.816667	1	-0.009750
39.833333	1	-0.009625
39.850000	1	-0.009750
39.866667	1	-0.010375
39.883333	1	-0.009875
39.900000	1	-0.010125
39.916667	1	-0.009375
39.933333	1	-0.009750
39.950000	1	-0.010125
39.966667	1	-0.010000
39.983333	1	-0.009875
40.000000	1	-0.010000
