URL	chrom://7040-86g6c92/XVault/Ultimate_3000/20/20240517_CMO_FP23_FP25_MarkusDeplate.seq/928.smp/RI_1.channel/RI_1.chm
Channel	RI_1

Injection Information:
Data Vault	XVault
Sequence	20240517_CMO_FP23_FP25_MarkusDeplate
Name	FP23_21_s6
Number	23
Position	BB11
Comment	
Processing Method	
Instrument Method	run_25B_method
Type	Unknown
Status	Finished
Inject Time	28.05.2024 09:03:38 +02:00
Volume (µl)	20.0000
Dilution Factor	1.0000
Weight	1.0000

Chromatogram Data Information:
Time Min. (min)	0.000000
Time Max. (min)	40.000000
Data Points	2401
Detector	RI
Generating Data System	Chromeleon 7.3.2.11814
Exporting Data System	Chromeleon 7.3.2.0
Operator	Instrument Controller
Signal Quantity	Refractive 
Signal Unit	µRIU
Signal Min.	-0.673500
Signal Max.	59.938625
Channel	RI_1
Driver Name	RID520Driver.dll
Channel Type	Evaluation
Min. Step (s)	1
Max. Step (s)	1
Average Step (s)	1

Signal Parameter Information:
Signal Info	

Chromatogram Data:
Time (min)	Step (s)	Value (µRIU)
0.000000	n.a.	0.025500
0.016667	1	0.026000
0.033333	1	0.026875
0.050000	1	0.027500
0.066667	1	0.028250
0.083333	1	0.028375
0.100000	1	0.029250
0.116667	1	0.029750
0.133333	1	0.029125
0.150000	1	0.028625
0.166667	1	0.030000
0.183333	1	0.029750
0.200000	1	0.029500
0.216667	1	0.029750
0.233333	1	0.030375
0.250000	1	0.030500
0.266667	1	0.030750
0.283333	1	0.030875
0.300000	1	0.031125
0.316667	1	0.031375
0.333333	1	0.031500
0.350000	1	0.031500
0.366667	1	0.031125
0.383333	1	0.030750
0.400000	1	0.030750
0.416667	1	0.032125
0.433333	1	0.034375
0.450000	1	0.037875
0.466667	1	0.040375
0.483333	1	0.043250
0.500000	1	0.045000
0.516667	1	0.047125
0.533333	1	0.047625
0.550000	1	0.048125
0.566667	1	0.047750
0.583333	1	0.047250
0.600000	1	0.046250
0.616667	1	0.045750
0.633333	1	0.045125
0.650000	1	0.045000
0.666667	1	0.045125
0.683333	1	0.046125
0.700000	1	0.047250
0.716667	1	0.048375
0.733333	1	0.049000
0.750000	1	0.050000
0.766667	1	0.051125
0.783333	1	0.051875
0.800000	1	0.053375
0.816667	1	0.054500
0.833333	1	0.055250
0.850000	1	0.056000
0.866667	1	0.056625
0.883333	1	0.057375
0.900000	1	0.058375
0.916667	1	0.059375
0.933333	1	0.060750
0.950000	1	0.061125
0.966667	1	0.061375
0.983333	1	0.061750
1.000000	1	0.062875
1.016667	1	0.064125
1.033333	1	0.064625
1.050000	1	0.065125
1.066667	1	0.065875
1.083333	1	0.066375
1.100000	1	0.067125
1.116667	1	0.067375
1.133333	1	0.068125
1.150000	1	0.069375
1.166667	1	0.069750
1.183333	1	0.070875
1.200000	1	0.071125
1.216667	1	0.071500
1.233333	1	0.072500
1.250000	1	0.073500
1.266667	1	0.074375
1.283333	1	0.075375
1.300000	1	0.076625
1.316667	1	0.078125
1.333333	1	0.079875
1.350000	1	0.080750
1.366667	1	0.081875
1.383333	1	0.083000
1.400000	1	0.084375
1.416667	1	0.085000
1.433333	1	0.086375
1.450000	1	0.087500
1.466667	1	0.089375
1.483333	1	0.090875
1.500000	1	0.091125
1.516667	1	0.091625
1.533333	1	0.091625
1.550000	1	0.091875
1.566667	1	0.092250
1.583333	1	0.092375
1.600000	1	0.092500
1.616667	1	0.092125
1.633333	1	0.092375
1.650000	1	0.092125
1.666667	1	0.091875
1.683333	1	0.091625
1.700000	1	0.091500
1.716667	1	0.090375
1.733333	1	0.089250
1.750000	1	0.088250
1.766667	1	0.086875
1.783333	1	0.086750
1.800000	1	0.086375
1.816667	1	0.084875
1.833333	1	0.083625
1.850000	1	0.082375
1.866667	1	0.081500
1.883333	1	0.079750
1.900000	1	0.078500
1.916667	1	0.077750
1.933333	1	0.075750
1.950000	1	0.074625
1.966667	1	0.073250
1.983333	1	0.071875
2.000000	1	0.069750
2.016667	1	0.068500
2.033333	1	0.066625
2.050000	1	0.065125
2.066667	1	0.063625
2.083333	1	0.062500
2.100000	1	0.060875
2.116667	1	0.059375
2.133333	1	0.058000
2.150000	1	0.056375
2.166667	1	0.054500
2.183333	1	0.052875
2.200000	1	0.051500
2.216667	1	0.049875
2.233333	1	0.049250
2.250000	1	0.048750
2.266667	1	0.048625
2.283333	1	0.048000
2.300000	1	0.047625
2.316667	1	0.046500
2.333333	1	0.046750
2.350000	1	0.046625
2.366667	1	0.046250
2.383333	1	0.046500
2.400000	1	0.046500
2.416667	1	0.046000
2.433333	1	0.046625
2.450000	1	0.046625
2.466667	1	0.047125
2.483333	1	0.047125
2.500000	1	0.047250
2.516667	1	0.047125
2.533333	1	0.046625
2.550000	1	0.046625
2.566667	1	0.047125
2.583333	1	0.047250
2.600000	1	0.047500
2.616667	1	0.047750
2.633333	1	0.048250
2.650000	1	0.047625
2.666667	1	0.046875
2.683333	1	0.047000
2.700000	1	0.046625
2.716667	1	0.046375
2.733333	1	0.045625
2.750000	1	0.045375
2.766667	1	0.044375
2.783333	1	0.043750
2.800000	1	0.043750
2.816667	1	0.043875
2.833333	1	0.043000
2.850000	1	0.043125
2.866667	1	0.043000
2.883333	1	0.042875
2.900000	1	0.043125
2.916667	1	0.043000
2.933333	1	0.043000
2.950000	1	0.043000
2.966667	1	0.043000
2.983333	1	0.042875
3.000000	1	0.043000
3.016667	1	0.042625
3.033333	1	0.042375
3.050000	1	0.042125
3.066667	1	0.042375
3.083333	1	0.041875
3.100000	1	0.041250
3.116667	1	0.041000
3.133333	1	0.040875
3.150000	1	0.040375
3.166667	1	0.039875
3.183333	1	0.038875
3.200000	1	0.038750
3.216667	1	0.037875
3.233333	1	0.036750
3.250000	1	0.035375
3.266667	1	0.034625
3.283333	1	0.033500
3.300000	1	0.032250
3.316667	1	0.031125
3.333333	1	0.030125
3.350000	1	0.028875
3.366667	1	0.027875
3.383333	1	0.027750
3.400000	1	0.027125
3.416667	1	0.026875
3.433333	1	0.026625
3.450000	1	0.026750
3.466667	1	0.026375
3.483333	1	0.027125
3.500000	1	0.027375
3.516667	1	0.028250
3.533333	1	0.029500
3.550000	1	0.030750
3.566667	1	0.032250
3.583333	1	0.034000
3.600000	1	0.035500
3.616667	1	0.036875
3.633333	1	0.038875
3.650000	1	0.041250
3.666667	1	0.044000
3.683333	1	0.045625
3.700000	1	0.047750
3.716667	1	0.049625
3.733333	1	0.051500
3.750000	1	0.053375
3.766667	1	0.054625
3.783333	1	0.057125
3.800000	1	0.059250
3.816667	1	0.061000
3.833333	1	0.062375
3.850000	1	0.064375
3.866667	1	0.065250
3.883333	1	0.066000
3.900000	1	0.067000
3.916667	1	0.067875
3.933333	1	0.068250
3.950000	1	0.069250
3.966667	1	0.069750
3.983333	1	0.070375
4.000000	1	0.071125
4.016667	1	0.071125
4.033333	1	0.071000
4.050000	1	0.071250
4.066667	1	0.070875
4.083333	1	0.071250
4.100000	1	0.071250
4.116667	1	0.071000
4.133333	1	0.071000
4.150000	1	0.071125
4.166667	1	0.071250
4.183333	1	0.072250
4.200000	1	0.072375
4.216667	1	0.073875
4.233333	1	0.074000
4.250000	1	0.074500
4.266667	1	0.074750
4.283333	1	0.075500
4.300000	1	0.075625
4.316667	1	0.076125
4.333333	1	0.076500
4.350000	1	0.076500
4.366667	1	0.077375
4.383333	1	0.078125
4.400000	1	0.078625
4.416667	1	0.079125
4.433333	1	0.080125
4.450000	1	0.080625
4.466667	1	0.080625
4.483333	1	0.081250
4.500000	1	0.081125
4.516667	1	0.081625
4.533333	1	0.082750
4.550000	1	0.083375
4.566667	1	0.084250
4.583333	1	0.085000
4.600000	1	0.085625
4.616667	1	0.086875
4.633333	1	0.087875
4.650000	1	0.088750
4.666667	1	0.090250
4.683333	1	0.091375
4.700000	1	0.092250
4.716667	1	0.094000
4.733333	1	0.095500
4.750000	1	0.097375
4.766667	1	0.099375
4.783333	1	0.101500
4.800000	1	0.103250
4.816667	1	0.105375
4.833333	1	0.107500
4.850000	1	0.109875
4.866667	1	0.111500
4.883333	1	0.113500
4.900000	1	0.115250
4.916667	1	0.116625
4.933333	1	0.117875
4.950000	1	0.119000
4.966667	1	0.120500
4.983333	1	0.122125
5.000000	1	0.123875
5.016667	1	0.124500
5.033333	1	0.125375
5.050000	1	0.126000
5.066667	1	0.126250
5.083333	1	0.126250
5.100000	1	0.126000
5.116667	1	0.126250
5.133333	1	0.126750
5.150000	1	0.127250
5.166667	1	0.126875
5.183333	1	0.127125
5.200000	1	0.127625
5.216667	1	0.128125
5.233333	1	0.128375
5.250000	1	0.128375
5.266667	1	0.128375
5.283333	1	0.129500
5.300000	1	0.130125
5.316667	1	0.131250
5.333333	1	0.132875
5.350000	1	0.134500
5.366667	1	0.136625
5.383333	1	0.139250
5.400000	1	0.141875
5.416667	1	0.145250
5.433333	1	0.149125
5.450000	1	0.152875
5.466667	1	0.155500
5.483333	1	0.160500
5.500000	1	0.165750
5.516667	1	0.170875
5.533333	1	0.175375
5.550000	1	0.181000
5.566667	1	0.186750
5.583333	1	0.193000
5.600000	1	0.198500
5.616667	1	0.204500
5.633333	1	0.209625
5.650000	1	0.215875
5.666667	1	0.221250
5.683333	1	0.227250
5.700000	1	0.232375
5.716667	1	0.236875
5.733333	1	0.242125
5.750000	1	0.246500
5.766667	1	0.250750
5.783333	1	0.254250
5.800000	1	0.257500
5.816667	1	0.260750
5.833333	1	0.263750
5.850000	1	0.266125
5.866667	1	0.267875
5.883333	1	0.268625
5.900000	1	0.269250
5.916667	1	0.269375
5.933333	1	0.269500
5.950000	1	0.268625
5.966667	1	0.268000
5.983333	1	0.267375
6.000000	1	0.266750
6.016667	1	0.265625
6.033333	1	0.263750
6.050000	1	0.261500
6.066667	1	0.259500
6.083333	1	0.257250
6.100000	1	0.254750
6.116667	1	0.252500
6.133333	1	0.250000
6.150000	1	0.247375
6.166667	1	0.245500
6.183333	1	0.243125
6.200000	1	0.240125
6.216667	1	0.237875
6.233333	1	0.235375
6.250000	1	0.232875
6.266667	1	0.229875
6.283333	1	0.228375
6.300000	1	0.226250
6.316667	1	0.224375
6.333333	1	0.222375
6.350000	1	0.220625
6.366667	1	0.218250
6.383333	1	0.216625
6.400000	1	0.214500
6.416667	1	0.212625
6.433333	1	0.210500
6.450000	1	0.208750
6.466667	1	0.206500
6.483333	1	0.205500
6.500000	1	0.203375
6.516667	1	0.201125
6.533333	1	0.199500
6.550000	1	0.198000
6.566667	1	0.196625
6.583333	1	0.194250
6.600000	1	0.192500
6.616667	1	0.190500
6.633333	1	0.189125
6.650000	1	0.186875
6.666667	1	0.185125
6.683333	1	0.183250
6.700000	1	0.181750
6.716667	1	0.180375
6.733333	1	0.179750
6.750000	1	0.177500
6.766667	1	0.175625
6.783333	1	0.173375
6.800000	1	0.170750
6.816667	1	0.168125
6.833333	1	0.166000
6.850000	1	0.163875
6.866667	1	0.160750
6.883333	1	0.158250
6.900000	1	0.155375
6.916667	1	0.152125
6.933333	1	0.149125
6.950000	1	0.146125
6.966667	1	0.144250
6.983333	1	0.141500
7.000000	1	0.138625
7.016667	1	0.135875
7.033333	1	0.133125
7.050000	1	0.130000
7.066667	1	0.127625
7.083333	1	0.126000
7.100000	1	0.124375
7.116667	1	0.123000
7.133333	1	0.121125
7.150000	1	0.120625
7.166667	1	0.120500
7.183333	1	0.120000
7.200000	1	0.120250
7.216667	1	0.120000
7.233333	1	0.120250
7.250000	1	0.121500
7.266667	1	0.123625
7.283333	1	0.126500
7.300000	1	0.128625
7.316667	1	0.131000
7.333333	1	0.134375
7.350000	1	0.137250
7.366667	1	0.140625
7.383333	1	0.144375
7.400000	1	0.148250
7.416667	1	0.152250
7.433333	1	0.157250
7.450000	1	0.161500
7.466667	1	0.165125
7.483333	1	0.169500
7.500000	1	0.173625
7.516667	1	0.179125
7.533333	1	0.183875
7.550000	1	0.189000
7.566667	1	0.193500
7.583333	1	0.198375
7.600000	1	0.203125
7.616667	1	0.207375
7.633333	1	0.211250
7.650000	1	0.214625
7.666667	1	0.217875
7.683333	1	0.221125
7.700000	1	0.223125
7.716667	1	0.225500
7.733333	1	0.227000
7.750000	1	0.228375
7.766667	1	0.229000
7.783333	1	0.229125
7.800000	1	0.228875
7.816667	1	0.228125
7.833333	1	0.226750
7.850000	1	0.225000
7.866667	1	0.222375
7.883333	1	0.219375
7.900000	1	0.216250
7.916667	1	0.213250
7.933333	1	0.209875
7.950000	1	0.204750
7.966667	1	0.200125
7.983333	1	0.195250
8.000000	1	0.191000
8.016667	1	0.186000
8.033333	1	0.181000
8.050000	1	0.175375
8.066667	1	0.170000
8.083333	1	0.164375
8.100000	1	0.158625
8.116667	1	0.153500
8.133333	1	0.148750
8.150000	1	0.143750
8.166667	1	0.138500
8.183333	1	0.133875
8.200000	1	0.129125
8.216667	1	0.123875
8.233333	1	0.119625
8.250000	1	0.115500
8.266667	1	0.111250
8.283333	1	0.107750
8.300000	1	0.104000
8.316667	1	0.100875
8.333333	1	0.097625
8.350000	1	0.093875
8.366667	1	0.090875
8.383333	1	0.088500
8.400000	1	0.086500
8.416667	1	0.083375
8.433333	1	0.080750
8.450000	1	0.079375
8.466667	1	0.077125
8.483333	1	0.075875
8.500000	1	0.074125
8.516667	1	0.072875
8.533333	1	0.071500
8.550000	1	0.070250
8.566667	1	0.069250
8.583333	1	0.068625
8.600000	1	0.067375
8.616667	1	0.066375
8.633333	1	0.065000
8.650000	1	0.064000
8.666667	1	0.062875
8.683333	1	0.061125
8.700000	1	0.060000
8.716667	1	0.058750
8.733333	1	0.058000
8.750000	1	0.057000
8.766667	1	0.056875
8.783333	1	0.056125
8.800000	1	0.055500
8.816667	1	0.054375
8.833333	1	0.054000
8.850000	1	0.054250
8.866667	1	0.054125
8.883333	1	0.053625
8.900000	1	0.053250
8.916667	1	0.052500
8.933333	1	0.052500
8.950000	1	0.053000
8.966667	1	0.053000
8.983333	1	0.052500
9.000000	1	0.051500
9.016667	1	0.051750
9.033333	1	0.050875
9.050000	1	0.050500
9.066667	1	0.049875
9.083333	1	0.048875
9.100000	1	0.048250
9.116667	1	0.047625
9.133333	1	0.046375
9.150000	1	0.046375
9.166667	1	0.045500
9.183333	1	0.045625
9.200000	1	0.045250
9.216667	1	0.044625
9.233333	1	0.043875
9.250000	1	0.043250
9.266667	1	0.043500
9.283333	1	0.043375
9.300000	1	0.044125
9.316667	1	0.043875
9.333333	1	0.044500
9.350000	1	0.045625
9.366667	1	0.046375
9.383333	1	0.048000
9.400000	1	0.048750
9.416667	1	0.050125
9.433333	1	0.052000
9.450000	1	0.054250
9.466667	1	0.056125
9.483333	1	0.058500
9.500000	1	0.061125
9.516667	1	0.062375
9.533333	1	0.064500
9.550000	1	0.066625
9.566667	1	0.068500
9.583333	1	0.070375
9.600000	1	0.072000
9.616667	1	0.074375
9.633333	1	0.076250
9.650000	1	0.077875
9.666667	1	0.079375
9.683333	1	0.080375
9.700000	1	0.081500
9.716667	1	0.082875
9.733333	1	0.083875
9.750000	1	0.085125
9.766667	1	0.085375
9.783333	1	0.085875
9.800000	1	0.086500
9.816667	1	0.086500
9.833333	1	0.087625
9.850000	1	0.087875
9.866667	1	0.086875
9.883333	1	0.087000
9.900000	1	0.086250
9.916667	1	0.085125
9.933333	1	0.084500
9.950000	1	0.084125
9.966667	1	0.083500
9.983333	1	0.083000
10.000000	1	0.083125
10.016667	1	0.083250
10.033333	1	0.083500
10.050000	1	0.085000
10.066667	1	0.087000
10.083333	1	0.089125
10.100000	1	0.092375
10.116667	1	0.096875
10.133333	1	0.103000
10.150000	1	0.109625
10.166667	1	0.117750
10.183333	1	0.126875
10.200000	1	0.137000
10.216667	1	0.148375
10.233333	1	0.162125
10.250000	1	0.178375
10.266667	1	0.197625
10.283333	1	0.218375
10.300000	1	0.241250
10.316667	1	0.267625
10.333333	1	0.296875
10.350000	1	0.330000
10.366667	1	0.366875
10.383333	1	0.407875
10.400000	1	0.452500
10.416667	1	0.496375
10.433333	1	0.532500
10.450000	1	0.547375
10.466667	1	0.527750
10.483333	1	0.468375
10.500000	1	0.377750
10.516667	1	0.291875
10.533333	1	0.275250
10.550000	1	0.417875
10.566667	1	0.822125
10.583333	1	1.592375
10.600000	1	2.820500
10.616667	1	4.580250
10.633333	1	6.919875
10.650000	1	9.865000
10.666667	1	13.425250
10.683333	1	17.585875
10.700000	1	22.301000
10.716667	1	27.485625
10.733333	1	32.999750
10.750000	1	38.629500
10.766667	1	44.066625
10.783333	1	48.905375
10.800000	1	52.668500
10.816667	1	54.889125
10.833333	1	55.246500
10.850000	1	53.677125
10.866667	1	50.412750
10.883333	1	45.912875
10.900000	1	40.728250
10.916667	1	35.362125
10.933333	1	30.194750
10.950000	1	25.462000
10.966667	1	21.281500
10.983333	1	17.690125
11.000000	1	14.671375
11.016667	1	12.178500
11.033333	1	10.150125
11.050000	1	8.515375
11.066667	1	7.204625
11.083333	1	6.156000
11.100000	1	5.314625
11.116667	1	4.636000
11.133333	1	4.084625
11.150000	1	3.633625
11.166667	1	3.260750
11.183333	1	2.950500
11.200000	1	2.690875
11.216667	1	2.470750
11.233333	1	2.284250
11.250000	1	2.125375
11.266667	1	1.988625
11.283333	1	1.871000
11.300000	1	1.769500
11.316667	1	1.681625
11.333333	1	1.604500
11.350000	1	1.537625
11.366667	1	1.479625
11.383333	1	1.429000
11.400000	1	1.383375
11.416667	1	1.343500
11.433333	1	1.307875
11.450000	1	1.276875
11.466667	1	1.249125
11.483333	1	1.224000
11.500000	1	1.200750
11.516667	1	1.180375
11.533333	1	1.162125
11.550000	1	1.145625
11.566667	1	1.130750
11.583333	1	1.117375
11.600000	1	1.105375
11.616667	1	1.094375
11.633333	1	1.085000
11.650000	1	1.077000
11.666667	1	1.070625
11.683333	1	1.066000
11.700000	1	1.062500
11.716667	1	1.060750
11.733333	1	1.060375
11.750000	1	1.061500
11.766667	1	1.063000
11.783333	1	1.065125
11.800000	1	1.067375
11.816667	1	1.070875
11.833333	1	1.074750
11.850000	1	1.078375
11.866667	1	1.081625
11.883333	1	1.085000
11.900000	1	1.087500
11.916667	1	1.090500
11.933333	1	1.092750
11.950000	1	1.096625
11.966667	1	1.100000
11.983333	1	1.104375
12.000000	1	1.108625
12.016667	1	1.113000
12.033333	1	1.118375
12.050000	1	1.124375
12.066667	1	1.130625
12.083333	1	1.137250
12.100000	1	1.143875
12.116667	1	1.150250
12.133333	1	1.157125
12.150000	1	1.164625
12.166667	1	1.172625
12.183333	1	1.181000
12.200000	1	1.190625
12.216667	1	1.200625
12.233333	1	1.213000
12.250000	1	1.226250
12.266667	1	1.242125
12.283333	1	1.259625
12.300000	1	1.280250
12.316667	1	1.304125
12.333333	1	1.332625
12.350000	1	1.368000
12.366667	1	1.413500
12.383333	1	1.473000
12.400000	1	1.551250
12.416667	1	1.656875
12.433333	1	1.797125
12.450000	1	1.981375
12.466667	1	2.218250
12.483333	1	2.515625
12.500000	1	2.877875
12.516667	1	3.307750
12.533333	1	3.803250
12.550000	1	4.358875
12.566667	1	4.962375
12.583333	1	5.600625
12.600000	1	6.256750
12.616667	1	6.913375
12.633333	1	7.556250
12.650000	1	8.173250
12.666667	1	8.756375
12.683333	1	9.301625
12.700000	1	9.811375
12.716667	1	10.291500
12.733333	1	10.748875
12.750000	1	11.194125
12.766667	1	11.637250
12.783333	1	12.087750
12.800000	1	12.553750
12.816667	1	13.038750
12.833333	1	13.548625
12.850000	1	14.076250
12.866667	1	14.600750
12.883333	1	15.066500
12.900000	1	15.373125
12.916667	1	15.397375
12.933333	1	15.036250
12.950000	1	14.254000
12.966667	1	13.108000
12.983333	1	11.725750
13.000000	1	10.257625
13.016667	1	8.830500
13.033333	1	7.525375
13.050000	1	6.381625
13.066667	1	5.406500
13.083333	1	4.592375
13.100000	1	3.922875
13.116667	1	3.380875
13.133333	1	2.945250
13.150000	1	2.599250
13.166667	1	2.325000
13.183333	1	2.108625
13.200000	1	1.937375
13.216667	1	1.800750
13.233333	1	1.691500
13.250000	1	1.603250
13.266667	1	1.530250
13.283333	1	1.469750
13.300000	1	1.417500
13.316667	1	1.372000
13.333333	1	1.332250
13.350000	1	1.297500
13.366667	1	1.265625
13.383333	1	1.237625
13.400000	1	1.213125
13.416667	1	1.190750
13.433333	1	1.171625
13.450000	1	1.154875
13.466667	1	1.141875
13.483333	1	1.132125
13.500000	1	1.124375
13.516667	1	1.118625
13.533333	1	1.115125
13.550000	1	1.113250
13.566667	1	1.110875
13.583333	1	1.109000
13.600000	1	1.105500
13.616667	1	1.099500
13.633333	1	1.091750
13.650000	1	1.081875
13.666667	1	1.069125
13.683333	1	1.054250
13.700000	1	1.037625
13.716667	1	1.018625
13.733333	1	0.999625
13.750000	1	0.980875
13.766667	1	0.961625
13.783333	1	0.943000
13.800000	1	0.924625
13.816667	1	0.906875
13.833333	1	0.890375
13.850000	1	0.874625
13.866667	1	0.859750
13.883333	1	0.846250
13.900000	1	0.832625
13.916667	1	0.820625
13.933333	1	0.808750
13.950000	1	0.797875
13.966667	1	0.788000
13.983333	1	0.777750
14.000000	1	0.768375
14.016667	1	0.759875
14.033333	1	0.751625
14.050000	1	0.743750
14.066667	1	0.736750
14.083333	1	0.729750
14.100000	1	0.723750
14.116667	1	0.717875
14.133333	1	0.711875
14.150000	1	0.705875
14.166667	1	0.701250
14.183333	1	0.697500
14.200000	1	0.694375
14.216667	1	0.691375
14.233333	1	0.688875
14.250000	1	0.687000
14.266667	1	0.686375
14.283333	1	0.686250
14.300000	1	0.687375
14.316667	1	0.689000
14.333333	1	0.692500
14.350000	1	0.697500
14.366667	1	0.703875
14.383333	1	0.711625
14.400000	1	0.722000
14.416667	1	0.735375
14.433333	1	0.753750
14.450000	1	0.780625
14.466667	1	0.821375
14.483333	1	0.885875
14.500000	1	0.988375
14.516667	1	1.149500
14.533333	1	1.400375
14.550000	1	1.778375
14.566667	1	2.333875
14.583333	1	3.127125
14.600000	1	4.228250
14.616667	1	5.715875
14.633333	1	7.668375
14.650000	1	10.154250
14.666667	1	13.221250
14.683333	1	16.886000
14.700000	1	21.121750
14.716667	1	25.850375
14.733333	1	30.945375
14.750000	1	36.231125
14.766667	1	41.489000
14.783333	1	46.474625
14.800000	1	50.950250
14.816667	1	54.689625
14.833333	1	57.508375
14.850000	1	59.277250
14.866667	1	59.938625
14.883333	1	59.505250
14.900000	1	58.059250
14.916667	1	55.738625
14.933333	1	52.719250
14.950000	1	49.191000
14.966667	1	45.348250
14.983333	1	41.366125
15.000000	1	37.387875
15.016667	1	33.527000
15.033333	1	29.866875
15.050000	1	26.462375
15.066667	1	23.346000
15.083333	1	20.528250
15.100000	1	18.006375
15.116667	1	15.766125
15.133333	1	13.785250
15.150000	1	12.041000
15.166667	1	10.510250
15.183333	1	9.171125
15.200000	1	8.000875
15.216667	1	6.981000
15.233333	1	6.092750
15.250000	1	5.324250
15.266667	1	4.662875
15.283333	1	4.096875
15.300000	1	3.617625
15.316667	1	3.215750
15.333333	1	2.883375
15.350000	1	2.611500
15.366667	1	2.393375
15.383333	1	2.220500
15.400000	1	2.085375
15.416667	1	1.981250
15.433333	1	1.900375
15.450000	1	1.837500
15.466667	1	1.786250
15.483333	1	1.741750
15.500000	1	1.701375
15.516667	1	1.660750
15.533333	1	1.619375
15.550000	1	1.575750
15.566667	1	1.532500
15.583333	1	1.487000
15.600000	1	1.441625
15.616667	1	1.396875
15.633333	1	1.353875
15.650000	1	1.312750
15.666667	1	1.274125
15.683333	1	1.238375
15.700000	1	1.205875
15.716667	1	1.176125
15.733333	1	1.148500
15.750000	1	1.122000
15.766667	1	1.097625
15.783333	1	1.074875
15.800000	1	1.053125
15.816667	1	1.033250
15.833333	1	1.013000
15.850000	1	0.995625
15.866667	1	0.978750
15.883333	1	0.963125
15.900000	1	0.949250
15.916667	1	0.938000
15.933333	1	0.927375
15.950000	1	0.918625
15.966667	1	0.911625
15.983333	1	0.905875
16.000000	1	0.900750
16.016667	1	0.897000
16.033333	1	0.894250
16.050000	1	0.892000
16.066667	1	0.889625
16.083333	1	0.887500
16.100000	1	0.885500
16.116667	1	0.883250
16.133333	1	0.881125
16.150000	1	0.877875
16.166667	1	0.874625
16.183333	1	0.870875
16.200000	1	0.866750
16.216667	1	0.861750
16.233333	1	0.856875
16.250000	1	0.850625
16.266667	1	0.844500
16.283333	1	0.838125
16.300000	1	0.831250
16.316667	1	0.824875
16.333333	1	0.818500
16.350000	1	0.813250
16.366667	1	0.810000
16.383333	1	0.807875
16.400000	1	0.806625
16.416667	1	0.807000
16.433333	1	0.809250
16.450000	1	0.812750
16.466667	1	0.817125
16.483333	1	0.821750
16.500000	1	0.827000
16.516667	1	0.832625
16.533333	1	0.837000
16.550000	1	0.840625
16.566667	1	0.842500
16.583333	1	0.844000
16.600000	1	0.844375
16.616667	1	0.844250
16.633333	1	0.842625
16.650000	1	0.841125
16.666667	1	0.840000
16.683333	1	0.839875
16.700000	1	0.841250
16.716667	1	0.843625
16.733333	1	0.848375
16.750000	1	0.855375
16.766667	1	0.864000
16.783333	1	0.874375
16.800000	1	0.885375
16.816667	1	0.896500
16.833333	1	0.906750
16.850000	1	0.916250
16.866667	1	0.925000
16.883333	1	0.931000
16.900000	1	0.936250
16.916667	1	0.938125
16.933333	1	0.938500
16.950000	1	0.936625
16.966667	1	0.933375
16.983333	1	0.928125
17.000000	1	0.922750
17.016667	1	0.916125
17.033333	1	0.909375
17.050000	1	0.902500
17.066667	1	0.896125
17.083333	1	0.890125
17.100000	1	0.885250
17.116667	1	0.881000
17.133333	1	0.877875
17.150000	1	0.875000
17.166667	1	0.872750
17.183333	1	0.871250
17.200000	1	0.871125
17.216667	1	0.871875
17.233333	1	0.872500
17.250000	1	0.874500
17.266667	1	0.876375
17.283333	1	0.879875
17.300000	1	0.883625
17.316667	1	0.887875
17.333333	1	0.892375
17.350000	1	0.898125
17.366667	1	0.904250
17.383333	1	0.910125
17.400000	1	0.915375
17.416667	1	0.921125
17.433333	1	0.925875
17.450000	1	0.929500
17.466667	1	0.932500
17.483333	1	0.934250
17.500000	1	0.934375
17.516667	1	0.932750
17.533333	1	0.930125
17.550000	1	0.926375
17.566667	1	0.921625
17.583333	1	0.914875
17.600000	1	0.908000
17.616667	1	0.901125
17.633333	1	0.892875
17.650000	1	0.884500
17.666667	1	0.875375
17.683333	1	0.865750
17.700000	1	0.856750
17.716667	1	0.847625
17.733333	1	0.839125
17.750000	1	0.830625
17.766667	1	0.822750
17.783333	1	0.816125
17.800000	1	0.810250
17.816667	1	0.804500
17.833333	1	0.799125
17.850000	1	0.794000
17.866667	1	0.789625
17.883333	1	0.785500
17.900000	1	0.781000
17.916667	1	0.777000
17.933333	1	0.772875
17.950000	1	0.768125
17.966667	1	0.763000
17.983333	1	0.758500
18.000000	1	0.753750
18.016667	1	0.748375
18.033333	1	0.743250
18.050000	1	0.738125
18.066667	1	0.733500
18.083333	1	0.728750
18.100000	1	0.725000
18.116667	1	0.721875
18.133333	1	0.719375
18.150000	1	0.718625
18.166667	1	0.718375
18.183333	1	0.718250
18.200000	1	0.719000
18.216667	1	0.719625
18.233333	1	0.720875
18.250000	1	0.721375
18.266667	1	0.722250
18.283333	1	0.723250
18.300000	1	0.724500
18.316667	1	0.724875
18.333333	1	0.725250
18.350000	1	0.724875
18.366667	1	0.725000
18.383333	1	0.725750
18.400000	1	0.727125
18.416667	1	0.729375
18.433333	1	0.731625
18.450000	1	0.735000
18.466667	1	0.739750
18.483333	1	0.744500
18.500000	1	0.750500
18.516667	1	0.757750
18.533333	1	0.766000
18.550000	1	0.774125
18.566667	1	0.783375
18.583333	1	0.793000
18.600000	1	0.802500
18.616667	1	0.812250
18.633333	1	0.821500
18.650000	1	0.830500
18.666667	1	0.838625
18.683333	1	0.846000
18.700000	1	0.852125
18.716667	1	0.857375
18.733333	1	0.860875
18.750000	1	0.863750
18.766667	1	0.863875
18.783333	1	0.862875
18.800000	1	0.860875
18.816667	1	0.856875
18.833333	1	0.849500
18.850000	1	0.841500
18.866667	1	0.831750
18.883333	1	0.820000
18.900000	1	0.807250
18.916667	1	0.792750
18.933333	1	0.777875
18.950000	1	0.762250
18.966667	1	0.745500
18.983333	1	0.728750
19.000000	1	0.711500
19.016667	1	0.694125
19.033333	1	0.677625
19.050000	1	0.661375
19.066667	1	0.647125
19.083333	1	0.634750
19.100000	1	0.624000
19.116667	1	0.616000
19.133333	1	0.611625
19.150000	1	0.612125
19.166667	1	0.619375
19.183333	1	0.633375
19.200000	1	0.656625
19.216667	1	0.690875
19.233333	1	0.736875
19.250000	1	0.797750
19.266667	1	0.874000
19.283333	1	0.967125
19.300000	1	1.076750
19.316667	1	1.203750
19.333333	1	1.346500
19.350000	1	1.503625
19.366667	1	1.671375
19.383333	1	1.847500
19.400000	1	2.025125
19.416667	1	2.201000
19.433333	1	2.368500
19.450000	1	2.522875
19.466667	1	2.658375
19.483333	1	2.771625
19.500000	1	2.858250
19.516667	1	2.917000
19.533333	1	2.947000
19.550000	1	2.947375
19.566667	1	2.921000
19.583333	1	2.869000
19.600000	1	2.794625
19.616667	1	2.701750
19.633333	1	2.594125
19.650000	1	2.474500
19.666667	1	2.347750
19.683333	1	2.217250
19.700000	1	2.087250
19.716667	1	1.958000
19.733333	1	1.831625
19.750000	1	1.710500
19.766667	1	1.595500
19.783333	1	1.486875
19.800000	1	1.385375
19.816667	1	1.291250
19.833333	1	1.203625
19.850000	1	1.124000
19.866667	1	1.052250
19.883333	1	0.988625
19.900000	1	0.933250
19.916667	1	0.887500
19.933333	1	0.852375
19.950000	1	0.828250
19.966667	1	0.817875
19.983333	1	0.822750
20.000000	1	0.845625
20.016667	1	0.889000
20.033333	1	0.953250
20.050000	1	1.043000
20.066667	1	1.158500
20.083333	1	1.301750
20.100000	1	1.471500
20.116667	1	1.668250
20.133333	1	1.889500
20.150000	1	2.131125
20.166667	1	2.388250
20.183333	1	2.654375
20.200000	1	2.922000
20.216667	1	3.182375
20.233333	1	3.427250
20.250000	1	3.648000
20.266667	1	3.836625
20.283333	1	3.986750
20.300000	1	4.093625
20.316667	1	4.155000
20.333333	1	4.169625
20.350000	1	4.139625
20.366667	1	4.066875
20.383333	1	3.955625
20.400000	1	3.811500
20.416667	1	3.641875
20.433333	1	3.453375
20.450000	1	3.252000
20.466667	1	3.045375
20.483333	1	2.839125
20.500000	1	2.638375
20.516667	1	2.445375
20.533333	1	2.265250
20.550000	1	2.099250
20.566667	1	1.949625
20.583333	1	1.818125
20.600000	1	1.705000
20.616667	1	1.610875
20.633333	1	1.535750
20.650000	1	1.479125
20.666667	1	1.440375
20.683333	1	1.418750
20.700000	1	1.413875
20.716667	1	1.423000
20.733333	1	1.444500
20.750000	1	1.476625
20.766667	1	1.515750
20.783333	1	1.560250
20.800000	1	1.605625
20.816667	1	1.649625
20.833333	1	1.689500
20.850000	1	1.721250
20.866667	1	1.743625
20.883333	1	1.755750
20.900000	1	1.756375
20.916667	1	1.744125
20.933333	1	1.719625
20.950000	1	1.683500
20.966667	1	1.637125
20.983333	1	1.581875
21.000000	1	1.519625
21.016667	1	1.451875
21.033333	1	1.381500
21.050000	1	1.309250
21.066667	1	1.237875
21.083333	1	1.167000
21.100000	1	1.098625
21.116667	1	1.033375
21.133333	1	0.971750
21.150000	1	0.913875
21.166667	1	0.860500
21.183333	1	0.810875
21.200000	1	0.765125
21.216667	1	0.723500
21.233333	1	0.685625
21.250000	1	0.651625
21.266667	1	0.620375
21.283333	1	0.592000
21.300000	1	0.566250
21.316667	1	0.542875
21.333333	1	0.521625
21.350000	1	0.502000
21.366667	1	0.485000
21.383333	1	0.469625
21.400000	1	0.455375
21.416667	1	0.443125
21.433333	1	0.432125
21.450000	1	0.422375
21.466667	1	0.413750
21.483333	1	0.406875
21.500000	1	0.401875
21.516667	1	0.397625
21.533333	1	0.396000
21.550000	1	0.396250
21.566667	1	0.399000
21.583333	1	0.404250
21.600000	1	0.412625
21.616667	1	0.424125
21.633333	1	0.439375
21.650000	1	0.458375
21.666667	1	0.481750
21.683333	1	0.510000
21.700000	1	0.543000
21.716667	1	0.579875
21.733333	1	0.621875
21.750000	1	0.667875
21.766667	1	0.717375
21.783333	1	0.768750
21.800000	1	0.822500
21.816667	1	0.877125
21.833333	1	0.931375
21.850000	1	0.983500
21.866667	1	1.032250
21.883333	1	1.077250
21.900000	1	1.118000
21.916667	1	1.152625
21.933333	1	1.180750
21.950000	1	1.202000
21.966667	1	1.215500
21.983333	1	1.221750
22.000000	1	1.220500
22.016667	1	1.212875
22.033333	1	1.199625
22.050000	1	1.180875
22.066667	1	1.157375
22.083333	1	1.130750
22.100000	1	1.100250
22.116667	1	1.067875
22.133333	1	1.033500
22.150000	1	0.999000
22.166667	1	0.963625
22.183333	1	0.927625
22.200000	1	0.891875
22.216667	1	0.856750
22.233333	1	0.821500
22.250000	1	0.787250
22.266667	1	0.753500
22.283333	1	0.720375
22.300000	1	0.688875
22.316667	1	0.658250
22.333333	1	0.629125
22.350000	1	0.601625
22.366667	1	0.574500
22.383333	1	0.548125
22.400000	1	0.523625
22.416667	1	0.500250
22.433333	1	0.479250
22.450000	1	0.460375
22.466667	1	0.442875
22.483333	1	0.427125
22.500000	1	0.413125
22.516667	1	0.400500
22.533333	1	0.388875
22.550000	1	0.378000
22.566667	1	0.369250
22.583333	1	0.361500
22.600000	1	0.355250
22.616667	1	0.348750
22.633333	1	0.344000
22.650000	1	0.340625
22.666667	1	0.337625
22.683333	1	0.335125
22.700000	1	0.332875
22.716667	1	0.330875
22.733333	1	0.329625
22.750000	1	0.328750
22.766667	1	0.327625
22.783333	1	0.327250
22.800000	1	0.327125
22.816667	1	0.327125
22.833333	1	0.327375
22.850000	1	0.327000
22.866667	1	0.326875
22.883333	1	0.327500
22.900000	1	0.328000
22.916667	1	0.328875
22.933333	1	0.330125
22.950000	1	0.330875
22.966667	1	0.332000
22.983333	1	0.333500
23.000000	1	0.334750
23.016667	1	0.336125
23.033333	1	0.337625
23.050000	1	0.339000
23.066667	1	0.340750
23.083333	1	0.342500
23.100000	1	0.344250
23.116667	1	0.345750
23.133333	1	0.347875
23.150000	1	0.349125
23.166667	1	0.350250
23.183333	1	0.350625
23.200000	1	0.351125
23.216667	1	0.351500
23.233333	1	0.350625
23.250000	1	0.350625
23.266667	1	0.350000
23.283333	1	0.350000
23.300000	1	0.350250
23.316667	1	0.352250
23.333333	1	0.356375
23.350000	1	0.362500
23.366667	1	0.372875
23.383333	1	0.387000
23.400000	1	0.407875
23.416667	1	0.436375
23.433333	1	0.475000
23.450000	1	0.524875
23.466667	1	0.588250
23.483333	1	0.667875
23.500000	1	0.767625
23.516667	1	0.889125
23.533333	1	1.034000
23.550000	1	1.205250
23.566667	1	1.404250
23.583333	1	1.630625
23.600000	1	1.885500
23.616667	1	2.166625
23.633333	1	2.472250
23.650000	1	2.798750
23.666667	1	3.141375
23.683333	1	3.494625
23.700000	1	3.851750
23.716667	1	4.205625
23.733333	1	4.548750
23.750000	1	4.872125
23.766667	1	5.167375
23.783333	1	5.428375
23.800000	1	5.647750
23.816667	1	5.822875
23.833333	1	5.948250
23.850000	1	6.021625
23.866667	1	6.044000
23.883333	1	6.016375
23.900000	1	5.939500
23.916667	1	5.818125
23.933333	1	5.657500
23.950000	1	5.462125
23.966667	1	5.238625
23.983333	1	4.993500
24.000000	1	4.732875
24.016667	1	4.461625
24.033333	1	4.185500
24.050000	1	3.910375
24.066667	1	3.639000
24.083333	1	3.374750
24.100000	1	3.119375
24.116667	1	2.875500
24.133333	1	2.643750
24.150000	1	2.427500
24.166667	1	2.225250
24.183333	1	2.038250
24.200000	1	1.864625
24.216667	1	1.704875
24.233333	1	1.559250
24.250000	1	1.426375
24.266667	1	1.305750
24.283333	1	1.196875
24.300000	1	1.098250
24.316667	1	1.009375
24.333333	1	0.929875
24.350000	1	0.859000
24.366667	1	0.796125
24.383333	1	0.741250
24.400000	1	0.693250
24.416667	1	0.651375
24.433333	1	0.615875
24.450000	1	0.584625
24.466667	1	0.557875
24.483333	1	0.535000
24.500000	1	0.515875
24.516667	1	0.499125
24.533333	1	0.485750
24.550000	1	0.474500
24.566667	1	0.465000
24.583333	1	0.456125
24.600000	1	0.449375
24.616667	1	0.442125
24.633333	1	0.436125
24.650000	1	0.430375
24.666667	1	0.424750
24.683333	1	0.419000
24.700000	1	0.413500
24.716667	1	0.408000
24.733333	1	0.402250
24.750000	1	0.396625
24.766667	1	0.390250
24.783333	1	0.384375
24.800000	1	0.378250
24.816667	1	0.372375
24.833333	1	0.366125
24.850000	1	0.360750
24.866667	1	0.355125
24.883333	1	0.350000
24.900000	1	0.344875
24.916667	1	0.340125
24.933333	1	0.336125
24.950000	1	0.332000
24.966667	1	0.328125
24.983333	1	0.325375
25.000000	1	0.321625
25.016667	1	0.318500
25.033333	1	0.315625
25.050000	1	0.312625
25.066667	1	0.309875
25.083333	1	0.307500
25.100000	1	0.305250
25.116667	1	0.302875
25.133333	1	0.300875
25.150000	1	0.298625
25.166667	1	0.296750
25.183333	1	0.294250
25.200000	1	0.292625
25.216667	1	0.291000
25.233333	1	0.289625
25.250000	1	0.288250
25.266667	1	0.286625
25.283333	1	0.284625
25.300000	1	0.283000
25.316667	1	0.281625
25.333333	1	0.280125
25.350000	1	0.279000
25.366667	1	0.278750
25.383333	1	0.277125
25.400000	1	0.277125
25.416667	1	0.277125
25.433333	1	0.277375
25.450000	1	0.277750
25.466667	1	0.278000
25.483333	1	0.279625
25.500000	1	0.281250
25.516667	1	0.282875
25.533333	1	0.284750
25.550000	1	0.286500
25.566667	1	0.288000
25.583333	1	0.289625
25.600000	1	0.291500
25.616667	1	0.293625
25.633333	1	0.295250
25.650000	1	0.297375
25.666667	1	0.298875
25.683333	1	0.300000
25.700000	1	0.301625
25.716667	1	0.302375
25.733333	1	0.303000
25.750000	1	0.303500
25.766667	1	0.303250
25.783333	1	0.302875
25.800000	1	0.303250
25.816667	1	0.302875
25.833333	1	0.302125
25.850000	1	0.301250
25.866667	1	0.300500
25.883333	1	0.299750
25.900000	1	0.298125
25.916667	1	0.297500
25.933333	1	0.296750
25.950000	1	0.295500
25.966667	1	0.294625
25.983333	1	0.294000
26.000000	1	0.294000
26.016667	1	0.293625
26.033333	1	0.293375
26.050000	1	0.293500
26.066667	1	0.293750
26.083333	1	0.293500
26.100000	1	0.294500
26.116667	1	0.295500
26.133333	1	0.296500
26.150000	1	0.298125
26.166667	1	0.299500
26.183333	1	0.300375
26.200000	1	0.301250
26.216667	1	0.303250
26.233333	1	0.304875
26.250000	1	0.306250
26.266667	1	0.307750
26.283333	1	0.309625
26.300000	1	0.311125
26.316667	1	0.312000
26.333333	1	0.312875
26.350000	1	0.313750
26.366667	1	0.315000
26.383333	1	0.315625
26.400000	1	0.315875
26.416667	1	0.315750
26.433333	1	0.315375
26.450000	1	0.315500
26.466667	1	0.315875
26.483333	1	0.314750
26.500000	1	0.313875
26.516667	1	0.312500
26.533333	1	0.311000
26.550000	1	0.309375
26.566667	1	0.308250
26.583333	1	0.306750
26.600000	1	0.304625
26.616667	1	0.302875
26.633333	1	0.300500
26.650000	1	0.298375
26.666667	1	0.295000
26.683333	1	0.292625
26.700000	1	0.290375
26.716667	1	0.287500
26.733333	1	0.284875
26.750000	1	0.282625
26.766667	1	0.279875
26.783333	1	0.276875
26.800000	1	0.273875
26.816667	1	0.271000
26.833333	1	0.268375
26.850000	1	0.266250
26.866667	1	0.263375
26.883333	1	0.261375
26.900000	1	0.258500
26.916667	1	0.256250
26.933333	1	0.253625
26.950000	1	0.251875
26.966667	1	0.250375
26.983333	1	0.248875
27.000000	1	0.247625
27.016667	1	0.246500
27.033333	1	0.246250
27.050000	1	0.245250
27.066667	1	0.244875
27.083333	1	0.245500
27.100000	1	0.246500
27.116667	1	0.247625
27.133333	1	0.249250
27.150000	1	0.252000
27.166667	1	0.255000
27.183333	1	0.258875
27.200000	1	0.263750
27.216667	1	0.270625
27.233333	1	0.279125
27.250000	1	0.289250
27.266667	1	0.301500
27.283333	1	0.317625
27.300000	1	0.336500
27.316667	1	0.358625
27.333333	1	0.386500
27.350000	1	0.419000
27.366667	1	0.458625
27.383333	1	0.505250
27.400000	1	0.561125
27.416667	1	0.626625
27.433333	1	0.702875
27.450000	1	0.791500
27.466667	1	0.893125
27.483333	1	1.009375
27.500000	1	1.140375
27.516667	1	1.287375
27.533333	1	1.451125
27.550000	1	1.631000
27.566667	1	1.827750
27.583333	1	2.041000
27.600000	1	2.268500
27.616667	1	2.511000
27.633333	1	2.765375
27.650000	1	3.031125
27.666667	1	3.304750
27.683333	1	3.583750
27.700000	1	3.863000
27.716667	1	4.139250
27.733333	1	4.408500
27.750000	1	4.667625
27.766667	1	4.911250
27.783333	1	5.135875
27.800000	1	5.336500
27.816667	1	5.511000
27.833333	1	5.656125
27.850000	1	5.768125
27.866667	1	5.845500
27.883333	1	5.887125
27.900000	1	5.892500
27.916667	1	5.860875
27.933333	1	5.794875
27.950000	1	5.695250
27.966667	1	5.566250
27.983333	1	5.410125
28.000000	1	5.230375
28.016667	1	5.030375
28.033333	1	4.814625
28.050000	1	4.587125
28.066667	1	4.351250
28.083333	1	4.111250
28.100000	1	3.869375
28.116667	1	3.629875
28.133333	1	3.394625
28.150000	1	3.166250
28.166667	1	2.946750
28.183333	1	2.737750
28.200000	1	2.538250
28.216667	1	2.350625
28.233333	1	2.175000
28.250000	1	2.010375
28.266667	1	1.857750
28.283333	1	1.715875
28.300000	1	1.584625
28.316667	1	1.463625
28.333333	1	1.351625
28.350000	1	1.249875
28.366667	1	1.156750
28.383333	1	1.071750
28.400000	1	0.994000
28.416667	1	0.923375
28.433333	1	0.859375
28.450000	1	0.800875
28.466667	1	0.747375
28.483333	1	0.699500
28.500000	1	0.656000
28.516667	1	0.617250
28.533333	1	0.582375
28.550000	1	0.551375
28.566667	1	0.524625
28.583333	1	0.500500
28.600000	1	0.479750
28.616667	1	0.461375
28.633333	1	0.446375
28.650000	1	0.432875
28.666667	1	0.421000
28.683333	1	0.411625
28.700000	1	0.403250
28.716667	1	0.397000
28.733333	1	0.392125
28.750000	1	0.388125
28.766667	1	0.384750
28.783333	1	0.382625
28.800000	1	0.381125
28.816667	1	0.380500
28.833333	1	0.379875
28.850000	1	0.379500
28.866667	1	0.379875
28.883333	1	0.380375
28.900000	1	0.380375
28.916667	1	0.380750
28.933333	1	0.380250
28.950000	1	0.379875
28.966667	1	0.379250
28.983333	1	0.378375
29.000000	1	0.377125
29.016667	1	0.375500
29.033333	1	0.373125
29.050000	1	0.369500
29.066667	1	0.365375
29.083333	1	0.360875
29.100000	1	0.354500
29.116667	1	0.346875
29.133333	1	0.338250
29.150000	1	0.328250
29.166667	1	0.317125
29.183333	1	0.304125
29.200000	1	0.288375
29.216667	1	0.272125
29.233333	1	0.254125
29.250000	1	0.234500
29.266667	1	0.213000
29.283333	1	0.189250
29.300000	1	0.163750
29.316667	1	0.136250
29.333333	1	0.106375
29.350000	1	0.074875
29.366667	1	0.042500
29.383333	1	0.008125
29.400000	1	-0.027375
29.416667	1	-0.065125
29.433333	1	-0.104000
29.450000	1	-0.143625
29.466667	1	-0.184125
29.483333	1	-0.225000
29.500000	1	-0.266500
29.516667	1	-0.307375
29.533333	1	-0.347750
29.550000	1	-0.387000
29.566667	1	-0.425125
29.583333	1	-0.461375
29.600000	1	-0.495750
29.616667	1	-0.527625
29.633333	1	-0.557250
29.650000	1	-0.583875
29.666667	1	-0.608125
29.683333	1	-0.627875
29.700000	1	-0.644625
29.716667	1	-0.657500
29.733333	1	-0.666250
29.750000	1	-0.671750
29.766667	1	-0.673500
29.783333	1	-0.672125
29.800000	1	-0.666625
29.816667	1	-0.657875
29.833333	1	-0.646750
29.850000	1	-0.632500
29.866667	1	-0.614750
29.883333	1	-0.595375
29.900000	1	-0.573625
29.916667	1	-0.549750
29.933333	1	-0.525250
29.950000	1	-0.498250
29.966667	1	-0.470625
29.983333	1	-0.443500
30.000000	1	-0.414750
30.016667	1	-0.386875
30.033333	1	-0.358750
30.050000	1	-0.330375
30.066667	1	-0.301875
30.083333	1	-0.274875
30.100000	1	-0.248250
30.116667	1	-0.223375
30.133333	1	-0.198750
30.150000	1	-0.175750
30.166667	1	-0.152625
30.183333	1	-0.130250
30.200000	1	-0.109375
30.216667	1	-0.090125
30.233333	1	-0.071750
30.250000	1	-0.054375
30.266667	1	-0.037250
30.283333	1	-0.021625
30.300000	1	-0.007250
30.316667	1	0.006375
30.333333	1	0.019250
30.350000	1	0.031625
30.366667	1	0.043125
30.383333	1	0.054000
30.400000	1	0.063375
30.416667	1	0.073250
30.433333	1	0.082875
30.450000	1	0.091875
30.466667	1	0.100625
30.483333	1	0.109000
30.500000	1	0.116875
30.516667	1	0.124625
30.533333	1	0.132750
30.550000	1	0.140375
30.566667	1	0.148500
30.583333	1	0.156750
30.600000	1	0.164500
30.616667	1	0.172250
30.633333	1	0.181250
30.650000	1	0.189625
30.666667	1	0.199250
30.683333	1	0.207625
30.700000	1	0.217750
30.716667	1	0.227625
30.733333	1	0.237250
30.750000	1	0.246875
30.766667	1	0.257000
30.783333	1	0.268000
30.800000	1	0.279000
30.816667	1	0.289375
30.833333	1	0.300125
30.850000	1	0.311875
30.866667	1	0.323375
30.883333	1	0.335625
30.900000	1	0.348250
30.916667	1	0.361500
30.933333	1	0.374750
30.950000	1	0.389125
30.966667	1	0.405125
30.983333	1	0.422500
31.000000	1	0.442000
31.016667	1	0.464000
31.033333	1	0.489000
31.050000	1	0.517500
31.066667	1	0.549750
31.083333	1	0.586500
31.100000	1	0.629250
31.116667	1	0.677375
31.133333	1	0.733000
31.150000	1	0.796125
31.166667	1	0.868250
31.183333	1	0.949500
31.200000	1	1.041250
31.216667	1	1.143875
31.233333	1	1.256750
31.250000	1	1.381250
31.266667	1	1.517500
31.283333	1	1.664625
31.300000	1	1.822875
31.316667	1	1.991000
31.333333	1	2.168875
31.350000	1	2.354875
31.366667	1	2.547125
31.383333	1	2.744625
31.400000	1	2.946000
31.416667	1	3.148500
31.433333	1	3.349625
31.450000	1	3.546625
31.466667	1	3.737375
31.483333	1	3.918750
31.500000	1	4.089500
31.516667	1	4.246000
31.533333	1	4.388000
31.550000	1	4.512000
31.566667	1	4.617625
31.583333	1	4.702625
31.600000	1	4.766625
31.616667	1	4.809375
31.633333	1	4.829750
31.650000	1	4.828875
31.666667	1	4.806375
31.683333	1	4.763875
31.700000	1	4.701625
31.716667	1	4.622500
31.733333	1	4.526500
31.750000	1	4.416500
31.766667	1	4.293375
31.783333	1	4.159625
31.800000	1	4.016500
31.816667	1	3.867125
31.833333	1	3.711875
31.850000	1	3.552250
31.866667	1	3.391375
31.883333	1	3.229125
31.900000	1	3.068500
31.916667	1	2.910750
31.933333	1	2.755000
31.950000	1	2.603375
31.966667	1	2.456500
31.983333	1	2.314125
32.000000	1	2.176875
32.016667	1	2.045125
32.033333	1	1.919625
32.050000	1	1.799250
32.066667	1	1.685250
32.083333	1	1.577125
32.100000	1	1.475375
32.116667	1	1.379000
32.133333	1	1.287875
32.150000	1	1.201125
32.166667	1	1.119500
32.183333	1	1.042500
32.200000	1	0.968875
32.216667	1	0.899750
32.233333	1	0.834375
32.250000	1	0.773375
32.266667	1	0.715750
32.283333	1	0.660625
32.300000	1	0.609500
32.316667	1	0.560500
32.333333	1	0.514625
32.350000	1	0.472000
32.366667	1	0.430625
32.383333	1	0.392875
32.400000	1	0.356500
32.416667	1	0.322125
32.433333	1	0.290125
32.450000	1	0.259750
32.466667	1	0.231125
32.483333	1	0.204125
32.500000	1	0.178875
32.516667	1	0.155875
32.533333	1	0.134500
32.550000	1	0.115000
32.566667	1	0.097000
32.583333	1	0.079875
32.600000	1	0.064750
32.616667	1	0.051000
32.633333	1	0.039000
32.650000	1	0.027875
32.666667	1	0.017750
32.683333	1	0.009625
32.700000	1	0.002500
32.716667	1	-0.003875
32.733333	1	-0.009250
32.750000	1	-0.012750
32.766667	1	-0.015875
32.783333	1	-0.017250
32.800000	1	-0.018250
32.816667	1	-0.018125
32.833333	1	-0.017875
32.850000	1	-0.017250
32.866667	1	-0.016000
32.883333	1	-0.014125
32.900000	1	-0.011500
32.916667	1	-0.008625
32.933333	1	-0.006000
32.950000	1	-0.002875
32.966667	1	0.001125
32.983333	1	0.003750
33.000000	1	0.006750
33.016667	1	0.010750
33.033333	1	0.014000
33.050000	1	0.017375
33.066667	1	0.020500
33.083333	1	0.023125
33.100000	1	0.025000
33.116667	1	0.027250
33.133333	1	0.029375
33.150000	1	0.031375
33.166667	1	0.033000
33.183333	1	0.034250
33.200000	1	0.036125
33.216667	1	0.036750
33.233333	1	0.037250
33.250000	1	0.037250
33.266667	1	0.037000
33.283333	1	0.036875
33.300000	1	0.036625
33.316667	1	0.036375
33.333333	1	0.036500
33.350000	1	0.035375
33.366667	1	0.034750
33.383333	1	0.033875
33.400000	1	0.033500
33.416667	1	0.033625
33.433333	1	0.033875
33.450000	1	0.033625
33.466667	1	0.033625
33.483333	1	0.033875
33.500000	1	0.035250
33.516667	1	0.035750
33.533333	1	0.037500
33.550000	1	0.039250
33.566667	1	0.041500
33.583333	1	0.044625
33.600000	1	0.047625
33.616667	1	0.051250
33.633333	1	0.054250
33.650000	1	0.058250
33.666667	1	0.062625
33.683333	1	0.066875
33.700000	1	0.071375
33.716667	1	0.076500
33.733333	1	0.081250
33.750000	1	0.086125
33.766667	1	0.091750
33.783333	1	0.096625
33.800000	1	0.101625
33.816667	1	0.106375
33.833333	1	0.111125
33.850000	1	0.116125
33.866667	1	0.120625
33.883333	1	0.125250
33.900000	1	0.130375
33.916667	1	0.134750
33.933333	1	0.137875
33.950000	1	0.141500
33.966667	1	0.145000
33.983333	1	0.148000
34.000000	1	0.150500
34.016667	1	0.152375
34.033333	1	0.154750
34.050000	1	0.156000
34.066667	1	0.156750
34.083333	1	0.157250
34.100000	1	0.157750
34.116667	1	0.158125
34.133333	1	0.158750
34.150000	1	0.158000
34.166667	1	0.157000
34.183333	1	0.156875
34.200000	1	0.155500
34.216667	1	0.154250
34.233333	1	0.152250
34.250000	1	0.150875
34.266667	1	0.148875
34.283333	1	0.147250
34.300000	1	0.145125
34.316667	1	0.143000
34.333333	1	0.141750
34.350000	1	0.140000
34.366667	1	0.139500
34.383333	1	0.138250
34.400000	1	0.137250
34.416667	1	0.136250
34.433333	1	0.135125
34.450000	1	0.134500
34.466667	1	0.134000
34.483333	1	0.134000
34.500000	1	0.134250
34.516667	1	0.133500
34.533333	1	0.133875
34.550000	1	0.134625
34.566667	1	0.134625
34.583333	1	0.135625
34.600000	1	0.136250
34.616667	1	0.136875
34.633333	1	0.137875
34.650000	1	0.138875
34.666667	1	0.139875
34.683333	1	0.140250
34.700000	1	0.140500
34.716667	1	0.141500
34.733333	1	0.142500
34.750000	1	0.143000
34.766667	1	0.143625
34.783333	1	0.143750
34.800000	1	0.144000
34.816667	1	0.143875
34.833333	1	0.143125
34.850000	1	0.142875
34.866667	1	0.142375
34.883333	1	0.141750
34.900000	1	0.140250
34.916667	1	0.139125
34.933333	1	0.138250
34.950000	1	0.136750
34.966667	1	0.135375
34.983333	1	0.134000
35.000000	1	0.132500
35.016667	1	0.130625
35.033333	1	0.129375
35.050000	1	0.127625
35.066667	1	0.126000
35.083333	1	0.124375
35.100000	1	0.123125
35.116667	1	0.122250
35.133333	1	0.120500
35.150000	1	0.120125
35.166667	1	0.120000
35.183333	1	0.119000
35.200000	1	0.118750
35.216667	1	0.118625
35.233333	1	0.118500
35.250000	1	0.118125
35.266667	1	0.118125
35.283333	1	0.119250
35.300000	1	0.119750
35.316667	1	0.120375
35.333333	1	0.121500
35.350000	1	0.122000
35.366667	1	0.122375
35.383333	1	0.123625
35.400000	1	0.124500
35.416667	1	0.124875
35.433333	1	0.126250
35.450000	1	0.127500
35.466667	1	0.128125
35.483333	1	0.129250
35.500000	1	0.130375
35.516667	1	0.131625
35.533333	1	0.133875
35.550000	1	0.135125
35.566667	1	0.136375
35.583333	1	0.137375
35.600000	1	0.137875
35.616667	1	0.139250
35.633333	1	0.140375
35.650000	1	0.141750
35.666667	1	0.142875
35.683333	1	0.143625
35.700000	1	0.144250
35.716667	1	0.144625
35.733333	1	0.145875
35.750000	1	0.146375
35.766667	1	0.147250
35.783333	1	0.147875
35.800000	1	0.148500
35.816667	1	0.148625
35.833333	1	0.149000
35.850000	1	0.148500
35.866667	1	0.148125
35.883333	1	0.148375
35.900000	1	0.147375
35.916667	1	0.146625
35.933333	1	0.145625
35.950000	1	0.144375
35.966667	1	0.142625
35.983333	1	0.141250
36.000000	1	0.139125
36.016667	1	0.137375
36.033333	1	0.135250
36.050000	1	0.133250
36.066667	1	0.130625
36.083333	1	0.128250
36.100000	1	0.125875
36.116667	1	0.123250
36.133333	1	0.120750
36.150000	1	0.118625
36.166667	1	0.116250
36.183333	1	0.113625
36.200000	1	0.111250
36.216667	1	0.108750
36.233333	1	0.107250
36.250000	1	0.106000
36.266667	1	0.104625
36.283333	1	0.104375
36.300000	1	0.103625
36.316667	1	0.102875
36.333333	1	0.103625
36.350000	1	0.104375
36.366667	1	0.105250
36.383333	1	0.106750
36.400000	1	0.108750
36.416667	1	0.110375
36.433333	1	0.112375
36.450000	1	0.114500
36.466667	1	0.117250
36.483333	1	0.119750
36.500000	1	0.122750
36.516667	1	0.125375
36.533333	1	0.128000
36.550000	1	0.130500
36.566667	1	0.133625
36.583333	1	0.136000
36.600000	1	0.138000
36.616667	1	0.140625
36.633333	1	0.142250
36.650000	1	0.144625
36.666667	1	0.146500
36.683333	1	0.148000
36.700000	1	0.149250
36.716667	1	0.150875
36.733333	1	0.151875
36.750000	1	0.152750
36.766667	1	0.153125
36.783333	1	0.153375
36.800000	1	0.153250
36.816667	1	0.153875
36.833333	1	0.153875
36.850000	1	0.153500
36.866667	1	0.153000
36.883333	1	0.152000
36.900000	1	0.151625
36.916667	1	0.150750
36.933333	1	0.150000
36.950000	1	0.148750
36.966667	1	0.147500
36.983333	1	0.146625
37.000000	1	0.145625
37.016667	1	0.144500
37.033333	1	0.143125
37.050000	1	0.141375
37.066667	1	0.141000
37.083333	1	0.140250
37.100000	1	0.139000
37.116667	1	0.137625
37.133333	1	0.137750
37.150000	1	0.136500
37.166667	1	0.135375
37.183333	1	0.135000
37.200000	1	0.133750
37.216667	1	0.133750
37.233333	1	0.132750
37.250000	1	0.132500
37.266667	1	0.132500
37.283333	1	0.132250
37.300000	1	0.132250
37.316667	1	0.133000
37.333333	1	0.132250
37.350000	1	0.132375
37.366667	1	0.132250
37.383333	1	0.132500
37.400000	1	0.132250
37.416667	1	0.132250
37.433333	1	0.132500
37.450000	1	0.132750
37.466667	1	0.132375
37.483333	1	0.132875
37.500000	1	0.133625
37.516667	1	0.133125
37.533333	1	0.133125
37.550000	1	0.133625
37.566667	1	0.133125
37.583333	1	0.133250
37.600000	1	0.132750
37.616667	1	0.131625
37.633333	1	0.130750
37.650000	1	0.130000
37.666667	1	0.130875
37.683333	1	0.130500
37.700000	1	0.129875
37.716667	1	0.129500
37.733333	1	0.128875
37.750000	1	0.127875
37.766667	1	0.126625
37.783333	1	0.125750
37.800000	1	0.124625
37.816667	1	0.123250
37.833333	1	0.122000
37.850000	1	0.120125
37.866667	1	0.118250
37.883333	1	0.116500
37.900000	1	0.114500
37.916667	1	0.112250
37.933333	1	0.109000
37.950000	1	0.105750
37.966667	1	0.102125
37.983333	1	0.099250
38.000000	1	0.095625
38.016667	1	0.091750
38.033333	1	0.087875
38.050000	1	0.085000
38.066667	1	0.081500
38.083333	1	0.077750
38.100000	1	0.073750
38.116667	1	0.070125
38.133333	1	0.066125
38.150000	1	0.061875
38.166667	1	0.057875
38.183333	1	0.053250
38.200000	1	0.048750
38.216667	1	0.044625
38.233333	1	0.040375
38.250000	1	0.036625
38.266667	1	0.032625
38.283333	1	0.028625
38.300000	1	0.024875
38.316667	1	0.022000
38.333333	1	0.019000
38.350000	1	0.015250
38.366667	1	0.012625
38.383333	1	0.009500
38.400000	1	0.006750
38.416667	1	0.003625
38.433333	1	0.000625
38.450000	1	-0.001875
38.466667	1	-0.003750
38.483333	1	-0.006000
38.500000	1	-0.008250
38.516667	1	-0.009875
38.533333	1	-0.011250
38.550000	1	-0.013000
38.566667	1	-0.014875
38.583333	1	-0.016875
38.600000	1	-0.017750
38.616667	1	-0.019375
38.633333	1	-0.020250
38.650000	1	-0.021000
38.666667	1	-0.022125
38.683333	1	-0.022125
38.700000	1	-0.022500
38.716667	1	-0.023375
38.733333	1	-0.024125
38.750000	1	-0.024125
38.766667	1	-0.024500
38.783333	1	-0.024750
38.800000	1	-0.025000
38.816667	1	-0.025000
38.833333	1	-0.025000
38.850000	1	-0.024375
38.866667	1	-0.024000
38.883333	1	-0.023625
38.900000	1	-0.023000
38.916667	1	-0.022125
38.933333	1	-0.021375
38.950000	1	-0.020125
38.966667	1	-0.019625
38.983333	1	-0.018875
39.000000	1	-0.017875
39.016667	1	-0.017375
39.033333	1	-0.016375
39.050000	1	-0.015125
39.066667	1	-0.013875
39.083333	1	-0.013000
39.100000	1	-0.011875
39.116667	1	-0.010250
39.133333	1	-0.009000
39.150000	1	-0.007250
39.166667	1	-0.006000
39.183333	1	-0.005500
39.200000	1	-0.003750
39.216667	1	-0.002375
39.233333	1	-0.000375
39.250000	1	0.001500
39.266667	1	0.002750
39.283333	1	0.004375
39.300000	1	0.006125
39.316667	1	0.007500
39.333333	1	0.008625
39.350000	1	0.010750
39.366667	1	0.012250
39.383333	1	0.013625
39.400000	1	0.014500
39.416667	1	0.015375
39.433333	1	0.017125
39.450000	1	0.018750
39.466667	1	0.019750
39.483333	1	0.021000
39.500000	1	0.021875
39.516667	1	0.022250
39.533333	1	0.023000
39.550000	1	0.024125
39.566667	1	0.024500
39.583333	1	0.025250
39.600000	1	0.025250
39.616667	1	0.025500
39.633333	1	0.025500
39.650000	1	0.025750
39.666667	1	0.025750
39.683333	1	0.025125
39.700000	1	0.024750
39.716667	1	0.024875
39.733333	1	0.024125
39.750000	1	0.022500
39.766667	1	0.021500
39.783333	1	0.020750
39.800000	1	0.019625
39.816667	1	0.018375
39.833333	1	0.016500
39.850000	1	0.015375
39.866667	1	0.014000
39.883333	1	0.012500
39.900000	1	0.011125
39.916667	1	0.010375
39.933333	1	0.009625
39.950000	1	0.007750
39.966667	1	0.006250
39.983333	1	0.005125
40.000000	1	0.004500
