URL	chrom://7040-86g6c92/XVault/Ultimate_3000/20/20240517_CMO_FP23_FP25_MarkusDeplate.seq/277.smp/RI_1.channel/RI_1.chm
Channel	RI_1

Injection Information:
Data Vault	XVault
Sequence	20240517_CMO_FP23_FP25_MarkusDeplate
Name	FP23_24_s5
Number	29
Position	BC5
Comment	
Processing Method	
Instrument Method	run_25B_method
Type	Unknown
Status	Finished
Inject Time	28.05.2024 13:09:30 +02:00
Volume (µl)	20.0000
Dilution Factor	1.0000
Weight	1.0000

Chromatogram Data Information:
Time Min. (min)	0.000000
Time Max. (min)	40.000000
Data Points	2401
Detector	RI
Generating Data System	Chromeleon 7.3.2.11814
Exporting Data System	Chromeleon 7.3.2.0
Operator	Instrument Controller
Signal Quantity	Refractive 
Signal Unit	µRIU
Signal Min.	-0.777625
Signal Max.	55.031250
Channel	RI_1
Driver Name	RID520Driver.dll
Channel Type	Evaluation
Min. Step (s)	1
Max. Step (s)	1
Average Step (s)	1

Signal Parameter Information:
Signal Info	

Chromatogram Data:
Time (min)	Step (s)	Value (µRIU)
0.000000	n.a.	0.004875
0.016667	1	0.005500
0.033333	1	0.006750
0.050000	1	0.007750
0.066667	1	0.009250
0.083333	1	0.010375
0.100000	1	0.011750
0.116667	1	0.012250
0.133333	1	0.013250
0.150000	1	0.013875
0.166667	1	0.014375
0.183333	1	0.014875
0.200000	1	0.015500
0.216667	1	0.015750
0.233333	1	0.016375
0.250000	1	0.016875
0.266667	1	0.017500
0.283333	1	0.017500
0.300000	1	0.017125
0.316667	1	0.017500
0.333333	1	0.017125
0.350000	1	0.016500
0.366667	1	0.015625
0.383333	1	0.014250
0.400000	1	0.012750
0.416667	1	0.012250
0.433333	1	0.012625
0.450000	1	0.013875
0.466667	1	0.014875
0.483333	1	0.015625
0.500000	1	0.015875
0.516667	1	0.015250
0.533333	1	0.014250
0.550000	1	0.013250
0.566667	1	0.011750
0.583333	1	0.008375
0.600000	1	0.005375
0.616667	1	0.002500
0.633333	1	0.000000
0.650000	1	-0.002000
0.666667	1	-0.003250
0.683333	1	-0.003875
0.700000	1	-0.004375
0.716667	1	-0.004250
0.733333	1	-0.004625
0.750000	1	-0.005375
0.766667	1	-0.005875
0.783333	1	-0.005875
0.800000	1	-0.005250
0.816667	1	-0.005500
0.833333	1	-0.004875
0.850000	1	-0.004125
0.866667	1	-0.004000
0.883333	1	-0.003625
0.900000	1	-0.003000
0.916667	1	-0.002750
0.933333	1	-0.002000
0.950000	1	-0.001375
0.966667	1	-0.001375
0.983333	1	-0.000750
1.000000	1	-0.000125
1.016667	1	0.000375
1.033333	1	0.001125
1.050000	1	0.001875
1.066667	1	0.002625
1.083333	1	0.003125
1.100000	1	0.004125
1.116667	1	0.005250
1.133333	1	0.006250
1.150000	1	0.007500
1.166667	1	0.007750
1.183333	1	0.008750
1.200000	1	0.009125
1.216667	1	0.010375
1.233333	1	0.011875
1.250000	1	0.013000
1.266667	1	0.014750
1.283333	1	0.015875
1.300000	1	0.016875
1.316667	1	0.018500
1.333333	1	0.019500
1.350000	1	0.020750
1.366667	1	0.022250
1.383333	1	0.023625
1.400000	1	0.025375
1.416667	1	0.026500
1.433333	1	0.027750
1.450000	1	0.029375
1.466667	1	0.031375
1.483333	1	0.033000
1.500000	1	0.034625
1.516667	1	0.036000
1.533333	1	0.037500
1.550000	1	0.038625
1.566667	1	0.040250
1.583333	1	0.041000
1.600000	1	0.041500
1.616667	1	0.042875
1.633333	1	0.043750
1.650000	1	0.044500
1.666667	1	0.045375
1.683333	1	0.046125
1.700000	1	0.046500
1.716667	1	0.046875
1.733333	1	0.047500
1.750000	1	0.047375
1.766667	1	0.046875
1.783333	1	0.047250
1.800000	1	0.047250
1.816667	1	0.046750
1.833333	1	0.046875
1.850000	1	0.046750
1.866667	1	0.046125
1.883333	1	0.046000
1.900000	1	0.046125
1.916667	1	0.046125
1.933333	1	0.045375
1.950000	1	0.045000
1.966667	1	0.044875
1.983333	1	0.044750
2.000000	1	0.045000
2.016667	1	0.045375
2.033333	1	0.045625
2.050000	1	0.046000
2.066667	1	0.046500
2.083333	1	0.046500
2.100000	1	0.045750
2.116667	1	0.045375
2.133333	1	0.045875
2.150000	1	0.045500
2.166667	1	0.045625
2.183333	1	0.045750
2.200000	1	0.045875
2.216667	1	0.045625
2.233333	1	0.045875
2.250000	1	0.044750
2.266667	1	0.044375
2.283333	1	0.043125
2.300000	1	0.042875
2.316667	1	0.041875
2.333333	1	0.041250
2.350000	1	0.040500
2.366667	1	0.039625
2.383333	1	0.038875
2.400000	1	0.037750
2.416667	1	0.037125
2.433333	1	0.036250
2.450000	1	0.034375
2.466667	1	0.033250
2.483333	1	0.032375
2.500000	1	0.031125
2.516667	1	0.029625
2.533333	1	0.028625
2.550000	1	0.027750
2.566667	1	0.026375
2.583333	1	0.025875
2.600000	1	0.024875
2.616667	1	0.024750
2.633333	1	0.023875
2.650000	1	0.023625
2.666667	1	0.023625
2.683333	1	0.023750
2.700000	1	0.023625
2.716667	1	0.023750
2.733333	1	0.023375
2.750000	1	0.023625
2.766667	1	0.024000
2.783333	1	0.024125
2.800000	1	0.024500
2.816667	1	0.024750
2.833333	1	0.024875
2.850000	1	0.025750
2.866667	1	0.026500
2.883333	1	0.027375
2.900000	1	0.028000
2.916667	1	0.028750
2.933333	1	0.029875
2.950000	1	0.030125
2.966667	1	0.031250
2.983333	1	0.031750
3.000000	1	0.032500
3.016667	1	0.033625
3.033333	1	0.034750
3.050000	1	0.036125
3.066667	1	0.037250
3.083333	1	0.038125
3.100000	1	0.039875
3.116667	1	0.040500
3.133333	1	0.042125
3.150000	1	0.043750
3.166667	1	0.045750
3.183333	1	0.047375
3.200000	1	0.049250
3.216667	1	0.050750
3.233333	1	0.052750
3.250000	1	0.055000
3.266667	1	0.056375
3.283333	1	0.058000
3.300000	1	0.058875
3.316667	1	0.060000
3.333333	1	0.061250
3.350000	1	0.063000
3.366667	1	0.064750
3.383333	1	0.067000
3.400000	1	0.068125
3.416667	1	0.070250
3.433333	1	0.071375
3.450000	1	0.073000
3.466667	1	0.074500
3.483333	1	0.076625
3.500000	1	0.078125
3.516667	1	0.079125
3.533333	1	0.079750
3.550000	1	0.081000
3.566667	1	0.082875
3.583333	1	0.084500
3.600000	1	0.085750
3.616667	1	0.086375
3.633333	1	0.087375
3.650000	1	0.088375
3.666667	1	0.089125
3.683333	1	0.090000
3.700000	1	0.091250
3.716667	1	0.092375
3.733333	1	0.093875
3.750000	1	0.094750
3.766667	1	0.095625
3.783333	1	0.096500
3.800000	1	0.097125
3.816667	1	0.098000
3.833333	1	0.098750
3.850000	1	0.099875
3.866667	1	0.100250
3.883333	1	0.100375
3.900000	1	0.100875
3.916667	1	0.101375
3.933333	1	0.101750
3.950000	1	0.101875
3.966667	1	0.101750
3.983333	1	0.101750
4.000000	1	0.101750
4.016667	1	0.101500
4.033333	1	0.100625
4.050000	1	0.100750
4.066667	1	0.100125
4.083333	1	0.099875
4.100000	1	0.099375
4.116667	1	0.099000
4.133333	1	0.097625
4.150000	1	0.097125
4.166667	1	0.095750
4.183333	1	0.095125
4.200000	1	0.094500
4.216667	1	0.093625
4.233333	1	0.092750
4.250000	1	0.093000
4.266667	1	0.092500
4.283333	1	0.092125
4.300000	1	0.091750
4.316667	1	0.091625
4.333333	1	0.091250
4.350000	1	0.091250
4.366667	1	0.091125
4.383333	1	0.091500
4.400000	1	0.092250
4.416667	1	0.091500
4.433333	1	0.091625
4.450000	1	0.092375
4.466667	1	0.092750
4.483333	1	0.093000
4.500000	1	0.093125
4.516667	1	0.092500
4.533333	1	0.093250
4.550000	1	0.092750
4.566667	1	0.092375
4.583333	1	0.091750
4.600000	1	0.091250
4.616667	1	0.090375
4.633333	1	0.089750
4.650000	1	0.089125
4.666667	1	0.088375
4.683333	1	0.086875
4.700000	1	0.085750
4.716667	1	0.084250
4.733333	1	0.082250
4.750000	1	0.081375
4.766667	1	0.079625
4.783333	1	0.078250
4.800000	1	0.077250
4.816667	1	0.076500
4.833333	1	0.075125
4.850000	1	0.074250
4.866667	1	0.073500
4.883333	1	0.073375
4.900000	1	0.073000
4.916667	1	0.072750
4.933333	1	0.072625
4.950000	1	0.073875
4.966667	1	0.075375
4.983333	1	0.076500
5.000000	1	0.078250
5.016667	1	0.079750
5.033333	1	0.081500
5.050000	1	0.083500
5.066667	1	0.086500
5.083333	1	0.089750
5.100000	1	0.093125
5.116667	1	0.096250
5.133333	1	0.099625
5.150000	1	0.103875
5.166667	1	0.108000
5.183333	1	0.111875
5.200000	1	0.116125
5.216667	1	0.121500
5.233333	1	0.127000
5.250000	1	0.132125
5.266667	1	0.137000
5.283333	1	0.142375
5.300000	1	0.147625
5.316667	1	0.153125
5.333333	1	0.159250
5.350000	1	0.164875
5.366667	1	0.170750
5.383333	1	0.176375
5.400000	1	0.182000
5.416667	1	0.188000
5.433333	1	0.193625
5.450000	1	0.199625
5.466667	1	0.205375
5.483333	1	0.210750
5.500000	1	0.216375
5.516667	1	0.221375
5.533333	1	0.226500
5.550000	1	0.231750
5.566667	1	0.236375
5.583333	1	0.241000
5.600000	1	0.245875
5.616667	1	0.249750
5.633333	1	0.254125
5.650000	1	0.258750
5.666667	1	0.262750
5.683333	1	0.267125
5.700000	1	0.270125
5.716667	1	0.273875
5.733333	1	0.277000
5.750000	1	0.279625
5.766667	1	0.282750
5.783333	1	0.285125
5.800000	1	0.288000
5.816667	1	0.290875
5.833333	1	0.293125
5.850000	1	0.294500
5.866667	1	0.296625
5.883333	1	0.297625
5.900000	1	0.299125
5.916667	1	0.300375
5.933333	1	0.300250
5.950000	1	0.300375
5.966667	1	0.301000
5.983333	1	0.300750
6.000000	1	0.300500
6.016667	1	0.300375
6.033333	1	0.299625
6.050000	1	0.298250
6.066667	1	0.297125
6.083333	1	0.295000
6.100000	1	0.293500
6.116667	1	0.291875
6.133333	1	0.289875
6.150000	1	0.288000
6.166667	1	0.285125
6.183333	1	0.283000
6.200000	1	0.280500
6.216667	1	0.277375
6.233333	1	0.274125
6.250000	1	0.270625
6.266667	1	0.267000
6.283333	1	0.264000
6.300000	1	0.259625
6.316667	1	0.256125
6.333333	1	0.253000
6.350000	1	0.249500
6.366667	1	0.245500
6.383333	1	0.241625
6.400000	1	0.237625
6.416667	1	0.234125
6.433333	1	0.229875
6.450000	1	0.226125
6.466667	1	0.222000
6.483333	1	0.218625
6.500000	1	0.214625
6.516667	1	0.210625
6.533333	1	0.207000
6.550000	1	0.202875
6.566667	1	0.199750
6.583333	1	0.196250
6.600000	1	0.192250
6.616667	1	0.189125
6.633333	1	0.185875
6.650000	1	0.182250
6.666667	1	0.179375
6.683333	1	0.175875
6.700000	1	0.172500
6.716667	1	0.169500
6.733333	1	0.166500
6.750000	1	0.164250
6.766667	1	0.161750
6.783333	1	0.159750
6.800000	1	0.157125
6.816667	1	0.155375
6.833333	1	0.152875
6.850000	1	0.150625
6.866667	1	0.147625
6.883333	1	0.145875
6.900000	1	0.144125
6.916667	1	0.143000
6.933333	1	0.141875
6.950000	1	0.140750
6.966667	1	0.139125
6.983333	1	0.139000
7.000000	1	0.138750
7.016667	1	0.137875
7.033333	1	0.136375
7.050000	1	0.136125
7.066667	1	0.135875
7.083333	1	0.135750
7.100000	1	0.136500
7.116667	1	0.136500
7.133333	1	0.136625
7.150000	1	0.137250
7.166667	1	0.137625
7.183333	1	0.138125
7.200000	1	0.138750
7.216667	1	0.139375
7.233333	1	0.140250
7.250000	1	0.140750
7.266667	1	0.142250
7.283333	1	0.142875
7.300000	1	0.144250
7.316667	1	0.145375
7.333333	1	0.146875
7.350000	1	0.147500
7.366667	1	0.148750
7.383333	1	0.149750
7.400000	1	0.151125
7.416667	1	0.151500
7.433333	1	0.152125
7.450000	1	0.152750
7.466667	1	0.153000
7.483333	1	0.154125
7.500000	1	0.154250
7.516667	1	0.154500
7.533333	1	0.154500
7.550000	1	0.154500
7.566667	1	0.154125
7.583333	1	0.154625
7.600000	1	0.154625
7.616667	1	0.154750
7.633333	1	0.154625
7.650000	1	0.154125
7.666667	1	0.153625
7.683333	1	0.153250
7.700000	1	0.152375
7.716667	1	0.151750
7.733333	1	0.151125
7.750000	1	0.150250
7.766667	1	0.150125
7.783333	1	0.149500
7.800000	1	0.148625
7.816667	1	0.147250
7.833333	1	0.145500
7.850000	1	0.143750
7.866667	1	0.141750
7.883333	1	0.139875
7.900000	1	0.138000
7.916667	1	0.135625
7.933333	1	0.133250
7.950000	1	0.130500
7.966667	1	0.127875
7.983333	1	0.125375
8.000000	1	0.122500
8.016667	1	0.118750
8.033333	1	0.114875
8.050000	1	0.111000
8.066667	1	0.107000
8.083333	1	0.102625
8.100000	1	0.098500
8.116667	1	0.094375
8.133333	1	0.090500
8.150000	1	0.086500
8.166667	1	0.082000
8.183333	1	0.077500
8.200000	1	0.073250
8.216667	1	0.069500
8.233333	1	0.066375
8.250000	1	0.062625
8.266667	1	0.059000
8.283333	1	0.055625
8.300000	1	0.052625
8.316667	1	0.050250
8.333333	1	0.047125
8.350000	1	0.045000
8.366667	1	0.043125
8.383333	1	0.041500
8.400000	1	0.039875
8.416667	1	0.038875
8.433333	1	0.037750
8.450000	1	0.036625
8.466667	1	0.036250
8.483333	1	0.036250
8.500000	1	0.035875
8.516667	1	0.035875
8.533333	1	0.036125
8.550000	1	0.036750
8.566667	1	0.036125
8.583333	1	0.036750
8.600000	1	0.037125
8.616667	1	0.037375
8.633333	1	0.037500
8.650000	1	0.038250
8.666667	1	0.039125
8.683333	1	0.039750
8.700000	1	0.040625
8.716667	1	0.041250
8.733333	1	0.041875
8.750000	1	0.042625
8.766667	1	0.043500
8.783333	1	0.044375
8.800000	1	0.045750
8.816667	1	0.046250
8.833333	1	0.046375
8.850000	1	0.046500
8.866667	1	0.046500
8.883333	1	0.046750
8.900000	1	0.047875
8.916667	1	0.048875
8.933333	1	0.049000
8.950000	1	0.048750
8.966667	1	0.049625
8.983333	1	0.050625
9.000000	1	0.050625
9.016667	1	0.050500
9.033333	1	0.050250
9.050000	1	0.051000
9.066667	1	0.050750
9.083333	1	0.051625
9.100000	1	0.052000
9.116667	1	0.052250
9.133333	1	0.052250
9.150000	1	0.052500
9.166667	1	0.052875
9.183333	1	0.052625
9.200000	1	0.052125
9.216667	1	0.052125
9.233333	1	0.052625
9.250000	1	0.052375
9.266667	1	0.052875
9.283333	1	0.052875
9.300000	1	0.053000
9.316667	1	0.053250
9.333333	1	0.052750
9.350000	1	0.052750
9.366667	1	0.052875
9.383333	1	0.052875
9.400000	1	0.052750
9.416667	1	0.052250
9.433333	1	0.052000
9.450000	1	0.052125
9.466667	1	0.051750
9.483333	1	0.052250
9.500000	1	0.051875
9.516667	1	0.051750
9.533333	1	0.051875
9.550000	1	0.052625
9.566667	1	0.052375
9.583333	1	0.052375
9.600000	1	0.052000
9.616667	1	0.052000
9.633333	1	0.051125
9.650000	1	0.051250
9.666667	1	0.050500
9.683333	1	0.051125
9.700000	1	0.051750
9.716667	1	0.051875
9.733333	1	0.051250
9.750000	1	0.050750
9.766667	1	0.050500
9.783333	1	0.050000
9.800000	1	0.049125
9.816667	1	0.048625
9.833333	1	0.047750
9.850000	1	0.046625
9.866667	1	0.045000
9.883333	1	0.043375
9.900000	1	0.041375
9.916667	1	0.040375
9.933333	1	0.038500
9.950000	1	0.036250
9.966667	1	0.034250
9.983333	1	0.032500
10.000000	1	0.029875
10.016667	1	0.028000
10.033333	1	0.026000
10.050000	1	0.023875
10.066667	1	0.022625
10.083333	1	0.021750
10.100000	1	0.022625
10.116667	1	0.023000
10.133333	1	0.025500
10.150000	1	0.028375
10.166667	1	0.032375
10.183333	1	0.037500
10.200000	1	0.044500
10.216667	1	0.053375
10.233333	1	0.063750
10.250000	1	0.075750
10.266667	1	0.090875
10.283333	1	0.109250
10.300000	1	0.130250
10.316667	1	0.153250
10.333333	1	0.179000
10.350000	1	0.208625
10.366667	1	0.242125
10.383333	1	0.280125
10.400000	1	0.321250
10.416667	1	0.364000
10.433333	1	0.401125
10.450000	1	0.423375
10.466667	1	0.415500
10.483333	1	0.370625
10.500000	1	0.290750
10.516667	1	0.202375
10.533333	1	0.157750
10.550000	1	0.236625
10.566667	1	0.536625
10.583333	1	1.160875
10.600000	1	2.204125
10.616667	1	3.745125
10.633333	1	5.839875
10.650000	1	8.519000
10.666667	1	11.798375
10.683333	1	15.666000
10.700000	1	20.085625
10.716667	1	24.982625
10.733333	1	30.231750
10.750000	1	35.639250
10.766667	1	40.925375
10.783333	1	45.718625
10.800000	1	49.580250
10.816667	1	52.059875
10.833333	1	52.821250
10.850000	1	51.756250
10.866667	1	49.027000
10.883333	1	45.025000
10.900000	1	40.254375
10.916667	1	35.199625
10.933333	1	30.239625
10.950000	1	25.626875
10.966667	1	21.499125
10.983333	1	17.911000
11.000000	1	14.863125
11.016667	1	12.323125
11.033333	1	10.240625
11.050000	1	8.552000
11.066667	1	7.192375
11.083333	1	6.102125
11.100000	1	5.226250
11.116667	1	4.522625
11.133333	1	3.953250
11.150000	1	3.490000
11.166667	1	3.110500
11.183333	1	2.797250
11.200000	1	2.536750
11.216667	1	2.318625
11.233333	1	2.134000
11.250000	1	1.977375
11.266667	1	1.843750
11.283333	1	1.728875
11.300000	1	1.630500
11.316667	1	1.544750
11.333333	1	1.469875
11.350000	1	1.404750
11.366667	1	1.347875
11.383333	1	1.298875
11.400000	1	1.255250
11.416667	1	1.217000
11.433333	1	1.183250
11.450000	1	1.153375
11.466667	1	1.126875
11.483333	1	1.102500
11.500000	1	1.081125
11.516667	1	1.061375
11.533333	1	1.044500
11.550000	1	1.029500
11.566667	1	1.015500
11.583333	1	1.003750
11.600000	1	0.993625
11.616667	1	0.985250
11.633333	1	0.978250
11.650000	1	0.973000
11.666667	1	0.969500
11.683333	1	0.967375
11.700000	1	0.967000
11.716667	1	0.969250
11.733333	1	0.972000
11.750000	1	0.976250
11.766667	1	0.982250
11.783333	1	0.989250
11.800000	1	0.995875
11.816667	1	1.003125
11.833333	1	1.009875
11.850000	1	1.016250
11.866667	1	1.022250
11.883333	1	1.027250
11.900000	1	1.030875
11.916667	1	1.035125
11.933333	1	1.039375
11.950000	1	1.042750
11.966667	1	1.046500
11.983333	1	1.050000
12.000000	1	1.054500
12.016667	1	1.059625
12.033333	1	1.064500
12.050000	1	1.070375
12.066667	1	1.076375
12.083333	1	1.082000
12.100000	1	1.088875
12.116667	1	1.096500
12.133333	1	1.105125
12.150000	1	1.114250
12.166667	1	1.124625
12.183333	1	1.135000
12.200000	1	1.146625
12.216667	1	1.159875
12.233333	1	1.174875
12.250000	1	1.191125
12.266667	1	1.209625
12.283333	1	1.228875
12.300000	1	1.250750
12.316667	1	1.274500
12.333333	1	1.302375
12.350000	1	1.335375
12.366667	1	1.376000
12.383333	1	1.427875
12.400000	1	1.496000
12.416667	1	1.587500
12.433333	1	1.708750
12.450000	1	1.870750
12.466667	1	2.078500
12.483333	1	2.341750
12.500000	1	2.666500
12.516667	1	3.055375
12.533333	1	3.506875
12.550000	1	4.017750
12.566667	1	4.579000
12.583333	1	5.179375
12.600000	1	5.803750
12.616667	1	6.436500
12.633333	1	7.064250
12.650000	1	7.675125
12.666667	1	8.260625
12.683333	1	8.816750
12.700000	1	9.341875
12.716667	1	9.839875
12.733333	1	10.316500
12.750000	1	10.780000
12.766667	1	11.240125
12.783333	1	11.704375
12.800000	1	12.180875
12.816667	1	12.673500
12.833333	1	13.184125
12.850000	1	13.701250
12.866667	1	14.189375
12.883333	1	14.575000
12.900000	1	14.747125
12.916667	1	14.593625
12.933333	1	14.044125
12.950000	1	13.112000
12.966667	1	11.891250
12.983333	1	10.519375
13.000000	1	9.134000
13.016667	1	7.834875
13.033333	1	6.674625
13.050000	1	5.672375
13.066667	1	4.826875
13.083333	1	4.124875
13.100000	1	3.550625
13.116667	1	3.087000
13.133333	1	2.715500
13.150000	1	2.420875
13.166667	1	2.187125
13.183333	1	2.002500
13.200000	1	1.855375
13.216667	1	1.737750
13.233333	1	1.642125
13.250000	1	1.563625
13.266667	1	1.497500
13.283333	1	1.441375
13.300000	1	1.392625
13.316667	1	1.349375
13.333333	1	1.310375
13.350000	1	1.275125
13.366667	1	1.243750
13.383333	1	1.214625
13.400000	1	1.188500
13.416667	1	1.165000
13.433333	1	1.145125
13.450000	1	1.127375
13.466667	1	1.112250
13.483333	1	1.100375
13.500000	1	1.091125
13.516667	1	1.083375
13.533333	1	1.077375
13.550000	1	1.073625
13.566667	1	1.070000
13.583333	1	1.066000
13.600000	1	1.060750
13.616667	1	1.054625
13.633333	1	1.046500
13.650000	1	1.036500
13.666667	1	1.023625
13.683333	1	1.008250
13.700000	1	0.991500
13.716667	1	0.973500
13.733333	1	0.954500
13.750000	1	0.935875
13.766667	1	0.916500
13.783333	1	0.897500
13.800000	1	0.878875
13.816667	1	0.861500
13.833333	1	0.844250
13.850000	1	0.828000
13.866667	1	0.812750
13.883333	1	0.798875
13.900000	1	0.785125
13.916667	1	0.772750
13.933333	1	0.760625
13.950000	1	0.749125
13.966667	1	0.738750
13.983333	1	0.729250
14.000000	1	0.720125
14.016667	1	0.711875
14.033333	1	0.704250
14.050000	1	0.697625
14.066667	1	0.691250
14.083333	1	0.684875
14.100000	1	0.678750
14.116667	1	0.673250
14.133333	1	0.668875
14.150000	1	0.664750
14.166667	1	0.661250
14.183333	1	0.658125
14.200000	1	0.656250
14.216667	1	0.654875
14.233333	1	0.654500
14.250000	1	0.654250
14.266667	1	0.654875
14.283333	1	0.655250
14.300000	1	0.657375
14.316667	1	0.660000
14.333333	1	0.663750
14.350000	1	0.668875
14.366667	1	0.674375
14.383333	1	0.681750
14.400000	1	0.691125
14.416667	1	0.702875
14.433333	1	0.718500
14.450000	1	0.741500
14.466667	1	0.774625
14.483333	1	0.826125
14.500000	1	0.906000
14.516667	1	1.032000
14.533333	1	1.228375
14.550000	1	1.527250
14.566667	1	1.970375
14.583333	1	2.610500
14.600000	1	3.507750
14.616667	1	4.731125
14.633333	1	6.352375
14.650000	1	8.439250
14.666667	1	11.042750
14.683333	1	14.190500
14.700000	1	17.874250
14.716667	1	22.041625
14.733333	1	26.594875
14.750000	1	31.389500
14.766667	1	36.241375
14.783333	1	40.933125
14.800000	1	45.246500
14.816667	1	48.969875
14.833333	1	51.920375
14.850000	1	53.956875
14.866667	1	54.999875
14.883333	1	55.031250
14.900000	1	54.100750
14.916667	1	52.312500
14.933333	1	49.811625
14.950000	1	46.765000
14.966667	1	43.350750
14.983333	1	39.736875
15.000000	1	36.068500
15.016667	1	32.462625
15.033333	1	29.007000
15.050000	1	25.764125
15.066667	1	22.772375
15.083333	1	20.051750
15.100000	1	17.605000
15.116667	1	15.425250
15.133333	1	13.493250
15.150000	1	11.789000
15.166667	1	10.291250
15.183333	1	8.980625
15.200000	1	7.835625
15.216667	1	6.836625
15.233333	1	5.966875
15.250000	1	5.214000
15.266667	1	4.565875
15.283333	1	4.010625
15.300000	1	3.539375
15.316667	1	3.143250
15.333333	1	2.813875
15.350000	1	2.544125
15.366667	1	2.326875
15.383333	1	2.154125
15.400000	1	2.020125
15.416667	1	1.916000
15.433333	1	1.836625
15.450000	1	1.774875
15.466667	1	1.726500
15.483333	1	1.685625
15.500000	1	1.648250
15.516667	1	1.611500
15.533333	1	1.574125
15.550000	1	1.534625
15.566667	1	1.494000
15.583333	1	1.452000
15.600000	1	1.409000
15.616667	1	1.366500
15.633333	1	1.324875
15.650000	1	1.284875
15.666667	1	1.247500
15.683333	1	1.212375
15.700000	1	1.179125
15.716667	1	1.148750
15.733333	1	1.120625
15.750000	1	1.093875
15.766667	1	1.068625
15.783333	1	1.044625
15.800000	1	1.022000
15.816667	1	1.000500
15.833333	1	0.979750
15.850000	1	0.960250
15.866667	1	0.942250
15.883333	1	0.926125
15.900000	1	0.912125
15.916667	1	0.900375
15.933333	1	0.889375
15.950000	1	0.880875
15.966667	1	0.874625
15.983333	1	0.870250
16.000000	1	0.868375
16.016667	1	0.867250
16.033333	1	0.868000
16.050000	1	0.868750
16.066667	1	0.870500
16.083333	1	0.872875
16.100000	1	0.875375
16.116667	1	0.877000
16.133333	1	0.879125
16.150000	1	0.880625
16.166667	1	0.881875
16.183333	1	0.883000
16.200000	1	0.881625
16.216667	1	0.880750
16.233333	1	0.878250
16.250000	1	0.874750
16.266667	1	0.870750
16.283333	1	0.865875
16.300000	1	0.860500
16.316667	1	0.854875
16.333333	1	0.849625
16.350000	1	0.844875
16.366667	1	0.840875
16.383333	1	0.839125
16.400000	1	0.837750
16.416667	1	0.837625
16.433333	1	0.839000
16.450000	1	0.842125
16.466667	1	0.845750
16.483333	1	0.849750
16.500000	1	0.853875
16.516667	1	0.857750
16.533333	1	0.860625
16.550000	1	0.862375
16.566667	1	0.862625
16.583333	1	0.861250
16.600000	1	0.858125
16.616667	1	0.854500
16.633333	1	0.849125
16.650000	1	0.843750
16.666667	1	0.838250
16.683333	1	0.833000
16.700000	1	0.830625
16.716667	1	0.829750
16.733333	1	0.830625
16.750000	1	0.833500
16.766667	1	0.838375
16.783333	1	0.845500
16.800000	1	0.854375
16.816667	1	0.863875
16.833333	1	0.874625
16.850000	1	0.885375
16.866667	1	0.895000
16.883333	1	0.903000
16.900000	1	0.910250
16.916667	1	0.915375
16.933333	1	0.919250
16.950000	1	0.921875
16.966667	1	0.922875
16.983333	1	0.922125
17.000000	1	0.920750
17.016667	1	0.919000
17.033333	1	0.916750
17.050000	1	0.914250
17.066667	1	0.912125
17.083333	1	0.911375
17.100000	1	0.910875
17.116667	1	0.912000
17.133333	1	0.914000
17.150000	1	0.915875
17.166667	1	0.919125
17.183333	1	0.923500
17.200000	1	0.928125
17.216667	1	0.933125
17.233333	1	0.938875
17.250000	1	0.945625
17.266667	1	0.952375
17.283333	1	0.959625
17.300000	1	0.967250
17.316667	1	0.975000
17.333333	1	0.982875
17.350000	1	0.991125
17.366667	1	0.999500
17.383333	1	1.006875
17.400000	1	1.013625
17.416667	1	1.018875
17.433333	1	1.023625
17.450000	1	1.028250
17.466667	1	1.030125
17.483333	1	1.030125
17.500000	1	1.028375
17.516667	1	1.024500
17.533333	1	1.019000
17.550000	1	1.012000
17.566667	1	1.003250
17.583333	1	0.992750
17.600000	1	0.981625
17.616667	1	0.968875
17.633333	1	0.954750
17.650000	1	0.940000
17.666667	1	0.924750
17.683333	1	0.909375
17.700000	1	0.893625
17.716667	1	0.878375
17.733333	1	0.862875
17.750000	1	0.847875
17.766667	1	0.833000
17.783333	1	0.819375
17.800000	1	0.806500
17.816667	1	0.794000
17.833333	1	0.782625
17.850000	1	0.772750
17.866667	1	0.763000
17.883333	1	0.754500
17.900000	1	0.746500
17.916667	1	0.738500
17.933333	1	0.731250
17.950000	1	0.724625
17.966667	1	0.718000
17.983333	1	0.711500
18.000000	1	0.705250
18.016667	1	0.699125
18.033333	1	0.693250
18.050000	1	0.687000
18.066667	1	0.681125
18.083333	1	0.675875
18.100000	1	0.671500
18.116667	1	0.667750
18.133333	1	0.664375
18.150000	1	0.662250
18.166667	1	0.661000
18.183333	1	0.659750
18.200000	1	0.659875
18.216667	1	0.660250
18.233333	1	0.661375
18.250000	1	0.662125
18.266667	1	0.663125
18.283333	1	0.663500
18.300000	1	0.664125
18.316667	1	0.665250
18.333333	1	0.666000
18.350000	1	0.667625
18.366667	1	0.669500
18.383333	1	0.671750
18.400000	1	0.675625
18.416667	1	0.680500
18.433333	1	0.686000
18.450000	1	0.693875
18.466667	1	0.703250
18.483333	1	0.714250
18.500000	1	0.727250
18.516667	1	0.742750
18.533333	1	0.759875
18.550000	1	0.779500
18.566667	1	0.801500
18.583333	1	0.825875
18.600000	1	0.851625
18.616667	1	0.879625
18.633333	1	0.909250
18.650000	1	0.940625
18.666667	1	0.973625
18.683333	1	1.008625
18.700000	1	1.043625
18.716667	1	1.079500
18.733333	1	1.115000
18.750000	1	1.152000
18.766667	1	1.188625
18.783333	1	1.224500
18.800000	1	1.258625
18.816667	1	1.290750
18.833333	1	1.319125
18.850000	1	1.343750
18.866667	1	1.364375
18.883333	1	1.378625
18.900000	1	1.388000
18.916667	1	1.390750
18.933333	1	1.386625
18.950000	1	1.376125
18.966667	1	1.358750
18.983333	1	1.334875
19.000000	1	1.305500
19.016667	1	1.271250
19.033333	1	1.232500
19.050000	1	1.189750
19.066667	1	1.145500
19.083333	1	1.100375
19.100000	1	1.056000
19.116667	1	1.014500
19.133333	1	0.975125
19.150000	1	0.941000
19.166667	1	0.913875
19.183333	1	0.895500
19.200000	1	0.887875
19.216667	1	0.892750
19.233333	1	0.912500
19.250000	1	0.948375
19.266667	1	1.002250
19.283333	1	1.075125
19.300000	1	1.167250
19.316667	1	1.280000
19.333333	1	1.411625
19.350000	1	1.560000
19.366667	1	1.723000
19.383333	1	1.897000
19.400000	1	2.076625
19.416667	1	2.258375
19.433333	1	2.434875
19.450000	1	2.600750
19.466667	1	2.751125
19.483333	1	2.879750
19.500000	1	2.984125
19.516667	1	3.060375
19.533333	1	3.108375
19.550000	1	3.126750
19.566667	1	3.116375
19.583333	1	3.078750
19.600000	1	3.017500
19.616667	1	2.935375
19.633333	1	2.836500
19.650000	1	2.724375
19.666667	1	2.602875
19.683333	1	2.476875
19.700000	1	2.346875
19.716667	1	2.216500
19.733333	1	2.088250
19.750000	1	1.962750
19.766667	1	1.842750
19.783333	1	1.726875
19.800000	1	1.616625
19.816667	1	1.512125
19.833333	1	1.413625
19.850000	1	1.321750
19.866667	1	1.235750
19.883333	1	1.156000
19.900000	1	1.082250
19.916667	1	1.014250
19.933333	1	0.951750
19.950000	1	0.895625
19.966667	1	0.845875
19.983333	1	0.802125
20.000000	1	0.764750
20.016667	1	0.734000
20.033333	1	0.710125
20.050000	1	0.693250
20.066667	1	0.684000
20.083333	1	0.682375
20.100000	1	0.688125
20.116667	1	0.700250
20.133333	1	0.718750
20.150000	1	0.743250
20.166667	1	0.772625
20.183333	1	0.804750
20.200000	1	0.839375
20.216667	1	0.874625
20.233333	1	0.908625
20.250000	1	0.939625
20.266667	1	0.966500
20.283333	1	0.988000
20.300000	1	1.003250
20.316667	1	1.011375
20.333333	1	1.011875
20.350000	1	1.005250
20.366667	1	0.991625
20.383333	1	0.971625
20.400000	1	0.945750
20.416667	1	0.915250
20.433333	1	0.881625
20.450000	1	0.846875
20.466667	1	0.811500
20.483333	1	0.776375
20.500000	1	0.742875
20.516667	1	0.712375
20.533333	1	0.686500
20.550000	1	0.665125
20.566667	1	0.649625
20.583333	1	0.640500
20.600000	1	0.639250
20.616667	1	0.647375
20.633333	1	0.664125
20.650000	1	0.690125
20.666667	1	0.725875
20.683333	1	0.771000
20.700000	1	0.825375
20.716667	1	0.888375
20.733333	1	0.958875
20.750000	1	1.035250
20.766667	1	1.116000
20.783333	1	1.197625
20.800000	1	1.277875
20.816667	1	1.354750
20.833333	1	1.424875
20.850000	1	1.484875
20.866667	1	1.534375
20.883333	1	1.570250
20.900000	1	1.593500
20.916667	1	1.602250
20.933333	1	1.596250
20.950000	1	1.576875
20.966667	1	1.544875
20.983333	1	1.502375
21.000000	1	1.450500
21.016667	1	1.391375
21.033333	1	1.327625
21.050000	1	1.261000
21.066667	1	1.194125
21.083333	1	1.126750
21.100000	1	1.061875
21.116667	1	0.998750
21.133333	1	0.938625
21.150000	1	0.882500
21.166667	1	0.829500
21.183333	1	0.781125
21.200000	1	0.737000
21.216667	1	0.696375
21.233333	1	0.659625
21.250000	1	0.626750
21.266667	1	0.596625
21.283333	1	0.570000
21.300000	1	0.546125
21.316667	1	0.524125
21.333333	1	0.504500
21.350000	1	0.487125
21.366667	1	0.471500
21.383333	1	0.457500
21.400000	1	0.444750
21.416667	1	0.433125
21.433333	1	0.422250
21.450000	1	0.413500
21.466667	1	0.404375
21.483333	1	0.396750
21.500000	1	0.390125
21.516667	1	0.384750
21.533333	1	0.379750
21.550000	1	0.376000
21.566667	1	0.372875
21.583333	1	0.370500
21.600000	1	0.369500
21.616667	1	0.369375
21.633333	1	0.371125
21.650000	1	0.374375
21.666667	1	0.378875
21.683333	1	0.384875
21.700000	1	0.392375
21.716667	1	0.401750
21.733333	1	0.412875
21.750000	1	0.425375
21.766667	1	0.438750
21.783333	1	0.452875
21.800000	1	0.468250
21.816667	1	0.483250
21.833333	1	0.499375
21.850000	1	0.515625
21.866667	1	0.531125
21.883333	1	0.546000
21.900000	1	0.559750
21.916667	1	0.571750
21.933333	1	0.582750
21.950000	1	0.592375
21.966667	1	0.600625
21.983333	1	0.606625
22.000000	1	0.611000
22.016667	1	0.614375
22.033333	1	0.615750
22.050000	1	0.616625
22.066667	1	0.616125
22.083333	1	0.615000
22.100000	1	0.612875
22.116667	1	0.610000
22.133333	1	0.606125
22.150000	1	0.601625
22.166667	1	0.595750
22.183333	1	0.589875
22.200000	1	0.582250
22.216667	1	0.574125
22.233333	1	0.565000
22.250000	1	0.554875
22.266667	1	0.544625
22.283333	1	0.533125
22.300000	1	0.521000
22.316667	1	0.508250
22.333333	1	0.495125
22.350000	1	0.481625
22.366667	1	0.468250
22.383333	1	0.454625
22.400000	1	0.441500
22.416667	1	0.427875
22.433333	1	0.415375
22.450000	1	0.403250
22.466667	1	0.392375
22.483333	1	0.381625
22.500000	1	0.371000
22.516667	1	0.361250
22.533333	1	0.352875
22.550000	1	0.344125
22.566667	1	0.336500
22.583333	1	0.329000
22.600000	1	0.322750
22.616667	1	0.316875
22.633333	1	0.311125
22.650000	1	0.305875
22.666667	1	0.300625
22.683333	1	0.296375
22.700000	1	0.292000
22.716667	1	0.288750
22.733333	1	0.285500
22.750000	1	0.281625
22.766667	1	0.278625
22.783333	1	0.276000
22.800000	1	0.273125
22.816667	1	0.270250
22.833333	1	0.267750
22.850000	1	0.265500
22.866667	1	0.263250
22.883333	1	0.261875
22.900000	1	0.260750
22.916667	1	0.259875
22.933333	1	0.259250
22.950000	1	0.258875
22.966667	1	0.258750
22.983333	1	0.259000
23.000000	1	0.259625
23.016667	1	0.259125
23.033333	1	0.259125
23.050000	1	0.260250
23.066667	1	0.261375
23.083333	1	0.262250
23.100000	1	0.262625
23.116667	1	0.263625
23.133333	1	0.265250
23.150000	1	0.266125
23.166667	1	0.267375
23.183333	1	0.268375
23.200000	1	0.268750
23.216667	1	0.269375
23.233333	1	0.270625
23.250000	1	0.272000
23.266667	1	0.273250
23.283333	1	0.275500
23.300000	1	0.279625
23.316667	1	0.285250
23.333333	1	0.292875
23.350000	1	0.304500
23.366667	1	0.320625
23.383333	1	0.342875
23.400000	1	0.372500
23.416667	1	0.411625
23.433333	1	0.463250
23.450000	1	0.530375
23.466667	1	0.614625
23.483333	1	0.720250
23.500000	1	0.849875
23.516667	1	1.008375
23.533333	1	1.198500
23.550000	1	1.422625
23.566667	1	1.683625
23.583333	1	1.982875
23.600000	1	2.319500
23.616667	1	2.693875
23.633333	1	3.102500
23.650000	1	3.541000
23.666667	1	4.003500
23.683333	1	4.484375
23.700000	1	4.974000
23.716667	1	5.463125
23.733333	1	5.940500
23.750000	1	6.396000
23.766667	1	6.818375
23.783333	1	7.196750
23.800000	1	7.523375
23.816667	1	7.791000
23.833333	1	7.993375
23.850000	1	8.127625
23.866667	1	8.192750
23.883333	1	8.189000
23.900000	1	8.119250
23.916667	1	7.987625
23.933333	1	7.800000
23.950000	1	7.563125
23.966667	1	7.286000
23.983333	1	6.975000
24.000000	1	6.638625
24.016667	1	6.286250
24.033333	1	5.923750
24.050000	1	5.557625
24.066667	1	5.194375
24.083333	1	4.837500
24.100000	1	4.491125
24.116667	1	4.157750
24.133333	1	3.839625
24.150000	1	3.538375
24.166667	1	3.255000
24.183333	1	2.989375
24.200000	1	2.741875
24.216667	1	2.512375
24.233333	1	2.299500
24.250000	1	2.102875
24.266667	1	1.921875
24.283333	1	1.755625
24.300000	1	1.603250
24.316667	1	1.463375
24.333333	1	1.336375
24.350000	1	1.220125
24.366667	1	1.114875
24.383333	1	1.020500
24.400000	1	0.935625
24.416667	1	0.859375
24.433333	1	0.791500
24.450000	1	0.731625
24.466667	1	0.678375
24.483333	1	0.632250
24.500000	1	0.592250
24.516667	1	0.556750
24.533333	1	0.525500
24.550000	1	0.497500
24.566667	1	0.474000
24.583333	1	0.453125
24.600000	1	0.434875
24.616667	1	0.418750
24.633333	1	0.404750
24.650000	1	0.392125
24.666667	1	0.380750
24.683333	1	0.370625
24.700000	1	0.360375
24.716667	1	0.351125
24.733333	1	0.342375
24.750000	1	0.334000
24.766667	1	0.325750
24.783333	1	0.318375
24.800000	1	0.311250
24.816667	1	0.304625
24.833333	1	0.298625
24.850000	1	0.293250
24.866667	1	0.288125
24.883333	1	0.282875
24.900000	1	0.279000
24.916667	1	0.274875
24.933333	1	0.271250
24.950000	1	0.268500
24.966667	1	0.266000
24.983333	1	0.264875
25.000000	1	0.263500
25.016667	1	0.262750
25.033333	1	0.262125
25.050000	1	0.263375
25.066667	1	0.264125
25.083333	1	0.265250
25.100000	1	0.267625
25.116667	1	0.269875
25.133333	1	0.273125
25.150000	1	0.275500
25.166667	1	0.277625
25.183333	1	0.280000
25.200000	1	0.283250
25.216667	1	0.284875
25.233333	1	0.287625
25.250000	1	0.289375
25.266667	1	0.290750
25.283333	1	0.292125
25.300000	1	0.292625
25.316667	1	0.293375
25.333333	1	0.293625
25.350000	1	0.292875
25.366667	1	0.292250
25.383333	1	0.291125
25.400000	1	0.289500
25.416667	1	0.288500
25.433333	1	0.287125
25.450000	1	0.285500
25.466667	1	0.283875
25.483333	1	0.282625
25.500000	1	0.281500
25.516667	1	0.281000
25.533333	1	0.279750
25.550000	1	0.279250
25.566667	1	0.278625
25.583333	1	0.278250
25.600000	1	0.277125
25.616667	1	0.277000
25.633333	1	0.277000
25.650000	1	0.277375
25.666667	1	0.277375
25.683333	1	0.278125
25.700000	1	0.278125
25.716667	1	0.278750
25.733333	1	0.279000
25.750000	1	0.278875
25.766667	1	0.278750
25.783333	1	0.278375
25.800000	1	0.277625
25.816667	1	0.277250
25.833333	1	0.277375
25.850000	1	0.277125
25.866667	1	0.277000
25.883333	1	0.277750
25.900000	1	0.277875
25.916667	1	0.278500
25.933333	1	0.279375
25.950000	1	0.280875
25.966667	1	0.281875
25.983333	1	0.283375
26.000000	1	0.285250
26.016667	1	0.287500
26.033333	1	0.289875
26.050000	1	0.292625
26.066667	1	0.296125
26.083333	1	0.300000
26.100000	1	0.304125
26.116667	1	0.308500
26.133333	1	0.312875
26.150000	1	0.318375
26.166667	1	0.323000
26.183333	1	0.328250
26.200000	1	0.333875
26.216667	1	0.339125
26.233333	1	0.344000
26.250000	1	0.349750
26.266667	1	0.354750
26.283333	1	0.359625
26.300000	1	0.363750
26.316667	1	0.368000
26.333333	1	0.371250
26.350000	1	0.373875
26.366667	1	0.375500
26.383333	1	0.377125
26.400000	1	0.377875
26.416667	1	0.378125
26.433333	1	0.377125
26.450000	1	0.376500
26.466667	1	0.374500
26.483333	1	0.372625
26.500000	1	0.370125
26.516667	1	0.366750
26.533333	1	0.362625
26.550000	1	0.358500
26.566667	1	0.353875
26.583333	1	0.349000
26.600000	1	0.344625
26.616667	1	0.339375
26.633333	1	0.334625
26.650000	1	0.328750
26.666667	1	0.323250
26.683333	1	0.318125
26.700000	1	0.313000
26.716667	1	0.307625
26.733333	1	0.302625
26.750000	1	0.297500
26.766667	1	0.292500
26.783333	1	0.288125
26.800000	1	0.283125
26.816667	1	0.278125
26.833333	1	0.273875
26.850000	1	0.270000
26.866667	1	0.266125
26.883333	1	0.262625
26.900000	1	0.259000
26.916667	1	0.256125
26.933333	1	0.253125
26.950000	1	0.250625
26.966667	1	0.247250
26.983333	1	0.245125
27.000000	1	0.241750
27.016667	1	0.240625
27.033333	1	0.238250
27.050000	1	0.236875
27.066667	1	0.235250
27.083333	1	0.234250
27.100000	1	0.233875
27.116667	1	0.234500
27.133333	1	0.234375
27.150000	1	0.236250
27.166667	1	0.238500
27.183333	1	0.240875
27.200000	1	0.244500
27.216667	1	0.249000
27.233333	1	0.255000
27.250000	1	0.261875
27.266667	1	0.271250
27.283333	1	0.281500
27.300000	1	0.295125
27.316667	1	0.311000
27.333333	1	0.331125
27.350000	1	0.354250
27.366667	1	0.382875
27.383333	1	0.415750
27.400000	1	0.454625
27.416667	1	0.500875
27.433333	1	0.554750
27.450000	1	0.616375
27.466667	1	0.688250
27.483333	1	0.770250
27.500000	1	0.862750
27.516667	1	0.966375
27.533333	1	1.081250
27.550000	1	1.207750
27.566667	1	1.346625
27.583333	1	1.496500
27.600000	1	1.658000
27.616667	1	1.828750
27.633333	1	2.008000
27.650000	1	2.195500
27.666667	1	2.387500
27.683333	1	2.583500
27.700000	1	2.779875
27.716667	1	2.974250
27.733333	1	3.162125
27.750000	1	3.341500
27.766667	1	3.509000
27.783333	1	3.662125
27.800000	1	3.798750
27.816667	1	3.916250
27.833333	1	4.012250
27.850000	1	4.084250
27.866667	1	4.132375
27.883333	1	4.154250
27.900000	1	4.150250
27.916667	1	4.121500
27.933333	1	4.068250
27.950000	1	3.992375
27.966667	1	3.896000
27.983333	1	3.781625
28.000000	1	3.650375
28.016667	1	3.506250
28.033333	1	3.352125
28.050000	1	3.189500
28.066667	1	3.021750
28.083333	1	2.851875
28.100000	1	2.681750
28.116667	1	2.513125
28.133333	1	2.348500
28.150000	1	2.188125
28.166667	1	2.034375
28.183333	1	1.887875
28.200000	1	1.749375
28.216667	1	1.619125
28.233333	1	1.496750
28.250000	1	1.383250
28.266667	1	1.277250
28.283333	1	1.179625
28.300000	1	1.089750
28.316667	1	1.007625
28.333333	1	0.933250
28.350000	1	0.866125
28.366667	1	0.804625
28.383333	1	0.748750
28.400000	1	0.698875
28.416667	1	0.653875
28.433333	1	0.614000
28.450000	1	0.579125
28.466667	1	0.548125
28.483333	1	0.521250
28.500000	1	0.498250
28.516667	1	0.479125
28.533333	1	0.463250
28.550000	1	0.450000
28.566667	1	0.440125
28.583333	1	0.432625
28.600000	1	0.428625
28.616667	1	0.426750
28.633333	1	0.426625
28.650000	1	0.427500
28.666667	1	0.430625
28.683333	1	0.435500
28.700000	1	0.442000
28.716667	1	0.448125
28.733333	1	0.456125
28.750000	1	0.463875
28.766667	1	0.472375
28.783333	1	0.481375
28.800000	1	0.490500
28.816667	1	0.498750
28.833333	1	0.507500
28.850000	1	0.515625
28.866667	1	0.523875
28.883333	1	0.530750
28.900000	1	0.537125
28.916667	1	0.542375
28.933333	1	0.546250
28.950000	1	0.549500
28.966667	1	0.551375
28.983333	1	0.552500
29.000000	1	0.552250
29.016667	1	0.550625
29.033333	1	0.547625
29.050000	1	0.543000
29.066667	1	0.537125
29.083333	1	0.529875
29.100000	1	0.520625
29.116667	1	0.509625
29.133333	1	0.497000
29.150000	1	0.482750
29.166667	1	0.466875
29.183333	1	0.448625
29.200000	1	0.428625
29.216667	1	0.407500
29.233333	1	0.382875
29.250000	1	0.356875
29.266667	1	0.329875
29.283333	1	0.299875
29.300000	1	0.267875
29.316667	1	0.234000
29.333333	1	0.198125
29.350000	1	0.159500
29.366667	1	0.119875
29.383333	1	0.078500
29.400000	1	0.034875
29.416667	1	-0.010000
29.433333	1	-0.056375
29.450000	1	-0.104375
29.466667	1	-0.152875
29.483333	1	-0.201750
29.500000	1	-0.251000
29.516667	1	-0.299750
29.533333	1	-0.348750
29.550000	1	-0.395875
29.566667	1	-0.442000
29.583333	1	-0.486500
29.600000	1	-0.529125
29.616667	1	-0.568500
29.633333	1	-0.606250
29.650000	1	-0.640375
29.666667	1	-0.671625
29.683333	1	-0.699125
29.700000	1	-0.722250
29.716667	1	-0.741875
29.733333	1	-0.756500
29.750000	1	-0.767750
29.766667	1	-0.774625
29.783333	1	-0.777625
29.800000	1	-0.776250
29.816667	1	-0.770625
29.833333	1	-0.761875
29.850000	1	-0.749625
29.866667	1	-0.734125
29.883333	1	-0.716375
29.900000	1	-0.695875
29.916667	1	-0.672625
29.933333	1	-0.648625
29.950000	1	-0.622125
29.966667	1	-0.593500
29.983333	1	-0.565000
30.000000	1	-0.535375
30.016667	1	-0.505500
30.033333	1	-0.475375
30.050000	1	-0.445375
30.066667	1	-0.415000
30.083333	1	-0.386000
30.100000	1	-0.357125
30.116667	1	-0.329375
30.133333	1	-0.302250
30.150000	1	-0.276125
30.166667	1	-0.251125
30.183333	1	-0.227750
30.200000	1	-0.204500
30.216667	1	-0.182250
30.233333	1	-0.161625
30.250000	1	-0.142125
30.266667	1	-0.123750
30.283333	1	-0.106375
30.300000	1	-0.089750
30.316667	1	-0.074125
30.333333	1	-0.059375
30.350000	1	-0.045375
30.366667	1	-0.032625
30.383333	1	-0.020750
30.400000	1	-0.009625
30.416667	1	0.000500
30.433333	1	0.010125
30.450000	1	0.019625
30.466667	1	0.028625
30.483333	1	0.037625
30.500000	1	0.045625
30.516667	1	0.053250
30.533333	1	0.060625
30.550000	1	0.068000
30.566667	1	0.074875
30.583333	1	0.082625
30.600000	1	0.090250
30.616667	1	0.098125
30.633333	1	0.106000
30.650000	1	0.114000
30.666667	1	0.122500
30.683333	1	0.130375
30.700000	1	0.139250
30.716667	1	0.148125
30.733333	1	0.157500
30.750000	1	0.166875
30.766667	1	0.176375
30.783333	1	0.186250
30.800000	1	0.196625
30.816667	1	0.207250
30.833333	1	0.218875
30.850000	1	0.230125
30.866667	1	0.241500
30.883333	1	0.253375
30.900000	1	0.266500
30.916667	1	0.279875
30.933333	1	0.293875
30.950000	1	0.309125
30.966667	1	0.326375
30.983333	1	0.345125
31.000000	1	0.365625
31.016667	1	0.389750
31.033333	1	0.416750
31.050000	1	0.447875
31.066667	1	0.482625
31.083333	1	0.523125
31.100000	1	0.569500
31.116667	1	0.623250
31.133333	1	0.684000
31.150000	1	0.754500
31.166667	1	0.834125
31.183333	1	0.924500
31.200000	1	1.025500
31.216667	1	1.139375
31.233333	1	1.265250
31.250000	1	1.404625
31.266667	1	1.556625
31.283333	1	1.721375
31.300000	1	1.899375
31.316667	1	2.089625
31.333333	1	2.291000
31.350000	1	2.502375
31.366667	1	2.722875
31.383333	1	2.949500
31.400000	1	3.181750
31.416667	1	3.416125
31.433333	1	3.650250
31.450000	1	3.881000
31.466667	1	4.105000
31.483333	1	4.319875
31.500000	1	4.523500
31.516667	1	4.712750
31.533333	1	4.885000
31.550000	1	5.038375
31.566667	1	5.170250
31.583333	1	5.279125
31.600000	1	5.364750
31.616667	1	5.425625
31.633333	1	5.460875
31.650000	1	5.470125
31.666667	1	5.454125
31.683333	1	5.414375
31.700000	1	5.351250
31.716667	1	5.267625
31.733333	1	5.163375
31.750000	1	5.042000
31.766667	1	4.904000
31.783333	1	4.752750
31.800000	1	4.588250
31.816667	1	4.414500
31.833333	1	4.233750
31.850000	1	4.047250
31.866667	1	3.858750
31.883333	1	3.668750
31.900000	1	3.478375
31.916667	1	3.290625
31.933333	1	3.105500
31.950000	1	2.924125
31.966667	1	2.748250
31.983333	1	2.577625
32.000000	1	2.413125
32.016667	1	2.255250
32.033333	1	2.103625
32.050000	1	1.959500
32.066667	1	1.823000
32.083333	1	1.693750
32.100000	1	1.571250
32.116667	1	1.455875
32.133333	1	1.347500
32.150000	1	1.245750
32.166667	1	1.149875
32.183333	1	1.060500
32.200000	1	0.976875
32.216667	1	0.899000
32.233333	1	0.826125
32.250000	1	0.757625
32.266667	1	0.694750
32.283333	1	0.637000
32.300000	1	0.582125
32.316667	1	0.531500
32.333333	1	0.484000
32.350000	1	0.441750
32.366667	1	0.401625
32.383333	1	0.364625
32.400000	1	0.330375
32.416667	1	0.299625
32.433333	1	0.271000
32.450000	1	0.244875
32.466667	1	0.220250
32.483333	1	0.198000
32.500000	1	0.177375
32.516667	1	0.159125
32.533333	1	0.142125
32.550000	1	0.126875
32.566667	1	0.112625
32.583333	1	0.099875
32.600000	1	0.088500
32.616667	1	0.077875
32.633333	1	0.068375
32.650000	1	0.059875
32.666667	1	0.052625
32.683333	1	0.046000
32.700000	1	0.039625
32.716667	1	0.034000
32.733333	1	0.029750
32.750000	1	0.025500
32.766667	1	0.022375
32.783333	1	0.020000
32.800000	1	0.017625
32.816667	1	0.015750
32.833333	1	0.014750
32.850000	1	0.013375
32.866667	1	0.011875
32.883333	1	0.011250
32.900000	1	0.011500
32.916667	1	0.011625
32.933333	1	0.011625
32.950000	1	0.011625
32.966667	1	0.012500
32.983333	1	0.013500
33.000000	1	0.014125
33.016667	1	0.014750
33.033333	1	0.015500
33.050000	1	0.016375
33.066667	1	0.016250
33.083333	1	0.017125
33.100000	1	0.017875
33.116667	1	0.018750
33.133333	1	0.019750
33.150000	1	0.021375
33.166667	1	0.022625
33.183333	1	0.023875
33.200000	1	0.024875
33.216667	1	0.026000
33.233333	1	0.026500
33.250000	1	0.027750
33.266667	1	0.029000
33.283333	1	0.030750
33.300000	1	0.032250
33.316667	1	0.033250
33.333333	1	0.034125
33.350000	1	0.035625
33.366667	1	0.037375
33.383333	1	0.038000
33.400000	1	0.039875
33.416667	1	0.041625
33.433333	1	0.043250
33.450000	1	0.044250
33.466667	1	0.045500
33.483333	1	0.047625
33.500000	1	0.048625
33.516667	1	0.050375
33.533333	1	0.052875
33.550000	1	0.054125
33.566667	1	0.056625
33.583333	1	0.058250
33.600000	1	0.060875
33.616667	1	0.062125
33.633333	1	0.063625
33.650000	1	0.065375
33.666667	1	0.067625
33.683333	1	0.069125
33.700000	1	0.070250
33.716667	1	0.072375
33.733333	1	0.074250
33.750000	1	0.076000
33.766667	1	0.078000
33.783333	1	0.079625
33.800000	1	0.080875
33.816667	1	0.082500
33.833333	1	0.083500
33.850000	1	0.084375
33.866667	1	0.085125
33.883333	1	0.086375
33.900000	1	0.087125
33.916667	1	0.088000
33.933333	1	0.089125
33.950000	1	0.089625
33.966667	1	0.089875
33.983333	1	0.090125
34.000000	1	0.089750
34.016667	1	0.089250
34.033333	1	0.089375
34.050000	1	0.089500
34.066667	1	0.089375
34.083333	1	0.089125
34.100000	1	0.089125
34.116667	1	0.088375
34.133333	1	0.088000
34.150000	1	0.087875
34.166667	1	0.087500
34.183333	1	0.086375
34.200000	1	0.086625
34.216667	1	0.086375
34.233333	1	0.085750
34.250000	1	0.086000
34.266667	1	0.085250
34.283333	1	0.084875
34.300000	1	0.085250
34.316667	1	0.085625
34.333333	1	0.086250
34.350000	1	0.087125
34.366667	1	0.087250
34.383333	1	0.087750
34.400000	1	0.088000
34.416667	1	0.090000
34.433333	1	0.090500
34.450000	1	0.091625
34.466667	1	0.092250
34.483333	1	0.093625
34.500000	1	0.094875
34.516667	1	0.096875
34.533333	1	0.098125
34.550000	1	0.100000
34.566667	1	0.102000
34.583333	1	0.103250
34.600000	1	0.104500
34.616667	1	0.106125
34.633333	1	0.107375
34.650000	1	0.109250
34.666667	1	0.110750
34.683333	1	0.111625
34.700000	1	0.112125
34.716667	1	0.113250
34.733333	1	0.114750
34.750000	1	0.115375
34.766667	1	0.116000
34.783333	1	0.116375
34.800000	1	0.116250
34.816667	1	0.116000
34.833333	1	0.116000
34.850000	1	0.115625
34.866667	1	0.115250
34.883333	1	0.114625
34.900000	1	0.113625
34.916667	1	0.112375
34.933333	1	0.111250
34.950000	1	0.109000
34.966667	1	0.107875
34.983333	1	0.106250
35.000000	1	0.104375
35.016667	1	0.102750
35.033333	1	0.099875
35.050000	1	0.097750
35.066667	1	0.095500
35.083333	1	0.094000
35.100000	1	0.092250
35.116667	1	0.090625
35.133333	1	0.089125
35.150000	1	0.087125
35.166667	1	0.085750
35.183333	1	0.084000
35.200000	1	0.081750
35.216667	1	0.080125
35.233333	1	0.078875
35.250000	1	0.077750
35.266667	1	0.076500
35.283333	1	0.075875
35.300000	1	0.074625
35.316667	1	0.073625
35.333333	1	0.073125
35.350000	1	0.072875
35.366667	1	0.072125
35.383333	1	0.072125
35.400000	1	0.072125
35.416667	1	0.072000
35.433333	1	0.072000
35.450000	1	0.072000
35.466667	1	0.072125
35.483333	1	0.072500
35.500000	1	0.073125
35.516667	1	0.074250
35.533333	1	0.075250
35.550000	1	0.075750
35.566667	1	0.077000
35.583333	1	0.077375
35.600000	1	0.078125
35.616667	1	0.079125
35.633333	1	0.080500
35.650000	1	0.081125
35.666667	1	0.082000
35.683333	1	0.083125
35.700000	1	0.084750
35.716667	1	0.086375
35.733333	1	0.087625
35.750000	1	0.089375
35.766667	1	0.090875
35.783333	1	0.092250
35.800000	1	0.093375
35.816667	1	0.094875
35.833333	1	0.096125
35.850000	1	0.097750
35.866667	1	0.099000
35.883333	1	0.100875
35.900000	1	0.102000
35.916667	1	0.102250
35.933333	1	0.103250
35.950000	1	0.104250
35.966667	1	0.105750
35.983333	1	0.106500
36.000000	1	0.107000
36.016667	1	0.108000
36.033333	1	0.109125
36.050000	1	0.109750
36.066667	1	0.109500
36.083333	1	0.109875
36.100000	1	0.110625
36.116667	1	0.110625
36.133333	1	0.110750
36.150000	1	0.111500
36.166667	1	0.111750
36.183333	1	0.112125
36.200000	1	0.112250
36.216667	1	0.111625
36.233333	1	0.111625
36.250000	1	0.112375
36.266667	1	0.112125
36.283333	1	0.112125
36.300000	1	0.113000
36.316667	1	0.113375
36.333333	1	0.113750
36.350000	1	0.113625
36.366667	1	0.114375
36.383333	1	0.114500
36.400000	1	0.114500
36.416667	1	0.115000
36.433333	1	0.115125
36.450000	1	0.114375
36.466667	1	0.113875
36.483333	1	0.114125
36.500000	1	0.113875
36.516667	1	0.114125
36.533333	1	0.113375
36.550000	1	0.113000
36.566667	1	0.112875
36.583333	1	0.112875
36.600000	1	0.111625
36.616667	1	0.111000
36.633333	1	0.110000
36.650000	1	0.109250
36.666667	1	0.107875
36.683333	1	0.106875
36.700000	1	0.105750
36.716667	1	0.104750
36.733333	1	0.103750
36.750000	1	0.102000
36.766667	1	0.100750
36.783333	1	0.099375
36.800000	1	0.097375
36.816667	1	0.095500
36.833333	1	0.094125
36.850000	1	0.093125
36.866667	1	0.092125
36.883333	1	0.090375
36.900000	1	0.089750
36.916667	1	0.088625
36.933333	1	0.087500
36.950000	1	0.085750
36.966667	1	0.084375
36.983333	1	0.082875
37.000000	1	0.081750
37.016667	1	0.080625
37.033333	1	0.079375
37.050000	1	0.077625
37.066667	1	0.076000
37.083333	1	0.075750
37.100000	1	0.074875
37.116667	1	0.073750
37.133333	1	0.073000
37.150000	1	0.072125
37.166667	1	0.071625
37.183333	1	0.069875
37.200000	1	0.069375
37.216667	1	0.069375
37.233333	1	0.068750
37.250000	1	0.068625
37.266667	1	0.068500
37.283333	1	0.068625
37.300000	1	0.068125
37.316667	1	0.067125
37.333333	1	0.066125
37.350000	1	0.065375
37.366667	1	0.065000
37.383333	1	0.064750
37.400000	1	0.063500
37.416667	1	0.062625
37.433333	1	0.061750
37.450000	1	0.062125
37.466667	1	0.061250
37.483333	1	0.060500
37.500000	1	0.060000
37.516667	1	0.059000
37.533333	1	0.058000
37.550000	1	0.056250
37.566667	1	0.055250
37.583333	1	0.054375
37.600000	1	0.053250
37.616667	1	0.051500
37.633333	1	0.050250
37.650000	1	0.049250
37.666667	1	0.047375
37.683333	1	0.045125
37.700000	1	0.043375
37.716667	1	0.041750
37.733333	1	0.039750
37.750000	1	0.037500
37.766667	1	0.035125
37.783333	1	0.032000
37.800000	1	0.029375
37.816667	1	0.027125
37.833333	1	0.024500
37.850000	1	0.021750
37.866667	1	0.018500
37.883333	1	0.015375
37.900000	1	0.011875
37.916667	1	0.009375
37.933333	1	0.006375
37.950000	1	0.003250
37.966667	1	0.000125
37.983333	1	-0.002500
38.000000	1	-0.006375
38.016667	1	-0.009500
38.033333	1	-0.012625
38.050000	1	-0.014500
38.066667	1	-0.017500
38.083333	1	-0.020375
38.100000	1	-0.023125
38.116667	1	-0.026125
38.133333	1	-0.028875
38.150000	1	-0.031500
38.166667	1	-0.033875
38.183333	1	-0.036125
38.200000	1	-0.038375
38.216667	1	-0.041000
38.233333	1	-0.042750
38.250000	1	-0.045250
38.266667	1	-0.047250
38.283333	1	-0.049750
38.300000	1	-0.050750
38.316667	1	-0.051750
38.333333	1	-0.052125
38.350000	1	-0.052375
38.366667	1	-0.052875
38.383333	1	-0.053500
38.400000	1	-0.053250
38.416667	1	-0.052750
38.433333	1	-0.052375
38.450000	1	-0.052250
38.466667	1	-0.051250
38.483333	1	-0.050000
38.500000	1	-0.047875
38.516667	1	-0.046000
38.533333	1	-0.044250
38.550000	1	-0.042000
38.566667	1	-0.040375
38.583333	1	-0.038250
38.600000	1	-0.035750
38.616667	1	-0.032625
38.633333	1	-0.029875
38.650000	1	-0.026875
38.666667	1	-0.023500
38.683333	1	-0.019750
38.700000	1	-0.016000
38.716667	1	-0.012875
38.733333	1	-0.008875
38.750000	1	-0.005125
38.766667	1	-0.001375
38.783333	1	0.003125
38.800000	1	0.006625
38.816667	1	0.010500
38.833333	1	0.014000
38.850000	1	0.018000
38.866667	1	0.022375
38.883333	1	0.026000
38.900000	1	0.029250
38.916667	1	0.033375
38.933333	1	0.037000
38.950000	1	0.040500
38.966667	1	0.044500
38.983333	1	0.048500
39.000000	1	0.051375
39.016667	1	0.053875
39.033333	1	0.056125
39.050000	1	0.058750
39.066667	1	0.061000
39.083333	1	0.062875
39.100000	1	0.064500
39.116667	1	0.066750
39.133333	1	0.068500
39.150000	1	0.069625
39.166667	1	0.070625
39.183333	1	0.070750
39.200000	1	0.070875
39.216667	1	0.070750
39.233333	1	0.070250
39.250000	1	0.070125
39.266667	1	0.069250
39.283333	1	0.068375
39.300000	1	0.066375
39.316667	1	0.064625
39.333333	1	0.062875
39.350000	1	0.060625
39.366667	1	0.058000
39.383333	1	0.055625
39.400000	1	0.053750
39.416667	1	0.051250
39.433333	1	0.047875
39.450000	1	0.045750
39.466667	1	0.043125
39.483333	1	0.040750
39.500000	1	0.038375
39.516667	1	0.035375
39.533333	1	0.032875
39.550000	1	0.029625
39.566667	1	0.026875
39.583333	1	0.024250
39.600000	1	0.021250
39.616667	1	0.018375
39.633333	1	0.016125
39.650000	1	0.014375
39.666667	1	0.012375
39.683333	1	0.010375
39.700000	1	0.008875
39.716667	1	0.006500
39.733333	1	0.005500
39.750000	1	0.003750
39.766667	1	0.002250
39.783333	1	0.000750
39.800000	1	-0.000125
39.816667	1	-0.001500
39.833333	1	-0.001875
39.850000	1	-0.003125
39.866667	1	-0.004125
39.883333	1	-0.005000
39.900000	1	-0.006625
39.916667	1	-0.007625
39.933333	1	-0.009375
39.950000	1	-0.011000
39.966667	1	-0.011625
39.983333	1	-0.012625
40.000000	1	-0.013750
