URL	chrom://7040-86g6c92/XVault/Ultimate_3000/20/20240517_CMO_FP23_FP25_MarkusDeplate.seq/697.smp/RI_1.channel/RI_1.chm
Channel	RI_1

Injection Information:
Data Vault	XVault
Sequence	20240517_CMO_FP23_FP25_MarkusDeplate
Name	FP23_19.2_s2
Number	32
Position	BC8
Comment	
Processing Method	
Instrument Method	run_25B_method
Type	Unknown
Status	Finished
Inject Time	28.05.2024 15:12:25 +02:00
Volume (µl)	20.0000
Dilution Factor	1.0000
Weight	1.0000

Chromatogram Data Information:
Time Min. (min)	0.000000
Time Max. (min)	40.000000
Data Points	2401
Detector	RI
Generating Data System	Chromeleon 7.3.2.11814
Exporting Data System	Chromeleon 7.3.2.0
Operator	Instrument Controller
Signal Quantity	Refractive 
Signal Unit	µRIU
Signal Min.	-1.189250
Signal Max.	66.452750
Channel	RI_1
Driver Name	RID520Driver.dll
Channel Type	Evaluation
Min. Step (s)	1
Max. Step (s)	1
Average Step (s)	1

Signal Parameter Information:
Signal Info	

Chromatogram Data:
Time (min)	Step (s)	Value (µRIU)
0.000000	n.a.	0.012000
0.016667	1	0.013500
0.033333	1	0.014625
0.050000	1	0.015750
0.066667	1	0.017375
0.083333	1	0.018625
0.100000	1	0.019500
0.116667	1	0.020750
0.133333	1	0.021000
0.150000	1	0.021500
0.166667	1	0.021250
0.183333	1	0.021375
0.200000	1	0.020375
0.216667	1	0.020875
0.233333	1	0.020375
0.250000	1	0.020250
0.266667	1	0.018875
0.283333	1	0.018250
0.300000	1	0.017500
0.316667	1	0.016000
0.333333	1	0.015500
0.350000	1	0.013625
0.366667	1	0.012375
0.383333	1	0.010875
0.400000	1	0.009500
0.416667	1	0.009000
0.433333	1	0.009625
0.450000	1	0.010750
0.466667	1	0.012250
0.483333	1	0.012875
0.500000	1	0.013375
0.516667	1	0.014625
0.533333	1	0.015125
0.550000	1	0.014625
0.566667	1	0.014000
0.583333	1	0.012500
0.600000	1	0.010750
0.616667	1	0.009375
0.633333	1	0.008125
0.650000	1	0.007000
0.666667	1	0.007000
0.683333	1	0.007500
0.700000	1	0.008000
0.716667	1	0.008375
0.733333	1	0.008375
0.750000	1	0.008875
0.766667	1	0.009125
0.783333	1	0.009375
0.800000	1	0.009625
0.816667	1	0.010250
0.833333	1	0.009875
0.850000	1	0.009500
0.866667	1	0.009125
0.883333	1	0.008750
0.900000	1	0.008000
0.916667	1	0.007875
0.933333	1	0.007125
0.950000	1	0.006000
0.966667	1	0.005625
0.983333	1	0.005000
1.000000	1	0.004500
1.016667	1	0.003125
1.033333	1	0.002500
1.050000	1	0.002375
1.066667	1	0.002250
1.083333	1	0.001750
1.100000	1	0.001250
1.116667	1	0.000500
1.133333	1	0.000500
1.150000	1	0.000000
1.166667	1	-0.000250
1.183333	1	-0.000625
1.200000	1	-0.000750
1.216667	1	-0.000750
1.233333	1	-0.001000
1.250000	1	-0.001750
1.266667	1	-0.002250
1.283333	1	-0.003250
1.300000	1	-0.003750
1.316667	1	-0.004625
1.333333	1	-0.005250
1.350000	1	-0.005500
1.366667	1	-0.007125
1.383333	1	-0.008125
1.400000	1	-0.008125
1.416667	1	-0.008750
1.433333	1	-0.009625
1.450000	1	-0.010375
1.466667	1	-0.010625
1.483333	1	-0.011250
1.500000	1	-0.012500
1.516667	1	-0.013625
1.533333	1	-0.014375
1.550000	1	-0.015000
1.566667	1	-0.016000
1.583333	1	-0.017250
1.600000	1	-0.018500
1.616667	1	-0.019375
1.633333	1	-0.020250
1.650000	1	-0.020750
1.666667	1	-0.021500
1.683333	1	-0.021875
1.700000	1	-0.022250
1.716667	1	-0.022625
1.733333	1	-0.023125
1.750000	1	-0.023625
1.766667	1	-0.023500
1.783333	1	-0.023875
1.800000	1	-0.024500
1.816667	1	-0.025125
1.833333	1	-0.025375
1.850000	1	-0.025500
1.866667	1	-0.025875
1.883333	1	-0.026000
1.900000	1	-0.025250
1.916667	1	-0.025500
1.933333	1	-0.025750
1.950000	1	-0.026125
1.966667	1	-0.026375
1.983333	1	-0.027000
2.000000	1	-0.026875
2.016667	1	-0.026750
2.033333	1	-0.027000
2.050000	1	-0.027250
2.066667	1	-0.027375
2.083333	1	-0.027750
2.100000	1	-0.028125
2.116667	1	-0.028375
2.133333	1	-0.028750
2.150000	1	-0.029250
2.166667	1	-0.029875
2.183333	1	-0.030375
2.200000	1	-0.031000
2.216667	1	-0.031250
2.233333	1	-0.031875
2.250000	1	-0.032000
2.266667	1	-0.032125
2.283333	1	-0.033125
2.300000	1	-0.033500
2.316667	1	-0.034375
2.333333	1	-0.035750
2.350000	1	-0.036875
2.366667	1	-0.038250
2.383333	1	-0.039500
2.400000	1	-0.041250
2.416667	1	-0.042125
2.433333	1	-0.043000
2.450000	1	-0.043625
2.466667	1	-0.045000
2.483333	1	-0.047000
2.500000	1	-0.047625
2.516667	1	-0.048250
2.533333	1	-0.049250
2.550000	1	-0.050500
2.566667	1	-0.051375
2.583333	1	-0.052500
2.600000	1	-0.053625
2.616667	1	-0.055000
2.633333	1	-0.055750
2.650000	1	-0.056125
2.666667	1	-0.056750
2.683333	1	-0.057375
2.700000	1	-0.057000
2.716667	1	-0.057500
2.733333	1	-0.057750
2.750000	1	-0.058125
2.766667	1	-0.057875
2.783333	1	-0.057625
2.800000	1	-0.057250
2.816667	1	-0.056500
2.833333	1	-0.056250
2.850000	1	-0.055500
2.866667	1	-0.055375
2.883333	1	-0.054750
2.900000	1	-0.054250
2.916667	1	-0.053250
2.933333	1	-0.052000
2.950000	1	-0.051375
2.966667	1	-0.050250
2.983333	1	-0.048875
3.000000	1	-0.047250
3.016667	1	-0.046125
3.033333	1	-0.044000
3.050000	1	-0.042625
3.066667	1	-0.041125
3.083333	1	-0.039500
3.100000	1	-0.037625
3.116667	1	-0.036125
3.133333	1	-0.034250
3.150000	1	-0.032875
3.166667	1	-0.030625
3.183333	1	-0.028500
3.200000	1	-0.026875
3.216667	1	-0.025000
3.233333	1	-0.023000
3.250000	1	-0.020500
3.266667	1	-0.018250
3.283333	1	-0.017375
3.300000	1	-0.016000
3.316667	1	-0.014625
3.333333	1	-0.013250
3.350000	1	-0.012250
3.366667	1	-0.011125
3.383333	1	-0.010250
3.400000	1	-0.009250
3.416667	1	-0.008500
3.433333	1	-0.007625
3.450000	1	-0.006875
3.466667	1	-0.005875
3.483333	1	-0.005250
3.500000	1	-0.004375
3.516667	1	-0.003875
3.533333	1	-0.002750
3.550000	1	-0.002500
3.566667	1	-0.001625
3.583333	1	-0.001500
3.600000	1	-0.001125
3.616667	1	-0.000500
3.633333	1	0.001000
3.650000	1	0.002250
3.666667	1	0.001750
3.683333	1	0.002750
3.700000	1	0.002750
3.716667	1	0.003375
3.733333	1	0.003625
3.750000	1	0.004000
3.766667	1	0.003875
3.783333	1	0.005000
3.800000	1	0.005125
3.816667	1	0.004875
3.833333	1	0.004875
3.850000	1	0.005375
3.866667	1	0.005375
3.883333	1	0.005000
3.900000	1	0.005250
3.916667	1	0.005625
3.933333	1	0.005750
3.950000	1	0.005500
3.966667	1	0.004625
3.983333	1	0.004000
4.000000	1	0.004750
4.016667	1	0.004500
4.033333	1	0.004250
4.050000	1	0.005000
4.066667	1	0.005000
4.083333	1	0.005250
4.100000	1	0.005750
4.116667	1	0.005625
4.133333	1	0.005625
4.150000	1	0.006625
4.166667	1	0.007000
4.183333	1	0.008000
4.200000	1	0.008500
4.216667	1	0.008500
4.233333	1	0.008875
4.250000	1	0.010125
4.266667	1	0.011375
4.283333	1	0.013000
4.300000	1	0.014000
4.316667	1	0.015375
4.333333	1	0.016125
4.350000	1	0.017375
4.366667	1	0.018375
4.383333	1	0.019875
4.400000	1	0.020875
4.416667	1	0.021625
4.433333	1	0.022875
4.450000	1	0.024000
4.466667	1	0.024875
4.483333	1	0.025750
4.500000	1	0.025375
4.516667	1	0.025125
4.533333	1	0.025500
4.550000	1	0.025500
4.566667	1	0.025750
4.583333	1	0.025625
4.600000	1	0.025250
4.616667	1	0.024875
4.633333	1	0.024125
4.650000	1	0.023125
4.666667	1	0.022375
4.683333	1	0.021375
4.700000	1	0.020500
4.716667	1	0.019625
4.733333	1	0.019125
4.750000	1	0.018750
4.766667	1	0.018375
4.783333	1	0.018125
4.800000	1	0.018625
4.816667	1	0.019500
4.833333	1	0.020375
4.850000	1	0.021000
4.866667	1	0.022125
4.883333	1	0.023625
4.900000	1	0.025125
4.916667	1	0.026875
4.933333	1	0.029125
4.950000	1	0.031250
4.966667	1	0.033500
4.983333	1	0.036625
5.000000	1	0.039375
5.016667	1	0.042250
5.033333	1	0.044750
5.050000	1	0.048250
5.066667	1	0.051250
5.083333	1	0.054750
5.100000	1	0.058125
5.116667	1	0.062125
5.133333	1	0.065250
5.150000	1	0.068500
5.166667	1	0.072125
5.183333	1	0.075125
5.200000	1	0.078250
5.216667	1	0.081625
5.233333	1	0.084875
5.250000	1	0.087500
5.266667	1	0.090750
5.283333	1	0.093875
5.300000	1	0.097125
5.316667	1	0.100250
5.333333	1	0.103750
5.350000	1	0.106250
5.366667	1	0.109625
5.383333	1	0.111875
5.400000	1	0.115375
5.416667	1	0.118250
5.433333	1	0.121625
5.450000	1	0.124875
5.466667	1	0.127750
5.483333	1	0.130375
5.500000	1	0.132875
5.516667	1	0.136500
5.533333	1	0.140000
5.550000	1	0.142875
5.566667	1	0.145875
5.583333	1	0.149125
5.600000	1	0.152125
5.616667	1	0.155375
5.633333	1	0.158750
5.650000	1	0.161875
5.666667	1	0.165500
5.683333	1	0.168375
5.700000	1	0.171250
5.716667	1	0.174250
5.733333	1	0.177125
5.750000	1	0.179750
5.766667	1	0.182625
5.783333	1	0.185625
5.800000	1	0.188250
5.816667	1	0.190625
5.833333	1	0.192500
5.850000	1	0.194750
5.866667	1	0.196875
5.883333	1	0.198500
5.900000	1	0.199250
5.916667	1	0.200375
5.933333	1	0.201000
5.950000	1	0.201125
5.966667	1	0.201625
5.983333	1	0.200750
6.000000	1	0.200750
6.016667	1	0.201000
6.033333	1	0.201000
6.050000	1	0.200500
6.066667	1	0.199000
6.083333	1	0.196875
6.100000	1	0.195750
6.116667	1	0.194000
6.133333	1	0.192125
6.150000	1	0.190875
6.166667	1	0.189375
6.183333	1	0.188125
6.200000	1	0.187250
6.216667	1	0.185375
6.233333	1	0.184000
6.250000	1	0.182250
6.266667	1	0.180250
6.283333	1	0.178250
6.300000	1	0.176875
6.316667	1	0.175500
6.333333	1	0.174250
6.350000	1	0.173500
6.366667	1	0.172500
6.383333	1	0.170500
6.400000	1	0.168750
6.416667	1	0.167500
6.433333	1	0.165500
6.450000	1	0.164625
6.466667	1	0.163375
6.483333	1	0.161000
6.500000	1	0.158375
6.516667	1	0.156750
6.533333	1	0.154500
6.550000	1	0.152250
6.566667	1	0.150500
6.583333	1	0.148000
6.600000	1	0.145375
6.616667	1	0.142000
6.633333	1	0.138875
6.650000	1	0.135875
6.666667	1	0.132125
6.683333	1	0.128750
6.700000	1	0.125250
6.716667	1	0.122250
6.733333	1	0.118875
6.750000	1	0.115250
6.766667	1	0.112375
6.783333	1	0.108375
6.800000	1	0.104625
6.816667	1	0.101250
6.833333	1	0.098125
6.850000	1	0.095500
6.866667	1	0.092875
6.883333	1	0.090500
6.900000	1	0.088125
6.916667	1	0.085875
6.933333	1	0.083875
6.950000	1	0.082125
6.966667	1	0.080250
6.983333	1	0.078875
7.000000	1	0.078500
7.016667	1	0.078250
7.033333	1	0.077875
7.050000	1	0.077875
7.066667	1	0.078375
7.083333	1	0.078500
7.100000	1	0.079750
7.116667	1	0.080625
7.133333	1	0.081625
7.150000	1	0.083750
7.166667	1	0.085625
7.183333	1	0.087875
7.200000	1	0.090000
7.216667	1	0.092625
7.233333	1	0.094750
7.250000	1	0.097000
7.266667	1	0.099125
7.283333	1	0.102000
7.300000	1	0.104250
7.316667	1	0.107125
7.333333	1	0.109500
7.350000	1	0.112375
7.366667	1	0.115250
7.383333	1	0.117875
7.400000	1	0.120000
7.416667	1	0.122625
7.433333	1	0.124750
7.450000	1	0.126250
7.466667	1	0.128375
7.483333	1	0.129625
7.500000	1	0.130750
7.516667	1	0.131875
7.533333	1	0.133875
7.550000	1	0.134750
7.566667	1	0.135375
7.583333	1	0.136250
7.600000	1	0.136500
7.616667	1	0.136875
7.633333	1	0.136750
7.650000	1	0.136500
7.666667	1	0.136750
7.683333	1	0.136750
7.700000	1	0.137000
7.716667	1	0.135625
7.733333	1	0.134625
7.750000	1	0.133250
7.766667	1	0.131250
7.783333	1	0.130000
7.800000	1	0.128625
7.816667	1	0.126375
7.833333	1	0.123625
7.850000	1	0.120375
7.866667	1	0.117375
7.883333	1	0.114500
7.900000	1	0.110875
7.916667	1	0.107375
7.933333	1	0.104000
7.950000	1	0.100250
7.966667	1	0.095875
7.983333	1	0.092000
8.000000	1	0.087500
8.016667	1	0.082750
8.033333	1	0.077375
8.050000	1	0.072250
8.066667	1	0.066875
8.083333	1	0.062250
8.100000	1	0.057375
8.116667	1	0.053125
8.133333	1	0.048125
8.150000	1	0.043875
8.166667	1	0.038625
8.183333	1	0.033875
8.200000	1	0.028750
8.216667	1	0.022875
8.233333	1	0.018500
8.250000	1	0.013250
8.266667	1	0.008875
8.283333	1	0.004000
8.300000	1	-0.000750
8.316667	1	-0.005250
8.333333	1	-0.009500
8.350000	1	-0.014000
8.366667	1	-0.017875
8.383333	1	-0.022375
8.400000	1	-0.026750
8.416667	1	-0.030625
8.433333	1	-0.034750
8.450000	1	-0.038000
8.466667	1	-0.042000
8.483333	1	-0.044750
8.500000	1	-0.048125
8.516667	1	-0.051125
8.533333	1	-0.054625
8.550000	1	-0.057625
8.566667	1	-0.059875
8.583333	1	-0.062000
8.600000	1	-0.064000
8.616667	1	-0.066000
8.633333	1	-0.068500
8.650000	1	-0.069875
8.666667	1	-0.070625
8.683333	1	-0.070750
8.700000	1	-0.072000
8.716667	1	-0.072125
8.733333	1	-0.072625
8.750000	1	-0.072875
8.766667	1	-0.072625
8.783333	1	-0.071750
8.800000	1	-0.070500
8.816667	1	-0.069500
8.833333	1	-0.068125
8.850000	1	-0.066750
8.866667	1	-0.065250
8.883333	1	-0.063875
8.900000	1	-0.061500
8.916667	1	-0.059750
8.933333	1	-0.057500
8.950000	1	-0.054500
8.966667	1	-0.051750
8.983333	1	-0.049125
9.000000	1	-0.046625
9.016667	1	-0.044000
9.033333	1	-0.040750
9.050000	1	-0.037875
9.066667	1	-0.035375
9.083333	1	-0.033000
9.100000	1	-0.030625
9.116667	1	-0.028500
9.133333	1	-0.026000
9.150000	1	-0.023625
9.166667	1	-0.020375
9.183333	1	-0.017500
9.200000	1	-0.014875
9.216667	1	-0.012625
9.233333	1	-0.010250
9.250000	1	-0.007625
9.266667	1	-0.005125
9.283333	1	-0.001875
9.300000	1	0.000500
9.316667	1	0.003375
9.333333	1	0.006125
9.350000	1	0.008500
9.366667	1	0.010875
9.383333	1	0.013500
9.400000	1	0.015375
9.416667	1	0.017625
9.433333	1	0.019250
9.450000	1	0.021625
9.466667	1	0.023875
9.483333	1	0.025625
9.500000	1	0.027375
9.516667	1	0.028250
9.533333	1	0.029625
9.550000	1	0.030250
9.566667	1	0.030250
9.583333	1	0.030500
9.600000	1	0.030500
9.616667	1	0.030375
9.633333	1	0.030250
9.650000	1	0.029500
9.666667	1	0.028875
9.683333	1	0.028250
9.700000	1	0.027375
9.716667	1	0.026375
9.733333	1	0.024875
9.750000	1	0.024500
9.766667	1	0.023750
9.783333	1	0.022375
9.800000	1	0.021250
9.816667	1	0.020250
9.833333	1	0.019000
9.850000	1	0.018125
9.866667	1	0.016375
9.883333	1	0.014500
9.900000	1	0.013125
9.916667	1	0.012375
9.933333	1	0.012125
9.950000	1	0.011500
9.966667	1	0.010750
9.983333	1	0.010375
10.000000	1	0.010500
10.016667	1	0.010500
10.033333	1	0.011125
10.050000	1	0.012000
10.066667	1	0.013500
10.083333	1	0.015750
10.100000	1	0.018000
10.116667	1	0.021375
10.133333	1	0.025375
10.150000	1	0.030375
10.166667	1	0.036000
10.183333	1	0.042625
10.200000	1	0.050250
10.216667	1	0.059875
10.233333	1	0.071625
10.250000	1	0.085375
10.266667	1	0.100875
10.283333	1	0.118750
10.300000	1	0.139125
10.316667	1	0.162375
10.333333	1	0.189500
10.350000	1	0.219000
10.366667	1	0.252625
10.383333	1	0.289500
10.400000	1	0.330375
10.416667	1	0.372625
10.433333	1	0.409125
10.450000	1	0.429375
10.466667	1	0.419500
10.483333	1	0.373125
10.500000	1	0.296250
10.516667	1	0.215000
10.533333	1	0.186750
10.550000	1	0.293125
10.566667	1	0.630750
10.583333	1	1.303625
10.600000	1	2.402750
10.616667	1	4.006125
10.633333	1	6.166000
10.650000	1	8.911375
10.666667	1	12.254250
10.683333	1	16.182125
10.700000	1	20.655875
10.716667	1	25.596000
10.733333	1	30.869375
10.750000	1	36.277875
10.766667	1	41.531625
10.783333	1	46.249875
10.800000	1	49.984250
10.816667	1	52.293125
10.833333	1	52.854250
10.850000	1	51.582875
10.866667	1	48.666625
10.883333	1	44.516875
10.900000	1	39.646625
10.916667	1	34.541250
10.933333	1	29.574750
10.950000	1	24.988000
10.966667	1	20.913375
10.983333	1	17.390500
11.000000	1	14.412375
11.016667	1	11.937875
11.033333	1	9.913750
11.050000	1	8.275000
11.066667	1	6.957750
11.083333	1	5.901625
11.100000	1	5.055375
11.116667	1	4.376000
11.133333	1	3.827750
11.150000	1	3.382750
11.166667	1	3.018375
11.183333	1	2.717750
11.200000	1	2.466750
11.216667	1	2.255750
11.233333	1	2.076875
11.250000	1	1.925000
11.266667	1	1.794750
11.283333	1	1.682250
11.300000	1	1.584625
11.316667	1	1.499500
11.333333	1	1.426625
11.350000	1	1.362625
11.366667	1	1.306625
11.383333	1	1.257375
11.400000	1	1.213750
11.416667	1	1.175875
11.433333	1	1.142125
11.450000	1	1.112125
11.466667	1	1.085875
11.483333	1	1.062000
11.500000	1	1.041250
11.516667	1	1.022375
11.533333	1	1.005375
11.550000	1	0.990250
11.566667	1	0.976625
11.583333	1	0.965125
11.600000	1	0.955125
11.616667	1	0.946250
11.633333	1	0.938750
11.650000	1	0.933375
11.666667	1	0.929250
11.683333	1	0.926875
11.700000	1	0.926000
11.716667	1	0.926500
11.733333	1	0.928125
11.750000	1	0.931250
11.766667	1	0.935750
11.783333	1	0.941000
11.800000	1	0.946750
11.816667	1	0.952750
11.833333	1	0.959125
11.850000	1	0.964500
11.866667	1	0.969625
11.883333	1	0.974375
11.900000	1	0.977625
11.916667	1	0.981375
11.933333	1	0.984750
11.950000	1	0.988625
11.966667	1	0.992375
11.983333	1	0.996125
12.000000	1	1.000500
12.016667	1	1.005375
12.033333	1	1.011125
12.050000	1	1.018250
12.066667	1	1.025000
12.083333	1	1.033000
12.100000	1	1.041000
12.116667	1	1.051000
12.133333	1	1.062000
12.150000	1	1.074125
12.166667	1	1.088000
12.183333	1	1.105000
12.200000	1	1.124250
12.216667	1	1.146375
12.233333	1	1.171750
12.250000	1	1.201000
12.266667	1	1.233000
12.283333	1	1.268375
12.300000	1	1.307500
12.316667	1	1.350375
12.333333	1	1.397375
12.350000	1	1.448750
12.366667	1	1.507750
12.383333	1	1.577875
12.400000	1	1.664875
12.416667	1	1.772750
12.433333	1	1.910500
12.450000	1	2.086125
12.466667	1	2.308375
12.483333	1	2.584000
12.500000	1	2.919625
12.516667	1	3.317625
12.533333	1	3.779250
12.550000	1	4.296875
12.566667	1	4.863875
12.583333	1	5.467250
12.600000	1	6.093625
12.616667	1	6.726375
12.633333	1	7.351000
12.650000	1	7.955625
12.666667	1	8.532750
12.683333	1	9.076125
12.700000	1	9.586875
12.716667	1	10.069625
12.733333	1	10.530125
12.750000	1	10.977375
12.766667	1	11.421000
12.783333	1	11.871000
12.800000	1	12.333750
12.816667	1	12.814375
12.833333	1	13.314375
12.850000	1	13.823375
12.866667	1	14.307750
12.883333	1	14.694750
12.900000	1	14.876875
12.916667	1	14.736125
12.933333	1	14.199125
12.950000	1	13.272875
12.966667	1	12.046500
12.983333	1	10.659375
13.000000	1	9.252125
13.016667	1	7.928125
13.033333	1	6.743750
13.050000	1	5.722000
13.066667	1	4.861000
13.083333	1	4.147125
13.100000	1	3.564250
13.116667	1	3.094625
13.133333	1	2.720000
13.150000	1	2.422375
13.166667	1	2.188125
13.183333	1	2.002375
13.200000	1	1.855125
13.216667	1	1.737875
13.233333	1	1.643500
13.250000	1	1.565875
13.266667	1	1.501000
13.283333	1	1.446250
13.300000	1	1.399000
13.316667	1	1.357750
13.333333	1	1.321000
13.350000	1	1.288250
13.366667	1	1.258625
13.383333	1	1.232625
13.400000	1	1.209125
13.416667	1	1.188375
13.433333	1	1.169750
13.450000	1	1.154000
13.466667	1	1.140125
13.483333	1	1.129625
13.500000	1	1.121875
13.516667	1	1.115875
13.533333	1	1.111625
13.550000	1	1.108500
13.566667	1	1.106250
13.583333	1	1.103375
13.600000	1	1.098875
13.616667	1	1.093500
13.633333	1	1.086250
13.650000	1	1.076125
13.666667	1	1.063625
13.683333	1	1.049375
13.700000	1	1.033250
13.716667	1	1.016000
13.733333	1	0.998250
13.750000	1	0.979125
13.766667	1	0.960625
13.783333	1	0.942125
13.800000	1	0.923875
13.816667	1	0.905875
13.833333	1	0.888750
13.850000	1	0.872125
13.866667	1	0.857125
13.883333	1	0.842375
13.900000	1	0.828125
13.916667	1	0.814500
13.933333	1	0.802250
13.950000	1	0.790500
13.966667	1	0.779375
13.983333	1	0.768125
14.000000	1	0.757625
14.016667	1	0.748625
14.033333	1	0.739000
14.050000	1	0.730750
14.066667	1	0.722375
14.083333	1	0.714125
14.100000	1	0.706625
14.116667	1	0.699625
14.133333	1	0.693500
14.150000	1	0.688125
14.166667	1	0.683750
14.183333	1	0.679375
14.200000	1	0.675625
14.216667	1	0.673375
14.233333	1	0.671125
14.250000	1	0.670375
14.266667	1	0.670750
14.283333	1	0.672625
14.300000	1	0.674375
14.316667	1	0.679000
14.333333	1	0.684625
14.350000	1	0.692250
14.366667	1	0.700375
14.383333	1	0.710125
14.400000	1	0.723750
14.416667	1	0.740000
14.433333	1	0.762250
14.450000	1	0.792625
14.466667	1	0.837500
14.483333	1	0.905875
14.500000	1	1.012125
14.516667	1	1.177625
14.533333	1	1.433500
14.550000	1	1.818750
14.566667	1	2.385125
14.583333	1	3.195875
14.600000	1	4.326000
14.616667	1	5.858250
14.633333	1	7.880125
14.650000	1	10.470625
14.666667	1	13.689000
14.683333	1	17.563375
14.700000	1	22.078625
14.716667	1	27.167250
14.733333	1	32.704250
14.750000	1	38.513375
14.766667	1	44.363750
14.783333	1	49.993750
14.800000	1	55.138500
14.816667	1	59.546375
14.833333	1	62.998250
14.850000	1	65.330875
14.866667	1	66.452750
14.883333	1	66.351500
14.900000	1	65.091625
14.916667	1	62.809250
14.933333	1	59.685375
14.950000	1	55.927625
14.966667	1	51.749750
14.983333	1	47.356250
15.000000	1	42.917375
15.016667	1	38.569250
15.033333	1	34.415000
15.050000	1	30.527000
15.066667	1	26.950000
15.083333	1	23.701625
15.100000	1	20.785500
15.116667	1	18.188875
15.133333	1	15.891250
15.150000	1	13.866875
15.166667	1	12.089250
15.183333	1	10.533375
15.200000	1	9.172750
15.216667	1	7.985875
15.233333	1	6.954125
15.250000	1	6.059500
15.266667	1	5.288625
15.283333	1	4.628250
15.300000	1	4.067000
15.316667	1	3.594000
15.333333	1	3.199875
15.350000	1	2.874875
15.366667	1	2.610500
15.383333	1	2.398750
15.400000	1	2.230625
15.416667	1	2.098625
15.433333	1	1.994250
15.450000	1	1.912625
15.466667	1	1.845625
15.483333	1	1.789125
15.500000	1	1.737750
15.516667	1	1.688875
15.533333	1	1.641250
15.550000	1	1.592875
15.566667	1	1.543500
15.583333	1	1.493625
15.600000	1	1.443875
15.616667	1	1.395000
15.633333	1	1.348000
15.650000	1	1.303375
15.666667	1	1.261250
15.683333	1	1.221375
15.700000	1	1.185500
15.716667	1	1.151875
15.733333	1	1.121500
15.750000	1	1.092750
15.766667	1	1.066000
15.783333	1	1.041250
15.800000	1	1.018375
15.816667	1	0.997875
15.833333	1	0.979125
15.850000	1	0.963000
15.866667	1	0.948750
15.883333	1	0.938000
15.900000	1	0.931125
15.916667	1	0.927000
15.933333	1	0.926250
15.950000	1	0.929500
15.966667	1	0.936000
15.983333	1	0.945750
16.000000	1	0.956500
16.016667	1	0.969250
16.033333	1	0.982375
16.050000	1	0.995750
16.066667	1	1.007750
16.083333	1	1.018125
16.100000	1	1.026125
16.116667	1	1.031750
16.133333	1	1.034125
16.150000	1	1.035000
16.166667	1	1.032750
16.183333	1	1.028250
16.200000	1	1.021625
16.216667	1	1.014125
16.233333	1	1.004000
16.250000	1	0.992875
16.266667	1	0.981375
16.283333	1	0.970000
16.300000	1	0.958250
16.316667	1	0.947000
16.333333	1	0.937000
16.350000	1	0.927625
16.366667	1	0.920000
16.383333	1	0.914875
16.400000	1	0.911375
16.416667	1	0.909500
16.433333	1	0.909125
16.450000	1	0.909875
16.466667	1	0.912500
16.483333	1	0.915125
16.500000	1	0.918250
16.516667	1	0.920625
16.533333	1	0.922250
16.550000	1	0.922625
16.566667	1	0.922500
16.583333	1	0.920125
16.600000	1	0.916375
16.616667	1	0.911375
16.633333	1	0.905250
16.650000	1	0.899000
16.666667	1	0.893125
16.683333	1	0.887875
16.700000	1	0.883750
16.716667	1	0.880625
16.733333	1	0.880250
16.750000	1	0.882375
16.766667	1	0.886375
16.783333	1	0.892125
16.800000	1	0.899000
16.816667	1	0.907000
16.833333	1	0.914875
16.850000	1	0.922625
16.866667	1	0.929375
16.883333	1	0.935625
16.900000	1	0.940500
16.916667	1	0.943875
16.933333	1	0.945625
16.950000	1	0.946375
16.966667	1	0.945375
16.983333	1	0.943125
17.000000	1	0.941125
17.016667	1	0.938625
17.033333	1	0.936875
17.050000	1	0.935375
17.066667	1	0.935125
17.083333	1	0.934750
17.100000	1	0.935000
17.116667	1	0.937125
17.133333	1	0.940500
17.150000	1	0.944000
17.166667	1	0.948000
17.183333	1	0.952250
17.200000	1	0.956375
17.216667	1	0.960375
17.233333	1	0.964875
17.250000	1	0.968000
17.266667	1	0.971250
17.283333	1	0.974750
17.300000	1	0.978125
17.316667	1	0.981000
17.333333	1	0.985125
17.350000	1	0.989000
17.366667	1	0.992875
17.383333	1	0.996375
17.400000	1	0.999125
17.416667	1	1.000875
17.433333	1	1.002250
17.450000	1	1.002750
17.466667	1	1.001625
17.483333	1	0.999000
17.500000	1	0.995250
17.516667	1	0.989625
17.533333	1	0.982125
17.550000	1	0.974375
17.566667	1	0.964375
17.583333	1	0.954625
17.600000	1	0.942750
17.616667	1	0.929750
17.633333	1	0.916500
17.650000	1	0.902250
17.666667	1	0.887875
17.683333	1	0.873125
17.700000	1	0.858500
17.716667	1	0.843750
17.733333	1	0.829750
17.750000	1	0.816250
17.766667	1	0.803625
17.783333	1	0.792000
17.800000	1	0.780875
17.816667	1	0.770375
17.833333	1	0.761125
17.850000	1	0.752875
17.866667	1	0.745625
17.883333	1	0.738125
17.900000	1	0.731875
17.916667	1	0.725625
17.933333	1	0.720000
17.950000	1	0.714750
17.966667	1	0.709750
17.983333	1	0.704375
18.000000	1	0.698875
18.016667	1	0.693750
18.033333	1	0.688750
18.050000	1	0.683500
18.066667	1	0.678875
18.083333	1	0.673500
18.100000	1	0.669250
18.116667	1	0.665250
18.133333	1	0.661750
18.150000	1	0.659125
18.166667	1	0.656875
18.183333	1	0.655500
18.200000	1	0.655000
18.216667	1	0.654750
18.233333	1	0.654375
18.250000	1	0.653750
18.266667	1	0.653125
18.283333	1	0.652125
18.300000	1	0.651250
18.316667	1	0.651250
18.333333	1	0.651375
18.350000	1	0.651875
18.366667	1	0.652250
18.383333	1	0.653375
18.400000	1	0.656500
18.416667	1	0.660125
18.433333	1	0.666125
18.450000	1	0.673500
18.466667	1	0.683250
18.483333	1	0.695125
18.500000	1	0.708375
18.516667	1	0.724000
18.533333	1	0.742625
18.550000	1	0.763125
18.566667	1	0.785500
18.583333	1	0.810000
18.600000	1	0.837000
18.616667	1	0.865500
18.633333	1	0.896250
18.650000	1	0.927250
18.666667	1	0.959000
18.683333	1	0.993000
18.700000	1	1.027875
18.716667	1	1.063875
18.733333	1	1.099750
18.750000	1	1.136125
18.766667	1	1.171500
18.783333	1	1.206375
18.800000	1	1.240250
18.816667	1	1.271125
18.833333	1	1.299125
18.850000	1	1.323125
18.866667	1	1.342250
18.883333	1	1.356125
18.900000	1	1.364000
18.916667	1	1.365375
18.933333	1	1.360000
18.950000	1	1.348250
18.966667	1	1.329625
18.983333	1	1.304500
19.000000	1	1.273250
19.016667	1	1.236875
19.033333	1	1.196375
19.050000	1	1.151750
19.066667	1	1.104750
19.083333	1	1.056250
19.100000	1	1.007375
19.116667	1	0.958250
19.133333	1	0.911125
19.150000	1	0.866375
19.166667	1	0.824125
19.183333	1	0.785250
19.200000	1	0.751500
19.216667	1	0.721375
19.233333	1	0.697625
19.250000	1	0.678250
19.266667	1	0.664375
19.283333	1	0.656500
19.300000	1	0.654750
19.316667	1	0.658625
19.333333	1	0.668750
19.350000	1	0.683625
19.366667	1	0.703250
19.383333	1	0.727000
19.400000	1	0.754000
19.416667	1	0.782875
19.433333	1	0.812750
19.450000	1	0.842375
19.466667	1	0.870250
19.483333	1	0.896875
19.500000	1	0.919250
19.516667	1	0.938000
19.533333	1	0.951625
19.550000	1	0.961625
19.566667	1	0.965375
19.583333	1	0.963750
19.600000	1	0.957625
19.616667	1	0.947250
19.633333	1	0.932375
19.650000	1	0.913500
19.666667	1	0.892125
19.683333	1	0.868500
19.700000	1	0.843250
19.716667	1	0.818000
19.733333	1	0.791375
19.750000	1	0.765250
19.766667	1	0.739000
19.783333	1	0.712875
19.800000	1	0.687750
19.816667	1	0.664500
19.833333	1	0.642250
19.850000	1	0.622000
19.866667	1	0.602500
19.883333	1	0.583875
19.900000	1	0.567750
19.916667	1	0.552750
19.933333	1	0.539500
19.950000	1	0.527625
19.966667	1	0.518250
19.983333	1	0.510625
20.000000	1	0.504875
20.016667	1	0.501500
20.033333	1	0.500000
20.050000	1	0.501000
20.066667	1	0.504625
20.083333	1	0.510750
20.100000	1	0.520000
20.116667	1	0.531000
20.133333	1	0.545000
20.150000	1	0.561000
20.166667	1	0.579500
20.183333	1	0.598500
20.200000	1	0.617750
20.216667	1	0.635750
20.233333	1	0.653125
20.250000	1	0.668750
20.266667	1	0.682125
20.283333	1	0.692875
20.300000	1	0.699750
20.316667	1	0.703625
20.333333	1	0.702500
20.350000	1	0.698125
20.366667	1	0.689875
20.383333	1	0.679375
20.400000	1	0.665625
20.416667	1	0.650375
20.433333	1	0.633125
20.450000	1	0.615000
20.466667	1	0.596750
20.483333	1	0.579750
20.500000	1	0.563750
20.516667	1	0.550500
20.533333	1	0.539875
20.550000	1	0.533375
20.566667	1	0.532000
20.583333	1	0.536125
20.600000	1	0.546375
20.616667	1	0.564250
20.633333	1	0.589875
20.650000	1	0.623250
20.666667	1	0.666250
20.683333	1	0.716500
20.700000	1	0.775250
20.716667	1	0.841500
20.733333	1	0.914375
20.750000	1	0.992625
20.766667	1	1.072500
20.783333	1	1.153125
20.800000	1	1.232750
20.816667	1	1.306875
20.833333	1	1.374375
20.850000	1	1.432000
20.866667	1	1.479125
20.883333	1	1.512125
20.900000	1	1.532250
20.916667	1	1.538500
20.933333	1	1.530750
20.950000	1	1.510000
20.966667	1	1.477375
20.983333	1	1.434375
21.000000	1	1.383000
21.016667	1	1.325250
21.033333	1	1.264000
21.050000	1	1.199875
21.066667	1	1.134625
21.083333	1	1.070375
21.100000	1	1.007125
21.116667	1	0.946875
21.133333	1	0.890750
21.150000	1	0.837625
21.166667	1	0.788500
21.183333	1	0.743000
21.200000	1	0.701875
21.216667	1	0.664375
21.233333	1	0.630375
21.250000	1	0.600250
21.266667	1	0.573500
21.283333	1	0.549875
21.300000	1	0.528375
21.316667	1	0.509125
21.333333	1	0.492125
21.350000	1	0.476625
21.366667	1	0.463125
21.383333	1	0.451875
21.400000	1	0.441625
21.416667	1	0.432250
21.433333	1	0.423125
21.450000	1	0.415500
21.466667	1	0.409250
21.483333	1	0.404000
21.500000	1	0.399000
21.516667	1	0.395000
21.533333	1	0.392500
21.550000	1	0.391375
21.566667	1	0.392000
21.583333	1	0.394000
21.600000	1	0.398000
21.616667	1	0.404000
21.633333	1	0.411375
21.650000	1	0.421500
21.666667	1	0.434750
21.683333	1	0.450375
21.700000	1	0.468375
21.716667	1	0.490125
21.733333	1	0.514500
21.750000	1	0.541250
21.766667	1	0.569625
21.783333	1	0.600250
21.800000	1	0.631375
21.816667	1	0.663625
21.833333	1	0.696125
21.850000	1	0.727500
21.866667	1	0.757875
21.883333	1	0.785875
21.900000	1	0.811750
21.916667	1	0.833875
21.933333	1	0.852250
21.950000	1	0.866000
21.966667	1	0.875750
21.983333	1	0.881500
22.000000	1	0.883875
22.016667	1	0.882250
22.033333	1	0.876000
22.050000	1	0.866875
22.066667	1	0.855500
22.083333	1	0.841250
22.100000	1	0.825750
22.116667	1	0.808625
22.133333	1	0.789875
22.150000	1	0.770250
22.166667	1	0.750000
22.183333	1	0.728875
22.200000	1	0.707750
22.216667	1	0.685750
22.233333	1	0.663750
22.250000	1	0.641875
22.266667	1	0.619750
22.283333	1	0.597500
22.300000	1	0.576375
22.316667	1	0.555250
22.333333	1	0.534500
22.350000	1	0.513625
22.366667	1	0.494250
22.383333	1	0.475500
22.400000	1	0.457250
22.416667	1	0.440625
22.433333	1	0.424625
22.450000	1	0.409500
22.466667	1	0.394625
22.483333	1	0.381750
22.500000	1	0.369125
22.516667	1	0.358375
22.533333	1	0.347750
22.550000	1	0.338625
22.566667	1	0.330000
22.583333	1	0.320875
22.600000	1	0.313500
22.616667	1	0.306125
22.633333	1	0.299875
22.650000	1	0.293375
22.666667	1	0.287875
22.683333	1	0.282000
22.700000	1	0.276250
22.716667	1	0.270875
22.733333	1	0.265875
22.750000	1	0.261375
22.766667	1	0.256750
22.783333	1	0.252625
22.800000	1	0.248875
22.816667	1	0.245250
22.833333	1	0.241500
22.850000	1	0.237500
22.866667	1	0.234000
22.883333	1	0.230750
22.900000	1	0.227625
22.916667	1	0.226375
22.933333	1	0.224750
22.950000	1	0.223125
22.966667	1	0.221500
22.983333	1	0.220000
23.000000	1	0.220125
23.016667	1	0.220125
23.033333	1	0.220000
23.050000	1	0.220750
23.066667	1	0.221750
23.083333	1	0.223750
23.100000	1	0.225000
23.116667	1	0.227125
23.133333	1	0.229000
23.150000	1	0.231375
23.166667	1	0.232875
23.183333	1	0.235750
23.200000	1	0.237000
23.216667	1	0.239375
23.233333	1	0.241375
23.250000	1	0.243250
23.266667	1	0.245625
23.283333	1	0.248125
23.300000	1	0.251375
23.316667	1	0.255625
23.333333	1	0.262125
23.350000	1	0.269750
23.366667	1	0.280750
23.383333	1	0.295125
23.400000	1	0.315750
23.416667	1	0.342750
23.433333	1	0.378125
23.450000	1	0.422875
23.466667	1	0.480750
23.483333	1	0.552500
23.500000	1	0.641750
23.516667	1	0.750500
23.533333	1	0.880250
23.550000	1	1.033750
23.566667	1	1.211375
23.583333	1	1.415875
23.600000	1	1.646000
23.616667	1	1.901625
23.633333	1	2.180250
23.650000	1	2.479000
23.666667	1	2.794125
23.683333	1	3.120625
23.700000	1	3.454000
23.716667	1	3.787125
23.733333	1	4.111875
23.750000	1	4.421500
23.766667	1	4.708750
23.783333	1	4.965750
23.800000	1	5.188125
23.816667	1	5.369500
23.833333	1	5.507125
23.850000	1	5.598500
23.866667	1	5.642375
23.883333	1	5.640250
23.900000	1	5.593500
23.916667	1	5.504625
23.933333	1	5.378375
23.950000	1	5.218125
23.966667	1	5.029875
23.983333	1	4.820000
24.000000	1	4.592125
24.016667	1	4.353250
24.033333	1	4.107500
24.050000	1	3.859500
24.066667	1	3.613625
24.083333	1	3.370375
24.100000	1	3.134875
24.116667	1	2.908125
24.133333	1	2.691875
24.150000	1	2.486500
24.166667	1	2.292875
24.183333	1	2.111125
24.200000	1	1.942000
24.216667	1	1.783500
24.233333	1	1.637375
24.250000	1	1.501000
24.266667	1	1.376250
24.283333	1	1.260625
24.300000	1	1.154500
24.316667	1	1.058625
24.333333	1	0.970750
24.350000	1	0.891750
24.366667	1	0.820125
24.383333	1	0.755750
24.400000	1	0.698375
24.416667	1	0.648125
24.433333	1	0.603875
24.450000	1	0.565125
24.466667	1	0.531750
24.483333	1	0.502750
24.500000	1	0.477875
24.516667	1	0.457250
24.533333	1	0.439625
24.550000	1	0.425375
24.566667	1	0.412625
24.583333	1	0.402125
24.600000	1	0.393000
24.616667	1	0.385875
24.633333	1	0.378750
24.650000	1	0.373500
24.666667	1	0.368000
24.683333	1	0.363250
24.700000	1	0.358750
24.716667	1	0.354125
24.733333	1	0.349875
24.750000	1	0.345500
24.766667	1	0.341625
24.783333	1	0.337500
24.800000	1	0.333625
24.816667	1	0.329375
24.833333	1	0.324875
24.850000	1	0.320500
24.866667	1	0.316875
24.883333	1	0.313625
24.900000	1	0.310375
24.916667	1	0.306375
24.933333	1	0.304125
24.950000	1	0.301625
24.966667	1	0.298875
24.983333	1	0.296625
25.000000	1	0.293500
25.016667	1	0.291250
25.033333	1	0.289250
25.050000	1	0.287375
25.066667	1	0.285625
25.083333	1	0.283750
25.100000	1	0.282375
25.116667	1	0.281625
25.133333	1	0.279375
25.150000	1	0.277500
25.166667	1	0.275500
25.183333	1	0.273375
25.200000	1	0.271000
25.216667	1	0.269500
25.233333	1	0.267500
25.250000	1	0.264875
25.266667	1	0.262750
25.283333	1	0.261125
25.300000	1	0.258750
25.316667	1	0.256750
25.333333	1	0.253500
25.350000	1	0.250750
25.366667	1	0.248875
25.383333	1	0.246750
25.400000	1	0.244875
25.416667	1	0.242750
25.433333	1	0.241500
25.450000	1	0.239625
25.466667	1	0.238625
25.483333	1	0.237750
25.500000	1	0.236625
25.516667	1	0.235875
25.533333	1	0.235250
25.550000	1	0.234625
25.566667	1	0.233750
25.583333	1	0.233250
25.600000	1	0.234000
25.616667	1	0.234000
25.633333	1	0.234875
25.650000	1	0.235250
25.666667	1	0.235750
25.683333	1	0.235750
25.700000	1	0.236625
25.716667	1	0.237125
25.733333	1	0.237250
25.750000	1	0.237000
25.766667	1	0.237500
25.783333	1	0.238125
25.800000	1	0.238250
25.816667	1	0.238375
25.833333	1	0.238625
25.850000	1	0.239875
25.866667	1	0.240625
25.883333	1	0.241500
25.900000	1	0.242000
25.916667	1	0.243625
25.933333	1	0.244625
25.950000	1	0.246875
25.966667	1	0.248250
25.983333	1	0.250125
26.000000	1	0.252250
26.016667	1	0.255375
26.033333	1	0.258750
26.050000	1	0.262750
26.066667	1	0.267000
26.083333	1	0.271000
26.100000	1	0.276000
26.116667	1	0.281125
26.133333	1	0.286875
26.150000	1	0.292125
26.166667	1	0.297375
26.183333	1	0.302875
26.200000	1	0.308875
26.216667	1	0.314625
26.233333	1	0.320250
26.250000	1	0.326500
26.266667	1	0.332250
26.283333	1	0.337500
26.300000	1	0.342625
26.316667	1	0.346375
26.333333	1	0.350375
26.350000	1	0.353875
26.366667	1	0.356750
26.383333	1	0.358875
26.400000	1	0.360000
26.416667	1	0.360500
26.433333	1	0.360625
26.450000	1	0.359875
26.466667	1	0.358625
26.483333	1	0.356500
26.500000	1	0.354125
26.516667	1	0.351375
26.533333	1	0.348000
26.550000	1	0.343625
26.566667	1	0.338500
26.583333	1	0.334250
26.600000	1	0.328625
26.616667	1	0.323125
26.633333	1	0.317875
26.650000	1	0.312250
26.666667	1	0.306250
26.683333	1	0.300625
26.700000	1	0.295375
26.716667	1	0.289625
26.733333	1	0.283750
26.750000	1	0.278250
26.766667	1	0.272500
26.783333	1	0.267625
26.800000	1	0.263125
26.816667	1	0.258250
26.833333	1	0.254250
26.850000	1	0.250625
26.866667	1	0.246500
26.883333	1	0.242500
26.900000	1	0.239625
26.916667	1	0.236750
26.933333	1	0.234375
26.950000	1	0.231500
26.966667	1	0.229125
26.983333	1	0.227500
27.000000	1	0.226250
27.016667	1	0.224500
27.033333	1	0.223625
27.050000	1	0.223375
27.066667	1	0.223125
27.083333	1	0.222375
27.100000	1	0.222625
27.116667	1	0.223250
27.133333	1	0.224125
27.150000	1	0.226000
27.166667	1	0.228125
27.183333	1	0.230375
27.200000	1	0.233875
27.216667	1	0.238125
27.233333	1	0.243750
27.250000	1	0.250500
27.266667	1	0.259125
27.283333	1	0.270000
27.300000	1	0.282750
27.316667	1	0.298250
27.333333	1	0.317750
27.350000	1	0.341500
27.366667	1	0.370125
27.383333	1	0.403250
27.400000	1	0.443375
27.416667	1	0.491125
27.433333	1	0.546375
27.450000	1	0.610875
27.466667	1	0.684375
27.483333	1	0.769375
27.500000	1	0.866125
27.516667	1	0.974250
27.533333	1	1.094250
27.550000	1	1.226750
27.566667	1	1.372250
27.583333	1	1.529000
27.600000	1	1.697375
27.616667	1	1.876000
27.633333	1	2.064000
27.650000	1	2.259375
27.666667	1	2.461000
27.683333	1	2.665625
27.700000	1	2.871125
27.716667	1	3.072500
27.733333	1	3.268625
27.750000	1	3.455625
27.766667	1	3.630250
27.783333	1	3.790875
27.800000	1	3.933250
27.816667	1	4.054375
27.833333	1	4.152875
27.850000	1	4.226750
27.866667	1	4.275250
27.883333	1	4.297625
27.900000	1	4.292875
27.916667	1	4.262125
27.933333	1	4.206875
27.950000	1	4.127250
27.966667	1	4.026250
27.983333	1	3.906250
28.000000	1	3.769375
28.016667	1	3.619125
28.033333	1	3.458125
28.050000	1	3.289625
28.066667	1	3.114750
28.083333	1	2.937500
28.100000	1	2.759250
28.116667	1	2.583125
28.133333	1	2.411500
28.150000	1	2.245625
28.166667	1	2.086625
28.183333	1	1.934000
28.200000	1	1.789750
28.216667	1	1.654250
28.233333	1	1.527250
28.250000	1	1.408375
28.266667	1	1.298125
28.283333	1	1.196875
28.300000	1	1.103875
28.316667	1	1.018500
28.333333	1	0.941125
28.350000	1	0.870625
28.366667	1	0.806750
28.383333	1	0.749875
28.400000	1	0.698750
28.416667	1	0.653125
28.433333	1	0.612750
28.450000	1	0.577000
28.466667	1	0.545875
28.483333	1	0.519625
28.500000	1	0.496750
28.516667	1	0.477750
28.533333	1	0.463125
28.550000	1	0.451375
28.566667	1	0.442000
28.583333	1	0.435750
28.600000	1	0.432500
28.616667	1	0.431250
28.633333	1	0.431750
28.650000	1	0.434500
28.666667	1	0.438375
28.683333	1	0.443875
28.700000	1	0.451000
28.716667	1	0.458750
28.733333	1	0.466375
28.750000	1	0.475000
28.766667	1	0.483750
28.783333	1	0.492250
28.800000	1	0.501375
28.816667	1	0.509875
28.833333	1	0.518250
28.850000	1	0.526000
28.866667	1	0.533625
28.883333	1	0.540750
28.900000	1	0.546125
28.916667	1	0.550250
28.933333	1	0.553000
28.950000	1	0.555375
28.966667	1	0.556250
28.983333	1	0.555500
29.000000	1	0.554375
29.016667	1	0.550875
29.033333	1	0.546000
29.050000	1	0.539125
29.066667	1	0.531125
29.083333	1	0.520375
29.100000	1	0.508875
29.116667	1	0.494375
29.133333	1	0.478500
29.150000	1	0.459875
29.166667	1	0.439625
29.183333	1	0.417125
29.200000	1	0.392125
29.216667	1	0.364875
29.233333	1	0.334000
29.250000	1	0.301250
29.266667	1	0.265500
29.283333	1	0.226625
29.300000	1	0.184500
29.316667	1	0.139500
29.333333	1	0.091250
29.350000	1	0.041250
29.366667	1	-0.011500
29.383333	1	-0.067250
29.400000	1	-0.125875
29.416667	1	-0.186375
29.433333	1	-0.249125
29.450000	1	-0.312875
29.466667	1	-0.378000
29.483333	1	-0.444000
29.500000	1	-0.510125
29.516667	1	-0.576125
29.533333	1	-0.641500
29.550000	1	-0.705250
29.566667	1	-0.767000
29.583333	1	-0.826625
29.600000	1	-0.882750
29.616667	1	-0.935875
29.633333	1	-0.984875
29.650000	1	-1.029750
29.666667	1	-1.069500
29.683333	1	-1.104000
29.700000	1	-1.132125
29.716667	1	-1.154875
29.733333	1	-1.172250
29.750000	1	-1.183375
29.766667	1	-1.189250
29.783333	1	-1.188500
29.800000	1	-1.181875
29.816667	1	-1.169625
29.833333	1	-1.152625
29.850000	1	-1.130250
29.866667	1	-1.103875
29.883333	1	-1.073875
29.900000	1	-1.039750
29.916667	1	-1.003375
29.933333	1	-0.963500
29.950000	1	-0.921625
29.966667	1	-0.877875
29.983333	1	-0.833375
30.000000	1	-0.788375
30.016667	1	-0.742250
30.033333	1	-0.696125
30.050000	1	-0.650375
30.066667	1	-0.605375
30.083333	1	-0.561125
30.100000	1	-0.517750
30.116667	1	-0.476375
30.133333	1	-0.435000
30.150000	1	-0.396375
30.166667	1	-0.359125
30.183333	1	-0.323625
30.200000	1	-0.289375
30.216667	1	-0.257875
30.233333	1	-0.227875
30.250000	1	-0.199000
30.266667	1	-0.172875
30.283333	1	-0.148250
30.300000	1	-0.125125
30.316667	1	-0.104125
30.333333	1	-0.084250
30.350000	1	-0.066000
30.366667	1	-0.049875
30.383333	1	-0.034625
30.400000	1	-0.020875
30.416667	1	-0.008375
30.433333	1	0.003625
30.450000	1	0.013500
30.466667	1	0.024250
30.483333	1	0.033750
30.500000	1	0.042625
30.516667	1	0.050500
30.533333	1	0.058875
30.550000	1	0.065750
30.566667	1	0.072250
30.583333	1	0.079250
30.600000	1	0.086000
30.616667	1	0.092875
30.633333	1	0.099375
30.650000	1	0.106625
30.666667	1	0.113250
30.683333	1	0.120750
30.700000	1	0.128625
30.716667	1	0.136375
30.733333	1	0.144250
30.750000	1	0.152250
30.766667	1	0.160375
30.783333	1	0.169000
30.800000	1	0.178375
30.816667	1	0.188250
30.833333	1	0.198875
30.850000	1	0.209250
30.866667	1	0.220375
30.883333	1	0.232125
30.900000	1	0.245500
30.916667	1	0.259125
30.933333	1	0.274125
30.950000	1	0.291250
30.966667	1	0.310750
30.983333	1	0.333125
31.000000	1	0.357875
31.016667	1	0.386375
31.033333	1	0.418750
31.050000	1	0.456000
31.066667	1	0.499375
31.083333	1	0.549500
31.100000	1	0.607500
31.116667	1	0.673750
31.133333	1	0.749750
31.150000	1	0.836250
31.166667	1	0.934750
31.183333	1	1.046625
31.200000	1	1.172625
31.216667	1	1.313000
31.233333	1	1.468000
31.250000	1	1.639500
31.266667	1	1.826250
31.283333	1	2.029000
31.300000	1	2.246875
31.316667	1	2.479500
31.333333	1	2.724125
31.350000	1	2.980875
31.366667	1	3.247875
31.383333	1	3.523000
31.400000	1	3.802375
31.416667	1	4.085125
31.433333	1	4.366625
31.450000	1	4.643375
31.466667	1	4.912125
31.483333	1	5.168750
31.500000	1	5.411125
31.516667	1	5.635625
31.533333	1	5.839000
31.550000	1	6.018875
31.566667	1	6.172750
31.583333	1	6.298500
31.600000	1	6.396250
31.616667	1	6.463625
31.633333	1	6.501500
31.650000	1	6.508500
31.666667	1	6.486500
31.683333	1	6.435625
31.700000	1	6.358125
31.716667	1	6.255875
31.733333	1	6.131250
31.750000	1	5.985250
31.766667	1	5.821500
31.783333	1	5.640875
31.800000	1	5.448125
31.816667	1	5.243500
31.833333	1	5.032000
31.850000	1	4.814250
31.866667	1	4.593875
31.883333	1	4.371500
31.900000	1	4.149750
31.916667	1	3.931375
31.933333	1	3.716375
31.950000	1	3.505375
31.966667	1	3.300500
31.983333	1	3.102500
32.000000	1	2.911750
32.016667	1	2.728000
32.033333	1	2.552125
32.050000	1	2.384375
32.066667	1	2.225125
32.083333	1	2.074625
32.100000	1	1.932000
32.116667	1	1.796750
32.133333	1	1.669250
32.150000	1	1.549000
32.166667	1	1.435875
32.183333	1	1.329125
32.200000	1	1.228875
32.216667	1	1.134750
32.233333	1	1.046125
32.250000	1	0.963125
32.266667	1	0.885250
32.283333	1	0.812375
32.300000	1	0.744500
32.316667	1	0.681375
32.333333	1	0.622625
32.350000	1	0.567125
32.366667	1	0.515375
32.383333	1	0.467875
32.400000	1	0.424250
32.416667	1	0.383375
32.433333	1	0.345500
32.450000	1	0.310500
32.466667	1	0.278500
32.483333	1	0.248125
32.500000	1	0.220625
32.516667	1	0.195625
32.533333	1	0.171500
32.550000	1	0.150000
32.566667	1	0.131000
32.583333	1	0.112500
32.600000	1	0.096250
32.616667	1	0.080750
32.633333	1	0.067375
32.650000	1	0.054875
32.666667	1	0.042625
32.683333	1	0.032750
32.700000	1	0.023000
32.716667	1	0.014875
32.733333	1	0.007250
32.750000	1	0.000500
32.766667	1	-0.004625
32.783333	1	-0.008875
32.800000	1	-0.012125
32.816667	1	-0.015500
32.833333	1	-0.017875
32.850000	1	-0.019750
32.866667	1	-0.021375
32.883333	1	-0.022625
32.900000	1	-0.022875
32.916667	1	-0.022750
32.933333	1	-0.021875
32.950000	1	-0.020875
32.966667	1	-0.019125
32.983333	1	-0.017000
33.000000	1	-0.014125
33.016667	1	-0.012000
33.033333	1	-0.009750
33.050000	1	-0.007125
33.066667	1	-0.004250
33.083333	1	-0.001750
33.100000	1	0.000375
33.116667	1	0.002750
33.133333	1	0.005125
33.150000	1	0.007125
33.166667	1	0.009750
33.183333	1	0.012125
33.200000	1	0.013875
33.216667	1	0.016000
33.233333	1	0.017250
33.250000	1	0.018375
33.266667	1	0.020375
33.283333	1	0.021375
33.300000	1	0.021500
33.316667	1	0.022375
33.333333	1	0.023000
33.350000	1	0.022875
33.366667	1	0.023375
33.383333	1	0.023875
33.400000	1	0.024250
33.416667	1	0.023375
33.433333	1	0.022750
33.450000	1	0.022875
33.466667	1	0.023000
33.483333	1	0.023125
33.500000	1	0.022000
33.516667	1	0.021625
33.533333	1	0.021125
33.550000	1	0.020875
33.566667	1	0.020625
33.583333	1	0.020875
33.600000	1	0.020500
33.616667	1	0.020500
33.633333	1	0.021125
33.650000	1	0.020750
33.666667	1	0.021375
33.683333	1	0.021125
33.700000	1	0.022125
33.716667	1	0.023125
33.733333	1	0.023625
33.750000	1	0.024000
33.766667	1	0.025250
33.783333	1	0.026750
33.800000	1	0.028000
33.816667	1	0.029125
33.833333	1	0.029875
33.850000	1	0.031375
33.866667	1	0.032625
33.883333	1	0.033125
33.900000	1	0.034250
33.916667	1	0.034875
33.933333	1	0.036375
33.950000	1	0.037250
33.966667	1	0.037875
33.983333	1	0.038125
34.000000	1	0.039125
34.016667	1	0.039375
34.033333	1	0.039250
34.050000	1	0.038875
34.066667	1	0.038625
34.083333	1	0.038500
34.100000	1	0.037625
34.116667	1	0.036750
34.133333	1	0.036125
34.150000	1	0.035625
34.166667	1	0.034250
34.183333	1	0.033625
34.200000	1	0.032625
34.216667	1	0.032000
34.233333	1	0.031625
34.250000	1	0.031250
34.266667	1	0.031000
34.283333	1	0.031125
34.300000	1	0.031000
34.316667	1	0.031250
34.333333	1	0.032125
34.350000	1	0.033000
34.366667	1	0.034125
34.383333	1	0.036000
34.400000	1	0.037750
34.416667	1	0.040000
34.433333	1	0.042750
34.450000	1	0.044875
34.466667	1	0.048375
34.483333	1	0.051250
34.500000	1	0.055250
34.516667	1	0.059125
34.533333	1	0.062750
34.550000	1	0.066875
34.566667	1	0.071375
34.583333	1	0.075375
34.600000	1	0.079625
34.616667	1	0.083750
34.633333	1	0.087875
34.650000	1	0.091750
34.666667	1	0.095125
34.683333	1	0.097250
34.700000	1	0.100500
34.716667	1	0.103500
34.733333	1	0.105750
34.750000	1	0.108750
34.766667	1	0.111250
34.783333	1	0.112750
34.800000	1	0.113875
34.816667	1	0.115375
34.833333	1	0.116250
34.850000	1	0.117250
34.866667	1	0.117750
34.883333	1	0.117875
34.900000	1	0.117875
34.916667	1	0.117625
34.933333	1	0.117500
34.950000	1	0.117000
34.966667	1	0.116125
34.983333	1	0.115000
35.000000	1	0.114000
35.016667	1	0.112500
35.033333	1	0.110750
35.050000	1	0.109375
35.066667	1	0.108250
35.083333	1	0.106750
35.100000	1	0.105500
35.116667	1	0.104125
35.133333	1	0.103125
35.150000	1	0.101625
35.166667	1	0.100875
35.183333	1	0.099500
35.200000	1	0.099250
35.216667	1	0.098125
35.233333	1	0.097500
35.250000	1	0.097500
35.266667	1	0.097625
35.283333	1	0.097375
35.300000	1	0.097625
35.316667	1	0.097375
35.333333	1	0.097750
35.350000	1	0.098250
35.366667	1	0.098000
35.383333	1	0.098250
35.400000	1	0.098875
35.416667	1	0.099625
35.433333	1	0.099500
35.450000	1	0.099750
35.466667	1	0.100375
35.483333	1	0.100375
35.500000	1	0.100750
35.516667	1	0.101125
35.533333	1	0.101000
35.550000	1	0.101000
35.566667	1	0.101375
35.583333	1	0.101250
35.600000	1	0.100625
35.616667	1	0.099750
35.633333	1	0.099250
35.650000	1	0.099500
35.666667	1	0.098500
35.683333	1	0.098375
35.700000	1	0.097375
35.716667	1	0.096875
35.733333	1	0.095625
35.750000	1	0.095250
35.766667	1	0.094000
35.783333	1	0.093375
35.800000	1	0.093000
35.816667	1	0.092250
35.833333	1	0.090625
35.850000	1	0.089625
35.866667	1	0.088000
35.883333	1	0.087000
35.900000	1	0.086500
35.916667	1	0.086000
35.933333	1	0.085750
35.950000	1	0.085375
35.966667	1	0.085000
35.983333	1	0.084000
36.000000	1	0.085000
36.016667	1	0.084875
36.033333	1	0.084875
36.050000	1	0.085000
36.066667	1	0.085000
36.083333	1	0.084875
36.100000	1	0.085875
36.116667	1	0.085125
36.133333	1	0.085250
36.150000	1	0.086750
36.166667	1	0.087250
36.183333	1	0.088125
36.200000	1	0.088375
36.216667	1	0.089000
36.233333	1	0.089625
36.250000	1	0.090500
36.266667	1	0.091500
36.283333	1	0.092250
36.300000	1	0.093000
36.316667	1	0.094375
36.333333	1	0.095250
36.350000	1	0.095875
36.366667	1	0.096750
36.383333	1	0.097500
36.400000	1	0.098000
36.416667	1	0.098625
36.433333	1	0.098625
36.450000	1	0.099125
36.466667	1	0.099375
36.483333	1	0.100125
36.500000	1	0.100375
36.516667	1	0.100375
36.533333	1	0.100750
36.550000	1	0.100625
36.566667	1	0.100625
36.583333	1	0.099625
36.600000	1	0.098875
36.616667	1	0.098750
36.633333	1	0.098250
36.650000	1	0.097250
36.666667	1	0.096000
36.683333	1	0.094625
36.700000	1	0.092625
36.716667	1	0.091000
36.733333	1	0.089250
36.750000	1	0.086875
36.766667	1	0.084375
36.783333	1	0.082375
36.800000	1	0.079875
36.816667	1	0.077750
36.833333	1	0.075250
36.850000	1	0.072375
36.866667	1	0.069875
36.883333	1	0.067125
36.900000	1	0.064500
36.916667	1	0.061750
36.933333	1	0.058250
36.950000	1	0.055625
36.966667	1	0.053125
36.983333	1	0.050125
37.000000	1	0.047625
37.016667	1	0.044875
37.033333	1	0.042375
37.050000	1	0.040500
37.066667	1	0.037875
37.083333	1	0.035625
37.100000	1	0.034000
37.116667	1	0.031750
37.133333	1	0.029750
37.150000	1	0.028250
37.166667	1	0.027250
37.183333	1	0.026000
37.200000	1	0.024000
37.216667	1	0.022500
37.233333	1	0.022125
37.250000	1	0.021625
37.266667	1	0.020750
37.283333	1	0.020125
37.300000	1	0.019500
37.316667	1	0.019250
37.333333	1	0.019500
37.350000	1	0.019500
37.366667	1	0.019625
37.383333	1	0.020125
37.400000	1	0.020375
37.416667	1	0.020375
37.433333	1	0.020250
37.450000	1	0.020500
37.466667	1	0.021375
37.483333	1	0.021750
37.500000	1	0.022875
37.516667	1	0.023500
37.533333	1	0.023625
37.550000	1	0.024250
37.566667	1	0.025125
37.583333	1	0.025625
37.600000	1	0.025875
37.616667	1	0.026000
37.633333	1	0.026500
37.650000	1	0.026625
37.666667	1	0.026500
37.683333	1	0.026250
37.700000	1	0.026375
37.716667	1	0.026250
37.733333	1	0.025375
37.750000	1	0.025375
37.766667	1	0.024250
37.783333	1	0.023000
37.800000	1	0.022000
37.816667	1	0.021375
37.833333	1	0.020250
37.850000	1	0.019125
37.866667	1	0.018375
37.883333	1	0.017625
37.900000	1	0.016375
37.916667	1	0.015625
37.933333	1	0.013625
37.950000	1	0.012250
37.966667	1	0.011250
37.983333	1	0.010125
38.000000	1	0.009500
38.016667	1	0.008500
38.033333	1	0.008625
38.050000	1	0.008125
38.066667	1	0.007875
38.083333	1	0.008125
38.100000	1	0.009125
38.116667	1	0.009625
38.133333	1	0.010375
38.150000	1	0.011375
38.166667	1	0.013125
38.183333	1	0.014375
38.200000	1	0.015750
38.216667	1	0.017250
38.233333	1	0.019625
38.250000	1	0.021500
38.266667	1	0.024500
38.283333	1	0.026750
38.300000	1	0.029500
38.316667	1	0.032375
38.333333	1	0.035500
38.350000	1	0.038375
38.366667	1	0.041000
38.383333	1	0.043750
38.400000	1	0.046750
38.416667	1	0.049750
38.433333	1	0.052500
38.450000	1	0.055125
38.466667	1	0.058250
38.483333	1	0.061250
38.500000	1	0.063500
38.516667	1	0.065625
38.533333	1	0.067750
38.550000	1	0.069750
38.566667	1	0.071375
38.583333	1	0.072250
38.600000	1	0.073125
38.616667	1	0.073500
38.633333	1	0.074250
38.650000	1	0.074125
38.666667	1	0.073875
38.683333	1	0.073000
38.700000	1	0.072125
38.716667	1	0.070625
38.733333	1	0.068625
38.750000	1	0.066625
38.766667	1	0.064000
38.783333	1	0.060500
38.800000	1	0.057375
38.816667	1	0.054250
38.833333	1	0.051250
38.850000	1	0.047500
38.866667	1	0.044625
38.883333	1	0.041125
38.900000	1	0.037375
38.916667	1	0.034250
38.933333	1	0.030125
38.950000	1	0.026500
38.966667	1	0.023000
38.983333	1	0.019125
39.000000	1	0.015125
39.016667	1	0.012000
39.033333	1	0.009125
39.050000	1	0.006000
39.066667	1	0.002500
39.083333	1	-0.000250
39.100000	1	-0.002375
39.116667	1	-0.004750
39.133333	1	-0.006625
39.150000	1	-0.008250
39.166667	1	-0.010000
39.183333	1	-0.012250
39.200000	1	-0.013750
39.216667	1	-0.014125
39.233333	1	-0.015000
39.250000	1	-0.016000
39.266667	1	-0.016875
39.283333	1	-0.017000
39.300000	1	-0.017750
39.316667	1	-0.018000
39.333333	1	-0.018125
39.350000	1	-0.018625
39.366667	1	-0.019625
39.383333	1	-0.020500
39.400000	1	-0.020875
39.416667	1	-0.021000
39.433333	1	-0.021250
39.450000	1	-0.021375
39.466667	1	-0.021875
39.483333	1	-0.023125
39.500000	1	-0.024125
39.516667	1	-0.025875
39.533333	1	-0.026375
39.550000	1	-0.027375
39.566667	1	-0.029000
39.583333	1	-0.030000
39.600000	1	-0.031375
39.616667	1	-0.032625
39.633333	1	-0.034000
39.650000	1	-0.035250
39.666667	1	-0.036625
39.683333	1	-0.038875
39.700000	1	-0.040125
39.716667	1	-0.041000
39.733333	1	-0.042500
39.750000	1	-0.043750
39.766667	1	-0.045000
39.783333	1	-0.046375
39.800000	1	-0.048000
39.816667	1	-0.049000
39.833333	1	-0.050000
39.850000	1	-0.050875
39.866667	1	-0.050875
39.883333	1	-0.051000
39.900000	1	-0.051500
39.916667	1	-0.051500
39.933333	1	-0.051250
39.950000	1	-0.051375
39.966667	1	-0.051500
39.983333	1	-0.050750
40.000000	1	-0.050000
