URL	chrom://7040-86g6c92/XVault/Ultimate_3000/20/20240517_CMO_FP23_FP25_MarkusDeplate.seq/492.smp/RI_1.channel/RI_1.chm
Channel	RI_1

Injection Information:
Data Vault	XVault
Sequence	20240517_CMO_FP23_FP25_MarkusDeplate
Name	FP23_19_s3
Number	16
Position	BB4
Comment	
Processing Method	
Instrument Method	run_25B_method
Type	Unknown
Status	Finished
Inject Time	28.05.2024 04:16:49 +02:00
Volume (µl)	20.0000
Dilution Factor	1.0000
Weight	1.0000

Chromatogram Data Information:
Time Min. (min)	0.000000
Time Max. (min)	40.000000
Data Points	2401
Detector	RI
Generating Data System	Chromeleon 7.3.2.11814
Exporting Data System	Chromeleon 7.3.2.0
Operator	Instrument Controller
Signal Quantity	Refractive 
Signal Unit	µRIU
Signal Min.	-1.148250
Signal Max.	68.058875
Channel	RI_1
Driver Name	RID520Driver.dll
Channel Type	Evaluation
Min. Step (s)	1
Max. Step (s)	1
Average Step (s)	1

Signal Parameter Information:
Signal Info	

Chromatogram Data:
Time (min)	Step (s)	Value (µRIU)
0.000000	n.a.	0.014250
0.016667	1	0.013750
0.033333	1	0.013500
0.050000	1	0.013875
0.066667	1	0.013375
0.083333	1	0.012875
0.100000	1	0.012375
0.116667	1	0.011625
0.133333	1	0.010625
0.150000	1	0.010125
0.166667	1	0.009250
0.183333	1	0.008375
0.200000	1	0.007250
0.216667	1	0.005750
0.233333	1	0.004250
0.250000	1	0.002625
0.266667	1	0.000750
0.283333	1	-0.001125
0.300000	1	-0.003000
0.316667	1	-0.005500
0.333333	1	-0.008000
0.350000	1	-0.011375
0.366667	1	-0.014250
0.383333	1	-0.017375
0.400000	1	-0.020250
0.416667	1	-0.023000
0.433333	1	-0.023750
0.450000	1	-0.023500
0.466667	1	-0.023000
0.483333	1	-0.022000
0.500000	1	-0.021250
0.516667	1	-0.021750
0.533333	1	-0.021750
0.550000	1	-0.021750
0.566667	1	-0.022375
0.583333	1	-0.023750
0.600000	1	-0.025500
0.616667	1	-0.027000
0.633333	1	-0.027875
0.650000	1	-0.027500
0.666667	1	-0.026375
0.683333	1	-0.024625
0.700000	1	-0.022125
0.716667	1	-0.020250
0.733333	1	-0.018375
0.750000	1	-0.016250
0.766667	1	-0.015000
0.783333	1	-0.012875
0.800000	1	-0.010875
0.816667	1	-0.009500
0.833333	1	-0.007500
0.850000	1	-0.006125
0.866667	1	-0.004875
0.883333	1	-0.003750
0.900000	1	-0.002500
0.916667	1	-0.001375
0.933333	1	-0.000375
0.950000	1	0.000375
0.966667	1	0.001625
0.983333	1	0.002375
1.000000	1	0.002500
1.016667	1	0.003000
1.033333	1	0.003500
1.050000	1	0.004500
1.066667	1	0.005125
1.083333	1	0.005000
1.100000	1	0.005500
1.116667	1	0.006125
1.133333	1	0.006875
1.150000	1	0.007625
1.166667	1	0.008375
1.183333	1	0.008875
1.200000	1	0.009125
1.216667	1	0.009750
1.233333	1	0.010625
1.250000	1	0.011625
1.266667	1	0.012500
1.283333	1	0.012625
1.300000	1	0.013875
1.316667	1	0.014000
1.333333	1	0.015000
1.350000	1	0.016000
1.366667	1	0.016125
1.383333	1	0.017000
1.400000	1	0.017875
1.416667	1	0.018625
1.433333	1	0.018875
1.450000	1	0.019375
1.466667	1	0.020250
1.483333	1	0.020875
1.500000	1	0.021375
1.516667	1	0.022250
1.533333	1	0.022000
1.550000	1	0.022500
1.566667	1	0.022125
1.583333	1	0.022875
1.600000	1	0.022500
1.616667	1	0.023125
1.633333	1	0.023625
1.650000	1	0.023500
1.666667	1	0.023875
1.683333	1	0.024000
1.700000	1	0.024375
1.716667	1	0.024000
1.733333	1	0.024500
1.750000	1	0.023625
1.766667	1	0.023625
1.783333	1	0.023125
1.800000	1	0.022625
1.816667	1	0.022500
1.833333	1	0.022000
1.850000	1	0.021125
1.866667	1	0.021000
1.883333	1	0.019750
1.900000	1	0.018875
1.916667	1	0.018125
1.933333	1	0.017500
1.950000	1	0.016875
1.966667	1	0.015375
1.983333	1	0.014125
2.000000	1	0.013250
2.016667	1	0.011875
2.033333	1	0.010375
2.050000	1	0.008625
2.066667	1	0.006625
2.083333	1	0.005375
2.100000	1	0.004125
2.116667	1	0.002875
2.133333	1	0.000250
2.150000	1	-0.001500
2.166667	1	-0.004000
2.183333	1	-0.005625
2.200000	1	-0.008000
2.216667	1	-0.010375
2.233333	1	-0.012500
2.250000	1	-0.014125
2.266667	1	-0.016125
2.283333	1	-0.017875
2.300000	1	-0.019500
2.316667	1	-0.021250
2.333333	1	-0.022750
2.350000	1	-0.024875
2.366667	1	-0.025875
2.383333	1	-0.026250
2.400000	1	-0.026875
2.416667	1	-0.027875
2.433333	1	-0.028250
2.450000	1	-0.028625
2.466667	1	-0.027875
2.483333	1	-0.027500
2.500000	1	-0.026625
2.516667	1	-0.026375
2.533333	1	-0.025625
2.550000	1	-0.024500
2.566667	1	-0.023500
2.583333	1	-0.022500
2.600000	1	-0.021500
2.616667	1	-0.019750
2.633333	1	-0.017875
2.650000	1	-0.016500
2.666667	1	-0.015000
2.683333	1	-0.013250
2.700000	1	-0.011250
2.716667	1	-0.009500
2.733333	1	-0.008250
2.750000	1	-0.006625
2.766667	1	-0.004500
2.783333	1	-0.003125
2.800000	1	-0.001375
2.816667	1	0.000125
2.833333	1	0.002000
2.850000	1	0.003375
2.866667	1	0.004875
2.883333	1	0.006250
2.900000	1	0.007125
2.916667	1	0.008250
2.933333	1	0.009625
2.950000	1	0.011000
2.966667	1	0.012750
2.983333	1	0.014125
3.000000	1	0.015125
3.016667	1	0.015625
3.033333	1	0.016625
3.050000	1	0.018250
3.066667	1	0.018750
3.083333	1	0.020000
3.100000	1	0.020875
3.116667	1	0.021250
3.133333	1	0.022125
3.150000	1	0.022500
3.166667	1	0.023000
3.183333	1	0.023125
3.200000	1	0.024000
3.216667	1	0.024625
3.233333	1	0.025625
3.250000	1	0.026000
3.266667	1	0.026000
3.283333	1	0.026375
3.300000	1	0.025875
3.316667	1	0.025625
3.333333	1	0.025125
3.350000	1	0.025375
3.366667	1	0.024625
3.383333	1	0.024375
3.400000	1	0.023875
3.416667	1	0.023625
3.433333	1	0.022750
3.450000	1	0.022250
3.466667	1	0.022250
3.483333	1	0.020625
3.500000	1	0.019750
3.516667	1	0.018750
3.533333	1	0.018000
3.550000	1	0.017000
3.566667	1	0.015625
3.583333	1	0.014875
3.600000	1	0.013875
3.616667	1	0.012750
3.633333	1	0.011750
3.650000	1	0.010500
3.666667	1	0.009750
3.683333	1	0.008875
3.700000	1	0.008250
3.716667	1	0.007125
3.733333	1	0.005875
3.750000	1	0.005125
3.766667	1	0.004500
3.783333	1	0.003250
3.800000	1	0.002750
3.816667	1	0.001875
3.833333	1	0.001375
3.850000	1	0.000625
3.866667	1	-0.000125
3.883333	1	-0.001000
3.900000	1	-0.002125
3.916667	1	-0.003750
3.933333	1	-0.005375
3.950000	1	-0.007375
3.966667	1	-0.009250
3.983333	1	-0.010500
4.000000	1	-0.011750
4.016667	1	-0.013375
4.033333	1	-0.015250
4.050000	1	-0.017375
4.066667	1	-0.019375
4.083333	1	-0.020750
4.100000	1	-0.023250
4.116667	1	-0.025625
4.133333	1	-0.027750
4.150000	1	-0.028875
4.166667	1	-0.030500
4.183333	1	-0.031875
4.200000	1	-0.033250
4.216667	1	-0.034375
4.233333	1	-0.035250
4.250000	1	-0.035500
4.266667	1	-0.036000
4.283333	1	-0.036000
4.300000	1	-0.036250
4.316667	1	-0.035875
4.333333	1	-0.035250
4.350000	1	-0.034625
4.366667	1	-0.033250
4.383333	1	-0.031500
4.400000	1	-0.030375
4.416667	1	-0.028375
4.433333	1	-0.026000
4.450000	1	-0.023125
4.466667	1	-0.019875
4.483333	1	-0.016750
4.500000	1	-0.014000
4.516667	1	-0.010750
4.533333	1	-0.007500
4.550000	1	-0.004625
4.566667	1	-0.001000
4.583333	1	0.003000
4.600000	1	0.006875
4.616667	1	0.011000
4.633333	1	0.015250
4.650000	1	0.019000
4.666667	1	0.023250
4.683333	1	0.027250
4.700000	1	0.030375
4.716667	1	0.032875
4.733333	1	0.036750
4.750000	1	0.040125
4.766667	1	0.043750
4.783333	1	0.046250
4.800000	1	0.048625
4.816667	1	0.051125
4.833333	1	0.053875
4.850000	1	0.056750
4.866667	1	0.059625
4.883333	1	0.061375
4.900000	1	0.063375
4.916667	1	0.065375
4.933333	1	0.067500
4.950000	1	0.069375
4.966667	1	0.071250
4.983333	1	0.073625
5.000000	1	0.075375
5.016667	1	0.076750
5.033333	1	0.078125
5.050000	1	0.079625
5.066667	1	0.081250
5.083333	1	0.083000
5.100000	1	0.085125
5.116667	1	0.087250
5.133333	1	0.089125
5.150000	1	0.091875
5.166667	1	0.094500
5.183333	1	0.097875
5.200000	1	0.100625
5.216667	1	0.103750
5.233333	1	0.106625
5.250000	1	0.109500
5.266667	1	0.112375
5.283333	1	0.115875
5.300000	1	0.119250
5.316667	1	0.123125
5.333333	1	0.126875
5.350000	1	0.130250
5.366667	1	0.134375
5.383333	1	0.138500
5.400000	1	0.142875
5.416667	1	0.148250
5.433333	1	0.153250
5.450000	1	0.157625
5.466667	1	0.162500
5.483333	1	0.167000
5.500000	1	0.170750
5.516667	1	0.176125
5.533333	1	0.181500
5.550000	1	0.186250
5.566667	1	0.191250
5.583333	1	0.196625
5.600000	1	0.201375
5.616667	1	0.206000
5.633333	1	0.210250
5.650000	1	0.214000
5.666667	1	0.218500
5.683333	1	0.222750
5.700000	1	0.226750
5.716667	1	0.230000
5.733333	1	0.233375
5.750000	1	0.236750
5.766667	1	0.239625
5.783333	1	0.242250
5.800000	1	0.245125
5.816667	1	0.248000
5.833333	1	0.250000
5.850000	1	0.251125
5.866667	1	0.252000
5.883333	1	0.252875
5.900000	1	0.253625
5.916667	1	0.254750
5.933333	1	0.254625
5.950000	1	0.254125
5.966667	1	0.253875
5.983333	1	0.252875
6.000000	1	0.251625
6.016667	1	0.250375
6.033333	1	0.248750
6.050000	1	0.247625
6.066667	1	0.246125
6.083333	1	0.244250
6.100000	1	0.242000
6.116667	1	0.239500
6.133333	1	0.237125
6.150000	1	0.234375
6.166667	1	0.232125
6.183333	1	0.228750
6.200000	1	0.225750
6.216667	1	0.223250
6.233333	1	0.220500
6.250000	1	0.217000
6.266667	1	0.213625
6.283333	1	0.210000
6.300000	1	0.206500
6.316667	1	0.203375
6.333333	1	0.199875
6.350000	1	0.196125
6.366667	1	0.192125
6.383333	1	0.188875
6.400000	1	0.185250
6.416667	1	0.181125
6.433333	1	0.177375
6.450000	1	0.173625
6.466667	1	0.169500
6.483333	1	0.165750
6.500000	1	0.161375
6.516667	1	0.157750
6.533333	1	0.153875
6.550000	1	0.150375
6.566667	1	0.146125
6.583333	1	0.142375
6.600000	1	0.138250
6.616667	1	0.134250
6.633333	1	0.131000
6.650000	1	0.127125
6.666667	1	0.123500
6.683333	1	0.119375
6.700000	1	0.115500
6.716667	1	0.112250
6.733333	1	0.108250
6.750000	1	0.104500
6.766667	1	0.101750
6.783333	1	0.098875
6.800000	1	0.095625
6.816667	1	0.092250
6.833333	1	0.090250
6.850000	1	0.087500
6.866667	1	0.085000
6.883333	1	0.082250
6.900000	1	0.079875
6.916667	1	0.078125
6.933333	1	0.075875
6.950000	1	0.074500
6.966667	1	0.073500
6.983333	1	0.072000
7.000000	1	0.070625
7.016667	1	0.070000
7.033333	1	0.069000
7.050000	1	0.068375
7.066667	1	0.068375
7.083333	1	0.068000
7.100000	1	0.067250
7.116667	1	0.067750
7.133333	1	0.068125
7.150000	1	0.068625
7.166667	1	0.069000
7.183333	1	0.070000
7.200000	1	0.070500
7.216667	1	0.071000
7.233333	1	0.072000
7.250000	1	0.073625
7.266667	1	0.074250
7.283333	1	0.075500
7.300000	1	0.077125
7.316667	1	0.078625
7.333333	1	0.081000
7.350000	1	0.082750
7.366667	1	0.084500
7.383333	1	0.086000
7.400000	1	0.089000
7.416667	1	0.091000
7.433333	1	0.092750
7.450000	1	0.095500
7.466667	1	0.098375
7.483333	1	0.099750
7.500000	1	0.102250
7.516667	1	0.103625
7.533333	1	0.106500
7.550000	1	0.108000
7.566667	1	0.109750
7.583333	1	0.111625
7.600000	1	0.113250
7.616667	1	0.114250
7.633333	1	0.116250
7.650000	1	0.117500
7.666667	1	0.118875
7.683333	1	0.119875
7.700000	1	0.120625
7.716667	1	0.121750
7.733333	1	0.122000
7.750000	1	0.122500
7.766667	1	0.123125
7.783333	1	0.122875
7.800000	1	0.123125
7.816667	1	0.122750
7.833333	1	0.121500
7.850000	1	0.120125
7.866667	1	0.118875
7.883333	1	0.117250
7.900000	1	0.115875
7.916667	1	0.114500
7.933333	1	0.111625
7.950000	1	0.109125
7.966667	1	0.105875
7.983333	1	0.102625
8.000000	1	0.099250
8.016667	1	0.096125
8.033333	1	0.092250
8.050000	1	0.088500
8.066667	1	0.084250
8.083333	1	0.080375
8.100000	1	0.075750
8.116667	1	0.071375
8.133333	1	0.067750
8.150000	1	0.062750
8.166667	1	0.057500
8.183333	1	0.052750
8.200000	1	0.047875
8.216667	1	0.043750
8.233333	1	0.039125
8.250000	1	0.034125
8.266667	1	0.029875
8.283333	1	0.025250
8.300000	1	0.021125
8.316667	1	0.016125
8.333333	1	0.011500
8.350000	1	0.007250
8.366667	1	0.004125
8.383333	1	0.000750
8.400000	1	-0.002250
8.416667	1	-0.005125
8.433333	1	-0.008250
8.450000	1	-0.010875
8.466667	1	-0.013250
8.483333	1	-0.015375
8.500000	1	-0.017875
8.516667	1	-0.019875
8.533333	1	-0.021375
8.550000	1	-0.022875
8.566667	1	-0.024375
8.583333	1	-0.025625
8.600000	1	-0.026750
8.616667	1	-0.027875
8.633333	1	-0.028750
8.650000	1	-0.029000
8.666667	1	-0.030000
8.683333	1	-0.030875
8.700000	1	-0.031000
8.716667	1	-0.031000
8.733333	1	-0.030500
8.750000	1	-0.030125
8.766667	1	-0.030375
8.783333	1	-0.030250
8.800000	1	-0.029875
8.816667	1	-0.029625
8.833333	1	-0.029625
8.850000	1	-0.029250
8.866667	1	-0.028375
8.883333	1	-0.028000
8.900000	1	-0.028250
8.916667	1	-0.028000
8.933333	1	-0.027625
8.950000	1	-0.026625
8.966667	1	-0.026250
8.983333	1	-0.025500
9.000000	1	-0.024750
9.016667	1	-0.024250
9.033333	1	-0.023375
9.050000	1	-0.023000
9.066667	1	-0.022000
9.083333	1	-0.021375
9.100000	1	-0.020750
9.116667	1	-0.019625
9.133333	1	-0.018250
9.150000	1	-0.016625
9.166667	1	-0.015000
9.183333	1	-0.014125
9.200000	1	-0.013125
9.216667	1	-0.011750
9.233333	1	-0.011375
9.250000	1	-0.009500
9.266667	1	-0.008500
9.283333	1	-0.007500
9.300000	1	-0.006375
9.316667	1	-0.005000
9.333333	1	-0.003375
9.350000	1	-0.001625
9.366667	1	-0.000750
9.383333	1	-0.000125
9.400000	1	0.001125
9.416667	1	0.002125
9.433333	1	0.003125
9.450000	1	0.003625
9.466667	1	0.005125
9.483333	1	0.005625
9.500000	1	0.006875
9.516667	1	0.007500
9.533333	1	0.008000
9.550000	1	0.008875
9.566667	1	0.009625
9.583333	1	0.010625
9.600000	1	0.011625
9.616667	1	0.011625
9.633333	1	0.011750
9.650000	1	0.011375
9.666667	1	0.011250
9.683333	1	0.011250
9.700000	1	0.011250
9.716667	1	0.011000
9.733333	1	0.010750
9.750000	1	0.010125
9.766667	1	0.009625
9.783333	1	0.008750
9.800000	1	0.007750
9.816667	1	0.006500
9.833333	1	0.005500
9.850000	1	0.004250
9.866667	1	0.003000
9.883333	1	0.002500
9.900000	1	0.001250
9.916667	1	0.000000
9.933333	1	-0.001125
9.950000	1	-0.001625
9.966667	1	-0.002125
9.983333	1	-0.002625
10.000000	1	-0.003250
10.016667	1	-0.003250
10.033333	1	-0.002375
10.050000	1	-0.000875
10.066667	1	0.000125
10.083333	1	0.003250
10.100000	1	0.006000
10.116667	1	0.010250
10.133333	1	0.014625
10.150000	1	0.019750
10.166667	1	0.026250
10.183333	1	0.034125
10.200000	1	0.043125
10.216667	1	0.053625
10.233333	1	0.066500
10.250000	1	0.080625
10.266667	1	0.098250
10.283333	1	0.117250
10.300000	1	0.139000
10.316667	1	0.163250
10.333333	1	0.190750
10.350000	1	0.222125
10.366667	1	0.258875
10.383333	1	0.300875
10.400000	1	0.348250
10.416667	1	0.398125
10.433333	1	0.445625
10.450000	1	0.478250
10.466667	1	0.482875
10.483333	1	0.449125
10.500000	1	0.377375
10.516667	1	0.293750
10.533333	1	0.250250
10.550000	1	0.328750
10.566667	1	0.629000
10.583333	1	1.256250
10.600000	1	2.308750
10.616667	1	3.866125
10.633333	1	5.984625
10.650000	1	8.696875
10.666667	1	12.015750
10.683333	1	15.933000
10.700000	1	20.409500
10.716667	1	25.371750
10.733333	1	30.696750
10.750000	1	36.194250
10.766667	1	41.582875
10.783333	1	46.491500
10.800000	1	50.471250
10.816667	1	53.058250
10.833333	1	53.898875
10.850000	1	52.864250
10.866667	1	50.106875
10.883333	1	46.023625
10.900000	1	41.134375
10.916667	1	35.946000
10.933333	1	30.855750
10.950000	1	26.125875
10.966667	1	21.899375
10.983333	1	18.231375
11.000000	1	15.120625
11.016667	1	12.530250
11.033333	1	10.407250
11.050000	1	8.685875
11.066667	1	7.300125
11.083333	1	6.190250
11.100000	1	5.302000
11.116667	1	4.589125
11.133333	1	4.014750
11.150000	1	3.549500
11.166667	1	3.169500
11.183333	1	2.856000
11.200000	1	2.595625
11.216667	1	2.376375
11.233333	1	2.191250
11.250000	1	2.033375
11.266667	1	1.897625
11.283333	1	1.779875
11.300000	1	1.678125
11.316667	1	1.589375
11.333333	1	1.511750
11.350000	1	1.443500
11.366667	1	1.383250
11.383333	1	1.330375
11.400000	1	1.283375
11.416667	1	1.241250
11.433333	1	1.203625
11.450000	1	1.170000
11.466667	1	1.139125
11.483333	1	1.111875
11.500000	1	1.086750
11.516667	1	1.064250
11.533333	1	1.044125
11.550000	1	1.025375
11.566667	1	1.008875
11.583333	1	0.994500
11.600000	1	0.981625
11.616667	1	0.970250
11.633333	1	0.960375
11.650000	1	0.952000
11.666667	1	0.945125
11.683333	1	0.939250
11.700000	1	0.936125
11.716667	1	0.934250
11.733333	1	0.934250
11.750000	1	0.936375
11.766667	1	0.939125
11.783333	1	0.943500
11.800000	1	0.948625
11.816667	1	0.954000
11.833333	1	0.960250
11.850000	1	0.966250
11.866667	1	0.971875
11.883333	1	0.977250
11.900000	1	0.982625
11.916667	1	0.987750
11.933333	1	0.992625
11.950000	1	0.998125
11.966667	1	1.002750
11.983333	1	1.009250
12.000000	1	1.015750
12.016667	1	1.023250
12.033333	1	1.031625
12.050000	1	1.040250
12.066667	1	1.049875
12.083333	1	1.059625
12.100000	1	1.070000
12.116667	1	1.081250
12.133333	1	1.093875
12.150000	1	1.107000
12.166667	1	1.122500
12.183333	1	1.139125
12.200000	1	1.157875
12.216667	1	1.179000
12.233333	1	1.202625
12.250000	1	1.229000
12.266667	1	1.258875
12.283333	1	1.291500
12.300000	1	1.327250
12.316667	1	1.367250
12.333333	1	1.412375
12.350000	1	1.462625
12.366667	1	1.522250
12.383333	1	1.593125
12.400000	1	1.680750
12.416667	1	1.791250
12.433333	1	1.931625
12.450000	1	2.109625
12.466667	1	2.334000
12.483333	1	2.612125
12.500000	1	2.950125
12.516667	1	3.352000
12.533333	1	3.816875
12.550000	1	4.339750
12.566667	1	4.912250
12.583333	1	5.522625
12.600000	1	6.157500
12.616667	1	6.799875
12.633333	1	7.434625
12.650000	1	8.049000
12.666667	1	8.634500
12.683333	1	9.185375
12.700000	1	9.702875
12.716667	1	10.190125
12.733333	1	10.654375
12.750000	1	11.104000
12.766667	1	11.549125
12.783333	1	11.999625
12.800000	1	12.461750
12.816667	1	12.943500
12.833333	1	13.448375
12.850000	1	13.976375
12.866667	1	14.518375
12.883333	1	15.039625
12.900000	1	15.465125
12.916667	1	15.677250
12.933333	1	15.547125
12.950000	1	14.992875
12.966667	1	14.023375
12.983333	1	12.736375
13.000000	1	11.282500
13.016667	1	9.806750
13.033333	1	8.415875
13.050000	1	7.169875
13.066667	1	6.090500
13.083333	1	5.176500
13.100000	1	4.416750
13.116667	1	3.792250
13.133333	1	3.286250
13.150000	1	2.878875
13.166667	1	2.553625
13.183333	1	2.294375
13.200000	1	2.088125
13.216667	1	1.922625
13.233333	1	1.790750
13.250000	1	1.682625
13.266667	1	1.593875
13.283333	1	1.519375
13.300000	1	1.456250
13.316667	1	1.401750
13.333333	1	1.353750
13.350000	1	1.311375
13.366667	1	1.272625
13.383333	1	1.238375
13.400000	1	1.207500
13.416667	1	1.180500
13.433333	1	1.155625
13.450000	1	1.135000
13.466667	1	1.116875
13.483333	1	1.101750
13.500000	1	1.089750
13.516667	1	1.079625
13.533333	1	1.071500
13.550000	1	1.065375
13.566667	1	1.060375
13.583333	1	1.054875
13.600000	1	1.047875
13.616667	1	1.040125
13.633333	1	1.031125
13.650000	1	1.019750
13.666667	1	1.006750
13.683333	1	0.990875
13.700000	1	0.973625
13.716667	1	0.954625
13.733333	1	0.935250
13.750000	1	0.915500
13.766667	1	0.895250
13.783333	1	0.875125
13.800000	1	0.856000
13.816667	1	0.836500
13.833333	1	0.818500
13.850000	1	0.801375
13.866667	1	0.784875
13.883333	1	0.769250
13.900000	1	0.754375
13.916667	1	0.739875
13.933333	1	0.726125
13.950000	1	0.713750
13.966667	1	0.701625
13.983333	1	0.690500
14.000000	1	0.679875
14.016667	1	0.669625
14.033333	1	0.660375
14.050000	1	0.651375
14.066667	1	0.642625
14.083333	1	0.634125
14.100000	1	0.626250
14.116667	1	0.619000
14.133333	1	0.613000
14.150000	1	0.606750
14.166667	1	0.601750
14.183333	1	0.597625
14.200000	1	0.594375
14.216667	1	0.591875
14.233333	1	0.589625
14.250000	1	0.588250
14.266667	1	0.589000
14.283333	1	0.591125
14.300000	1	0.594875
14.316667	1	0.599875
14.333333	1	0.607125
14.350000	1	0.615875
14.366667	1	0.626250
14.383333	1	0.637875
14.400000	1	0.652875
14.416667	1	0.670500
14.433333	1	0.691500
14.450000	1	0.719750
14.466667	1	0.760250
14.483333	1	0.822000
14.500000	1	0.917875
14.516667	1	1.069625
14.533333	1	1.304375
14.550000	1	1.662250
14.566667	1	2.195750
14.583333	1	2.967750
14.600000	1	4.053250
14.616667	1	5.539250
14.633333	1	7.515250
14.650000	1	10.066500
14.666667	1	13.258250
14.683333	1	17.127500
14.700000	1	21.666500
14.716667	1	26.812875
14.733333	1	32.445375
14.750000	1	38.389750
14.766667	1	44.416500
14.783333	1	50.258750
14.800000	1	55.642875
14.816667	1	60.308000
14.833333	1	64.021625
14.850000	1	66.607375
14.866667	1	67.961375
14.883333	1	68.058875
14.900000	1	66.959250
14.916667	1	64.794500
14.933333	1	61.741625
14.950000	1	58.008625
14.966667	1	53.812750
14.983333	1	49.364375
15.000000	1	44.841250
15.016667	1	40.387500
15.033333	1	36.113000
15.050000	1	32.094625
15.066667	1	28.381375
15.083333	1	24.996625
15.100000	1	21.947375
15.116667	1	19.224000
15.133333	1	16.807000
15.150000	1	14.670750
15.166667	1	12.790375
15.183333	1	11.139875
15.200000	1	9.694000
15.216667	1	8.431250
15.233333	1	7.330750
15.250000	1	6.375250
15.266667	1	5.549750
15.283333	1	4.842500
15.300000	1	4.240250
15.316667	1	3.731250
15.333333	1	3.306875
15.350000	1	2.956625
15.366667	1	2.671250
15.383333	1	2.442375
15.400000	1	2.260375
15.416667	1	2.117875
15.433333	1	2.006125
15.450000	1	1.918750
15.466667	1	1.848000
15.483333	1	1.789000
15.500000	1	1.736750
15.516667	1	1.687750
15.533333	1	1.640000
15.550000	1	1.591500
15.566667	1	1.542250
15.583333	1	1.493625
15.600000	1	1.445125
15.616667	1	1.396625
15.633333	1	1.349250
15.650000	1	1.304375
15.666667	1	1.262375
15.683333	1	1.223000
15.700000	1	1.186500
15.716667	1	1.153250
15.733333	1	1.122375
15.750000	1	1.092500
15.766667	1	1.064625
15.783333	1	1.038625
15.800000	1	1.014375
15.816667	1	0.990875
15.833333	1	0.970625
15.850000	1	0.951875
15.866667	1	0.934875
15.883333	1	0.920875
15.900000	1	0.909375
15.916667	1	0.902000
15.933333	1	0.897625
15.950000	1	0.896125
15.966667	1	0.898500
15.983333	1	0.903250
16.000000	1	0.910000
16.016667	1	0.918375
16.033333	1	0.927000
16.050000	1	0.936500
16.066667	1	0.944375
16.083333	1	0.950875
16.100000	1	0.954875
16.116667	1	0.957875
16.133333	1	0.957625
16.150000	1	0.955625
16.166667	1	0.950500
16.183333	1	0.943375
16.200000	1	0.935125
16.216667	1	0.925875
16.233333	1	0.914500
16.250000	1	0.902500
16.266667	1	0.889750
16.283333	1	0.877500
16.300000	1	0.866000
16.316667	1	0.854750
16.333333	1	0.844875
16.350000	1	0.835375
16.366667	1	0.828625
16.383333	1	0.824250
16.400000	1	0.821750
16.416667	1	0.821375
16.433333	1	0.822750
16.450000	1	0.826125
16.466667	1	0.831250
16.483333	1	0.837000
16.500000	1	0.843250
16.516667	1	0.848750
16.533333	1	0.854000
16.550000	1	0.858000
16.566667	1	0.860500
16.583333	1	0.861750
16.600000	1	0.860875
16.616667	1	0.858875
16.633333	1	0.855875
16.650000	1	0.852125
16.666667	1	0.847750
16.683333	1	0.844125
16.700000	1	0.841875
16.716667	1	0.841625
16.733333	1	0.841750
16.750000	1	0.844500
16.766667	1	0.849125
16.783333	1	0.856125
16.800000	1	0.864125
16.816667	1	0.873125
16.833333	1	0.881625
16.850000	1	0.890625
16.866667	1	0.898875
16.883333	1	0.906250
16.900000	1	0.911500
16.916667	1	0.915500
16.933333	1	0.917375
16.950000	1	0.918375
16.966667	1	0.918000
16.983333	1	0.916750
17.000000	1	0.915375
17.016667	1	0.913500
17.033333	1	0.911750
17.050000	1	0.911250
17.066667	1	0.911750
17.083333	1	0.912750
17.100000	1	0.915375
17.116667	1	0.918375
17.133333	1	0.922750
17.150000	1	0.928000
17.166667	1	0.932875
17.183333	1	0.938375
17.200000	1	0.943375
17.216667	1	0.949125
17.233333	1	0.954625
17.250000	1	0.959500
17.266667	1	0.964625
17.283333	1	0.969750
17.300000	1	0.973750
17.316667	1	0.978750
17.333333	1	0.983000
17.350000	1	0.988000
17.366667	1	0.992000
17.383333	1	0.996125
17.400000	1	0.999875
17.416667	1	1.003625
17.433333	1	1.005875
17.450000	1	1.007375
17.466667	1	1.007750
17.483333	1	1.007375
17.500000	1	1.004750
17.516667	1	1.001500
17.533333	1	0.995500
17.550000	1	0.989250
17.566667	1	0.981125
17.583333	1	0.972000
17.600000	1	0.961500
17.616667	1	0.950000
17.633333	1	0.937875
17.650000	1	0.924375
17.666667	1	0.910875
17.683333	1	0.897375
17.700000	1	0.883500
17.716667	1	0.869000
17.733333	1	0.855000
17.750000	1	0.841625
17.766667	1	0.829250
17.783333	1	0.817000
17.800000	1	0.806250
17.816667	1	0.796250
17.833333	1	0.786875
17.850000	1	0.777750
17.866667	1	0.768750
17.883333	1	0.761250
17.900000	1	0.754250
17.916667	1	0.746750
17.933333	1	0.740125
17.950000	1	0.733500
17.966667	1	0.726500
17.983333	1	0.720000
18.000000	1	0.713875
18.016667	1	0.706625
18.033333	1	0.699500
18.050000	1	0.693125
18.066667	1	0.685625
18.083333	1	0.679125
18.100000	1	0.673125
18.116667	1	0.667125
18.133333	1	0.662250
18.150000	1	0.657625
18.166667	1	0.653625
18.183333	1	0.650250
18.200000	1	0.647750
18.216667	1	0.645125
18.233333	1	0.643250
18.250000	1	0.641625
18.266667	1	0.639750
18.283333	1	0.638125
18.300000	1	0.636500
18.316667	1	0.635625
18.333333	1	0.635125
18.350000	1	0.634625
18.366667	1	0.635500
18.383333	1	0.636750
18.400000	1	0.640125
18.416667	1	0.644875
18.433333	1	0.651250
18.450000	1	0.659750
18.466667	1	0.670625
18.483333	1	0.683875
18.500000	1	0.699500
18.516667	1	0.716625
18.533333	1	0.736250
18.550000	1	0.757875
18.566667	1	0.782625
18.583333	1	0.808500
18.600000	1	0.836250
18.616667	1	0.865750
18.633333	1	0.898000
18.650000	1	0.930750
18.666667	1	0.965750
18.683333	1	1.001500
18.700000	1	1.038500
18.716667	1	1.075375
18.733333	1	1.112875
18.750000	1	1.151750
18.766667	1	1.189500
18.783333	1	1.226125
18.800000	1	1.261625
18.816667	1	1.295875
18.833333	1	1.326625
18.850000	1	1.353500
18.866667	1	1.375750
18.883333	1	1.392500
18.900000	1	1.404000
18.916667	1	1.409125
18.933333	1	1.406750
18.950000	1	1.397875
18.966667	1	1.382500
18.983333	1	1.359875
19.000000	1	1.331125
19.016667	1	1.296750
19.033333	1	1.257750
19.050000	1	1.214375
19.066667	1	1.167625
19.083333	1	1.119625
19.100000	1	1.070250
19.116667	1	1.021250
19.133333	1	0.973750
19.150000	1	0.928000
19.166667	1	0.885500
19.183333	1	0.845750
19.200000	1	0.809875
19.216667	1	0.778125
19.233333	1	0.751750
19.250000	1	0.730375
19.266667	1	0.715125
19.283333	1	0.705375
19.300000	1	0.701750
19.316667	1	0.704125
19.333333	1	0.713000
19.350000	1	0.726875
19.366667	1	0.745125
19.383333	1	0.768125
19.400000	1	0.794250
19.416667	1	0.823125
19.433333	1	0.852500
19.450000	1	0.881875
19.466667	1	0.910625
19.483333	1	0.937250
19.500000	1	0.959625
19.516667	1	0.978750
19.533333	1	0.992000
19.550000	1	1.000750
19.566667	1	1.003750
19.583333	1	1.002625
19.600000	1	0.995375
19.616667	1	0.982875
19.633333	1	0.965750
19.650000	1	0.945250
19.666667	1	0.921375
19.683333	1	0.895125
19.700000	1	0.866750
19.716667	1	0.836750
19.733333	1	0.806500
19.750000	1	0.775500
19.766667	1	0.745125
19.783333	1	0.715125
19.800000	1	0.686375
19.816667	1	0.658375
19.833333	1	0.631625
19.850000	1	0.605875
19.866667	1	0.582000
19.883333	1	0.559875
19.900000	1	0.539500
19.916667	1	0.520625
19.933333	1	0.504000
19.950000	1	0.488750
19.966667	1	0.475625
19.983333	1	0.465000
20.000000	1	0.456500
20.016667	1	0.450250
20.033333	1	0.445625
20.050000	1	0.444500
20.066667	1	0.446250
20.083333	1	0.450750
20.100000	1	0.457625
20.116667	1	0.467375
20.133333	1	0.479875
20.150000	1	0.494875
20.166667	1	0.512125
20.183333	1	0.530000
20.200000	1	0.547875
20.216667	1	0.566500
20.233333	1	0.583625
20.250000	1	0.599625
20.266667	1	0.613625
20.283333	1	0.625000
20.300000	1	0.632125
20.316667	1	0.636375
20.333333	1	0.636375
20.350000	1	0.632750
20.366667	1	0.625500
20.383333	1	0.615250
20.400000	1	0.602750
20.416667	1	0.587625
20.433333	1	0.571125
20.450000	1	0.553500
20.466667	1	0.536125
20.483333	1	0.519375
20.500000	1	0.504750
20.516667	1	0.492250
20.533333	1	0.482625
20.550000	1	0.476500
20.566667	1	0.475875
20.583333	1	0.480375
20.600000	1	0.492000
20.616667	1	0.510375
20.633333	1	0.536375
20.650000	1	0.571125
20.666667	1	0.614250
20.683333	1	0.666875
20.700000	1	0.728625
20.716667	1	0.797250
20.733333	1	0.873125
20.750000	1	0.954375
20.766667	1	1.039375
20.783333	1	1.124875
20.800000	1	1.209625
20.816667	1	1.290250
20.833333	1	1.363625
20.850000	1	1.427500
20.866667	1	1.479625
20.883333	1	1.518500
20.900000	1	1.544500
20.916667	1	1.555750
20.933333	1	1.552000
20.950000	1	1.535375
20.966667	1	1.505875
20.983333	1	1.465750
21.000000	1	1.416250
21.016667	1	1.359875
21.033333	1	1.298125
21.050000	1	1.233125
21.066667	1	1.165875
21.083333	1	1.099500
21.100000	1	1.034500
21.116667	1	0.972125
21.133333	1	0.912625
21.150000	1	0.856375
21.166667	1	0.803500
21.183333	1	0.755375
21.200000	1	0.711125
21.216667	1	0.670875
21.233333	1	0.633500
21.250000	1	0.600125
21.266667	1	0.569750
21.283333	1	0.542625
21.300000	1	0.519250
21.316667	1	0.497750
21.333333	1	0.479000
21.350000	1	0.462000
21.366667	1	0.447125
21.383333	1	0.433000
21.400000	1	0.421250
21.416667	1	0.411000
21.433333	1	0.401625
21.450000	1	0.394250
21.466667	1	0.387750
21.483333	1	0.382500
21.500000	1	0.377375
21.516667	1	0.374500
21.533333	1	0.372500
21.550000	1	0.372125
21.566667	1	0.373375
21.583333	1	0.376625
21.600000	1	0.382000
21.616667	1	0.390375
21.633333	1	0.401125
21.650000	1	0.414875
21.666667	1	0.431500
21.683333	1	0.451625
21.700000	1	0.475000
21.716667	1	0.502000
21.733333	1	0.532375
21.750000	1	0.566000
21.766667	1	0.602000
21.783333	1	0.640625
21.800000	1	0.681000
21.816667	1	0.722625
21.833333	1	0.763625
21.850000	1	0.804375
21.866667	1	0.843625
21.883333	1	0.879500
21.900000	1	0.912125
21.916667	1	0.941000
21.933333	1	0.965500
21.950000	1	0.984000
21.966667	1	0.997625
21.983333	1	1.006250
22.000000	1	1.010125
22.016667	1	1.008500
22.033333	1	1.001750
22.050000	1	0.991500
22.066667	1	0.977125
22.083333	1	0.959875
22.100000	1	0.939500
22.116667	1	0.918750
22.133333	1	0.896625
22.150000	1	0.872625
22.166667	1	0.847875
22.183333	1	0.823000
22.200000	1	0.798125
22.216667	1	0.773000
22.233333	1	0.747250
22.250000	1	0.722000
22.266667	1	0.696875
22.283333	1	0.671625
22.300000	1	0.647500
22.316667	1	0.623000
22.333333	1	0.599500
22.350000	1	0.576375
22.366667	1	0.553625
22.383333	1	0.531250
22.400000	1	0.510750
22.416667	1	0.490625
22.433333	1	0.471375
22.450000	1	0.453750
22.466667	1	0.437125
22.483333	1	0.420875
22.500000	1	0.406125
22.516667	1	0.392375
22.533333	1	0.379625
22.550000	1	0.367625
22.566667	1	0.356625
22.583333	1	0.346250
22.600000	1	0.336750
22.616667	1	0.327500
22.633333	1	0.318500
22.650000	1	0.310375
22.666667	1	0.303875
22.683333	1	0.296250
22.700000	1	0.289375
22.716667	1	0.282875
22.733333	1	0.277500
22.750000	1	0.272000
22.766667	1	0.266500
22.783333	1	0.260750
22.800000	1	0.256000
22.816667	1	0.251875
22.833333	1	0.247875
22.850000	1	0.243000
22.866667	1	0.238875
22.883333	1	0.235250
22.900000	1	0.231500
22.916667	1	0.228000
22.933333	1	0.225375
22.950000	1	0.223250
22.966667	1	0.221000
22.983333	1	0.219750
23.000000	1	0.218375
23.016667	1	0.218000
23.033333	1	0.216625
23.050000	1	0.216375
23.066667	1	0.216500
23.083333	1	0.216500
23.100000	1	0.217375
23.116667	1	0.218625
23.133333	1	0.220125
23.150000	1	0.220875
23.166667	1	0.221500
23.183333	1	0.223250
23.200000	1	0.224625
23.216667	1	0.225000
23.233333	1	0.226125
23.250000	1	0.227625
23.266667	1	0.229125
23.283333	1	0.231125
23.300000	1	0.234125
23.316667	1	0.238000
23.333333	1	0.244500
23.350000	1	0.252000
23.366667	1	0.263250
23.383333	1	0.278625
23.400000	1	0.298750
23.416667	1	0.325375
23.433333	1	0.361125
23.450000	1	0.406625
23.466667	1	0.465750
23.483333	1	0.537750
23.500000	1	0.627625
23.516667	1	0.737875
23.533333	1	0.870875
23.550000	1	1.027250
23.566667	1	1.209750
23.583333	1	1.419125
23.600000	1	1.656250
23.616667	1	1.920250
23.633333	1	2.208750
23.650000	1	2.520125
23.666667	1	2.849000
23.683333	1	3.192625
23.700000	1	3.543250
23.716667	1	3.895000
23.733333	1	4.240250
23.750000	1	4.571750
23.766667	1	4.880250
23.783333	1	5.159250
23.800000	1	5.401375
23.816667	1	5.600625
23.833333	1	5.754375
23.850000	1	5.859750
23.866667	1	5.915875
23.883333	1	5.922500
23.900000	1	5.881125
23.916667	1	5.795125
23.933333	1	5.668625
23.950000	1	5.506375
23.966667	1	5.313125
23.983333	1	5.095500
24.000000	1	4.859750
24.016667	1	4.611250
24.033333	1	4.354125
24.050000	1	4.094625
24.066667	1	3.835875
24.083333	1	3.581250
24.100000	1	3.334125
24.116667	1	3.095250
24.133333	1	2.866375
24.150000	1	2.649375
24.166667	1	2.444875
24.183333	1	2.252750
24.200000	1	2.073375
24.216667	1	1.906625
24.233333	1	1.752375
24.250000	1	1.609375
24.266667	1	1.477000
24.283333	1	1.356750
24.300000	1	1.245500
24.316667	1	1.143875
24.333333	1	1.050875
24.350000	1	0.966625
24.366667	1	0.891000
24.383333	1	0.822875
24.400000	1	0.762375
24.416667	1	0.708750
24.433333	1	0.661375
24.450000	1	0.618875
24.466667	1	0.582000
24.483333	1	0.550250
24.500000	1	0.522500
24.516667	1	0.499375
24.533333	1	0.479125
24.550000	1	0.461875
24.566667	1	0.446250
24.583333	1	0.433000
24.600000	1	0.421625
24.616667	1	0.411000
24.633333	1	0.401000
24.650000	1	0.392625
24.666667	1	0.385125
24.683333	1	0.377000
24.700000	1	0.369750
24.716667	1	0.363000
24.733333	1	0.356625
24.750000	1	0.349375
24.766667	1	0.343125
24.783333	1	0.335750
24.800000	1	0.329000
24.816667	1	0.321875
24.833333	1	0.315125
24.850000	1	0.308750
24.866667	1	0.302875
24.883333	1	0.297250
24.900000	1	0.292125
24.916667	1	0.286500
24.933333	1	0.282000
24.950000	1	0.277125
24.966667	1	0.272875
24.983333	1	0.268875
25.000000	1	0.264500
25.016667	1	0.261125
25.033333	1	0.257000
25.050000	1	0.254000
25.066667	1	0.251125
25.083333	1	0.248750
25.100000	1	0.246000
25.116667	1	0.244000
25.133333	1	0.241875
25.150000	1	0.239625
25.166667	1	0.237375
25.183333	1	0.234750
25.200000	1	0.232125
25.216667	1	0.229875
25.233333	1	0.227625
25.250000	1	0.225500
25.266667	1	0.222750
25.283333	1	0.220250
25.300000	1	0.218000
25.316667	1	0.216250
25.333333	1	0.213875
25.350000	1	0.211375
25.366667	1	0.209625
25.383333	1	0.208125
25.400000	1	0.205875
25.416667	1	0.204125
25.433333	1	0.202750
25.450000	1	0.201250
25.466667	1	0.200000
25.483333	1	0.199000
25.500000	1	0.197875
25.516667	1	0.198125
25.533333	1	0.197500
25.550000	1	0.197375
25.566667	1	0.197250
25.583333	1	0.197125
25.600000	1	0.197125
25.616667	1	0.197375
25.633333	1	0.198250
25.650000	1	0.199125
25.666667	1	0.198750
25.683333	1	0.199250
25.700000	1	0.200250
25.716667	1	0.200500
25.733333	1	0.201125
25.750000	1	0.201750
25.766667	1	0.202250
25.783333	1	0.203125
25.800000	1	0.204125
25.816667	1	0.204875
25.833333	1	0.205500
25.850000	1	0.206750
25.866667	1	0.207875
25.883333	1	0.208875
25.900000	1	0.210000
25.916667	1	0.211250
25.933333	1	0.212625
25.950000	1	0.214500
25.966667	1	0.216125
25.983333	1	0.218500
26.000000	1	0.220625
26.016667	1	0.223375
26.033333	1	0.226375
26.050000	1	0.229875
26.066667	1	0.233000
26.083333	1	0.236750
26.100000	1	0.240750
26.116667	1	0.245000
26.133333	1	0.249750
26.150000	1	0.254750
26.166667	1	0.260125
26.183333	1	0.265625
26.200000	1	0.271250
26.216667	1	0.276500
26.233333	1	0.282000
26.250000	1	0.288000
26.266667	1	0.293625
26.283333	1	0.299500
26.300000	1	0.305375
26.316667	1	0.311125
26.333333	1	0.315000
26.350000	1	0.319250
26.366667	1	0.322875
26.383333	1	0.325250
26.400000	1	0.327375
26.416667	1	0.329125
26.433333	1	0.329875
26.450000	1	0.330750
26.466667	1	0.330500
26.483333	1	0.330125
26.500000	1	0.329000
26.516667	1	0.327250
26.533333	1	0.324000
26.550000	1	0.321000
26.566667	1	0.317125
26.583333	1	0.312750
26.600000	1	0.308000
26.616667	1	0.303000
26.633333	1	0.298125
26.650000	1	0.293250
26.666667	1	0.287875
26.683333	1	0.283125
26.700000	1	0.278250
26.716667	1	0.273125
26.733333	1	0.268375
26.750000	1	0.263625
26.766667	1	0.259500
26.783333	1	0.255500
26.800000	1	0.251750
26.816667	1	0.248250
26.833333	1	0.244875
26.850000	1	0.242125
26.866667	1	0.240500
26.883333	1	0.237625
26.900000	1	0.235500
26.916667	1	0.234625
26.933333	1	0.232875
26.950000	1	0.232250
26.966667	1	0.231625
26.983333	1	0.231125
27.000000	1	0.231125
27.016667	1	0.231250
27.033333	1	0.231875
27.050000	1	0.232875
27.066667	1	0.233750
27.083333	1	0.235250
27.100000	1	0.237625
27.116667	1	0.240625
27.133333	1	0.242500
27.150000	1	0.245875
27.166667	1	0.248750
27.183333	1	0.252625
27.200000	1	0.257375
27.216667	1	0.262500
27.233333	1	0.269375
27.250000	1	0.277000
27.266667	1	0.285500
27.283333	1	0.296125
27.300000	1	0.309375
27.316667	1	0.325125
27.333333	1	0.343625
27.350000	1	0.366250
27.366667	1	0.393250
27.383333	1	0.424750
27.400000	1	0.462750
27.416667	1	0.507250
27.433333	1	0.560250
27.450000	1	0.621000
27.466667	1	0.691125
27.483333	1	0.772125
27.500000	1	0.864500
27.516667	1	0.967875
27.533333	1	1.083750
27.550000	1	1.212000
27.566667	1	1.353000
27.583333	1	1.505875
27.600000	1	1.671125
27.616667	1	1.847625
27.633333	1	2.034125
27.650000	1	2.229875
27.666667	1	2.432000
27.683333	1	2.637875
27.700000	1	2.845000
27.716667	1	3.051250
27.733333	1	3.252500
27.750000	1	3.447125
27.766667	1	3.629875
27.783333	1	3.798625
27.800000	1	3.951000
27.816667	1	4.083375
27.833333	1	4.193625
27.850000	1	4.280000
27.866667	1	4.340625
27.883333	1	4.374125
27.900000	1	4.380625
27.916667	1	4.360875
27.933333	1	4.315000
27.950000	1	4.243750
27.966667	1	4.150000
27.983333	1	4.036375
28.000000	1	3.904625
28.016667	1	3.757625
28.033333	1	3.598625
28.050000	1	3.430500
28.066667	1	3.255875
28.083333	1	3.076250
28.100000	1	2.896750
28.116667	1	2.718250
28.133333	1	2.542250
28.150000	1	2.371250
28.166667	1	2.206250
28.183333	1	2.049375
28.200000	1	1.900625
28.216667	1	1.759375
28.233333	1	1.626375
28.250000	1	1.502000
28.266667	1	1.386500
28.283333	1	1.279375
28.300000	1	1.181000
28.316667	1	1.090250
28.333333	1	1.007000
28.350000	1	0.931500
28.366667	1	0.863125
28.383333	1	0.801000
28.400000	1	0.745125
28.416667	1	0.694625
28.433333	1	0.649625
28.450000	1	0.610500
28.466667	1	0.574625
28.483333	1	0.544500
28.500000	1	0.517750
28.516667	1	0.495250
28.533333	1	0.476250
28.550000	1	0.461250
28.566667	1	0.448625
28.583333	1	0.439125
28.600000	1	0.432375
28.616667	1	0.428250
28.633333	1	0.427000
28.650000	1	0.427250
28.666667	1	0.428875
28.683333	1	0.432750
28.700000	1	0.437500
28.716667	1	0.443500
28.733333	1	0.450125
28.750000	1	0.457250
28.766667	1	0.465250
28.783333	1	0.474000
28.800000	1	0.483000
28.816667	1	0.491875
28.833333	1	0.500500
28.850000	1	0.508625
28.866667	1	0.515625
28.883333	1	0.522750
28.900000	1	0.528625
28.916667	1	0.534125
28.933333	1	0.538750
28.950000	1	0.541875
28.966667	1	0.544000
28.983333	1	0.545125
29.000000	1	0.544875
29.016667	1	0.542375
29.033333	1	0.538625
29.050000	1	0.533750
29.066667	1	0.527000
29.083333	1	0.518000
29.100000	1	0.507500
29.116667	1	0.494875
29.133333	1	0.479750
29.150000	1	0.463250
29.166667	1	0.444250
29.183333	1	0.423375
29.200000	1	0.399875
29.216667	1	0.373375
29.233333	1	0.344500
29.250000	1	0.312125
29.266667	1	0.277750
29.283333	1	0.240625
29.300000	1	0.200625
29.316667	1	0.157125
29.333333	1	0.111625
29.350000	1	0.062750
29.366667	1	0.011375
29.383333	1	-0.042250
29.400000	1	-0.098875
29.416667	1	-0.157750
29.433333	1	-0.218250
29.450000	1	-0.280625
29.466667	1	-0.344875
29.483333	1	-0.409625
29.500000	1	-0.474000
29.516667	1	-0.539375
29.533333	1	-0.603125
29.550000	1	-0.666250
29.566667	1	-0.727250
29.583333	1	-0.786000
29.600000	1	-0.842125
29.616667	1	-0.895000
29.633333	1	-0.944125
29.650000	1	-0.987875
29.666667	1	-1.027125
29.683333	1	-1.061625
29.700000	1	-1.090625
29.716667	1	-1.113625
29.733333	1	-1.131250
29.750000	1	-1.142875
29.766667	1	-1.148250
29.783333	1	-1.148000
29.800000	1	-1.142500
29.816667	1	-1.130750
29.833333	1	-1.114625
29.850000	1	-1.093125
29.866667	1	-1.068000
29.883333	1	-1.038875
29.900000	1	-1.005250
29.916667	1	-0.969125
29.933333	1	-0.929875
29.950000	1	-0.889875
29.966667	1	-0.847750
29.983333	1	-0.803375
30.000000	1	-0.759000
30.016667	1	-0.714250
30.033333	1	-0.669500
30.050000	1	-0.625000
30.066667	1	-0.580500
30.083333	1	-0.537250
30.100000	1	-0.494875
30.116667	1	-0.453750
30.133333	1	-0.414125
30.150000	1	-0.376125
30.166667	1	-0.339625
30.183333	1	-0.305375
30.200000	1	-0.272375
30.216667	1	-0.240750
30.233333	1	-0.211375
30.250000	1	-0.183750
30.266667	1	-0.157500
30.283333	1	-0.133000
30.300000	1	-0.110125
30.316667	1	-0.089625
30.333333	1	-0.070250
30.350000	1	-0.052625
30.366667	1	-0.035625
30.383333	1	-0.020250
30.400000	1	-0.006000
30.416667	1	0.007375
30.433333	1	0.019125
30.450000	1	0.030500
30.466667	1	0.041000
30.483333	1	0.050875
30.500000	1	0.060250
30.516667	1	0.069000
30.533333	1	0.076750
30.550000	1	0.083750
30.566667	1	0.090625
30.583333	1	0.097625
30.600000	1	0.104625
30.616667	1	0.110875
30.633333	1	0.116875
30.650000	1	0.123000
30.666667	1	0.129000
30.683333	1	0.135000
30.700000	1	0.140375
30.716667	1	0.146375
30.733333	1	0.152500
30.750000	1	0.158750
30.766667	1	0.165500
30.783333	1	0.172125
30.800000	1	0.179500
30.816667	1	0.186125
30.833333	1	0.193250
30.850000	1	0.200875
30.866667	1	0.209625
30.883333	1	0.218750
30.900000	1	0.228625
30.916667	1	0.239875
30.933333	1	0.252750
30.950000	1	0.266625
30.966667	1	0.282375
30.983333	1	0.299375
31.000000	1	0.320000
31.016667	1	0.343375
31.033333	1	0.370875
31.050000	1	0.402000
31.066667	1	0.439000
31.083333	1	0.481375
31.100000	1	0.530375
31.116667	1	0.586875
31.133333	1	0.651500
31.150000	1	0.725125
31.166667	1	0.808250
31.183333	1	0.903125
31.200000	1	1.010250
31.216667	1	1.129625
31.233333	1	1.261500
31.250000	1	1.407500
31.266667	1	1.566875
31.283333	1	1.739125
31.300000	1	1.925250
31.316667	1	2.123500
31.333333	1	2.332625
31.350000	1	2.552125
31.366667	1	2.780250
31.383333	1	3.015750
31.400000	1	3.255250
31.416667	1	3.497125
31.433333	1	3.738875
31.450000	1	3.976875
31.466667	1	4.207875
31.483333	1	4.429500
31.500000	1	4.638750
31.516667	1	4.832875
31.533333	1	5.009875
31.550000	1	5.165875
31.566667	1	5.300625
31.583333	1	5.412250
31.600000	1	5.499125
31.616667	1	5.559500
31.633333	1	5.594500
31.650000	1	5.604375
31.666667	1	5.587875
31.683333	1	5.547000
31.700000	1	5.482500
31.716667	1	5.396125
31.733333	1	5.289750
31.750000	1	5.166000
31.766667	1	5.026125
31.783333	1	4.873000
31.800000	1	4.708000
31.816667	1	4.533125
31.833333	1	4.351250
31.850000	1	4.164250
31.866667	1	3.974000
31.883333	1	3.783375
31.900000	1	3.592875
31.916667	1	3.404750
31.933333	1	3.219000
31.950000	1	3.038000
31.966667	1	2.862375
31.983333	1	2.692000
32.000000	1	2.527000
32.016667	1	2.368750
32.033333	1	2.217125
32.050000	1	2.072625
32.066667	1	1.935750
32.083333	1	1.805875
32.100000	1	1.681625
32.116667	1	1.564500
32.133333	1	1.454375
32.150000	1	1.349875
32.166667	1	1.251500
32.183333	1	1.158375
32.200000	1	1.070750
32.216667	1	0.988375
32.233333	1	0.911500
32.250000	1	0.838500
32.266667	1	0.769625
32.283333	1	0.705500
32.300000	1	0.645125
32.316667	1	0.588750
32.333333	1	0.535750
32.350000	1	0.486125
32.366667	1	0.440625
32.383333	1	0.397625
32.400000	1	0.357375
32.416667	1	0.320250
32.433333	1	0.285500
32.450000	1	0.253250
32.466667	1	0.222625
32.483333	1	0.194500
32.500000	1	0.168875
32.516667	1	0.145500
32.533333	1	0.123000
32.550000	1	0.103250
32.566667	1	0.084750
32.583333	1	0.068375
32.600000	1	0.052750
32.616667	1	0.038625
32.633333	1	0.026375
32.650000	1	0.014750
32.666667	1	0.005250
32.683333	1	-0.003750
32.700000	1	-0.012125
32.716667	1	-0.019000
32.733333	1	-0.024875
32.750000	1	-0.030250
32.766667	1	-0.034375
32.783333	1	-0.037625
32.800000	1	-0.041250
32.816667	1	-0.044000
32.833333	1	-0.046000
32.850000	1	-0.047000
32.866667	1	-0.047875
32.883333	1	-0.049250
32.900000	1	-0.048500
32.916667	1	-0.048500
32.933333	1	-0.047625
32.950000	1	-0.046375
32.966667	1	-0.044875
32.983333	1	-0.043625
33.000000	1	-0.042125
33.016667	1	-0.040375
33.033333	1	-0.038000
33.050000	1	-0.036500
33.066667	1	-0.034125
33.083333	1	-0.032375
33.100000	1	-0.029625
33.116667	1	-0.027375
33.133333	1	-0.025000
33.150000	1	-0.022500
33.166667	1	-0.020625
33.183333	1	-0.018000
33.200000	1	-0.015375
33.216667	1	-0.012500
33.233333	1	-0.010750
33.250000	1	-0.008500
33.266667	1	-0.005875
33.283333	1	-0.003375
33.300000	1	-0.001250
33.316667	1	0.000750
33.333333	1	0.003250
33.350000	1	0.005500
33.366667	1	0.007875
33.383333	1	0.010250
33.400000	1	0.012500
33.416667	1	0.014000
33.433333	1	0.015625
33.450000	1	0.017375
33.466667	1	0.019125
33.483333	1	0.020625
33.500000	1	0.022125
33.516667	1	0.023875
33.533333	1	0.025250
33.550000	1	0.027125
33.566667	1	0.028750
33.583333	1	0.030500
33.600000	1	0.032875
33.616667	1	0.034875
33.633333	1	0.037250
33.650000	1	0.038750
33.666667	1	0.040750
33.683333	1	0.043000
33.700000	1	0.045000
33.716667	1	0.047625
33.733333	1	0.050125
33.750000	1	0.052500
33.766667	1	0.054750
33.783333	1	0.057625
33.800000	1	0.059750
33.816667	1	0.062000
33.833333	1	0.064250
33.850000	1	0.066625
33.866667	1	0.069000
33.883333	1	0.072250
33.900000	1	0.074750
33.916667	1	0.077125
33.933333	1	0.079125
33.950000	1	0.081500
33.966667	1	0.083625
33.983333	1	0.085375
34.000000	1	0.086750
34.016667	1	0.088375
34.033333	1	0.090000
34.050000	1	0.090375
34.066667	1	0.091000
34.083333	1	0.091625
34.100000	1	0.091875
34.116667	1	0.091500
34.133333	1	0.091125
34.150000	1	0.090625
34.166667	1	0.090500
34.183333	1	0.089625
34.200000	1	0.088625
34.216667	1	0.087500
34.233333	1	0.086125
34.250000	1	0.084750
34.266667	1	0.083875
34.283333	1	0.082125
34.300000	1	0.080500
34.316667	1	0.078875
34.333333	1	0.077375
34.350000	1	0.076250
34.366667	1	0.076000
34.383333	1	0.074750
34.400000	1	0.073625
34.416667	1	0.072625
34.433333	1	0.072375
34.450000	1	0.072125
34.466667	1	0.072125
34.483333	1	0.072000
34.500000	1	0.071375
34.516667	1	0.072250
34.533333	1	0.072875
34.550000	1	0.073625
34.566667	1	0.074750
34.583333	1	0.075125
34.600000	1	0.075875
34.616667	1	0.077250
34.633333	1	0.078625
34.650000	1	0.079750
34.666667	1	0.080125
34.683333	1	0.081375
34.700000	1	0.083000
34.716667	1	0.084375
34.733333	1	0.085625
34.750000	1	0.087125
34.766667	1	0.088125
34.783333	1	0.088875
34.800000	1	0.089500
34.816667	1	0.089875
34.833333	1	0.090125
34.850000	1	0.089875
34.866667	1	0.090250
34.883333	1	0.090250
34.900000	1	0.090250
34.916667	1	0.089875
34.933333	1	0.089750
34.950000	1	0.089250
34.966667	1	0.088750
34.983333	1	0.087125
35.000000	1	0.085750
35.016667	1	0.084500
35.033333	1	0.084000
35.050000	1	0.082250
35.066667	1	0.080500
35.083333	1	0.077625
35.100000	1	0.075625
35.116667	1	0.073750
35.133333	1	0.072000
35.150000	1	0.069875
35.166667	1	0.067500
35.183333	1	0.064000
35.200000	1	0.061750
35.216667	1	0.059375
35.233333	1	0.056625
35.250000	1	0.054375
35.266667	1	0.051750
35.283333	1	0.049375
35.300000	1	0.047875
35.316667	1	0.045875
35.333333	1	0.043375
35.350000	1	0.042000
35.366667	1	0.040750
35.383333	1	0.039625
35.400000	1	0.038500
35.416667	1	0.037250
35.433333	1	0.036250
35.450000	1	0.035750
35.466667	1	0.036500
35.483333	1	0.036625
35.500000	1	0.037375
35.516667	1	0.038375
35.533333	1	0.039750
35.550000	1	0.041875
35.566667	1	0.043375
35.583333	1	0.045125
35.600000	1	0.047250
35.616667	1	0.049625
35.633333	1	0.051875
35.650000	1	0.054750
35.666667	1	0.057500
35.683333	1	0.059750
35.700000	1	0.063375
35.716667	1	0.066125
35.733333	1	0.068875
35.750000	1	0.071625
35.766667	1	0.074250
35.783333	1	0.077000
35.800000	1	0.079375
35.816667	1	0.081875
35.833333	1	0.084500
35.850000	1	0.086875
35.866667	1	0.089125
35.883333	1	0.091375
35.900000	1	0.092875
35.916667	1	0.094750
35.933333	1	0.097250
35.950000	1	0.098125
35.966667	1	0.099625
35.983333	1	0.100500
36.000000	1	0.102125
36.016667	1	0.102875
36.033333	1	0.104250
36.050000	1	0.105500
36.066667	1	0.106500
36.083333	1	0.107625
36.100000	1	0.107875
36.116667	1	0.108375
36.133333	1	0.108750
36.150000	1	0.109250
36.166667	1	0.109375
36.183333	1	0.109750
36.200000	1	0.110250
36.216667	1	0.110875
36.233333	1	0.111125
36.250000	1	0.112000
36.266667	1	0.112375
36.283333	1	0.113000
36.300000	1	0.113125
36.316667	1	0.114000
36.333333	1	0.115250
36.350000	1	0.116125
36.366667	1	0.116875
36.383333	1	0.117625
36.400000	1	0.118875
36.416667	1	0.118625
36.433333	1	0.118875
36.450000	1	0.119750
36.466667	1	0.119875
36.483333	1	0.121000
36.500000	1	0.121250
36.516667	1	0.120875
36.533333	1	0.121500
36.550000	1	0.121250
36.566667	1	0.121125
36.583333	1	0.120750
36.600000	1	0.120375
36.616667	1	0.119500
36.633333	1	0.118750
36.650000	1	0.118250
36.666667	1	0.117500
36.683333	1	0.116125
36.700000	1	0.114750
36.716667	1	0.113375
36.733333	1	0.111875
36.750000	1	0.110375
36.766667	1	0.108750
36.783333	1	0.107250
36.800000	1	0.104625
36.816667	1	0.102500
36.833333	1	0.100500
36.850000	1	0.098500
36.866667	1	0.096375
36.883333	1	0.094750
36.900000	1	0.093250
36.916667	1	0.090750
36.933333	1	0.089250
36.950000	1	0.087250
36.966667	1	0.085625
36.983333	1	0.083125
37.000000	1	0.081000
37.016667	1	0.079000
37.033333	1	0.076750
37.050000	1	0.074625
37.066667	1	0.073375
37.083333	1	0.072000
37.100000	1	0.069500
37.116667	1	0.067625
37.133333	1	0.065875
37.150000	1	0.064625
37.166667	1	0.063250
37.183333	1	0.061875
37.200000	1	0.060500
37.216667	1	0.059250
37.233333	1	0.057625
37.250000	1	0.056875
37.266667	1	0.055750
37.283333	1	0.054625
37.300000	1	0.053625
37.316667	1	0.052500
37.333333	1	0.051375
37.350000	1	0.049750
37.366667	1	0.048625
37.383333	1	0.047750
37.400000	1	0.046500
37.416667	1	0.045125
37.433333	1	0.042875
37.450000	1	0.041500
37.466667	1	0.040250
37.483333	1	0.038875
37.500000	1	0.037250
37.516667	1	0.035875
37.533333	1	0.034250
37.550000	1	0.031750
37.566667	1	0.029750
37.583333	1	0.027875
37.600000	1	0.025375
37.616667	1	0.022750
37.633333	1	0.020250
37.650000	1	0.018500
37.666667	1	0.016375
37.683333	1	0.014375
37.700000	1	0.011125
37.716667	1	0.008625
37.733333	1	0.006375
37.750000	1	0.004125
37.766667	1	0.001875
37.783333	1	-0.000250
37.800000	1	-0.002500
37.816667	1	-0.004500
37.833333	1	-0.006125
37.850000	1	-0.008250
37.866667	1	-0.009000
37.883333	1	-0.010250
37.900000	1	-0.012125
37.916667	1	-0.013125
37.933333	1	-0.014000
37.950000	1	-0.015125
37.966667	1	-0.016875
37.983333	1	-0.018500
38.000000	1	-0.019875
38.016667	1	-0.020625
38.033333	1	-0.021375
38.050000	1	-0.022000
38.066667	1	-0.022875
38.083333	1	-0.023375
38.100000	1	-0.024250
38.116667	1	-0.025125
38.133333	1	-0.025625
38.150000	1	-0.025750
38.166667	1	-0.026625
38.183333	1	-0.026875
38.200000	1	-0.027000
38.216667	1	-0.026375
38.233333	1	-0.026000
38.250000	1	-0.026000
38.266667	1	-0.025625
38.283333	1	-0.024375
38.300000	1	-0.024250
38.316667	1	-0.022500
38.333333	1	-0.021000
38.350000	1	-0.018875
38.366667	1	-0.017500
38.383333	1	-0.016125
38.400000	1	-0.014625
38.416667	1	-0.012750
38.433333	1	-0.010375
38.450000	1	-0.008125
38.466667	1	-0.004875
38.483333	1	-0.002750
38.500000	1	-0.000500
38.516667	1	0.001875
38.533333	1	0.005250
38.550000	1	0.008250
38.566667	1	0.010875
38.583333	1	0.013875
38.600000	1	0.016375
38.616667	1	0.018250
38.633333	1	0.021250
38.650000	1	0.023375
38.666667	1	0.025500
38.683333	1	0.028000
38.700000	1	0.029875
38.716667	1	0.031750
38.733333	1	0.033250
38.750000	1	0.034625
38.766667	1	0.036125
38.783333	1	0.036625
38.800000	1	0.037125
38.816667	1	0.037875
38.833333	1	0.038375
38.850000	1	0.039250
38.866667	1	0.040125
38.883333	1	0.040625
38.900000	1	0.041250
38.916667	1	0.041625
38.933333	1	0.041250
38.950000	1	0.041000
38.966667	1	0.040500
38.983333	1	0.040125
39.000000	1	0.040250
39.016667	1	0.039375
39.033333	1	0.038250
39.050000	1	0.037875
39.066667	1	0.037000
39.083333	1	0.036125
39.100000	1	0.035375
39.116667	1	0.035125
39.133333	1	0.033875
39.150000	1	0.033125
39.166667	1	0.032125
39.183333	1	0.031375
39.200000	1	0.030500
39.216667	1	0.030125
39.233333	1	0.029125
39.250000	1	0.028250
39.266667	1	0.027750
39.283333	1	0.026625
39.300000	1	0.025625
39.316667	1	0.024875
39.333333	1	0.024375
39.350000	1	0.023375
39.366667	1	0.022875
39.383333	1	0.022500
39.400000	1	0.022250
39.416667	1	0.021625
39.433333	1	0.021000
39.450000	1	0.019875
39.466667	1	0.019125
39.483333	1	0.018125
39.500000	1	0.017625
39.516667	1	0.017375
39.533333	1	0.016500
39.550000	1	0.015750
39.566667	1	0.015000
39.583333	1	0.014125
39.600000	1	0.013250
39.616667	1	0.012500
39.633333	1	0.011125
39.650000	1	0.010500
39.666667	1	0.009250
39.683333	1	0.008625
39.700000	1	0.006500
39.716667	1	0.006000
39.733333	1	0.004625
39.750000	1	0.003375
39.766667	1	0.002625
39.783333	1	0.001125
39.800000	1	-0.000250
39.816667	1	-0.001500
39.833333	1	-0.002250
39.850000	1	-0.002625
39.866667	1	-0.003125
39.883333	1	-0.003500
39.900000	1	-0.004375
39.916667	1	-0.005375
39.933333	1	-0.006125
39.950000	1	-0.007500
39.966667	1	-0.007875
39.983333	1	-0.008375
40.000000	1	-0.008250
