URL	chrom://7040-86g6c92/XVault/Ultimate_3000/20/20240517_CMO_FP23_FP25_MarkusDeplate.seq/838.smp/RI_1.channel/RI_1.chm
Channel	RI_1

Injection Information:
Data Vault	XVault
Sequence	20240517_CMO_FP23_FP25_MarkusDeplate
Name	FP23_24_s3
Number	27
Position	BC3
Comment	
Processing Method	
Instrument Method	run_25B_method
Type	Unknown
Status	Finished
Inject Time	28.05.2024 11:47:33 +02:00
Volume (µl)	20.0000
Dilution Factor	1.0000
Weight	1.0000

Chromatogram Data Information:
Time Min. (min)	0.000000
Time Max. (min)	40.000000
Data Points	2401
Detector	RI
Generating Data System	Chromeleon 7.3.2.11814
Exporting Data System	Chromeleon 7.3.2.0
Operator	Instrument Controller
Signal Quantity	Refractive 
Signal Unit	µRIU
Signal Min.	-1.192500
Signal Max.	64.853125
Channel	RI_1
Driver Name	RID520Driver.dll
Channel Type	Evaluation
Min. Step (s)	1
Max. Step (s)	1
Average Step (s)	1

Signal Parameter Information:
Signal Info	

Chromatogram Data:
Time (min)	Step (s)	Value (µRIU)
0.000000	n.a.	-0.008250
0.016667	1	-0.009625
0.033333	1	-0.010250
0.050000	1	-0.011375
0.066667	1	-0.012125
0.083333	1	-0.012750
0.100000	1	-0.013250
0.116667	1	-0.013625
0.133333	1	-0.014375
0.150000	1	-0.014000
0.166667	1	-0.014000
0.183333	1	-0.013750
0.200000	1	-0.013250
0.216667	1	-0.013125
0.233333	1	-0.012250
0.250000	1	-0.011875
0.266667	1	-0.011125
0.283333	1	-0.010750
0.300000	1	-0.010000
0.316667	1	-0.008750
0.333333	1	-0.007875
0.350000	1	-0.007375
0.366667	1	-0.007375
0.383333	1	-0.007000
0.400000	1	-0.006875
0.416667	1	-0.006250
0.433333	1	-0.004750
0.450000	1	-0.002500
0.466667	1	-0.000250
0.483333	1	0.002000
0.500000	1	0.004000
0.516667	1	0.005250
0.533333	1	0.007125
0.550000	1	0.007500
0.566667	1	0.006875
0.583333	1	0.005625
0.600000	1	0.003625
0.616667	1	0.001875
0.633333	1	0.001000
0.650000	1	-0.000250
0.666667	1	-0.000125
0.683333	1	-0.000375
0.700000	1	-0.000250
0.716667	1	-0.000125
0.733333	1	0.000250
0.750000	1	0.000375
0.766667	1	0.000500
0.783333	1	0.000125
0.800000	1	0.000125
0.816667	1	0.000000
0.833333	1	-0.000500
0.850000	1	-0.001000
0.866667	1	-0.001125
0.883333	1	-0.001250
0.900000	1	-0.001625
0.916667	1	-0.003250
0.933333	1	-0.004375
0.950000	1	-0.004500
0.966667	1	-0.005125
0.983333	1	-0.005625
1.000000	1	-0.006500
1.016667	1	-0.007625
1.033333	1	-0.008625
1.050000	1	-0.008875
1.066667	1	-0.009875
1.083333	1	-0.010375
1.100000	1	-0.010500
1.116667	1	-0.011000
1.133333	1	-0.011875
1.150000	1	-0.013250
1.166667	1	-0.013875
1.183333	1	-0.014375
1.200000	1	-0.015000
1.216667	1	-0.015375
1.233333	1	-0.015375
1.250000	1	-0.015875
1.266667	1	-0.016500
1.283333	1	-0.016750
1.300000	1	-0.016875
1.316667	1	-0.015875
1.333333	1	-0.015375
1.350000	1	-0.015500
1.366667	1	-0.015125
1.383333	1	-0.014375
1.400000	1	-0.013125
1.416667	1	-0.011125
1.433333	1	-0.010125
1.450000	1	-0.009000
1.466667	1	-0.006625
1.483333	1	-0.004375
1.500000	1	-0.002375
1.516667	1	0.000000
1.533333	1	0.002625
1.550000	1	0.004875
1.566667	1	0.007625
1.583333	1	0.009875
1.600000	1	0.012500
1.616667	1	0.015250
1.633333	1	0.017750
1.650000	1	0.019875
1.666667	1	0.022625
1.683333	1	0.024125
1.700000	1	0.026750
1.716667	1	0.028750
1.733333	1	0.030125
1.750000	1	0.031625
1.766667	1	0.033250
1.783333	1	0.034625
1.800000	1	0.035625
1.816667	1	0.037125
1.833333	1	0.038000
1.850000	1	0.038875
1.866667	1	0.040875
1.883333	1	0.041125
1.900000	1	0.041625
1.916667	1	0.042250
1.933333	1	0.043000
1.950000	1	0.042875
1.966667	1	0.043250
1.983333	1	0.043875
2.000000	1	0.043375
2.016667	1	0.044000
2.033333	1	0.044250
2.050000	1	0.043750
2.066667	1	0.043125
2.083333	1	0.044000
2.100000	1	0.043375
2.116667	1	0.042875
2.133333	1	0.042625
2.150000	1	0.042625
2.166667	1	0.042250
2.183333	1	0.041375
2.200000	1	0.041125
2.216667	1	0.040750
2.233333	1	0.040125
2.250000	1	0.039875
2.266667	1	0.038875
2.283333	1	0.037250
2.300000	1	0.035625
2.316667	1	0.034875
2.333333	1	0.033250
2.350000	1	0.031500
2.366667	1	0.030125
2.383333	1	0.028000
2.400000	1	0.025875
2.416667	1	0.023250
2.433333	1	0.020750
2.450000	1	0.018625
2.466667	1	0.015500
2.483333	1	0.013250
2.500000	1	0.010250
2.516667	1	0.007875
2.533333	1	0.005375
2.550000	1	0.002625
2.566667	1	-0.000375
2.583333	1	-0.003375
2.600000	1	-0.007125
2.616667	1	-0.009500
2.633333	1	-0.012250
2.650000	1	-0.015750
2.666667	1	-0.018250
2.683333	1	-0.020250
2.700000	1	-0.022625
2.716667	1	-0.025000
2.733333	1	-0.026750
2.750000	1	-0.028125
2.766667	1	-0.029375
2.783333	1	-0.030875
2.800000	1	-0.031750
2.816667	1	-0.033000
2.833333	1	-0.033125
2.850000	1	-0.033750
2.866667	1	-0.033375
2.883333	1	-0.033750
2.900000	1	-0.033125
2.916667	1	-0.032750
2.933333	1	-0.031875
2.950000	1	-0.030750
2.966667	1	-0.029250
2.983333	1	-0.028500
3.000000	1	-0.026500
3.016667	1	-0.024625
3.033333	1	-0.022000
3.050000	1	-0.020000
3.066667	1	-0.017500
3.083333	1	-0.015125
3.100000	1	-0.013000
3.116667	1	-0.010750
3.133333	1	-0.008250
3.150000	1	-0.006250
3.166667	1	-0.004250
3.183333	1	-0.002250
3.200000	1	-0.000625
3.216667	1	0.001625
3.233333	1	0.003375
3.250000	1	0.005000
3.266667	1	0.007375
3.283333	1	0.009750
3.300000	1	0.011000
3.316667	1	0.012125
3.333333	1	0.013750
3.350000	1	0.015625
3.366667	1	0.017000
3.383333	1	0.018750
3.400000	1	0.019500
3.416667	1	0.021125
3.433333	1	0.023250
3.450000	1	0.024750
3.466667	1	0.026625
3.483333	1	0.028250
3.500000	1	0.029250
3.516667	1	0.030875
3.533333	1	0.032875
3.550000	1	0.033750
3.566667	1	0.035875
3.583333	1	0.037500
3.600000	1	0.038875
3.616667	1	0.040375
3.633333	1	0.042250
3.650000	1	0.043750
3.666667	1	0.044500
3.683333	1	0.046500
3.700000	1	0.048375
3.716667	1	0.049375
3.733333	1	0.050500
3.750000	1	0.051750
3.766667	1	0.053125
3.783333	1	0.054625
3.800000	1	0.056000
3.816667	1	0.057625
3.833333	1	0.058875
3.850000	1	0.060500
3.866667	1	0.061875
3.883333	1	0.063625
3.900000	1	0.064000
3.916667	1	0.065250
3.933333	1	0.066125
3.950000	1	0.067125
3.966667	1	0.068000
3.983333	1	0.069125
4.000000	1	0.070625
4.016667	1	0.071250
4.033333	1	0.071875
4.050000	1	0.072125
4.066667	1	0.072125
4.083333	1	0.072500
4.100000	1	0.072875
4.116667	1	0.073125
4.133333	1	0.072500
4.150000	1	0.072125
4.166667	1	0.072375
4.183333	1	0.071375
4.200000	1	0.070125
4.216667	1	0.069250
4.233333	1	0.068750
4.250000	1	0.068500
4.266667	1	0.067000
4.283333	1	0.066125
4.300000	1	0.065125
4.316667	1	0.063250
4.333333	1	0.061500
4.350000	1	0.060625
4.366667	1	0.059250
4.383333	1	0.057750
4.400000	1	0.057000
4.416667	1	0.055750
4.433333	1	0.054375
4.450000	1	0.053250
4.466667	1	0.051750
4.483333	1	0.050250
4.500000	1	0.049000
4.516667	1	0.047750
4.533333	1	0.046500
4.550000	1	0.045375
4.566667	1	0.045000
4.583333	1	0.044500
4.600000	1	0.043500
4.616667	1	0.043125
4.633333	1	0.042375
4.650000	1	0.041625
4.666667	1	0.041000
4.683333	1	0.041250
4.700000	1	0.040875
4.716667	1	0.040750
4.733333	1	0.041125
4.750000	1	0.041500
4.766667	1	0.042125
4.783333	1	0.042000
4.800000	1	0.041625
4.816667	1	0.041875
4.833333	1	0.042750
4.850000	1	0.042875
4.866667	1	0.042750
4.883333	1	0.042375
4.900000	1	0.041875
4.916667	1	0.041250
4.933333	1	0.041750
4.950000	1	0.040875
4.966667	1	0.041250
4.983333	1	0.040625
5.000000	1	0.040375
5.016667	1	0.040250
5.033333	1	0.040375
5.050000	1	0.040000
5.066667	1	0.040125
5.083333	1	0.040125
5.100000	1	0.041125
5.116667	1	0.041625
5.133333	1	0.043250
5.150000	1	0.045000
5.166667	1	0.047250
5.183333	1	0.049375
5.200000	1	0.052625
5.216667	1	0.056250
5.233333	1	0.059750
5.250000	1	0.063875
5.266667	1	0.068750
5.283333	1	0.073875
5.300000	1	0.079625
5.316667	1	0.086250
5.333333	1	0.092250
5.350000	1	0.099000
5.366667	1	0.105250
5.383333	1	0.113125
5.400000	1	0.120500
5.416667	1	0.127750
5.433333	1	0.135500
5.450000	1	0.142875
5.466667	1	0.150250
5.483333	1	0.158000
5.500000	1	0.165875
5.516667	1	0.174375
5.533333	1	0.182250
5.550000	1	0.190375
5.566667	1	0.198500
5.583333	1	0.206125
5.600000	1	0.213375
5.616667	1	0.220250
5.633333	1	0.227625
5.650000	1	0.233875
5.666667	1	0.240375
5.683333	1	0.246500
5.700000	1	0.252125
5.716667	1	0.256875
5.733333	1	0.262500
5.750000	1	0.267000
5.766667	1	0.270500
5.783333	1	0.274375
5.800000	1	0.277750
5.816667	1	0.280250
5.833333	1	0.282250
5.850000	1	0.283875
5.866667	1	0.284625
5.883333	1	0.284875
5.900000	1	0.284500
5.916667	1	0.283875
5.933333	1	0.283250
5.950000	1	0.281750
5.966667	1	0.279000
5.983333	1	0.276000
6.000000	1	0.273375
6.016667	1	0.270625
6.033333	1	0.266875
6.050000	1	0.263375
6.066667	1	0.259375
6.083333	1	0.255750
6.100000	1	0.251250
6.116667	1	0.246750
6.133333	1	0.241875
6.150000	1	0.237625
6.166667	1	0.232625
6.183333	1	0.227500
6.200000	1	0.222875
6.216667	1	0.217625
6.233333	1	0.213125
6.250000	1	0.207875
6.266667	1	0.202750
6.283333	1	0.197500
6.300000	1	0.192375
6.316667	1	0.186750
6.333333	1	0.181875
6.350000	1	0.177000
6.366667	1	0.171875
6.383333	1	0.166500
6.400000	1	0.161625
6.416667	1	0.156875
6.433333	1	0.152250
6.450000	1	0.147625
6.466667	1	0.142875
6.483333	1	0.137625
6.500000	1	0.133250
6.516667	1	0.129625
6.533333	1	0.125500
6.550000	1	0.121375
6.566667	1	0.117250
6.583333	1	0.113625
6.600000	1	0.109500
6.616667	1	0.106125
6.633333	1	0.103000
6.650000	1	0.099875
6.666667	1	0.096750
6.683333	1	0.093500
6.700000	1	0.090250
6.716667	1	0.088375
6.733333	1	0.086125
6.750000	1	0.084625
6.766667	1	0.083125
6.783333	1	0.082250
6.800000	1	0.081500
6.816667	1	0.081250
6.833333	1	0.081375
6.850000	1	0.082000
6.866667	1	0.082500
6.883333	1	0.082875
6.900000	1	0.082875
6.916667	1	0.084000
6.933333	1	0.084875
6.950000	1	0.085875
6.966667	1	0.087500
6.983333	1	0.089250
7.000000	1	0.090500
7.016667	1	0.092250
7.033333	1	0.093750
7.050000	1	0.095500
7.066667	1	0.097875
7.083333	1	0.100125
7.100000	1	0.101875
7.116667	1	0.104000
7.133333	1	0.106250
7.150000	1	0.107625
7.166667	1	0.109875
7.183333	1	0.111875
7.200000	1	0.113875
7.216667	1	0.115250
7.233333	1	0.117625
7.250000	1	0.120250
7.266667	1	0.122500
7.283333	1	0.124125
7.300000	1	0.126750
7.316667	1	0.129125
7.333333	1	0.131375
7.350000	1	0.134125
7.366667	1	0.136875
7.383333	1	0.138625
7.400000	1	0.141000
7.416667	1	0.144250
7.433333	1	0.145875
7.450000	1	0.148375
7.466667	1	0.150125
7.483333	1	0.151875
7.500000	1	0.153625
7.516667	1	0.156000
7.533333	1	0.158250
7.550000	1	0.159750
7.566667	1	0.160875
7.583333	1	0.162000
7.600000	1	0.162750
7.616667	1	0.163750
7.633333	1	0.164750
7.650000	1	0.164875
7.666667	1	0.165250
7.683333	1	0.165625
7.700000	1	0.164875
7.716667	1	0.164875
7.733333	1	0.163875
7.750000	1	0.162875
7.766667	1	0.162375
7.783333	1	0.161750
7.800000	1	0.160250
7.816667	1	0.158875
7.833333	1	0.156750
7.850000	1	0.154625
7.866667	1	0.152625
7.883333	1	0.150625
7.900000	1	0.148625
7.916667	1	0.145875
7.933333	1	0.143375
7.950000	1	0.141125
7.966667	1	0.138125
7.983333	1	0.134750
8.000000	1	0.132000
8.016667	1	0.128500
8.033333	1	0.125375
8.050000	1	0.121625
8.066667	1	0.118250
8.083333	1	0.114875
8.100000	1	0.111125
8.116667	1	0.106875
8.133333	1	0.102625
8.150000	1	0.098875
8.166667	1	0.094875
8.183333	1	0.090750
8.200000	1	0.085875
8.216667	1	0.081875
8.233333	1	0.077625
8.250000	1	0.073375
8.266667	1	0.068875
8.283333	1	0.064750
8.300000	1	0.061125
8.316667	1	0.057000
8.333333	1	0.054000
8.350000	1	0.051250
8.366667	1	0.048250
8.383333	1	0.045250
8.400000	1	0.042375
8.416667	1	0.039875
8.433333	1	0.036875
8.450000	1	0.034125
8.466667	1	0.032625
8.483333	1	0.031000
8.500000	1	0.029375
8.516667	1	0.027500
8.533333	1	0.026250
8.550000	1	0.024375
8.566667	1	0.023750
8.583333	1	0.023125
8.600000	1	0.022875
8.616667	1	0.022625
8.633333	1	0.021625
8.650000	1	0.020750
8.666667	1	0.020125
8.683333	1	0.019125
8.700000	1	0.019000
8.716667	1	0.018125
8.733333	1	0.017750
8.750000	1	0.016875
8.766667	1	0.016250
8.783333	1	0.015375
8.800000	1	0.014625
8.816667	1	0.013375
8.833333	1	0.013250
8.850000	1	0.012500
8.866667	1	0.011125
8.883333	1	0.010875
8.900000	1	0.009875
8.916667	1	0.009500
8.933333	1	0.009375
8.950000	1	0.008625
8.966667	1	0.008875
8.983333	1	0.008750
9.000000	1	0.008750
9.016667	1	0.008875
9.033333	1	0.009125
9.050000	1	0.009750
9.066667	1	0.010250
9.083333	1	0.011375
9.100000	1	0.012750
9.116667	1	0.014625
9.133333	1	0.016875
9.150000	1	0.018875
9.166667	1	0.020875
9.183333	1	0.022750
9.200000	1	0.024625
9.216667	1	0.026750
9.233333	1	0.028375
9.250000	1	0.030250
9.266667	1	0.033125
9.283333	1	0.034250
9.300000	1	0.036625
9.316667	1	0.039000
9.333333	1	0.041250
9.350000	1	0.043250
9.366667	1	0.045375
9.383333	1	0.047250
9.400000	1	0.048750
9.416667	1	0.049375
9.433333	1	0.050000
9.450000	1	0.050250
9.466667	1	0.050375
9.483333	1	0.050750
9.500000	1	0.050625
9.516667	1	0.050625
9.533333	1	0.050375
9.550000	1	0.050375
9.566667	1	0.049250
9.583333	1	0.048875
9.600000	1	0.047625
9.616667	1	0.046500
9.633333	1	0.045375
9.650000	1	0.044375
9.666667	1	0.042500
9.683333	1	0.041375
9.700000	1	0.039625
9.716667	1	0.038000
9.733333	1	0.036500
9.750000	1	0.034250
9.766667	1	0.032125
9.783333	1	0.030250
9.800000	1	0.028375
9.816667	1	0.027125
9.833333	1	0.025375
9.850000	1	0.022250
9.866667	1	0.020125
9.883333	1	0.018000
9.900000	1	0.016500
9.916667	1	0.015000
9.933333	1	0.014000
9.950000	1	0.012625
9.966667	1	0.012250
9.983333	1	0.012250
10.000000	1	0.013125
10.016667	1	0.014750
10.033333	1	0.017000
10.050000	1	0.020125
10.066667	1	0.024375
10.083333	1	0.029000
10.100000	1	0.034000
10.116667	1	0.040875
10.133333	1	0.048750
10.150000	1	0.057125
10.166667	1	0.066375
10.183333	1	0.076375
10.200000	1	0.088500
10.216667	1	0.102250
10.233333	1	0.116625
10.250000	1	0.133125
10.266667	1	0.151250
10.283333	1	0.172750
10.300000	1	0.196250
10.316667	1	0.222750
10.333333	1	0.251625
10.350000	1	0.283875
10.366667	1	0.319875
10.383333	1	0.359625
10.400000	1	0.403250
10.416667	1	0.448250
10.433333	1	0.487750
10.450000	1	0.512000
10.466667	1	0.508000
10.483333	1	0.466250
10.500000	1	0.387875
10.516667	1	0.296875
10.533333	1	0.244500
10.550000	1	0.308750
10.566667	1	0.587125
10.583333	1	1.182750
10.600000	1	2.191625
10.616667	1	3.693875
10.633333	1	5.748875
10.650000	1	8.386250
10.666667	1	11.623500
10.683333	1	15.450000
10.700000	1	19.831000
10.716667	1	24.691750
10.733333	1	29.910500
10.750000	1	35.295125
10.766667	1	40.568500
10.783333	1	45.362125
10.800000	1	49.235875
10.816667	1	51.740500
10.833333	1	52.540250
10.850000	1	51.518750
10.866667	1	48.831750
10.883333	1	44.869750
10.900000	1	40.133125
10.916667	1	35.105875
10.933333	1	30.169625
10.950000	1	25.576250
10.966667	1	21.463125
10.983333	1	17.888500
11.000000	1	14.852125
11.016667	1	12.322000
11.033333	1	10.246625
11.050000	1	8.565500
11.066667	1	7.212375
11.083333	1	6.126875
11.100000	1	5.256000
11.116667	1	4.554875
11.133333	1	3.988375
11.150000	1	3.527000
11.166667	1	3.149000
11.183333	1	2.836500
11.200000	1	2.575625
11.216667	1	2.356625
11.233333	1	2.170875
11.250000	1	2.012125
11.266667	1	1.876500
11.283333	1	1.759125
11.300000	1	1.656875
11.316667	1	1.567625
11.333333	1	1.489375
11.350000	1	1.419875
11.366667	1	1.359250
11.383333	1	1.305000
11.400000	1	1.257375
11.416667	1	1.214625
11.433333	1	1.176125
11.450000	1	1.141375
11.466667	1	1.110125
11.483333	1	1.081750
11.500000	1	1.056375
11.516667	1	1.034500
11.533333	1	1.013750
11.550000	1	0.995125
11.566667	1	0.977625
11.583333	1	0.962750
11.600000	1	0.949375
11.616667	1	0.938125
11.633333	1	0.928500
11.650000	1	0.920375
11.666667	1	0.914500
11.683333	1	0.909750
11.700000	1	0.907125
11.716667	1	0.906750
11.733333	1	0.907875
11.750000	1	0.910000
11.766667	1	0.914250
11.783333	1	0.919750
11.800000	1	0.925000
11.816667	1	0.931375
11.833333	1	0.937250
11.850000	1	0.944000
11.866667	1	0.950375
11.883333	1	0.955875
11.900000	1	0.960625
11.916667	1	0.965625
11.933333	1	0.970625
11.950000	1	0.974875
11.966667	1	0.979125
11.983333	1	0.983500
12.000000	1	0.988750
12.016667	1	0.994875
12.033333	1	1.000500
12.050000	1	1.007250
12.066667	1	1.014750
12.083333	1	1.023000
12.100000	1	1.031250
12.116667	1	1.039500
12.133333	1	1.048250
12.150000	1	1.057875
12.166667	1	1.068375
12.183333	1	1.079875
12.200000	1	1.092125
12.216667	1	1.105375
12.233333	1	1.120500
12.250000	1	1.137375
12.266667	1	1.156250
12.283333	1	1.176375
12.300000	1	1.198375
12.316667	1	1.223250
12.333333	1	1.252250
12.350000	1	1.285625
12.366667	1	1.327250
12.383333	1	1.380375
12.400000	1	1.450125
12.416667	1	1.543500
12.433333	1	1.667375
12.450000	1	1.830625
12.466667	1	2.042500
12.483333	1	2.310125
12.500000	1	2.639750
12.516667	1	3.034500
12.533333	1	3.492625
12.550000	1	4.011375
12.566667	1	4.581750
12.583333	1	5.190875
12.600000	1	5.825000
12.616667	1	6.467500
12.633333	1	7.105000
12.650000	1	7.723375
12.666667	1	8.315250
12.683333	1	8.875750
12.700000	1	9.404500
12.716667	1	9.903750
12.733333	1	10.380625
12.750000	1	10.843375
12.766667	1	11.301750
12.783333	1	11.764375
12.800000	1	12.239500
12.816667	1	12.730875
12.833333	1	13.242375
12.850000	1	13.765625
12.866667	1	14.273500
12.883333	1	14.701500
12.900000	1	14.946250
12.916667	1	14.888125
12.933333	1	14.440000
12.950000	1	13.591750
12.966667	1	12.418750
12.983333	1	11.053500
13.000000	1	9.639375
13.016667	1	8.289375
13.033333	1	7.069375
13.050000	1	6.009500
13.066667	1	5.109000
13.083333	1	4.359500
13.100000	1	3.744250
13.116667	1	3.245875
13.133333	1	2.846500
13.150000	1	2.528250
13.166667	1	2.275750
13.183333	1	2.075000
13.200000	1	1.915375
13.216667	1	1.788250
13.233333	1	1.685750
13.250000	1	1.601250
13.266667	1	1.530875
13.283333	1	1.471000
13.300000	1	1.419000
13.316667	1	1.372750
13.333333	1	1.332750
13.350000	1	1.296500
13.366667	1	1.264500
13.383333	1	1.235125
13.400000	1	1.209500
13.416667	1	1.186500
13.433333	1	1.167125
13.450000	1	1.150250
13.466667	1	1.137000
13.483333	1	1.126125
13.500000	1	1.118625
13.516667	1	1.112625
13.533333	1	1.109000
13.550000	1	1.106750
13.566667	1	1.105500
13.583333	1	1.103875
13.600000	1	1.101750
13.616667	1	1.097875
13.633333	1	1.092500
13.650000	1	1.085125
13.666667	1	1.075375
13.683333	1	1.063875
13.700000	1	1.050000
13.716667	1	1.034500
13.733333	1	1.018125
13.750000	1	1.001500
13.766667	1	0.984750
13.783333	1	0.968375
13.800000	1	0.951000
13.816667	1	0.935375
13.833333	1	0.920250
13.850000	1	0.905125
13.866667	1	0.890750
13.883333	1	0.876875
13.900000	1	0.863250
13.916667	1	0.850250
13.933333	1	0.838125
13.950000	1	0.826500
13.966667	1	0.815750
13.983333	1	0.805250
14.000000	1	0.795375
14.016667	1	0.784875
14.033333	1	0.775375
14.050000	1	0.766375
14.066667	1	0.757625
14.083333	1	0.748500
14.100000	1	0.739750
14.116667	1	0.731500
14.133333	1	0.723000
14.150000	1	0.715250
14.166667	1	0.707375
14.183333	1	0.700625
14.200000	1	0.695125
14.216667	1	0.689125
14.233333	1	0.683000
14.250000	1	0.679250
14.266667	1	0.676125
14.283333	1	0.672875
14.300000	1	0.671500
14.316667	1	0.670500
14.333333	1	0.670750
14.350000	1	0.672250
14.366667	1	0.674625
14.383333	1	0.679125
14.400000	1	0.686625
14.416667	1	0.696875
14.433333	1	0.711625
14.450000	1	0.734750
14.466667	1	0.770375
14.483333	1	0.827750
14.500000	1	0.918750
14.516667	1	1.063125
14.533333	1	1.288750
14.550000	1	1.633500
14.566667	1	2.146375
14.583333	1	2.885500
14.600000	1	3.924250
14.616667	1	5.342875
14.633333	1	7.226125
14.650000	1	9.652250
14.666667	1	12.685875
14.683333	1	16.360500
14.700000	1	20.671000
14.716667	1	25.557625
14.733333	1	30.907750
14.750000	1	36.554500
14.766667	1	42.282625
14.783333	1	47.838875
14.800000	1	52.966500
14.816667	1	57.414000
14.833333	1	60.962875
14.850000	1	63.440000
14.866667	1	64.745750
14.883333	1	64.853125
14.900000	1	63.815875
14.916667	1	61.754250
14.933333	1	58.840500
14.950000	1	55.272250
14.966667	1	51.259125
14.983333	1	47.003625
15.000000	1	42.674625
15.016667	1	38.415375
15.033333	1	34.329625
15.050000	1	30.492750
15.066667	1	26.951125
15.083333	1	23.728500
15.100000	1	20.829750
15.116667	1	18.246000
15.133333	1	15.955500
15.150000	1	13.935750
15.166667	1	12.159625
15.183333	1	10.604000
15.200000	1	9.242375
15.216667	1	8.053375
15.233333	1	7.018375
15.250000	1	6.119625
15.266667	1	5.343000
15.283333	1	4.677000
15.300000	1	4.109250
15.316667	1	3.629625
15.333333	1	3.228875
15.350000	1	2.897375
15.366667	1	2.627250
15.383333	1	2.409250
15.400000	1	2.236625
15.416667	1	2.100625
15.433333	1	1.994750
15.450000	1	1.911375
15.466667	1	1.844250
15.483333	1	1.788250
15.500000	1	1.738250
15.516667	1	1.691500
15.533333	1	1.646250
15.550000	1	1.600625
15.566667	1	1.554250
15.583333	1	1.507500
15.600000	1	1.461125
15.616667	1	1.416250
15.633333	1	1.372250
15.650000	1	1.330250
15.666667	1	1.290375
15.683333	1	1.253625
15.700000	1	1.219875
15.716667	1	1.188250
15.733333	1	1.158500
15.750000	1	1.130250
15.766667	1	1.103750
15.783333	1	1.078375
15.800000	1	1.053875
15.816667	1	1.031000
15.833333	1	1.008750
15.850000	1	0.987750
15.866667	1	0.967375
15.883333	1	0.948375
15.900000	1	0.930250
15.916667	1	0.915000
15.933333	1	0.901125
15.950000	1	0.889875
15.966667	1	0.880125
15.983333	1	0.873375
16.000000	1	0.867875
16.016667	1	0.863625
16.033333	1	0.861125
16.050000	1	0.860000
16.066667	1	0.859625
16.083333	1	0.860500
16.100000	1	0.861875
16.116667	1	0.863000
16.133333	1	0.865375
16.150000	1	0.866875
16.166667	1	0.868375
16.183333	1	0.869125
16.200000	1	0.869375
16.216667	1	0.869375
16.233333	1	0.868000
16.250000	1	0.866375
16.266667	1	0.864375
16.283333	1	0.861375
16.300000	1	0.858625
16.316667	1	0.856000
16.333333	1	0.854000
16.350000	1	0.853000
16.366667	1	0.852875
16.383333	1	0.854250
16.400000	1	0.857375
16.416667	1	0.862375
16.433333	1	0.867625
16.450000	1	0.873875
16.466667	1	0.881625
16.483333	1	0.890125
16.500000	1	0.898000
16.516667	1	0.904500
16.533333	1	0.911125
16.550000	1	0.916375
16.566667	1	0.919500
16.583333	1	0.921125
16.600000	1	0.920250
16.616667	1	0.918125
16.633333	1	0.914875
16.650000	1	0.910625
16.666667	1	0.906250
16.683333	1	0.902250
16.700000	1	0.899000
16.716667	1	0.896750
16.733333	1	0.897000
16.750000	1	0.899250
16.766667	1	0.902500
16.783333	1	0.907625
16.800000	1	0.914250
16.816667	1	0.920625
16.833333	1	0.927750
16.850000	1	0.935125
16.866667	1	0.941625
16.883333	1	0.946750
16.900000	1	0.950375
16.916667	1	0.951500
16.933333	1	0.951500
16.950000	1	0.949500
16.966667	1	0.945125
16.983333	1	0.940000
17.000000	1	0.934625
17.016667	1	0.928250
17.033333	1	0.921750
17.050000	1	0.915500
17.066667	1	0.908625
17.083333	1	0.903125
17.100000	1	0.897500
17.116667	1	0.893500
17.133333	1	0.889750
17.150000	1	0.887000
17.166667	1	0.884625
17.183333	1	0.882750
17.200000	1	0.881875
17.216667	1	0.881625
17.233333	1	0.882125
17.250000	1	0.883250
17.266667	1	0.884875
17.283333	1	0.887250
17.300000	1	0.889500
17.316667	1	0.893250
17.333333	1	0.896750
17.350000	1	0.901125
17.366667	1	0.905250
17.383333	1	0.909000
17.400000	1	0.913500
17.416667	1	0.917250
17.433333	1	0.920750
17.450000	1	0.922750
17.466667	1	0.923625
17.483333	1	0.923250
17.500000	1	0.922500
17.516667	1	0.919625
17.533333	1	0.915500
17.550000	1	0.910375
17.566667	1	0.903500
17.583333	1	0.895750
17.600000	1	0.886500
17.616667	1	0.877375
17.633333	1	0.867000
17.650000	1	0.856625
17.666667	1	0.845625
17.683333	1	0.834000
17.700000	1	0.822125
17.716667	1	0.810625
17.733333	1	0.799625
17.750000	1	0.790125
17.766667	1	0.780500
17.783333	1	0.771625
17.800000	1	0.763500
17.816667	1	0.757000
17.833333	1	0.750625
17.850000	1	0.745125
17.866667	1	0.741000
17.883333	1	0.737500
17.900000	1	0.734125
17.916667	1	0.731750
17.933333	1	0.729500
17.950000	1	0.727125
17.966667	1	0.725000
17.983333	1	0.723375
18.000000	1	0.721250
18.016667	1	0.719375
18.033333	1	0.717375
18.050000	1	0.714750
18.066667	1	0.713000
18.083333	1	0.711000
18.100000	1	0.709250
18.116667	1	0.708125
18.133333	1	0.707375
18.150000	1	0.707000
18.166667	1	0.707750
18.183333	1	0.708875
18.200000	1	0.710250
18.216667	1	0.711875
18.233333	1	0.713750
18.250000	1	0.714750
18.266667	1	0.715875
18.283333	1	0.717250
18.300000	1	0.718500
18.316667	1	0.719250
18.333333	1	0.719625
18.350000	1	0.719625
18.366667	1	0.721000
18.383333	1	0.723125
18.400000	1	0.724500
18.416667	1	0.727750
18.433333	1	0.731750
18.450000	1	0.737250
18.466667	1	0.743875
18.483333	1	0.753125
18.500000	1	0.763625
18.516667	1	0.776375
18.533333	1	0.791500
18.550000	1	0.808625
18.566667	1	0.827125
18.583333	1	0.847750
18.600000	1	0.871000
18.616667	1	0.896000
18.633333	1	0.922625
18.650000	1	0.951250
18.666667	1	0.981125
18.683333	1	1.013125
18.700000	1	1.045500
18.716667	1	1.078750
18.733333	1	1.113375
18.750000	1	1.148625
18.766667	1	1.183500
18.783333	1	1.217500
18.800000	1	1.250750
18.816667	1	1.281625
18.833333	1	1.309625
18.850000	1	1.333875
18.866667	1	1.353875
18.883333	1	1.368500
18.900000	1	1.378375
18.916667	1	1.382125
18.933333	1	1.379750
18.950000	1	1.370500
18.966667	1	1.355500
18.983333	1	1.334500
19.000000	1	1.307750
19.016667	1	1.275625
19.033333	1	1.238875
19.050000	1	1.198625
19.066667	1	1.156750
19.083333	1	1.112750
19.100000	1	1.069125
19.116667	1	1.026250
19.133333	1	0.985375
19.150000	1	0.948000
19.166667	1	0.913875
19.183333	1	0.885375
19.200000	1	0.863250
19.216667	1	0.849375
19.233333	1	0.843375
19.250000	1	0.847125
19.266667	1	0.860875
19.283333	1	0.886000
19.300000	1	0.921500
19.316667	1	0.968125
19.333333	1	1.026000
19.350000	1	1.093375
19.366667	1	1.170500
19.383333	1	1.254000
19.400000	1	1.342750
19.416667	1	1.433125
19.433333	1	1.522375
19.450000	1	1.608750
19.466667	1	1.688750
19.483333	1	1.759875
19.500000	1	1.819875
19.516667	1	1.867875
19.533333	1	1.902125
19.550000	1	1.922375
19.566667	1	1.929500
19.583333	1	1.922875
19.600000	1	1.904250
19.616667	1	1.874250
19.633333	1	1.834500
19.650000	1	1.787000
19.666667	1	1.732875
19.683333	1	1.674500
19.700000	1	1.612750
19.716667	1	1.548375
19.733333	1	1.483250
19.750000	1	1.417250
19.766667	1	1.351500
19.783333	1	1.287250
19.800000	1	1.223250
19.816667	1	1.161500
19.833333	1	1.100625
19.850000	1	1.042500
19.866667	1	0.986375
19.883333	1	0.933125
19.900000	1	0.882875
19.916667	1	0.834875
19.933333	1	0.791250
19.950000	1	0.750750
19.966667	1	0.713500
19.983333	1	0.680500
20.000000	1	0.651875
20.016667	1	0.627750
20.033333	1	0.608125
20.050000	1	0.594750
20.066667	1	0.585750
20.083333	1	0.582375
20.100000	1	0.584125
20.116667	1	0.590750
20.133333	1	0.602000
20.150000	1	0.617375
20.166667	1	0.636375
20.183333	1	0.657875
20.200000	1	0.681375
20.216667	1	0.704625
20.233333	1	0.727375
20.250000	1	0.748250
20.266667	1	0.766125
20.283333	1	0.780750
20.300000	1	0.791125
20.316667	1	0.796750
20.333333	1	0.797500
20.350000	1	0.792375
20.366667	1	0.782375
20.383333	1	0.768500
20.400000	1	0.750875
20.416667	1	0.729500
20.433333	1	0.707375
20.450000	1	0.683000
20.466667	1	0.659000
20.483333	1	0.635750
20.500000	1	0.614250
20.516667	1	0.595250
20.533333	1	0.580875
20.550000	1	0.570375
20.566667	1	0.564500
20.583333	1	0.565375
20.600000	1	0.572750
20.616667	1	0.588000
20.633333	1	0.611625
20.650000	1	0.643750
20.666667	1	0.684500
20.683333	1	0.734375
20.700000	1	0.794125
20.716667	1	0.860875
20.733333	1	0.935250
20.750000	1	1.014500
20.766667	1	1.097250
20.783333	1	1.180875
20.800000	1	1.262625
20.816667	1	1.340750
20.833333	1	1.412375
20.850000	1	1.475000
20.866667	1	1.525875
20.883333	1	1.564125
20.900000	1	1.588875
20.916667	1	1.599250
20.933333	1	1.596125
20.950000	1	1.579250
20.966667	1	1.550875
20.983333	1	1.510375
21.000000	1	1.462000
21.016667	1	1.405750
21.033333	1	1.343500
21.050000	1	1.279875
21.066667	1	1.215000
21.083333	1	1.149750
21.100000	1	1.086000
21.116667	1	1.024500
21.133333	1	0.966125
21.150000	1	0.911250
21.166667	1	0.859750
21.183333	1	0.812750
21.200000	1	0.769375
21.216667	1	0.729500
21.233333	1	0.693625
21.250000	1	0.661750
21.266667	1	0.633125
21.283333	1	0.607125
21.300000	1	0.583500
21.316667	1	0.562625
21.333333	1	0.543625
21.350000	1	0.526500
21.366667	1	0.510875
21.383333	1	0.496750
21.400000	1	0.484875
21.416667	1	0.474125
21.433333	1	0.463250
21.450000	1	0.453750
21.466667	1	0.445625
21.483333	1	0.437250
21.500000	1	0.430125
21.516667	1	0.423500
21.533333	1	0.418000
21.550000	1	0.413125
21.566667	1	0.408500
21.583333	1	0.405875
21.600000	1	0.404125
21.616667	1	0.402250
21.633333	1	0.401875
21.650000	1	0.402125
21.666667	1	0.404000
21.683333	1	0.406875
21.700000	1	0.411500
21.716667	1	0.416375
21.733333	1	0.422375
21.750000	1	0.429750
21.766667	1	0.438625
21.783333	1	0.447125
21.800000	1	0.456625
21.816667	1	0.467750
21.833333	1	0.477875
21.850000	1	0.488000
21.866667	1	0.499000
21.883333	1	0.509250
21.900000	1	0.518625
21.916667	1	0.527500
21.933333	1	0.536125
21.950000	1	0.544250
21.966667	1	0.551250
21.983333	1	0.557875
22.000000	1	0.563125
22.016667	1	0.567500
22.033333	1	0.571250
22.050000	1	0.574875
22.066667	1	0.577375
22.083333	1	0.579125
22.100000	1	0.580625
22.116667	1	0.581375
22.133333	1	0.581750
22.150000	1	0.581125
22.166667	1	0.579500
22.183333	1	0.575875
22.200000	1	0.572000
22.216667	1	0.566000
22.233333	1	0.559125
22.250000	1	0.550750
22.266667	1	0.541750
22.283333	1	0.532000
22.300000	1	0.520875
22.316667	1	0.509000
22.333333	1	0.496250
22.350000	1	0.483000
22.366667	1	0.468875
22.383333	1	0.454500
22.400000	1	0.440500
22.416667	1	0.427125
22.433333	1	0.414125
22.450000	1	0.400375
22.466667	1	0.388000
22.483333	1	0.375250
22.500000	1	0.363875
22.516667	1	0.353500
22.533333	1	0.343375
22.550000	1	0.334125
22.566667	1	0.325500
22.583333	1	0.317750
22.600000	1	0.310500
22.616667	1	0.304375
22.633333	1	0.297750
22.650000	1	0.292125
22.666667	1	0.286875
22.683333	1	0.282625
22.700000	1	0.278500
22.716667	1	0.274125
22.733333	1	0.269625
22.750000	1	0.266250
22.766667	1	0.262000
22.783333	1	0.259250
22.800000	1	0.256125
22.816667	1	0.253125
22.833333	1	0.250625
22.850000	1	0.247625
22.866667	1	0.244750
22.883333	1	0.241625
22.900000	1	0.240125
22.916667	1	0.238500
22.933333	1	0.237000
22.950000	1	0.235500
22.966667	1	0.234750
22.983333	1	0.234625
23.000000	1	0.234375
23.016667	1	0.233875
23.033333	1	0.233750
23.050000	1	0.234125
23.066667	1	0.235625
23.083333	1	0.236250
23.100000	1	0.237375
23.116667	1	0.238250
23.133333	1	0.239125
23.150000	1	0.239750
23.166667	1	0.240875
23.183333	1	0.241750
23.200000	1	0.243250
23.216667	1	0.244000
23.233333	1	0.244750
23.250000	1	0.246000
23.266667	1	0.247625
23.283333	1	0.248375
23.300000	1	0.251000
23.316667	1	0.254750
23.333333	1	0.259875
23.350000	1	0.267375
23.366667	1	0.278500
23.383333	1	0.294000
23.400000	1	0.314375
23.416667	1	0.342375
23.433333	1	0.378125
23.450000	1	0.425625
23.466667	1	0.485500
23.483333	1	0.560875
23.500000	1	0.653125
23.516667	1	0.766375
23.533333	1	0.902250
23.550000	1	1.064625
23.566667	1	1.251625
23.583333	1	1.467500
23.600000	1	1.710000
23.616667	1	1.980000
23.633333	1	2.275500
23.650000	1	2.593375
23.666667	1	2.929500
23.683333	1	3.279375
23.700000	1	3.637000
23.716667	1	3.994625
23.733333	1	4.345250
23.750000	1	4.680875
23.766667	1	4.994125
23.783333	1	5.276125
23.800000	1	5.521000
23.816667	1	5.724250
23.833333	1	5.881000
23.850000	1	5.988500
23.866667	1	6.044375
23.883333	1	6.051125
23.900000	1	6.010250
23.916667	1	5.923750
23.933333	1	5.795250
23.950000	1	5.631125
23.966667	1	5.436125
23.983333	1	5.216375
24.000000	1	4.977750
24.016667	1	4.726500
24.033333	1	4.466750
24.050000	1	4.204375
24.066667	1	3.943625
24.083333	1	3.686625
24.100000	1	3.435875
24.116667	1	3.194750
24.133333	1	2.964250
24.150000	1	2.745375
24.166667	1	2.539250
24.183333	1	2.345500
24.200000	1	2.164625
24.216667	1	1.996250
24.233333	1	1.839625
24.250000	1	1.694500
24.266667	1	1.560625
24.283333	1	1.436750
24.300000	1	1.323500
24.316667	1	1.219125
24.333333	1	1.124750
24.350000	1	1.038125
24.366667	1	0.960000
24.383333	1	0.889000
24.400000	1	0.825250
24.416667	1	0.768750
24.433333	1	0.719250
24.450000	1	0.674750
24.466667	1	0.635375
24.483333	1	0.601500
24.500000	1	0.571250
24.516667	1	0.545750
24.533333	1	0.522375
24.550000	1	0.502125
24.566667	1	0.485125
24.583333	1	0.469500
24.600000	1	0.455875
24.616667	1	0.444250
24.633333	1	0.433000
24.650000	1	0.423125
24.666667	1	0.414250
24.683333	1	0.405375
24.700000	1	0.396625
24.716667	1	0.389250
24.733333	1	0.381500
24.750000	1	0.374250
24.766667	1	0.367000
24.783333	1	0.360625
24.800000	1	0.353125
24.816667	1	0.346375
24.833333	1	0.339375
24.850000	1	0.333000
24.866667	1	0.326750
24.883333	1	0.320625
24.900000	1	0.315375
24.916667	1	0.310125
24.933333	1	0.305000
24.950000	1	0.300000
24.966667	1	0.295375
24.983333	1	0.291000
25.000000	1	0.287500
25.016667	1	0.284000
25.033333	1	0.280000
25.050000	1	0.276000
25.066667	1	0.273250
25.083333	1	0.270500
25.100000	1	0.267375
25.116667	1	0.265125
25.133333	1	0.263125
25.150000	1	0.260625
25.166667	1	0.257750
25.183333	1	0.255875
25.200000	1	0.254125
25.216667	1	0.252125
25.233333	1	0.250250
25.250000	1	0.248500
25.266667	1	0.247750
25.283333	1	0.246875
25.300000	1	0.246375
25.316667	1	0.245250
25.333333	1	0.244125
25.350000	1	0.243500
25.366667	1	0.243125
25.383333	1	0.243125
25.400000	1	0.242875
25.416667	1	0.243250
25.433333	1	0.242625
25.450000	1	0.243375
25.466667	1	0.244125
25.483333	1	0.245250
25.500000	1	0.246000
25.516667	1	0.246875
25.533333	1	0.247875
25.550000	1	0.249250
25.566667	1	0.250125
25.583333	1	0.251625
25.600000	1	0.253250
25.616667	1	0.254875
25.633333	1	0.256125
25.650000	1	0.256875
25.666667	1	0.258125
25.683333	1	0.259000
25.700000	1	0.260000
25.716667	1	0.260500
25.733333	1	0.262125
25.750000	1	0.262625
25.766667	1	0.263625
25.783333	1	0.263750
25.800000	1	0.264375
25.816667	1	0.264625
25.833333	1	0.265125
25.850000	1	0.265750
25.866667	1	0.266750
25.883333	1	0.267500
25.900000	1	0.269000
25.916667	1	0.270500
25.933333	1	0.271500
25.950000	1	0.274000
25.966667	1	0.276000
25.983333	1	0.277875
26.000000	1	0.280375
26.016667	1	0.284000
26.033333	1	0.287125
26.050000	1	0.290875
26.066667	1	0.294625
26.083333	1	0.299500
26.100000	1	0.303750
26.116667	1	0.309375
26.133333	1	0.314375
26.150000	1	0.320000
26.166667	1	0.325625
26.183333	1	0.331125
26.200000	1	0.336250
26.216667	1	0.342125
26.233333	1	0.347875
26.250000	1	0.352625
26.266667	1	0.357250
26.283333	1	0.361750
26.300000	1	0.365750
26.316667	1	0.369625
26.333333	1	0.372500
26.350000	1	0.374875
26.366667	1	0.376375
26.383333	1	0.376375
26.400000	1	0.376625
26.416667	1	0.376000
26.433333	1	0.374750
26.450000	1	0.373250
26.466667	1	0.370625
26.483333	1	0.367875
26.500000	1	0.364375
26.516667	1	0.359875
26.533333	1	0.354875
26.550000	1	0.348875
26.566667	1	0.342625
26.583333	1	0.336750
26.600000	1	0.330625
26.616667	1	0.324000
26.633333	1	0.317125
26.650000	1	0.310375
26.666667	1	0.303875
26.683333	1	0.297750
26.700000	1	0.290750
26.716667	1	0.284625
26.733333	1	0.278000
26.750000	1	0.272000
26.766667	1	0.266250
26.783333	1	0.260875
26.800000	1	0.256250
26.816667	1	0.251375
26.833333	1	0.247125
26.850000	1	0.243625
26.866667	1	0.240750
26.883333	1	0.237625
26.900000	1	0.235125
26.916667	1	0.233000
26.933333	1	0.230375
26.950000	1	0.228750
26.966667	1	0.228125
26.983333	1	0.227875
27.000000	1	0.227000
27.016667	1	0.227125
27.033333	1	0.228125
27.050000	1	0.228250
27.066667	1	0.229625
27.083333	1	0.231750
27.100000	1	0.234250
27.116667	1	0.236500
27.133333	1	0.239875
27.150000	1	0.243250
27.166667	1	0.247750
27.183333	1	0.252750
27.200000	1	0.258875
27.216667	1	0.265125
27.233333	1	0.272875
27.250000	1	0.281875
27.266667	1	0.293000
27.283333	1	0.305500
27.300000	1	0.320750
27.316667	1	0.338000
27.333333	1	0.359375
27.350000	1	0.384875
27.366667	1	0.414000
27.383333	1	0.448625
27.400000	1	0.488750
27.416667	1	0.535625
27.433333	1	0.590500
27.450000	1	0.654250
27.466667	1	0.727000
27.483333	1	0.810375
27.500000	1	0.904125
27.516667	1	1.009125
27.533333	1	1.125750
27.550000	1	1.254875
27.566667	1	1.395625
27.583333	1	1.547375
27.600000	1	1.710750
27.616667	1	1.883500
27.633333	1	2.066125
27.650000	1	2.255625
27.666667	1	2.449875
27.683333	1	2.648500
27.700000	1	2.847125
27.716667	1	3.043125
27.733333	1	3.233750
27.750000	1	3.415750
27.766667	1	3.586250
27.783333	1	3.741875
27.800000	1	3.881125
27.816667	1	4.000000
27.833333	1	4.097375
27.850000	1	4.170875
27.866667	1	4.219500
27.883333	1	4.242875
27.900000	1	4.240625
27.916667	1	4.212125
27.933333	1	4.159250
27.950000	1	4.083625
27.966667	1	3.986750
27.983333	1	3.871250
28.000000	1	3.739625
28.016667	1	3.594875
28.033333	1	3.439000
28.050000	1	3.274875
28.066667	1	3.104625
28.083333	1	2.931625
28.100000	1	2.758125
28.116667	1	2.586500
28.133333	1	2.418625
28.150000	1	2.255250
28.166667	1	2.098750
28.183333	1	1.949500
28.200000	1	1.807875
28.216667	1	1.674625
28.233333	1	1.549625
28.250000	1	1.432500
28.266667	1	1.323500
28.283333	1	1.223625
28.300000	1	1.131250
28.316667	1	1.046625
28.333333	1	0.969250
28.350000	1	0.898375
28.366667	1	0.834250
28.383333	1	0.776250
28.400000	1	0.723750
28.416667	1	0.677500
28.433333	1	0.635250
28.450000	1	0.598500
28.466667	1	0.565500
28.483333	1	0.536375
28.500000	1	0.511250
28.516667	1	0.489375
28.533333	1	0.471625
28.550000	1	0.457625
28.566667	1	0.446125
28.583333	1	0.438000
28.600000	1	0.432125
28.616667	1	0.428250
28.633333	1	0.426000
28.650000	1	0.426625
28.666667	1	0.428375
28.683333	1	0.431750
28.700000	1	0.436250
28.716667	1	0.441625
28.733333	1	0.447500
28.750000	1	0.454500
28.766667	1	0.462375
28.783333	1	0.470750
28.800000	1	0.478375
28.816667	1	0.486750
28.833333	1	0.494625
28.850000	1	0.502125
28.866667	1	0.508875
28.883333	1	0.515500
28.900000	1	0.521625
28.916667	1	0.526625
28.933333	1	0.530250
28.950000	1	0.533125
28.966667	1	0.535125
28.983333	1	0.536125
29.000000	1	0.535625
29.016667	1	0.533500
29.033333	1	0.529625
29.050000	1	0.524500
29.066667	1	0.518000
29.083333	1	0.509500
29.100000	1	0.499625
29.116667	1	0.486875
29.133333	1	0.472625
29.150000	1	0.455750
29.166667	1	0.436625
29.183333	1	0.415750
29.200000	1	0.391625
29.216667	1	0.364875
29.233333	1	0.336500
29.250000	1	0.305250
29.266667	1	0.270125
29.283333	1	0.232500
29.300000	1	0.192375
29.316667	1	0.149375
29.333333	1	0.103250
29.350000	1	0.053500
29.366667	1	0.001875
29.383333	1	-0.052875
29.400000	1	-0.110250
29.416667	1	-0.170125
29.433333	1	-0.231375
29.450000	1	-0.294750
29.466667	1	-0.359625
29.483333	1	-0.424875
29.500000	1	-0.491500
29.516667	1	-0.557375
29.533333	1	-0.623125
29.550000	1	-0.686625
29.566667	1	-0.749625
29.583333	1	-0.809250
29.600000	1	-0.867000
29.616667	1	-0.920875
29.633333	1	-0.971625
29.650000	1	-1.018000
29.666667	1	-1.059375
29.683333	1	-1.094875
29.700000	1	-1.125750
29.716667	1	-1.150875
29.733333	1	-1.170125
29.750000	1	-1.183750
29.766667	1	-1.191375
29.783333	1	-1.192500
29.800000	1	-1.187375
29.816667	1	-1.177875
29.833333	1	-1.163000
29.850000	1	-1.143875
29.866667	1	-1.119500
29.883333	1	-1.091125
29.900000	1	-1.059125
29.916667	1	-1.024750
29.933333	1	-0.987750
29.950000	1	-0.948375
29.966667	1	-0.906500
29.983333	1	-0.863375
30.000000	1	-0.818875
30.016667	1	-0.775000
30.033333	1	-0.730125
30.050000	1	-0.686000
30.066667	1	-0.640875
30.083333	1	-0.597500
30.100000	1	-0.554625
30.116667	1	-0.513625
30.133333	1	-0.473625
30.150000	1	-0.434625
30.166667	1	-0.397375
30.183333	1	-0.361750
30.200000	1	-0.327750
30.216667	1	-0.295000
30.233333	1	-0.264125
30.250000	1	-0.234750
30.266667	1	-0.207875
30.283333	1	-0.182000
30.300000	1	-0.159250
30.316667	1	-0.137250
30.333333	1	-0.115875
30.350000	1	-0.095875
30.366667	1	-0.077875
30.383333	1	-0.060625
30.400000	1	-0.044625
30.416667	1	-0.030500
30.433333	1	-0.017000
30.450000	1	-0.004250
30.466667	1	0.007750
30.483333	1	0.019625
30.500000	1	0.031375
30.516667	1	0.041375
30.533333	1	0.052250
30.550000	1	0.061750
30.566667	1	0.072500
30.583333	1	0.081875
30.600000	1	0.092125
30.616667	1	0.101000
30.633333	1	0.110750
30.650000	1	0.120250
30.666667	1	0.130500
30.683333	1	0.140875
30.700000	1	0.150750
30.716667	1	0.161000
30.733333	1	0.171000
30.750000	1	0.181625
30.766667	1	0.192500
30.783333	1	0.203875
30.800000	1	0.215375
30.816667	1	0.226875
30.833333	1	0.238500
30.850000	1	0.251375
30.866667	1	0.263625
30.883333	1	0.277125
30.900000	1	0.291625
30.916667	1	0.306625
30.933333	1	0.321875
30.950000	1	0.338625
30.966667	1	0.357750
30.983333	1	0.378750
31.000000	1	0.403000
31.016667	1	0.430000
31.033333	1	0.461000
31.050000	1	0.496625
31.066667	1	0.538375
31.083333	1	0.585750
31.100000	1	0.640250
31.116667	1	0.703500
31.133333	1	0.776875
31.150000	1	0.860375
31.166667	1	0.955500
31.183333	1	1.064000
31.200000	1	1.186625
31.216667	1	1.323750
31.233333	1	1.477000
31.250000	1	1.644750
31.266667	1	1.828875
31.283333	1	2.028750
31.300000	1	2.244875
31.316667	1	2.475125
31.333333	1	2.719750
31.350000	1	2.976125
31.366667	1	3.243250
31.383333	1	3.518875
31.400000	1	3.800125
31.416667	1	4.084000
31.433333	1	4.367500
31.450000	1	4.648125
31.466667	1	4.920500
31.483333	1	5.181750
31.500000	1	5.429125
31.516667	1	5.658125
31.533333	1	5.865875
31.550000	1	6.050750
31.566667	1	6.209125
31.583333	1	6.341250
31.600000	1	6.443750
31.616667	1	6.516500
31.633333	1	6.558750
31.650000	1	6.570375
31.666667	1	6.551500
31.683333	1	6.503625
31.700000	1	6.428375
31.716667	1	6.327250
31.733333	1	6.202500
31.750000	1	6.056875
31.766667	1	5.891125
31.783333	1	5.709750
31.800000	1	5.513875
31.816667	1	5.307500
31.833333	1	5.092250
31.850000	1	4.870000
31.866667	1	4.644000
31.883333	1	4.417125
31.900000	1	4.190375
31.916667	1	3.965750
31.933333	1	3.744500
31.950000	1	3.528375
31.966667	1	3.318125
31.983333	1	3.113750
32.000000	1	2.917125
32.016667	1	2.728250
32.033333	1	2.547125
32.050000	1	2.373750
32.066667	1	2.209875
32.083333	1	2.054375
32.100000	1	1.907250
32.116667	1	1.768625
32.133333	1	1.638000
32.150000	1	1.514000
32.166667	1	1.398375
32.183333	1	1.289875
32.200000	1	1.186750
32.216667	1	1.091125
32.233333	1	1.001375
32.250000	1	0.918000
32.266667	1	0.839875
32.283333	1	0.767750
32.300000	1	0.700000
32.316667	1	0.638125
32.333333	1	0.580500
32.350000	1	0.527125
32.366667	1	0.477500
32.383333	1	0.431375
32.400000	1	0.388875
32.416667	1	0.350625
32.433333	1	0.314500
32.450000	1	0.281375
32.466667	1	0.251500
32.483333	1	0.224250
32.500000	1	0.198250
32.516667	1	0.174625
32.533333	1	0.153375
32.550000	1	0.133375
32.566667	1	0.116250
32.583333	1	0.099625
32.600000	1	0.084375
32.616667	1	0.071000
32.633333	1	0.058000
32.650000	1	0.046375
32.666667	1	0.036125
32.683333	1	0.026750
32.700000	1	0.018000
32.716667	1	0.009625
32.733333	1	0.003375
32.750000	1	-0.002750
32.766667	1	-0.008500
32.783333	1	-0.013375
32.800000	1	-0.017500
32.816667	1	-0.020875
32.833333	1	-0.023625
32.850000	1	-0.026500
32.866667	1	-0.028875
32.883333	1	-0.030750
32.900000	1	-0.032250
32.916667	1	-0.033125
32.933333	1	-0.033750
32.950000	1	-0.033625
32.966667	1	-0.034000
32.983333	1	-0.034000
33.000000	1	-0.033750
33.016667	1	-0.032750
33.033333	1	-0.031625
33.050000	1	-0.030250
33.066667	1	-0.028625
33.083333	1	-0.027500
33.100000	1	-0.025875
33.116667	1	-0.025000
33.133333	1	-0.023125
33.150000	1	-0.021000
33.166667	1	-0.018875
33.183333	1	-0.017000
33.200000	1	-0.016000
33.216667	1	-0.015125
33.233333	1	-0.013875
33.250000	1	-0.012500
33.266667	1	-0.010000
33.283333	1	-0.009250
33.300000	1	-0.008250
33.316667	1	-0.006875
33.333333	1	-0.005875
33.350000	1	-0.004500
33.366667	1	-0.003375
33.383333	1	-0.002375
33.400000	1	-0.001500
33.416667	1	-0.000375
33.433333	1	0.001250
33.450000	1	0.002875
33.466667	1	0.004250
33.483333	1	0.005250
33.500000	1	0.006375
33.516667	1	0.007750
33.533333	1	0.009000
33.550000	1	0.011375
33.566667	1	0.013500
33.583333	1	0.015500
33.600000	1	0.017500
33.616667	1	0.020125
33.633333	1	0.021750
33.650000	1	0.024500
33.666667	1	0.026750
33.683333	1	0.029625
33.700000	1	0.032000
33.716667	1	0.035500
33.733333	1	0.038125
33.750000	1	0.040750
33.766667	1	0.043250
33.783333	1	0.046125
33.800000	1	0.049500
33.816667	1	0.052875
33.833333	1	0.054875
33.850000	1	0.057375
33.866667	1	0.060250
33.883333	1	0.062625
33.900000	1	0.065125
33.916667	1	0.067000
33.933333	1	0.069625
33.950000	1	0.071625
33.966667	1	0.074250
33.983333	1	0.076125
34.000000	1	0.078375
34.016667	1	0.079500
34.033333	1	0.080875
34.050000	1	0.082500
34.066667	1	0.084250
34.083333	1	0.086125
34.100000	1	0.087375
34.116667	1	0.087875
34.133333	1	0.089375
34.150000	1	0.090500
34.166667	1	0.092250
34.183333	1	0.093625
34.200000	1	0.094500
34.216667	1	0.095125
34.233333	1	0.095250
34.250000	1	0.095750
34.266667	1	0.097000
34.283333	1	0.098125
34.300000	1	0.098375
34.316667	1	0.099125
34.333333	1	0.099625
34.350000	1	0.100500
34.366667	1	0.101375
34.383333	1	0.102375
34.400000	1	0.102750
34.416667	1	0.103500
34.433333	1	0.104500
34.450000	1	0.105625
34.466667	1	0.106375
34.483333	1	0.107250
34.500000	1	0.109125
34.516667	1	0.110750
34.533333	1	0.112250
34.550000	1	0.114000
34.566667	1	0.115375
34.583333	1	0.117250
34.600000	1	0.119750
34.616667	1	0.121750
34.633333	1	0.122875
34.650000	1	0.124750
34.666667	1	0.127000
34.683333	1	0.129500
34.700000	1	0.131625
34.716667	1	0.134000
34.733333	1	0.135500
34.750000	1	0.137000
34.766667	1	0.138875
34.783333	1	0.140500
34.800000	1	0.142250
34.816667	1	0.143750
34.833333	1	0.144625
34.850000	1	0.145375
34.866667	1	0.145750
34.883333	1	0.145500
34.900000	1	0.145625
34.916667	1	0.145750
34.933333	1	0.145375
34.950000	1	0.144625
34.966667	1	0.142500
34.983333	1	0.141625
35.000000	1	0.139500
35.016667	1	0.138250
35.033333	1	0.135250
35.050000	1	0.132250
35.066667	1	0.128875
35.083333	1	0.125750
35.100000	1	0.122625
35.116667	1	0.118125
35.133333	1	0.113375
35.150000	1	0.110125
35.166667	1	0.104750
35.183333	1	0.100125
35.200000	1	0.095750
35.216667	1	0.091375
35.233333	1	0.087250
35.250000	1	0.082250
35.266667	1	0.077750
35.283333	1	0.073500
35.300000	1	0.068875
35.316667	1	0.065125
35.333333	1	0.061750
35.350000	1	0.058625
35.366667	1	0.055875
35.383333	1	0.053000
35.400000	1	0.051375
35.416667	1	0.049875
35.433333	1	0.049250
35.450000	1	0.048250
35.466667	1	0.048000
35.483333	1	0.047750
35.500000	1	0.048375
35.516667	1	0.049375
35.533333	1	0.050625
35.550000	1	0.052000
35.566667	1	0.053750
35.583333	1	0.055250
35.600000	1	0.057375
35.616667	1	0.060500
35.633333	1	0.063125
35.650000	1	0.065000
35.666667	1	0.068000
35.683333	1	0.070875
35.700000	1	0.073375
35.716667	1	0.076000
35.733333	1	0.079000
35.750000	1	0.082250
35.766667	1	0.084750
35.783333	1	0.086875
35.800000	1	0.088750
35.816667	1	0.090625
35.833333	1	0.092000
35.850000	1	0.092625
35.866667	1	0.092500
35.883333	1	0.093000
35.900000	1	0.093000
35.916667	1	0.092250
35.933333	1	0.091875
35.950000	1	0.091500
35.966667	1	0.090125
35.983333	1	0.088750
36.000000	1	0.087625
36.016667	1	0.085875
36.033333	1	0.083750
36.050000	1	0.081875
36.066667	1	0.079875
36.083333	1	0.077250
36.100000	1	0.075375
36.116667	1	0.073250
36.133333	1	0.071000
36.150000	1	0.068625
36.166667	1	0.067000
36.183333	1	0.064625
36.200000	1	0.063125
36.216667	1	0.061750
36.233333	1	0.060000
36.250000	1	0.059125
36.266667	1	0.058500
36.283333	1	0.056750
36.300000	1	0.056625
36.316667	1	0.057000
36.333333	1	0.056375
36.350000	1	0.057000
36.366667	1	0.057250
36.383333	1	0.058000
36.400000	1	0.058875
36.416667	1	0.060625
36.433333	1	0.061250
36.450000	1	0.063750
36.466667	1	0.065500
36.483333	1	0.066875
36.500000	1	0.068375
36.516667	1	0.069875
36.533333	1	0.071875
36.550000	1	0.073750
36.566667	1	0.075375
36.583333	1	0.076875
36.600000	1	0.078250
36.616667	1	0.079375
36.633333	1	0.080375
36.650000	1	0.081250
36.666667	1	0.082625
36.683333	1	0.083250
36.700000	1	0.083750
36.716667	1	0.084000
36.733333	1	0.083875
36.750000	1	0.083625
36.766667	1	0.083750
36.783333	1	0.083125
36.800000	1	0.081625
36.816667	1	0.079625
36.833333	1	0.078875
36.850000	1	0.077000
36.866667	1	0.075125
36.883333	1	0.072875
36.900000	1	0.070500
36.916667	1	0.067625
36.933333	1	0.065250
36.950000	1	0.062625
36.966667	1	0.059250
36.983333	1	0.056000
37.000000	1	0.052250
37.016667	1	0.048375
37.033333	1	0.044625
37.050000	1	0.041625
37.066667	1	0.038000
37.083333	1	0.033875
37.100000	1	0.030375
37.116667	1	0.027000
37.133333	1	0.023375
37.150000	1	0.019250
37.166667	1	0.015750
37.183333	1	0.012375
37.200000	1	0.009375
37.216667	1	0.005750
37.233333	1	0.002875
37.250000	1	0.000000
37.266667	1	-0.002875
37.283333	1	-0.004875
37.300000	1	-0.007500
37.316667	1	-0.009500
37.333333	1	-0.011375
37.350000	1	-0.013250
37.366667	1	-0.015125
37.383333	1	-0.016500
37.400000	1	-0.018125
37.416667	1	-0.020125
37.433333	1	-0.020750
37.450000	1	-0.021750
37.466667	1	-0.023000
37.483333	1	-0.024125
37.500000	1	-0.024000
37.516667	1	-0.024875
37.533333	1	-0.025875
37.550000	1	-0.026375
37.566667	1	-0.027500
37.583333	1	-0.028375
37.600000	1	-0.028500
37.616667	1	-0.028875
37.633333	1	-0.029000
37.650000	1	-0.028750
37.666667	1	-0.028750
37.683333	1	-0.028125
37.700000	1	-0.027375
37.716667	1	-0.026875
37.733333	1	-0.026125
37.750000	1	-0.025750
37.766667	1	-0.025000
37.783333	1	-0.024500
37.800000	1	-0.023750
37.816667	1	-0.022375
37.833333	1	-0.021250
37.850000	1	-0.020125
37.866667	1	-0.018875
37.883333	1	-0.017375
37.900000	1	-0.015750
37.916667	1	-0.014000
37.933333	1	-0.013375
37.950000	1	-0.012000
37.966667	1	-0.011125
37.983333	1	-0.010000
38.000000	1	-0.008875
38.016667	1	-0.006750
38.033333	1	-0.005750
38.050000	1	-0.005750
38.066667	1	-0.005000
38.083333	1	-0.003625
38.100000	1	-0.003375
38.116667	1	-0.002875
38.133333	1	-0.002250
38.150000	1	-0.001500
38.166667	1	-0.001250
38.183333	1	-0.001375
38.200000	1	-0.000500
38.216667	1	-0.000250
38.233333	1	-0.000625
38.250000	1	-0.000500
38.266667	1	0.000000
38.283333	1	0.000000
38.300000	1	0.000875
38.316667	1	0.001000
38.333333	1	0.001625
38.350000	1	0.001875
38.366667	1	0.002625
38.383333	1	0.003375
38.400000	1	0.004125
38.416667	1	0.005000
38.433333	1	0.006250
38.450000	1	0.006375
38.466667	1	0.008125
38.483333	1	0.009500
38.500000	1	0.012000
38.516667	1	0.013750
38.533333	1	0.014875
38.550000	1	0.017250
38.566667	1	0.019375
38.583333	1	0.021750
38.600000	1	0.023250
38.616667	1	0.025625
38.633333	1	0.027750
38.650000	1	0.030000
38.666667	1	0.032375
38.683333	1	0.035000
38.700000	1	0.038000
38.716667	1	0.040625
38.733333	1	0.042625
38.750000	1	0.045125
38.766667	1	0.047375
38.783333	1	0.050375
38.800000	1	0.053000
38.816667	1	0.055250
38.833333	1	0.056875
38.850000	1	0.058625
38.866667	1	0.060625
38.883333	1	0.062625
38.900000	1	0.064000
38.916667	1	0.065250
38.933333	1	0.066125
38.950000	1	0.067000
38.966667	1	0.067500
38.983333	1	0.067250
39.000000	1	0.067375
39.016667	1	0.066375
39.033333	1	0.065875
39.050000	1	0.064875
39.066667	1	0.063875
39.083333	1	0.062125
39.100000	1	0.060125
39.116667	1	0.057250
39.133333	1	0.055000
39.150000	1	0.051875
39.166667	1	0.049500
39.183333	1	0.046375
39.200000	1	0.043125
39.216667	1	0.039750
39.233333	1	0.036500
39.250000	1	0.033250
39.266667	1	0.030625
39.283333	1	0.026875
39.300000	1	0.023375
39.316667	1	0.020125
39.333333	1	0.016750
39.350000	1	0.013750
39.366667	1	0.009875
39.383333	1	0.006875
39.400000	1	0.003500
39.416667	1	0.000500
39.433333	1	-0.002500
39.450000	1	-0.004750
39.466667	1	-0.007875
39.483333	1	-0.010500
39.500000	1	-0.012875
39.516667	1	-0.015375
39.533333	1	-0.017625
39.550000	1	-0.020125
39.566667	1	-0.022250
39.583333	1	-0.024500
39.600000	1	-0.027000
39.616667	1	-0.028875
39.633333	1	-0.030500
39.650000	1	-0.032000
39.666667	1	-0.033375
39.683333	1	-0.034875
39.700000	1	-0.036625
39.716667	1	-0.038625
39.733333	1	-0.040000
39.750000	1	-0.041125
39.766667	1	-0.042625
39.783333	1	-0.044375
39.800000	1	-0.045500
39.816667	1	-0.047000
39.833333	1	-0.047750
39.850000	1	-0.048875
39.866667	1	-0.049500
39.883333	1	-0.049750
39.900000	1	-0.049875
39.916667	1	-0.050625
39.933333	1	-0.051625
39.950000	1	-0.052000
39.966667	1	-0.052625
39.983333	1	-0.053000
40.000000	1	-0.053375
