URL	chrom://7040-86g6c92/XVault/Ultimate_3000/20/20240517_CMO_FP23_FP25_MarkusDeplate.seq/187.smp/RI_1.channel/RI_1.chm
Channel	RI_1

Injection Information:
Data Vault	XVault
Sequence	20240517_CMO_FP23_FP25_MarkusDeplate
Name	FP23_21_s2
Number	19
Position	BB7
Comment	
Processing Method	
Instrument Method	run_25B_method
Type	Unknown
Status	Finished
Inject Time	28.05.2024 06:19:44 +02:00
Volume (µl)	20.0000
Dilution Factor	1.0000
Weight	1.0000

Chromatogram Data Information:
Time Min. (min)	0.000000
Time Max. (min)	40.000000
Data Points	2401
Detector	RI
Generating Data System	Chromeleon 7.3.2.11814
Exporting Data System	Chromeleon 7.3.2.0
Operator	Instrument Controller
Signal Quantity	Refractive 
Signal Unit	µRIU
Signal Min.	-1.161500
Signal Max.	70.580750
Channel	RI_1
Driver Name	RID520Driver.dll
Channel Type	Evaluation
Min. Step (s)	1
Max. Step (s)	1
Average Step (s)	1

Signal Parameter Information:
Signal Info	

Chromatogram Data:
Time (min)	Step (s)	Value (µRIU)
0.000000	n.a.	0.046625
0.016667	1	0.047125
0.033333	1	0.048250
0.050000	1	0.048875
0.066667	1	0.049750
0.083333	1	0.049375
0.100000	1	0.049625
0.116667	1	0.049500
0.133333	1	0.049375
0.150000	1	0.049250
0.166667	1	0.049500
0.183333	1	0.048375
0.200000	1	0.046875
0.216667	1	0.046250
0.233333	1	0.045500
0.250000	1	0.043625
0.266667	1	0.042500
0.283333	1	0.040875
0.300000	1	0.039500
0.316667	1	0.037625
0.333333	1	0.036500
0.350000	1	0.034875
0.366667	1	0.032750
0.383333	1	0.030625
0.400000	1	0.028000
0.416667	1	0.027000
0.433333	1	0.027250
0.450000	1	0.028375
0.466667	1	0.030250
0.483333	1	0.031000
0.500000	1	0.031500
0.516667	1	0.032000
0.533333	1	0.032375
0.550000	1	0.032625
0.566667	1	0.030750
0.583333	1	0.029000
0.600000	1	0.027125
0.616667	1	0.025625
0.633333	1	0.024250
0.650000	1	0.023500
0.666667	1	0.023500
0.683333	1	0.024250
0.700000	1	0.024000
0.716667	1	0.024375
0.733333	1	0.025375
0.750000	1	0.026375
0.766667	1	0.027375
0.783333	1	0.027250
0.800000	1	0.027625
0.816667	1	0.029000
0.833333	1	0.029750
0.850000	1	0.030125
0.866667	1	0.031000
0.883333	1	0.032000
0.900000	1	0.032375
0.916667	1	0.033375
0.933333	1	0.034125
0.950000	1	0.034500
0.966667	1	0.034875
0.983333	1	0.035500
1.000000	1	0.036250
1.016667	1	0.036250
1.033333	1	0.036875
1.050000	1	0.036875
1.066667	1	0.036875
1.083333	1	0.037500
1.100000	1	0.036875
1.116667	1	0.036625
1.133333	1	0.035625
1.150000	1	0.035250
1.166667	1	0.034250
1.183333	1	0.033000
1.200000	1	0.031875
1.216667	1	0.031125
1.233333	1	0.029750
1.250000	1	0.028750
1.266667	1	0.026875
1.283333	1	0.025500
1.300000	1	0.023000
1.316667	1	0.021000
1.333333	1	0.019125
1.350000	1	0.017375
1.366667	1	0.015500
1.383333	1	0.013500
1.400000	1	0.012500
1.416667	1	0.010875
1.433333	1	0.009750
1.450000	1	0.008875
1.466667	1	0.008250
1.483333	1	0.007375
1.500000	1	0.007125
1.516667	1	0.006500
1.533333	1	0.006125
1.550000	1	0.006375
1.566667	1	0.006625
1.583333	1	0.007000
1.600000	1	0.007750
1.616667	1	0.008125
1.633333	1	0.008250
1.650000	1	0.008750
1.666667	1	0.010375
1.683333	1	0.011375
1.700000	1	0.012375
1.716667	1	0.013750
1.733333	1	0.015125
1.750000	1	0.016125
1.766667	1	0.017250
1.783333	1	0.018125
1.800000	1	0.019250
1.816667	1	0.019500
1.833333	1	0.020500
1.850000	1	0.021750
1.866667	1	0.022875
1.883333	1	0.023750
1.900000	1	0.024000
1.916667	1	0.024250
1.933333	1	0.024250
1.950000	1	0.024500
1.966667	1	0.024500
1.983333	1	0.024000
2.000000	1	0.023500
2.016667	1	0.023000
2.033333	1	0.022625
2.050000	1	0.022500
2.066667	1	0.022375
2.083333	1	0.021625
2.100000	1	0.020750
2.116667	1	0.021000
2.133333	1	0.019750
2.150000	1	0.018625
2.166667	1	0.017375
2.183333	1	0.017000
2.200000	1	0.016500
2.216667	1	0.015875
2.233333	1	0.015000
2.250000	1	0.013875
2.266667	1	0.013375
2.283333	1	0.012500
2.300000	1	0.011750
2.316667	1	0.011125
2.333333	1	0.010375
2.350000	1	0.009875
2.366667	1	0.009000
2.383333	1	0.008250
2.400000	1	0.008000
2.416667	1	0.007250
2.433333	1	0.007125
2.450000	1	0.006000
2.466667	1	0.005875
2.483333	1	0.004250
2.500000	1	0.003125
2.516667	1	0.002000
2.533333	1	0.001125
2.550000	1	0.000000
2.566667	1	-0.000375
2.583333	1	-0.001000
2.600000	1	-0.002375
2.616667	1	-0.003000
2.633333	1	-0.004250
2.650000	1	-0.005000
2.666667	1	-0.005750
2.683333	1	-0.005750
2.700000	1	-0.006750
2.716667	1	-0.007125
2.733333	1	-0.008000
2.750000	1	-0.008250
2.766667	1	-0.008750
2.783333	1	-0.008000
2.800000	1	-0.008125
2.816667	1	-0.007875
2.833333	1	-0.007500
2.850000	1	-0.006625
2.866667	1	-0.005875
2.883333	1	-0.005375
2.900000	1	-0.004625
2.916667	1	-0.003375
2.933333	1	-0.002625
2.950000	1	-0.002125
2.966667	1	-0.001000
2.983333	1	0.000000
3.000000	1	0.001625
3.016667	1	0.002875
3.033333	1	0.004000
3.050000	1	0.005375
3.066667	1	0.006250
3.083333	1	0.006000
3.100000	1	0.007000
3.116667	1	0.007500
3.133333	1	0.007500
3.150000	1	0.007750
3.166667	1	0.007625
3.183333	1	0.007750
3.200000	1	0.008125
3.216667	1	0.008625
3.233333	1	0.008750
3.250000	1	0.009500
3.266667	1	0.010250
3.283333	1	0.010500
3.300000	1	0.010500
3.316667	1	0.011125
3.333333	1	0.011125
3.350000	1	0.011250
3.366667	1	0.011500
3.383333	1	0.012500
3.400000	1	0.013000
3.416667	1	0.013125
3.433333	1	0.014250
3.450000	1	0.014875
3.466667	1	0.016000
3.483333	1	0.016500
3.500000	1	0.016625
3.516667	1	0.017250
3.533333	1	0.017750
3.550000	1	0.018625
3.566667	1	0.019375
3.583333	1	0.020750
3.600000	1	0.022000
3.616667	1	0.022500
3.633333	1	0.022625
3.650000	1	0.022875
3.666667	1	0.023250
3.683333	1	0.023500
3.700000	1	0.024375
3.716667	1	0.024375
3.733333	1	0.025000
3.750000	1	0.025125
3.766667	1	0.025250
3.783333	1	0.024875
3.800000	1	0.026375
3.816667	1	0.026125
3.833333	1	0.025375
3.850000	1	0.025125
3.866667	1	0.024375
3.883333	1	0.024125
3.900000	1	0.023375
3.916667	1	0.022250
3.933333	1	0.021000
3.950000	1	0.019000
3.966667	1	0.017875
3.983333	1	0.017000
4.000000	1	0.016375
4.016667	1	0.014750
4.033333	1	0.014125
4.050000	1	0.012375
4.066667	1	0.010750
4.083333	1	0.009875
4.100000	1	0.008250
4.116667	1	0.007125
4.133333	1	0.006250
4.150000	1	0.006375
4.166667	1	0.006375
4.183333	1	0.006500
4.200000	1	0.006375
4.216667	1	0.007375
4.233333	1	0.007500
4.250000	1	0.009500
4.266667	1	0.010500
4.283333	1	0.012000
4.300000	1	0.013375
4.316667	1	0.014625
4.333333	1	0.016375
4.350000	1	0.018000
4.366667	1	0.019125
4.383333	1	0.020750
4.400000	1	0.023000
4.416667	1	0.024750
4.433333	1	0.026375
4.450000	1	0.027875
4.466667	1	0.029875
4.483333	1	0.031250
4.500000	1	0.032000
4.516667	1	0.032875
4.533333	1	0.033250
4.550000	1	0.033875
4.566667	1	0.035000
4.583333	1	0.035000
4.600000	1	0.035375
4.616667	1	0.035500
4.633333	1	0.035875
4.650000	1	0.036625
4.666667	1	0.036500
4.683333	1	0.035875
4.700000	1	0.035875
4.716667	1	0.035500
4.733333	1	0.035875
4.750000	1	0.036250
4.766667	1	0.037125
4.783333	1	0.037750
4.800000	1	0.038625
4.816667	1	0.039500
4.833333	1	0.040000
4.850000	1	0.041000
4.866667	1	0.042500
4.883333	1	0.044000
4.900000	1	0.045250
4.916667	1	0.047125
4.933333	1	0.049000
4.950000	1	0.051500
4.966667	1	0.054500
4.983333	1	0.057625
5.000000	1	0.060250
5.016667	1	0.063375
5.033333	1	0.066375
5.050000	1	0.069125
5.066667	1	0.072375
5.083333	1	0.076250
5.100000	1	0.079875
5.116667	1	0.083250
5.133333	1	0.086500
5.150000	1	0.090125
5.166667	1	0.093500
5.183333	1	0.096625
5.200000	1	0.100625
5.216667	1	0.104625
5.233333	1	0.108250
5.250000	1	0.112625
5.266667	1	0.117500
5.283333	1	0.122500
5.300000	1	0.127000
5.316667	1	0.131250
5.333333	1	0.136125
5.350000	1	0.140875
5.366667	1	0.146000
5.383333	1	0.151500
5.400000	1	0.156750
5.416667	1	0.162375
5.433333	1	0.167250
5.450000	1	0.172500
5.466667	1	0.177875
5.483333	1	0.182375
5.500000	1	0.187375
5.516667	1	0.193375
5.533333	1	0.199625
5.550000	1	0.204500
5.566667	1	0.209500
5.583333	1	0.215500
5.600000	1	0.220375
5.616667	1	0.225375
5.633333	1	0.230125
5.650000	1	0.234375
5.666667	1	0.238875
5.683333	1	0.242875
5.700000	1	0.246375
5.716667	1	0.250500
5.733333	1	0.254375
5.750000	1	0.257750
5.766667	1	0.261625
5.783333	1	0.265125
5.800000	1	0.267500
5.816667	1	0.269375
5.833333	1	0.270875
5.850000	1	0.272250
5.866667	1	0.273375
5.883333	1	0.273875
5.900000	1	0.274625
5.916667	1	0.274625
5.933333	1	0.274250
5.950000	1	0.274000
5.966667	1	0.273625
5.983333	1	0.272875
6.000000	1	0.271875
6.016667	1	0.270250
6.033333	1	0.268875
6.050000	1	0.266875
6.066667	1	0.264500
6.083333	1	0.262000
6.100000	1	0.259875
6.116667	1	0.257375
6.133333	1	0.253875
6.150000	1	0.251125
6.166667	1	0.247750
6.183333	1	0.244750
6.200000	1	0.241375
6.216667	1	0.238250
6.233333	1	0.234875
6.250000	1	0.231125
6.266667	1	0.227375
6.283333	1	0.224375
6.300000	1	0.221625
6.316667	1	0.217750
6.333333	1	0.214000
6.350000	1	0.210750
6.366667	1	0.207000
6.383333	1	0.203125
6.400000	1	0.200250
6.416667	1	0.197125
6.433333	1	0.193500
6.450000	1	0.189375
6.466667	1	0.186500
6.483333	1	0.183750
6.500000	1	0.180250
6.516667	1	0.177500
6.533333	1	0.174750
6.550000	1	0.171750
6.566667	1	0.169625
6.583333	1	0.166750
6.600000	1	0.164250
6.616667	1	0.161750
6.633333	1	0.159625
6.650000	1	0.157375
6.666667	1	0.154625
6.683333	1	0.152750
6.700000	1	0.150750
6.716667	1	0.148625
6.733333	1	0.146375
6.750000	1	0.144625
6.766667	1	0.143250
6.783333	1	0.141500
6.800000	1	0.140125
6.816667	1	0.138375
6.833333	1	0.136875
6.850000	1	0.135000
6.866667	1	0.133625
6.883333	1	0.132375
6.900000	1	0.131250
6.916667	1	0.130125
6.933333	1	0.129625
6.950000	1	0.128875
6.966667	1	0.127625
6.983333	1	0.126500
7.000000	1	0.125625
7.016667	1	0.125250
7.033333	1	0.124125
7.050000	1	0.123500
7.066667	1	0.122875
7.083333	1	0.122250
7.100000	1	0.121750
7.116667	1	0.122000
7.133333	1	0.121750
7.150000	1	0.121375
7.166667	1	0.121000
7.183333	1	0.121625
7.200000	1	0.121875
7.216667	1	0.122375
7.233333	1	0.122250
7.250000	1	0.122500
7.266667	1	0.122750
7.283333	1	0.122375
7.300000	1	0.122875
7.316667	1	0.123750
7.333333	1	0.125750
7.350000	1	0.126500
7.366667	1	0.128125
7.383333	1	0.129250
7.400000	1	0.130625
7.416667	1	0.131625
7.433333	1	0.133625
7.450000	1	0.134125
7.466667	1	0.136000
7.483333	1	0.137375
7.500000	1	0.138875
7.516667	1	0.140500
7.533333	1	0.141375
7.550000	1	0.143125
7.566667	1	0.144125
7.583333	1	0.145750
7.600000	1	0.147750
7.616667	1	0.148625
7.633333	1	0.148625
7.650000	1	0.148875
7.666667	1	0.148875
7.683333	1	0.149875
7.700000	1	0.150250
7.716667	1	0.150375
7.733333	1	0.149875
7.750000	1	0.149375
7.766667	1	0.147750
7.783333	1	0.147500
7.800000	1	0.146375
7.816667	1	0.145125
7.833333	1	0.142500
7.850000	1	0.139750
7.866667	1	0.137625
7.883333	1	0.135625
7.900000	1	0.133750
7.916667	1	0.131000
7.933333	1	0.127875
7.950000	1	0.124375
7.966667	1	0.120625
7.983333	1	0.117875
8.000000	1	0.114750
8.016667	1	0.111375
8.033333	1	0.107875
8.050000	1	0.104375
8.066667	1	0.100625
8.083333	1	0.096500
8.100000	1	0.092625
8.116667	1	0.089125
8.133333	1	0.085500
8.150000	1	0.081375
8.166667	1	0.077875
8.183333	1	0.073750
8.200000	1	0.070125
8.216667	1	0.066500
8.233333	1	0.062375
8.250000	1	0.057750
8.266667	1	0.053875
8.283333	1	0.050625
8.300000	1	0.046625
8.316667	1	0.042500
8.333333	1	0.038000
8.350000	1	0.034500
8.366667	1	0.031000
8.383333	1	0.027625
8.400000	1	0.024125
8.416667	1	0.020875
8.433333	1	0.017500
8.450000	1	0.014875
8.466667	1	0.012000
8.483333	1	0.009375
8.500000	1	0.007500
8.516667	1	0.005375
8.533333	1	0.003500
8.550000	1	0.001750
8.566667	1	0.000375
8.583333	1	0.000000
8.600000	1	-0.000625
8.616667	1	-0.001250
8.633333	1	-0.001500
8.650000	1	-0.002125
8.666667	1	-0.002375
8.683333	1	-0.002875
8.700000	1	-0.002625
8.716667	1	-0.002000
8.733333	1	-0.001750
8.750000	1	-0.002000
8.766667	1	-0.001625
8.783333	1	-0.001375
8.800000	1	-0.000250
8.816667	1	0.000000
8.833333	1	0.000125
8.850000	1	0.000500
8.866667	1	0.000625
8.883333	1	0.000500
8.900000	1	0.000875
8.916667	1	0.001125
8.933333	1	0.001125
8.950000	1	0.000125
8.966667	1	-0.000750
8.983333	1	-0.002125
9.000000	1	-0.002625
9.016667	1	-0.003875
9.033333	1	-0.005250
9.050000	1	-0.006875
9.066667	1	-0.008375
9.083333	1	-0.010000
9.100000	1	-0.011875
9.116667	1	-0.013625
9.133333	1	-0.015125
9.150000	1	-0.016625
9.166667	1	-0.018125
9.183333	1	-0.019375
9.200000	1	-0.020250
9.216667	1	-0.021375
9.233333	1	-0.022375
9.250000	1	-0.023625
9.266667	1	-0.024000
9.283333	1	-0.023625
9.300000	1	-0.024000
9.316667	1	-0.023500
9.333333	1	-0.022625
9.350000	1	-0.021875
9.366667	1	-0.021625
9.383333	1	-0.021000
9.400000	1	-0.019250
9.416667	1	-0.017625
9.433333	1	-0.016125
9.450000	1	-0.015375
9.466667	1	-0.014500
9.483333	1	-0.012125
9.500000	1	-0.010750
9.516667	1	-0.008875
9.533333	1	-0.007125
9.550000	1	-0.005250
9.566667	1	-0.003625
9.583333	1	-0.002250
9.600000	1	-0.000625
9.616667	1	0.000375
9.633333	1	0.001375
9.650000	1	0.001875
9.666667	1	0.002625
9.683333	1	0.002625
9.700000	1	0.002750
9.716667	1	0.002875
9.733333	1	0.003125
9.750000	1	0.004000
9.766667	1	0.004125
9.783333	1	0.004125
9.800000	1	0.003000
9.816667	1	0.002875
9.833333	1	0.002875
9.850000	1	0.003125
9.866667	1	0.003250
9.883333	1	0.003625
9.900000	1	0.003875
9.916667	1	0.004750
9.933333	1	0.005125
9.950000	1	0.005375
9.966667	1	0.005750
9.983333	1	0.007250
10.000000	1	0.008750
10.016667	1	0.010375
10.033333	1	0.012500
10.050000	1	0.015500
10.066667	1	0.018125
10.083333	1	0.021750
10.100000	1	0.025500
10.116667	1	0.029625
10.133333	1	0.035000
10.150000	1	0.040125
10.166667	1	0.046250
10.183333	1	0.053500
10.200000	1	0.062125
10.216667	1	0.071625
10.233333	1	0.083875
10.250000	1	0.098000
10.266667	1	0.114500
10.283333	1	0.133625
10.300000	1	0.154875
10.316667	1	0.179375
10.333333	1	0.207625
10.350000	1	0.239875
10.366667	1	0.276000
10.383333	1	0.317000
10.400000	1	0.363125
10.416667	1	0.411250
10.433333	1	0.454250
10.450000	1	0.480125
10.466667	1	0.474625
10.483333	1	0.429375
10.500000	1	0.347000
10.516667	1	0.256875
10.533333	1	0.214625
10.550000	1	0.305375
10.566667	1	0.631000
10.583333	1	1.296875
10.600000	1	2.397250
10.616667	1	4.013250
10.633333	1	6.197500
10.650000	1	8.982000
10.666667	1	12.379625
10.683333	1	16.381125
10.700000	1	20.946750
10.716667	1	26.000875
10.733333	1	31.416875
10.750000	1	36.998625
10.766667	1	42.457375
10.783333	1	47.410125
10.800000	1	51.394625
10.816667	1	53.939000
10.833333	1	54.686500
10.850000	1	53.517625
10.866667	1	50.605625
10.883333	1	46.369125
10.900000	1	41.344125
10.916667	1	36.046500
10.933333	1	30.878125
10.950000	1	26.099000
10.966667	1	21.850500
10.983333	1	18.178000
11.000000	1	15.074000
11.016667	1	12.497375
11.033333	1	10.390250
11.050000	1	8.685125
11.066667	1	7.315625
11.083333	1	6.217500
11.100000	1	5.336500
11.116667	1	4.628500
11.133333	1	4.055000
11.150000	1	3.588250
11.166667	1	3.204750
11.183333	1	2.887500
11.200000	1	2.621500
11.216667	1	2.397500
11.233333	1	2.207125
11.250000	1	2.044875
11.266667	1	1.905125
11.283333	1	1.784875
11.300000	1	1.681125
11.316667	1	1.590250
11.333333	1	1.510625
11.350000	1	1.440875
11.366667	1	1.380250
11.383333	1	1.326125
11.400000	1	1.278375
11.416667	1	1.236375
11.433333	1	1.199000
11.450000	1	1.166500
11.466667	1	1.136750
11.483333	1	1.108625
11.500000	1	1.084375
11.516667	1	1.062500
11.533333	1	1.042625
11.550000	1	1.024875
11.566667	1	1.009000
11.583333	1	0.995000
11.600000	1	0.982250
11.616667	1	0.970875
11.633333	1	0.961125
11.650000	1	0.953250
11.666667	1	0.946625
11.683333	1	0.941500
11.700000	1	0.937500
11.716667	1	0.936125
11.733333	1	0.936000
11.750000	1	0.937250
11.766667	1	0.939375
11.783333	1	0.942500
11.800000	1	0.946750
11.816667	1	0.951000
11.833333	1	0.954250
11.850000	1	0.958750
11.866667	1	0.962125
11.883333	1	0.965750
11.900000	1	0.968375
11.916667	1	0.971750
11.933333	1	0.974750
11.950000	1	0.978625
11.966667	1	0.982625
11.983333	1	0.987125
12.000000	1	0.991875
12.016667	1	0.997625
12.033333	1	1.002625
12.050000	1	1.009625
12.066667	1	1.016500
12.083333	1	1.024000
12.100000	1	1.032375
12.116667	1	1.041000
12.133333	1	1.049500
12.150000	1	1.058875
12.166667	1	1.068625
12.183333	1	1.079375
12.200000	1	1.091500
12.216667	1	1.105250
12.233333	1	1.119750
12.250000	1	1.135625
12.266667	1	1.154000
12.283333	1	1.174750
12.300000	1	1.197875
12.316667	1	1.224625
12.333333	1	1.255625
12.350000	1	1.293125
12.366667	1	1.340000
12.383333	1	1.400000
12.400000	1	1.479000
12.416667	1	1.583125
12.433333	1	1.720750
12.450000	1	1.899875
12.466667	1	2.129750
12.483333	1	2.418750
12.500000	1	2.770375
12.516667	1	3.189625
12.533333	1	3.674750
12.550000	1	4.220875
12.566667	1	4.817500
12.583333	1	5.452625
12.600000	1	6.109125
12.616667	1	6.770875
12.633333	1	7.423125
12.650000	1	8.050875
12.666667	1	8.647000
12.683333	1	9.207500
12.700000	1	9.731250
12.716667	1	10.222375
12.733333	1	10.688375
12.750000	1	11.137750
12.766667	1	11.583625
12.783333	1	12.033000
12.800000	1	12.495750
12.816667	1	12.976625
12.833333	1	13.481375
12.850000	1	14.009250
12.866667	1	14.550625
12.883333	1	15.069625
12.900000	1	15.491125
12.916667	1	15.696750
12.933333	1	15.559375
12.950000	1	14.999000
12.966667	1	14.024625
12.983333	1	12.732125
13.000000	1	11.269500
13.016667	1	9.783375
13.033333	1	8.380375
13.050000	1	7.123125
13.066667	1	6.034875
13.083333	1	5.115125
13.100000	1	4.352000
13.116667	1	3.727250
13.133333	1	3.222750
13.150000	1	2.819125
13.166667	1	2.497500
13.183333	1	2.243125
13.200000	1	2.040750
13.216667	1	1.879875
13.233333	1	1.751625
13.250000	1	1.647875
13.266667	1	1.563000
13.283333	1	1.493000
13.300000	1	1.434125
13.316667	1	1.382875
13.333333	1	1.338000
13.350000	1	1.298875
13.366667	1	1.263000
13.383333	1	1.231125
13.400000	1	1.201750
13.416667	1	1.176000
13.433333	1	1.153500
13.450000	1	1.133750
13.466667	1	1.116875
13.483333	1	1.102875
13.500000	1	1.091500
13.516667	1	1.082125
13.533333	1	1.075000
13.550000	1	1.070250
13.566667	1	1.065000
13.583333	1	1.059375
13.600000	1	1.053500
13.616667	1	1.045500
13.633333	1	1.036125
13.650000	1	1.022750
13.666667	1	1.008375
13.683333	1	0.991875
13.700000	1	0.972625
13.716667	1	0.952500
13.733333	1	0.931125
13.750000	1	0.909000
13.766667	1	0.886750
13.783333	1	0.865000
13.800000	1	0.843875
13.816667	1	0.823125
13.833333	1	0.802125
13.850000	1	0.783125
13.866667	1	0.764875
13.883333	1	0.747125
13.900000	1	0.729875
13.916667	1	0.713875
13.933333	1	0.698000
13.950000	1	0.684000
13.966667	1	0.670750
13.983333	1	0.658000
14.000000	1	0.645375
14.016667	1	0.634000
14.033333	1	0.623875
14.050000	1	0.613875
14.066667	1	0.604500
14.083333	1	0.596000
14.100000	1	0.588000
14.116667	1	0.580750
14.133333	1	0.574125
14.150000	1	0.567000
14.166667	1	0.561500
14.183333	1	0.557750
14.200000	1	0.554875
14.216667	1	0.552625
14.233333	1	0.552000
14.250000	1	0.551125
14.266667	1	0.551625
14.283333	1	0.553250
14.300000	1	0.555000
14.316667	1	0.558000
14.333333	1	0.563250
14.350000	1	0.569500
14.366667	1	0.577875
14.383333	1	0.587375
14.400000	1	0.599625
14.416667	1	0.614750
14.433333	1	0.635250
14.450000	1	0.664000
14.466667	1	0.707125
14.483333	1	0.775625
14.500000	1	0.882750
14.516667	1	1.051250
14.533333	1	1.312875
14.550000	1	1.710750
14.566667	1	2.298500
14.583333	1	3.146000
14.600000	1	4.331625
14.616667	1	5.944500
14.633333	1	8.078750
14.650000	1	10.819875
14.666667	1	14.233125
14.683333	1	18.351875
14.700000	1	23.160625
14.716667	1	28.587125
14.733333	1	34.499750
14.750000	1	40.707875
14.766667	1	46.965875
14.783333	1	52.990625
14.800000	1	58.496875
14.816667	1	63.211500
14.833333	1	66.900500
14.850000	1	69.388875
14.866667	1	70.580750
14.883333	1	70.464500
14.900000	1	69.115625
14.916667	1	66.678500
14.933333	1	63.350000
14.950000	1	59.351375
14.966667	1	54.912875
14.983333	1	50.250000
15.000000	1	45.543250
15.016667	1	40.938125
15.033333	1	36.542625
15.050000	1	32.431625
15.066667	1	28.649000
15.083333	1	25.213125
15.100000	1	22.125250
15.116667	1	19.372000
15.133333	1	16.929875
15.150000	1	14.773375
15.166667	1	12.876125
15.183333	1	11.212500
15.200000	1	9.755875
15.216667	1	8.483375
15.233333	1	7.373375
15.250000	1	6.409750
15.266667	1	5.577125
15.283333	1	4.862750
15.300000	1	4.254250
15.316667	1	3.740375
15.333333	1	3.311250
15.350000	1	2.957125
15.366667	1	2.668625
15.383333	1	2.436875
15.400000	1	2.252750
15.416667	1	2.106500
15.433333	1	1.992250
15.450000	1	1.901500
15.466667	1	1.828125
15.483333	1	1.765625
15.500000	1	1.710375
15.516667	1	1.658125
15.533333	1	1.607500
15.550000	1	1.556375
15.566667	1	1.504625
15.583333	1	1.452875
15.600000	1	1.401625
15.616667	1	1.351375
15.633333	1	1.303000
15.650000	1	1.256625
15.666667	1	1.213875
15.683333	1	1.174125
15.700000	1	1.137000
15.716667	1	1.103125
15.733333	1	1.070375
15.750000	1	1.040875
15.766667	1	1.012500
15.783333	1	0.986125
15.800000	1	0.960875
15.816667	1	0.936875
15.833333	1	0.914750
15.850000	1	0.893250
15.866667	1	0.873500
15.883333	1	0.855875
15.900000	1	0.839500
15.916667	1	0.825750
15.933333	1	0.813750
15.950000	1	0.803375
15.966667	1	0.796000
15.983333	1	0.790500
16.000000	1	0.786375
16.016667	1	0.784000
16.033333	1	0.782500
16.050000	1	0.782500
16.066667	1	0.782875
16.083333	1	0.784625
16.100000	1	0.787000
16.116667	1	0.788875
16.133333	1	0.790375
16.150000	1	0.791875
16.166667	1	0.794250
16.183333	1	0.795500
16.200000	1	0.796250
16.216667	1	0.795500
16.233333	1	0.795125
16.250000	1	0.793000
16.266667	1	0.790125
16.283333	1	0.786500
16.300000	1	0.783625
16.316667	1	0.780000
16.333333	1	0.777125
16.350000	1	0.774250
16.366667	1	0.772000
16.383333	1	0.771500
16.400000	1	0.772750
16.416667	1	0.775500
16.433333	1	0.779375
16.450000	1	0.784000
16.466667	1	0.789625
16.483333	1	0.796375
16.500000	1	0.802875
16.516667	1	0.809000
16.533333	1	0.814125
16.550000	1	0.817625
16.566667	1	0.820125
16.583333	1	0.821000
16.600000	1	0.820375
16.616667	1	0.819000
16.633333	1	0.816625
16.650000	1	0.813625
16.666667	1	0.810875
16.683333	1	0.808625
16.700000	1	0.808000
16.716667	1	0.808625
16.733333	1	0.812000
16.750000	1	0.817250
16.766667	1	0.824250
16.783333	1	0.833500
16.800000	1	0.843375
16.816667	1	0.854250
16.833333	1	0.865875
16.850000	1	0.875875
16.866667	1	0.885250
16.883333	1	0.893125
16.900000	1	0.899500
16.916667	1	0.903500
16.933333	1	0.905875
16.950000	1	0.905750
16.966667	1	0.904500
16.983333	1	0.901250
17.000000	1	0.898000
17.016667	1	0.893125
17.033333	1	0.889000
17.050000	1	0.885125
17.066667	1	0.880750
17.083333	1	0.877000
17.100000	1	0.874250
17.116667	1	0.872500
17.133333	1	0.871375
17.150000	1	0.871000
17.166667	1	0.870625
17.183333	1	0.871375
17.200000	1	0.873125
17.216667	1	0.875000
17.233333	1	0.877625
17.250000	1	0.880375
17.266667	1	0.883625
17.283333	1	0.886625
17.300000	1	0.891250
17.316667	1	0.896000
17.333333	1	0.900625
17.350000	1	0.905750
17.366667	1	0.910375
17.383333	1	0.916500
17.400000	1	0.921500
17.416667	1	0.926375
17.433333	1	0.930750
17.450000	1	0.933625
17.466667	1	0.935500
17.483333	1	0.936125
17.500000	1	0.934750
17.516667	1	0.931750
17.533333	1	0.927375
17.550000	1	0.921750
17.566667	1	0.914875
17.583333	1	0.905875
17.600000	1	0.896000
17.616667	1	0.884750
17.633333	1	0.872375
17.650000	1	0.860375
17.666667	1	0.846750
17.683333	1	0.832875
17.700000	1	0.819500
17.716667	1	0.806000
17.733333	1	0.792750
17.750000	1	0.780625
17.766667	1	0.768500
17.783333	1	0.757625
17.800000	1	0.746875
17.816667	1	0.736625
17.833333	1	0.727125
17.850000	1	0.719125
17.866667	1	0.711125
17.883333	1	0.704125
17.900000	1	0.697250
17.916667	1	0.690875
17.933333	1	0.684625
17.950000	1	0.677875
17.966667	1	0.671125
17.983333	1	0.664375
18.000000	1	0.658000
18.016667	1	0.651500
18.033333	1	0.644625
18.050000	1	0.638250
18.066667	1	0.632000
18.083333	1	0.626000
18.100000	1	0.620500
18.116667	1	0.615875
18.133333	1	0.612125
18.150000	1	0.609625
18.166667	1	0.607500
18.183333	1	0.605500
18.200000	1	0.604750
18.216667	1	0.604125
18.233333	1	0.603375
18.250000	1	0.603875
18.266667	1	0.604250
18.283333	1	0.604125
18.300000	1	0.603750
18.316667	1	0.604125
18.333333	1	0.604250
18.350000	1	0.605000
18.366667	1	0.606375
18.383333	1	0.608000
18.400000	1	0.609875
18.416667	1	0.613250
18.433333	1	0.617250
18.450000	1	0.622875
18.466667	1	0.630875
18.483333	1	0.640125
18.500000	1	0.651125
18.516667	1	0.663250
18.533333	1	0.677125
18.550000	1	0.692250
18.566667	1	0.708875
18.583333	1	0.726875
18.600000	1	0.746375
18.616667	1	0.766750
18.633333	1	0.788250
18.650000	1	0.810125
18.666667	1	0.832750
18.683333	1	0.855625
18.700000	1	0.878875
18.716667	1	0.902000
18.733333	1	0.924625
18.750000	1	0.946875
18.766667	1	0.967250
18.783333	1	0.987750
18.800000	1	1.005750
18.816667	1	1.021375
18.833333	1	1.035000
18.850000	1	1.045500
18.866667	1	1.052750
18.883333	1	1.056750
18.900000	1	1.055625
18.916667	1	1.050875
18.933333	1	1.042000
18.950000	1	1.028125
18.966667	1	1.010500
18.983333	1	0.989750
19.000000	1	0.965625
19.016667	1	0.937875
19.033333	1	0.908500
19.050000	1	0.877000
19.066667	1	0.844125
19.083333	1	0.811000
19.100000	1	0.778000
19.116667	1	0.746625
19.133333	1	0.717375
19.150000	1	0.691000
19.166667	1	0.668000
19.183333	1	0.650125
19.200000	1	0.636875
19.216667	1	0.630375
19.233333	1	0.630500
19.250000	1	0.638000
19.266667	1	0.655125
19.283333	1	0.681500
19.300000	1	0.717250
19.316667	1	0.762625
19.333333	1	0.817750
19.350000	1	0.882000
19.366667	1	0.952750
19.383333	1	1.029625
19.400000	1	1.110125
19.416667	1	1.192750
19.433333	1	1.274625
19.450000	1	1.352375
19.466667	1	1.425250
19.483333	1	1.490375
19.500000	1	1.545125
19.516667	1	1.588875
19.533333	1	1.620750
19.550000	1	1.639500
19.566667	1	1.646750
19.583333	1	1.640875
19.600000	1	1.625125
19.616667	1	1.599125
19.633333	1	1.565000
19.650000	1	1.524000
19.666667	1	1.476875
19.683333	1	1.426250
19.700000	1	1.372500
19.716667	1	1.316875
19.733333	1	1.261375
19.750000	1	1.204625
19.766667	1	1.149125
19.783333	1	1.094375
19.800000	1	1.040750
19.816667	1	0.988250
19.833333	1	0.937500
19.850000	1	0.889375
19.866667	1	0.843625
19.883333	1	0.800875
19.900000	1	0.761625
19.916667	1	0.725125
19.933333	1	0.692875
19.950000	1	0.665000
19.966667	1	0.642125
19.983333	1	0.624125
20.000000	1	0.611625
20.016667	1	0.605375
20.033333	1	0.606250
20.050000	1	0.615250
20.066667	1	0.632375
20.083333	1	0.658500
20.100000	1	0.691875
20.116667	1	0.734000
20.133333	1	0.783500
20.150000	1	0.840375
20.166667	1	0.902250
20.183333	1	0.967500
20.200000	1	1.033250
20.216667	1	1.099500
20.233333	1	1.161375
20.250000	1	1.217125
20.266667	1	1.265250
20.283333	1	1.303875
20.300000	1	1.330625
20.316667	1	1.345250
20.333333	1	1.347500
20.350000	1	1.337250
20.366667	1	1.315500
20.383333	1	1.283375
20.400000	1	1.242875
20.416667	1	1.194750
20.433333	1	1.142000
20.450000	1	1.085750
20.466667	1	1.027625
20.483333	1	0.970375
20.500000	1	0.915875
20.516667	1	0.860125
20.533333	1	0.816500
20.550000	1	0.777500
20.566667	1	0.746000
20.583333	1	0.722250
20.600000	1	0.707750
20.616667	1	0.702625
20.633333	1	0.708250
20.650000	1	0.724875
20.666667	1	0.751875
20.683333	1	0.790250
20.700000	1	0.838250
20.716667	1	0.896000
20.733333	1	0.962125
20.750000	1	1.034500
20.766667	1	1.110875
20.783333	1	1.188625
20.800000	1	1.264750
20.816667	1	1.338375
20.833333	1	1.404125
20.850000	1	1.460750
20.866667	1	1.505500
20.883333	1	1.538125
20.900000	1	1.556500
20.916667	1	1.560125
20.933333	1	1.550500
20.950000	1	1.526375
20.966667	1	1.491375
20.983333	1	1.445875
21.000000	1	1.391375
21.016667	1	1.330375
21.033333	1	1.265000
21.050000	1	1.196250
21.066667	1	1.127875
21.083333	1	1.059250
21.100000	1	0.993125
21.116667	1	0.929625
21.133333	1	0.869500
21.150000	1	0.813750
21.166667	1	0.762250
21.183333	1	0.714000
21.200000	1	0.670250
21.216667	1	0.630375
21.233333	1	0.594750
21.250000	1	0.562000
21.266667	1	0.532750
21.283333	1	0.507125
21.300000	1	0.483500
21.316667	1	0.462500
21.333333	1	0.443250
21.350000	1	0.426250
21.366667	1	0.411125
21.383333	1	0.397875
21.400000	1	0.386250
21.416667	1	0.375125
21.433333	1	0.364375
21.450000	1	0.356125
21.466667	1	0.348500
21.483333	1	0.341375
21.500000	1	0.334375
21.516667	1	0.329125
21.533333	1	0.324625
21.550000	1	0.321625
21.566667	1	0.319625
21.583333	1	0.318500
21.600000	1	0.318625
21.616667	1	0.320625
21.633333	1	0.323375
21.650000	1	0.328625
21.666667	1	0.335625
21.683333	1	0.344375
21.700000	1	0.355375
21.716667	1	0.368750
21.733333	1	0.383500
21.750000	1	0.400125
21.766667	1	0.418250
21.783333	1	0.437625
21.800000	1	0.457875
21.816667	1	0.479125
21.833333	1	0.500625
21.850000	1	0.521125
21.866667	1	0.541250
21.883333	1	0.559875
21.900000	1	0.577750
21.916667	1	0.593125
21.933333	1	0.607500
21.950000	1	0.619875
21.966667	1	0.629000
21.983333	1	0.635500
22.000000	1	0.639125
22.016667	1	0.640625
22.033333	1	0.640875
22.050000	1	0.638750
22.066667	1	0.635000
22.083333	1	0.630000
22.100000	1	0.623875
22.116667	1	0.616375
22.133333	1	0.608125
22.150000	1	0.598875
22.166667	1	0.588625
22.183333	1	0.578000
22.200000	1	0.565500
22.216667	1	0.552000
22.233333	1	0.538375
22.250000	1	0.523750
22.266667	1	0.509125
22.283333	1	0.493500
22.300000	1	0.477000
22.316667	1	0.460250
22.333333	1	0.443375
22.350000	1	0.426750
22.366667	1	0.409625
22.383333	1	0.393375
22.400000	1	0.377250
22.416667	1	0.361625
22.433333	1	0.345750
22.450000	1	0.331375
22.466667	1	0.318125
22.483333	1	0.305625
22.500000	1	0.294375
22.516667	1	0.283625
22.533333	1	0.274500
22.550000	1	0.265000
22.566667	1	0.256250
22.583333	1	0.247875
22.600000	1	0.241250
22.616667	1	0.234625
22.633333	1	0.227875
22.650000	1	0.222500
22.666667	1	0.217125
22.683333	1	0.211875
22.700000	1	0.207500
22.716667	1	0.203125
22.733333	1	0.199375
22.750000	1	0.196625
22.766667	1	0.192875
22.783333	1	0.189125
22.800000	1	0.185875
22.816667	1	0.183125
22.833333	1	0.180875
22.850000	1	0.178250
22.866667	1	0.175875
22.883333	1	0.173625
22.900000	1	0.171375
22.916667	1	0.169875
22.933333	1	0.167875
22.950000	1	0.167000
22.966667	1	0.166500
22.983333	1	0.166875
23.000000	1	0.166750
23.016667	1	0.167250
23.033333	1	0.168125
23.050000	1	0.169500
23.066667	1	0.171000
23.083333	1	0.172750
23.100000	1	0.174125
23.116667	1	0.176625
23.133333	1	0.179500
23.150000	1	0.181250
23.166667	1	0.183625
23.183333	1	0.185375
23.200000	1	0.187375
23.216667	1	0.189250
23.233333	1	0.191375
23.250000	1	0.192750
23.266667	1	0.194750
23.283333	1	0.196750
23.300000	1	0.200375
23.316667	1	0.204125
23.333333	1	0.209625
23.350000	1	0.216750
23.366667	1	0.226625
23.383333	1	0.240500
23.400000	1	0.258750
23.416667	1	0.283250
23.433333	1	0.315000
23.450000	1	0.356750
23.466667	1	0.409750
23.483333	1	0.475625
23.500000	1	0.558125
23.516667	1	0.659125
23.533333	1	0.779750
23.550000	1	0.923250
23.566667	1	1.089750
23.583333	1	1.280875
23.600000	1	1.496875
23.616667	1	1.738000
23.633333	1	1.999625
23.650000	1	2.281500
23.666667	1	2.579500
23.683333	1	2.889875
23.700000	1	3.205375
23.716667	1	3.521125
23.733333	1	3.829125
23.750000	1	4.122875
23.766667	1	4.395375
23.783333	1	4.639750
23.800000	1	4.850500
23.816667	1	5.022125
23.833333	1	5.150875
23.850000	1	5.235250
23.866667	1	5.275750
23.883333	1	5.271000
23.900000	1	5.223625
23.916667	1	5.134875
23.933333	1	5.009750
23.950000	1	4.852875
23.966667	1	4.669750
23.983333	1	4.464625
24.000000	1	4.243250
24.016667	1	4.011750
24.033333	1	3.774125
24.050000	1	3.534000
24.066667	1	3.296250
24.083333	1	3.063875
24.100000	1	2.837500
24.116667	1	2.619500
24.133333	1	2.412750
24.150000	1	2.217625
24.166667	1	2.034500
24.183333	1	1.863500
24.200000	1	1.704000
24.216667	1	1.557000
24.233333	1	1.421125
24.250000	1	1.296625
24.266667	1	1.182125
24.283333	1	1.078125
24.300000	1	0.983375
24.316667	1	0.897750
24.333333	1	0.819750
24.350000	1	0.750250
24.366667	1	0.688000
24.383333	1	0.632625
24.400000	1	0.583500
24.416667	1	0.541750
24.433333	1	0.504875
24.450000	1	0.472875
24.466667	1	0.446000
24.483333	1	0.423250
24.500000	1	0.404000
24.516667	1	0.387000
24.533333	1	0.373375
24.550000	1	0.362000
24.566667	1	0.351750
24.583333	1	0.343625
24.600000	1	0.336500
24.616667	1	0.329875
24.633333	1	0.324125
24.650000	1	0.318125
24.666667	1	0.312500
24.683333	1	0.307000
24.700000	1	0.301750
24.716667	1	0.295875
24.733333	1	0.290125
24.750000	1	0.283875
24.766667	1	0.277750
24.783333	1	0.271250
24.800000	1	0.264875
24.816667	1	0.258625
24.833333	1	0.252500
24.850000	1	0.247000
24.866667	1	0.241500
24.883333	1	0.236125
24.900000	1	0.231250
24.916667	1	0.226000
24.933333	1	0.221500
24.950000	1	0.217500
24.966667	1	0.213875
24.983333	1	0.209750
25.000000	1	0.206375
25.016667	1	0.203375
25.033333	1	0.201000
25.050000	1	0.198875
25.066667	1	0.197125
25.083333	1	0.194750
25.100000	1	0.192625
25.116667	1	0.191875
25.133333	1	0.190125
25.150000	1	0.188750
25.166667	1	0.187500
25.183333	1	0.185875
25.200000	1	0.184500
25.216667	1	0.181875
25.233333	1	0.180625
25.250000	1	0.179125
25.266667	1	0.177875
25.283333	1	0.176375
25.300000	1	0.175000
25.316667	1	0.173250
25.333333	1	0.171500
25.350000	1	0.169125
25.366667	1	0.167000
25.383333	1	0.164375
25.400000	1	0.162000
25.416667	1	0.160375
25.433333	1	0.159000
25.450000	1	0.157875
25.466667	1	0.156125
25.483333	1	0.155125
25.500000	1	0.153750
25.516667	1	0.152500
25.533333	1	0.151625
25.550000	1	0.150875
25.566667	1	0.150000
25.583333	1	0.150250
25.600000	1	0.149250
25.616667	1	0.148750
25.633333	1	0.148375
25.650000	1	0.149000
25.666667	1	0.149875
25.683333	1	0.149625
25.700000	1	0.150000
25.716667	1	0.150125
25.733333	1	0.150250
25.750000	1	0.150125
25.766667	1	0.150375
25.783333	1	0.150875
25.800000	1	0.151500
25.816667	1	0.152000
25.833333	1	0.152625
25.850000	1	0.153375
25.866667	1	0.154500
25.883333	1	0.155375
25.900000	1	0.156625
25.916667	1	0.157500
25.933333	1	0.158875
25.950000	1	0.160000
25.966667	1	0.162125
25.983333	1	0.164500
26.000000	1	0.167500
26.016667	1	0.169875
26.033333	1	0.173000
26.050000	1	0.176375
26.066667	1	0.180250
26.083333	1	0.184250
26.100000	1	0.188625
26.116667	1	0.192500
26.133333	1	0.197500
26.150000	1	0.202250
26.166667	1	0.207250
26.183333	1	0.212250
26.200000	1	0.217500
26.216667	1	0.222750
26.233333	1	0.227375
26.250000	1	0.231875
26.266667	1	0.236000
26.283333	1	0.240750
26.300000	1	0.245125
26.316667	1	0.249250
26.333333	1	0.252375
26.350000	1	0.255125
26.366667	1	0.256750
26.383333	1	0.258000
26.400000	1	0.258625
26.416667	1	0.260125
26.433333	1	0.259875
26.450000	1	0.259375
26.466667	1	0.257375
26.483333	1	0.255875
26.500000	1	0.253250
26.516667	1	0.249750
26.533333	1	0.246500
26.550000	1	0.241500
26.566667	1	0.236250
26.583333	1	0.231125
26.600000	1	0.226000
26.616667	1	0.220250
26.633333	1	0.213625
26.650000	1	0.207250
26.666667	1	0.201000
26.683333	1	0.194375
26.700000	1	0.187500
26.716667	1	0.180625
26.733333	1	0.174500
26.750000	1	0.167875
26.766667	1	0.161875
26.783333	1	0.156250
26.800000	1	0.150625
26.816667	1	0.145750
26.833333	1	0.141125
26.850000	1	0.136875
26.866667	1	0.133125
26.883333	1	0.129625
26.900000	1	0.126375
26.916667	1	0.123250
26.933333	1	0.121250
26.950000	1	0.120500
26.966667	1	0.119125
26.983333	1	0.118250
27.000000	1	0.117750
27.016667	1	0.117625
27.033333	1	0.117500
27.050000	1	0.118500
27.066667	1	0.118875
27.083333	1	0.120125
27.100000	1	0.122375
27.116667	1	0.124000
27.133333	1	0.125875
27.150000	1	0.128500
27.166667	1	0.131625
27.183333	1	0.135125
27.200000	1	0.139375
27.216667	1	0.144875
27.233333	1	0.152000
27.250000	1	0.159750
27.266667	1	0.169250
27.283333	1	0.181250
27.300000	1	0.195000
27.316667	1	0.212250
27.333333	1	0.233250
27.350000	1	0.258750
27.366667	1	0.289500
27.383333	1	0.326750
27.400000	1	0.370750
27.416667	1	0.422000
27.433333	1	0.483000
27.450000	1	0.554125
27.466667	1	0.636875
27.483333	1	0.731500
27.500000	1	0.838875
27.516667	1	0.960125
27.533333	1	1.095375
27.550000	1	1.244875
27.566667	1	1.409250
27.583333	1	1.587250
27.600000	1	1.777875
27.616667	1	1.981500
27.633333	1	2.196625
27.650000	1	2.421125
27.666667	1	2.653125
27.683333	1	2.889125
27.700000	1	3.127500
27.716667	1	3.364125
27.733333	1	3.595125
27.750000	1	3.817375
27.766667	1	4.027250
27.783333	1	4.221625
27.800000	1	4.395625
27.816667	1	4.547375
27.833333	1	4.674125
27.850000	1	4.772875
27.866667	1	4.842625
27.883333	1	4.881750
27.900000	1	4.890375
27.916667	1	4.868000
27.933333	1	4.816000
27.950000	1	4.735875
27.966667	1	4.629000
27.983333	1	4.499500
28.000000	1	4.349875
28.016667	1	4.182750
28.033333	1	4.002125
28.050000	1	3.810125
28.066667	1	3.611375
28.083333	1	3.408375
28.100000	1	3.204125
28.116667	1	3.002125
28.133333	1	2.803375
28.150000	1	2.609000
28.166667	1	2.423125
28.183333	1	2.244500
28.200000	1	2.076000
28.216667	1	1.916750
28.233333	1	1.766625
28.250000	1	1.626625
28.266667	1	1.495625
28.283333	1	1.374250
28.300000	1	1.261000
28.316667	1	1.158125
28.333333	1	1.063625
28.350000	1	0.977000
28.366667	1	0.897250
28.383333	1	0.825500
28.400000	1	0.758875
28.416667	1	0.698875
28.433333	1	0.645000
28.450000	1	0.596250
28.466667	1	0.552125
28.483333	1	0.513375
28.500000	1	0.478500
28.516667	1	0.447250
28.533333	1	0.420500
28.550000	1	0.397625
28.566667	1	0.377375
28.583333	1	0.360875
28.600000	1	0.347250
28.616667	1	0.336250
28.633333	1	0.327500
28.650000	1	0.320500
28.666667	1	0.315750
28.683333	1	0.312625
28.700000	1	0.311500
28.716667	1	0.310750
28.733333	1	0.311875
28.750000	1	0.314125
28.766667	1	0.317375
28.783333	1	0.321750
28.800000	1	0.325875
28.816667	1	0.330250
28.833333	1	0.334875
28.850000	1	0.339750
28.866667	1	0.344625
28.883333	1	0.348750
28.900000	1	0.353375
28.916667	1	0.357000
28.933333	1	0.359875
28.950000	1	0.362250
28.966667	1	0.364375
28.983333	1	0.365500
29.000000	1	0.365250
29.016667	1	0.364250
29.033333	1	0.361875
29.050000	1	0.358875
29.066667	1	0.353375
29.083333	1	0.347125
29.100000	1	0.339000
29.116667	1	0.329000
29.133333	1	0.316875
29.150000	1	0.303125
29.166667	1	0.287250
29.183333	1	0.269875
29.200000	1	0.249125
29.216667	1	0.225375
29.233333	1	0.199625
29.250000	1	0.171750
29.266667	1	0.141125
29.283333	1	0.107125
29.300000	1	0.070625
29.316667	1	0.031250
29.333333	1	-0.010875
29.350000	1	-0.055875
29.366667	1	-0.103250
29.383333	1	-0.153625
29.400000	1	-0.206125
29.416667	1	-0.260625
29.433333	1	-0.317500
29.450000	1	-0.375500
29.466667	1	-0.434875
29.483333	1	-0.495750
29.500000	1	-0.555500
29.516667	1	-0.615500
29.533333	1	-0.674875
29.550000	1	-0.732750
29.566667	1	-0.788125
29.583333	1	-0.841750
29.600000	1	-0.892375
29.616667	1	-0.940250
29.633333	1	-0.983375
29.650000	1	-1.022375
29.666667	1	-1.057750
29.683333	1	-1.088250
29.700000	1	-1.114000
29.716667	1	-1.133375
29.733333	1	-1.148750
29.750000	1	-1.157750
29.766667	1	-1.161500
29.783333	1	-1.160500
29.800000	1	-1.154250
29.816667	1	-1.143000
29.833333	1	-1.127250
29.850000	1	-1.107375
29.866667	1	-1.083375
29.883333	1	-1.056000
29.900000	1	-1.025500
29.916667	1	-0.992875
29.933333	1	-0.956875
29.950000	1	-0.919250
29.966667	1	-0.881375
29.983333	1	-0.840750
30.000000	1	-0.800500
30.016667	1	-0.759750
30.033333	1	-0.718875
30.050000	1	-0.678000
30.066667	1	-0.637000
30.083333	1	-0.597750
30.100000	1	-0.558375
30.116667	1	-0.520000
30.133333	1	-0.484000
30.150000	1	-0.449125
30.166667	1	-0.415500
30.183333	1	-0.383750
30.200000	1	-0.352500
30.216667	1	-0.322625
30.233333	1	-0.294875
30.250000	1	-0.269000
30.266667	1	-0.244000
30.283333	1	-0.220125
30.300000	1	-0.198000
30.316667	1	-0.177750
30.333333	1	-0.159250
30.350000	1	-0.142000
30.366667	1	-0.125625
30.383333	1	-0.109875
30.400000	1	-0.095625
30.416667	1	-0.082375
30.433333	1	-0.070125
30.450000	1	-0.057500
30.466667	1	-0.046750
30.483333	1	-0.036875
30.500000	1	-0.027125
30.516667	1	-0.017875
30.533333	1	-0.009375
30.550000	1	-0.000500
30.566667	1	0.007375
30.583333	1	0.015375
30.600000	1	0.023125
30.616667	1	0.030625
30.633333	1	0.038125
30.650000	1	0.046000
30.666667	1	0.053625
30.683333	1	0.061875
30.700000	1	0.070000
30.716667	1	0.078250
30.733333	1	0.087125
30.750000	1	0.095750
30.766667	1	0.105250
30.783333	1	0.114500
30.800000	1	0.124750
30.816667	1	0.134500
30.833333	1	0.145625
30.850000	1	0.155875
30.866667	1	0.167000
30.883333	1	0.178625
30.900000	1	0.191125
30.916667	1	0.205000
30.933333	1	0.219500
30.950000	1	0.235125
30.966667	1	0.253250
30.983333	1	0.272500
31.000000	1	0.294625
31.016667	1	0.318875
31.033333	1	0.347125
31.050000	1	0.379250
31.066667	1	0.416500
31.083333	1	0.459125
31.100000	1	0.507625
31.116667	1	0.563750
31.133333	1	0.627625
31.150000	1	0.700125
31.166667	1	0.783000
31.183333	1	0.876000
31.200000	1	0.980375
31.216667	1	1.097250
31.233333	1	1.226750
31.250000	1	1.369250
31.266667	1	1.524875
31.283333	1	1.693375
31.300000	1	1.874125
31.316667	1	2.067375
31.333333	1	2.270875
31.350000	1	2.483500
31.366667	1	2.705125
31.383333	1	2.932625
31.400000	1	3.164500
31.416667	1	3.397750
31.433333	1	3.630625
31.450000	1	3.858750
31.466667	1	4.081250
31.483333	1	4.293500
31.500000	1	4.492500
31.516667	1	4.677125
31.533333	1	4.843625
31.550000	1	4.990125
31.566667	1	5.115250
31.583333	1	5.217500
31.600000	1	5.296625
31.616667	1	5.349875
31.633333	1	5.377500
31.650000	1	5.379625
31.666667	1	5.357750
31.683333	1	5.311875
31.700000	1	5.243750
31.716667	1	5.155000
31.733333	1	5.046500
31.750000	1	4.921500
31.766667	1	4.781375
31.783333	1	4.627625
31.800000	1	4.462500
31.816667	1	4.289375
31.833333	1	4.109250
31.850000	1	3.924750
31.866667	1	3.736750
31.883333	1	3.548000
31.900000	1	3.360000
31.916667	1	3.174250
31.933333	1	2.991500
31.950000	1	2.813750
31.966667	1	2.640250
31.983333	1	2.472375
32.000000	1	2.310875
32.016667	1	2.155250
32.033333	1	2.005750
32.050000	1	1.863625
32.066667	1	1.729125
32.083333	1	1.601000
32.100000	1	1.480125
32.116667	1	1.365000
32.133333	1	1.256750
32.150000	1	1.154000
32.166667	1	1.058000
32.183333	1	0.967125
32.200000	1	0.882000
32.216667	1	0.801250
32.233333	1	0.725000
32.250000	1	0.654625
32.266667	1	0.589250
32.283333	1	0.527500
32.300000	1	0.470125
32.316667	1	0.417000
32.333333	1	0.367000
32.350000	1	0.321375
32.366667	1	0.278875
32.383333	1	0.239250
32.400000	1	0.201875
32.416667	1	0.168250
32.433333	1	0.136750
32.450000	1	0.108000
32.466667	1	0.081500
32.483333	1	0.057500
32.500000	1	0.036000
32.516667	1	0.016125
32.533333	1	-0.002250
32.550000	1	-0.018625
32.566667	1	-0.033375
32.583333	1	-0.046750
32.600000	1	-0.058250
32.616667	1	-0.069250
32.633333	1	-0.079000
32.650000	1	-0.087875
32.666667	1	-0.095500
32.683333	1	-0.102500
32.700000	1	-0.108375
32.716667	1	-0.113750
32.733333	1	-0.118250
32.750000	1	-0.121750
32.766667	1	-0.125000
32.783333	1	-0.127500
32.800000	1	-0.129500
32.816667	1	-0.131375
32.833333	1	-0.133250
32.850000	1	-0.134500
32.866667	1	-0.135250
32.883333	1	-0.136000
32.900000	1	-0.136375
32.916667	1	-0.137000
32.933333	1	-0.137625
32.950000	1	-0.137500
32.966667	1	-0.137625
32.983333	1	-0.137750
33.000000	1	-0.138125
33.016667	1	-0.137625
33.033333	1	-0.138000
33.050000	1	-0.138000
33.066667	1	-0.138125
33.083333	1	-0.138750
33.100000	1	-0.139750
33.116667	1	-0.139375
33.133333	1	-0.139375
33.150000	1	-0.139500
33.166667	1	-0.139500
33.183333	1	-0.139125
33.200000	1	-0.138375
33.216667	1	-0.138125
33.233333	1	-0.138000
33.250000	1	-0.136875
33.266667	1	-0.136375
33.283333	1	-0.135625
33.300000	1	-0.135250
33.316667	1	-0.133750
33.333333	1	-0.132125
33.350000	1	-0.130375
33.366667	1	-0.128750
33.383333	1	-0.126375
33.400000	1	-0.124500
33.416667	1	-0.121375
33.433333	1	-0.118250
33.450000	1	-0.115625
33.466667	1	-0.112125
33.483333	1	-0.109125
33.500000	1	-0.105750
33.516667	1	-0.101375
33.533333	1	-0.097250
33.550000	1	-0.093625
33.566667	1	-0.089250
33.583333	1	-0.085500
33.600000	1	-0.081125
33.616667	1	-0.076875
33.633333	1	-0.072000
33.650000	1	-0.067500
33.666667	1	-0.062500
33.683333	1	-0.057875
33.700000	1	-0.053875
33.716667	1	-0.049250
33.733333	1	-0.043875
33.750000	1	-0.038625
33.766667	1	-0.033875
33.783333	1	-0.028750
33.800000	1	-0.023250
33.816667	1	-0.018125
33.833333	1	-0.014250
33.850000	1	-0.009875
33.866667	1	-0.005875
33.883333	1	-0.002250
33.900000	1	0.001250
33.916667	1	0.005000
33.933333	1	0.008125
33.950000	1	0.010625
33.966667	1	0.012625
33.983333	1	0.015375
34.000000	1	0.016750
34.016667	1	0.018625
34.033333	1	0.019375
34.050000	1	0.019750
34.066667	1	0.020500
34.083333	1	0.020500
34.100000	1	0.019750
34.116667	1	0.019500
34.133333	1	0.018875
34.150000	1	0.017875
34.166667	1	0.017000
34.183333	1	0.014750
34.200000	1	0.013125
34.216667	1	0.011500
34.233333	1	0.010500
34.250000	1	0.008375
34.266667	1	0.005750
34.283333	1	0.003250
34.300000	1	0.000875
34.316667	1	-0.001000
34.333333	1	-0.002875
34.350000	1	-0.004875
34.366667	1	-0.006875
34.383333	1	-0.008625
34.400000	1	-0.010500
34.416667	1	-0.011750
34.433333	1	-0.012750
34.450000	1	-0.013875
34.466667	1	-0.015000
34.483333	1	-0.015125
34.500000	1	-0.015875
34.516667	1	-0.016000
34.533333	1	-0.016375
34.550000	1	-0.016750
34.566667	1	-0.017250
34.583333	1	-0.017250
34.600000	1	-0.017500
34.616667	1	-0.017875
34.633333	1	-0.017875
34.650000	1	-0.018000
34.666667	1	-0.019250
34.683333	1	-0.020000
34.700000	1	-0.020875
34.716667	1	-0.021750
34.733333	1	-0.023125
34.750000	1	-0.024750
34.766667	1	-0.026625
34.783333	1	-0.028875
34.800000	1	-0.030875
34.816667	1	-0.033125
34.833333	1	-0.035500
34.850000	1	-0.038125
34.866667	1	-0.041375
34.883333	1	-0.044875
34.900000	1	-0.047125
34.916667	1	-0.050750
34.933333	1	-0.053750
34.950000	1	-0.058000
34.966667	1	-0.061250
34.983333	1	-0.065000
35.000000	1	-0.068500
35.016667	1	-0.071875
35.033333	1	-0.075000
35.050000	1	-0.077750
35.066667	1	-0.081000
35.083333	1	-0.083750
35.100000	1	-0.086750
35.116667	1	-0.089000
35.133333	1	-0.091125
35.150000	1	-0.092625
35.166667	1	-0.093750
35.183333	1	-0.095375
35.200000	1	-0.096500
35.216667	1	-0.096125
35.233333	1	-0.096750
35.250000	1	-0.096750
35.266667	1	-0.095875
35.283333	1	-0.094500
35.300000	1	-0.093125
35.316667	1	-0.091375
35.333333	1	-0.089625
35.350000	1	-0.086750
35.366667	1	-0.083750
35.383333	1	-0.080750
35.400000	1	-0.077375
35.416667	1	-0.073500
35.433333	1	-0.070000
35.450000	1	-0.066125
35.466667	1	-0.061875
35.483333	1	-0.058125
35.500000	1	-0.053375
35.516667	1	-0.049500
35.533333	1	-0.044500
35.550000	1	-0.040875
35.566667	1	-0.036250
35.583333	1	-0.031625
35.600000	1	-0.027125
35.616667	1	-0.023750
35.633333	1	-0.019500
35.650000	1	-0.015500
35.666667	1	-0.011750
35.683333	1	-0.008000
35.700000	1	-0.004500
35.716667	1	-0.000375
35.733333	1	0.003250
35.750000	1	0.006375
35.766667	1	0.009625
35.783333	1	0.011750
35.800000	1	0.014250
35.816667	1	0.016625
35.833333	1	0.019125
35.850000	1	0.020875
35.866667	1	0.023250
35.883333	1	0.025125
35.900000	1	0.026250
35.916667	1	0.027500
35.933333	1	0.028750
35.950000	1	0.030125
35.966667	1	0.031250
35.983333	1	0.032250
36.000000	1	0.033000
36.016667	1	0.033250
36.033333	1	0.033500
36.050000	1	0.033500
36.066667	1	0.033750
36.083333	1	0.033750
36.100000	1	0.033625
36.116667	1	0.033250
36.133333	1	0.033000
36.150000	1	0.032500
36.166667	1	0.032000
36.183333	1	0.031625
36.200000	1	0.030750
36.216667	1	0.029750
36.233333	1	0.029750
36.250000	1	0.029125
36.266667	1	0.028375
36.283333	1	0.027250
36.300000	1	0.026875
36.316667	1	0.026625
36.333333	1	0.026750
36.350000	1	0.026000
36.366667	1	0.026000
36.383333	1	0.025375
36.400000	1	0.024250
36.416667	1	0.023625
36.433333	1	0.022375
36.450000	1	0.022000
36.466667	1	0.021750
36.483333	1	0.021625
36.500000	1	0.021375
36.516667	1	0.021125
36.533333	1	0.020500
36.550000	1	0.020000
36.566667	1	0.019625
36.583333	1	0.019500
36.600000	1	0.018250
36.616667	1	0.017875
36.633333	1	0.016875
36.650000	1	0.016250
36.666667	1	0.015125
36.683333	1	0.013750
36.700000	1	0.013000
36.716667	1	0.012250
36.733333	1	0.011250
36.750000	1	0.010375
36.766667	1	0.008750
36.783333	1	0.007375
36.800000	1	0.006000
36.816667	1	0.004250
36.833333	1	0.002875
36.850000	1	0.001875
36.866667	1	0.001000
36.883333	1	-0.000250
36.900000	1	-0.001875
36.916667	1	-0.003750
36.933333	1	-0.005000
36.950000	1	-0.006375
36.966667	1	-0.007875
36.983333	1	-0.008625
37.000000	1	-0.010375
37.016667	1	-0.012500
37.033333	1	-0.014000
37.050000	1	-0.015250
37.066667	1	-0.016375
37.083333	1	-0.018000
37.100000	1	-0.019750
37.116667	1	-0.021875
37.133333	1	-0.023750
37.150000	1	-0.025750
37.166667	1	-0.027250
37.183333	1	-0.029000
37.200000	1	-0.031500
37.216667	1	-0.033750
37.233333	1	-0.035500
37.250000	1	-0.037625
37.266667	1	-0.039625
37.283333	1	-0.041125
37.300000	1	-0.044000
37.316667	1	-0.046125
37.333333	1	-0.048250
37.350000	1	-0.050750
37.366667	1	-0.052500
37.383333	1	-0.054125
37.400000	1	-0.056000
37.416667	1	-0.057500
37.433333	1	-0.059125
37.450000	1	-0.061000
37.466667	1	-0.062750
37.483333	1	-0.064375
37.500000	1	-0.065000
37.516667	1	-0.066125
37.533333	1	-0.066875
37.550000	1	-0.067000
37.566667	1	-0.068000
37.583333	1	-0.068375
37.600000	1	-0.068500
37.616667	1	-0.069000
37.633333	1	-0.069625
37.650000	1	-0.070125
37.666667	1	-0.070250
37.683333	1	-0.071000
37.700000	1	-0.070875
37.716667	1	-0.071125
37.733333	1	-0.071250
37.750000	1	-0.072000
37.766667	1	-0.072000
37.783333	1	-0.072375
37.800000	1	-0.072250
37.816667	1	-0.072750
37.833333	1	-0.073500
37.850000	1	-0.074125
37.866667	1	-0.074750
37.883333	1	-0.075125
37.900000	1	-0.075750
37.916667	1	-0.075625
37.933333	1	-0.075750
37.950000	1	-0.075750
37.966667	1	-0.076125
37.983333	1	-0.077125
38.000000	1	-0.077375
38.016667	1	-0.077375
38.033333	1	-0.078125
38.050000	1	-0.078625
38.066667	1	-0.079000
38.083333	1	-0.078500
38.100000	1	-0.078875
38.116667	1	-0.079125
38.133333	1	-0.079625
38.150000	1	-0.079250
38.166667	1	-0.079875
38.183333	1	-0.079875
38.200000	1	-0.080500
38.216667	1	-0.081750
38.233333	1	-0.082375
38.250000	1	-0.082000
38.266667	1	-0.082375
38.283333	1	-0.083000
38.300000	1	-0.083750
38.316667	1	-0.084875
38.333333	1	-0.086125
38.350000	1	-0.087125
38.366667	1	-0.087750
38.383333	1	-0.089000
38.400000	1	-0.090125
38.416667	1	-0.092125
38.433333	1	-0.093500
38.450000	1	-0.095500
38.466667	1	-0.096375
38.483333	1	-0.098125
38.500000	1	-0.099500
38.516667	1	-0.101125
38.533333	1	-0.102625
38.550000	1	-0.104250
38.566667	1	-0.106500
38.583333	1	-0.108375
38.600000	1	-0.111000
38.616667	1	-0.112375
38.633333	1	-0.114500
38.650000	1	-0.116875
38.666667	1	-0.118750
38.683333	1	-0.120625
38.700000	1	-0.122625
38.716667	1	-0.123625
38.733333	1	-0.124750
38.750000	1	-0.126250
38.766667	1	-0.128000
38.783333	1	-0.129375
38.800000	1	-0.131125
38.816667	1	-0.132500
38.833333	1	-0.133500
38.850000	1	-0.134250
38.866667	1	-0.135625
38.883333	1	-0.136625
38.900000	1	-0.137500
38.916667	1	-0.138375
38.933333	1	-0.139250
38.950000	1	-0.140500
38.966667	1	-0.142125
38.983333	1	-0.143000
39.000000	1	-0.143750
39.016667	1	-0.144625
39.033333	1	-0.144875
39.050000	1	-0.145750
39.066667	1	-0.146625
39.083333	1	-0.147375
39.100000	1	-0.147250
39.116667	1	-0.147875
39.133333	1	-0.147625
39.150000	1	-0.148375
39.166667	1	-0.148625
39.183333	1	-0.147500
39.200000	1	-0.147625
39.216667	1	-0.147125
39.233333	1	-0.146625
39.250000	1	-0.145625
39.266667	1	-0.144750
39.283333	1	-0.143875
39.300000	1	-0.142500
39.316667	1	-0.141000
39.333333	1	-0.140500
39.350000	1	-0.139375
39.366667	1	-0.137875
39.383333	1	-0.137000
39.400000	1	-0.135875
39.416667	1	-0.134500
39.433333	1	-0.134375
39.450000	1	-0.132625
39.466667	1	-0.131750
39.483333	1	-0.130625
39.500000	1	-0.129625
39.516667	1	-0.129125
39.533333	1	-0.128875
39.550000	1	-0.128375
39.566667	1	-0.127875
39.583333	1	-0.127625
39.600000	1	-0.128000
39.616667	1	-0.128250
39.633333	1	-0.128875
39.650000	1	-0.128875
39.666667	1	-0.129500
39.683333	1	-0.130500
39.700000	1	-0.130625
39.716667	1	-0.130500
39.733333	1	-0.131250
39.750000	1	-0.131625
39.766667	1	-0.132000
39.783333	1	-0.132375
39.800000	1	-0.132750
39.816667	1	-0.133875
39.833333	1	-0.134750
39.850000	1	-0.135500
39.866667	1	-0.135875
39.883333	1	-0.136875
39.900000	1	-0.137250
39.916667	1	-0.137875
39.933333	1	-0.138250
39.950000	1	-0.139125
39.966667	1	-0.139875
39.983333	1	-0.140750
40.000000	1	-0.142125
