URL	chrom://7040-86g6c92/XVault/Ultimate_3000/20/20240517_CMO_FP23_FP25_MarkusDeplate.seq/801.smp/RI_1.channel/RI_1.chm
Channel	RI_1

Injection Information:
Data Vault	XVault
Sequence	20240517_CMO_FP23_FP25_MarkusDeplate
Name	FP23_19.3_s4
Number	40
Position	BD4
Comment	
Processing Method	
Instrument Method	run_25B_method
Type	Unknown
Status	Finished
Inject Time	28.05.2024 20:40:13 +02:00
Volume (µl)	20.0000
Dilution Factor	1.0000
Weight	1.0000

Chromatogram Data Information:
Time Min. (min)	0.000000
Time Max. (min)	40.000000
Data Points	2401
Detector	RI
Generating Data System	Chromeleon 7.3.2.11814
Exporting Data System	Chromeleon 7.3.2.0
Operator	Instrument Controller
Signal Quantity	Refractive 
Signal Unit	µRIU
Signal Min.	-1.066750
Signal Max.	60.495125
Channel	RI_1
Driver Name	RID520Driver.dll
Channel Type	Evaluation
Min. Step (s)	1
Max. Step (s)	1
Average Step (s)	1

Signal Parameter Information:
Signal Info	

Chromatogram Data:
Time (min)	Step (s)	Value (µRIU)
0.000000	n.a.	-0.007750
0.016667	1	-0.006000
0.033333	1	-0.004250
0.050000	1	-0.002375
0.066667	1	-0.000125
0.083333	1	0.001250
0.100000	1	0.003000
0.116667	1	0.005375
0.133333	1	0.006375
0.150000	1	0.007500
0.166667	1	0.008875
0.183333	1	0.010000
0.200000	1	0.011375
0.216667	1	0.012250
0.233333	1	0.013500
0.250000	1	0.014125
0.266667	1	0.014875
0.283333	1	0.015000
0.300000	1	0.015750
0.316667	1	0.016125
0.333333	1	0.016125
0.350000	1	0.016125
0.366667	1	0.015750
0.383333	1	0.015000
0.400000	1	0.013875
0.416667	1	0.013500
0.433333	1	0.014000
0.450000	1	0.015875
0.466667	1	0.017250
0.483333	1	0.019250
0.500000	1	0.020375
0.516667	1	0.021000
0.533333	1	0.020625
0.550000	1	0.020000
0.566667	1	0.018750
0.583333	1	0.016875
0.600000	1	0.014125
0.616667	1	0.012125
0.633333	1	0.010000
0.650000	1	0.008000
0.666667	1	0.007000
0.683333	1	0.006500
0.700000	1	0.006125
0.716667	1	0.005750
0.733333	1	0.005750
0.750000	1	0.005125
0.766667	1	0.005125
0.783333	1	0.005000
0.800000	1	0.004875
0.816667	1	0.004750
0.833333	1	0.004875
0.850000	1	0.005125
0.866667	1	0.005875
0.883333	1	0.006750
0.900000	1	0.006625
0.916667	1	0.006875
0.933333	1	0.007625
0.950000	1	0.008000
0.966667	1	0.008000
0.983333	1	0.007875
1.000000	1	0.007625
1.016667	1	0.007250
1.033333	1	0.006875
1.050000	1	0.006750
1.066667	1	0.005750
1.083333	1	0.005500
1.100000	1	0.005625
1.116667	1	0.005750
1.133333	1	0.005000
1.150000	1	0.004750
1.166667	1	0.003875
1.183333	1	0.003000
1.200000	1	0.002625
1.216667	1	0.002125
1.233333	1	0.001125
1.250000	1	0.000125
1.266667	1	-0.000250
1.283333	1	-0.000500
1.300000	1	-0.000500
1.316667	1	-0.000875
1.333333	1	-0.001500
1.350000	1	-0.002375
1.366667	1	-0.002875
1.383333	1	-0.003375
1.400000	1	-0.003250
1.416667	1	-0.002625
1.433333	1	-0.002250
1.450000	1	-0.002000
1.466667	1	-0.001125
1.483333	1	-0.001375
1.500000	1	-0.000750
1.516667	1	0.000000
1.533333	1	0.001125
1.550000	1	0.002500
1.566667	1	0.003500
1.583333	1	0.004750
1.600000	1	0.005750
1.616667	1	0.007250
1.633333	1	0.008250
1.650000	1	0.009625
1.666667	1	0.010875
1.683333	1	0.012000
1.700000	1	0.013125
1.716667	1	0.014125
1.733333	1	0.015125
1.750000	1	0.016250
1.766667	1	0.016000
1.783333	1	0.016125
1.800000	1	0.016375
1.816667	1	0.016625
1.833333	1	0.016625
1.850000	1	0.017125
1.866667	1	0.016500
1.883333	1	0.015875
1.900000	1	0.015125
1.916667	1	0.014875
1.933333	1	0.014000
1.950000	1	0.013375
1.966667	1	0.012000
1.983333	1	0.010750
2.000000	1	0.009375
2.016667	1	0.008500
2.033333	1	0.006875
2.050000	1	0.005750
2.066667	1	0.004125
2.083333	1	0.002500
2.100000	1	0.000500
2.116667	1	-0.001000
2.133333	1	-0.002875
2.150000	1	-0.004250
2.166667	1	-0.006000
2.183333	1	-0.008375
2.200000	1	-0.009250
2.216667	1	-0.010375
2.233333	1	-0.011250
2.250000	1	-0.012125
2.266667	1	-0.013250
2.283333	1	-0.014875
2.300000	1	-0.015750
2.316667	1	-0.016875
2.333333	1	-0.017375
2.350000	1	-0.018250
2.366667	1	-0.018875
2.383333	1	-0.018500
2.400000	1	-0.018625
2.416667	1	-0.018625
2.433333	1	-0.019375
2.450000	1	-0.020000
2.466667	1	-0.019750
2.483333	1	-0.019625
2.500000	1	-0.019625
2.516667	1	-0.019625
2.533333	1	-0.020000
2.550000	1	-0.019500
2.566667	1	-0.019500
2.583333	1	-0.019375
2.600000	1	-0.019625
2.616667	1	-0.018750
2.633333	1	-0.018750
2.650000	1	-0.019000
2.666667	1	-0.019250
2.683333	1	-0.019250
2.700000	1	-0.019500
2.716667	1	-0.019250
2.733333	1	-0.019375
2.750000	1	-0.019500
2.766667	1	-0.019750
2.783333	1	-0.020125
2.800000	1	-0.021000
2.816667	1	-0.021000
2.833333	1	-0.020750
2.850000	1	-0.021125
2.866667	1	-0.021000
2.883333	1	-0.021375
2.900000	1	-0.021250
2.916667	1	-0.021625
2.933333	1	-0.021750
2.950000	1	-0.022375
2.966667	1	-0.022875
2.983333	1	-0.023750
3.000000	1	-0.024000
3.016667	1	-0.025000
3.033333	1	-0.025625
3.050000	1	-0.025625
3.066667	1	-0.026625
3.083333	1	-0.027500
3.100000	1	-0.028375
3.116667	1	-0.029750
3.133333	1	-0.031375
3.150000	1	-0.032625
3.166667	1	-0.033625
3.183333	1	-0.035500
3.200000	1	-0.036500
3.216667	1	-0.037125
3.233333	1	-0.038625
3.250000	1	-0.039875
3.266667	1	-0.040500
3.283333	1	-0.041750
3.300000	1	-0.043000
3.316667	1	-0.043625
3.333333	1	-0.044375
3.350000	1	-0.044750
3.366667	1	-0.046000
3.383333	1	-0.046125
3.400000	1	-0.046250
3.416667	1	-0.046125
3.433333	1	-0.045875
3.450000	1	-0.045000
3.466667	1	-0.044375
3.483333	1	-0.043875
3.500000	1	-0.043250
3.516667	1	-0.042250
3.533333	1	-0.041375
3.550000	1	-0.039500
3.566667	1	-0.038250
3.583333	1	-0.037000
3.600000	1	-0.035000
3.616667	1	-0.033500
3.633333	1	-0.031125
3.650000	1	-0.029375
3.666667	1	-0.028125
3.683333	1	-0.026250
3.700000	1	-0.024500
3.716667	1	-0.022750
3.733333	1	-0.021375
3.750000	1	-0.019375
3.766667	1	-0.017375
3.783333	1	-0.015000
3.800000	1	-0.013125
3.816667	1	-0.010625
3.833333	1	-0.008125
3.850000	1	-0.005875
3.866667	1	-0.004000
3.883333	1	-0.002625
3.900000	1	-0.001125
3.916667	1	0.000375
3.933333	1	0.002125
3.950000	1	0.004125
3.966667	1	0.005750
3.983333	1	0.007625
4.000000	1	0.009000
4.016667	1	0.010500
4.033333	1	0.011125
4.050000	1	0.012250
4.066667	1	0.013500
4.083333	1	0.014000
4.100000	1	0.013625
4.116667	1	0.014000
4.133333	1	0.014000
4.150000	1	0.013750
4.166667	1	0.013625
4.183333	1	0.013000
4.200000	1	0.012625
4.216667	1	0.012375
4.233333	1	0.011750
4.250000	1	0.011250
4.266667	1	0.010375
4.283333	1	0.009250
4.300000	1	0.008125
4.316667	1	0.007125
4.333333	1	0.006250
4.350000	1	0.005125
4.366667	1	0.004375
4.383333	1	0.003750
4.400000	1	0.003750
4.416667	1	0.003000
4.433333	1	0.002750
4.450000	1	0.002875
4.466667	1	0.003000
4.483333	1	0.002500
4.500000	1	0.002625
4.516667	1	0.003250
4.533333	1	0.003625
4.550000	1	0.004375
4.566667	1	0.005625
4.583333	1	0.007125
4.600000	1	0.008625
4.616667	1	0.010375
4.633333	1	0.012250
4.650000	1	0.014250
4.666667	1	0.016625
4.683333	1	0.018750
4.700000	1	0.021125
4.716667	1	0.023875
4.733333	1	0.026000
4.750000	1	0.028125
4.766667	1	0.029750
4.783333	1	0.032625
4.800000	1	0.034750
4.816667	1	0.037250
4.833333	1	0.038750
4.850000	1	0.040750
4.866667	1	0.043625
4.883333	1	0.045750
4.900000	1	0.047375
4.916667	1	0.050000
4.933333	1	0.052250
4.950000	1	0.053875
4.966667	1	0.056000
4.983333	1	0.058500
5.000000	1	0.061125
5.016667	1	0.063750
5.033333	1	0.066125
5.050000	1	0.069125
5.066667	1	0.072375
5.083333	1	0.074375
5.100000	1	0.077000
5.116667	1	0.079625
5.133333	1	0.082875
5.150000	1	0.085750
5.166667	1	0.089250
5.183333	1	0.093250
5.200000	1	0.096625
5.216667	1	0.100125
5.233333	1	0.103625
5.250000	1	0.107750
5.266667	1	0.111625
5.283333	1	0.115250
5.300000	1	0.119625
5.316667	1	0.123875
5.333333	1	0.128125
5.350000	1	0.132625
5.366667	1	0.137500
5.383333	1	0.142250
5.400000	1	0.146750
5.416667	1	0.151125
5.433333	1	0.155750
5.450000	1	0.160125
5.466667	1	0.164750
5.483333	1	0.168875
5.500000	1	0.173125
5.516667	1	0.177500
5.533333	1	0.180750
5.550000	1	0.184250
5.566667	1	0.187625
5.583333	1	0.190625
5.600000	1	0.193875
5.616667	1	0.196625
5.633333	1	0.199125
5.650000	1	0.202125
5.666667	1	0.204250
5.683333	1	0.205750
5.700000	1	0.207250
5.716667	1	0.208750
5.733333	1	0.210500
5.750000	1	0.211625
5.766667	1	0.212500
5.783333	1	0.212750
5.800000	1	0.213875
5.816667	1	0.214125
5.833333	1	0.213625
5.850000	1	0.213500
5.866667	1	0.213375
5.883333	1	0.213500
5.900000	1	0.212750
5.916667	1	0.211750
5.933333	1	0.211250
5.950000	1	0.210625
5.966667	1	0.209875
5.983333	1	0.208875
6.000000	1	0.207750
6.016667	1	0.206750
6.033333	1	0.205500
6.050000	1	0.203875
6.066667	1	0.202000
6.083333	1	0.200375
6.100000	1	0.198375
6.116667	1	0.196875
6.133333	1	0.195000
6.150000	1	0.193000
6.166667	1	0.190750
6.183333	1	0.188875
6.200000	1	0.186500
6.216667	1	0.184625
6.233333	1	0.182000
6.250000	1	0.179500
6.266667	1	0.176750
6.283333	1	0.174000
6.300000	1	0.171500
6.316667	1	0.169375
6.333333	1	0.167000
6.350000	1	0.164500
6.366667	1	0.161625
6.383333	1	0.158625
6.400000	1	0.156625
6.416667	1	0.153500
6.433333	1	0.151000
6.450000	1	0.148125
6.466667	1	0.145375
6.483333	1	0.142625
6.500000	1	0.140500
6.516667	1	0.137500
6.533333	1	0.135125
6.550000	1	0.132750
6.566667	1	0.130250
6.583333	1	0.127375
6.600000	1	0.124250
6.616667	1	0.121500
6.633333	1	0.119000
6.650000	1	0.116375
6.666667	1	0.114500
6.683333	1	0.111875
6.700000	1	0.109125
6.716667	1	0.106250
6.733333	1	0.103875
6.750000	1	0.101000
6.766667	1	0.098750
6.783333	1	0.096875
6.800000	1	0.094125
6.816667	1	0.092125
6.833333	1	0.089375
6.850000	1	0.087125
6.866667	1	0.085125
6.883333	1	0.083875
6.900000	1	0.081500
6.916667	1	0.079625
6.933333	1	0.078500
6.950000	1	0.077875
6.966667	1	0.076000
6.983333	1	0.075000
7.000000	1	0.073500
7.016667	1	0.071875
7.033333	1	0.071250
7.050000	1	0.070500
7.066667	1	0.070125
7.083333	1	0.069375
7.100000	1	0.069125
7.116667	1	0.069125
7.133333	1	0.069375
7.150000	1	0.070125
7.166667	1	0.070875
7.183333	1	0.071500
7.200000	1	0.072000
7.216667	1	0.073375
7.233333	1	0.074500
7.250000	1	0.075125
7.266667	1	0.076500
7.283333	1	0.078125
7.300000	1	0.080125
7.316667	1	0.081500
7.333333	1	0.083250
7.350000	1	0.084875
7.366667	1	0.087125
7.383333	1	0.089000
7.400000	1	0.091875
7.416667	1	0.093875
7.433333	1	0.095625
7.450000	1	0.098250
7.466667	1	0.100625
7.483333	1	0.103250
7.500000	1	0.104625
7.516667	1	0.106375
7.533333	1	0.107875
7.550000	1	0.109875
7.566667	1	0.111125
7.583333	1	0.113125
7.600000	1	0.115125
7.616667	1	0.116125
7.633333	1	0.117750
7.650000	1	0.119125
7.666667	1	0.120375
7.683333	1	0.120875
7.700000	1	0.121500
7.716667	1	0.122000
7.733333	1	0.122375
7.750000	1	0.121750
7.766667	1	0.121750
7.783333	1	0.121875
7.800000	1	0.121500
7.816667	1	0.120750
7.833333	1	0.119250
7.850000	1	0.118375
7.866667	1	0.117250
7.883333	1	0.115250
7.900000	1	0.114250
7.916667	1	0.112375
7.933333	1	0.110250
7.950000	1	0.109125
7.966667	1	0.107375
7.983333	1	0.105125
8.000000	1	0.102125
8.016667	1	0.099625
8.033333	1	0.096750
8.050000	1	0.094250
8.066667	1	0.091375
8.083333	1	0.088750
8.100000	1	0.085500
8.116667	1	0.082250
8.133333	1	0.079125
8.150000	1	0.076375
8.166667	1	0.073250
8.183333	1	0.070125
8.200000	1	0.066750
8.216667	1	0.064000
8.233333	1	0.060625
8.250000	1	0.057250
8.266667	1	0.053375
8.283333	1	0.050000
8.300000	1	0.046375
8.316667	1	0.043375
8.333333	1	0.040500
8.350000	1	0.037375
8.366667	1	0.034375
8.383333	1	0.031250
8.400000	1	0.028625
8.416667	1	0.025000
8.433333	1	0.022375
8.450000	1	0.019875
8.466667	1	0.017875
8.483333	1	0.015500
8.500000	1	0.013750
8.516667	1	0.012125
8.533333	1	0.011375
8.550000	1	0.009875
8.566667	1	0.009000
8.583333	1	0.008250
8.600000	1	0.007375
8.616667	1	0.006500
8.633333	1	0.005625
8.650000	1	0.005375
8.666667	1	0.005125
8.683333	1	0.005500
8.700000	1	0.005875
8.716667	1	0.006000
8.733333	1	0.005250
8.750000	1	0.005125
8.766667	1	0.005750
8.783333	1	0.005625
8.800000	1	0.005750
8.816667	1	0.005250
8.833333	1	0.004750
8.850000	1	0.004500
8.866667	1	0.004250
8.883333	1	0.003750
8.900000	1	0.003625
8.916667	1	0.003875
8.933333	1	0.003250
8.950000	1	0.002875
8.966667	1	0.002750
8.983333	1	0.002000
9.000000	1	0.001250
9.016667	1	0.001000
9.033333	1	0.000375
9.050000	1	0.000000
9.066667	1	-0.000125
9.083333	1	-0.000500
9.100000	1	-0.000375
9.116667	1	-0.001125
9.133333	1	-0.002000
9.150000	1	-0.002125
9.166667	1	-0.002125
9.183333	1	-0.002500
9.200000	1	-0.003000
9.216667	1	-0.004000
9.233333	1	-0.004125
9.250000	1	-0.004250
9.266667	1	-0.004125
9.283333	1	-0.005125
9.300000	1	-0.005125
9.316667	1	-0.006125
9.333333	1	-0.006250
9.350000	1	-0.006875
9.366667	1	-0.007375
9.383333	1	-0.007625
9.400000	1	-0.007875
9.416667	1	-0.009125
9.433333	1	-0.009625
9.450000	1	-0.010125
9.466667	1	-0.010375
9.483333	1	-0.011250
9.500000	1	-0.011750
9.516667	1	-0.012375
9.533333	1	-0.012875
9.550000	1	-0.013125
9.566667	1	-0.013625
9.583333	1	-0.013750
9.600000	1	-0.013750
9.616667	1	-0.014375
9.633333	1	-0.014875
9.650000	1	-0.014875
9.666667	1	-0.016000
9.683333	1	-0.016125
9.700000	1	-0.016250
9.716667	1	-0.015750
9.733333	1	-0.015625
9.750000	1	-0.015750
9.766667	1	-0.015625
9.783333	1	-0.015750
9.800000	1	-0.015000
9.816667	1	-0.015250
9.833333	1	-0.015500
9.850000	1	-0.015375
9.866667	1	-0.015375
9.883333	1	-0.015375
9.900000	1	-0.015125
9.916667	1	-0.015125
9.933333	1	-0.013500
9.950000	1	-0.012750
9.966667	1	-0.011500
9.983333	1	-0.011000
10.000000	1	-0.009250
10.016667	1	-0.007375
10.033333	1	-0.005125
10.050000	1	-0.002500
10.066667	1	0.001000
10.083333	1	0.005625
10.100000	1	0.010125
10.116667	1	0.014875
10.133333	1	0.020750
10.150000	1	0.027000
10.166667	1	0.033875
10.183333	1	0.042375
10.200000	1	0.051750
10.216667	1	0.063000
10.233333	1	0.075250
10.250000	1	0.089625
10.266667	1	0.105375
10.283333	1	0.124000
10.300000	1	0.145250
10.316667	1	0.169375
10.333333	1	0.195250
10.350000	1	0.225125
10.366667	1	0.257750
10.383333	1	0.294375
10.400000	1	0.333625
10.416667	1	0.374500
10.433333	1	0.410750
10.450000	1	0.434250
10.466667	1	0.432375
10.483333	1	0.396750
10.500000	1	0.328000
10.516667	1	0.245000
10.533333	1	0.195375
10.550000	1	0.251750
10.566667	1	0.506750
10.583333	1	1.062625
10.600000	1	2.015750
10.616667	1	3.447500
10.633333	1	5.419625
10.650000	1	7.968750
10.666667	1	11.114375
10.683333	1	14.851250
10.700000	1	19.152750
10.716667	1	23.953875
10.733333	1	29.148375
10.750000	1	34.565125
10.766667	1	39.953250
10.783333	1	44.967750
10.800000	1	49.183500
10.816667	1	52.139125
10.833333	1	53.444250
10.850000	1	52.905375
10.866667	1	50.597000
10.883333	1	46.856125
10.900000	1	42.174375
10.916667	1	37.065125
10.933333	1	31.956625
10.950000	1	27.146750
10.966667	1	22.806125
10.983333	1	19.011375
11.000000	1	15.773750
11.016667	1	13.065125
11.033333	1	10.835875
11.050000	1	9.024125
11.066667	1	7.565000
11.083333	1	6.395375
11.100000	1	5.459250
11.116667	1	4.709625
11.133333	1	4.106875
11.150000	1	3.619625
11.166667	1	3.222625
11.183333	1	2.896625
11.200000	1	2.627125
11.216667	1	2.400875
11.233333	1	2.209875
11.250000	1	2.047750
11.266667	1	1.909250
11.283333	1	1.789750
11.300000	1	1.686125
11.316667	1	1.596500
11.333333	1	1.519000
11.350000	1	1.449875
11.366667	1	1.390250
11.383333	1	1.338000
11.400000	1	1.291750
11.416667	1	1.251000
11.433333	1	1.214125
11.450000	1	1.181000
11.466667	1	1.152250
11.483333	1	1.126000
11.500000	1	1.102750
11.516667	1	1.081125
11.533333	1	1.062250
11.550000	1	1.045250
11.566667	1	1.030375
11.583333	1	1.016375
11.600000	1	1.004125
11.616667	1	0.993375
11.633333	1	0.983625
11.650000	1	0.975500
11.666667	1	0.969500
11.683333	1	0.964250
11.700000	1	0.960500
11.716667	1	0.958500
11.733333	1	0.958750
11.750000	1	0.959875
11.766667	1	0.962125
11.783333	1	0.965375
11.800000	1	0.970125
11.816667	1	0.974250
11.833333	1	0.978750
11.850000	1	0.983750
11.866667	1	0.988750
11.883333	1	0.993125
11.900000	1	0.997500
11.916667	1	1.000875
11.933333	1	1.004375
11.950000	1	1.008000
11.966667	1	1.012125
11.983333	1	1.016375
12.000000	1	1.021500
12.016667	1	1.026875
12.033333	1	1.033500
12.050000	1	1.040500
12.066667	1	1.048625
12.083333	1	1.057625
12.100000	1	1.067750
12.116667	1	1.078500
12.133333	1	1.090750
12.150000	1	1.104375
12.166667	1	1.120500
12.183333	1	1.138750
12.200000	1	1.159250
12.216667	1	1.183750
12.233333	1	1.212750
12.250000	1	1.245250
12.266667	1	1.282000
12.283333	1	1.322375
12.300000	1	1.365750
12.316667	1	1.412625
12.333333	1	1.462000
12.350000	1	1.515875
12.366667	1	1.574250
12.383333	1	1.640750
12.400000	1	1.720125
12.416667	1	1.817500
12.433333	1	1.938000
12.450000	1	2.092375
12.466667	1	2.288500
12.483333	1	2.535250
12.500000	1	2.838750
12.516667	1	3.204375
12.533333	1	3.632000
12.550000	1	4.120000
12.566667	1	4.661500
12.583333	1	5.244500
12.600000	1	5.857000
12.616667	1	6.481875
12.633333	1	7.105250
12.650000	1	7.713125
12.666667	1	8.295625
12.683333	1	8.846375
12.700000	1	9.364125
12.716667	1	9.851750
12.733333	1	10.313875
12.750000	1	10.758375
12.766667	1	11.196500
12.783333	1	11.636750
12.800000	1	12.086625
12.816667	1	12.551875
12.833333	1	13.032625
12.850000	1	13.516750
12.866667	1	13.965375
12.883333	1	14.303250
12.900000	1	14.423375
12.916667	1	14.221750
12.933333	1	13.639375
12.950000	1	12.698125
12.966667	1	11.491875
12.983333	1	10.155000
13.000000	1	8.815875
13.016667	1	7.568000
13.033333	1	6.460375
13.050000	1	5.508250
13.066667	1	4.707750
13.083333	1	4.046375
13.100000	1	3.507750
13.116667	1	3.074750
13.133333	1	2.728125
13.150000	1	2.452875
13.166667	1	2.234750
13.183333	1	2.061125
13.200000	1	1.922125
13.216667	1	1.810125
13.233333	1	1.719000
13.250000	1	1.643125
13.266667	1	1.578750
13.283333	1	1.523125
13.300000	1	1.474625
13.316667	1	1.431500
13.333333	1	1.392375
13.350000	1	1.356750
13.366667	1	1.324875
13.383333	1	1.295250
13.400000	1	1.268750
13.416667	1	1.245250
13.433333	1	1.224000
13.450000	1	1.205500
13.466667	1	1.189750
13.483333	1	1.176875
13.500000	1	1.166875
13.516667	1	1.159500
13.533333	1	1.153250
13.550000	1	1.148625
13.566667	1	1.145250
13.583333	1	1.141000
13.600000	1	1.136250
13.616667	1	1.130000
13.633333	1	1.122125
13.650000	1	1.112625
13.666667	1	1.100250
13.683333	1	1.086875
13.700000	1	1.070750
13.716667	1	1.052750
13.733333	1	1.034000
13.750000	1	1.014750
13.766667	1	0.995375
13.783333	1	0.976750
13.800000	1	0.958250
13.816667	1	0.940125
13.833333	1	0.922875
13.850000	1	0.906375
13.866667	1	0.891000
13.883333	1	0.876500
13.900000	1	0.861875
13.916667	1	0.849250
13.933333	1	0.837125
13.950000	1	0.825625
13.966667	1	0.814500
13.983333	1	0.804375
14.000000	1	0.794125
14.016667	1	0.784625
14.033333	1	0.776625
14.050000	1	0.768750
14.066667	1	0.761500
14.083333	1	0.753750
14.100000	1	0.746625
14.116667	1	0.739875
14.133333	1	0.734000
14.150000	1	0.727750
14.166667	1	0.722750
14.183333	1	0.718500
14.200000	1	0.714875
14.216667	1	0.711375
14.233333	1	0.709625
14.250000	1	0.708750
14.266667	1	0.708125
14.283333	1	0.708500
14.300000	1	0.710000
14.316667	1	0.713500
14.333333	1	0.717875
14.350000	1	0.723750
14.366667	1	0.731000
14.383333	1	0.739500
14.400000	1	0.750000
14.416667	1	0.763625
14.433333	1	0.780500
14.450000	1	0.804750
14.466667	1	0.838875
14.483333	1	0.891500
14.500000	1	0.973375
14.516667	1	1.100375
14.533333	1	1.298000
14.550000	1	1.598500
14.566667	1	2.045750
14.583333	1	2.692625
14.600000	1	3.603625
14.616667	1	4.852250
14.633333	1	6.517500
14.650000	1	8.673750
14.666667	1	11.384125
14.683333	1	14.685250
14.700000	1	18.580125
14.716667	1	23.021250
14.733333	1	27.917625
14.750000	1	33.122500
14.766667	1	38.445625
14.783333	1	43.653875
14.800000	1	48.510000
14.816667	1	52.779125
14.833333	1	56.249875
14.850000	1	58.752875
14.866667	1	60.180750
14.883333	1	60.495125
14.900000	1	59.731375
14.916667	1	57.986250
14.933333	1	55.411750
14.950000	1	52.188625
14.966667	1	48.509250
14.983333	1	44.565500
15.000000	1	40.522500
15.016667	1	36.518375
15.033333	1	32.658250
15.050000	1	29.019000
15.066667	1	25.650250
15.083333	1	22.577875
15.100000	1	19.810625
15.116667	1	17.342000
15.133333	1	15.154000
15.150000	1	13.224500
15.166667	1	11.530375
15.183333	1	10.048375
15.200000	1	8.754750
15.216667	1	7.627375
15.233333	1	6.647750
15.250000	1	5.799125
15.266667	1	5.067750
15.283333	1	4.440875
15.300000	1	3.908125
15.316667	1	3.459375
15.333333	1	3.085875
15.350000	1	2.778125
15.366667	1	2.528625
15.383333	1	2.329250
15.400000	1	2.172000
15.416667	1	2.049375
15.433333	1	1.954750
15.450000	1	1.880625
15.466667	1	1.822250
15.483333	1	1.772875
15.500000	1	1.729375
15.516667	1	1.687250
15.533333	1	1.645625
15.550000	1	1.602875
15.566667	1	1.558000
15.583333	1	1.511625
15.600000	1	1.464125
15.616667	1	1.417250
15.633333	1	1.371500
15.650000	1	1.327375
15.666667	1	1.285000
15.683333	1	1.245625
15.700000	1	1.209125
15.716667	1	1.175250
15.733333	1	1.143250
15.750000	1	1.114125
15.766667	1	1.086875
15.783333	1	1.062000
15.800000	1	1.038000
15.816667	1	1.016875
15.833333	1	0.996375
15.850000	1	0.978000
15.866667	1	0.961875
15.883333	1	0.948750
15.900000	1	0.937375
15.916667	1	0.929625
15.933333	1	0.924500
15.950000	1	0.922500
15.966667	1	0.923750
15.983333	1	0.927000
16.000000	1	0.933250
16.016667	1	0.940500
16.033333	1	0.948875
16.050000	1	0.958875
16.066667	1	0.968125
16.083333	1	0.976500
16.100000	1	0.983750
16.116667	1	0.989375
16.133333	1	0.993250
16.150000	1	0.994750
16.166667	1	0.995000
16.183333	1	0.992625
16.200000	1	0.988375
16.216667	1	0.982500
16.233333	1	0.976000
16.250000	1	0.968125
16.266667	1	0.959625
16.283333	1	0.949750
16.300000	1	0.939375
16.316667	1	0.929625
16.333333	1	0.921625
16.350000	1	0.913875
16.366667	1	0.906625
16.383333	1	0.901125
16.400000	1	0.897625
16.416667	1	0.896375
16.433333	1	0.896375
16.450000	1	0.897625
16.466667	1	0.900125
16.483333	1	0.903500
16.500000	1	0.906250
16.516667	1	0.909375
16.533333	1	0.911750
16.550000	1	0.913125
16.566667	1	0.913375
16.583333	1	0.912125
16.600000	1	0.908875
16.616667	1	0.904750
16.633333	1	0.899000
16.650000	1	0.892875
16.666667	1	0.887250
16.683333	1	0.881625
16.700000	1	0.878000
16.716667	1	0.875375
16.733333	1	0.875375
16.750000	1	0.877125
16.766667	1	0.881625
16.783333	1	0.887000
16.800000	1	0.894375
16.816667	1	0.903125
16.833333	1	0.912500
16.850000	1	0.921625
16.866667	1	0.931625
16.883333	1	0.940375
16.900000	1	0.948000
16.916667	1	0.953500
16.933333	1	0.957750
16.950000	1	0.960750
16.966667	1	0.962500
16.983333	1	0.963125
17.000000	1	0.962875
17.016667	1	0.961500
17.033333	1	0.960875
17.050000	1	0.960750
17.066667	1	0.960750
17.083333	1	0.961875
17.100000	1	0.962875
17.116667	1	0.965500
17.133333	1	0.968875
17.150000	1	0.973375
17.166667	1	0.977000
17.183333	1	0.981500
17.200000	1	0.986000
17.216667	1	0.990500
17.233333	1	0.994750
17.250000	1	0.999375
17.266667	1	1.003375
17.283333	1	1.007125
17.300000	1	1.010750
17.316667	1	1.014625
17.333333	1	1.018875
17.350000	1	1.022750
17.366667	1	1.026750
17.383333	1	1.030375
17.400000	1	1.033375
17.416667	1	1.036500
17.433333	1	1.038625
17.450000	1	1.039125
17.466667	1	1.039125
17.483333	1	1.038000
17.500000	1	1.035125
17.516667	1	1.030000
17.533333	1	1.023375
17.550000	1	1.016000
17.566667	1	1.007250
17.583333	1	0.997500
17.600000	1	0.985875
17.616667	1	0.973625
17.633333	1	0.960500
17.650000	1	0.947500
17.666667	1	0.933375
17.683333	1	0.919000
17.700000	1	0.905375
17.716667	1	0.890875
17.733333	1	0.877250
17.750000	1	0.864000
17.766667	1	0.850875
17.783333	1	0.838875
17.800000	1	0.827000
17.816667	1	0.816375
17.833333	1	0.806375
17.850000	1	0.797250
17.866667	1	0.788625
17.883333	1	0.780375
17.900000	1	0.773000
17.916667	1	0.765750
17.933333	1	0.758875
17.950000	1	0.751875
17.966667	1	0.745375
17.983333	1	0.738500
18.000000	1	0.731250
18.016667	1	0.724250
18.033333	1	0.717125
18.050000	1	0.710875
18.066667	1	0.704875
18.083333	1	0.698375
18.100000	1	0.692375
18.116667	1	0.687750
18.133333	1	0.683125
18.150000	1	0.679500
18.166667	1	0.676875
18.183333	1	0.674375
18.200000	1	0.673625
18.216667	1	0.672750
18.233333	1	0.671500
18.250000	1	0.671875
18.266667	1	0.671500
18.283333	1	0.670750
18.300000	1	0.671000
18.316667	1	0.671000
18.333333	1	0.671500
18.350000	1	0.672000
18.366667	1	0.673375
18.383333	1	0.675250
18.400000	1	0.678250
18.416667	1	0.682625
18.433333	1	0.688375
18.450000	1	0.694750
18.466667	1	0.703625
18.483333	1	0.714000
18.500000	1	0.727125
18.516667	1	0.742500
18.533333	1	0.759125
18.550000	1	0.778875
18.566667	1	0.801250
18.583333	1	0.824875
18.600000	1	0.850375
18.616667	1	0.877875
18.633333	1	0.908250
18.650000	1	0.939250
18.666667	1	0.971375
18.683333	1	1.005750
18.700000	1	1.040500
18.716667	1	1.076875
18.733333	1	1.113875
18.750000	1	1.151375
18.766667	1	1.188750
18.783333	1	1.225125
18.800000	1	1.260625
18.816667	1	1.294375
18.833333	1	1.325875
18.850000	1	1.353250
18.866667	1	1.376250
18.883333	1	1.393625
18.900000	1	1.406000
18.916667	1	1.411000
18.933333	1	1.409875
18.950000	1	1.402375
18.966667	1	1.387500
18.983333	1	1.366125
19.000000	1	1.337875
19.016667	1	1.304250
19.033333	1	1.266125
19.050000	1	1.223125
19.066667	1	1.176875
19.083333	1	1.129000
19.100000	1	1.080000
19.116667	1	1.030375
19.133333	1	0.982125
19.150000	1	0.935500
19.166667	1	0.891875
19.183333	1	0.851000
19.200000	1	0.814500
19.216667	1	0.781750
19.233333	1	0.753375
19.250000	1	0.730625
19.266667	1	0.713375
19.283333	1	0.702375
19.300000	1	0.697000
19.316667	1	0.697000
19.333333	1	0.703625
19.350000	1	0.715000
19.366667	1	0.731000
19.383333	1	0.751625
19.400000	1	0.775125
19.416667	1	0.801625
19.433333	1	0.829000
19.450000	1	0.856250
19.466667	1	0.882500
19.483333	1	0.906500
19.500000	1	0.928250
19.516667	1	0.945875
19.533333	1	0.959375
19.550000	1	0.966750
19.566667	1	0.969250
19.583333	1	0.966500
19.600000	1	0.959250
19.616667	1	0.946500
19.633333	1	0.930500
19.650000	1	0.909875
19.666667	1	0.886500
19.683333	1	0.860125
19.700000	1	0.832875
19.716667	1	0.803875
19.733333	1	0.774750
19.750000	1	0.745250
19.766667	1	0.716000
19.783333	1	0.687375
19.800000	1	0.660000
19.816667	1	0.633125
19.833333	1	0.607750
19.850000	1	0.584000
19.866667	1	0.561625
19.883333	1	0.541375
19.900000	1	0.522125
19.916667	1	0.505125
19.933333	1	0.489625
19.950000	1	0.475875
19.966667	1	0.464250
19.983333	1	0.455125
20.000000	1	0.448000
20.016667	1	0.443375
20.033333	1	0.440500
20.050000	1	0.440625
20.066667	1	0.443250
20.083333	1	0.449250
20.100000	1	0.458000
20.116667	1	0.469375
20.133333	1	0.483500
20.150000	1	0.499500
20.166667	1	0.517875
20.183333	1	0.537625
20.200000	1	0.558500
20.216667	1	0.579250
20.233333	1	0.598750
20.250000	1	0.616375
20.266667	1	0.632500
20.283333	1	0.645875
20.300000	1	0.656125
20.316667	1	0.662750
20.333333	1	0.665125
20.350000	1	0.664250
20.366667	1	0.659250
20.383333	1	0.650125
20.400000	1	0.638875
20.416667	1	0.625375
20.433333	1	0.609625
20.450000	1	0.593125
20.466667	1	0.576000
20.483333	1	0.559750
20.500000	1	0.543875
20.516667	1	0.530125
20.533333	1	0.519750
20.550000	1	0.512500
20.566667	1	0.509500
20.583333	1	0.511125
20.600000	1	0.518500
20.616667	1	0.532000
20.633333	1	0.552000
20.650000	1	0.579250
20.666667	1	0.614625
20.683333	1	0.658250
20.700000	1	0.708375
20.716667	1	0.766250
20.733333	1	0.829625
20.750000	1	0.897500
20.766667	1	0.969750
20.783333	1	1.042875
20.800000	1	1.115375
20.816667	1	1.184625
20.833333	1	1.247750
20.850000	1	1.303250
20.866667	1	1.348625
20.883333	1	1.383750
20.900000	1	1.407125
20.916667	1	1.417125
20.933333	1	1.414250
20.950000	1	1.400000
20.966667	1	1.375000
20.983333	1	1.339500
21.000000	1	1.295625
21.016667	1	1.245375
21.033333	1	1.191000
21.050000	1	1.133000
21.066667	1	1.073750
21.083333	1	1.014375
21.100000	1	0.956625
21.116667	1	0.900500
21.133333	1	0.847250
21.150000	1	0.797750
21.166667	1	0.751000
21.183333	1	0.708750
21.200000	1	0.669375
21.216667	1	0.633625
21.233333	1	0.601500
21.250000	1	0.573000
21.266667	1	0.546625
21.283333	1	0.523625
21.300000	1	0.503000
21.316667	1	0.484750
21.333333	1	0.468375
21.350000	1	0.453250
21.366667	1	0.439750
21.383333	1	0.427875
21.400000	1	0.417500
21.416667	1	0.407875
21.433333	1	0.399125
21.450000	1	0.392375
21.466667	1	0.386500
21.483333	1	0.381750
21.500000	1	0.377875
21.516667	1	0.375125
21.533333	1	0.374000
21.550000	1	0.374375
21.566667	1	0.378125
21.583333	1	0.383625
21.600000	1	0.392750
21.616667	1	0.404500
21.633333	1	0.420750
21.650000	1	0.440250
21.666667	1	0.466000
21.683333	1	0.495750
21.700000	1	0.532250
21.716667	1	0.573500
21.733333	1	0.619875
21.750000	1	0.672625
21.766667	1	0.729500
21.783333	1	0.790375
21.800000	1	0.854750
21.816667	1	0.920875
21.833333	1	0.986875
21.850000	1	1.052000
21.866667	1	1.114625
21.883333	1	1.174375
21.900000	1	1.228500
21.916667	1	1.276000
21.933333	1	1.316250
21.950000	1	1.348125
21.966667	1	1.371000
21.983333	1	1.385625
22.000000	1	1.390375
22.016667	1	1.386500
22.033333	1	1.374125
22.050000	1	1.354500
22.066667	1	1.328125
22.083333	1	1.296375
22.100000	1	1.260125
22.116667	1	1.221125
22.133333	1	1.178375
22.150000	1	1.134750
22.166667	1	1.089625
22.183333	1	1.044250
22.200000	1	0.999000
22.216667	1	0.954375
22.233333	1	0.910500
22.250000	1	0.867750
22.266667	1	0.825500
22.283333	1	0.784750
22.300000	1	0.745750
22.316667	1	0.707875
22.333333	1	0.672875
22.350000	1	0.638625
22.366667	1	0.605625
22.383333	1	0.574375
22.400000	1	0.544875
22.416667	1	0.516500
22.433333	1	0.490875
22.450000	1	0.466875
22.466667	1	0.443875
22.483333	1	0.422375
22.500000	1	0.403125
22.516667	1	0.385125
22.533333	1	0.367875
22.550000	1	0.353375
22.566667	1	0.339375
22.583333	1	0.326250
22.600000	1	0.313875
22.616667	1	0.302875
22.633333	1	0.292750
22.650000	1	0.283000
22.666667	1	0.274250
22.683333	1	0.265625
22.700000	1	0.258000
22.716667	1	0.250875
22.733333	1	0.243875
22.750000	1	0.238000
22.766667	1	0.231875
22.783333	1	0.226125
22.800000	1	0.221125
22.816667	1	0.216375
22.833333	1	0.212250
22.850000	1	0.207625
22.866667	1	0.203750
22.883333	1	0.200375
22.900000	1	0.197250
22.916667	1	0.194625
22.933333	1	0.192750
22.950000	1	0.190625
22.966667	1	0.189625
22.983333	1	0.188250
23.000000	1	0.188000
23.016667	1	0.187625
23.033333	1	0.187625
23.050000	1	0.188125
23.066667	1	0.189500
23.083333	1	0.191500
23.100000	1	0.193125
23.116667	1	0.195375
23.133333	1	0.198125
23.150000	1	0.200500
23.166667	1	0.203750
23.183333	1	0.207500
23.200000	1	0.210125
23.216667	1	0.213250
23.233333	1	0.216250
23.250000	1	0.219000
23.266667	1	0.222875
23.283333	1	0.227250
23.300000	1	0.232625
23.316667	1	0.239375
23.333333	1	0.247250
23.350000	1	0.257250
23.366667	1	0.270625
23.383333	1	0.288375
23.400000	1	0.311250
23.416667	1	0.341625
23.433333	1	0.381250
23.450000	1	0.431875
23.466667	1	0.495500
23.483333	1	0.573875
23.500000	1	0.670750
23.516667	1	0.788250
23.533333	1	0.929750
23.550000	1	1.097750
23.566667	1	1.293250
23.583333	1	1.518500
23.600000	1	1.772500
23.616667	1	2.055750
23.633333	1	2.366375
23.650000	1	2.700750
23.666667	1	3.056125
23.683333	1	3.426250
23.700000	1	3.805375
23.716667	1	4.186500
23.733333	1	4.561500
23.750000	1	4.922625
23.766667	1	5.260750
23.783333	1	5.567750
23.800000	1	5.836875
23.816667	1	6.061625
23.833333	1	6.237500
23.850000	1	6.361125
23.866667	1	6.430500
23.883333	1	6.446750
23.900000	1	6.411125
23.916667	1	6.326125
23.933333	1	6.196125
23.950000	1	6.025500
23.966667	1	5.821250
23.983333	1	5.588625
24.000000	1	5.334750
24.016667	1	5.065875
24.033333	1	4.787250
24.050000	1	4.503875
24.066667	1	4.221000
24.083333	1	3.942250
24.100000	1	3.670000
24.116667	1	3.406875
24.133333	1	3.155250
24.150000	1	2.916250
24.166667	1	2.690875
24.183333	1	2.478875
24.200000	1	2.280875
24.216667	1	2.096875
24.233333	1	1.926500
24.250000	1	1.769250
24.266667	1	1.623125
24.283333	1	1.489500
24.300000	1	1.366500
24.316667	1	1.254000
24.333333	1	1.151750
24.350000	1	1.058750
24.366667	1	0.974875
24.383333	1	0.898625
24.400000	1	0.831000
24.416667	1	0.770500
24.433333	1	0.716875
24.450000	1	0.669125
24.466667	1	0.627375
24.483333	1	0.590750
24.500000	1	0.559375
24.516667	1	0.531000
24.533333	1	0.507000
24.550000	1	0.485375
24.566667	1	0.466625
24.583333	1	0.450125
24.600000	1	0.436125
24.616667	1	0.423875
24.633333	1	0.412500
24.650000	1	0.402375
24.666667	1	0.392375
24.683333	1	0.383750
24.700000	1	0.374625
24.716667	1	0.367125
24.733333	1	0.358750
24.750000	1	0.351000
24.766667	1	0.343500
24.783333	1	0.335875
24.800000	1	0.328750
24.816667	1	0.322000
24.833333	1	0.315625
24.850000	1	0.310250
24.866667	1	0.305250
24.883333	1	0.300625
24.900000	1	0.296000
24.916667	1	0.291500
24.933333	1	0.288375
24.950000	1	0.285625
24.966667	1	0.282750
24.983333	1	0.280750
25.000000	1	0.278375
25.016667	1	0.275875
25.033333	1	0.274625
25.050000	1	0.273000
25.066667	1	0.272375
25.083333	1	0.271625
25.100000	1	0.271000
25.116667	1	0.270375
25.133333	1	0.269750
25.150000	1	0.269375
25.166667	1	0.268375
25.183333	1	0.268000
25.200000	1	0.267875
25.216667	1	0.267375
25.233333	1	0.266625
25.250000	1	0.265625
25.266667	1	0.264500
25.283333	1	0.263250
25.300000	1	0.262250
25.316667	1	0.261125
25.333333	1	0.259875
25.350000	1	0.259000
25.366667	1	0.257250
25.383333	1	0.255375
25.400000	1	0.253875
25.416667	1	0.252750
25.433333	1	0.250875
25.450000	1	0.249500
25.466667	1	0.247750
25.483333	1	0.247000
25.500000	1	0.244750
25.516667	1	0.243750
25.533333	1	0.241500
25.550000	1	0.240375
25.566667	1	0.238875
25.583333	1	0.237875
25.600000	1	0.236250
25.616667	1	0.235000
25.633333	1	0.233500
25.650000	1	0.232375
25.666667	1	0.230750
25.683333	1	0.229500
25.700000	1	0.228625
25.716667	1	0.227500
25.733333	1	0.226875
25.750000	1	0.225500
25.766667	1	0.224250
25.783333	1	0.223750
25.800000	1	0.223625
25.816667	1	0.222500
25.833333	1	0.221875
25.850000	1	0.222250
25.866667	1	0.222875
25.883333	1	0.223250
25.900000	1	0.224250
25.916667	1	0.225500
25.933333	1	0.227000
25.950000	1	0.228750
25.966667	1	0.230750
25.983333	1	0.232875
26.000000	1	0.235875
26.016667	1	0.239250
26.033333	1	0.242000
26.050000	1	0.245875
26.066667	1	0.249625
26.083333	1	0.254500
26.100000	1	0.258875
26.116667	1	0.263875
26.133333	1	0.269125
26.150000	1	0.274375
26.166667	1	0.279500
26.183333	1	0.284625
26.200000	1	0.288750
26.216667	1	0.293875
26.233333	1	0.299000
26.250000	1	0.303875
26.266667	1	0.308375
26.283333	1	0.312125
26.300000	1	0.315250
26.316667	1	0.317375
26.333333	1	0.319750
26.350000	1	0.320750
26.366667	1	0.321875
26.383333	1	0.321875
26.400000	1	0.322125
26.416667	1	0.321250
26.433333	1	0.319750
26.450000	1	0.317375
26.466667	1	0.314375
26.483333	1	0.310750
26.500000	1	0.306875
26.516667	1	0.302250
26.533333	1	0.297125
26.550000	1	0.291625
26.566667	1	0.286125
26.583333	1	0.280875
26.600000	1	0.275250
26.616667	1	0.270375
26.633333	1	0.265250
26.650000	1	0.260000
26.666667	1	0.254625
26.683333	1	0.249625
26.700000	1	0.245250
26.716667	1	0.240875
26.733333	1	0.236625
26.750000	1	0.232750
26.766667	1	0.229125
26.783333	1	0.225500
26.800000	1	0.222250
26.816667	1	0.219875
26.833333	1	0.217250
26.850000	1	0.215625
26.866667	1	0.214125
26.883333	1	0.213250
26.900000	1	0.211875
26.916667	1	0.211000
26.933333	1	0.210000
26.950000	1	0.210000
26.966667	1	0.209750
26.983333	1	0.210000
27.000000	1	0.210250
27.016667	1	0.211250
27.033333	1	0.211500
27.050000	1	0.213000
27.066667	1	0.214000
27.083333	1	0.215375
27.100000	1	0.217250
27.116667	1	0.219750
27.133333	1	0.221500
27.150000	1	0.224000
27.166667	1	0.227125
27.183333	1	0.230375
27.200000	1	0.234875
27.216667	1	0.240125
27.233333	1	0.246750
27.250000	1	0.253750
27.266667	1	0.262625
27.283333	1	0.273500
27.300000	1	0.286375
27.316667	1	0.301875
27.333333	1	0.321250
27.350000	1	0.344375
27.366667	1	0.371375
27.383333	1	0.404125
27.400000	1	0.443125
27.416667	1	0.489375
27.433333	1	0.543625
27.450000	1	0.606000
27.466667	1	0.678500
27.483333	1	0.761250
27.500000	1	0.855375
27.516667	1	0.961625
27.533333	1	1.079125
27.550000	1	1.209750
27.566667	1	1.352500
27.583333	1	1.508000
27.600000	1	1.674625
27.616667	1	1.851625
27.633333	1	2.038000
27.650000	1	2.232250
27.666667	1	2.432750
27.683333	1	2.637250
27.700000	1	2.842500
27.716667	1	3.045500
27.733333	1	3.243375
27.750000	1	3.432625
27.766667	1	3.611500
27.783333	1	3.775375
27.800000	1	3.921875
27.816667	1	4.048750
27.833333	1	4.153500
27.850000	1	4.234125
27.866667	1	4.289250
27.883333	1	4.318250
27.900000	1	4.321125
27.916667	1	4.296500
27.933333	1	4.247250
27.950000	1	4.173750
27.966667	1	4.077625
27.983333	1	3.963000
28.000000	1	3.830625
28.016667	1	3.683875
28.033333	1	3.526000
28.050000	1	3.358250
28.066667	1	3.185250
28.083333	1	3.009125
28.100000	1	2.832125
28.116667	1	2.656250
28.133333	1	2.483000
28.150000	1	2.314750
28.166667	1	2.152750
28.183333	1	1.998625
28.200000	1	1.851750
28.216667	1	1.714625
28.233333	1	1.586000
28.250000	1	1.465125
28.266667	1	1.353125
28.283333	1	1.248625
28.300000	1	1.153250
28.316667	1	1.065125
28.333333	1	0.984750
28.350000	1	0.911625
28.366667	1	0.845125
28.383333	1	0.784875
28.400000	1	0.731000
28.416667	1	0.682875
28.433333	1	0.639750
28.450000	1	0.601625
28.466667	1	0.567750
28.483333	1	0.538625
28.500000	1	0.513375
28.516667	1	0.491500
28.533333	1	0.473625
28.550000	1	0.459500
28.566667	1	0.448250
28.583333	1	0.439625
28.600000	1	0.433500
28.616667	1	0.430000
28.633333	1	0.428625
28.650000	1	0.428750
28.666667	1	0.431000
28.683333	1	0.434875
28.700000	1	0.440000
28.716667	1	0.446375
28.733333	1	0.453375
28.750000	1	0.461375
28.766667	1	0.469750
28.783333	1	0.478125
28.800000	1	0.487125
28.816667	1	0.496625
28.833333	1	0.505375
28.850000	1	0.514000
28.866667	1	0.522125
28.883333	1	0.530500
28.900000	1	0.537375
28.916667	1	0.542375
28.933333	1	0.546750
28.950000	1	0.550375
28.966667	1	0.552875
28.983333	1	0.554750
29.000000	1	0.554750
29.016667	1	0.553125
29.033333	1	0.549875
29.050000	1	0.545000
29.066667	1	0.539625
29.083333	1	0.531125
29.100000	1	0.520750
29.116667	1	0.508375
29.133333	1	0.494125
29.150000	1	0.477875
29.166667	1	0.459625
29.183333	1	0.438625
29.200000	1	0.415625
29.216667	1	0.389750
29.233333	1	0.361375
29.250000	1	0.329750
29.266667	1	0.296625
29.283333	1	0.260375
29.300000	1	0.221500
29.316667	1	0.179625
29.333333	1	0.135500
29.350000	1	0.089000
29.366667	1	0.040000
29.383333	1	-0.011125
29.400000	1	-0.064750
29.416667	1	-0.121125
29.433333	1	-0.178375
29.450000	1	-0.237500
29.466667	1	-0.297500
29.483333	1	-0.358250
29.500000	1	-0.419750
29.516667	1	-0.480750
29.533333	1	-0.542250
29.550000	1	-0.601625
29.566667	1	-0.659875
29.583333	1	-0.715625
29.600000	1	-0.768375
29.616667	1	-0.817875
29.633333	1	-0.863250
29.650000	1	-0.905500
29.666667	1	-0.943750
29.683333	1	-0.976875
29.700000	1	-1.005625
29.716667	1	-1.028500
29.733333	1	-1.047250
29.750000	1	-1.059250
29.766667	1	-1.065750
29.783333	1	-1.066750
29.800000	1	-1.062875
29.816667	1	-1.054000
29.833333	1	-1.039875
29.850000	1	-1.021000
29.866667	1	-0.998500
29.883333	1	-0.972000
29.900000	1	-0.941125
29.916667	1	-0.908375
29.933333	1	-0.872875
29.950000	1	-0.835625
29.966667	1	-0.796125
29.983333	1	-0.754625
30.000000	1	-0.712125
30.016667	1	-0.668875
30.033333	1	-0.626125
30.050000	1	-0.583250
30.066667	1	-0.540750
30.083333	1	-0.498750
30.100000	1	-0.458000
30.116667	1	-0.418000
30.133333	1	-0.380125
30.150000	1	-0.343250
30.166667	1	-0.307375
30.183333	1	-0.273125
30.200000	1	-0.241375
30.216667	1	-0.210625
30.233333	1	-0.182750
30.250000	1	-0.155375
30.266667	1	-0.130000
30.283333	1	-0.106125
30.300000	1	-0.085125
30.316667	1	-0.064250
30.333333	1	-0.045375
30.350000	1	-0.027750
30.366667	1	-0.011375
30.383333	1	0.003125
30.400000	1	0.017250
30.416667	1	0.030875
30.433333	1	0.042875
30.450000	1	0.054375
30.466667	1	0.065500
30.483333	1	0.074875
30.500000	1	0.084125
30.516667	1	0.093125
30.533333	1	0.102125
30.550000	1	0.111125
30.566667	1	0.118500
30.583333	1	0.126500
30.600000	1	0.134125
30.616667	1	0.141000
30.633333	1	0.148750
30.650000	1	0.156125
30.666667	1	0.163625
30.683333	1	0.171250
30.700000	1	0.179000
30.716667	1	0.186500
30.733333	1	0.193250
30.750000	1	0.200250
30.766667	1	0.208000
30.783333	1	0.216375
30.800000	1	0.224750
30.816667	1	0.233000
30.833333	1	0.241750
30.850000	1	0.251125
30.866667	1	0.260875
30.883333	1	0.270500
30.900000	1	0.280625
30.916667	1	0.292000
30.933333	1	0.304375
30.950000	1	0.318625
30.966667	1	0.334625
30.983333	1	0.352875
31.000000	1	0.373500
31.016667	1	0.397750
31.033333	1	0.426375
31.050000	1	0.460000
31.066667	1	0.498500
31.083333	1	0.543750
31.100000	1	0.596875
31.116667	1	0.657750
31.133333	1	0.728375
31.150000	1	0.809375
31.166667	1	0.901625
31.183333	1	1.007125
31.200000	1	1.126500
31.216667	1	1.260625
31.233333	1	1.410625
31.250000	1	1.576375
31.266667	1	1.758250
31.283333	1	1.955625
31.300000	1	2.169500
31.316667	1	2.398375
31.333333	1	2.640875
31.350000	1	2.896625
31.366667	1	3.162375
31.383333	1	3.438500
31.400000	1	3.721000
31.416667	1	4.007125
31.433333	1	4.294625
31.450000	1	4.578875
31.466667	1	4.856875
31.483333	1	5.124500
31.500000	1	5.378625
31.516667	1	5.616500
31.533333	1	5.833875
31.550000	1	6.029250
31.566667	1	6.199250
31.583333	1	6.342500
31.600000	1	6.456000
31.616667	1	6.540625
31.633333	1	6.594250
31.650000	1	6.616750
31.666667	1	6.609875
31.683333	1	6.572750
31.700000	1	6.506625
31.716667	1	6.415125
31.733333	1	6.298125
31.750000	1	6.159250
31.766667	1	6.000625
31.783333	1	5.824250
31.800000	1	5.633500
31.816667	1	5.429875
31.833333	1	5.217000
31.850000	1	4.996500
31.866667	1	4.770750
31.883333	1	4.543000
31.900000	1	4.315375
31.916667	1	4.088625
31.933333	1	3.865750
31.950000	1	3.646375
31.966667	1	3.433375
31.983333	1	3.225250
32.000000	1	3.024125
32.016667	1	2.830875
32.033333	1	2.645125
32.050000	1	2.467875
32.066667	1	2.299375
32.083333	1	2.138750
32.100000	1	1.987125
32.116667	1	1.843750
32.133333	1	1.709625
32.150000	1	1.582375
32.166667	1	1.462500
32.183333	1	1.349125
32.200000	1	1.242875
32.216667	1	1.143000
32.233333	1	1.049375
32.250000	1	0.962000
32.266667	1	0.880625
32.283333	1	0.805250
32.300000	1	0.734375
32.316667	1	0.668750
32.333333	1	0.608000
32.350000	1	0.551250
32.366667	1	0.497875
32.383333	1	0.448875
32.400000	1	0.404625
32.416667	1	0.361875
32.433333	1	0.323500
32.450000	1	0.288250
32.466667	1	0.255250
32.483333	1	0.225750
32.500000	1	0.198250
32.516667	1	0.173125
32.533333	1	0.149875
32.550000	1	0.129125
32.566667	1	0.110500
32.583333	1	0.093125
32.600000	1	0.078000
32.616667	1	0.063750
32.633333	1	0.051250
32.650000	1	0.039625
32.666667	1	0.029750
32.683333	1	0.020875
32.700000	1	0.012875
32.716667	1	0.006375
32.733333	1	0.000875
32.750000	1	-0.003875
32.766667	1	-0.007750
32.783333	1	-0.012000
32.800000	1	-0.015000
32.816667	1	-0.017375
32.833333	1	-0.018875
32.850000	1	-0.020875
32.866667	1	-0.022625
32.883333	1	-0.023500
32.900000	1	-0.024000
32.916667	1	-0.024500
32.933333	1	-0.025000
32.950000	1	-0.024875
32.966667	1	-0.025125
32.983333	1	-0.024875
33.000000	1	-0.025000
33.016667	1	-0.024750
33.033333	1	-0.024500
33.050000	1	-0.024000
33.066667	1	-0.023375
33.083333	1	-0.023750
33.100000	1	-0.023250
33.116667	1	-0.023750
33.133333	1	-0.023875
33.150000	1	-0.023125
33.166667	1	-0.022625
33.183333	1	-0.022750
33.200000	1	-0.022500
33.216667	1	-0.022250
33.233333	1	-0.021875
33.250000	1	-0.021375
33.266667	1	-0.020625
33.283333	1	-0.020125
33.300000	1	-0.018750
33.316667	1	-0.018750
33.333333	1	-0.018125
33.350000	1	-0.016875
33.366667	1	-0.015125
33.383333	1	-0.013375
33.400000	1	-0.011750
33.416667	1	-0.010125
33.433333	1	-0.007875
33.450000	1	-0.006500
33.466667	1	-0.004125
33.483333	1	-0.002375
33.500000	1	0.000000
33.516667	1	0.001875
33.533333	1	0.004625
33.550000	1	0.008000
33.566667	1	0.011125
33.583333	1	0.014000
33.600000	1	0.016875
33.616667	1	0.019750
33.633333	1	0.022875
33.650000	1	0.026375
33.666667	1	0.028750
33.683333	1	0.032875
33.700000	1	0.036250
33.716667	1	0.039625
33.733333	1	0.043125
33.750000	1	0.047125
33.766667	1	0.051000
33.783333	1	0.055500
33.800000	1	0.059375
33.816667	1	0.063875
33.833333	1	0.068125
33.850000	1	0.072875
33.866667	1	0.076625
33.883333	1	0.080125
33.900000	1	0.084250
33.916667	1	0.088500
33.933333	1	0.092625
33.950000	1	0.096250
33.966667	1	0.100250
33.983333	1	0.103125
34.000000	1	0.106250
34.016667	1	0.109500
34.033333	1	0.112375
34.050000	1	0.114500
34.066667	1	0.116125
34.083333	1	0.116750
34.100000	1	0.118000
34.116667	1	0.119250
34.133333	1	0.120250
34.150000	1	0.120000
34.166667	1	0.120125
34.183333	1	0.119375
34.200000	1	0.119000
34.216667	1	0.118125
34.233333	1	0.117500
34.250000	1	0.117750
34.266667	1	0.116625
34.283333	1	0.115000
34.300000	1	0.113500
34.316667	1	0.113000
34.333333	1	0.111500
34.350000	1	0.110375
34.366667	1	0.110125
34.383333	1	0.109750
34.400000	1	0.108875
34.416667	1	0.109125
34.433333	1	0.109500
34.450000	1	0.109625
34.466667	1	0.109375
34.483333	1	0.109500
34.500000	1	0.109625
34.516667	1	0.110250
34.533333	1	0.111375
34.550000	1	0.112875
34.566667	1	0.114000
34.583333	1	0.115750
34.600000	1	0.117375
34.616667	1	0.118875
34.633333	1	0.120500
34.650000	1	0.121375
34.666667	1	0.122375
34.683333	1	0.123125
34.700000	1	0.124375
34.716667	1	0.124875
34.733333	1	0.124875
34.750000	1	0.125250
34.766667	1	0.125875
34.783333	1	0.125875
34.800000	1	0.125750
34.816667	1	0.125375
34.833333	1	0.125125
34.850000	1	0.124250
34.866667	1	0.123125
34.883333	1	0.121125
34.900000	1	0.119750
34.916667	1	0.117500
34.933333	1	0.115875
34.950000	1	0.113125
34.966667	1	0.110250
34.983333	1	0.107000
35.000000	1	0.103750
35.016667	1	0.100625
35.033333	1	0.097375
35.050000	1	0.094500
35.066667	1	0.091250
35.083333	1	0.088000
35.100000	1	0.083625
35.116667	1	0.080500
35.133333	1	0.076625
35.150000	1	0.073750
35.166667	1	0.070625
35.183333	1	0.067625
35.200000	1	0.064875
35.216667	1	0.062875
35.233333	1	0.060250
35.250000	1	0.058875
35.266667	1	0.057750
35.283333	1	0.056500
35.300000	1	0.055625
35.316667	1	0.054750
35.333333	1	0.054750
35.350000	1	0.054625
35.366667	1	0.055375
35.383333	1	0.056000
35.400000	1	0.056625
35.416667	1	0.058000
35.433333	1	0.059375
35.450000	1	0.060875
35.466667	1	0.062750
35.483333	1	0.064875
35.500000	1	0.066750
35.516667	1	0.068750
35.533333	1	0.070625
35.550000	1	0.072875
35.566667	1	0.075500
35.583333	1	0.077375
35.600000	1	0.079125
35.616667	1	0.081500
35.633333	1	0.083250
35.650000	1	0.084625
35.666667	1	0.086375
35.683333	1	0.088375
35.700000	1	0.090000
35.716667	1	0.091125
35.733333	1	0.092625
35.750000	1	0.094375
35.766667	1	0.095250
35.783333	1	0.096250
35.800000	1	0.096875
35.816667	1	0.097625
35.833333	1	0.097125
35.850000	1	0.097125
35.866667	1	0.096875
35.883333	1	0.097000
35.900000	1	0.096625
35.916667	1	0.096625
35.933333	1	0.096000
35.950000	1	0.095000
35.966667	1	0.094000
35.983333	1	0.093375
36.000000	1	0.092875
36.016667	1	0.092125
36.033333	1	0.091000
36.050000	1	0.088500
36.066667	1	0.087000
36.083333	1	0.085500
36.100000	1	0.084625
36.116667	1	0.082625
36.133333	1	0.081125
36.150000	1	0.080125
36.166667	1	0.079125
36.183333	1	0.077875
36.200000	1	0.076625
36.216667	1	0.075500
36.233333	1	0.075125
36.250000	1	0.073250
36.266667	1	0.072375
36.283333	1	0.071625
36.300000	1	0.071000
36.316667	1	0.070125
36.333333	1	0.070250
36.350000	1	0.070000
36.366667	1	0.069875
36.383333	1	0.069750
36.400000	1	0.070125
36.416667	1	0.070250
36.433333	1	0.070250
36.450000	1	0.070375
36.466667	1	0.070125
36.483333	1	0.070250
36.500000	1	0.070125
36.516667	1	0.070875
36.533333	1	0.069750
36.550000	1	0.069625
36.566667	1	0.069750
36.583333	1	0.069875
36.600000	1	0.069125
36.616667	1	0.068125
36.633333	1	0.067500
36.650000	1	0.067125
36.666667	1	0.066000
36.683333	1	0.065500
36.700000	1	0.065125
36.716667	1	0.064000
36.733333	1	0.063125
36.750000	1	0.061375
36.766667	1	0.060250
36.783333	1	0.058625
36.800000	1	0.057250
36.816667	1	0.055875
36.833333	1	0.054625
36.850000	1	0.053375
36.866667	1	0.052375
36.883333	1	0.051125
36.900000	1	0.050000
36.916667	1	0.049625
36.933333	1	0.048750
36.950000	1	0.047875
36.966667	1	0.047125
36.983333	1	0.046875
37.000000	1	0.046500
37.016667	1	0.046250
37.033333	1	0.045875
37.050000	1	0.045625
37.066667	1	0.046125
37.083333	1	0.046750
37.100000	1	0.046875
37.116667	1	0.047375
37.133333	1	0.047875
37.150000	1	0.048625
37.166667	1	0.049250
37.183333	1	0.050625
37.200000	1	0.051750
37.216667	1	0.052875
37.233333	1	0.053250
37.250000	1	0.054875
37.266667	1	0.056125
37.283333	1	0.057500
37.300000	1	0.059000
37.316667	1	0.060000
37.333333	1	0.060500
37.350000	1	0.061375
37.366667	1	0.062500
37.383333	1	0.063375
37.400000	1	0.064250
37.416667	1	0.064125
37.433333	1	0.064500
37.450000	1	0.064625
37.466667	1	0.065250
37.483333	1	0.065875
37.500000	1	0.065750
37.516667	1	0.066250
37.533333	1	0.066500
37.550000	1	0.066500
37.566667	1	0.066375
37.583333	1	0.066500
37.600000	1	0.066625
37.616667	1	0.066750
37.633333	1	0.067000
37.650000	1	0.067250
37.666667	1	0.068125
37.683333	1	0.068375
37.700000	1	0.068875
37.716667	1	0.070000
37.733333	1	0.070000
37.750000	1	0.070250
37.766667	1	0.069750
37.783333	1	0.070000
37.800000	1	0.069375
37.816667	1	0.069250
37.833333	1	0.069125
37.850000	1	0.069000
37.866667	1	0.068875
37.883333	1	0.068625
37.900000	1	0.067125
37.916667	1	0.066375
37.933333	1	0.065500
37.950000	1	0.064500
37.966667	1	0.063750
37.983333	1	0.062250
38.000000	1	0.060875
38.016667	1	0.059875
38.033333	1	0.058250
38.050000	1	0.056625
38.066667	1	0.055000
38.083333	1	0.053875
38.100000	1	0.051375
38.116667	1	0.049375
38.133333	1	0.048250
38.150000	1	0.046125
38.166667	1	0.043875
38.183333	1	0.041750
38.200000	1	0.039875
38.216667	1	0.038000
38.233333	1	0.035875
38.250000	1	0.034375
38.266667	1	0.032875
38.283333	1	0.031875
38.300000	1	0.030750
38.316667	1	0.029625
38.333333	1	0.029125
38.350000	1	0.028000
38.366667	1	0.027250
38.383333	1	0.026125
38.400000	1	0.026125
38.416667	1	0.025875
38.433333	1	0.025625
38.450000	1	0.025500
38.466667	1	0.025750
38.483333	1	0.026375
38.500000	1	0.026250
38.516667	1	0.027000
38.533333	1	0.027000
38.550000	1	0.027875
38.566667	1	0.028625
38.583333	1	0.029500
38.600000	1	0.030875
38.616667	1	0.031625
38.633333	1	0.032000
38.650000	1	0.033000
38.666667	1	0.033500
38.683333	1	0.034125
38.700000	1	0.034875
38.716667	1	0.035750
38.733333	1	0.035875
38.750000	1	0.036125
38.766667	1	0.035625
38.783333	1	0.036125
38.800000	1	0.036750
38.816667	1	0.036875
38.833333	1	0.036750
38.850000	1	0.036250
38.866667	1	0.036500
38.883333	1	0.036250
38.900000	1	0.036125
38.916667	1	0.035625
38.933333	1	0.035875
38.950000	1	0.035375
38.966667	1	0.034750
38.983333	1	0.033875
39.000000	1	0.033250
39.016667	1	0.032750
39.033333	1	0.032125
39.050000	1	0.031125
39.066667	1	0.031000
39.083333	1	0.030625
39.100000	1	0.029375
39.116667	1	0.029000
39.133333	1	0.028375
39.150000	1	0.027375
39.166667	1	0.027000
39.183333	1	0.026375
39.200000	1	0.025625
39.216667	1	0.026000
39.233333	1	0.025750
39.250000	1	0.024875
39.266667	1	0.024125
39.283333	1	0.024375
39.300000	1	0.024000
39.316667	1	0.024000
39.333333	1	0.024000
39.350000	1	0.023500
39.366667	1	0.022500
39.383333	1	0.023000
39.400000	1	0.022625
39.416667	1	0.022875
39.433333	1	0.022500
39.450000	1	0.022625
39.466667	1	0.022000
39.483333	1	0.022250
39.500000	1	0.021500
39.516667	1	0.021000
39.533333	1	0.020750
39.550000	1	0.019375
39.566667	1	0.018750
39.583333	1	0.017625
39.600000	1	0.016250
39.616667	1	0.015125
39.633333	1	0.014250
39.650000	1	0.012375
39.666667	1	0.010500
39.683333	1	0.009125
39.700000	1	0.007375
39.716667	1	0.005125
39.733333	1	0.003250
39.750000	1	0.001500
39.766667	1	-0.000250
39.783333	1	-0.003000
39.800000	1	-0.004750
39.816667	1	-0.007500
39.833333	1	-0.009000
39.850000	1	-0.011000
39.866667	1	-0.013250
39.883333	1	-0.015125
39.900000	1	-0.016750
39.916667	1	-0.018500
39.933333	1	-0.020125
39.950000	1	-0.021750
39.966667	1	-0.023125
39.983333	1	-0.024250
40.000000	1	-0.025125
