URL	chrom://7040-86g6c92/XVault/Ultimate_3000/20/20240517_CMO_FP23_FP25_MarkusDeplate.seq/717.smp/RI_1.channel/RI_1.chm
Channel	RI_1

Injection Information:
Data Vault	XVault
Sequence	20240517_CMO_FP23_FP25_MarkusDeplate
Name	FP23_24_s4
Number	28
Position	BC4
Comment	
Processing Method	
Instrument Method	run_25B_method
Type	Unknown
Status	Finished
Inject Time	28.05.2024 12:28:31 +02:00
Volume (µl)	20.0000
Dilution Factor	1.0000
Weight	1.0000

Chromatogram Data Information:
Time Min. (min)	0.000000
Time Max. (min)	40.000000
Data Points	2401
Detector	RI
Generating Data System	Chromeleon 7.3.2.11814
Exporting Data System	Chromeleon 7.3.2.0
Operator	Instrument Controller
Signal Quantity	Refractive 
Signal Unit	µRIU
Signal Min.	-1.060875
Signal Max.	60.491750
Channel	RI_1
Driver Name	RID520Driver.dll
Channel Type	Evaluation
Min. Step (s)	1
Max. Step (s)	1
Average Step (s)	1

Signal Parameter Information:
Signal Info	

Chromatogram Data:
Time (min)	Step (s)	Value (µRIU)
0.000000	n.a.	0.030125
0.016667	1	0.029000
0.033333	1	0.028000
0.050000	1	0.028250
0.066667	1	0.027750
0.083333	1	0.027000
0.100000	1	0.026500
0.116667	1	0.026250
0.133333	1	0.025250
0.150000	1	0.024500
0.166667	1	0.023500
0.183333	1	0.023375
0.200000	1	0.022875
0.216667	1	0.022125
0.233333	1	0.021125
0.250000	1	0.020125
0.266667	1	0.019000
0.283333	1	0.017875
0.300000	1	0.017000
0.316667	1	0.016250
0.333333	1	0.015625
0.350000	1	0.014875
0.366667	1	0.013750
0.383333	1	0.012250
0.400000	1	0.011250
0.416667	1	0.011000
0.433333	1	0.012500
0.450000	1	0.014750
0.466667	1	0.017500
0.483333	1	0.020250
0.500000	1	0.021375
0.516667	1	0.022875
0.533333	1	0.024250
0.550000	1	0.025125
0.566667	1	0.025625
0.583333	1	0.026000
0.600000	1	0.025750
0.616667	1	0.025500
0.633333	1	0.026125
0.650000	1	0.026500
0.666667	1	0.028000
0.683333	1	0.028875
0.700000	1	0.031625
0.716667	1	0.033625
0.733333	1	0.035125
0.750000	1	0.036750
0.766667	1	0.038250
0.783333	1	0.039125
0.800000	1	0.040500
0.816667	1	0.041750
0.833333	1	0.043250
0.850000	1	0.044250
0.866667	1	0.044500
0.883333	1	0.044750
0.900000	1	0.044500
0.916667	1	0.044000
0.933333	1	0.043500
0.950000	1	0.042250
0.966667	1	0.041125
0.983333	1	0.039625
1.000000	1	0.038000
1.016667	1	0.036750
1.033333	1	0.034250
1.050000	1	0.032375
1.066667	1	0.030625
1.083333	1	0.028125
1.100000	1	0.026250
1.116667	1	0.023500
1.133333	1	0.021375
1.150000	1	0.019125
1.166667	1	0.015750
1.183333	1	0.013375
1.200000	1	0.010875
1.216667	1	0.009000
1.233333	1	0.007500
1.250000	1	0.006000
1.266667	1	0.004250
1.283333	1	0.002875
1.300000	1	0.002250
1.316667	1	0.001375
1.333333	1	0.000375
1.350000	1	-0.000125
1.366667	1	0.000125
1.383333	1	0.000125
1.400000	1	0.001250
1.416667	1	0.001250
1.433333	1	0.002375
1.450000	1	0.003500
1.466667	1	0.004500
1.483333	1	0.006375
1.500000	1	0.007500
1.516667	1	0.008500
1.533333	1	0.009500
1.550000	1	0.011500
1.566667	1	0.013875
1.583333	1	0.015875
1.600000	1	0.017000
1.616667	1	0.018125
1.633333	1	0.019375
1.650000	1	0.021250
1.666667	1	0.022625
1.683333	1	0.023375
1.700000	1	0.024125
1.716667	1	0.024500
1.733333	1	0.025000
1.750000	1	0.025250
1.766667	1	0.025750
1.783333	1	0.025625
1.800000	1	0.026000
1.816667	1	0.024875
1.833333	1	0.024750
1.850000	1	0.023625
1.866667	1	0.022875
1.883333	1	0.021875
1.900000	1	0.020125
1.916667	1	0.018500
1.933333	1	0.017375
1.950000	1	0.016125
1.966667	1	0.014375
1.983333	1	0.012750
2.000000	1	0.010750
2.016667	1	0.009500
2.033333	1	0.008000
2.050000	1	0.007375
2.066667	1	0.006250
2.083333	1	0.005000
2.100000	1	0.003625
2.116667	1	0.002875
2.133333	1	0.002125
2.150000	1	0.000875
2.166667	1	0.000500
2.183333	1	0.000000
2.200000	1	-0.000125
2.216667	1	-0.000125
2.233333	1	0.000125
2.250000	1	0.000875
2.266667	1	0.001750
2.283333	1	0.002375
2.300000	1	0.002500
2.316667	1	0.003625
2.333333	1	0.004500
2.350000	1	0.004750
2.366667	1	0.005500
2.383333	1	0.006625
2.400000	1	0.008125
2.416667	1	0.009000
2.433333	1	0.010000
2.450000	1	0.011000
2.466667	1	0.012000
2.483333	1	0.012250
2.500000	1	0.014125
2.516667	1	0.015375
2.533333	1	0.015750
2.550000	1	0.016625
2.566667	1	0.017875
2.583333	1	0.019125
2.600000	1	0.020375
2.616667	1	0.021625
2.633333	1	0.022625
2.650000	1	0.023375
2.666667	1	0.024375
2.683333	1	0.025000
2.700000	1	0.026000
2.716667	1	0.026625
2.733333	1	0.028125
2.750000	1	0.028750
2.766667	1	0.029875
2.783333	1	0.030750
2.800000	1	0.031875
2.816667	1	0.032500
2.833333	1	0.033500
2.850000	1	0.034125
2.866667	1	0.034375
2.883333	1	0.034750
2.900000	1	0.035125
2.916667	1	0.035375
2.933333	1	0.036375
2.950000	1	0.037500
2.966667	1	0.038125
2.983333	1	0.038500
3.000000	1	0.039375
3.016667	1	0.039625
3.033333	1	0.039500
3.050000	1	0.040000
3.066667	1	0.040875
3.083333	1	0.041125
3.100000	1	0.040750
3.116667	1	0.041000
3.133333	1	0.041000
3.150000	1	0.041000
3.166667	1	0.041875
3.183333	1	0.042250
3.200000	1	0.042500
3.216667	1	0.042625
3.233333	1	0.042750
3.250000	1	0.043500
3.266667	1	0.043500
3.283333	1	0.044125
3.300000	1	0.044000
3.316667	1	0.043500
3.333333	1	0.043125
3.350000	1	0.042750
3.366667	1	0.042000
3.383333	1	0.041375
3.400000	1	0.041000
3.416667	1	0.040000
3.433333	1	0.038250
3.450000	1	0.037125
3.466667	1	0.035000
3.483333	1	0.033125
3.500000	1	0.031125
3.516667	1	0.029250
3.533333	1	0.027375
3.550000	1	0.024750
3.566667	1	0.022625
3.583333	1	0.019750
3.600000	1	0.017500
3.616667	1	0.014375
3.633333	1	0.012250
3.650000	1	0.010125
3.666667	1	0.007000
3.683333	1	0.005375
3.700000	1	0.003000
3.716667	1	0.000875
3.733333	1	-0.001500
3.750000	1	-0.003250
3.766667	1	-0.004875
3.783333	1	-0.005875
3.800000	1	-0.006750
3.816667	1	-0.007875
3.833333	1	-0.008125
3.850000	1	-0.008125
3.866667	1	-0.008000
3.883333	1	-0.007500
3.900000	1	-0.007250
3.916667	1	-0.006625
3.933333	1	-0.005875
3.950000	1	-0.004875
3.966667	1	-0.004000
3.983333	1	-0.002500
4.000000	1	-0.000750
4.016667	1	0.000500
4.033333	1	0.002625
4.050000	1	0.005000
4.066667	1	0.007625
4.083333	1	0.009625
4.100000	1	0.012250
4.116667	1	0.015000
4.133333	1	0.018125
4.150000	1	0.020875
4.166667	1	0.024375
4.183333	1	0.028000
4.200000	1	0.030625
4.216667	1	0.034125
4.233333	1	0.037625
4.250000	1	0.040750
4.266667	1	0.044625
4.283333	1	0.048125
4.300000	1	0.051250
4.316667	1	0.054875
4.333333	1	0.057375
4.350000	1	0.060250
4.366667	1	0.063375
4.383333	1	0.066750
4.400000	1	0.069750
4.416667	1	0.073250
4.433333	1	0.075875
4.450000	1	0.078000
4.466667	1	0.080000
4.483333	1	0.082625
4.500000	1	0.085000
4.516667	1	0.087250
4.533333	1	0.089125
4.550000	1	0.091500
4.566667	1	0.093625
4.583333	1	0.095375
4.600000	1	0.097500
4.616667	1	0.099250
4.633333	1	0.099750
4.650000	1	0.100375
4.666667	1	0.101000
4.683333	1	0.101625
4.700000	1	0.102750
4.716667	1	0.102875
4.733333	1	0.103250
4.750000	1	0.103250
4.766667	1	0.103625
4.783333	1	0.103250
4.800000	1	0.103375
4.816667	1	0.103500
4.833333	1	0.103500
4.850000	1	0.103375
4.866667	1	0.102250
4.883333	1	0.101750
4.900000	1	0.101500
4.916667	1	0.101500
4.933333	1	0.101625
4.950000	1	0.102000
4.966667	1	0.102125
4.983333	1	0.101750
5.000000	1	0.101125
5.016667	1	0.101750
5.033333	1	0.101750
5.050000	1	0.101875
5.066667	1	0.102500
5.083333	1	0.102875
5.100000	1	0.102500
5.116667	1	0.102500
5.133333	1	0.102250
5.150000	1	0.103000
5.166667	1	0.103375
5.183333	1	0.104000
5.200000	1	0.104625
5.216667	1	0.105250
5.233333	1	0.106750
5.250000	1	0.108625
5.266667	1	0.109500
5.283333	1	0.110625
5.300000	1	0.111125
5.316667	1	0.112500
5.333333	1	0.114125
5.350000	1	0.116000
5.366667	1	0.117750
5.383333	1	0.119625
5.400000	1	0.122500
5.416667	1	0.124750
5.433333	1	0.128375
5.450000	1	0.130875
5.466667	1	0.133375
5.483333	1	0.136125
5.500000	1	0.139625
5.516667	1	0.142625
5.533333	1	0.145750
5.550000	1	0.148875
5.566667	1	0.152500
5.583333	1	0.156250
5.600000	1	0.160125
5.616667	1	0.163500
5.633333	1	0.166125
5.650000	1	0.170250
5.666667	1	0.172875
5.683333	1	0.175750
5.700000	1	0.179000
5.716667	1	0.181500
5.733333	1	0.184250
5.750000	1	0.187000
5.766667	1	0.189250
5.783333	1	0.192125
5.800000	1	0.193875
5.816667	1	0.196250
5.833333	1	0.198625
5.850000	1	0.200250
5.866667	1	0.201375
5.883333	1	0.202750
5.900000	1	0.203625
5.916667	1	0.203750
5.933333	1	0.204375
5.950000	1	0.205125
5.966667	1	0.205875
5.983333	1	0.205875
6.000000	1	0.206750
6.016667	1	0.206750
6.033333	1	0.206500
6.050000	1	0.206000
6.066667	1	0.205625
6.083333	1	0.205500
6.100000	1	0.205375
6.116667	1	0.205000
6.133333	1	0.204625
6.150000	1	0.203875
6.166667	1	0.203000
6.183333	1	0.202000
6.200000	1	0.201750
6.216667	1	0.201000
6.233333	1	0.199875
6.250000	1	0.199000
6.266667	1	0.197875
6.283333	1	0.196375
6.300000	1	0.194375
6.316667	1	0.192375
6.333333	1	0.190625
6.350000	1	0.188000
6.366667	1	0.186125
6.383333	1	0.184625
6.400000	1	0.182000
6.416667	1	0.179875
6.433333	1	0.177000
6.450000	1	0.174500
6.466667	1	0.171125
6.483333	1	0.168125
6.500000	1	0.164750
6.516667	1	0.161125
6.533333	1	0.157625
6.550000	1	0.155000
6.566667	1	0.151500
6.583333	1	0.148375
6.600000	1	0.145000
6.616667	1	0.141875
6.633333	1	0.138250
6.650000	1	0.135375
6.666667	1	0.132250
6.683333	1	0.128750
6.700000	1	0.125375
6.716667	1	0.123125
6.733333	1	0.120000
6.750000	1	0.117875
6.766667	1	0.116375
6.783333	1	0.114750
6.800000	1	0.113125
6.816667	1	0.111250
6.833333	1	0.110125
6.850000	1	0.108500
6.866667	1	0.108375
6.883333	1	0.107000
6.900000	1	0.106750
6.916667	1	0.106125
6.933333	1	0.106000
6.950000	1	0.105000
6.966667	1	0.104875
6.983333	1	0.105375
7.000000	1	0.105750
7.016667	1	0.106000
7.033333	1	0.105750
7.050000	1	0.105625
7.066667	1	0.105625
7.083333	1	0.106125
7.100000	1	0.106750
7.116667	1	0.106875
7.133333	1	0.107125
7.150000	1	0.107375
7.166667	1	0.107125
7.183333	1	0.107750
7.200000	1	0.108875
7.216667	1	0.109125
7.233333	1	0.109750
7.250000	1	0.109875
7.266667	1	0.110125
7.283333	1	0.111000
7.300000	1	0.111375
7.316667	1	0.112375
7.333333	1	0.112875
7.350000	1	0.113875
7.366667	1	0.115250
7.383333	1	0.116375
7.400000	1	0.118000
7.416667	1	0.119625
7.433333	1	0.120750
7.450000	1	0.122125
7.466667	1	0.123875
7.483333	1	0.126000
7.500000	1	0.126625
7.516667	1	0.129000
7.533333	1	0.131250
7.550000	1	0.132875
7.566667	1	0.135250
7.583333	1	0.136375
7.600000	1	0.138250
7.616667	1	0.139875
7.633333	1	0.141250
7.650000	1	0.142500
7.666667	1	0.143750
7.683333	1	0.144750
7.700000	1	0.145375
7.716667	1	0.146625
7.733333	1	0.147625
7.750000	1	0.147875
7.766667	1	0.148000
7.783333	1	0.148250
7.800000	1	0.149000
7.816667	1	0.149125
7.833333	1	0.148375
7.850000	1	0.147375
7.866667	1	0.146125
7.883333	1	0.144625
7.900000	1	0.142875
7.916667	1	0.140750
7.933333	1	0.137750
7.950000	1	0.135375
7.966667	1	0.132875
7.983333	1	0.130625
8.000000	1	0.126875
8.016667	1	0.122875
8.033333	1	0.118625
8.050000	1	0.115750
8.066667	1	0.112625
8.083333	1	0.108375
8.100000	1	0.104250
8.116667	1	0.100625
8.133333	1	0.095750
8.150000	1	0.091000
8.166667	1	0.087250
8.183333	1	0.083000
8.200000	1	0.078750
8.216667	1	0.074125
8.233333	1	0.069875
8.250000	1	0.065000
8.266667	1	0.060500
8.283333	1	0.055875
8.300000	1	0.052625
8.316667	1	0.048125
8.333333	1	0.044375
8.350000	1	0.040625
8.366667	1	0.037250
8.383333	1	0.034125
8.400000	1	0.030625
8.416667	1	0.026625
8.433333	1	0.023750
8.450000	1	0.021625
8.466667	1	0.020125
8.483333	1	0.018625
8.500000	1	0.016000
8.516667	1	0.014000
8.533333	1	0.012250
8.550000	1	0.010750
8.566667	1	0.009000
8.583333	1	0.008250
8.600000	1	0.007125
8.616667	1	0.005625
8.633333	1	0.004625
8.650000	1	0.004000
8.666667	1	0.003125
8.683333	1	0.002875
8.700000	1	0.002625
8.716667	1	0.002375
8.733333	1	0.002000
8.750000	1	0.001750
8.766667	1	0.001625
8.783333	1	0.001750
8.800000	1	0.002250
8.816667	1	0.002500
8.833333	1	0.003000
8.850000	1	0.003125
8.866667	1	0.003750
8.883333	1	0.004750
8.900000	1	0.005375
8.916667	1	0.005625
8.933333	1	0.007000
8.950000	1	0.008375
8.966667	1	0.009125
8.983333	1	0.009750
9.000000	1	0.010500
9.016667	1	0.011875
9.033333	1	0.013500
9.050000	1	0.014500
9.066667	1	0.015625
9.083333	1	0.016250
9.100000	1	0.018000
9.116667	1	0.019000
9.133333	1	0.019875
9.150000	1	0.021125
9.166667	1	0.022500
9.183333	1	0.023500
9.200000	1	0.023750
9.216667	1	0.024375
9.233333	1	0.025125
9.250000	1	0.025500
9.266667	1	0.025875
9.283333	1	0.026750
9.300000	1	0.027250
9.316667	1	0.028000
9.333333	1	0.028250
9.350000	1	0.028125
9.366667	1	0.028125
9.383333	1	0.028250
9.400000	1	0.028000
9.416667	1	0.027750
9.433333	1	0.027250
9.450000	1	0.027625
9.466667	1	0.028125
9.483333	1	0.027625
9.500000	1	0.027000
9.516667	1	0.026375
9.533333	1	0.025250
9.550000	1	0.024250
9.566667	1	0.023625
9.583333	1	0.022625
9.600000	1	0.021750
9.616667	1	0.020500
9.633333	1	0.019500
9.650000	1	0.018375
9.666667	1	0.017250
9.683333	1	0.016250
9.700000	1	0.014875
9.716667	1	0.013750
9.733333	1	0.012375
9.750000	1	0.011125
9.766667	1	0.008875
9.783333	1	0.007250
9.800000	1	0.006250
9.816667	1	0.004375
9.833333	1	0.002250
9.850000	1	0.000375
9.866667	1	-0.001125
9.883333	1	-0.003000
9.900000	1	-0.005125
9.916667	1	-0.006250
9.933333	1	-0.007875
9.950000	1	-0.009750
9.966667	1	-0.010375
9.983333	1	-0.010500
10.000000	1	-0.010875
10.016667	1	-0.011000
10.033333	1	-0.010375
10.050000	1	-0.008250
10.066667	1	-0.005250
10.083333	1	-0.002000
10.100000	1	0.001500
10.116667	1	0.006625
10.133333	1	0.012375
10.150000	1	0.019750
10.166667	1	0.027250
10.183333	1	0.035750
10.200000	1	0.044625
10.216667	1	0.055625
10.233333	1	0.068625
10.250000	1	0.083625
10.266667	1	0.100500
10.283333	1	0.120000
10.300000	1	0.142000
10.316667	1	0.166625
10.333333	1	0.193625
10.350000	1	0.224000
10.366667	1	0.259375
10.383333	1	0.299000
10.400000	1	0.341625
10.416667	1	0.385000
10.433333	1	0.421500
10.450000	1	0.440875
10.466667	1	0.429875
10.483333	1	0.381250
10.500000	1	0.300375
10.516667	1	0.216625
10.533333	1	0.189625
10.550000	1	0.302000
10.566667	1	0.652750
10.583333	1	1.344375
10.600000	1	2.470250
10.616667	1	4.104375
10.633333	1	6.298750
10.650000	1	9.078500
10.666667	1	12.455750
10.683333	1	16.414000
10.700000	1	20.907875
10.716667	1	25.854125
10.733333	1	31.112125
10.750000	1	36.470875
10.766667	1	41.628375
10.783333	1	46.199250
10.800000	1	49.735750
10.816667	1	51.811500
10.833333	1	52.135250
10.850000	1	50.668000
10.866667	1	47.630125
10.883333	1	43.449750
10.900000	1	38.628250
10.916667	1	33.626625
10.933333	1	28.789750
10.950000	1	24.336250
10.966667	1	20.383500
10.983333	1	16.967625
11.000000	1	14.079250
11.016667	1	11.681500
11.033333	1	9.721000
11.050000	1	8.134125
11.066667	1	6.857875
11.083333	1	5.834375
11.100000	1	5.012750
11.116667	1	4.350125
11.133333	1	3.814125
11.150000	1	3.376375
11.166667	1	3.017750
11.183333	1	2.719750
11.200000	1	2.471500
11.216667	1	2.263000
11.233333	1	2.086125
11.250000	1	1.934750
11.266667	1	1.805375
11.283333	1	1.692625
11.300000	1	1.595125
11.316667	1	1.509375
11.333333	1	1.434750
11.350000	1	1.369375
11.366667	1	1.311500
11.383333	1	1.260250
11.400000	1	1.214375
11.416667	1	1.174125
11.433333	1	1.137625
11.450000	1	1.105625
11.466667	1	1.076875
11.483333	1	1.051250
11.500000	1	1.027625
11.516667	1	1.006500
11.533333	1	0.987625
11.550000	1	0.970750
11.566667	1	0.955875
11.583333	1	0.942750
11.600000	1	0.931875
11.616667	1	0.922750
11.633333	1	0.916125
11.650000	1	0.911125
11.666667	1	0.908625
11.683333	1	0.907500
11.700000	1	0.908250
11.716667	1	0.912000
11.733333	1	0.916625
11.750000	1	0.923250
11.766667	1	0.930875
11.783333	1	0.938875
11.800000	1	0.947625
11.816667	1	0.956375
11.833333	1	0.965000
11.850000	1	0.973750
11.866667	1	0.981125
11.883333	1	0.988625
11.900000	1	0.995125
11.916667	1	1.001125
11.933333	1	1.007125
11.950000	1	1.011625
11.966667	1	1.016500
11.983333	1	1.021250
12.000000	1	1.027125
12.016667	1	1.032375
12.033333	1	1.038250
12.050000	1	1.043875
12.066667	1	1.049625
12.083333	1	1.056750
12.100000	1	1.063500
12.116667	1	1.071250
12.133333	1	1.078250
12.150000	1	1.086500
12.166667	1	1.095875
12.183333	1	1.105375
12.200000	1	1.116875
12.216667	1	1.129125
12.233333	1	1.142500
12.250000	1	1.158250
12.266667	1	1.174750
12.283333	1	1.193625
12.300000	1	1.214375
12.316667	1	1.237500
12.333333	1	1.264500
12.350000	1	1.296875
12.366667	1	1.338375
12.383333	1	1.392875
12.400000	1	1.465750
12.416667	1	1.563125
12.433333	1	1.693625
12.450000	1	1.864250
12.466667	1	2.085000
12.483333	1	2.362750
12.500000	1	2.702625
12.516667	1	3.107000
12.533333	1	3.574500
12.550000	1	4.099875
12.566667	1	4.674000
12.583333	1	5.284750
12.600000	1	5.916875
12.616667	1	6.554875
12.633333	1	7.183375
12.650000	1	7.793125
12.666667	1	8.375500
12.683333	1	8.926875
12.700000	1	9.447000
12.716667	1	9.940750
12.733333	1	10.414750
12.750000	1	10.877625
12.766667	1	11.338375
12.783333	1	11.805000
12.800000	1	12.285500
12.816667	1	12.783875
12.833333	1	13.300625
12.850000	1	13.824000
12.866667	1	14.317000
12.883333	1	14.703625
12.900000	1	14.872625
12.916667	1	14.708750
12.933333	1	14.144250
12.950000	1	13.192750
12.966667	1	11.951500
12.983333	1	10.561875
13.000000	1	9.161125
13.016667	1	7.849875
13.033333	1	6.681250
13.050000	1	5.672375
13.066667	1	4.823000
13.083333	1	4.119375
13.100000	1	3.544625
13.116667	1	3.081125
13.133333	1	2.711000
13.150000	1	2.417250
13.166667	1	2.186375
13.183333	1	2.003500
13.200000	1	1.857625
13.216667	1	1.742250
13.233333	1	1.648875
13.250000	1	1.572875
13.266667	1	1.508875
13.283333	1	1.454875
13.300000	1	1.407875
13.316667	1	1.366375
13.333333	1	1.329250
13.350000	1	1.295500
13.366667	1	1.264500
13.383333	1	1.237750
13.400000	1	1.213500
13.416667	1	1.192250
13.433333	1	1.173250
13.450000	1	1.156750
13.466667	1	1.142000
13.483333	1	1.130250
13.500000	1	1.121375
13.516667	1	1.114500
13.533333	1	1.108750
13.550000	1	1.104250
13.566667	1	1.099625
13.583333	1	1.095000
13.600000	1	1.089875
13.616667	1	1.083250
13.633333	1	1.074375
13.650000	1	1.062500
13.666667	1	1.048000
13.683333	1	1.031625
13.700000	1	1.014000
13.716667	1	0.994625
13.733333	1	0.974875
13.750000	1	0.954000
13.766667	1	0.933375
13.783333	1	0.912625
13.800000	1	0.893000
13.816667	1	0.873125
13.833333	1	0.854125
13.850000	1	0.835875
13.866667	1	0.819000
13.883333	1	0.802375
13.900000	1	0.787625
13.916667	1	0.772875
13.933333	1	0.759375
13.950000	1	0.746250
13.966667	1	0.734000
13.983333	1	0.722625
14.000000	1	0.712000
14.016667	1	0.701625
14.033333	1	0.692000
14.050000	1	0.682375
14.066667	1	0.674250
14.083333	1	0.666125
14.100000	1	0.659125
14.116667	1	0.653000
14.133333	1	0.647250
14.150000	1	0.641875
14.166667	1	0.637500
14.183333	1	0.634125
14.200000	1	0.631250
14.216667	1	0.629500
14.233333	1	0.628750
14.250000	1	0.628250
14.266667	1	0.629250
14.283333	1	0.630875
14.300000	1	0.633625
14.316667	1	0.637375
14.333333	1	0.642875
14.350000	1	0.649750
14.366667	1	0.657750
14.383333	1	0.668375
14.400000	1	0.680125
14.416667	1	0.695250
14.433333	1	0.715000
14.450000	1	0.742500
14.466667	1	0.784000
14.483333	1	0.847500
14.500000	1	0.946000
14.516667	1	1.099875
14.533333	1	1.337500
14.550000	1	1.695000
14.566667	1	2.220750
14.583333	1	2.972875
14.600000	1	4.021125
14.616667	1	5.442000
14.633333	1	7.314125
14.650000	1	9.708500
14.666667	1	12.678375
14.683333	1	16.246125
14.700000	1	20.395875
14.716667	1	25.058875
14.733333	1	30.122250
14.750000	1	35.418000
14.766667	1	40.736375
14.783333	1	45.836250
14.800000	1	50.477125
14.816667	1	54.431250
14.833333	1	57.502375
14.850000	1	59.548250
14.866667	1	60.491750
14.883333	1	60.328750
14.900000	1	59.123750
14.916667	1	57.002375
14.933333	1	54.129375
14.950000	1	50.696125
14.966667	1	46.892375
14.983333	1	42.901625
15.000000	1	38.875375
15.016667	1	34.938750
15.033333	1	31.183375
15.050000	1	27.672125
15.066667	1	24.443750
15.083333	1	21.514875
15.100000	1	18.886500
15.116667	1	16.545875
15.133333	1	14.473250
15.150000	1	12.645875
15.166667	1	11.040375
15.183333	1	9.633875
15.200000	1	8.403875
15.216667	1	7.331000
15.233333	1	6.397000
15.250000	1	5.587375
15.266667	1	4.889250
15.283333	1	4.290875
15.300000	1	3.782250
15.316667	1	3.354250
15.333333	1	2.998625
15.350000	1	2.705875
15.366667	1	2.468125
15.383333	1	2.277875
15.400000	1	2.127250
15.416667	1	2.008625
15.433333	1	1.916000
15.450000	1	1.842375
15.466667	1	1.781875
15.483333	1	1.729250
15.500000	1	1.682000
15.516667	1	1.636375
15.533333	1	1.589750
15.550000	1	1.542750
15.566667	1	1.494125
15.583333	1	1.445250
15.600000	1	1.395875
15.616667	1	1.347625
15.633333	1	1.301000
15.650000	1	1.256375
15.666667	1	1.214375
15.683333	1	1.174625
15.700000	1	1.138500
15.716667	1	1.103625
15.733333	1	1.071375
15.750000	1	1.040125
15.766667	1	1.010750
15.783333	1	0.983125
15.800000	1	0.956875
15.816667	1	0.930875
15.833333	1	0.906875
15.850000	1	0.885250
15.866667	1	0.864500
15.883333	1	0.845375
15.900000	1	0.828250
15.916667	1	0.814375
15.933333	1	0.803125
15.950000	1	0.793250
15.966667	1	0.786375
15.983333	1	0.781625
16.000000	1	0.778375
16.016667	1	0.776750
16.033333	1	0.777125
16.050000	1	0.778625
16.066667	1	0.781500
16.083333	1	0.785750
16.100000	1	0.789625
16.116667	1	0.793875
16.133333	1	0.797625
16.150000	1	0.801250
16.166667	1	0.804750
16.183333	1	0.808000
16.200000	1	0.810375
16.216667	1	0.812500
16.233333	1	0.813125
16.250000	1	0.813375
16.266667	1	0.812875
16.283333	1	0.811625
16.300000	1	0.810250
16.316667	1	0.809750
16.333333	1	0.808500
16.350000	1	0.808625
16.366667	1	0.809500
16.383333	1	0.812000
16.400000	1	0.816500
16.416667	1	0.821750
16.433333	1	0.829625
16.450000	1	0.837625
16.466667	1	0.846500
16.483333	1	0.855250
16.500000	1	0.864875
16.516667	1	0.872625
16.533333	1	0.880000
16.550000	1	0.885375
16.566667	1	0.888875
16.583333	1	0.890625
16.600000	1	0.891125
16.616667	1	0.889125
16.633333	1	0.887000
16.650000	1	0.883875
16.666667	1	0.881000
16.683333	1	0.877875
16.700000	1	0.875750
16.716667	1	0.874500
16.733333	1	0.876750
16.750000	1	0.879375
16.766667	1	0.883625
16.783333	1	0.889500
16.800000	1	0.896250
16.816667	1	0.903875
16.833333	1	0.911125
16.850000	1	0.918125
16.866667	1	0.924500
16.883333	1	0.929000
16.900000	1	0.931625
16.916667	1	0.933125
16.933333	1	0.932125
16.950000	1	0.930250
16.966667	1	0.926250
16.983333	1	0.921375
17.000000	1	0.915250
17.016667	1	0.909250
17.033333	1	0.902625
17.050000	1	0.896375
17.066667	1	0.890875
17.083333	1	0.885875
17.100000	1	0.881750
17.116667	1	0.878125
17.133333	1	0.876000
17.150000	1	0.875000
17.166667	1	0.875000
17.183333	1	0.876125
17.200000	1	0.877375
17.216667	1	0.878875
17.233333	1	0.881750
17.250000	1	0.884250
17.266667	1	0.888000
17.283333	1	0.891625
17.300000	1	0.896125
17.316667	1	0.900750
17.333333	1	0.905000
17.350000	1	0.910875
17.366667	1	0.916500
17.383333	1	0.921375
17.400000	1	0.925500
17.416667	1	0.929625
17.433333	1	0.932625
17.450000	1	0.934625
17.466667	1	0.935375
17.483333	1	0.934125
17.500000	1	0.931750
17.516667	1	0.928500
17.533333	1	0.923125
17.550000	1	0.916125
17.566667	1	0.907625
17.583333	1	0.898000
17.600000	1	0.887625
17.616667	1	0.876500
17.633333	1	0.863750
17.650000	1	0.850625
17.666667	1	0.837000
17.683333	1	0.823375
17.700000	1	0.810000
17.716667	1	0.796625
17.733333	1	0.783000
17.750000	1	0.770125
17.766667	1	0.758250
17.783333	1	0.746875
17.800000	1	0.736250
17.816667	1	0.727375
17.833333	1	0.719000
17.850000	1	0.712000
17.866667	1	0.706375
17.883333	1	0.701125
17.900000	1	0.696750
17.916667	1	0.692125
17.933333	1	0.687875
17.950000	1	0.683375
17.966667	1	0.679875
17.983333	1	0.676750
18.000000	1	0.673750
18.016667	1	0.670750
18.033333	1	0.667750
18.050000	1	0.664375
18.066667	1	0.660500
18.083333	1	0.658125
18.100000	1	0.656250
18.116667	1	0.654875
18.133333	1	0.654000
18.150000	1	0.653500
18.166667	1	0.653625
18.183333	1	0.654500
18.200000	1	0.655625
18.216667	1	0.657750
18.233333	1	0.659875
18.250000	1	0.661125
18.266667	1	0.663000
18.283333	1	0.665000
18.300000	1	0.666125
18.316667	1	0.667375
18.333333	1	0.668250
18.350000	1	0.670625
18.366667	1	0.672875
18.383333	1	0.675500
18.400000	1	0.678250
18.416667	1	0.683000
18.433333	1	0.689125
18.450000	1	0.696750
18.466667	1	0.706000
18.483333	1	0.717375
18.500000	1	0.730375
18.516667	1	0.745875
18.533333	1	0.764000
18.550000	1	0.783500
18.566667	1	0.804875
18.583333	1	0.827750
18.600000	1	0.853875
18.616667	1	0.881000
18.633333	1	0.909500
18.650000	1	0.940000
18.666667	1	0.971375
18.683333	1	1.004250
18.700000	1	1.038000
18.716667	1	1.072500
18.733333	1	1.107375
18.750000	1	1.142500
18.766667	1	1.177000
18.783333	1	1.210625
18.800000	1	1.243125
18.816667	1	1.272750
18.833333	1	1.299250
18.850000	1	1.321250
18.866667	1	1.339125
18.883333	1	1.352000
18.900000	1	1.358625
18.916667	1	1.359125
18.933333	1	1.353500
18.950000	1	1.341000
18.966667	1	1.322500
18.983333	1	1.297875
19.000000	1	1.267250
19.016667	1	1.232750
19.033333	1	1.193250
19.050000	1	1.150875
19.066667	1	1.106750
19.083333	1	1.062250
19.100000	1	1.017250
19.116667	1	0.975250
19.133333	1	0.936500
19.150000	1	0.902125
19.166667	1	0.873875
19.183333	1	0.852500
19.200000	1	0.839375
19.216667	1	0.836500
19.233333	1	0.844750
19.250000	1	0.866125
19.266667	1	0.901875
19.283333	1	0.951500
19.300000	1	1.016500
19.316667	1	1.096625
19.333333	1	1.190625
19.350000	1	1.297500
19.366667	1	1.415375
19.383333	1	1.541125
19.400000	1	1.671375
19.416667	1	1.802250
19.433333	1	1.930000
19.450000	1	2.049625
19.466667	1	2.158750
19.483333	1	2.252375
19.500000	1	2.328750
19.516667	1	2.385125
19.533333	1	2.422000
19.550000	1	2.438250
19.566667	1	2.434875
19.583333	1	2.411875
19.600000	1	2.371875
19.616667	1	2.317750
19.633333	1	2.250625
19.650000	1	2.175000
19.666667	1	2.092000
19.683333	1	2.004750
19.700000	1	1.914125
19.716667	1	1.822625
19.733333	1	1.731750
19.750000	1	1.642625
19.766667	1	1.555875
19.783333	1	1.471750
19.800000	1	1.390750
19.816667	1	1.313250
19.833333	1	1.239375
19.850000	1	1.169625
19.866667	1	1.103875
19.883333	1	1.041750
19.900000	1	0.984625
19.916667	1	0.931250
19.933333	1	0.882750
19.950000	1	0.838500
19.966667	1	0.798125
19.983333	1	0.763625
20.000000	1	0.734875
20.016667	1	0.711125
20.033333	1	0.692375
20.050000	1	0.680375
20.066667	1	0.673875
20.083333	1	0.672500
20.100000	1	0.678500
20.116667	1	0.689375
20.133333	1	0.705000
20.150000	1	0.726125
20.166667	1	0.750625
20.183333	1	0.777250
20.200000	1	0.805125
20.216667	1	0.833625
20.233333	1	0.860250
20.250000	1	0.884000
20.266667	1	0.903750
20.283333	1	0.918750
20.300000	1	0.928125
20.316667	1	0.931250
20.333333	1	0.927625
20.350000	1	0.918500
20.366667	1	0.902875
20.383333	1	0.882750
20.400000	1	0.857375
20.416667	1	0.828625
20.433333	1	0.797000
20.450000	1	0.764625
20.466667	1	0.732500
20.483333	1	0.700750
20.500000	1	0.671125
20.516667	1	0.644750
20.533333	1	0.622125
20.550000	1	0.604125
20.566667	1	0.591875
20.583333	1	0.586375
20.600000	1	0.588750
20.616667	1	0.598750
20.633333	1	0.617875
20.650000	1	0.646375
20.666667	1	0.684250
20.683333	1	0.731625
20.700000	1	0.787500
20.716667	1	0.851375
20.733333	1	0.922750
20.750000	1	0.999375
20.766667	1	1.079375
20.783333	1	1.160500
20.800000	1	1.239875
20.816667	1	1.314375
20.833333	1	1.382625
20.850000	1	1.441500
20.866667	1	1.489625
20.883333	1	1.524750
20.900000	1	1.546625
20.916667	1	1.553875
20.933333	1	1.547750
20.950000	1	1.528750
20.966667	1	1.498125
20.983333	1	1.458500
21.000000	1	1.410000
21.016667	1	1.354625
21.033333	1	1.294625
21.050000	1	1.233125
21.066667	1	1.169375
21.083333	1	1.107250
21.100000	1	1.046250
21.116667	1	0.988250
21.133333	1	0.932625
21.150000	1	0.879875
21.166667	1	0.830875
21.183333	1	0.785875
21.200000	1	0.744750
21.216667	1	0.707000
21.233333	1	0.671875
21.250000	1	0.640375
21.266667	1	0.611875
21.283333	1	0.586000
21.300000	1	0.562000
21.316667	1	0.539875
21.333333	1	0.520125
21.350000	1	0.501125
21.366667	1	0.484500
21.383333	1	0.469250
21.400000	1	0.455750
21.416667	1	0.442625
21.433333	1	0.429875
21.450000	1	0.418375
21.466667	1	0.408125
21.483333	1	0.399000
21.500000	1	0.390875
21.516667	1	0.382625
21.533333	1	0.375625
21.550000	1	0.369750
21.566667	1	0.365125
21.583333	1	0.361625
21.600000	1	0.358875
21.616667	1	0.358625
21.633333	1	0.358500
21.650000	1	0.359875
21.666667	1	0.362750
21.683333	1	0.367875
21.700000	1	0.374375
21.716667	1	0.383000
21.733333	1	0.392000
21.750000	1	0.402875
21.766667	1	0.414750
21.783333	1	0.427750
21.800000	1	0.441125
21.816667	1	0.455875
21.833333	1	0.469875
21.850000	1	0.484000
21.866667	1	0.497625
21.883333	1	0.510375
21.900000	1	0.522250
21.916667	1	0.533125
21.933333	1	0.543125
21.950000	1	0.551625
21.966667	1	0.558625
21.983333	1	0.563875
22.000000	1	0.568250
22.016667	1	0.570625
22.033333	1	0.572375
22.050000	1	0.572625
22.066667	1	0.572375
22.083333	1	0.570375
22.100000	1	0.568250
22.116667	1	0.564750
22.133333	1	0.560750
22.150000	1	0.555000
22.166667	1	0.548125
22.183333	1	0.541125
22.200000	1	0.532875
22.216667	1	0.523750
22.233333	1	0.513125
22.250000	1	0.501875
22.266667	1	0.489875
22.283333	1	0.476875
22.300000	1	0.463625
22.316667	1	0.449750
22.333333	1	0.435125
22.350000	1	0.419875
22.366667	1	0.405750
22.383333	1	0.391375
22.400000	1	0.377375
22.416667	1	0.363625
22.433333	1	0.350750
22.450000	1	0.338375
22.466667	1	0.326625
22.483333	1	0.316625
22.500000	1	0.306750
22.516667	1	0.298500
22.533333	1	0.290500
22.550000	1	0.284125
22.566667	1	0.277750
22.583333	1	0.272375
22.600000	1	0.268125
22.616667	1	0.264375
22.633333	1	0.261000
22.650000	1	0.257750
22.666667	1	0.255250
22.683333	1	0.254000
22.700000	1	0.252125
22.716667	1	0.251375
22.733333	1	0.250750
22.750000	1	0.250250
22.766667	1	0.250000
22.783333	1	0.249750
22.800000	1	0.249875
22.816667	1	0.250000
22.833333	1	0.251125
22.850000	1	0.251125
22.866667	1	0.251875
22.883333	1	0.252750
22.900000	1	0.254125
22.916667	1	0.256125
22.933333	1	0.258250
22.950000	1	0.260000
22.966667	1	0.262000
22.983333	1	0.264375
23.000000	1	0.266375
23.016667	1	0.268875
23.033333	1	0.270875
23.050000	1	0.273375
23.066667	1	0.276000
23.083333	1	0.279250
23.100000	1	0.281500
23.116667	1	0.284250
23.133333	1	0.286250
23.150000	1	0.288250
23.166667	1	0.289875
23.183333	1	0.291250
23.200000	1	0.292875
23.216667	1	0.293875
23.233333	1	0.295000
23.250000	1	0.296250
23.266667	1	0.297750
23.283333	1	0.300250
23.300000	1	0.304250
23.316667	1	0.309125
23.333333	1	0.315875
23.350000	1	0.325750
23.366667	1	0.338625
23.383333	1	0.357875
23.400000	1	0.383500
23.416667	1	0.417500
23.433333	1	0.462875
23.450000	1	0.519750
23.466667	1	0.592750
23.483333	1	0.683375
23.500000	1	0.796000
23.516667	1	0.932500
23.533333	1	1.095375
23.550000	1	1.287625
23.566667	1	1.510750
23.583333	1	1.765500
23.600000	1	2.052250
23.616667	1	2.370000
23.633333	1	2.714875
23.650000	1	3.084875
23.666667	1	3.474625
23.683333	1	3.877625
23.700000	1	4.287625
23.716667	1	4.694500
23.733333	1	5.091250
23.750000	1	5.468000
23.766667	1	5.815750
23.783333	1	6.126500
23.800000	1	6.391875
23.816667	1	6.607250
23.833333	1	6.766625
23.850000	1	6.868625
23.866667	1	6.913000
23.883333	1	6.900500
23.900000	1	6.832125
23.916667	1	6.713125
23.933333	1	6.548625
23.950000	1	6.344125
23.966667	1	6.105375
23.983333	1	5.840375
24.000000	1	5.555875
24.016667	1	5.258000
24.033333	1	4.952750
24.050000	1	4.646125
24.066667	1	4.342000
24.083333	1	4.043875
24.100000	1	3.754375
24.116667	1	3.476500
24.133333	1	3.211125
24.150000	1	2.959000
24.166667	1	2.723375
24.183333	1	2.502375
24.200000	1	2.296875
24.216667	1	2.105250
24.233333	1	1.927375
24.250000	1	1.763625
24.266667	1	1.613000
24.283333	1	1.474500
24.300000	1	1.347500
24.316667	1	1.231250
24.333333	1	1.125750
24.350000	1	1.029875
24.366667	1	0.943250
24.383333	1	0.865000
24.400000	1	0.795125
24.416667	1	0.733250
24.433333	1	0.678000
24.450000	1	0.629125
24.466667	1	0.585750
24.483333	1	0.547750
24.500000	1	0.515125
24.516667	1	0.486750
24.533333	1	0.462250
24.550000	1	0.441250
24.566667	1	0.422875
24.583333	1	0.406375
24.600000	1	0.392125
24.616667	1	0.380000
24.633333	1	0.368250
24.650000	1	0.358625
24.666667	1	0.350250
24.683333	1	0.341500
24.700000	1	0.334000
24.716667	1	0.327125
24.733333	1	0.320375
24.750000	1	0.313500
24.766667	1	0.308125
24.783333	1	0.301750
24.800000	1	0.296375
24.816667	1	0.290750
24.833333	1	0.286625
24.850000	1	0.282500
24.866667	1	0.279125
24.883333	1	0.275625
24.900000	1	0.273375
24.916667	1	0.270250
24.933333	1	0.267375
24.950000	1	0.266250
24.966667	1	0.264625
24.983333	1	0.263125
25.000000	1	0.262000
25.016667	1	0.260750
25.033333	1	0.260375
25.050000	1	0.259500
25.066667	1	0.259125
25.083333	1	0.259000
25.100000	1	0.258250
25.116667	1	0.258250
25.133333	1	0.257250
25.150000	1	0.256625
25.166667	1	0.255750
25.183333	1	0.254750
25.200000	1	0.253125
25.216667	1	0.252500
25.233333	1	0.251750
25.250000	1	0.250375
25.266667	1	0.248750
25.283333	1	0.247375
25.300000	1	0.246375
25.316667	1	0.244875
25.333333	1	0.243000
25.350000	1	0.241625
25.366667	1	0.240500
25.383333	1	0.239625
25.400000	1	0.238250
25.416667	1	0.237500
25.433333	1	0.237625
25.450000	1	0.237000
25.466667	1	0.237375
25.483333	1	0.237375
25.500000	1	0.238375
25.516667	1	0.240125
25.533333	1	0.241500
25.550000	1	0.242375
25.566667	1	0.244375
25.583333	1	0.245875
25.600000	1	0.248000
25.616667	1	0.249250
25.633333	1	0.251125
25.650000	1	0.253000
25.666667	1	0.254625
25.683333	1	0.256500
25.700000	1	0.258250
25.716667	1	0.259375
25.733333	1	0.261000
25.750000	1	0.261375
25.766667	1	0.261500
25.783333	1	0.261125
25.800000	1	0.260750
25.816667	1	0.260375
25.833333	1	0.259375
25.850000	1	0.259000
25.866667	1	0.258000
25.883333	1	0.257000
25.900000	1	0.255750
25.916667	1	0.254125
25.933333	1	0.253000
25.950000	1	0.252375
25.966667	1	0.251750
25.983333	1	0.251250
26.000000	1	0.250875
26.016667	1	0.251375
26.033333	1	0.251625
26.050000	1	0.253125
26.066667	1	0.254375
26.083333	1	0.256500
26.100000	1	0.260000
26.116667	1	0.263250
26.133333	1	0.266375
26.150000	1	0.271000
26.166667	1	0.275875
26.183333	1	0.280250
26.200000	1	0.285375
26.216667	1	0.290375
26.233333	1	0.295250
26.250000	1	0.300750
26.266667	1	0.306375
26.283333	1	0.311625
26.300000	1	0.316875
26.316667	1	0.322250
26.333333	1	0.327125
26.350000	1	0.331375
26.366667	1	0.334375
26.383333	1	0.337125
26.400000	1	0.339625
26.416667	1	0.341500
26.433333	1	0.342750
26.450000	1	0.342750
26.466667	1	0.343125
26.483333	1	0.342375
26.500000	1	0.341375
26.516667	1	0.339500
26.533333	1	0.337000
26.550000	1	0.333875
26.566667	1	0.330625
26.583333	1	0.327500
26.600000	1	0.323750
26.616667	1	0.319750
26.633333	1	0.315125
26.650000	1	0.310500
26.666667	1	0.305875
26.683333	1	0.301750
26.700000	1	0.297375
26.716667	1	0.292750
26.733333	1	0.289125
26.750000	1	0.284625
26.766667	1	0.280625
26.783333	1	0.276875
26.800000	1	0.273750
26.816667	1	0.270375
26.833333	1	0.267875
26.850000	1	0.265375
26.866667	1	0.263625
26.883333	1	0.261750
26.900000	1	0.260250
26.916667	1	0.258250
26.933333	1	0.257875
26.950000	1	0.257125
26.966667	1	0.256250
26.983333	1	0.256000
27.000000	1	0.255750
27.016667	1	0.255875
27.033333	1	0.255500
27.050000	1	0.255750
27.066667	1	0.256375
27.083333	1	0.257500
27.100000	1	0.258625
27.116667	1	0.259375
27.133333	1	0.259875
27.150000	1	0.260875
27.166667	1	0.262500
27.183333	1	0.263750
27.200000	1	0.266125
27.216667	1	0.270125
27.233333	1	0.274125
27.250000	1	0.279125
27.266667	1	0.286125
27.283333	1	0.294875
27.300000	1	0.306000
27.316667	1	0.319625
27.333333	1	0.336625
27.350000	1	0.358125
27.366667	1	0.383875
27.383333	1	0.414500
27.400000	1	0.451500
27.416667	1	0.496000
27.433333	1	0.549250
27.450000	1	0.610500
27.466667	1	0.681000
27.483333	1	0.763000
27.500000	1	0.856500
27.516667	1	0.961375
27.533333	1	1.078000
27.550000	1	1.207000
27.566667	1	1.348250
27.583333	1	1.500500
27.600000	1	1.664250
27.616667	1	1.838125
27.633333	1	2.020875
27.650000	1	2.209875
27.666667	1	2.404500
27.683333	1	2.601625
27.700000	1	2.799250
27.716667	1	2.993250
27.733333	1	3.181875
27.750000	1	3.361000
27.766667	1	3.528375
27.783333	1	3.680000
27.800000	1	3.813750
27.816667	1	3.928250
27.833333	1	4.020625
27.850000	1	4.089125
27.866667	1	4.132500
27.883333	1	4.151125
27.900000	1	4.143375
27.916667	1	4.110875
27.933333	1	4.053375
27.950000	1	3.974750
27.966667	1	3.875375
27.983333	1	3.758375
28.000000	1	3.626375
28.016667	1	3.481500
28.033333	1	3.326375
28.050000	1	3.163750
28.066667	1	2.996875
28.083333	1	2.827000
28.100000	1	2.657750
28.116667	1	2.490750
28.133333	1	2.328250
28.150000	1	2.170500
28.166667	1	2.019375
28.183333	1	1.875000
28.200000	1	1.738375
28.216667	1	1.610375
28.233333	1	1.490875
28.250000	1	1.379000
28.266667	1	1.275250
28.283333	1	1.179375
28.300000	1	1.091625
28.316667	1	1.011625
28.333333	1	0.938000
28.350000	1	0.871750
28.366667	1	0.811125
28.383333	1	0.756625
28.400000	1	0.707125
28.416667	1	0.664000
28.433333	1	0.624875
28.450000	1	0.590250
28.466667	1	0.560125
28.483333	1	0.534000
28.500000	1	0.511750
28.516667	1	0.492375
28.533333	1	0.476875
28.550000	1	0.464125
28.566667	1	0.454000
28.583333	1	0.445875
28.600000	1	0.440250
28.616667	1	0.437500
28.633333	1	0.436625
28.650000	1	0.437125
28.666667	1	0.439250
28.683333	1	0.442625
28.700000	1	0.446500
28.716667	1	0.451750
28.733333	1	0.457500
28.750000	1	0.464375
28.766667	1	0.470625
28.783333	1	0.477125
28.800000	1	0.484375
28.816667	1	0.490750
28.833333	1	0.497500
28.850000	1	0.504625
28.866667	1	0.510250
28.883333	1	0.515125
28.900000	1	0.519375
28.916667	1	0.523375
28.933333	1	0.525875
28.950000	1	0.527000
28.966667	1	0.527125
28.983333	1	0.526750
29.000000	1	0.524375
29.016667	1	0.520875
29.033333	1	0.515500
29.050000	1	0.508750
29.066667	1	0.500500
29.083333	1	0.490250
29.100000	1	0.477750
29.116667	1	0.463875
29.133333	1	0.448000
29.150000	1	0.429875
29.166667	1	0.409250
29.183333	1	0.386875
29.200000	1	0.361625
29.216667	1	0.334375
29.233333	1	0.305375
29.250000	1	0.273250
29.266667	1	0.238375
29.283333	1	0.201250
29.300000	1	0.160875
29.316667	1	0.118875
29.333333	1	0.073750
29.350000	1	0.026125
29.366667	1	-0.023625
29.383333	1	-0.075750
29.400000	1	-0.129625
29.416667	1	-0.185000
29.433333	1	-0.242500
29.450000	1	-0.301375
29.466667	1	-0.360625
29.483333	1	-0.420625
29.500000	1	-0.480125
29.516667	1	-0.538750
29.533333	1	-0.597000
29.550000	1	-0.654500
29.566667	1	-0.709125
29.583333	1	-0.761250
29.600000	1	-0.810625
29.616667	1	-0.857875
29.633333	1	-0.899500
29.650000	1	-0.937250
29.666667	1	-0.969875
29.683333	1	-0.998375
29.700000	1	-1.021500
29.716667	1	-1.040250
29.733333	1	-1.052250
29.750000	1	-1.059000
29.766667	1	-1.060875
29.783333	1	-1.057000
29.800000	1	-1.047500
29.816667	1	-1.034000
29.833333	1	-1.015375
29.850000	1	-0.992500
29.866667	1	-0.966000
29.883333	1	-0.935500
29.900000	1	-0.901875
29.916667	1	-0.865875
29.933333	1	-0.828125
29.950000	1	-0.787875
29.966667	1	-0.745875
29.983333	1	-0.703875
30.000000	1	-0.660875
30.016667	1	-0.617125
30.033333	1	-0.573750
30.050000	1	-0.531000
30.066667	1	-0.489375
30.083333	1	-0.448125
30.100000	1	-0.408125
30.116667	1	-0.369750
30.133333	1	-0.333000
30.150000	1	-0.297000
30.166667	1	-0.263750
30.183333	1	-0.231625
30.200000	1	-0.201375
30.216667	1	-0.173125
30.233333	1	-0.145625
30.250000	1	-0.120625
30.266667	1	-0.098375
30.283333	1	-0.077375
30.300000	1	-0.057500
30.316667	1	-0.039500
30.333333	1	-0.022750
30.350000	1	-0.007625
30.366667	1	0.005625
30.383333	1	0.017750
30.400000	1	0.029250
30.416667	1	0.039500
30.433333	1	0.048625
30.450000	1	0.057250
30.466667	1	0.065500
30.483333	1	0.072500
30.500000	1	0.078875
30.516667	1	0.085625
30.533333	1	0.091375
30.550000	1	0.097125
30.566667	1	0.102000
30.583333	1	0.107875
30.600000	1	0.112875
30.616667	1	0.117875
30.633333	1	0.123375
30.650000	1	0.129375
30.666667	1	0.134750
30.683333	1	0.140750
30.700000	1	0.146500
30.716667	1	0.153375
30.733333	1	0.159000
30.750000	1	0.165750
30.766667	1	0.173250
30.783333	1	0.181000
30.800000	1	0.189000
30.816667	1	0.198000
30.833333	1	0.207125
30.850000	1	0.217000
30.866667	1	0.227375
30.883333	1	0.237750
30.900000	1	0.249500
30.916667	1	0.262500
30.933333	1	0.276375
30.950000	1	0.292125
30.966667	1	0.310875
30.983333	1	0.331625
31.000000	1	0.354500
31.016667	1	0.381000
31.033333	1	0.412000
31.050000	1	0.448750
31.066667	1	0.491625
31.083333	1	0.540500
31.100000	1	0.597250
31.116667	1	0.662750
31.133333	1	0.738500
31.150000	1	0.825250
31.166667	1	0.923125
31.183333	1	1.034250
31.200000	1	1.159750
31.216667	1	1.299250
31.233333	1	1.454750
31.250000	1	1.625875
31.266667	1	1.812750
31.283333	1	2.015500
31.300000	1	2.233375
31.316667	1	2.465375
31.333333	1	2.710000
31.350000	1	2.967250
31.366667	1	3.232625
31.383333	1	3.506750
31.400000	1	3.785375
31.416667	1	4.066250
31.433333	1	4.345750
31.450000	1	4.620500
31.466667	1	4.887750
31.483333	1	5.142375
31.500000	1	5.381875
31.516667	1	5.603250
31.533333	1	5.803125
31.550000	1	5.979625
31.566667	1	6.130375
31.583333	1	6.252875
31.600000	1	6.347250
31.616667	1	6.411625
31.633333	1	6.445875
31.650000	1	6.449375
31.666667	1	6.423750
31.683333	1	6.370375
31.700000	1	6.289750
31.716667	1	6.183750
31.733333	1	6.056000
31.750000	1	5.907000
31.766667	1	5.740625
31.783333	1	5.558125
31.800000	1	5.362125
31.816667	1	5.155875
31.833333	1	4.941875
31.850000	1	4.721625
31.866667	1	4.498875
31.883333	1	4.274250
31.900000	1	4.050875
31.916667	1	3.830125
31.933333	1	3.613625
31.950000	1	3.401500
31.966667	1	3.195875
31.983333	1	2.997375
32.000000	1	2.805625
32.016667	1	2.621000
32.033333	1	2.444250
32.050000	1	2.276250
32.066667	1	2.116625
32.083333	1	1.966750
32.100000	1	1.824375
32.116667	1	1.690250
32.133333	1	1.563875
32.150000	1	1.445250
32.166667	1	1.334125
32.183333	1	1.228375
32.200000	1	1.129875
32.216667	1	1.037875
32.233333	1	0.951750
32.250000	1	0.871375
32.266667	1	0.796375
32.283333	1	0.726500
32.300000	1	0.661750
32.316667	1	0.601250
32.333333	1	0.545875
32.350000	1	0.494500
32.366667	1	0.446000
32.383333	1	0.401500
32.400000	1	0.360375
32.416667	1	0.322250
32.433333	1	0.287125
32.450000	1	0.254750
32.466667	1	0.224875
32.483333	1	0.197375
32.500000	1	0.172000
32.516667	1	0.149625
32.533333	1	0.129625
32.550000	1	0.111125
32.566667	1	0.094125
32.583333	1	0.077500
32.600000	1	0.063750
32.616667	1	0.051125
32.633333	1	0.039875
32.650000	1	0.030000
32.666667	1	0.021250
32.683333	1	0.013125
32.700000	1	0.005875
32.716667	1	-0.000375
32.733333	1	-0.005750
32.750000	1	-0.010250
32.766667	1	-0.014625
32.783333	1	-0.017500
32.800000	1	-0.020125
32.816667	1	-0.022750
32.833333	1	-0.024875
32.850000	1	-0.026500
32.866667	1	-0.028625
32.883333	1	-0.029625
32.900000	1	-0.030500
32.916667	1	-0.030875
32.933333	1	-0.031875
32.950000	1	-0.032750
32.966667	1	-0.033375
32.983333	1	-0.034125
33.000000	1	-0.034250
33.016667	1	-0.035000
33.033333	1	-0.035000
33.050000	1	-0.035375
33.066667	1	-0.036125
33.083333	1	-0.036500
33.100000	1	-0.036625
33.116667	1	-0.036500
33.133333	1	-0.036875
33.150000	1	-0.037125
33.166667	1	-0.036625
33.183333	1	-0.036375
33.200000	1	-0.036375
33.216667	1	-0.036000
33.233333	1	-0.035500
33.250000	1	-0.035125
33.266667	1	-0.035625
33.283333	1	-0.035500
33.300000	1	-0.035500
33.316667	1	-0.034750
33.333333	1	-0.034125
33.350000	1	-0.033875
33.366667	1	-0.032750
33.383333	1	-0.032125
33.400000	1	-0.031250
33.416667	1	-0.030375
33.433333	1	-0.030125
33.450000	1	-0.029000
33.466667	1	-0.027500
33.483333	1	-0.025250
33.500000	1	-0.024125
33.516667	1	-0.022625
33.533333	1	-0.021375
33.550000	1	-0.019750
33.566667	1	-0.016875
33.583333	1	-0.013750
33.600000	1	-0.011250
33.616667	1	-0.008375
33.633333	1	-0.004750
33.650000	1	-0.001375
33.666667	1	0.002375
33.683333	1	0.005375
33.700000	1	0.008875
33.716667	1	0.013875
33.733333	1	0.019000
33.750000	1	0.023375
33.766667	1	0.028000
33.783333	1	0.032750
33.800000	1	0.037875
33.816667	1	0.042625
33.833333	1	0.048250
33.850000	1	0.053125
33.866667	1	0.058500
33.883333	1	0.063000
33.900000	1	0.068125
33.916667	1	0.072375
33.933333	1	0.078000
33.950000	1	0.082750
33.966667	1	0.086500
33.983333	1	0.090125
34.000000	1	0.094000
34.016667	1	0.097125
34.033333	1	0.100000
34.050000	1	0.103125
34.066667	1	0.105000
34.083333	1	0.106750
34.100000	1	0.108250
34.116667	1	0.110125
34.133333	1	0.111375
34.150000	1	0.112750
34.166667	1	0.113500
34.183333	1	0.113750
34.200000	1	0.112875
34.216667	1	0.112250
34.233333	1	0.111375
34.250000	1	0.110125
34.266667	1	0.109500
34.283333	1	0.108625
34.300000	1	0.107125
34.316667	1	0.106375
34.333333	1	0.104750
34.350000	1	0.103625
34.366667	1	0.102500
34.383333	1	0.102000
34.400000	1	0.101000
34.416667	1	0.100000
34.433333	1	0.099125
34.450000	1	0.098000
34.466667	1	0.097500
34.483333	1	0.096750
34.500000	1	0.096500
34.516667	1	0.097125
34.533333	1	0.097375
34.550000	1	0.097750
34.566667	1	0.098625
34.583333	1	0.099250
34.600000	1	0.099750
34.616667	1	0.100375
34.633333	1	0.100625
34.650000	1	0.101000
34.666667	1	0.101875
34.683333	1	0.103125
34.700000	1	0.104000
34.716667	1	0.104875
34.733333	1	0.106000
34.750000	1	0.107500
34.766667	1	0.107875
34.783333	1	0.108250
34.800000	1	0.108875
34.816667	1	0.109750
34.833333	1	0.109500
34.850000	1	0.110125
34.866667	1	0.110500
34.883333	1	0.111250
34.900000	1	0.111250
34.916667	1	0.111250
34.933333	1	0.111375
34.950000	1	0.111750
34.966667	1	0.111375
34.983333	1	0.111125
35.000000	1	0.110750
35.016667	1	0.110750
35.033333	1	0.109875
35.050000	1	0.108875
35.066667	1	0.108000
35.083333	1	0.106625
35.100000	1	0.105875
35.116667	1	0.104000
35.133333	1	0.103000
35.150000	1	0.101750
35.166667	1	0.101250
35.183333	1	0.100375
35.200000	1	0.099250
35.216667	1	0.098250
35.233333	1	0.097250
35.250000	1	0.096500
35.266667	1	0.095000
35.283333	1	0.093250
35.300000	1	0.092250
35.316667	1	0.090875
35.333333	1	0.090000
35.350000	1	0.089250
35.366667	1	0.088375
35.383333	1	0.087000
35.400000	1	0.086375
35.416667	1	0.085875
35.433333	1	0.085000
35.450000	1	0.084125
35.466667	1	0.082750
35.483333	1	0.081625
35.500000	1	0.080625
35.516667	1	0.080125
35.533333	1	0.079500
35.550000	1	0.079125
35.566667	1	0.078375
35.583333	1	0.078250
35.600000	1	0.077500
35.616667	1	0.076875
35.633333	1	0.076125
35.650000	1	0.075625
35.666667	1	0.075000
35.683333	1	0.074250
35.700000	1	0.073750
35.716667	1	0.073250
35.733333	1	0.072250
35.750000	1	0.071625
35.766667	1	0.071125
35.783333	1	0.071375
35.800000	1	0.070875
35.816667	1	0.070500
35.833333	1	0.070250
35.850000	1	0.070625
35.866667	1	0.070750
35.883333	1	0.071375
35.900000	1	0.072000
35.916667	1	0.072375
35.933333	1	0.072625
35.950000	1	0.073375
35.966667	1	0.073625
35.983333	1	0.074625
36.000000	1	0.075375
36.016667	1	0.076375
36.033333	1	0.077250
36.050000	1	0.078125
36.066667	1	0.078500
36.083333	1	0.080000
36.100000	1	0.081250
36.116667	1	0.082375
36.133333	1	0.083625
36.150000	1	0.084875
36.166667	1	0.086375
36.183333	1	0.087500
36.200000	1	0.088875
36.216667	1	0.090125
36.233333	1	0.091500
36.250000	1	0.093375
36.266667	1	0.093875
36.283333	1	0.096000
36.300000	1	0.097000
36.316667	1	0.098250
36.333333	1	0.099750
36.350000	1	0.101000
36.366667	1	0.102000
36.383333	1	0.103500
36.400000	1	0.104500
36.416667	1	0.105250
36.433333	1	0.106625
36.450000	1	0.107500
36.466667	1	0.108000
36.483333	1	0.109625
36.500000	1	0.110750
36.516667	1	0.112500
36.533333	1	0.113000
36.550000	1	0.113000
36.566667	1	0.113500
36.583333	1	0.114375
36.600000	1	0.115250
36.616667	1	0.115375
36.633333	1	0.115875
36.650000	1	0.115750
36.666667	1	0.115500
36.683333	1	0.115250
36.700000	1	0.115375
36.716667	1	0.115125
36.733333	1	0.114750
36.750000	1	0.114750
36.766667	1	0.113375
36.783333	1	0.112250
36.800000	1	0.111875
36.816667	1	0.111000
36.833333	1	0.109625
36.850000	1	0.108125
36.866667	1	0.107375
36.883333	1	0.106375
36.900000	1	0.104875
36.916667	1	0.103375
36.933333	1	0.102250
36.950000	1	0.100875
36.966667	1	0.099375
36.983333	1	0.097750
37.000000	1	0.095875
37.016667	1	0.094000
37.033333	1	0.092750
37.050000	1	0.090500
37.066667	1	0.088750
37.083333	1	0.087000
37.100000	1	0.085375
37.116667	1	0.084250
37.133333	1	0.083000
37.150000	1	0.081500
37.166667	1	0.080125
37.183333	1	0.079500
37.200000	1	0.078375
37.216667	1	0.077125
37.233333	1	0.076000
37.250000	1	0.075375
37.266667	1	0.074375
37.283333	1	0.073500
37.300000	1	0.072750
37.316667	1	0.071375
37.333333	1	0.071000
37.350000	1	0.070625
37.366667	1	0.070625
37.383333	1	0.069875
37.400000	1	0.069500
37.416667	1	0.069500
37.433333	1	0.069000
37.450000	1	0.069125
37.466667	1	0.069125
37.483333	1	0.069375
37.500000	1	0.069125
37.516667	1	0.068625
37.533333	1	0.069250
37.550000	1	0.069250
37.566667	1	0.069000
37.583333	1	0.068625
37.600000	1	0.068750
37.616667	1	0.068625
37.633333	1	0.068500
37.650000	1	0.068000
37.666667	1	0.067875
37.683333	1	0.067125
37.700000	1	0.066750
37.716667	1	0.066375
37.733333	1	0.065750
37.750000	1	0.065000
37.766667	1	0.063125
37.783333	1	0.061750
37.800000	1	0.060375
37.816667	1	0.059250
37.833333	1	0.057750
37.850000	1	0.055875
37.866667	1	0.054000
37.883333	1	0.052125
37.900000	1	0.049500
37.916667	1	0.047625
37.933333	1	0.045375
37.950000	1	0.043000
37.966667	1	0.040750
37.983333	1	0.037875
38.000000	1	0.035375
38.016667	1	0.032500
38.033333	1	0.030125
38.050000	1	0.027875
38.066667	1	0.025750
38.083333	1	0.023000
38.100000	1	0.021375
38.116667	1	0.019375
38.133333	1	0.017875
38.150000	1	0.016500
38.166667	1	0.014375
38.183333	1	0.013375
38.200000	1	0.012875
38.216667	1	0.012125
38.233333	1	0.011500
38.250000	1	0.011000
38.266667	1	0.010875
38.283333	1	0.011000
38.300000	1	0.011375
38.316667	1	0.011625
38.333333	1	0.012125
38.350000	1	0.013375
38.366667	1	0.014375
38.383333	1	0.015750
38.400000	1	0.017000
38.416667	1	0.018750
38.433333	1	0.019750
38.450000	1	0.020625
38.466667	1	0.022375
38.483333	1	0.023500
38.500000	1	0.025000
38.516667	1	0.027000
38.533333	1	0.028000
38.550000	1	0.029250
38.566667	1	0.030500
38.583333	1	0.031625
38.600000	1	0.031750
38.616667	1	0.032375
38.633333	1	0.031875
38.650000	1	0.032625
38.666667	1	0.032500
38.683333	1	0.032875
38.700000	1	0.032875
38.716667	1	0.032625
38.733333	1	0.032375
38.750000	1	0.031750
38.766667	1	0.030500
38.783333	1	0.029500
38.800000	1	0.028375
38.816667	1	0.027125
38.833333	1	0.026625
38.850000	1	0.024625
38.866667	1	0.023875
38.883333	1	0.022375
38.900000	1	0.021250
38.916667	1	0.019750
38.933333	1	0.018750
38.950000	1	0.017625
38.966667	1	0.015875
38.983333	1	0.014500
39.000000	1	0.013125
39.016667	1	0.012500
39.033333	1	0.011375
39.050000	1	0.009750
39.066667	1	0.008250
39.083333	1	0.007875
39.100000	1	0.006250
39.116667	1	0.005375
39.133333	1	0.004625
39.150000	1	0.004375
39.166667	1	0.003750
39.183333	1	0.002875
39.200000	1	0.001375
39.216667	1	0.000750
39.233333	1	0.000500
39.250000	1	0.000000
39.266667	1	-0.000250
39.283333	1	-0.000625
39.300000	1	-0.000625
39.316667	1	-0.000750
39.333333	1	-0.001375
39.350000	1	-0.001500
39.366667	1	-0.001500
39.383333	1	-0.002250
39.400000	1	-0.002250
39.416667	1	-0.001750
39.433333	1	-0.002625
39.450000	1	-0.002500
39.466667	1	-0.002250
39.483333	1	-0.002625
39.500000	1	-0.002750
39.516667	1	-0.003000
39.533333	1	-0.002875
39.550000	1	-0.003000
39.566667	1	-0.002875
39.583333	1	-0.003500
39.600000	1	-0.003125
39.616667	1	-0.003000
39.633333	1	-0.002750
39.650000	1	-0.002125
39.666667	1	-0.002250
39.683333	1	-0.002375
39.700000	1	-0.002000
39.716667	1	-0.002625
39.733333	1	-0.001750
39.750000	1	-0.002125
39.766667	1	-0.002250
39.783333	1	-0.002000
39.800000	1	-0.002375
39.816667	1	-0.002375
39.833333	1	-0.002625
39.850000	1	-0.002500
39.866667	1	-0.002625
39.883333	1	-0.003000
39.900000	1	-0.003125
39.916667	1	-0.003125
39.933333	1	-0.003500
39.950000	1	-0.003625
39.966667	1	-0.003375
39.983333	1	-0.003375
40.000000	1	-0.003500
