URL	chrom://7040-86g6c92/XVault/Ultimate_3000/20/20240517_CMO_FP23_FP25_MarkusDeplate.seq/303.smp/RI_1.channel/RI_1.chm
Channel	RI_1

Injection Information:
Data Vault	XVault
Sequence	20240517_CMO_FP23_FP25_MarkusDeplate
Name	FP25_24.2_s4
Number	61
Position	BF1
Comment	
Processing Method	
Instrument Method	run_25B_method
Type	Unknown
Status	Finished
Inject Time	29.05.2024 11:00:42 +02:00
Volume (µl)	20.0000
Dilution Factor	1.0000
Weight	1.0000

Chromatogram Data Information:
Time Min. (min)	0.000000
Time Max. (min)	40.000000
Data Points	2401
Detector	RI
Generating Data System	Chromeleon 7.3.2.11814
Exporting Data System	Chromeleon 7.3.2.0
Operator	Instrument Controller
Signal Quantity	Refractive 
Signal Unit	µRIU
Signal Min.	-0.804750
Signal Max.	51.010250
Channel	RI_1
Driver Name	RID520Driver.dll
Channel Type	Evaluation
Min. Step (s)	1
Max. Step (s)	1
Average Step (s)	1

Signal Parameter Information:
Signal Info	

Chromatogram Data:
Time (min)	Step (s)	Value (µRIU)
0.000000	n.a.	0.009625
0.016667	1	0.010500
0.033333	1	0.011625
0.050000	1	0.013250
0.066667	1	0.015750
0.083333	1	0.017500
0.100000	1	0.019375
0.116667	1	0.021375
0.133333	1	0.023750
0.150000	1	0.025125
0.166667	1	0.026625
0.183333	1	0.028500
0.200000	1	0.030375
0.216667	1	0.032250
0.233333	1	0.034375
0.250000	1	0.036250
0.266667	1	0.038125
0.283333	1	0.040875
0.300000	1	0.043375
0.316667	1	0.045250
0.333333	1	0.047625
0.350000	1	0.048875
0.366667	1	0.050125
0.383333	1	0.050500
0.400000	1	0.051875
0.416667	1	0.054250
0.433333	1	0.056750
0.450000	1	0.060125
0.466667	1	0.064125
0.483333	1	0.067875
0.500000	1	0.070750
0.516667	1	0.072625
0.533333	1	0.074625
0.550000	1	0.076125
0.566667	1	0.076250
0.583333	1	0.075750
0.600000	1	0.075000
0.616667	1	0.073625
0.633333	1	0.072875
0.650000	1	0.072125
0.666667	1	0.071875
0.683333	1	0.072625
0.700000	1	0.073250
0.716667	1	0.073375
0.733333	1	0.073375
0.750000	1	0.072750
0.766667	1	0.073000
0.783333	1	0.072875
0.800000	1	0.072750
0.816667	1	0.072250
0.833333	1	0.071500
0.850000	1	0.071000
0.866667	1	0.070500
0.883333	1	0.069625
0.900000	1	0.068750
0.916667	1	0.067375
0.933333	1	0.066375
0.950000	1	0.064625
0.966667	1	0.064000
0.983333	1	0.062875
1.000000	1	0.061500
1.016667	1	0.061000
1.033333	1	0.059875
1.050000	1	0.058750
1.066667	1	0.057875
1.083333	1	0.056875
1.100000	1	0.056250
1.116667	1	0.055250
1.133333	1	0.054000
1.150000	1	0.053125
1.166667	1	0.051625
1.183333	1	0.050500
1.200000	1	0.049625
1.216667	1	0.048125
1.233333	1	0.047125
1.250000	1	0.046875
1.266667	1	0.045875
1.283333	1	0.045250
1.300000	1	0.044875
1.316667	1	0.044250
1.333333	1	0.044250
1.350000	1	0.043375
1.366667	1	0.043375
1.383333	1	0.043500
1.400000	1	0.043375
1.416667	1	0.043375
1.433333	1	0.043250
1.450000	1	0.043750
1.466667	1	0.044500
1.483333	1	0.044750
1.500000	1	0.046000
1.516667	1	0.046250
1.533333	1	0.047125
1.550000	1	0.048125
1.566667	1	0.049250
1.583333	1	0.050625
1.600000	1	0.051500
1.616667	1	0.053000
1.633333	1	0.054750
1.650000	1	0.056875
1.666667	1	0.058500
1.683333	1	0.060125
1.700000	1	0.062875
1.716667	1	0.065000
1.733333	1	0.067125
1.750000	1	0.069125
1.766667	1	0.070625
1.783333	1	0.071875
1.800000	1	0.073625
1.816667	1	0.075250
1.833333	1	0.076625
1.850000	1	0.077625
1.866667	1	0.079000
1.883333	1	0.080000
1.900000	1	0.080750
1.916667	1	0.081000
1.933333	1	0.080750
1.950000	1	0.080625
1.966667	1	0.080625
1.983333	1	0.080250
2.000000	1	0.079875
2.016667	1	0.079000
2.033333	1	0.077875
2.050000	1	0.077750
2.066667	1	0.076500
2.083333	1	0.075000
2.100000	1	0.073875
2.116667	1	0.073000
2.133333	1	0.072250
2.150000	1	0.071000
2.166667	1	0.070000
2.183333	1	0.069125
2.200000	1	0.067875
2.216667	1	0.066625
2.233333	1	0.066500
2.250000	1	0.065500
2.266667	1	0.064875
2.283333	1	0.064000
2.300000	1	0.063375
2.316667	1	0.063125
2.333333	1	0.062750
2.350000	1	0.062375
2.366667	1	0.062000
2.383333	1	0.061375
2.400000	1	0.061250
2.416667	1	0.061750
2.433333	1	0.061625
2.450000	1	0.061375
2.466667	1	0.061000
2.483333	1	0.060125
2.500000	1	0.059375
2.516667	1	0.057875
2.533333	1	0.056625
2.550000	1	0.055500
2.566667	1	0.054125
2.583333	1	0.052750
2.600000	1	0.051000
2.616667	1	0.049500
2.633333	1	0.047125
2.650000	1	0.045875
2.666667	1	0.043875
2.683333	1	0.042125
2.700000	1	0.040500
2.716667	1	0.038000
2.733333	1	0.035375
2.750000	1	0.032875
2.766667	1	0.030375
2.783333	1	0.028375
2.800000	1	0.026875
2.816667	1	0.025125
2.833333	1	0.023500
2.850000	1	0.022250
2.866667	1	0.021125
2.883333	1	0.020125
2.900000	1	0.019625
2.916667	1	0.018625
2.933333	1	0.018625
2.950000	1	0.016875
2.966667	1	0.016125
2.983333	1	0.016000
3.000000	1	0.015875
3.016667	1	0.016250
3.033333	1	0.015750
3.050000	1	0.016125
3.066667	1	0.016125
3.083333	1	0.016125
3.100000	1	0.016000
3.116667	1	0.016125
3.133333	1	0.015875
3.150000	1	0.016000
3.166667	1	0.016375
3.183333	1	0.016375
3.200000	1	0.016750
3.216667	1	0.017125
3.233333	1	0.017500
3.250000	1	0.018500
3.266667	1	0.019125
3.283333	1	0.019500
3.300000	1	0.019875
3.316667	1	0.020750
3.333333	1	0.021500
3.350000	1	0.023125
3.366667	1	0.024375
3.383333	1	0.025875
3.400000	1	0.027250
3.416667	1	0.029000
3.433333	1	0.030250
3.450000	1	0.031625
3.466667	1	0.033125
3.483333	1	0.034500
3.500000	1	0.035750
3.516667	1	0.038000
3.533333	1	0.039625
3.550000	1	0.041500
3.566667	1	0.043375
3.583333	1	0.045625
3.600000	1	0.047000
3.616667	1	0.048625
3.633333	1	0.050000
3.650000	1	0.051250
3.666667	1	0.053000
3.683333	1	0.054625
3.700000	1	0.055750
3.716667	1	0.056625
3.733333	1	0.057125
3.750000	1	0.057375
3.766667	1	0.057375
3.783333	1	0.057375
3.800000	1	0.058250
3.816667	1	0.057875
3.833333	1	0.058000
3.850000	1	0.057625
3.866667	1	0.057375
3.883333	1	0.057125
3.900000	1	0.057375
3.916667	1	0.057250
3.933333	1	0.057750
3.950000	1	0.058250
3.966667	1	0.058000
3.983333	1	0.058250
4.000000	1	0.058625
4.016667	1	0.059125
4.033333	1	0.059875
4.050000	1	0.061375
4.066667	1	0.062125
4.083333	1	0.063500
4.100000	1	0.064625
4.116667	1	0.065875
4.133333	1	0.067250
4.150000	1	0.069125
4.166667	1	0.071250
4.183333	1	0.072875
4.200000	1	0.074875
4.216667	1	0.077125
4.233333	1	0.079125
4.250000	1	0.081250
4.266667	1	0.083375
4.283333	1	0.085125
4.300000	1	0.087375
4.316667	1	0.089000
4.333333	1	0.091000
4.350000	1	0.093000
4.366667	1	0.095250
4.383333	1	0.096875
4.400000	1	0.098750
4.416667	1	0.100000
4.433333	1	0.101500
4.450000	1	0.102750
4.466667	1	0.104125
4.483333	1	0.105875
4.500000	1	0.106875
4.516667	1	0.108125
4.533333	1	0.108625
4.550000	1	0.109250
4.566667	1	0.109250
4.583333	1	0.109875
4.600000	1	0.111250
4.616667	1	0.112375
4.633333	1	0.112500
4.650000	1	0.112000
4.666667	1	0.112250
4.683333	1	0.111500
4.700000	1	0.111500
4.716667	1	0.111875
4.733333	1	0.112250
4.750000	1	0.112000
4.766667	1	0.111750
4.783333	1	0.111500
4.800000	1	0.110625
4.816667	1	0.110500
4.833333	1	0.110125
4.850000	1	0.109875
4.866667	1	0.110000
4.883333	1	0.109875
4.900000	1	0.109000
4.916667	1	0.108500
4.933333	1	0.108250
4.950000	1	0.108875
4.966667	1	0.108875
4.983333	1	0.108500
5.000000	1	0.108875
5.016667	1	0.109375
5.033333	1	0.109750
5.050000	1	0.110000
5.066667	1	0.110875
5.083333	1	0.112000
5.100000	1	0.113125
5.116667	1	0.114875
5.133333	1	0.116625
5.150000	1	0.118625
5.166667	1	0.121000
5.183333	1	0.123500
5.200000	1	0.126250
5.216667	1	0.128750
5.233333	1	0.131875
5.250000	1	0.135000
5.266667	1	0.138625
5.283333	1	0.143000
5.300000	1	0.147000
5.316667	1	0.151125
5.333333	1	0.155000
5.350000	1	0.160250
5.366667	1	0.165125
5.383333	1	0.170875
5.400000	1	0.176375
5.416667	1	0.181375
5.433333	1	0.185500
5.450000	1	0.190875
5.466667	1	0.195625
5.483333	1	0.200750
5.500000	1	0.205875
5.516667	1	0.210750
5.533333	1	0.215750
5.550000	1	0.220875
5.566667	1	0.226375
5.583333	1	0.231500
5.600000	1	0.236125
5.616667	1	0.241000
5.633333	1	0.246500
5.650000	1	0.251125
5.666667	1	0.255375
5.683333	1	0.259125
5.700000	1	0.263500
5.716667	1	0.267375
5.733333	1	0.271125
5.750000	1	0.274750
5.766667	1	0.277500
5.783333	1	0.280250
5.800000	1	0.282500
5.816667	1	0.285250
5.833333	1	0.287250
5.850000	1	0.288375
5.866667	1	0.289125
5.883333	1	0.289875
5.900000	1	0.290750
5.916667	1	0.290625
5.933333	1	0.290000
5.950000	1	0.289250
5.966667	1	0.287625
5.983333	1	0.286250
6.000000	1	0.285125
6.016667	1	0.283000
6.033333	1	0.279750
6.050000	1	0.276750
6.066667	1	0.273375
6.083333	1	0.270375
6.100000	1	0.267000
6.116667	1	0.263000
6.133333	1	0.259375
6.150000	1	0.255750
6.166667	1	0.252000
6.183333	1	0.248000
6.200000	1	0.244125
6.216667	1	0.240250
6.233333	1	0.236125
6.250000	1	0.232375
6.266667	1	0.227375
6.283333	1	0.223375
6.300000	1	0.219125
6.316667	1	0.214875
6.333333	1	0.210625
6.350000	1	0.206625
6.366667	1	0.202625
6.383333	1	0.198375
6.400000	1	0.194500
6.416667	1	0.189500
6.433333	1	0.185750
6.450000	1	0.181625
6.466667	1	0.177625
6.483333	1	0.173125
6.500000	1	0.169125
6.516667	1	0.165125
6.533333	1	0.162000
6.550000	1	0.159000
6.566667	1	0.155125
6.583333	1	0.151000
6.600000	1	0.147500
6.616667	1	0.143625
6.633333	1	0.140125
6.650000	1	0.136500
6.666667	1	0.133125
6.683333	1	0.130125
6.700000	1	0.127250
6.716667	1	0.125125
6.733333	1	0.122750
6.750000	1	0.120500
6.766667	1	0.118625
6.783333	1	0.117125
6.800000	1	0.115625
6.816667	1	0.115000
6.833333	1	0.113875
6.850000	1	0.113875
6.866667	1	0.113875
6.883333	1	0.114375
6.900000	1	0.114375
6.916667	1	0.115125
6.933333	1	0.115375
6.950000	1	0.117125
6.966667	1	0.118125
6.983333	1	0.119875
7.000000	1	0.122125
7.016667	1	0.124625
7.033333	1	0.126625
7.050000	1	0.129250
7.066667	1	0.131375
7.083333	1	0.134250
7.100000	1	0.137625
7.116667	1	0.140750
7.133333	1	0.143750
7.150000	1	0.146750
7.166667	1	0.150625
7.183333	1	0.154250
7.200000	1	0.157750
7.216667	1	0.161625
7.233333	1	0.165500
7.250000	1	0.168750
7.266667	1	0.171625
7.283333	1	0.174875
7.300000	1	0.178000
7.316667	1	0.181250
7.333333	1	0.184625
7.350000	1	0.186875
7.366667	1	0.190000
7.383333	1	0.192625
7.400000	1	0.195500
7.416667	1	0.198500
7.433333	1	0.201375
7.450000	1	0.204000
7.466667	1	0.205875
7.483333	1	0.208250
7.500000	1	0.210375
7.516667	1	0.212625
7.533333	1	0.215125
7.550000	1	0.217750
7.566667	1	0.219625
7.583333	1	0.221875
7.600000	1	0.224375
7.616667	1	0.226750
7.633333	1	0.228625
7.650000	1	0.230875
7.666667	1	0.232375
7.683333	1	0.233875
7.700000	1	0.235250
7.716667	1	0.236500
7.733333	1	0.237750
7.750000	1	0.239250
7.766667	1	0.240500
7.783333	1	0.241000
7.800000	1	0.241000
7.816667	1	0.240625
7.833333	1	0.240000
7.850000	1	0.239125
7.866667	1	0.238125
7.883333	1	0.236250
7.900000	1	0.233875
7.916667	1	0.231375
7.933333	1	0.228750
7.950000	1	0.225500
7.966667	1	0.222000
7.983333	1	0.218250
8.000000	1	0.214500
8.016667	1	0.209375
8.033333	1	0.204500
8.050000	1	0.199250
8.066667	1	0.194500
8.083333	1	0.188750
8.100000	1	0.183000
8.116667	1	0.177000
8.133333	1	0.171500
8.150000	1	0.166125
8.166667	1	0.160000
8.183333	1	0.153875
8.200000	1	0.148125
8.216667	1	0.143000
8.233333	1	0.138125
8.250000	1	0.133125
8.266667	1	0.127750
8.283333	1	0.123125
8.300000	1	0.119000
8.316667	1	0.115375
8.333333	1	0.110875
8.350000	1	0.108000
8.366667	1	0.104750
8.383333	1	0.102000
8.400000	1	0.099250
8.416667	1	0.097750
8.433333	1	0.096500
8.450000	1	0.094875
8.466667	1	0.093375
8.483333	1	0.092750
8.500000	1	0.092375
8.516667	1	0.092625
8.533333	1	0.092375
8.550000	1	0.091875
8.566667	1	0.092125
8.583333	1	0.092250
8.600000	1	0.092875
8.616667	1	0.093625
8.633333	1	0.093875
8.650000	1	0.094625
8.666667	1	0.095375
8.683333	1	0.095500
8.700000	1	0.096375
8.716667	1	0.096500
8.733333	1	0.096875
8.750000	1	0.097000
8.766667	1	0.097125
8.783333	1	0.096375
8.800000	1	0.096125
8.816667	1	0.096250
8.833333	1	0.096500
8.850000	1	0.095625
8.866667	1	0.095500
8.883333	1	0.095500
8.900000	1	0.094875
8.916667	1	0.095125
8.933333	1	0.095125
8.950000	1	0.095500
8.966667	1	0.095750
8.983333	1	0.096500
9.000000	1	0.096500
9.016667	1	0.097250
9.033333	1	0.098125
9.050000	1	0.098500
9.066667	1	0.099000
9.083333	1	0.100000
9.100000	1	0.100750
9.116667	1	0.102375
9.133333	1	0.102625
9.150000	1	0.103875
9.166667	1	0.105125
9.183333	1	0.105750
9.200000	1	0.106750
9.216667	1	0.107000
9.233333	1	0.107375
9.250000	1	0.107875
9.266667	1	0.108000
9.283333	1	0.107500
9.300000	1	0.107250
9.316667	1	0.107250
9.333333	1	0.106875
9.350000	1	0.105750
9.366667	1	0.104500
9.383333	1	0.103000
9.400000	1	0.101375
9.416667	1	0.099250
9.433333	1	0.096750
9.450000	1	0.093875
9.466667	1	0.091375
9.483333	1	0.087500
9.500000	1	0.085000
9.516667	1	0.082500
9.533333	1	0.079250
9.550000	1	0.075375
9.566667	1	0.072125
9.583333	1	0.068875
9.600000	1	0.065250
9.616667	1	0.061500
9.633333	1	0.057625
9.650000	1	0.054250
9.666667	1	0.051500
9.683333	1	0.048625
9.700000	1	0.045000
9.716667	1	0.042125
9.733333	1	0.039625
9.750000	1	0.036750
9.766667	1	0.033875
9.783333	1	0.030875
9.800000	1	0.028500
9.816667	1	0.026250
9.833333	1	0.023875
9.850000	1	0.021875
9.866667	1	0.019625
9.883333	1	0.017625
9.900000	1	0.016125
9.916667	1	0.015125
9.933333	1	0.013750
9.950000	1	0.013500
9.966667	1	0.012875
9.983333	1	0.013250
10.000000	1	0.014125
10.016667	1	0.015750
10.033333	1	0.018125
10.050000	1	0.022000
10.066667	1	0.027500
10.083333	1	0.033500
10.100000	1	0.041750
10.116667	1	0.050750
10.133333	1	0.061625
10.150000	1	0.073250
10.166667	1	0.086625
10.183333	1	0.100875
10.200000	1	0.116000
10.216667	1	0.132500
10.233333	1	0.149875
10.250000	1	0.169000
10.266667	1	0.190125
10.283333	1	0.212625
10.300000	1	0.238125
10.316667	1	0.265000
10.333333	1	0.294875
10.350000	1	0.328000
10.366667	1	0.363875
10.383333	1	0.402375
10.400000	1	0.441750
10.416667	1	0.478750
10.433333	1	0.507000
10.450000	1	0.516125
10.466667	1	0.495750
10.483333	1	0.443000
10.500000	1	0.367750
10.516667	1	0.301375
10.533333	1	0.300000
10.550000	1	0.444125
10.566667	1	0.825375
10.583333	1	1.538750
10.600000	1	2.668875
10.616667	1	4.286500
10.633333	1	6.437625
10.650000	1	9.148625
10.666667	1	12.426250
10.683333	1	16.252875
10.700000	1	20.586500
10.716667	1	25.344750
10.733333	1	30.393625
10.750000	1	35.532875
10.766667	1	40.481375
10.783333	1	44.873750
10.800000	1	48.293125
10.816667	1	50.334750
10.833333	1	50.716750
10.850000	1	49.379500
10.866667	1	46.510375
10.883333	1	42.495000
10.900000	1	37.812625
10.916667	1	32.914000
10.933333	1	28.152750
10.950000	1	23.759500
10.966667	1	19.859375
10.983333	1	16.493125
11.000000	1	13.652625
11.016667	1	11.299500
11.033333	1	9.378000
11.050000	1	7.827000
11.066667	1	6.583375
11.083333	1	5.590625
11.100000	1	4.798375
11.116667	1	4.165875
11.133333	1	3.658375
11.150000	1	3.249500
11.166667	1	2.917750
11.183333	1	2.644625
11.200000	1	2.418625
11.216667	1	2.228750
11.233333	1	2.068250
11.250000	1	1.931875
11.266667	1	1.814000
11.283333	1	1.711875
11.300000	1	1.623375
11.316667	1	1.545750
11.333333	1	1.476875
11.350000	1	1.416375
11.366667	1	1.362750
11.383333	1	1.315750
11.400000	1	1.275000
11.416667	1	1.238125
11.433333	1	1.204750
11.450000	1	1.175000
11.466667	1	1.148375
11.483333	1	1.124000
11.500000	1	1.102500
11.516667	1	1.082750
11.533333	1	1.066375
11.550000	1	1.050250
11.566667	1	1.036375
11.583333	1	1.025250
11.600000	1	1.015500
11.616667	1	1.007875
11.633333	1	1.001750
11.650000	1	0.997000
11.666667	1	0.994125
11.683333	1	0.993750
11.700000	1	0.994750
11.716667	1	0.997625
11.733333	1	1.002500
11.750000	1	1.008375
11.766667	1	1.015500
11.783333	1	1.023375
11.800000	1	1.031750
11.816667	1	1.040125
11.833333	1	1.047875
11.850000	1	1.055750
11.866667	1	1.061875
11.883333	1	1.068750
11.900000	1	1.074750
11.916667	1	1.080000
11.933333	1	1.084625
11.950000	1	1.088500
11.966667	1	1.092625
11.983333	1	1.097250
12.000000	1	1.102125
12.016667	1	1.106375
12.033333	1	1.111500
12.050000	1	1.116625
12.066667	1	1.121875
12.083333	1	1.126750
12.100000	1	1.133625
12.116667	1	1.140000
12.133333	1	1.146625
12.150000	1	1.154375
12.166667	1	1.162500
12.183333	1	1.172375
12.200000	1	1.183500
12.216667	1	1.196375
12.233333	1	1.210000
12.250000	1	1.225875
12.266667	1	1.243000
12.283333	1	1.262625
12.300000	1	1.284375
12.316667	1	1.308250
12.333333	1	1.335125
12.350000	1	1.367625
12.366667	1	1.407125
12.383333	1	1.458875
12.400000	1	1.527000
12.416667	1	1.618750
12.433333	1	1.742125
12.450000	1	1.904125
12.466667	1	2.112875
12.483333	1	2.376625
12.500000	1	2.698875
12.516667	1	3.084125
12.533333	1	3.530125
12.550000	1	4.032000
12.566667	1	4.580750
12.583333	1	5.165750
12.600000	1	5.772000
12.616667	1	6.386500
12.633333	1	6.995125
12.650000	1	7.586375
12.666667	1	8.153250
12.683333	1	8.691625
12.700000	1	9.200500
12.716667	1	9.682875
12.733333	1	10.143375
12.750000	1	10.589750
12.766667	1	11.028250
12.783333	1	11.459875
12.800000	1	11.881750
12.816667	1	12.270875
12.833333	1	12.581125
12.850000	1	12.739875
12.866667	1	12.668375
12.883333	1	12.309250
12.900000	1	11.654750
12.916667	1	10.757125
12.933333	1	9.713250
12.950000	1	8.627750
12.966667	1	7.584000
12.983333	1	6.632000
13.000000	1	5.793875
13.016667	1	5.072125
13.033333	1	4.460750
13.050000	1	3.948875
13.066667	1	3.525750
13.083333	1	3.179375
13.100000	1	2.896125
13.116667	1	2.666875
13.133333	1	2.481375
13.150000	1	2.329875
13.166667	1	2.205875
13.183333	1	2.103000
13.200000	1	2.017500
13.216667	1	1.945000
13.233333	1	1.881625
13.250000	1	1.826500
13.266667	1	1.777250
13.283333	1	1.733875
13.300000	1	1.693375
13.316667	1	1.656125
13.333333	1	1.621875
13.350000	1	1.590250
13.366667	1	1.561625
13.383333	1	1.535375
13.400000	1	1.511875
13.416667	1	1.489375
13.433333	1	1.471750
13.450000	1	1.455125
13.466667	1	1.440875
13.483333	1	1.429125
13.500000	1	1.419875
13.516667	1	1.412125
13.533333	1	1.405750
13.550000	1	1.400250
13.566667	1	1.395375
13.583333	1	1.390125
13.600000	1	1.384125
13.616667	1	1.377000
13.633333	1	1.367125
13.650000	1	1.355625
13.666667	1	1.342500
13.683333	1	1.327250
13.700000	1	1.310250
13.716667	1	1.292000
13.733333	1	1.272250
13.750000	1	1.253000
13.766667	1	1.232625
13.783333	1	1.212750
13.800000	1	1.193500
13.816667	1	1.174875
13.833333	1	1.157250
13.850000	1	1.139375
13.866667	1	1.122375
13.883333	1	1.107125
13.900000	1	1.091500
13.916667	1	1.077500
13.933333	1	1.062875
13.950000	1	1.049625
13.966667	1	1.037375
13.983333	1	1.025500
14.000000	1	1.013750
14.016667	1	1.003250
14.033333	1	0.991875
14.050000	1	0.981125
14.066667	1	0.971125
14.083333	1	0.961500
14.100000	1	0.952750
14.116667	1	0.943875
14.133333	1	0.936125
14.150000	1	0.928000
14.166667	1	0.920750
14.183333	1	0.914125
14.200000	1	0.908625
14.216667	1	0.902875
14.233333	1	0.899375
14.250000	1	0.896750
14.266667	1	0.895375
14.283333	1	0.894125
14.300000	1	0.894625
14.316667	1	0.896250
14.333333	1	0.899750
14.350000	1	0.904000
14.366667	1	0.909750
14.383333	1	0.917000
14.400000	1	0.927000
14.416667	1	0.941000
14.433333	1	0.959625
14.450000	1	0.986875
14.466667	1	1.028000
14.483333	1	1.089625
14.500000	1	1.185125
14.516667	1	1.333250
14.533333	1	1.557250
14.550000	1	1.889125
14.566667	1	2.371375
14.583333	1	3.052750
14.600000	1	3.989375
14.616667	1	5.242875
14.633333	1	6.877500
14.650000	1	8.948250
14.666667	1	11.494375
14.683333	1	14.528875
14.700000	1	18.032000
14.716667	1	21.943125
14.733333	1	26.161250
14.750000	1	30.548750
14.766667	1	34.933250
14.783333	1	39.117750
14.800000	1	42.911125
14.816667	1	46.130875
14.833333	1	48.622375
14.850000	1	50.268875
14.866667	1	51.010250
14.883333	1	50.842500
14.900000	1	49.817250
14.916667	1	48.034625
14.933333	1	45.627500
14.950000	1	42.749875
14.966667	1	39.556500
14.983333	1	36.198875
15.000000	1	32.804000
15.016667	1	29.474750
15.033333	1	26.290000
15.050000	1	23.306000
15.066667	1	20.557375
15.083333	1	18.062000
15.100000	1	15.823375
15.116667	1	13.834000
15.133333	1	12.077625
15.150000	1	10.536125
15.166667	1	9.188625
15.183333	1	8.016125
15.200000	1	6.998375
15.216667	1	6.117375
15.233333	1	5.357375
15.250000	1	4.704750
15.266667	1	4.147250
15.283333	1	3.674875
15.300000	1	3.277625
15.316667	1	2.947750
15.333333	1	2.677625
15.350000	1	2.459500
15.366667	1	2.285375
15.383333	1	2.149750
15.400000	1	2.046625
15.416667	1	1.967625
15.433333	1	1.908250
15.450000	1	1.861875
15.466667	1	1.824875
15.483333	1	1.791625
15.500000	1	1.760750
15.516667	1	1.727500
15.533333	1	1.692250
15.550000	1	1.654375
15.566667	1	1.614500
15.583333	1	1.571375
15.600000	1	1.527500
15.616667	1	1.483750
15.633333	1	1.440625
15.650000	1	1.398750
15.666667	1	1.357500
15.683333	1	1.320000
15.700000	1	1.285125
15.716667	1	1.252250
15.733333	1	1.221625
15.750000	1	1.193625
15.766667	1	1.166875
15.783333	1	1.142000
15.800000	1	1.118875
15.816667	1	1.096875
15.833333	1	1.076750
15.850000	1	1.058750
15.866667	1	1.041125
15.883333	1	1.025750
15.900000	1	1.012000
15.916667	1	1.000625
15.933333	1	0.992250
15.950000	1	0.985500
15.966667	1	0.980000
15.983333	1	0.976875
16.000000	1	0.975500
16.016667	1	0.975375
16.033333	1	0.976500
16.050000	1	0.979125
16.066667	1	0.981875
16.083333	1	0.985750
16.100000	1	0.989250
16.116667	1	0.993625
16.133333	1	0.997625
16.150000	1	1.001000
16.166667	1	1.004250
16.183333	1	1.007000
16.200000	1	1.009250
16.216667	1	1.010875
16.233333	1	1.011875
16.250000	1	1.011250
16.266667	1	1.009875
16.283333	1	1.008250
16.300000	1	1.006250
16.316667	1	1.004625
16.333333	1	1.003000
16.350000	1	1.002125
16.366667	1	1.002250
16.383333	1	1.002875
16.400000	1	1.005375
16.416667	1	1.008750
16.433333	1	1.014000
16.450000	1	1.019875
16.466667	1	1.025500
16.483333	1	1.032750
16.500000	1	1.039625
16.516667	1	1.045500
16.533333	1	1.049750
16.550000	1	1.052500
16.566667	1	1.054250
16.583333	1	1.054750
16.600000	1	1.053250
16.616667	1	1.051000
16.633333	1	1.047375
16.650000	1	1.044125
16.666667	1	1.040250
16.683333	1	1.037750
16.700000	1	1.035750
16.716667	1	1.036250
16.733333	1	1.037750
16.750000	1	1.041250
16.766667	1	1.046750
16.783333	1	1.054125
16.800000	1	1.062125
16.816667	1	1.071375
16.833333	1	1.080500
16.850000	1	1.089500
16.866667	1	1.098125
16.883333	1	1.104875
16.900000	1	1.110125
16.916667	1	1.113500
16.933333	1	1.115750
16.950000	1	1.115375
16.966667	1	1.114250
16.983333	1	1.111375
17.000000	1	1.107625
17.016667	1	1.102875
17.033333	1	1.098000
17.050000	1	1.093500
17.066667	1	1.089500
17.083333	1	1.085000
17.100000	1	1.081125
17.116667	1	1.078375
17.133333	1	1.075875
17.150000	1	1.073750
17.166667	1	1.073375
17.183333	1	1.073125
17.200000	1	1.072500
17.216667	1	1.072750
17.233333	1	1.073750
17.250000	1	1.074875
17.266667	1	1.076625
17.283333	1	1.078750
17.300000	1	1.081125
17.316667	1	1.084000
17.333333	1	1.086875
17.350000	1	1.089500
17.366667	1	1.092125
17.383333	1	1.094500
17.400000	1	1.096125
17.416667	1	1.096625
17.433333	1	1.097125
17.450000	1	1.096125
17.466667	1	1.094750
17.483333	1	1.091375
17.500000	1	1.086250
17.516667	1	1.079625
17.533333	1	1.072250
17.550000	1	1.063375
17.566667	1	1.053375
17.583333	1	1.042000
17.600000	1	1.029125
17.616667	1	1.016250
17.633333	1	1.002625
17.650000	1	0.988125
17.666667	1	0.973750
17.683333	1	0.959125
17.700000	1	0.944875
17.716667	1	0.931000
17.733333	1	0.917500
17.750000	1	0.904000
17.766667	1	0.891375
17.783333	1	0.880125
17.800000	1	0.869375
17.816667	1	0.860000
17.833333	1	0.850875
17.850000	1	0.843375
17.866667	1	0.835875
17.883333	1	0.830000
17.900000	1	0.824500
17.916667	1	0.819625
17.933333	1	0.814125
17.950000	1	0.809625
17.966667	1	0.805375
17.983333	1	0.801500
18.000000	1	0.797250
18.016667	1	0.793250
18.033333	1	0.789000
18.050000	1	0.784625
18.066667	1	0.780375
18.083333	1	0.776500
18.100000	1	0.773125
18.116667	1	0.770375
18.133333	1	0.768125
18.150000	1	0.766875
18.166667	1	0.766125
18.183333	1	0.765125
18.200000	1	0.764750
18.216667	1	0.764125
18.233333	1	0.764625
18.250000	1	0.764250
18.266667	1	0.764500
18.283333	1	0.763625
18.300000	1	0.763875
18.316667	1	0.764375
18.333333	1	0.763875
18.350000	1	0.764000
18.366667	1	0.764875
18.383333	1	0.766250
18.400000	1	0.768625
18.416667	1	0.772250
18.433333	1	0.777375
18.450000	1	0.784750
18.466667	1	0.793875
18.483333	1	0.804125
18.500000	1	0.816375
18.516667	1	0.831500
18.533333	1	0.848125
18.550000	1	0.867250
18.566667	1	0.887875
18.583333	1	0.911500
18.600000	1	0.936750
18.616667	1	0.964250
18.633333	1	0.994000
18.650000	1	1.024875
18.666667	1	1.056500
18.683333	1	1.089875
18.700000	1	1.124625
18.716667	1	1.160625
18.733333	1	1.197500
18.750000	1	1.234000
18.766667	1	1.268875
18.783333	1	1.303625
18.800000	1	1.336500
18.816667	1	1.367125
18.833333	1	1.395125
18.850000	1	1.419750
18.866667	1	1.438875
18.883333	1	1.452750
18.900000	1	1.461375
18.916667	1	1.463500
18.933333	1	1.459375
18.950000	1	1.448625
18.966667	1	1.431500
18.983333	1	1.408250
19.000000	1	1.379750
19.016667	1	1.346875
19.033333	1	1.309875
19.050000	1	1.270125
19.066667	1	1.227750
19.083333	1	1.185250
19.100000	1	1.144750
19.116667	1	1.107375
19.133333	1	1.074750
19.150000	1	1.048500
19.166667	1	1.030250
19.183333	1	1.022250
19.200000	1	1.026125
19.216667	1	1.045375
19.233333	1	1.081125
19.250000	1	1.135750
19.266667	1	1.210375
19.283333	1	1.305625
19.300000	1	1.422750
19.316667	1	1.561375
19.333333	1	1.720125
19.350000	1	1.896125
19.366667	1	2.086625
19.383333	1	2.286750
19.400000	1	2.490125
19.416667	1	2.692875
19.433333	1	2.887375
19.450000	1	3.067750
19.466667	1	3.227250
19.483333	1	3.361375
19.500000	1	3.465750
19.516667	1	3.538250
19.533333	1	3.577750
19.550000	1	3.583875
19.566667	1	3.558125
19.583333	1	3.503125
19.600000	1	3.421625
19.616667	1	3.317750
19.633333	1	3.195125
19.650000	1	3.059625
19.666667	1	2.915250
19.683333	1	2.764500
19.700000	1	2.612875
19.716667	1	2.462750
19.733333	1	2.315000
19.750000	1	2.172000
19.766667	1	2.035000
19.783333	1	1.905250
19.800000	1	1.782375
19.816667	1	1.667375
19.833333	1	1.559750
19.850000	1	1.459500
19.866667	1	1.366500
19.883333	1	1.281125
19.900000	1	1.202875
19.916667	1	1.132250
19.933333	1	1.068625
19.950000	1	1.012125
19.966667	1	0.962875
19.983333	1	0.921000
20.000000	1	0.887000
20.016667	1	0.861500
20.033333	1	0.843125
20.050000	1	0.833750
20.066667	1	0.833000
20.083333	1	0.841250
20.100000	1	0.858000
20.116667	1	0.882625
20.133333	1	0.913875
20.150000	1	0.951625
20.166667	1	0.993625
20.183333	1	1.039250
20.200000	1	1.086125
20.216667	1	1.132000
20.233333	1	1.176000
20.250000	1	1.215875
20.266667	1	1.248625
20.283333	1	1.273875
20.300000	1	1.291875
20.316667	1	1.299250
20.333333	1	1.297875
20.350000	1	1.286875
20.366667	1	1.267000
20.383333	1	1.239000
20.400000	1	1.204625
20.416667	1	1.164375
20.433333	1	1.120625
20.450000	1	1.075000
20.466667	1	1.028500
20.483333	1	0.982125
20.500000	1	0.939250
20.516667	1	0.900250
20.533333	1	0.865125
20.550000	1	0.836375
20.566667	1	0.814625
20.583333	1	0.799500
20.600000	1	0.793375
20.616667	1	0.795750
20.633333	1	0.807875
20.650000	1	0.829625
20.666667	1	0.861500
20.683333	1	0.902875
20.700000	1	0.953000
20.716667	1	1.011750
20.733333	1	1.077125
20.750000	1	1.147125
20.766667	1	1.219875
20.783333	1	1.293250
20.800000	1	1.364250
20.816667	1	1.431375
20.833333	1	1.490750
20.850000	1	1.541500
20.866667	1	1.581250
20.883333	1	1.608125
20.900000	1	1.622250
20.916667	1	1.623625
20.933333	1	1.611875
20.950000	1	1.587875
20.966667	1	1.552875
20.983333	1	1.508500
21.000000	1	1.456125
21.016667	1	1.398125
21.033333	1	1.336000
21.050000	1	1.271625
21.066667	1	1.207375
21.083333	1	1.142500
21.100000	1	1.080250
21.116667	1	1.021000
21.133333	1	0.965375
21.150000	1	0.913125
21.166667	1	0.864375
21.183333	1	0.820000
21.200000	1	0.779625
21.216667	1	0.743625
21.233333	1	0.711000
21.250000	1	0.681875
21.266667	1	0.655875
21.283333	1	0.633500
21.300000	1	0.613625
21.316667	1	0.596250
21.333333	1	0.580625
21.350000	1	0.567500
21.366667	1	0.555750
21.383333	1	0.546000
21.400000	1	0.536125
21.416667	1	0.528750
21.433333	1	0.521750
21.450000	1	0.515750
21.466667	1	0.511250
21.483333	1	0.508000
21.500000	1	0.505000
21.516667	1	0.503500
21.533333	1	0.502750
21.550000	1	0.503375
21.566667	1	0.504375
21.583333	1	0.507125
21.600000	1	0.511375
21.616667	1	0.516000
21.633333	1	0.523000
21.650000	1	0.531750
21.666667	1	0.541875
21.683333	1	0.554250
21.700000	1	0.569375
21.716667	1	0.586250
21.733333	1	0.605125
21.750000	1	0.625625
21.766667	1	0.647000
21.783333	1	0.670250
21.800000	1	0.693500
21.816667	1	0.717625
21.833333	1	0.741125
21.850000	1	0.763500
21.866667	1	0.784875
21.883333	1	0.805125
21.900000	1	0.822875
21.916667	1	0.837625
21.933333	1	0.849875
21.950000	1	0.859375
21.966667	1	0.865500
21.983333	1	0.869375
22.000000	1	0.869875
22.016667	1	0.867500
22.033333	1	0.862000
22.050000	1	0.855125
22.066667	1	0.845875
22.083333	1	0.835000
22.100000	1	0.822250
22.116667	1	0.808750
22.133333	1	0.794375
22.150000	1	0.778875
22.166667	1	0.763000
22.183333	1	0.746500
22.200000	1	0.729375
22.216667	1	0.712375
22.233333	1	0.694625
22.250000	1	0.677250
22.266667	1	0.660000
22.283333	1	0.642000
22.300000	1	0.624875
22.316667	1	0.606875
22.333333	1	0.590250
22.350000	1	0.572875
22.366667	1	0.556625
22.383333	1	0.540125
22.400000	1	0.525000
22.416667	1	0.510625
22.433333	1	0.496625
22.450000	1	0.483125
22.466667	1	0.471000
22.483333	1	0.459625
22.500000	1	0.448375
22.516667	1	0.438250
22.533333	1	0.429125
22.550000	1	0.420500
22.566667	1	0.412000
22.583333	1	0.403875
22.600000	1	0.396375
22.616667	1	0.389375
22.633333	1	0.383000
22.650000	1	0.376750
22.666667	1	0.370500
22.683333	1	0.365375
22.700000	1	0.359625
22.716667	1	0.354625
22.733333	1	0.349750
22.750000	1	0.345250
22.766667	1	0.340500
22.783333	1	0.335750
22.800000	1	0.331375
22.816667	1	0.327750
22.833333	1	0.324375
22.850000	1	0.321500
22.866667	1	0.319250
22.883333	1	0.317500
22.900000	1	0.316250
22.916667	1	0.315625
22.933333	1	0.314500
22.950000	1	0.314250
22.966667	1	0.315000
22.983333	1	0.316000
23.000000	1	0.317000
23.016667	1	0.318500
23.033333	1	0.321500
23.050000	1	0.324250
23.066667	1	0.327125
23.083333	1	0.330000
23.100000	1	0.333750
23.116667	1	0.336375
23.133333	1	0.339750
23.150000	1	0.342250
23.166667	1	0.345125
23.183333	1	0.347375
23.200000	1	0.350500
23.216667	1	0.352750
23.233333	1	0.355250
23.250000	1	0.358000
23.266667	1	0.361500
23.283333	1	0.367125
23.300000	1	0.373375
23.316667	1	0.382000
23.333333	1	0.394125
23.350000	1	0.409750
23.366667	1	0.431375
23.383333	1	0.460875
23.400000	1	0.500000
23.416667	1	0.550500
23.433333	1	0.615875
23.450000	1	0.698500
23.466667	1	0.801625
23.483333	1	0.929375
23.500000	1	1.085500
23.516667	1	1.272625
23.533333	1	1.493875
23.550000	1	1.752500
23.566667	1	2.050125
23.583333	1	2.386875
23.600000	1	2.761750
23.616667	1	3.174750
23.633333	1	3.621000
23.650000	1	4.095500
23.666667	1	4.592625
23.683333	1	5.104000
23.700000	1	5.619250
23.716667	1	6.128375
23.733333	1	6.621375
23.750000	1	7.085750
23.766667	1	7.511750
23.783333	1	7.887500
23.800000	1	8.204250
23.816667	1	8.457250
23.833333	1	8.640125
23.850000	1	8.750250
23.866667	1	8.788000
23.883333	1	8.755000
23.900000	1	8.654125
23.916667	1	8.490125
23.933333	1	8.269500
23.950000	1	7.999500
23.966667	1	7.688625
23.983333	1	7.345750
24.000000	1	6.979375
24.016667	1	6.598125
24.033333	1	6.207750
24.050000	1	5.817000
24.066667	1	5.429125
24.083333	1	5.050125
24.100000	1	4.683000
24.116667	1	4.331250
24.133333	1	3.996000
24.150000	1	3.679625
24.166667	1	3.382250
24.183333	1	3.105375
24.200000	1	2.848000
24.216667	1	2.610375
24.233333	1	2.390500
24.250000	1	2.189250
24.266667	1	2.004250
24.283333	1	1.835750
24.300000	1	1.681875
24.316667	1	1.541500
24.333333	1	1.414500
24.350000	1	1.300375
24.366667	1	1.198125
24.383333	1	1.105875
24.400000	1	1.024625
24.416667	1	0.952250
24.433333	1	0.888625
24.450000	1	0.832500
24.466667	1	0.783625
24.483333	1	0.740500
24.500000	1	0.703875
24.516667	1	0.671250
24.533333	1	0.643125
24.550000	1	0.619750
24.566667	1	0.598250
24.583333	1	0.579875
24.600000	1	0.562875
24.616667	1	0.547750
24.633333	1	0.534750
24.650000	1	0.523000
24.666667	1	0.511875
24.683333	1	0.502000
24.700000	1	0.492500
24.716667	1	0.483125
24.733333	1	0.474250
24.750000	1	0.465375
24.766667	1	0.456875
24.783333	1	0.448875
24.800000	1	0.439750
24.816667	1	0.430875
24.833333	1	0.422875
24.850000	1	0.415000
24.866667	1	0.407375
24.883333	1	0.400875
24.900000	1	0.394000
24.916667	1	0.388250
24.933333	1	0.382250
24.950000	1	0.377000
24.966667	1	0.372250
24.983333	1	0.368625
25.000000	1	0.365000
25.016667	1	0.362125
25.033333	1	0.359125
25.050000	1	0.357250
25.066667	1	0.356125
25.083333	1	0.354750
25.100000	1	0.354125
25.116667	1	0.353500
25.133333	1	0.353625
25.150000	1	0.353250
25.166667	1	0.353625
25.183333	1	0.354000
25.200000	1	0.354500
25.216667	1	0.354250
25.233333	1	0.354375
25.250000	1	0.353625
25.266667	1	0.354000
25.283333	1	0.353750
25.300000	1	0.353500
25.316667	1	0.353000
25.333333	1	0.352000
25.350000	1	0.350625
25.366667	1	0.349250
25.383333	1	0.347375
25.400000	1	0.345875
25.416667	1	0.343500
25.433333	1	0.341375
25.450000	1	0.339000
25.466667	1	0.335625
25.483333	1	0.333000
25.500000	1	0.330625
25.516667	1	0.328000
25.533333	1	0.325375
25.550000	1	0.323000
25.566667	1	0.320125
25.583333	1	0.317625
25.600000	1	0.314750
25.616667	1	0.312000
25.633333	1	0.309500
25.650000	1	0.306625
25.666667	1	0.304250
25.683333	1	0.302250
25.700000	1	0.299625
25.716667	1	0.298125
25.733333	1	0.296375
25.750000	1	0.294875
25.766667	1	0.293500
25.783333	1	0.291750
25.800000	1	0.290625
25.816667	1	0.290250
25.833333	1	0.289750
25.850000	1	0.288875
25.866667	1	0.288875
25.883333	1	0.289500
25.900000	1	0.291500
25.916667	1	0.292750
25.933333	1	0.294750
25.950000	1	0.297375
25.966667	1	0.300625
25.983333	1	0.304000
26.000000	1	0.308250
26.016667	1	0.312375
26.033333	1	0.317125
26.050000	1	0.322625
26.066667	1	0.328500
26.083333	1	0.334500
26.100000	1	0.340000
26.116667	1	0.346250
26.133333	1	0.353000
26.150000	1	0.359250
26.166667	1	0.366375
26.183333	1	0.373250
26.200000	1	0.379375
26.216667	1	0.386375
26.233333	1	0.392625
26.250000	1	0.399000
26.266667	1	0.405000
26.283333	1	0.410125
26.300000	1	0.414500
26.316667	1	0.418875
26.333333	1	0.422125
26.350000	1	0.425375
26.366667	1	0.427375
26.383333	1	0.428625
26.400000	1	0.429625
26.416667	1	0.430000
26.433333	1	0.429250
26.450000	1	0.428375
26.466667	1	0.426750
26.483333	1	0.424000
26.500000	1	0.422000
26.516667	1	0.418875
26.533333	1	0.416500
26.550000	1	0.412500
26.566667	1	0.408625
26.583333	1	0.405000
26.600000	1	0.400875
26.616667	1	0.396375
26.633333	1	0.391875
26.650000	1	0.387625
26.666667	1	0.383625
26.683333	1	0.380250
26.700000	1	0.376500
26.716667	1	0.372750
26.733333	1	0.369625
26.750000	1	0.366500
26.766667	1	0.364250
26.783333	1	0.362000
26.800000	1	0.359250
26.816667	1	0.357875
26.833333	1	0.355875
26.850000	1	0.354250
26.866667	1	0.353125
26.883333	1	0.351875
26.900000	1	0.350250
26.916667	1	0.349250
26.933333	1	0.348125
26.950000	1	0.347000
26.966667	1	0.345625
26.983333	1	0.344500
27.000000	1	0.343375
27.016667	1	0.343000
27.033333	1	0.341750
27.050000	1	0.341375
27.066667	1	0.340375
27.083333	1	0.339750
27.100000	1	0.339625
27.116667	1	0.338750
27.133333	1	0.338750
27.150000	1	0.338750
27.166667	1	0.339250
27.183333	1	0.340875
27.200000	1	0.343750
27.216667	1	0.347500
27.233333	1	0.352625
27.250000	1	0.358750
27.266667	1	0.367250
27.283333	1	0.377375
27.300000	1	0.390875
27.316667	1	0.407875
27.333333	1	0.428625
27.350000	1	0.453250
27.366667	1	0.483250
27.383333	1	0.519125
27.400000	1	0.562625
27.416667	1	0.613125
27.433333	1	0.672000
27.450000	1	0.739500
27.466667	1	0.817375
27.483333	1	0.906375
27.500000	1	1.005500
27.516667	1	1.117000
27.533333	1	1.240500
27.550000	1	1.374625
27.566667	1	1.519750
27.583333	1	1.676625
27.600000	1	1.842625
27.616667	1	2.018250
27.633333	1	2.200625
27.650000	1	2.388375
27.666667	1	2.579625
27.683333	1	2.772250
27.700000	1	2.964250
27.716667	1	3.150875
27.733333	1	3.330000
27.750000	1	3.499250
27.766667	1	3.654500
27.783333	1	3.795125
27.800000	1	3.917000
27.816667	1	4.018500
27.833333	1	4.097625
27.850000	1	4.153250
27.866667	1	4.185000
27.883333	1	4.192000
27.900000	1	4.174125
27.916667	1	4.132250
27.933333	1	4.067625
27.950000	1	3.982000
27.966667	1	3.877000
27.983333	1	3.755625
28.000000	1	3.619625
28.016667	1	3.472000
28.033333	1	3.314875
28.050000	1	3.151875
28.066667	1	2.984625
28.083333	1	2.815125
28.100000	1	2.646750
28.116667	1	2.480875
28.133333	1	2.318875
28.150000	1	2.162375
28.166667	1	2.012500
28.183333	1	1.870000
28.200000	1	1.735000
28.216667	1	1.608250
28.233333	1	1.489625
28.250000	1	1.379000
28.266667	1	1.276500
28.283333	1	1.182125
28.300000	1	1.095250
28.316667	1	1.016250
28.333333	1	0.943625
28.350000	1	0.878000
28.366667	1	0.819125
28.383333	1	0.766750
28.400000	1	0.719125
28.416667	1	0.677250
28.433333	1	0.640750
28.450000	1	0.608625
28.466667	1	0.581125
28.483333	1	0.558125
28.500000	1	0.539125
28.516667	1	0.523375
28.533333	1	0.510750
28.550000	1	0.500500
28.566667	1	0.494250
28.583333	1	0.490750
28.600000	1	0.489125
28.616667	1	0.489750
28.633333	1	0.493000
28.650000	1	0.498125
28.666667	1	0.504125
28.683333	1	0.511500
28.700000	1	0.519750
28.716667	1	0.528875
28.733333	1	0.539250
28.750000	1	0.549000
28.766667	1	0.559375
28.783333	1	0.569500
28.800000	1	0.579500
28.816667	1	0.589500
28.833333	1	0.599500
28.850000	1	0.608500
28.866667	1	0.616375
28.883333	1	0.622625
28.900000	1	0.627875
28.916667	1	0.632625
28.933333	1	0.636125
28.950000	1	0.638000
28.966667	1	0.638500
28.983333	1	0.637875
29.000000	1	0.635625
29.016667	1	0.632125
29.033333	1	0.626625
29.050000	1	0.619625
29.066667	1	0.610875
29.083333	1	0.600000
29.100000	1	0.587250
29.116667	1	0.573250
29.133333	1	0.556750
29.150000	1	0.538625
29.166667	1	0.518750
29.183333	1	0.497000
29.200000	1	0.473875
29.216667	1	0.447875
29.233333	1	0.420500
29.250000	1	0.391375
29.266667	1	0.360000
29.283333	1	0.325875
29.300000	1	0.289625
29.316667	1	0.251875
29.333333	1	0.211375
29.350000	1	0.169750
29.366667	1	0.126125
29.383333	1	0.081375
29.400000	1	0.034125
29.416667	1	-0.014250
29.433333	1	-0.063750
29.450000	1	-0.114500
29.466667	1	-0.165750
29.483333	1	-0.218375
29.500000	1	-0.270375
29.516667	1	-0.322750
29.533333	1	-0.373875
29.550000	1	-0.423500
29.566667	1	-0.471500
29.583333	1	-0.517750
29.600000	1	-0.561500
29.616667	1	-0.602500
29.633333	1	-0.641125
29.650000	1	-0.675375
29.666667	1	-0.706625
29.683333	1	-0.733875
29.700000	1	-0.756500
29.716667	1	-0.774625
29.733333	1	-0.788375
29.750000	1	-0.798500
29.766667	1	-0.803500
29.783333	1	-0.804750
29.800000	1	-0.801250
29.816667	1	-0.793625
29.833333	1	-0.782000
29.850000	1	-0.766750
29.866667	1	-0.748125
29.883333	1	-0.725875
29.900000	1	-0.701625
29.916667	1	-0.674750
29.933333	1	-0.645875
29.950000	1	-0.615250
29.966667	1	-0.584250
29.983333	1	-0.551250
30.000000	1	-0.517625
30.016667	1	-0.482875
30.033333	1	-0.448250
30.050000	1	-0.414125
30.066667	1	-0.380500
30.083333	1	-0.347500
30.100000	1	-0.315500
30.116667	1	-0.283875
30.133333	1	-0.253125
30.150000	1	-0.224375
30.166667	1	-0.196375
30.183333	1	-0.170125
30.200000	1	-0.145125
30.216667	1	-0.121125
30.233333	1	-0.099000
30.250000	1	-0.078125
30.266667	1	-0.059250
30.283333	1	-0.041500
30.300000	1	-0.024125
30.316667	1	-0.009000
30.333333	1	0.004500
30.350000	1	0.017625
30.366667	1	0.030125
30.383333	1	0.041000
30.400000	1	0.051750
30.416667	1	0.061750
30.433333	1	0.070375
30.450000	1	0.078250
30.466667	1	0.085875
30.483333	1	0.092250
30.500000	1	0.098875
30.516667	1	0.105375
30.533333	1	0.111250
30.550000	1	0.117000
30.566667	1	0.123250
30.583333	1	0.128750
30.600000	1	0.135375
30.616667	1	0.142250
30.633333	1	0.148750
30.650000	1	0.155125
30.666667	1	0.162250
30.683333	1	0.169375
30.700000	1	0.177250
30.716667	1	0.184000
30.733333	1	0.191500
30.750000	1	0.199500
30.766667	1	0.208500
30.783333	1	0.218250
30.800000	1	0.228000
30.816667	1	0.238000
30.833333	1	0.248500
30.850000	1	0.260000
30.866667	1	0.272125
30.883333	1	0.286000
30.900000	1	0.301375
30.916667	1	0.317750
30.933333	1	0.336375
30.950000	1	0.356375
30.966667	1	0.378875
30.983333	1	0.405625
31.000000	1	0.435625
31.016667	1	0.470500
31.033333	1	0.510375
31.050000	1	0.557000
31.066667	1	0.609250
31.083333	1	0.671750
31.100000	1	0.743125
31.116667	1	0.825500
31.133333	1	0.919500
31.150000	1	1.025875
31.166667	1	1.147000
31.183333	1	1.282750
31.200000	1	1.435375
31.216667	1	1.605250
31.233333	1	1.793125
31.250000	1	1.998625
31.266667	1	2.222500
31.283333	1	2.463875
31.300000	1	2.721875
31.316667	1	2.995750
31.333333	1	3.283250
31.350000	1	3.582375
31.366667	1	3.891000
31.383333	1	4.207125
31.400000	1	4.527250
31.416667	1	4.848125
31.433333	1	5.166375
31.450000	1	5.476625
31.466667	1	5.775500
31.483333	1	6.058875
31.500000	1	6.324375
31.516667	1	6.566500
31.533333	1	6.783500
31.550000	1	6.973250
31.566667	1	7.132500
31.583333	1	7.259875
31.600000	1	7.354375
31.616667	1	7.414250
31.633333	1	7.439375
31.650000	1	7.432000
31.666667	1	7.390375
31.683333	1	7.317250
31.700000	1	7.213500
31.716667	1	7.082625
31.733333	1	6.927125
31.750000	1	6.749375
31.766667	1	6.551750
31.783333	1	6.337375
31.800000	1	6.109375
31.816667	1	5.869875
31.833333	1	5.621625
31.850000	1	5.368125
31.866667	1	5.111125
31.883333	1	4.853750
31.900000	1	4.598500
31.916667	1	4.346375
31.933333	1	4.099000
31.950000	1	3.857500
31.966667	1	3.623125
31.983333	1	3.395875
32.000000	1	3.177500
32.016667	1	2.967625
32.033333	1	2.767625
32.050000	1	2.577750
32.066667	1	2.398125
32.083333	1	2.227375
32.100000	1	2.066250
32.116667	1	1.913750
32.133333	1	1.771000
32.150000	1	1.637125
32.166667	1	1.511500
32.183333	1	1.393750
32.200000	1	1.283875
32.216667	1	1.180625
32.233333	1	1.085250
32.250000	1	0.996625
32.266667	1	0.913750
32.283333	1	0.837375
32.300000	1	0.765875
32.316667	1	0.700625
32.333333	1	0.639625
32.350000	1	0.583875
32.366667	1	0.531750
32.383333	1	0.484375
32.400000	1	0.439750
32.416667	1	0.399500
32.433333	1	0.362250
32.450000	1	0.328250
32.466667	1	0.296750
32.483333	1	0.268125
32.500000	1	0.242000
32.516667	1	0.218500
32.533333	1	0.197500
32.550000	1	0.177125
32.566667	1	0.159500
32.583333	1	0.143250
32.600000	1	0.127250
32.616667	1	0.112875
32.633333	1	0.100625
32.650000	1	0.088625
32.666667	1	0.078625
32.683333	1	0.069250
32.700000	1	0.060625
32.716667	1	0.053000
32.733333	1	0.047000
32.750000	1	0.041250
32.766667	1	0.036375
32.783333	1	0.032000
32.800000	1	0.028250
32.816667	1	0.025250
32.833333	1	0.022875
32.850000	1	0.020250
32.866667	1	0.018750
32.883333	1	0.018250
32.900000	1	0.018500
32.916667	1	0.018250
32.933333	1	0.019750
32.950000	1	0.020500
32.966667	1	0.021500
32.983333	1	0.023875
33.000000	1	0.025500
33.016667	1	0.027250
33.033333	1	0.029250
33.050000	1	0.032375
33.066667	1	0.035125
33.083333	1	0.037625
33.100000	1	0.040250
33.116667	1	0.043750
33.133333	1	0.046375
33.150000	1	0.049375
33.166667	1	0.052250
33.183333	1	0.055500
33.200000	1	0.057750
33.216667	1	0.060000
33.233333	1	0.062250
33.250000	1	0.064750
33.266667	1	0.067000
33.283333	1	0.069125
33.300000	1	0.070875
33.316667	1	0.072375
33.333333	1	0.074000
33.350000	1	0.075750
33.366667	1	0.077500
33.383333	1	0.079375
33.400000	1	0.081625
33.416667	1	0.083625
33.433333	1	0.085500
33.450000	1	0.087375
33.466667	1	0.089375
33.483333	1	0.091250
33.500000	1	0.094000
33.516667	1	0.096250
33.533333	1	0.098375
33.550000	1	0.100875
33.566667	1	0.103625
33.583333	1	0.106250
33.600000	1	0.109375
33.616667	1	0.111875
33.633333	1	0.115125
33.650000	1	0.118500
33.666667	1	0.122375
33.683333	1	0.125250
33.700000	1	0.128125
33.716667	1	0.131375
33.733333	1	0.135000
33.750000	1	0.138875
33.766667	1	0.142625
33.783333	1	0.146500
33.800000	1	0.149500
33.816667	1	0.153250
33.833333	1	0.156625
33.850000	1	0.159375
33.866667	1	0.162000
33.883333	1	0.164875
33.900000	1	0.166625
33.916667	1	0.169125
33.933333	1	0.171125
33.950000	1	0.173375
33.966667	1	0.174750
33.983333	1	0.175125
34.000000	1	0.175875
34.016667	1	0.176500
34.033333	1	0.176500
34.050000	1	0.175625
34.066667	1	0.175750
34.083333	1	0.174500
34.100000	1	0.173625
34.116667	1	0.172250
34.133333	1	0.170250
34.150000	1	0.168500
34.166667	1	0.166625
34.183333	1	0.164750
34.200000	1	0.162625
34.216667	1	0.160625
34.233333	1	0.158750
34.250000	1	0.156500
34.266667	1	0.154125
34.283333	1	0.151625
34.300000	1	0.149500
34.316667	1	0.147625
34.333333	1	0.146375
34.350000	1	0.144875
34.366667	1	0.143625
34.383333	1	0.143000
34.400000	1	0.142375
34.416667	1	0.141875
34.433333	1	0.140625
34.450000	1	0.140125
34.466667	1	0.139500
34.483333	1	0.139500
34.500000	1	0.138750
34.516667	1	0.139000
34.533333	1	0.138875
34.550000	1	0.138875
34.566667	1	0.139250
34.583333	1	0.139000
34.600000	1	0.138500
34.616667	1	0.138375
34.633333	1	0.138875
34.650000	1	0.139000
34.666667	1	0.138750
34.683333	1	0.139125
34.700000	1	0.138500
34.716667	1	0.138125
34.733333	1	0.138500
34.750000	1	0.138500
34.766667	1	0.138750
34.783333	1	0.138500
34.800000	1	0.137875
34.816667	1	0.137000
34.833333	1	0.136250
34.850000	1	0.135750
34.866667	1	0.135875
34.883333	1	0.135125
34.900000	1	0.135125
34.916667	1	0.135375
34.933333	1	0.134750
34.950000	1	0.134125
34.966667	1	0.134625
34.983333	1	0.134000
35.000000	1	0.133250
35.016667	1	0.132750
35.033333	1	0.132625
35.050000	1	0.132000
35.066667	1	0.131500
35.083333	1	0.131000
35.100000	1	0.129875
35.116667	1	0.129625
35.133333	1	0.129250
35.150000	1	0.130625
35.166667	1	0.130500
35.183333	1	0.128500
35.200000	1	0.126500
35.216667	1	0.125250
35.233333	1	0.123500
35.250000	1	0.121375
35.266667	1	0.120500
35.283333	1	0.120125
35.300000	1	0.119125
35.316667	1	0.118125
35.333333	1	0.117000
35.350000	1	0.116500
35.366667	1	0.115750
35.383333	1	0.115125
35.400000	1	0.114750
35.416667	1	0.114750
35.433333	1	0.114750
35.450000	1	0.114875
35.466667	1	0.115750
35.483333	1	0.115875
35.500000	1	0.116625
35.516667	1	0.117750
35.533333	1	0.119750
35.550000	1	0.121250
35.566667	1	0.122250
35.583333	1	0.123750
35.600000	1	0.125875
35.616667	1	0.127125
35.633333	1	0.129375
35.650000	1	0.131125
35.666667	1	0.132875
35.683333	1	0.135125
35.700000	1	0.137125
35.716667	1	0.139375
35.733333	1	0.140500
35.750000	1	0.142000
35.766667	1	0.143625
35.783333	1	0.145375
35.800000	1	0.146625
35.816667	1	0.147625
35.833333	1	0.148125
35.850000	1	0.149375
35.866667	1	0.149375
35.883333	1	0.149250
35.900000	1	0.149500
35.916667	1	0.149000
35.933333	1	0.149000
35.950000	1	0.148750
35.966667	1	0.147750
35.983333	1	0.146750
36.000000	1	0.145625
36.016667	1	0.145125
36.033333	1	0.143500
36.050000	1	0.143125
36.066667	1	0.142375
36.083333	1	0.141500
36.100000	1	0.140625
36.116667	1	0.139500
36.133333	1	0.138625
36.150000	1	0.138250
36.166667	1	0.138375
36.183333	1	0.138000
36.200000	1	0.137625
36.216667	1	0.136875
36.233333	1	0.137125
36.250000	1	0.136750
36.266667	1	0.137250
36.283333	1	0.137750
36.300000	1	0.138500
36.316667	1	0.139250
36.333333	1	0.139375
36.350000	1	0.140125
36.366667	1	0.141375
36.383333	1	0.142875
36.400000	1	0.144500
36.416667	1	0.145500
36.433333	1	0.146750
36.450000	1	0.147500
36.466667	1	0.148875
36.483333	1	0.150125
36.500000	1	0.151125
36.516667	1	0.152000
36.533333	1	0.152375
36.550000	1	0.153125
36.566667	1	0.153375
36.583333	1	0.153125
36.600000	1	0.153500
36.616667	1	0.153500
36.633333	1	0.152750
36.650000	1	0.152375
36.666667	1	0.151375
36.683333	1	0.150625
36.700000	1	0.149750
36.716667	1	0.149250
36.733333	1	0.148875
36.750000	1	0.148375
36.766667	1	0.147250
36.783333	1	0.146500
36.800000	1	0.146625
36.816667	1	0.145500
36.833333	1	0.144625
36.850000	1	0.144500
36.866667	1	0.143875
36.883333	1	0.143000
36.900000	1	0.143500
36.916667	1	0.143125
36.933333	1	0.144000
36.950000	1	0.143750
36.966667	1	0.144625
36.983333	1	0.144375
37.000000	1	0.144625
37.016667	1	0.144875
37.033333	1	0.145625
37.050000	1	0.146500
37.066667	1	0.147250
37.083333	1	0.148000
37.100000	1	0.147875
37.116667	1	0.148500
37.133333	1	0.149000
37.150000	1	0.149375
37.166667	1	0.149750
37.183333	1	0.149750
37.200000	1	0.150375
37.216667	1	0.150625
37.233333	1	0.150750
37.250000	1	0.150875
37.266667	1	0.152000
37.283333	1	0.152375
37.300000	1	0.151625
37.316667	1	0.152375
37.333333	1	0.152000
37.350000	1	0.151500
37.366667	1	0.150875
37.383333	1	0.150875
37.400000	1	0.151000
37.416667	1	0.150500
37.433333	1	0.149750
37.450000	1	0.148500
37.466667	1	0.148000
37.483333	1	0.147125
37.500000	1	0.146625
37.516667	1	0.145750
37.533333	1	0.144875
37.550000	1	0.143125
37.566667	1	0.142375
37.583333	1	0.140625
37.600000	1	0.139500
37.616667	1	0.137375
37.633333	1	0.135250
37.650000	1	0.132250
37.666667	1	0.130000
37.683333	1	0.127000
37.700000	1	0.124500
37.716667	1	0.121500
37.733333	1	0.118375
37.750000	1	0.115250
37.766667	1	0.111875
37.783333	1	0.108500
37.800000	1	0.104250
37.816667	1	0.100125
37.833333	1	0.096000
37.850000	1	0.092250
37.866667	1	0.088375
37.883333	1	0.084750
37.900000	1	0.081500
37.916667	1	0.077625
37.933333	1	0.073875
37.950000	1	0.070750
37.966667	1	0.067000
37.983333	1	0.064125
38.000000	1	0.061125
38.016667	1	0.058625
38.033333	1	0.056000
38.050000	1	0.053000
38.066667	1	0.051375
38.083333	1	0.050125
38.100000	1	0.048375
38.116667	1	0.046875
38.133333	1	0.045625
38.150000	1	0.044500
38.166667	1	0.043625
38.183333	1	0.043250
38.200000	1	0.042000
38.216667	1	0.040750
38.233333	1	0.040250
38.250000	1	0.040125
38.266667	1	0.040250
38.283333	1	0.039625
38.300000	1	0.039375
38.316667	1	0.039000
38.333333	1	0.039500
38.350000	1	0.039500
38.366667	1	0.039000
38.383333	1	0.038625
38.400000	1	0.039000
38.416667	1	0.038750
38.433333	1	0.038750
38.450000	1	0.038500
38.466667	1	0.038875
38.483333	1	0.038875
38.500000	1	0.038750
38.516667	1	0.038750
38.533333	1	0.038250
38.550000	1	0.037750
38.566667	1	0.037875
38.583333	1	0.036875
38.600000	1	0.036125
38.616667	1	0.035250
38.633333	1	0.035000
38.650000	1	0.034375
38.666667	1	0.034250
38.683333	1	0.033750
38.700000	1	0.033750
38.716667	1	0.033750
38.733333	1	0.033375
38.750000	1	0.032750
38.766667	1	0.032625
38.783333	1	0.033125
38.800000	1	0.033250
38.816667	1	0.032750
38.833333	1	0.032250
38.850000	1	0.032000
38.866667	1	0.032250
38.883333	1	0.032750
38.900000	1	0.032375
38.916667	1	0.032250
38.933333	1	0.032250
38.950000	1	0.032250
38.966667	1	0.032000
38.983333	1	0.032000
39.000000	1	0.032000
39.016667	1	0.031625
39.033333	1	0.032250
39.050000	1	0.032125
39.066667	1	0.032750
39.083333	1	0.032750
39.100000	1	0.033500
39.116667	1	0.034250
39.133333	1	0.035500
39.150000	1	0.035500
39.166667	1	0.036375
39.183333	1	0.037000
39.200000	1	0.039250
39.216667	1	0.040125
39.233333	1	0.041500
39.250000	1	0.043125
39.266667	1	0.045250
39.283333	1	0.046875
39.300000	1	0.048625
39.316667	1	0.050125
39.333333	1	0.052125
39.350000	1	0.053375
39.366667	1	0.055000
39.383333	1	0.056750
39.400000	1	0.058250
39.416667	1	0.059875
39.433333	1	0.061375
39.450000	1	0.062625
39.466667	1	0.063750
39.483333	1	0.064500
39.500000	1	0.065125
39.516667	1	0.066625
39.533333	1	0.067250
39.550000	1	0.067250
39.566667	1	0.066750
39.583333	1	0.066500
39.600000	1	0.066000
39.616667	1	0.065750
39.633333	1	0.065000
39.650000	1	0.064875
39.666667	1	0.063750
39.683333	1	0.062625
39.700000	1	0.062250
39.716667	1	0.060750
39.733333	1	0.059250
39.750000	1	0.057875
39.766667	1	0.056125
39.783333	1	0.054750
39.800000	1	0.052750
39.816667	1	0.050750
39.833333	1	0.048500
39.850000	1	0.047000
39.866667	1	0.044875
39.883333	1	0.043125
39.900000	1	0.041625
39.916667	1	0.040000
39.933333	1	0.037625
39.950000	1	0.036750
39.966667	1	0.035375
39.983333	1	0.034250
40.000000	1	0.032625
