URL	chrom://7040-86g6c92/XVault/Ultimate_3000/20/20240517_CMO_FP23_FP25_MarkusDeplate.seq/433.smp/RI_1.channel/RI_1.chm
Channel	RI_1

Injection Information:
Data Vault	XVault
Sequence	20240517_CMO_FP23_FP25_MarkusDeplate
Name	FP25_22.2_s5
Number	83
Position	BG11
Comment	
Processing Method	
Instrument Method	run_25B_method
Type	Unknown
Status	Finished
Inject Time	30.05.2024 02:42:44 +02:00
Volume (µl)	20.0000
Dilution Factor	1.0000
Weight	1.0000

Chromatogram Data Information:
Time Min. (min)	0.000000
Time Max. (min)	40.000000
Data Points	2401
Detector	RI
Generating Data System	Chromeleon 7.3.2.11814
Exporting Data System	Chromeleon 7.3.2.0
Operator	Instrument Controller
Signal Quantity	Refractive 
Signal Unit	µRIU
Signal Min.	-0.826000
Signal Max.	53.311625
Channel	RI_1
Driver Name	RID520Driver.dll
Channel Type	Evaluation
Min. Step (s)	1
Max. Step (s)	1
Average Step (s)	1

Signal Parameter Information:
Signal Info	

Chromatogram Data:
Time (min)	Step (s)	Value (µRIU)
0.000000	n.a.	0.012000
0.016667	1	0.011375
0.033333	1	0.012125
0.050000	1	0.012375
0.066667	1	0.012375
0.083333	1	0.012625
0.100000	1	0.012875
0.116667	1	0.013250
0.133333	1	0.013250
0.150000	1	0.014625
0.166667	1	0.014875
0.183333	1	0.016250
0.200000	1	0.016625
0.216667	1	0.016750
0.233333	1	0.017875
0.250000	1	0.019625
0.266667	1	0.020875
0.283333	1	0.022125
0.300000	1	0.023000
0.316667	1	0.024375
0.333333	1	0.025500
0.350000	1	0.026125
0.366667	1	0.026625
0.383333	1	0.027000
0.400000	1	0.027000
0.416667	1	0.029125
0.433333	1	0.030875
0.450000	1	0.033500
0.466667	1	0.035625
0.483333	1	0.036625
0.500000	1	0.037625
0.516667	1	0.037625
0.533333	1	0.037625
0.550000	1	0.037000
0.566667	1	0.035875
0.583333	1	0.032250
0.600000	1	0.029125
0.616667	1	0.025000
0.633333	1	0.022125
0.650000	1	0.018875
0.666667	1	0.015875
0.683333	1	0.013125
0.700000	1	0.011375
0.716667	1	0.008875
0.733333	1	0.006625
0.750000	1	0.004125
0.766667	1	0.001625
0.783333	1	-0.001375
0.800000	1	-0.004250
0.816667	1	-0.006875
0.833333	1	-0.009000
0.850000	1	-0.011125
0.866667	1	-0.014125
0.883333	1	-0.016250
0.900000	1	-0.018625
0.916667	1	-0.020750
0.933333	1	-0.022875
0.950000	1	-0.025000
0.966667	1	-0.026875
0.983333	1	-0.028625
1.000000	1	-0.030875
1.016667	1	-0.032000
1.033333	1	-0.032750
1.050000	1	-0.033625
1.066667	1	-0.034875
1.083333	1	-0.035375
1.100000	1	-0.035750
1.116667	1	-0.036500
1.133333	1	-0.037125
1.150000	1	-0.037250
1.166667	1	-0.037375
1.183333	1	-0.036750
1.200000	1	-0.036250
1.216667	1	-0.036125
1.233333	1	-0.035375
1.250000	1	-0.034625
1.266667	1	-0.033875
1.283333	1	-0.033500
1.300000	1	-0.032750
1.316667	1	-0.032875
1.333333	1	-0.032500
1.350000	1	-0.031625
1.366667	1	-0.031000
1.383333	1	-0.030500
1.400000	1	-0.030375
1.416667	1	-0.030000
1.433333	1	-0.029500
1.450000	1	-0.029000
1.466667	1	-0.028750
1.483333	1	-0.028750
1.500000	1	-0.028625
1.516667	1	-0.028625
1.533333	1	-0.028625
1.550000	1	-0.029125
1.566667	1	-0.029125
1.583333	1	-0.029375
1.600000	1	-0.028500
1.616667	1	-0.028500
1.633333	1	-0.028375
1.650000	1	-0.027750
1.666667	1	-0.027375
1.683333	1	-0.026750
1.700000	1	-0.026500
1.716667	1	-0.025750
1.733333	1	-0.025375
1.750000	1	-0.025250
1.766667	1	-0.024250
1.783333	1	-0.023375
1.800000	1	-0.022125
1.816667	1	-0.020625
1.833333	1	-0.019250
1.850000	1	-0.017875
1.866667	1	-0.016125
1.883333	1	-0.014625
1.900000	1	-0.012500
1.916667	1	-0.011375
1.933333	1	-0.010000
1.950000	1	-0.008625
1.966667	1	-0.006500
1.983333	1	-0.004375
2.000000	1	-0.002375
2.016667	1	-0.000375
2.033333	1	0.001500
2.050000	1	0.003500
2.066667	1	0.006000
2.083333	1	0.007500
2.100000	1	0.008625
2.116667	1	0.009625
2.133333	1	0.010875
2.150000	1	0.011625
2.166667	1	0.012250
2.183333	1	0.012375
2.200000	1	0.012875
2.216667	1	0.013625
2.233333	1	0.013500
2.250000	1	0.013625
2.266667	1	0.013625
2.283333	1	0.013500
2.300000	1	0.012750
2.316667	1	0.012875
2.333333	1	0.011375
2.350000	1	0.011125
2.366667	1	0.011000
2.383333	1	0.010750
2.400000	1	0.009750
2.416667	1	0.009625
2.433333	1	0.009500
2.450000	1	0.008750
2.466667	1	0.007750
2.483333	1	0.007375
2.500000	1	0.007000
2.516667	1	0.007125
2.533333	1	0.006500
2.550000	1	0.006125
2.566667	1	0.005750
2.583333	1	0.005000
2.600000	1	0.005125
2.616667	1	0.005375
2.633333	1	0.005125
2.650000	1	0.004875
2.666667	1	0.004375
2.683333	1	0.005000
2.700000	1	0.005500
2.716667	1	0.006125
2.733333	1	0.006375
2.750000	1	0.006125
2.766667	1	0.005875
2.783333	1	0.005750
2.800000	1	0.005875
2.816667	1	0.005625
2.833333	1	0.005250
2.850000	1	0.004500
2.866667	1	0.004250
2.883333	1	0.003625
2.900000	1	0.003000
2.916667	1	0.003000
2.933333	1	0.002875
2.950000	1	0.002500
2.966667	1	0.002125
2.983333	1	0.001250
3.000000	1	0.000625
3.016667	1	0.000250
3.033333	1	0.000000
3.050000	1	-0.000500
3.066667	1	-0.001250
3.083333	1	-0.002125
3.100000	1	-0.002500
3.116667	1	-0.002250
3.133333	1	-0.002875
3.150000	1	-0.003000
3.166667	1	-0.003250
3.183333	1	-0.003000
3.200000	1	-0.003375
3.216667	1	-0.002750
3.233333	1	-0.002125
3.250000	1	-0.001750
3.266667	1	-0.001250
3.283333	1	-0.000750
3.300000	1	0.000625
3.316667	1	0.001500
3.333333	1	0.002500
3.350000	1	0.002875
3.366667	1	0.004375
3.383333	1	0.006000
3.400000	1	0.007250
3.416667	1	0.008750
3.433333	1	0.010375
3.450000	1	0.011500
3.466667	1	0.012750
3.483333	1	0.014625
3.500000	1	0.015750
3.516667	1	0.017000
3.533333	1	0.017750
3.550000	1	0.018500
3.566667	1	0.019000
3.583333	1	0.020625
3.600000	1	0.021375
3.616667	1	0.022250
3.633333	1	0.022375
3.650000	1	0.023625
3.666667	1	0.024625
3.683333	1	0.025500
3.700000	1	0.026000
3.716667	1	0.026750
3.733333	1	0.027000
3.750000	1	0.028000
3.766667	1	0.029000
3.783333	1	0.029875
3.800000	1	0.031000
3.816667	1	0.032750
3.833333	1	0.034000
3.850000	1	0.035125
3.866667	1	0.036250
3.883333	1	0.036375
3.900000	1	0.037125
3.916667	1	0.038125
3.933333	1	0.038875
3.950000	1	0.039875
3.966667	1	0.040750
3.983333	1	0.042250
4.000000	1	0.043375
4.016667	1	0.044625
4.033333	1	0.045625
4.050000	1	0.046875
4.066667	1	0.048000
4.083333	1	0.049750
4.100000	1	0.051125
4.116667	1	0.051875
4.133333	1	0.053000
4.150000	1	0.054125
4.166667	1	0.056000
4.183333	1	0.056750
4.200000	1	0.057250
4.216667	1	0.058375
4.233333	1	0.059250
4.250000	1	0.060375
4.266667	1	0.061875
4.283333	1	0.062500
4.300000	1	0.063000
4.316667	1	0.063625
4.333333	1	0.063375
4.350000	1	0.064500
4.366667	1	0.064125
4.383333	1	0.064625
4.400000	1	0.064750
4.416667	1	0.065125
4.433333	1	0.065000
4.450000	1	0.064500
4.466667	1	0.065000
4.483333	1	0.065625
4.500000	1	0.065875
4.516667	1	0.066375
4.533333	1	0.065875
4.550000	1	0.067000
4.566667	1	0.066875
4.583333	1	0.067125
4.600000	1	0.067250
4.616667	1	0.068000
4.633333	1	0.069000
4.650000	1	0.069750
4.666667	1	0.071000
4.683333	1	0.072000
4.700000	1	0.072250
4.716667	1	0.072875
4.733333	1	0.073875
4.750000	1	0.075250
4.766667	1	0.076125
4.783333	1	0.077000
4.800000	1	0.078125
4.816667	1	0.078750
4.833333	1	0.079375
4.850000	1	0.080375
4.866667	1	0.081625
4.883333	1	0.082500
4.900000	1	0.083500
4.916667	1	0.084125
4.933333	1	0.085375
4.950000	1	0.086625
4.966667	1	0.088750
4.983333	1	0.090000
5.000000	1	0.091500
5.016667	1	0.093000
5.033333	1	0.094250
5.050000	1	0.095875
5.066667	1	0.097625
5.083333	1	0.099125
5.100000	1	0.101625
5.116667	1	0.103875
5.133333	1	0.106250
5.150000	1	0.109125
5.166667	1	0.111875
5.183333	1	0.114250
5.200000	1	0.117625
5.216667	1	0.121375
5.233333	1	0.125500
5.250000	1	0.129375
5.266667	1	0.133000
5.283333	1	0.136375
5.300000	1	0.140375
5.316667	1	0.144500
5.333333	1	0.148875
5.350000	1	0.152875
5.366667	1	0.157500
5.383333	1	0.162750
5.400000	1	0.167000
5.416667	1	0.171500
5.433333	1	0.176250
5.450000	1	0.180250
5.466667	1	0.184625
5.483333	1	0.189000
5.500000	1	0.192750
5.516667	1	0.196750
5.533333	1	0.200375
5.550000	1	0.203750
5.566667	1	0.207250
5.583333	1	0.210375
5.600000	1	0.213250
5.616667	1	0.216000
5.633333	1	0.217750
5.650000	1	0.219750
5.666667	1	0.221875
5.683333	1	0.223500
5.700000	1	0.225750
5.716667	1	0.227250
5.733333	1	0.228375
5.750000	1	0.228875
5.766667	1	0.230250
5.783333	1	0.231500
5.800000	1	0.232375
5.816667	1	0.232625
5.833333	1	0.233500
5.850000	1	0.233875
5.866667	1	0.233875
5.883333	1	0.234500
5.900000	1	0.234625
5.916667	1	0.234750
5.933333	1	0.234625
5.950000	1	0.234875
5.966667	1	0.235125
5.983333	1	0.235125
6.000000	1	0.235000
6.016667	1	0.234625
6.033333	1	0.234875
6.050000	1	0.233750
6.066667	1	0.233375
6.083333	1	0.232875
6.100000	1	0.232625
6.116667	1	0.231250
6.133333	1	0.230000
6.150000	1	0.229125
6.166667	1	0.227500
6.183333	1	0.226250
6.200000	1	0.225250
6.216667	1	0.223250
6.233333	1	0.221375
6.250000	1	0.219000
6.266667	1	0.216375
6.283333	1	0.213500
6.300000	1	0.210875
6.316667	1	0.208375
6.333333	1	0.204750
6.350000	1	0.201250
6.366667	1	0.197875
6.383333	1	0.194125
6.400000	1	0.190125
6.416667	1	0.186000
6.433333	1	0.182125
6.450000	1	0.178500
6.466667	1	0.175000
6.483333	1	0.170875
6.500000	1	0.166875
6.516667	1	0.162375
6.533333	1	0.158125
6.550000	1	0.155000
6.566667	1	0.150375
6.583333	1	0.145875
6.600000	1	0.141125
6.616667	1	0.137250
6.633333	1	0.132625
6.650000	1	0.128750
6.666667	1	0.124625
6.683333	1	0.119750
6.700000	1	0.115750
6.716667	1	0.111375
6.733333	1	0.106875
6.750000	1	0.102250
6.766667	1	0.097875
6.783333	1	0.094125
6.800000	1	0.091000
6.816667	1	0.087375
6.833333	1	0.084000
6.850000	1	0.080250
6.866667	1	0.076750
6.883333	1	0.073250
6.900000	1	0.070000
6.916667	1	0.067250
6.933333	1	0.064750
6.950000	1	0.062500
6.966667	1	0.061000
6.983333	1	0.058625
7.000000	1	0.057875
7.016667	1	0.057625
7.033333	1	0.057250
7.050000	1	0.057000
7.066667	1	0.057125
7.083333	1	0.057375
7.100000	1	0.058375
7.116667	1	0.059750
7.133333	1	0.060875
7.150000	1	0.062250
7.166667	1	0.064625
7.183333	1	0.066875
7.200000	1	0.070000
7.216667	1	0.072750
7.233333	1	0.076125
7.250000	1	0.080000
7.266667	1	0.083625
7.283333	1	0.087375
7.300000	1	0.091875
7.316667	1	0.096250
7.333333	1	0.100750
7.350000	1	0.105625
7.366667	1	0.110625
7.383333	1	0.115125
7.400000	1	0.120250
7.416667	1	0.125250
7.433333	1	0.130375
7.450000	1	0.134750
7.466667	1	0.139625
7.483333	1	0.144125
7.500000	1	0.148375
7.516667	1	0.152875
7.533333	1	0.156875
7.550000	1	0.160250
7.566667	1	0.164250
7.583333	1	0.168500
7.600000	1	0.171875
7.616667	1	0.174375
7.633333	1	0.176750
7.650000	1	0.179250
7.666667	1	0.181000
7.683333	1	0.182125
7.700000	1	0.183625
7.716667	1	0.184625
7.733333	1	0.186000
7.750000	1	0.186750
7.766667	1	0.187125
7.783333	1	0.186750
7.800000	1	0.185375
7.816667	1	0.184250
7.833333	1	0.183375
7.850000	1	0.181375
7.866667	1	0.179125
7.883333	1	0.177000
7.900000	1	0.174875
7.916667	1	0.172375
7.933333	1	0.169500
7.950000	1	0.166125
7.966667	1	0.162750
7.983333	1	0.159250
8.000000	1	0.155375
8.016667	1	0.151250
8.033333	1	0.147750
8.050000	1	0.143750
8.066667	1	0.139500
8.083333	1	0.135375
8.100000	1	0.131750
8.116667	1	0.127625
8.133333	1	0.123125
8.150000	1	0.119250
8.166667	1	0.116000
8.183333	1	0.112500
8.200000	1	0.109125
8.216667	1	0.105500
8.233333	1	0.102500
8.250000	1	0.099500
8.266667	1	0.096875
8.283333	1	0.094375
8.300000	1	0.092125
8.316667	1	0.089375
8.333333	1	0.087000
8.350000	1	0.085375
8.366667	1	0.084125
8.383333	1	0.082750
8.400000	1	0.081500
8.416667	1	0.079250
8.433333	1	0.078000
8.450000	1	0.077125
8.466667	1	0.076125
8.483333	1	0.075375
8.500000	1	0.073625
8.516667	1	0.072625
8.533333	1	0.071625
8.550000	1	0.070250
8.566667	1	0.069000
8.583333	1	0.067125
8.600000	1	0.065625
8.616667	1	0.064000
8.633333	1	0.062250
8.650000	1	0.060750
8.666667	1	0.058500
8.683333	1	0.055750
8.700000	1	0.053125
8.716667	1	0.051125
8.733333	1	0.048250
8.750000	1	0.045750
8.766667	1	0.044000
8.783333	1	0.041750
8.800000	1	0.039625
8.816667	1	0.037750
8.833333	1	0.035500
8.850000	1	0.033500
8.866667	1	0.031125
8.883333	1	0.030000
8.900000	1	0.028750
8.916667	1	0.028500
8.933333	1	0.027750
8.950000	1	0.026875
8.966667	1	0.026625
8.983333	1	0.026000
9.000000	1	0.025625
9.016667	1	0.025625
9.033333	1	0.026000
9.050000	1	0.026875
9.066667	1	0.027750
9.083333	1	0.028375
9.100000	1	0.029625
9.116667	1	0.030375
9.133333	1	0.032000
9.150000	1	0.033000
9.166667	1	0.033750
9.183333	1	0.035125
9.200000	1	0.036375
9.216667	1	0.038250
9.233333	1	0.040000
9.250000	1	0.041250
9.266667	1	0.042125
9.283333	1	0.043000
9.300000	1	0.044875
9.316667	1	0.046250
9.333333	1	0.047750
9.350000	1	0.048750
9.366667	1	0.050750
9.383333	1	0.052250
9.400000	1	0.054000
9.416667	1	0.055375
9.433333	1	0.056500
9.450000	1	0.057875
9.466667	1	0.059625
9.483333	1	0.061000
9.500000	1	0.062375
9.516667	1	0.063500
9.533333	1	0.064000
9.550000	1	0.065750
9.566667	1	0.066625
9.583333	1	0.067375
9.600000	1	0.068125
9.616667	1	0.068875
9.633333	1	0.068750
9.650000	1	0.069250
9.666667	1	0.069375
9.683333	1	0.069250
9.700000	1	0.069000
9.716667	1	0.069125
9.733333	1	0.069625
9.750000	1	0.069000
9.766667	1	0.067875
9.783333	1	0.067000
9.800000	1	0.066875
9.816667	1	0.066250
9.833333	1	0.065500
9.850000	1	0.064000
9.866667	1	0.063125
9.883333	1	0.061625
9.900000	1	0.059875
9.916667	1	0.059125
9.933333	1	0.057750
9.950000	1	0.056500
9.966667	1	0.054750
9.983333	1	0.053125
10.000000	1	0.051750
10.016667	1	0.050625
10.033333	1	0.050125
10.050000	1	0.050125
10.066667	1	0.050750
10.083333	1	0.052125
10.100000	1	0.055000
10.116667	1	0.058625
10.133333	1	0.063500
10.150000	1	0.069875
10.166667	1	0.077250
10.183333	1	0.086125
10.200000	1	0.097375
10.216667	1	0.109000
10.233333	1	0.123250
10.250000	1	0.140125
10.266667	1	0.159625
10.283333	1	0.182000
10.300000	1	0.206375
10.316667	1	0.233375
10.333333	1	0.264375
10.350000	1	0.298750
10.366667	1	0.336500
10.383333	1	0.375125
10.400000	1	0.412500
10.416667	1	0.444125
10.433333	1	0.461500
10.450000	1	0.455125
10.466667	1	0.419000
10.483333	1	0.356375
10.500000	1	0.287125
10.516667	1	0.252375
10.533333	1	0.318000
10.550000	1	0.565250
10.566667	1	1.085125
10.583333	1	1.965875
10.600000	1	3.285750
10.616667	1	5.104375
10.633333	1	7.461125
10.650000	1	10.373375
10.666667	1	13.844125
10.683333	1	17.853375
10.700000	1	22.354000
10.716667	1	27.261750
10.733333	1	32.444750
10.750000	1	37.706500
10.766667	1	42.764250
10.783333	1	47.260000
10.800000	1	50.771375
10.816667	1	52.887250
10.833333	1	53.311625
10.850000	1	51.968375
10.866667	1	49.034875
10.883333	1	44.893875
10.900000	1	40.032250
10.916667	1	34.920875
10.933333	1	29.929875
10.950000	1	25.307750
10.966667	1	21.190500
10.983333	1	17.628250
11.000000	1	14.616375
11.016667	1	12.117750
11.033333	1	10.078000
11.050000	1	8.429875
11.066667	1	7.109125
11.083333	1	6.055125
11.100000	1	5.214375
11.116667	1	4.540375
11.133333	1	3.998125
11.150000	1	3.558625
11.166667	1	3.199625
11.183333	1	2.903250
11.200000	1	2.657375
11.216667	1	2.450375
11.233333	1	2.274750
11.250000	1	2.124625
11.266667	1	1.995625
11.283333	1	1.883000
11.300000	1	1.784750
11.316667	1	1.698875
11.333333	1	1.624000
11.350000	1	1.557125
11.366667	1	1.498000
11.383333	1	1.444750
11.400000	1	1.398250
11.416667	1	1.356250
11.433333	1	1.318625
11.450000	1	1.284000
11.466667	1	1.254125
11.483333	1	1.226125
11.500000	1	1.200375
11.516667	1	1.177625
11.533333	1	1.156625
11.550000	1	1.137875
11.566667	1	1.120500
11.583333	1	1.106000
11.600000	1	1.092500
11.616667	1	1.080750
11.633333	1	1.071125
11.650000	1	1.062500
11.666667	1	1.055500
11.683333	1	1.050750
11.700000	1	1.047750
11.716667	1	1.045750
11.733333	1	1.045875
11.750000	1	1.047000
11.766667	1	1.049500
11.783333	1	1.053875
11.800000	1	1.058250
11.816667	1	1.063250
11.833333	1	1.068125
11.850000	1	1.072500
11.866667	1	1.077375
11.883333	1	1.082125
11.900000	1	1.086625
11.916667	1	1.090375
11.933333	1	1.094375
11.950000	1	1.098500
11.966667	1	1.102625
11.983333	1	1.107500
12.000000	1	1.113125
12.016667	1	1.118750
12.033333	1	1.124500
12.050000	1	1.131500
12.066667	1	1.138000
12.083333	1	1.145250
12.100000	1	1.152375
12.116667	1	1.161000
12.133333	1	1.170500
12.150000	1	1.181125
12.166667	1	1.193500
12.183333	1	1.207125
12.200000	1	1.222125
12.216667	1	1.240750
12.233333	1	1.261250
12.250000	1	1.285000
12.266667	1	1.311000
12.283333	1	1.339375
12.300000	1	1.370375
12.316667	1	1.404250
12.333333	1	1.441750
12.350000	1	1.484750
12.366667	1	1.535500
12.383333	1	1.598875
12.400000	1	1.679000
12.416667	1	1.783750
12.433333	1	1.920875
12.450000	1	2.098250
12.466667	1	2.325375
12.483333	1	2.608250
12.500000	1	2.952250
12.516667	1	3.359375
12.533333	1	3.828000
12.550000	1	4.350875
12.566667	1	4.918625
12.583333	1	5.518125
12.600000	1	6.134750
12.616667	1	6.751375
12.633333	1	7.353750
12.650000	1	7.930000
12.666667	1	8.471125
12.683333	1	8.970750
12.700000	1	9.428875
12.716667	1	9.845250
12.733333	1	10.221250
12.750000	1	10.557500
12.766667	1	10.847250
12.783333	1	11.075250
12.800000	1	11.216750
12.816667	1	11.237000
12.833333	1	11.102500
12.850000	1	10.794375
12.866667	1	10.316750
12.883333	1	9.703250
12.900000	1	9.006125
12.916667	1	8.280125
12.933333	1	7.567625
12.950000	1	6.894750
12.966667	1	6.274000
12.983333	1	5.709000
13.000000	1	5.200750
13.016667	1	4.749750
13.033333	1	4.353000
13.050000	1	4.007875
13.066667	1	3.710500
13.083333	1	3.456500
13.100000	1	3.239250
13.116667	1	3.053875
13.133333	1	2.895625
13.150000	1	2.758875
13.166667	1	2.641250
13.183333	1	2.537375
13.200000	1	2.445500
13.216667	1	2.363875
13.233333	1	2.290125
13.250000	1	2.222000
13.266667	1	2.159625
13.283333	1	2.101750
13.300000	1	2.048500
13.316667	1	1.998000
13.333333	1	1.951250
13.350000	1	1.907125
13.366667	1	1.867250
13.383333	1	1.831125
13.400000	1	1.798125
13.416667	1	1.768625
13.433333	1	1.742875
13.450000	1	1.720125
13.466667	1	1.701750
13.483333	1	1.687250
13.500000	1	1.674875
13.516667	1	1.665625
13.533333	1	1.658375
13.550000	1	1.652750
13.566667	1	1.648500
13.583333	1	1.644000
13.600000	1	1.637375
13.616667	1	1.630000
13.633333	1	1.620500
13.650000	1	1.608375
13.666667	1	1.593125
13.683333	1	1.575125
13.700000	1	1.555125
13.716667	1	1.533625
13.733333	1	1.511375
13.750000	1	1.488875
13.766667	1	1.465500
13.783333	1	1.443250
13.800000	1	1.421625
13.816667	1	1.400750
13.833333	1	1.381000
13.850000	1	1.362750
13.866667	1	1.345750
13.883333	1	1.329250
13.900000	1	1.314125
13.916667	1	1.299500
13.933333	1	1.286125
13.950000	1	1.273250
13.966667	1	1.261625
13.983333	1	1.249750
14.000000	1	1.239000
14.016667	1	1.228000
14.033333	1	1.217875
14.050000	1	1.209125
14.066667	1	1.201000
14.083333	1	1.192250
14.100000	1	1.183375
14.116667	1	1.175375
14.133333	1	1.168375
14.150000	1	1.162125
14.166667	1	1.156250
14.183333	1	1.151375
14.200000	1	1.147625
14.216667	1	1.146250
14.233333	1	1.145625
14.250000	1	1.147000
14.266667	1	1.150000
14.283333	1	1.155125
14.300000	1	1.162500
14.316667	1	1.171750
14.333333	1	1.182750
14.350000	1	1.195375
14.366667	1	1.208750
14.383333	1	1.224125
14.400000	1	1.241500
14.416667	1	1.262375
14.433333	1	1.287750
14.450000	1	1.323125
14.466667	1	1.376125
14.483333	1	1.456250
14.500000	1	1.578125
14.516667	1	1.764000
14.533333	1	2.043250
14.550000	1	2.453750
14.566667	1	3.041000
14.583333	1	3.856500
14.600000	1	4.960625
14.616667	1	6.415375
14.633333	1	8.282375
14.650000	1	10.608500
14.666667	1	13.425375
14.683333	1	16.732875
14.700000	1	20.492625
14.716667	1	24.628750
14.733333	1	29.028000
14.750000	1	33.536125
14.766667	1	37.972000
14.783333	1	42.136750
14.800000	1	45.839250
14.816667	1	48.902875
14.833333	1	51.181500
14.850000	1	52.576250
14.866667	1	53.040250
14.883333	1	52.587500
14.900000	1	51.283125
14.916667	1	49.238875
14.933333	1	46.595000
14.950000	1	43.508125
14.966667	1	40.136375
14.983333	1	36.631750
15.000000	1	33.115000
15.016667	1	29.686250
15.033333	1	26.424500
15.050000	1	23.381625
15.066667	1	20.589750
15.083333	1	18.064250
15.100000	1	15.805875
15.116667	1	13.803375
15.133333	1	12.041500
15.150000	1	10.498375
15.166667	1	9.155000
15.183333	1	7.989000
15.200000	1	6.980375
15.216667	1	6.110500
15.233333	1	5.363500
15.250000	1	4.725625
15.266667	1	4.184125
15.283333	1	3.728500
15.300000	1	3.348625
15.316667	1	3.035875
15.333333	1	2.781625
15.350000	1	2.579000
15.366667	1	2.418375
15.383333	1	2.294750
15.400000	1	2.200750
15.416667	1	2.130375
15.433333	1	2.077125
15.450000	1	2.035625
15.466667	1	2.000750
15.483333	1	1.970500
15.500000	1	1.939625
15.516667	1	1.906500
15.533333	1	1.870875
15.550000	1	1.832625
15.566667	1	1.790875
15.583333	1	1.747375
15.600000	1	1.702500
15.616667	1	1.658125
15.633333	1	1.614625
15.650000	1	1.572750
15.666667	1	1.532500
15.683333	1	1.494375
15.700000	1	1.459125
15.716667	1	1.426000
15.733333	1	1.394500
15.750000	1	1.365250
15.766667	1	1.338250
15.783333	1	1.312625
15.800000	1	1.288000
15.816667	1	1.264250
15.833333	1	1.242625
15.850000	1	1.221625
15.866667	1	1.202750
15.883333	1	1.185750
15.900000	1	1.170375
15.916667	1	1.157250
15.933333	1	1.146250
15.950000	1	1.137125
15.966667	1	1.130375
15.983333	1	1.126250
16.000000	1	1.123750
16.016667	1	1.123125
16.033333	1	1.123750
16.050000	1	1.125000
16.066667	1	1.128000
16.083333	1	1.131750
16.100000	1	1.135125
16.116667	1	1.139500
16.133333	1	1.142375
16.150000	1	1.145625
16.166667	1	1.148125
16.183333	1	1.149875
16.200000	1	1.150500
16.216667	1	1.150375
16.233333	1	1.149625
16.250000	1	1.148125
16.266667	1	1.146125
16.283333	1	1.143250
16.300000	1	1.140250
16.316667	1	1.136750
16.333333	1	1.134500
16.350000	1	1.133000
16.366667	1	1.132375
16.383333	1	1.133875
16.400000	1	1.135375
16.416667	1	1.138125
16.433333	1	1.143125
16.450000	1	1.148000
16.466667	1	1.154125
16.483333	1	1.160250
16.500000	1	1.165875
16.516667	1	1.171000
16.533333	1	1.174750
16.550000	1	1.176750
16.566667	1	1.177375
16.583333	1	1.175750
16.600000	1	1.173500
16.616667	1	1.170125
16.633333	1	1.165125
16.650000	1	1.160125
16.666667	1	1.155625
16.683333	1	1.151500
16.700000	1	1.148000
16.716667	1	1.145750
16.733333	1	1.145500
16.750000	1	1.146750
16.766667	1	1.149875
16.783333	1	1.154625
16.800000	1	1.160375
16.816667	1	1.167625
16.833333	1	1.174625
16.850000	1	1.181250
16.866667	1	1.187375
16.883333	1	1.193000
16.900000	1	1.196000
16.916667	1	1.197625
16.933333	1	1.196875
16.950000	1	1.196000
16.966667	1	1.193500
16.983333	1	1.189875
17.000000	1	1.184625
17.016667	1	1.179000
17.033333	1	1.172625
17.050000	1	1.166750
17.066667	1	1.160875
17.083333	1	1.155875
17.100000	1	1.150500
17.116667	1	1.146750
17.133333	1	1.142750
17.150000	1	1.140000
17.166667	1	1.138125
17.183333	1	1.137250
17.200000	1	1.137000
17.216667	1	1.136750
17.233333	1	1.137750
17.250000	1	1.138875
17.266667	1	1.141000
17.283333	1	1.143875
17.300000	1	1.147000
17.316667	1	1.150000
17.333333	1	1.153500
17.350000	1	1.157000
17.366667	1	1.161125
17.383333	1	1.164625
17.400000	1	1.168250
17.416667	1	1.170750
17.433333	1	1.172000
17.450000	1	1.172125
17.466667	1	1.171125
17.483333	1	1.168375
17.500000	1	1.163625
17.516667	1	1.157375
17.533333	1	1.150125
17.550000	1	1.142000
17.566667	1	1.132000
17.583333	1	1.120750
17.600000	1	1.108000
17.616667	1	1.095250
17.633333	1	1.082500
17.650000	1	1.068375
17.666667	1	1.053875
17.683333	1	1.040375
17.700000	1	1.026875
17.716667	1	1.014250
17.733333	1	1.002000
17.750000	1	0.990750
17.766667	1	0.980500
17.783333	1	0.971000
17.800000	1	0.961875
17.816667	1	0.954500
17.833333	1	0.947250
17.850000	1	0.940625
17.866667	1	0.935250
17.883333	1	0.929625
17.900000	1	0.924625
17.916667	1	0.920250
17.933333	1	0.915625
17.950000	1	0.910500
17.966667	1	0.905500
17.983333	1	0.900375
18.000000	1	0.896000
18.016667	1	0.890250
18.033333	1	0.884375
18.050000	1	0.878750
18.066667	1	0.874250
18.083333	1	0.868625
18.100000	1	0.864125
18.116667	1	0.859250
18.133333	1	0.855500
18.150000	1	0.852125
18.166667	1	0.849250
18.183333	1	0.847000
18.200000	1	0.844875
18.216667	1	0.843125
18.233333	1	0.841000
18.250000	1	0.839625
18.266667	1	0.837750
18.283333	1	0.836375
18.300000	1	0.834500
18.316667	1	0.833250
18.333333	1	0.831750
18.350000	1	0.830500
18.366667	1	0.830750
18.383333	1	0.831250
18.400000	1	0.833375
18.416667	1	0.836875
18.433333	1	0.840500
18.450000	1	0.847000
18.466667	1	0.855375
18.483333	1	0.865500
18.500000	1	0.878375
18.516667	1	0.893375
18.533333	1	0.910250
18.550000	1	0.929125
18.566667	1	0.950750
18.583333	1	0.974250
18.600000	1	0.999875
18.616667	1	1.027375
18.633333	1	1.056750
18.650000	1	1.088125
18.666667	1	1.120125
18.683333	1	1.154000
18.700000	1	1.189000
18.716667	1	1.224375
18.733333	1	1.259875
18.750000	1	1.295750
18.766667	1	1.331375
18.783333	1	1.365000
18.800000	1	1.397625
18.816667	1	1.426125
18.833333	1	1.452375
18.850000	1	1.473875
18.866667	1	1.490875
18.883333	1	1.502625
18.900000	1	1.508750
18.916667	1	1.507875
18.933333	1	1.500250
18.950000	1	1.486125
18.966667	1	1.466000
18.983333	1	1.439875
19.000000	1	1.408000
19.016667	1	1.371750
19.033333	1	1.330875
19.050000	1	1.286875
19.066667	1	1.241250
19.083333	1	1.194125
19.100000	1	1.146625
19.116667	1	1.100125
19.133333	1	1.055000
19.150000	1	1.012250
19.166667	1	0.973250
19.183333	1	0.938625
19.200000	1	0.907625
19.216667	1	0.882500
19.233333	1	0.862375
19.250000	1	0.848625
19.266667	1	0.840250
19.283333	1	0.837750
19.300000	1	0.842250
19.316667	1	0.853125
19.333333	1	0.869750
19.350000	1	0.890875
19.366667	1	0.917375
19.383333	1	0.948125
19.400000	1	0.982250
19.416667	1	1.017875
19.433333	1	1.055375
19.450000	1	1.092750
19.466667	1	1.128750
19.483333	1	1.163125
19.500000	1	1.195625
19.516667	1	1.224125
19.533333	1	1.248875
19.550000	1	1.270125
19.566667	1	1.284625
19.583333	1	1.295625
19.600000	1	1.300875
19.616667	1	1.301625
19.633333	1	1.297125
19.650000	1	1.288625
19.666667	1	1.276125
19.683333	1	1.259625
19.700000	1	1.239875
19.716667	1	1.217125
19.733333	1	1.191625
19.750000	1	1.164500
19.766667	1	1.135500
19.783333	1	1.105250
19.800000	1	1.073750
19.816667	1	1.041625
19.833333	1	1.008750
19.850000	1	0.977000
19.866667	1	0.946375
19.883333	1	0.917625
19.900000	1	0.889375
19.916667	1	0.864125
19.933333	1	0.841500
19.950000	1	0.822000
19.966667	1	0.807000
19.983333	1	0.796125
20.000000	1	0.790250
20.016667	1	0.788375
20.033333	1	0.793250
20.050000	1	0.805250
20.066667	1	0.823125
20.083333	1	0.848000
20.100000	1	0.879750
20.116667	1	0.917125
20.133333	1	0.960375
20.150000	1	1.007875
20.166667	1	1.058250
20.183333	1	1.110125
20.200000	1	1.162375
20.216667	1	1.211750
20.233333	1	1.257625
20.250000	1	1.298250
20.266667	1	1.330875
20.283333	1	1.355125
20.300000	1	1.370000
20.316667	1	1.374750
20.333333	1	1.370000
20.350000	1	1.355375
20.366667	1	1.331625
20.383333	1	1.300500
20.400000	1	1.261750
20.416667	1	1.218625
20.433333	1	1.171625
20.450000	1	1.123500
20.466667	1	1.074500
20.483333	1	1.027625
20.500000	1	0.982875
20.516667	1	0.942500
20.533333	1	0.907125
20.550000	1	0.878625
20.566667	1	0.856875
20.583333	1	0.844000
20.600000	1	0.839750
20.616667	1	0.844875
20.633333	1	0.860500
20.650000	1	0.885625
20.666667	1	0.921125
20.683333	1	0.965750
20.700000	1	1.019625
20.716667	1	1.081125
20.733333	1	1.148250
20.750000	1	1.219125
20.766667	1	1.292500
20.783333	1	1.364500
20.800000	1	1.434375
20.816667	1	1.498000
20.833333	1	1.553750
20.850000	1	1.599750
20.866667	1	1.634500
20.883333	1	1.657125
20.900000	1	1.666125
20.916667	1	1.661500
20.933333	1	1.644750
20.950000	1	1.615875
20.966667	1	1.576750
20.983333	1	1.529250
21.000000	1	1.474375
21.016667	1	1.413875
21.033333	1	1.350250
21.050000	1	1.285125
21.066667	1	1.220250
21.083333	1	1.156875
21.100000	1	1.095625
21.116667	1	1.036875
21.133333	1	0.981875
21.150000	1	0.930125
21.166667	1	0.882625
21.183333	1	0.840000
21.200000	1	0.801375
21.216667	1	0.766500
21.233333	1	0.734750
21.250000	1	0.706625
21.266667	1	0.681875
21.283333	1	0.658750
21.300000	1	0.639125
21.316667	1	0.622750
21.333333	1	0.607500
21.350000	1	0.594125
21.366667	1	0.582375
21.383333	1	0.572375
21.400000	1	0.563375
21.416667	1	0.555125
21.433333	1	0.548000
21.450000	1	0.542125
21.466667	1	0.537750
21.483333	1	0.534250
21.500000	1	0.531875
21.516667	1	0.530375
21.533333	1	0.531250
21.550000	1	0.532750
21.566667	1	0.536125
21.583333	1	0.541500
21.600000	1	0.549625
21.616667	1	0.560000
21.633333	1	0.572875
21.650000	1	0.589125
21.666667	1	0.607750
21.683333	1	0.630125
21.700000	1	0.655750
21.716667	1	0.685250
21.733333	1	0.716750
21.750000	1	0.751000
21.766667	1	0.787250
21.783333	1	0.825625
21.800000	1	0.865000
21.816667	1	0.904125
21.833333	1	0.942000
21.850000	1	0.979000
21.866667	1	1.014125
21.883333	1	1.045875
21.900000	1	1.073250
21.916667	1	1.097375
21.933333	1	1.116500
21.950000	1	1.130625
21.966667	1	1.139375
21.983333	1	1.142875
22.000000	1	1.140875
22.016667	1	1.134250
22.033333	1	1.122875
22.050000	1	1.107625
22.066667	1	1.089125
22.083333	1	1.067875
22.100000	1	1.044750
22.116667	1	1.019750
22.133333	1	0.993000
22.150000	1	0.965125
22.166667	1	0.938000
22.183333	1	0.909625
22.200000	1	0.881500
22.216667	1	0.853000
22.233333	1	0.826250
22.250000	1	0.799125
22.266667	1	0.773000
22.283333	1	0.747875
22.300000	1	0.722875
22.316667	1	0.699375
22.333333	1	0.676875
22.350000	1	0.655250
22.366667	1	0.634625
22.383333	1	0.615500
22.400000	1	0.598625
22.416667	1	0.583625
22.433333	1	0.569500
22.450000	1	0.557875
22.466667	1	0.546625
22.483333	1	0.536750
22.500000	1	0.528250
22.516667	1	0.521000
22.533333	1	0.514250
22.550000	1	0.508375
22.566667	1	0.503125
22.583333	1	0.498500
22.600000	1	0.493125
22.616667	1	0.488500
22.633333	1	0.483500
22.650000	1	0.478250
22.666667	1	0.473375
22.683333	1	0.467875
22.700000	1	0.462000
22.716667	1	0.455625
22.733333	1	0.448750
22.750000	1	0.441250
22.766667	1	0.433875
22.783333	1	0.425375
22.800000	1	0.417375
22.816667	1	0.409125
22.833333	1	0.400625
22.850000	1	0.392375
22.866667	1	0.384375
22.883333	1	0.376750
22.900000	1	0.369125
22.916667	1	0.362000
22.933333	1	0.356250
22.950000	1	0.350750
22.966667	1	0.345375
22.983333	1	0.340375
23.000000	1	0.336625
23.016667	1	0.333125
23.033333	1	0.330000
23.050000	1	0.328500
23.066667	1	0.326500
23.083333	1	0.326000
23.100000	1	0.326500
23.116667	1	0.326500
23.133333	1	0.326750
23.150000	1	0.327500
23.166667	1	0.328750
23.183333	1	0.330125
23.200000	1	0.331375
23.216667	1	0.333125
23.233333	1	0.335375
23.250000	1	0.338625
23.266667	1	0.341500
23.283333	1	0.345875
23.300000	1	0.351625
23.316667	1	0.359125
23.333333	1	0.368875
23.350000	1	0.381125
23.366667	1	0.397875
23.383333	1	0.419250
23.400000	1	0.446250
23.416667	1	0.482125
23.433333	1	0.527000
23.450000	1	0.582625
23.466667	1	0.651375
23.483333	1	0.735750
23.500000	1	0.837125
23.516667	1	0.957750
23.533333	1	1.099125
23.550000	1	1.261625
23.566667	1	1.446750
23.583333	1	1.654500
23.600000	1	1.884250
23.616667	1	2.133875
23.633333	1	2.401875
23.650000	1	2.684750
23.666667	1	2.977375
23.683333	1	3.276250
23.700000	1	3.575625
23.716667	1	3.868750
23.733333	1	4.150000
23.750000	1	4.412625
23.766667	1	4.650875
23.783333	1	4.859375
23.800000	1	5.033375
23.816667	1	5.170250
23.833333	1	5.266375
23.850000	1	5.321750
23.866667	1	5.335625
23.883333	1	5.309875
23.900000	1	5.244625
23.916667	1	5.144250
23.933333	1	5.011875
23.950000	1	4.851875
23.966667	1	4.669125
23.983333	1	4.468750
24.000000	1	4.256000
24.016667	1	4.034875
24.033333	1	3.809000
24.050000	1	3.582125
24.066667	1	3.358125
24.083333	1	3.138625
24.100000	1	2.926000
24.116667	1	2.721875
24.133333	1	2.527500
24.150000	1	2.343250
24.166667	1	2.170625
24.183333	1	2.008250
24.200000	1	1.857625
24.216667	1	1.717750
24.233333	1	1.588500
24.250000	1	1.469250
24.266667	1	1.360250
24.283333	1	1.260750
24.300000	1	1.169625
24.316667	1	1.085750
24.333333	1	1.010875
24.350000	1	0.943750
24.366667	1	0.883125
24.383333	1	0.828750
24.400000	1	0.781000
24.416667	1	0.738625
24.433333	1	0.700625
24.450000	1	0.667875
24.466667	1	0.639625
24.483333	1	0.615500
24.500000	1	0.594000
24.516667	1	0.576125
24.533333	1	0.560500
24.550000	1	0.547250
24.566667	1	0.535125
24.583333	1	0.524750
24.600000	1	0.515500
24.616667	1	0.507375
24.633333	1	0.500750
24.650000	1	0.494250
24.666667	1	0.488250
24.683333	1	0.482375
24.700000	1	0.476500
24.716667	1	0.470375
24.733333	1	0.464875
24.750000	1	0.459875
24.766667	1	0.454000
24.783333	1	0.448375
24.800000	1	0.443125
24.816667	1	0.437875
24.833333	1	0.432875
24.850000	1	0.428500
24.866667	1	0.424250
24.883333	1	0.420500
24.900000	1	0.417125
24.916667	1	0.413500
24.933333	1	0.410125
24.950000	1	0.406500
24.966667	1	0.403625
24.983333	1	0.400625
25.000000	1	0.397375
25.016667	1	0.393875
25.033333	1	0.391500
25.050000	1	0.389125
25.066667	1	0.386000
25.083333	1	0.382875
25.100000	1	0.380250
25.116667	1	0.377125
25.133333	1	0.374000
25.150000	1	0.370750
25.166667	1	0.367500
25.183333	1	0.363625
25.200000	1	0.360000
25.216667	1	0.356500
25.233333	1	0.352750
25.250000	1	0.349500
25.266667	1	0.345875
25.283333	1	0.342000
25.300000	1	0.338125
25.316667	1	0.334125
25.333333	1	0.330375
25.350000	1	0.327250
25.366667	1	0.323625
25.383333	1	0.320625
25.400000	1	0.317375
25.416667	1	0.314875
25.433333	1	0.312000
25.450000	1	0.309500
25.466667	1	0.307750
25.483333	1	0.306375
25.500000	1	0.305625
25.516667	1	0.305125
25.533333	1	0.303750
25.550000	1	0.303125
25.566667	1	0.303250
25.583333	1	0.303500
25.600000	1	0.304375
25.616667	1	0.303750
25.633333	1	0.304500
25.650000	1	0.305250
25.666667	1	0.305250
25.683333	1	0.305125
25.700000	1	0.305625
25.716667	1	0.306125
25.733333	1	0.305750
25.750000	1	0.305875
25.766667	1	0.306125
25.783333	1	0.306125
25.800000	1	0.306125
25.816667	1	0.306125
25.833333	1	0.305875
25.850000	1	0.306500
25.866667	1	0.306625
25.883333	1	0.307375
25.900000	1	0.308250
25.916667	1	0.308875
25.933333	1	0.310875
25.950000	1	0.312875
25.966667	1	0.314750
25.983333	1	0.316625
26.000000	1	0.318750
26.016667	1	0.321750
26.033333	1	0.324750
26.050000	1	0.328875
26.066667	1	0.333000
26.083333	1	0.338125
26.100000	1	0.343625
26.116667	1	0.349500
26.133333	1	0.354750
26.150000	1	0.360750
26.166667	1	0.366625
26.183333	1	0.372375
26.200000	1	0.378125
26.216667	1	0.384250
26.233333	1	0.389875
26.250000	1	0.395125
26.266667	1	0.400625
26.283333	1	0.404875
26.300000	1	0.409500
26.316667	1	0.413375
26.333333	1	0.416125
26.350000	1	0.417875
26.366667	1	0.419500
26.383333	1	0.420250
26.400000	1	0.420125
26.416667	1	0.418875
26.433333	1	0.417625
26.450000	1	0.415750
26.466667	1	0.412875
26.483333	1	0.409000
26.500000	1	0.404625
26.516667	1	0.399750
26.533333	1	0.394750
26.550000	1	0.389500
26.566667	1	0.383375
26.583333	1	0.376750
26.600000	1	0.370125
26.616667	1	0.363750
26.633333	1	0.357125
26.650000	1	0.350250
26.666667	1	0.342875
26.683333	1	0.336375
26.700000	1	0.329625
26.716667	1	0.323750
26.733333	1	0.317000
26.750000	1	0.310750
26.766667	1	0.305250
26.783333	1	0.300000
26.800000	1	0.296125
26.816667	1	0.291750
26.833333	1	0.287875
26.850000	1	0.284250
26.866667	1	0.280750
26.883333	1	0.277875
26.900000	1	0.275250
26.916667	1	0.272875
26.933333	1	0.271375
26.950000	1	0.269625
26.966667	1	0.268000
26.983333	1	0.267000
27.000000	1	0.266125
27.016667	1	0.266125
27.033333	1	0.266000
27.050000	1	0.266750
27.066667	1	0.267250
27.083333	1	0.268250
27.100000	1	0.270125
27.116667	1	0.271875
27.133333	1	0.274875
27.150000	1	0.277875
27.166667	1	0.282000
27.183333	1	0.286125
27.200000	1	0.291500
27.216667	1	0.299000
27.233333	1	0.308500
27.250000	1	0.319625
27.266667	1	0.332375
27.283333	1	0.348000
27.300000	1	0.366750
27.316667	1	0.389250
27.333333	1	0.415500
27.350000	1	0.447000
27.366667	1	0.484500
27.383333	1	0.528875
27.400000	1	0.580375
27.416667	1	0.640250
27.433333	1	0.708625
27.450000	1	0.787750
27.466667	1	0.877125
27.483333	1	0.977125
27.500000	1	1.089375
27.516667	1	1.213375
27.533333	1	1.349000
27.550000	1	1.496750
27.566667	1	1.656375
27.583333	1	1.825750
27.600000	1	2.005125
27.616667	1	2.192375
27.633333	1	2.386375
27.650000	1	2.585250
27.666667	1	2.787000
27.683333	1	2.987875
27.700000	1	3.186875
27.716667	1	3.379625
27.733333	1	3.563125
27.750000	1	3.735250
27.766667	1	3.892000
27.783333	1	4.031125
27.800000	1	4.150750
27.816667	1	4.248125
27.833333	1	4.322375
27.850000	1	4.371750
27.866667	1	4.395875
27.883333	1	4.394625
27.900000	1	4.368250
27.916667	1	4.316125
27.933333	1	4.240625
27.950000	1	4.144000
27.966667	1	4.027500
27.983333	1	3.894625
28.000000	1	3.748000
28.016667	1	3.589875
28.033333	1	3.422500
28.050000	1	3.249000
28.066667	1	3.071500
28.083333	1	2.893750
28.100000	1	2.716625
28.116667	1	2.542000
28.133333	1	2.371750
28.150000	1	2.208125
28.166667	1	2.051875
28.183333	1	1.903875
28.200000	1	1.763500
28.216667	1	1.631500
28.233333	1	1.508125
28.250000	1	1.393375
28.266667	1	1.287250
28.283333	1	1.188625
28.300000	1	1.099000
28.316667	1	1.016000
28.333333	1	0.941500
28.350000	1	0.874250
28.366667	1	0.813375
28.383333	1	0.758500
28.400000	1	0.710375
28.416667	1	0.666500
28.433333	1	0.629125
28.450000	1	0.596125
28.466667	1	0.567125
28.483333	1	0.543125
28.500000	1	0.523250
28.516667	1	0.506875
28.533333	1	0.493500
28.550000	1	0.483500
28.566667	1	0.476500
28.583333	1	0.471875
28.600000	1	0.469750
28.616667	1	0.469750
28.633333	1	0.471625
28.650000	1	0.474750
28.666667	1	0.479750
28.683333	1	0.485375
28.700000	1	0.492375
28.716667	1	0.500625
28.733333	1	0.509625
28.750000	1	0.517750
28.766667	1	0.526875
28.783333	1	0.536000
28.800000	1	0.544750
28.816667	1	0.553625
28.833333	1	0.561875
28.850000	1	0.569375
28.866667	1	0.576750
28.883333	1	0.583250
28.900000	1	0.588750
28.916667	1	0.593625
28.933333	1	0.597125
28.950000	1	0.599875
28.966667	1	0.601875
28.983333	1	0.602250
29.000000	1	0.601500
29.016667	1	0.599125
29.033333	1	0.595250
29.050000	1	0.590125
29.066667	1	0.583125
29.083333	1	0.574500
29.100000	1	0.564750
29.116667	1	0.553500
29.133333	1	0.540125
29.150000	1	0.525125
29.166667	1	0.507375
29.183333	1	0.488250
29.200000	1	0.467000
29.216667	1	0.443750
29.233333	1	0.418250
29.250000	1	0.390625
29.266667	1	0.360000
29.283333	1	0.327500
29.300000	1	0.292125
29.316667	1	0.254750
29.333333	1	0.214750
29.350000	1	0.172750
29.366667	1	0.128500
29.383333	1	0.082625
29.400000	1	0.034625
29.416667	1	-0.014875
29.433333	1	-0.065750
29.450000	1	-0.118750
29.466667	1	-0.171875
29.483333	1	-0.224875
29.500000	1	-0.278875
29.516667	1	-0.331750
29.533333	1	-0.384500
29.550000	1	-0.436125
29.566667	1	-0.486000
29.583333	1	-0.533375
29.600000	1	-0.578125
29.616667	1	-0.620875
29.633333	1	-0.659750
29.650000	1	-0.695250
29.666667	1	-0.726500
29.683333	1	-0.753750
29.700000	1	-0.777250
29.716667	1	-0.796625
29.733333	1	-0.810625
29.750000	1	-0.820125
29.766667	1	-0.825375
29.783333	1	-0.826000
29.800000	1	-0.822500
29.816667	1	-0.814125
29.833333	1	-0.802125
29.850000	1	-0.786000
29.866667	1	-0.767250
29.883333	1	-0.745875
29.900000	1	-0.720625
29.916667	1	-0.693625
29.933333	1	-0.664500
29.950000	1	-0.634000
29.966667	1	-0.601375
29.983333	1	-0.567625
30.000000	1	-0.533875
30.016667	1	-0.499250
30.033333	1	-0.465750
30.050000	1	-0.431500
30.066667	1	-0.398250
30.083333	1	-0.365375
30.100000	1	-0.332875
30.116667	1	-0.300500
30.133333	1	-0.270750
30.150000	1	-0.242375
30.166667	1	-0.214750
30.183333	1	-0.188250
30.200000	1	-0.163750
30.216667	1	-0.139875
30.233333	1	-0.118250
30.250000	1	-0.098000
30.266667	1	-0.078250
30.283333	1	-0.060625
30.300000	1	-0.043875
30.316667	1	-0.028500
30.333333	1	-0.014250
30.350000	1	-0.001000
30.366667	1	0.011500
30.383333	1	0.022000
30.400000	1	0.033125
30.416667	1	0.043500
30.433333	1	0.052125
30.450000	1	0.060875
30.466667	1	0.069125
30.483333	1	0.076750
30.500000	1	0.084625
30.516667	1	0.091750
30.533333	1	0.098875
30.550000	1	0.105875
30.566667	1	0.113625
30.583333	1	0.121000
30.600000	1	0.128250
30.616667	1	0.134500
30.633333	1	0.142125
30.650000	1	0.150000
30.666667	1	0.157375
30.683333	1	0.165750
30.700000	1	0.174625
30.716667	1	0.183250
30.733333	1	0.191500
30.750000	1	0.200500
30.766667	1	0.209125
30.783333	1	0.218375
30.800000	1	0.227750
30.816667	1	0.238125
30.833333	1	0.248875
30.850000	1	0.260000
30.866667	1	0.271750
30.883333	1	0.284125
30.900000	1	0.297000
30.916667	1	0.311500
30.933333	1	0.326375
30.950000	1	0.343500
30.966667	1	0.361750
30.983333	1	0.382750
31.000000	1	0.407000
31.016667	1	0.434750
31.033333	1	0.465375
31.050000	1	0.501250
31.066667	1	0.542125
31.083333	1	0.587875
31.100000	1	0.639750
31.116667	1	0.700125
31.133333	1	0.767750
31.150000	1	0.843500
31.166667	1	0.929125
31.183333	1	1.024250
31.200000	1	1.130000
31.216667	1	1.246875
31.233333	1	1.375125
31.250000	1	1.513250
31.266667	1	1.662625
31.283333	1	1.822375
31.300000	1	1.992750
31.316667	1	2.171875
31.333333	1	2.358375
31.350000	1	2.550875
31.366667	1	2.748625
31.383333	1	2.950250
31.400000	1	3.153000
31.416667	1	3.355000
31.433333	1	3.553375
31.450000	1	3.745125
31.466667	1	3.928750
31.483333	1	4.102250
31.500000	1	4.263000
31.516667	1	4.408500
31.533333	1	4.536875
31.550000	1	4.646750
31.566667	1	4.736750
31.583333	1	4.806750
31.600000	1	4.855625
31.616667	1	4.882500
31.633333	1	4.887875
31.650000	1	4.871875
31.666667	1	4.835375
31.683333	1	4.778625
31.700000	1	4.703750
31.716667	1	4.611250
31.733333	1	4.503750
31.750000	1	4.382250
31.766667	1	4.248000
31.783333	1	4.102875
31.800000	1	3.950250
31.816667	1	3.790875
31.833333	1	3.626625
31.850000	1	3.458375
31.866667	1	3.289125
31.883333	1	3.120250
31.900000	1	2.952500
31.916667	1	2.786375
31.933333	1	2.623875
31.950000	1	2.466375
31.966667	1	2.313125
31.983333	1	2.164750
32.000000	1	2.021750
32.016667	1	1.885250
32.033333	1	1.754375
32.050000	1	1.630375
32.066667	1	1.513125
32.083333	1	1.402250
32.100000	1	1.297000
32.116667	1	1.197625
32.133333	1	1.105125
32.150000	1	1.018250
32.166667	1	0.936375
32.183333	1	0.860125
32.200000	1	0.788875
32.216667	1	0.722750
32.233333	1	0.660250
32.250000	1	0.602500
32.266667	1	0.549000
32.283333	1	0.499000
32.300000	1	0.453625
32.316667	1	0.412125
32.333333	1	0.373500
32.350000	1	0.338000
32.366667	1	0.305125
32.383333	1	0.275000
32.400000	1	0.247375
32.416667	1	0.221625
32.433333	1	0.198125
32.450000	1	0.177000
32.466667	1	0.157500
32.483333	1	0.139875
32.500000	1	0.125000
32.516667	1	0.111125
32.533333	1	0.097875
32.550000	1	0.086750
32.566667	1	0.076250
32.583333	1	0.067125
32.600000	1	0.059125
32.616667	1	0.051875
32.633333	1	0.045375
32.650000	1	0.040250
32.666667	1	0.035625
32.683333	1	0.031625
32.700000	1	0.028125
32.716667	1	0.025375
32.733333	1	0.022875
32.750000	1	0.021625
32.766667	1	0.019875
32.783333	1	0.019000
32.800000	1	0.018250
32.816667	1	0.018125
32.833333	1	0.018500
32.850000	1	0.019375
32.866667	1	0.019625
32.883333	1	0.020750
32.900000	1	0.021625
32.916667	1	0.022500
32.933333	1	0.024250
32.950000	1	0.025875
32.966667	1	0.027625
32.983333	1	0.029500
33.000000	1	0.030500
33.016667	1	0.031875
33.033333	1	0.034000
33.050000	1	0.035250
33.066667	1	0.036750
33.083333	1	0.038250
33.100000	1	0.039750
33.116667	1	0.041000
33.133333	1	0.042625
33.150000	1	0.044125
33.166667	1	0.045375
33.183333	1	0.046250
33.200000	1	0.047375
33.216667	1	0.048375
33.233333	1	0.050000
33.250000	1	0.051375
33.266667	1	0.052750
33.283333	1	0.054000
33.300000	1	0.055750
33.316667	1	0.057500
33.333333	1	0.059750
33.350000	1	0.061750
33.366667	1	0.063500
33.383333	1	0.065250
33.400000	1	0.067625
33.416667	1	0.069875
33.433333	1	0.071875
33.450000	1	0.074500
33.466667	1	0.076875
33.483333	1	0.078750
33.500000	1	0.081500
33.516667	1	0.084125
33.533333	1	0.087000
33.550000	1	0.089625
33.566667	1	0.091750
33.583333	1	0.094500
33.600000	1	0.096250
33.616667	1	0.098375
33.633333	1	0.101000
33.650000	1	0.103250
33.666667	1	0.105500
33.683333	1	0.107625
33.700000	1	0.109500
33.716667	1	0.111000
33.733333	1	0.112750
33.750000	1	0.114625
33.766667	1	0.116750
33.783333	1	0.118625
33.800000	1	0.120750
33.816667	1	0.122250
33.833333	1	0.124125
33.850000	1	0.125875
33.866667	1	0.127750
33.883333	1	0.129125
33.900000	1	0.131500
33.916667	1	0.133000
33.933333	1	0.134625
33.950000	1	0.136250
33.966667	1	0.137625
33.983333	1	0.138500
34.000000	1	0.139875
34.016667	1	0.141000
34.033333	1	0.142125
34.050000	1	0.142500
34.066667	1	0.142500
34.083333	1	0.143375
34.100000	1	0.144000
34.116667	1	0.143625
34.133333	1	0.143625
34.150000	1	0.143875
34.166667	1	0.143375
34.183333	1	0.142500
34.200000	1	0.141500
34.216667	1	0.140625
34.233333	1	0.138625
34.250000	1	0.137500
34.266667	1	0.135250
34.283333	1	0.134000
34.300000	1	0.131750
34.316667	1	0.129625
34.333333	1	0.127625
34.350000	1	0.125875
34.366667	1	0.123750
34.383333	1	0.122000
34.400000	1	0.119875
34.416667	1	0.118500
34.433333	1	0.116750
34.450000	1	0.115625
34.466667	1	0.114875
34.483333	1	0.113625
34.500000	1	0.113125
34.516667	1	0.113500
34.533333	1	0.113250
34.550000	1	0.113625
34.566667	1	0.113625
34.583333	1	0.114125
34.600000	1	0.114375
34.616667	1	0.115375
34.633333	1	0.115500
34.650000	1	0.115875
34.666667	1	0.117375
34.683333	1	0.118125
34.700000	1	0.119000
34.716667	1	0.119250
34.733333	1	0.120375
34.750000	1	0.122000
34.766667	1	0.123250
34.783333	1	0.123875
34.800000	1	0.124625
34.816667	1	0.126000
34.833333	1	0.126875
34.850000	1	0.127625
34.866667	1	0.127750
34.883333	1	0.128375
34.900000	1	0.128500
34.916667	1	0.129500
34.933333	1	0.130250
34.950000	1	0.130875
34.966667	1	0.130500
34.983333	1	0.130500
35.000000	1	0.130375
35.016667	1	0.129625
35.033333	1	0.129375
35.050000	1	0.128875
35.066667	1	0.128500
35.083333	1	0.128125
35.100000	1	0.126625
35.116667	1	0.125500
35.133333	1	0.124375
35.150000	1	0.122750
35.166667	1	0.121875
35.183333	1	0.120500
35.200000	1	0.119000
35.216667	1	0.117125
35.233333	1	0.115750
35.250000	1	0.113875
35.266667	1	0.112500
35.283333	1	0.111000
35.300000	1	0.109625
35.316667	1	0.108375
35.333333	1	0.107750
35.350000	1	0.107125
35.366667	1	0.107000
35.383333	1	0.107000
35.400000	1	0.106625
35.416667	1	0.106000
35.433333	1	0.106125
35.450000	1	0.106625
35.466667	1	0.107625
35.483333	1	0.108250
35.500000	1	0.109750
35.516667	1	0.110750
35.533333	1	0.112375
35.550000	1	0.114125
35.566667	1	0.116125
35.583333	1	0.118250
35.600000	1	0.120125
35.616667	1	0.122000
35.633333	1	0.124125
35.650000	1	0.126250
35.666667	1	0.128500
35.683333	1	0.130625
35.700000	1	0.132000
35.716667	1	0.134875
35.733333	1	0.136375
35.750000	1	0.138375
35.766667	1	0.140000
35.783333	1	0.141750
35.800000	1	0.142875
35.816667	1	0.143500
35.833333	1	0.143875
35.850000	1	0.143750
35.866667	1	0.144000
35.883333	1	0.144375
35.900000	1	0.145000
35.916667	1	0.145375
35.933333	1	0.145625
35.950000	1	0.144875
35.966667	1	0.144875
35.983333	1	0.145125
36.000000	1	0.145500
36.016667	1	0.146000
36.033333	1	0.145875
36.050000	1	0.146375
36.066667	1	0.147000
36.083333	1	0.147500
36.100000	1	0.148500
36.116667	1	0.149500
36.133333	1	0.150625
36.150000	1	0.152125
36.166667	1	0.153000
36.183333	1	0.153875
36.200000	1	0.155625
36.216667	1	0.156875
36.233333	1	0.158125
36.250000	1	0.160125
36.266667	1	0.161875
36.283333	1	0.163375
36.300000	1	0.165375
36.316667	1	0.167375
36.333333	1	0.168625
36.350000	1	0.170000
36.366667	1	0.171125
36.383333	1	0.172875
36.400000	1	0.173125
36.416667	1	0.173625
36.433333	1	0.174875
36.450000	1	0.175500
36.466667	1	0.175750
36.483333	1	0.175625
36.500000	1	0.175000
36.516667	1	0.174750
36.533333	1	0.174000
36.550000	1	0.173000
36.566667	1	0.172000
36.583333	1	0.170625
36.600000	1	0.169250
36.616667	1	0.166625
36.633333	1	0.164125
36.650000	1	0.161750
36.666667	1	0.159750
36.683333	1	0.156875
36.700000	1	0.154625
36.716667	1	0.150750
36.733333	1	0.147500
36.750000	1	0.143375
36.766667	1	0.139750
36.783333	1	0.136000
36.800000	1	0.131875
36.816667	1	0.127875
36.833333	1	0.124125
36.850000	1	0.120125
36.866667	1	0.116125
36.883333	1	0.112000
36.900000	1	0.107125
36.916667	1	0.103500
36.933333	1	0.100000
36.950000	1	0.096125
36.966667	1	0.092375
36.983333	1	0.088750
37.000000	1	0.084875
37.016667	1	0.082250
37.033333	1	0.079500
37.050000	1	0.077000
37.066667	1	0.074000
37.083333	1	0.071625
37.100000	1	0.069250
37.116667	1	0.068125
37.133333	1	0.067000
37.150000	1	0.066250
37.166667	1	0.065000
37.183333	1	0.065000
37.200000	1	0.063375
37.216667	1	0.063375
37.233333	1	0.063375
37.250000	1	0.063375
37.266667	1	0.063875
37.283333	1	0.064500
37.300000	1	0.065375
37.316667	1	0.066250
37.333333	1	0.067125
37.350000	1	0.067875
37.366667	1	0.068375
37.383333	1	0.069000
37.400000	1	0.068750
37.416667	1	0.068875
37.433333	1	0.069125
37.450000	1	0.069125
37.466667	1	0.070375
37.483333	1	0.070000
37.500000	1	0.070375
37.516667	1	0.069750
37.533333	1	0.068875
37.550000	1	0.068375
37.566667	1	0.068125
37.583333	1	0.067000
37.600000	1	0.066125
37.616667	1	0.065000
37.633333	1	0.064125
37.650000	1	0.062875
37.666667	1	0.061000
37.683333	1	0.060000
37.700000	1	0.058625
37.716667	1	0.056875
37.733333	1	0.055250
37.750000	1	0.053125
37.766667	1	0.051250
37.783333	1	0.048875
37.800000	1	0.047250
37.816667	1	0.045000
37.833333	1	0.042250
37.850000	1	0.040125
37.866667	1	0.037500
37.883333	1	0.035750
37.900000	1	0.033875
37.916667	1	0.032375
37.933333	1	0.030500
37.950000	1	0.029125
37.966667	1	0.027125
37.983333	1	0.025625
38.000000	1	0.024375
38.016667	1	0.023125
38.033333	1	0.022000
38.050000	1	0.020625
38.066667	1	0.019625
38.083333	1	0.019500
38.100000	1	0.019500
38.116667	1	0.019125
38.133333	1	0.018750
38.150000	1	0.018875
38.166667	1	0.019000
38.183333	1	0.019000
38.200000	1	0.019125
38.216667	1	0.019500
38.233333	1	0.019750
38.250000	1	0.020250
38.266667	1	0.021375
38.283333	1	0.022375
38.300000	1	0.023000
38.316667	1	0.022875
38.333333	1	0.023875
38.350000	1	0.024375
38.366667	1	0.024750
38.383333	1	0.025625
38.400000	1	0.025500
38.416667	1	0.026375
38.433333	1	0.027000
38.450000	1	0.028000
38.466667	1	0.028625
38.483333	1	0.029375
38.500000	1	0.029625
38.516667	1	0.030375
38.533333	1	0.030500
38.550000	1	0.031250
38.566667	1	0.031250
38.583333	1	0.031250
38.600000	1	0.031875
38.616667	1	0.032125
38.633333	1	0.032250
38.650000	1	0.031875
38.666667	1	0.032250
38.683333	1	0.032000
38.700000	1	0.032000
38.716667	1	0.032000
38.733333	1	0.031875
38.750000	1	0.031125
38.766667	1	0.030750
38.783333	1	0.030250
38.800000	1	0.030125
38.816667	1	0.029500
38.833333	1	0.028375
38.850000	1	0.027750
38.866667	1	0.026500
38.883333	1	0.025500
38.900000	1	0.024875
38.916667	1	0.023500
38.933333	1	0.022000
38.950000	1	0.020750
38.966667	1	0.019375
38.983333	1	0.018250
39.000000	1	0.016750
39.016667	1	0.015125
39.033333	1	0.014125
39.050000	1	0.013000
39.066667	1	0.011750
39.083333	1	0.011250
39.100000	1	0.010000
39.116667	1	0.009125
39.133333	1	0.007500
39.150000	1	0.006375
39.166667	1	0.005375
39.183333	1	0.005125
39.200000	1	0.004625
39.216667	1	0.004125
39.233333	1	0.004000
39.250000	1	0.004000
39.266667	1	0.003875
39.283333	1	0.004250
39.300000	1	0.004500
39.316667	1	0.004875
39.333333	1	0.005125
39.350000	1	0.006250
39.366667	1	0.007500
39.383333	1	0.008875
39.400000	1	0.010375
39.416667	1	0.012250
39.433333	1	0.014375
39.450000	1	0.016250
39.466667	1	0.018000
39.483333	1	0.020125
39.500000	1	0.021875
39.516667	1	0.024500
39.533333	1	0.027125
39.550000	1	0.029125
39.566667	1	0.031375
39.583333	1	0.034125
39.600000	1	0.036375
39.616667	1	0.038625
39.633333	1	0.040000
39.650000	1	0.042125
39.666667	1	0.043625
39.683333	1	0.045250
39.700000	1	0.047000
39.716667	1	0.048125
39.733333	1	0.048875
39.750000	1	0.049000
39.766667	1	0.049125
39.783333	1	0.048750
39.800000	1	0.048375
39.816667	1	0.048125
39.833333	1	0.047250
39.850000	1	0.046250
39.866667	1	0.045250
39.883333	1	0.043125
39.900000	1	0.041375
39.916667	1	0.039500
39.933333	1	0.037750
39.950000	1	0.035250
39.966667	1	0.032375
39.983333	1	0.029500
40.000000	1	0.026500
