URL	chrom://7040-86g6c92/XVault/Ultimate_3000/20/20240517_CMO_FP23_FP25_MarkusDeplate.seq/469.smp/RI_1.channel/RI_1.chm
Channel	RI_1

Injection Information:
Data Vault	XVault
Sequence	20240517_CMO_FP23_FP25_MarkusDeplate
Name	FP25_25.4_s1
Number	64
Position	BF4
Comment	
Processing Method	
Instrument Method	run_25B_method
Type	Unknown
Status	Finished
Inject Time	29.05.2024 13:03:38 +02:00
Volume (µl)	20.0000
Dilution Factor	1.0000
Weight	1.0000

Chromatogram Data Information:
Time Min. (min)	0.000000
Time Max. (min)	40.000000
Data Points	2401
Detector	RI
Generating Data System	Chromeleon 7.3.2.11814
Exporting Data System	Chromeleon 7.3.2.0
Operator	Instrument Controller
Signal Quantity	Refractive 
Signal Unit	µRIU
Signal Min.	-1.256375
Signal Max.	68.695625
Channel	RI_1
Driver Name	RID520Driver.dll
Channel Type	Evaluation
Min. Step (s)	1
Max. Step (s)	1
Average Step (s)	1

Signal Parameter Information:
Signal Info	

Chromatogram Data:
Time (min)	Step (s)	Value (µRIU)
0.000000	n.a.	-0.049375
0.016667	1	-0.050125
0.033333	1	-0.050625
0.050000	1	-0.050875
0.066667	1	-0.050375
0.083333	1	-0.050375
0.100000	1	-0.051000
0.116667	1	-0.050875
0.133333	1	-0.051375
0.150000	1	-0.052500
0.166667	1	-0.053250
0.183333	1	-0.053500
0.200000	1	-0.053750
0.216667	1	-0.054375
0.233333	1	-0.055000
0.250000	1	-0.055125
0.266667	1	-0.055250
0.283333	1	-0.055250
0.300000	1	-0.056375
0.316667	1	-0.056625
0.333333	1	-0.057250
0.350000	1	-0.057375
0.366667	1	-0.058125
0.383333	1	-0.059125
0.400000	1	-0.060125
0.416667	1	-0.060000
0.433333	1	-0.059625
0.450000	1	-0.057500
0.466667	1	-0.055250
0.483333	1	-0.053125
0.500000	1	-0.051500
0.516667	1	-0.050125
0.533333	1	-0.049750
0.550000	1	-0.048875
0.566667	1	-0.048125
0.583333	1	-0.049125
0.600000	1	-0.050500
0.616667	1	-0.051875
0.633333	1	-0.052250
0.650000	1	-0.053500
0.666667	1	-0.053125
0.683333	1	-0.052375
0.700000	1	-0.051250
0.716667	1	-0.049250
0.733333	1	-0.047375
0.750000	1	-0.045750
0.766667	1	-0.044000
0.783333	1	-0.042250
0.800000	1	-0.039875
0.816667	1	-0.037500
0.833333	1	-0.035625
0.850000	1	-0.033875
0.866667	1	-0.032125
0.883333	1	-0.030000
0.900000	1	-0.027625
0.916667	1	-0.025750
0.933333	1	-0.024125
0.950000	1	-0.021625
0.966667	1	-0.020375
0.983333	1	-0.019125
1.000000	1	-0.018125
1.016667	1	-0.016875
1.033333	1	-0.015500
1.050000	1	-0.013500
1.066667	1	-0.012500
1.083333	1	-0.011125
1.100000	1	-0.009875
1.116667	1	-0.008750
1.133333	1	-0.008125
1.150000	1	-0.006750
1.166667	1	-0.005750
1.183333	1	-0.005125
1.200000	1	-0.004625
1.216667	1	-0.003875
1.233333	1	-0.003125
1.250000	1	-0.002250
1.266667	1	-0.001125
1.283333	1	0.000125
1.300000	1	0.001250
1.316667	1	0.001875
1.333333	1	0.002875
1.350000	1	0.004250
1.366667	1	0.005375
1.383333	1	0.006000
1.400000	1	0.007250
1.416667	1	0.008000
1.433333	1	0.009375
1.450000	1	0.010500
1.466667	1	0.011750
1.483333	1	0.013125
1.500000	1	0.014750
1.516667	1	0.015250
1.533333	1	0.015875
1.550000	1	0.017500
1.566667	1	0.018375
1.583333	1	0.019125
1.600000	1	0.019750
1.616667	1	0.020625
1.633333	1	0.021750
1.650000	1	0.023250
1.666667	1	0.023625
1.683333	1	0.024500
1.700000	1	0.025500
1.716667	1	0.026625
1.733333	1	0.027125
1.750000	1	0.027875
1.766667	1	0.027750
1.783333	1	0.029375
1.800000	1	0.030250
1.816667	1	0.031250
1.833333	1	0.032000
1.850000	1	0.032625
1.866667	1	0.033625
1.883333	1	0.034625
1.900000	1	0.035500
1.916667	1	0.035625
1.933333	1	0.036250
1.950000	1	0.037000
1.966667	1	0.038125
1.983333	1	0.039500
2.000000	1	0.039750
2.016667	1	0.039625
2.033333	1	0.040375
2.050000	1	0.041125
2.066667	1	0.041750
2.083333	1	0.042250
2.100000	1	0.043375
2.116667	1	0.042875
2.133333	1	0.043000
2.150000	1	0.042250
2.166667	1	0.041625
2.183333	1	0.041125
2.200000	1	0.040625
2.216667	1	0.040250
2.233333	1	0.039625
2.250000	1	0.038125
2.266667	1	0.037375
2.283333	1	0.036125
2.300000	1	0.034125
2.316667	1	0.032750
2.333333	1	0.031250
2.350000	1	0.029875
2.366667	1	0.027750
2.383333	1	0.025875
2.400000	1	0.023125
2.416667	1	0.021125
2.433333	1	0.018750
2.450000	1	0.016750
2.466667	1	0.014250
2.483333	1	0.012125
2.500000	1	0.009875
2.516667	1	0.007500
2.533333	1	0.004875
2.550000	1	0.002875
2.566667	1	0.000500
2.583333	1	-0.001250
2.600000	1	-0.003250
2.616667	1	-0.005000
2.633333	1	-0.006500
2.650000	1	-0.008250
2.666667	1	-0.009250
2.683333	1	-0.010500
2.700000	1	-0.012250
2.716667	1	-0.013875
2.733333	1	-0.015500
2.750000	1	-0.016750
2.766667	1	-0.017875
2.783333	1	-0.019125
2.800000	1	-0.019875
2.816667	1	-0.020875
2.833333	1	-0.021750
2.850000	1	-0.022625
2.866667	1	-0.023500
2.883333	1	-0.024000
2.900000	1	-0.024625
2.916667	1	-0.025000
2.933333	1	-0.025250
2.950000	1	-0.025875
2.966667	1	-0.026125
2.983333	1	-0.025500
3.000000	1	-0.025750
3.016667	1	-0.025250
3.033333	1	-0.025000
3.050000	1	-0.024750
3.066667	1	-0.023625
3.083333	1	-0.022375
3.100000	1	-0.021875
3.116667	1	-0.021125
3.133333	1	-0.020250
3.150000	1	-0.019250
3.166667	1	-0.017875
3.183333	1	-0.016625
3.200000	1	-0.015500
3.216667	1	-0.014875
3.233333	1	-0.014000
3.250000	1	-0.012750
3.266667	1	-0.011500
3.283333	1	-0.010500
3.300000	1	-0.009875
3.316667	1	-0.008875
3.333333	1	-0.008250
3.350000	1	-0.007625
3.366667	1	-0.007000
3.383333	1	-0.006250
3.400000	1	-0.005250
3.416667	1	-0.004500
3.433333	1	-0.003875
3.450000	1	-0.003875
3.466667	1	-0.003125
3.483333	1	-0.002875
3.500000	1	-0.002375
3.516667	1	-0.002000
3.533333	1	-0.001625
3.550000	1	-0.001375
3.566667	1	-0.000500
3.583333	1	0.000000
3.600000	1	0.000375
3.616667	1	0.001250
3.633333	1	0.002125
3.650000	1	0.002625
3.666667	1	0.003375
3.683333	1	0.004500
3.700000	1	0.004875
3.716667	1	0.005250
3.733333	1	0.006625
3.750000	1	0.007125
3.766667	1	0.007500
3.783333	1	0.008625
3.800000	1	0.009500
3.816667	1	0.010625
3.833333	1	0.011500
3.850000	1	0.011875
3.866667	1	0.012625
3.883333	1	0.012750
3.900000	1	0.012625
3.916667	1	0.012500
3.933333	1	0.012625
3.950000	1	0.013000
3.966667	1	0.012875
3.983333	1	0.013000
4.000000	1	0.012250
4.016667	1	0.011250
4.033333	1	0.010000
4.050000	1	0.009000
4.066667	1	0.007250
4.083333	1	0.005875
4.100000	1	0.004250
4.116667	1	0.002500
4.133333	1	0.001125
4.150000	1	-0.000750
4.166667	1	-0.002500
4.183333	1	-0.004625
4.200000	1	-0.006250
4.216667	1	-0.008000
4.233333	1	-0.009750
4.250000	1	-0.011875
4.266667	1	-0.013500
4.283333	1	-0.015125
4.300000	1	-0.016500
4.316667	1	-0.018375
4.333333	1	-0.019625
4.350000	1	-0.020375
4.366667	1	-0.020750
4.383333	1	-0.021000
4.400000	1	-0.020500
4.416667	1	-0.019875
4.433333	1	-0.019000
4.450000	1	-0.017375
4.466667	1	-0.016500
4.483333	1	-0.015625
4.500000	1	-0.014250
4.516667	1	-0.012750
4.533333	1	-0.011000
4.550000	1	-0.008125
4.566667	1	-0.006000
4.583333	1	-0.003250
4.600000	1	-0.000625
4.616667	1	0.001750
4.633333	1	0.004625
4.650000	1	0.007875
4.666667	1	0.010250
4.683333	1	0.013250
4.700000	1	0.016000
4.716667	1	0.018875
4.733333	1	0.021750
4.750000	1	0.024375
4.766667	1	0.027375
4.783333	1	0.030500
4.800000	1	0.033250
4.816667	1	0.036250
4.833333	1	0.039875
4.850000	1	0.041750
4.866667	1	0.044875
4.883333	1	0.047375
4.900000	1	0.049875
4.916667	1	0.053125
4.933333	1	0.055625
4.950000	1	0.058625
4.966667	1	0.061125
4.983333	1	0.064250
5.000000	1	0.067375
5.016667	1	0.069750
5.033333	1	0.072250
5.050000	1	0.075250
5.066667	1	0.078625
5.083333	1	0.081875
5.100000	1	0.085125
5.116667	1	0.087875
5.133333	1	0.090500
5.150000	1	0.093500
5.166667	1	0.096375
5.183333	1	0.100000
5.200000	1	0.103125
5.216667	1	0.106375
5.233333	1	0.109375
5.250000	1	0.112875
5.266667	1	0.116000
5.283333	1	0.119250
5.300000	1	0.122250
5.316667	1	0.125625
5.333333	1	0.128750
5.350000	1	0.132250
5.366667	1	0.136250
5.383333	1	0.139750
5.400000	1	0.143500
5.416667	1	0.147000
5.433333	1	0.151000
5.450000	1	0.154875
5.466667	1	0.159500
5.483333	1	0.163875
5.500000	1	0.168250
5.516667	1	0.172125
5.533333	1	0.176500
5.550000	1	0.180875
5.566667	1	0.185500
5.583333	1	0.189500
5.600000	1	0.194000
5.616667	1	0.198500
5.633333	1	0.203250
5.650000	1	0.207750
5.666667	1	0.211625
5.683333	1	0.215875
5.700000	1	0.220375
5.716667	1	0.224000
5.733333	1	0.227875
5.750000	1	0.231375
5.766667	1	0.234875
5.783333	1	0.237875
5.800000	1	0.240500
5.816667	1	0.243375
5.833333	1	0.245500
5.850000	1	0.247375
5.866667	1	0.248750
5.883333	1	0.249500
5.900000	1	0.250875
5.916667	1	0.251000
5.933333	1	0.250875
5.950000	1	0.251375
5.966667	1	0.251125
5.983333	1	0.250125
6.000000	1	0.248625
6.016667	1	0.246625
6.033333	1	0.245000
6.050000	1	0.243000
6.066667	1	0.241000
6.083333	1	0.238375
6.100000	1	0.235625
6.116667	1	0.233000
6.133333	1	0.229500
6.150000	1	0.226625
6.166667	1	0.223000
6.183333	1	0.220375
6.200000	1	0.216750
6.216667	1	0.213250
6.233333	1	0.209500
6.250000	1	0.205875
6.266667	1	0.202500
6.283333	1	0.198750
6.300000	1	0.195125
6.316667	1	0.190750
6.333333	1	0.187000
6.350000	1	0.183250
6.366667	1	0.179250
6.383333	1	0.175000
6.400000	1	0.171000
6.416667	1	0.167375
6.433333	1	0.163750
6.450000	1	0.159500
6.466667	1	0.154375
6.483333	1	0.150750
6.500000	1	0.147000
6.516667	1	0.142875
6.533333	1	0.138125
6.550000	1	0.134000
6.566667	1	0.129750
6.583333	1	0.125875
6.600000	1	0.121875
6.616667	1	0.117625
6.633333	1	0.113625
6.650000	1	0.109375
6.666667	1	0.104875
6.683333	1	0.100750
6.700000	1	0.096500
6.716667	1	0.093000
6.733333	1	0.089000
6.750000	1	0.085250
6.766667	1	0.082125
6.783333	1	0.079375
6.800000	1	0.076500
6.816667	1	0.074125
6.833333	1	0.071500
6.850000	1	0.069375
6.866667	1	0.067250
6.883333	1	0.065125
6.900000	1	0.063625
6.916667	1	0.062250
6.933333	1	0.062000
6.950000	1	0.061125
6.966667	1	0.062000
6.983333	1	0.061625
7.000000	1	0.062375
7.016667	1	0.063625
7.033333	1	0.064250
7.050000	1	0.064875
7.066667	1	0.066375
7.083333	1	0.068250
7.100000	1	0.070000
7.116667	1	0.072125
7.133333	1	0.074375
7.150000	1	0.076125
7.166667	1	0.078375
7.183333	1	0.081125
7.200000	1	0.083750
7.216667	1	0.086750
7.233333	1	0.089375
7.250000	1	0.091625
7.266667	1	0.094125
7.283333	1	0.096875
7.300000	1	0.099500
7.316667	1	0.103125
7.333333	1	0.105625
7.350000	1	0.108250
7.366667	1	0.110000
7.383333	1	0.112750
7.400000	1	0.114750
7.416667	1	0.116375
7.433333	1	0.118375
7.450000	1	0.120000
7.466667	1	0.121750
7.483333	1	0.123375
7.500000	1	0.124875
7.516667	1	0.126125
7.533333	1	0.127500
7.550000	1	0.127750
7.566667	1	0.128500
7.583333	1	0.129000
7.600000	1	0.129250
7.616667	1	0.129250
7.633333	1	0.129750
7.650000	1	0.129875
7.666667	1	0.130000
7.683333	1	0.129750
7.700000	1	0.129750
7.716667	1	0.129375
7.733333	1	0.129625
7.750000	1	0.128750
7.766667	1	0.128000
7.783333	1	0.126375
7.800000	1	0.124500
7.816667	1	0.122000
7.833333	1	0.120750
7.850000	1	0.119250
7.866667	1	0.117875
7.883333	1	0.115250
7.900000	1	0.112375
7.916667	1	0.109500
7.933333	1	0.106625
7.950000	1	0.103500
7.966667	1	0.100875
7.983333	1	0.098500
8.000000	1	0.095125
8.016667	1	0.092000
8.033333	1	0.089000
8.050000	1	0.087000
8.066667	1	0.084000
8.083333	1	0.082375
8.100000	1	0.079125
8.116667	1	0.077125
8.133333	1	0.074625
8.150000	1	0.073000
8.166667	1	0.071000
8.183333	1	0.068875
8.200000	1	0.067250
8.216667	1	0.065375
8.233333	1	0.063500
8.250000	1	0.062625
8.266667	1	0.061250
8.283333	1	0.060000
8.300000	1	0.059375
8.316667	1	0.058000
8.333333	1	0.056875
8.350000	1	0.056375
8.366667	1	0.055250
8.383333	1	0.053875
8.400000	1	0.053375
8.416667	1	0.052875
8.433333	1	0.052125
8.450000	1	0.051750
8.466667	1	0.051000
8.483333	1	0.049875
8.500000	1	0.049375
8.516667	1	0.048750
8.533333	1	0.047875
8.550000	1	0.047875
8.566667	1	0.047625
8.583333	1	0.047250
8.600000	1	0.046625
8.616667	1	0.046000
8.633333	1	0.045625
8.650000	1	0.045375
8.666667	1	0.044875
8.683333	1	0.045125
8.700000	1	0.045250
8.716667	1	0.044625
8.733333	1	0.044250
8.750000	1	0.044500
8.766667	1	0.044875
8.783333	1	0.045125
8.800000	1	0.044500
8.816667	1	0.044000
8.833333	1	0.043875
8.850000	1	0.044000
8.866667	1	0.043250
8.883333	1	0.043500
8.900000	1	0.043500
8.916667	1	0.043500
8.933333	1	0.044000
8.950000	1	0.044750
8.966667	1	0.044875
8.983333	1	0.044875
9.000000	1	0.045000
9.016667	1	0.045250
9.033333	1	0.045000
9.050000	1	0.044250
9.066667	1	0.044375
9.083333	1	0.043875
9.100000	1	0.044000
9.116667	1	0.044000
9.133333	1	0.044625
9.150000	1	0.045000
9.166667	1	0.045250
9.183333	1	0.044750
9.200000	1	0.044000
9.216667	1	0.043625
9.233333	1	0.042750
9.250000	1	0.043000
9.266667	1	0.041750
9.283333	1	0.041875
9.300000	1	0.041625
9.316667	1	0.041750
9.333333	1	0.042750
9.350000	1	0.042500
9.366667	1	0.041875
9.383333	1	0.041875
9.400000	1	0.041875
9.416667	1	0.042375
9.433333	1	0.042625
9.450000	1	0.042625
9.466667	1	0.043750
9.483333	1	0.044625
9.500000	1	0.045875
9.516667	1	0.046375
9.533333	1	0.046750
9.550000	1	0.047625
9.566667	1	0.048375
9.583333	1	0.048750
9.600000	1	0.049125
9.616667	1	0.049500
9.633333	1	0.049750
9.650000	1	0.049625
9.666667	1	0.049875
9.683333	1	0.050125
9.700000	1	0.049625
9.716667	1	0.049625
9.733333	1	0.049375
9.750000	1	0.049125
9.766667	1	0.048125
9.783333	1	0.047625
9.800000	1	0.047125
9.816667	1	0.046500
9.833333	1	0.044750
9.850000	1	0.042875
9.866667	1	0.040750
9.883333	1	0.039000
9.900000	1	0.037375
9.916667	1	0.035125
9.933333	1	0.032750
9.950000	1	0.030250
9.966667	1	0.027750
9.983333	1	0.025125
10.000000	1	0.022750
10.016667	1	0.020125
10.033333	1	0.018000
10.050000	1	0.016375
10.066667	1	0.015000
10.083333	1	0.014250
10.100000	1	0.014625
10.116667	1	0.016125
10.133333	1	0.018750
10.150000	1	0.023000
10.166667	1	0.028375
10.183333	1	0.035000
10.200000	1	0.043375
10.216667	1	0.053250
10.233333	1	0.065375
10.250000	1	0.079000
10.266667	1	0.095375
10.283333	1	0.114875
10.300000	1	0.136250
10.316667	1	0.160750
10.333333	1	0.187375
10.350000	1	0.218000
10.366667	1	0.251875
10.383333	1	0.287750
10.400000	1	0.324875
10.416667	1	0.360500
10.433333	1	0.387625
10.450000	1	0.395875
10.466667	1	0.375750
10.483333	1	0.322875
10.500000	1	0.243875
10.516667	1	0.166500
10.533333	1	0.143000
10.550000	1	0.248750
10.566667	1	0.574250
10.583333	1	1.214375
10.600000	1	2.257875
10.616667	1	3.776000
10.633333	1	5.822750
10.650000	1	8.425750
10.666667	1	11.599000
10.683333	1	15.331125
10.700000	1	19.587625
10.716667	1	24.296625
10.733333	1	29.339750
10.750000	1	34.540125
10.766667	1	39.637125
10.783333	1	44.286500
10.800000	1	48.077750
10.816667	1	50.585750
10.833333	1	51.474875
10.850000	1	50.610375
10.866667	1	48.106500
10.883333	1	44.307875
10.900000	1	39.686875
10.916667	1	34.723375
10.933333	1	29.809750
10.950000	1	25.216750
10.966667	1	21.099000
10.983333	1	17.521500
11.000000	1	14.487750
11.016667	1	11.964375
11.033333	1	9.899750
11.050000	1	8.231750
11.066667	1	6.893250
11.083333	1	5.825750
11.100000	1	4.976125
11.116667	1	4.299375
11.133333	1	3.758125
11.150000	1	3.322750
11.166667	1	2.971875
11.183333	1	2.685500
11.200000	1	2.449125
11.216667	1	2.252625
11.233333	1	2.087125
11.250000	1	1.947250
11.266667	1	1.827250
11.283333	1	1.724625
11.300000	1	1.635125
11.316667	1	1.557875
11.333333	1	1.489250
11.350000	1	1.429125
11.366667	1	1.376375
11.383333	1	1.330000
11.400000	1	1.288875
11.416667	1	1.252250
11.433333	1	1.219375
11.450000	1	1.189375
11.466667	1	1.162250
11.483333	1	1.138750
11.500000	1	1.117000
11.516667	1	1.098000
11.533333	1	1.080750
11.550000	1	1.065250
11.566667	1	1.050625
11.583333	1	1.038500
11.600000	1	1.028000
11.616667	1	1.018250
11.633333	1	1.010125
11.650000	1	1.003875
11.666667	1	0.999000
11.683333	1	0.995250
11.700000	1	0.993000
11.716667	1	0.993000
11.733333	1	0.993750
11.750000	1	0.996375
11.766667	1	1.000250
11.783333	1	1.004625
11.800000	1	1.009125
11.816667	1	1.013250
11.833333	1	1.017375
11.850000	1	1.023000
11.866667	1	1.027125
11.883333	1	1.029750
11.900000	1	1.032625
11.916667	1	1.035000
11.933333	1	1.037750
11.950000	1	1.039000
11.966667	1	1.041375
11.983333	1	1.043750
12.000000	1	1.046375
12.016667	1	1.049500
12.033333	1	1.053750
12.050000	1	1.058125
12.066667	1	1.063000
12.083333	1	1.068000
12.100000	1	1.074750
12.116667	1	1.081000
12.133333	1	1.088000
12.150000	1	1.096250
12.166667	1	1.105875
12.183333	1	1.116625
12.200000	1	1.128625
12.216667	1	1.142125
12.233333	1	1.157750
12.250000	1	1.176375
12.266667	1	1.196500
12.283333	1	1.219375
12.300000	1	1.244250
12.316667	1	1.271375
12.333333	1	1.302000
12.350000	1	1.337625
12.366667	1	1.379625
12.383333	1	1.430250
12.400000	1	1.494500
12.416667	1	1.576250
12.433333	1	1.681125
12.450000	1	1.815000
12.466667	1	1.983875
12.483333	1	2.193750
12.500000	1	2.449125
12.516667	1	2.752250
12.533333	1	3.103625
12.550000	1	3.500625
12.566667	1	3.939625
12.583333	1	4.413625
12.600000	1	4.916750
12.616667	1	5.438375
12.633333	1	5.972000
12.650000	1	6.508625
12.666667	1	7.044250
12.683333	1	7.575500
12.700000	1	8.098500
12.716667	1	8.614000
12.733333	1	9.123875
12.750000	1	9.630000
12.766667	1	10.135000
12.783333	1	10.637625
12.800000	1	11.131375
12.816667	1	11.593875
12.833333	1	11.984500
12.850000	1	12.238125
12.866667	1	12.278250
12.883333	1	12.043500
12.900000	1	11.514125
12.916667	1	10.730375
12.933333	1	9.776625
12.950000	1	8.755250
12.966667	1	7.752000
12.983333	1	6.822125
13.000000	1	5.991375
13.016667	1	5.268000
13.033333	1	4.647375
13.050000	1	4.122750
13.066667	1	3.684125
13.083333	1	3.321500
13.100000	1	3.024000
13.116667	1	2.780125
13.133333	1	2.580750
13.150000	1	2.416750
13.166667	1	2.282250
13.183333	1	2.169875
13.200000	1	2.075875
13.216667	1	1.995500
13.233333	1	1.926375
13.250000	1	1.864500
13.266667	1	1.809375
13.283333	1	1.759375
13.300000	1	1.713500
13.316667	1	1.671750
13.333333	1	1.633250
13.350000	1	1.597625
13.366667	1	1.564375
13.383333	1	1.533875
13.400000	1	1.505875
13.416667	1	1.480875
13.433333	1	1.458625
13.450000	1	1.438750
13.466667	1	1.421625
13.483333	1	1.407750
13.500000	1	1.396000
13.516667	1	1.386625
13.533333	1	1.378625
13.550000	1	1.372000
13.566667	1	1.365750
13.583333	1	1.360000
13.600000	1	1.353125
13.616667	1	1.344875
13.633333	1	1.335000
13.650000	1	1.324125
13.666667	1	1.311125
13.683333	1	1.296500
13.700000	1	1.280125
13.716667	1	1.262750
13.733333	1	1.243625
13.750000	1	1.224250
13.766667	1	1.204500
13.783333	1	1.185375
13.800000	1	1.166875
13.816667	1	1.148625
13.833333	1	1.131625
13.850000	1	1.115750
13.866667	1	1.100500
13.883333	1	1.085375
13.900000	1	1.070875
13.916667	1	1.057375
13.933333	1	1.045000
13.950000	1	1.032875
13.966667	1	1.021375
13.983333	1	1.010625
14.000000	1	1.000625
14.016667	1	0.991250
14.033333	1	0.982000
14.050000	1	0.973875
14.066667	1	0.965250
14.083333	1	0.957125
14.100000	1	0.950000
14.116667	1	0.942375
14.133333	1	0.935000
14.150000	1	0.928250
14.166667	1	0.921500
14.183333	1	0.915625
14.200000	1	0.910625
14.216667	1	0.905875
14.233333	1	0.902250
14.250000	1	0.900000
14.266667	1	0.898000
14.283333	1	0.897250
14.300000	1	0.897250
14.316667	1	0.899125
14.333333	1	0.901250
14.350000	1	0.905750
14.366667	1	0.911625
14.383333	1	0.919625
14.400000	1	0.930500
14.416667	1	0.944125
14.433333	1	0.965125
14.450000	1	0.996375
14.466667	1	1.044625
14.483333	1	1.119000
14.500000	1	1.234625
14.516667	1	1.415000
14.533333	1	1.689500
14.550000	1	2.098875
14.566667	1	2.696875
14.583333	1	3.547375
14.600000	1	4.722125
14.616667	1	6.304375
14.633333	1	8.379875
14.650000	1	11.026375
14.666667	1	14.303250
14.683333	1	18.238125
14.700000	1	22.820000
14.716667	1	27.979125
14.733333	1	33.596375
14.750000	1	39.497875
14.766667	1	45.462500
14.783333	1	51.228625
14.800000	1	56.531625
14.816667	1	61.118125
14.833333	1	64.766000
14.850000	1	67.301125
14.866667	1	68.619375
14.883333	1	68.695625
14.900000	1	67.583750
14.916667	1	65.410125
14.933333	1	62.342000
14.950000	1	58.582375
14.966667	1	54.342000
14.983333	1	49.831625
15.000000	1	45.229875
15.016667	1	40.687750
15.033333	1	36.319750
15.050000	1	32.210625
15.066667	1	28.413625
15.083333	1	24.957375
15.100000	1	21.849750
15.116667	1	19.083000
15.133333	1	16.635625
15.150000	1	14.482000
15.166667	1	12.597000
15.183333	1	10.952375
15.200000	1	9.520875
15.216667	1	8.279250
15.233333	1	7.206250
15.250000	1	6.281250
15.266667	1	5.489000
15.283333	1	4.814000
15.300000	1	4.243875
15.316667	1	3.766125
15.333333	1	3.370250
15.350000	1	3.044875
15.366667	1	2.781250
15.383333	1	2.569875
15.400000	1	2.402625
15.416667	1	2.269875
15.433333	1	2.166625
15.450000	1	2.085125
15.466667	1	2.018875
15.483333	1	1.962500
15.500000	1	1.911250
15.516667	1	1.863250
15.533333	1	1.815625
15.550000	1	1.767250
15.566667	1	1.718000
15.583333	1	1.668250
15.600000	1	1.618375
15.616667	1	1.568625
15.633333	1	1.520125
15.650000	1	1.473625
15.666667	1	1.429875
15.683333	1	1.389375
15.700000	1	1.351875
15.716667	1	1.316875
15.733333	1	1.284625
15.750000	1	1.254875
15.766667	1	1.227000
15.783333	1	1.201000
15.800000	1	1.178125
15.816667	1	1.157000
15.833333	1	1.138125
15.850000	1	1.121125
15.866667	1	1.107000
15.883333	1	1.095375
15.900000	1	1.087875
15.916667	1	1.083500
15.933333	1	1.083500
15.950000	1	1.086125
15.966667	1	1.091625
15.983333	1	1.100250
16.000000	1	1.111000
16.016667	1	1.123250
16.033333	1	1.136500
16.050000	1	1.148750
16.066667	1	1.161000
16.083333	1	1.170000
16.100000	1	1.176250
16.116667	1	1.180250
16.133333	1	1.181500
16.150000	1	1.179875
16.166667	1	1.175625
16.183333	1	1.168875
16.200000	1	1.159625
16.216667	1	1.148500
16.233333	1	1.136000
16.250000	1	1.123375
16.266667	1	1.110000
16.283333	1	1.096375
16.300000	1	1.083000
16.316667	1	1.070375
16.333333	1	1.058625
16.350000	1	1.048750
16.366667	1	1.040000
16.383333	1	1.033625
16.400000	1	1.028375
16.416667	1	1.025000
16.433333	1	1.023125
16.450000	1	1.022875
16.466667	1	1.024625
16.483333	1	1.026500
16.500000	1	1.028625
16.516667	1	1.030625
16.533333	1	1.032125
16.550000	1	1.033125
16.566667	1	1.032625
16.583333	1	1.030625
16.600000	1	1.027500
16.616667	1	1.022875
16.633333	1	1.017875
16.650000	1	1.011500
16.666667	1	1.004875
16.683333	1	0.998500
16.700000	1	0.993750
16.716667	1	0.990750
16.733333	1	0.989375
16.750000	1	0.989750
16.766667	1	0.991875
16.783333	1	0.995500
16.800000	1	1.000750
16.816667	1	1.006750
16.833333	1	1.013375
16.850000	1	1.019125
16.866667	1	1.024750
16.883333	1	1.029125
16.900000	1	1.032125
16.916667	1	1.033000
16.933333	1	1.032875
16.950000	1	1.031125
16.966667	1	1.027375
16.983333	1	1.023000
17.000000	1	1.018500
17.016667	1	1.013500
17.033333	1	1.007875
17.050000	1	1.002125
17.066667	1	0.997500
17.083333	1	0.992750
17.100000	1	0.988750
17.116667	1	0.985625
17.133333	1	0.983125
17.150000	1	0.981875
17.166667	1	0.981625
17.183333	1	0.982125
17.200000	1	0.983875
17.216667	1	0.985000
17.233333	1	0.987875
17.250000	1	0.991125
17.266667	1	0.994750
17.283333	1	0.998500
17.300000	1	1.002875
17.316667	1	1.007125
17.333333	1	1.012000
17.350000	1	1.017500
17.366667	1	1.022750
17.383333	1	1.028125
17.400000	1	1.032250
17.416667	1	1.036500
17.433333	1	1.039750
17.450000	1	1.041125
17.466667	1	1.042125
17.483333	1	1.041500
17.500000	1	1.038625
17.516667	1	1.034750
17.533333	1	1.028750
17.550000	1	1.021250
17.566667	1	1.012250
17.583333	1	1.002250
17.600000	1	0.991250
17.616667	1	0.979625
17.633333	1	0.966125
17.650000	1	0.952250
17.666667	1	0.938000
17.683333	1	0.923500
17.700000	1	0.908500
17.716667	1	0.893375
17.733333	1	0.879000
17.750000	1	0.865000
17.766667	1	0.851750
17.783333	1	0.839375
17.800000	1	0.827500
17.816667	1	0.817250
17.833333	1	0.807625
17.850000	1	0.799125
17.866667	1	0.790875
17.883333	1	0.784125
17.900000	1	0.778375
17.916667	1	0.773000
17.933333	1	0.767500
17.950000	1	0.762625
17.966667	1	0.758125
17.983333	1	0.753875
18.000000	1	0.748875
18.016667	1	0.744250
18.033333	1	0.740250
18.050000	1	0.735875
18.066667	1	0.732375
18.083333	1	0.728875
18.100000	1	0.725875
18.116667	1	0.724125
18.133333	1	0.722625
18.150000	1	0.722000
18.166667	1	0.721750
18.183333	1	0.722125
18.200000	1	0.722875
18.216667	1	0.724000
18.233333	1	0.724875
18.250000	1	0.726125
18.266667	1	0.727875
18.283333	1	0.729875
18.300000	1	0.731250
18.316667	1	0.733250
18.333333	1	0.735250
18.350000	1	0.737125
18.366667	1	0.740125
18.383333	1	0.743625
18.400000	1	0.748750
18.416667	1	0.755000
18.433333	1	0.761625
18.450000	1	0.770750
18.466667	1	0.781000
18.483333	1	0.793125
18.500000	1	0.807375
18.516667	1	0.823750
18.533333	1	0.841875
18.550000	1	0.862250
18.566667	1	0.884500
18.583333	1	0.909625
18.600000	1	0.936500
18.616667	1	0.964000
18.633333	1	0.994125
18.650000	1	1.025625
18.666667	1	1.058250
18.683333	1	1.091875
18.700000	1	1.126500
18.716667	1	1.161625
18.733333	1	1.198000
18.750000	1	1.233625
18.766667	1	1.269500
18.783333	1	1.304125
18.800000	1	1.337250
18.816667	1	1.367875
18.833333	1	1.395500
18.850000	1	1.419625
18.866667	1	1.439750
18.883333	1	1.454625
18.900000	1	1.463750
18.916667	1	1.466875
18.933333	1	1.463875
18.950000	1	1.454000
18.966667	1	1.437750
18.983333	1	1.414875
19.000000	1	1.386875
19.016667	1	1.353250
19.033333	1	1.315500
19.050000	1	1.273625
19.066667	1	1.229250
19.083333	1	1.183375
19.100000	1	1.136500
19.116667	1	1.090000
19.133333	1	1.043875
19.150000	1	1.000750
19.166667	1	0.958500
19.183333	1	0.920000
19.200000	1	0.885875
19.216667	1	0.855500
19.233333	1	0.829875
19.250000	1	0.809750
19.266667	1	0.794500
19.283333	1	0.785375
19.300000	1	0.781750
19.316667	1	0.784625
19.333333	1	0.792250
19.350000	1	0.805625
19.366667	1	0.824250
19.383333	1	0.847625
19.400000	1	0.874500
19.416667	1	0.903750
19.433333	1	0.935750
19.450000	1	0.968250
19.466667	1	1.000250
19.483333	1	1.031625
19.500000	1	1.061250
19.516667	1	1.088375
19.533333	1	1.112625
19.550000	1	1.132000
19.566667	1	1.148000
19.583333	1	1.160000
19.600000	1	1.167000
19.616667	1	1.170000
19.633333	1	1.168125
19.650000	1	1.161750
19.666667	1	1.151750
19.683333	1	1.138500
19.700000	1	1.121625
19.716667	1	1.101625
19.733333	1	1.079125
19.750000	1	1.054750
19.766667	1	1.027625
19.783333	1	0.998625
19.800000	1	0.968750
19.816667	1	0.938000
19.833333	1	0.906250
19.850000	1	0.875000
19.866667	1	0.842750
19.883333	1	0.811375
19.900000	1	0.781000
19.916667	1	0.752500
19.933333	1	0.726500
19.950000	1	0.701750
19.966667	1	0.679750
19.983333	1	0.661000
20.000000	1	0.644000
20.016667	1	0.630375
20.033333	1	0.621125
20.050000	1	0.615375
20.066667	1	0.614250
20.083333	1	0.616375
20.100000	1	0.622750
20.116667	1	0.634000
20.133333	1	0.648375
20.150000	1	0.666000
20.166667	1	0.686000
20.183333	1	0.707250
20.200000	1	0.729750
20.216667	1	0.751500
20.233333	1	0.772500
20.250000	1	0.790750
20.266667	1	0.806375
20.283333	1	0.818125
20.300000	1	0.826375
20.316667	1	0.829750
20.333333	1	0.827625
20.350000	1	0.821625
20.366667	1	0.810250
20.383333	1	0.795250
20.400000	1	0.776125
20.416667	1	0.754875
20.433333	1	0.731000
20.450000	1	0.706500
20.466667	1	0.681750
20.483333	1	0.658625
20.500000	1	0.637000
20.516667	1	0.618000
20.533333	1	0.603250
20.550000	1	0.592750
20.566667	1	0.587125
20.583333	1	0.587250
20.600000	1	0.594375
20.616667	1	0.609750
20.633333	1	0.633375
20.650000	1	0.666000
20.666667	1	0.707375
20.683333	1	0.758375
20.700000	1	0.816875
20.716667	1	0.882000
20.733333	1	0.954625
20.750000	1	1.032000
20.766667	1	1.111875
20.783333	1	1.191875
20.800000	1	1.270750
20.816667	1	1.344875
20.833333	1	1.411750
20.850000	1	1.469500
20.866667	1	1.516500
20.883333	1	1.550625
20.900000	1	1.571375
20.916667	1	1.577625
20.933333	1	1.570500
20.950000	1	1.551000
20.966667	1	1.519250
20.983333	1	1.477250
21.000000	1	1.427250
21.016667	1	1.370250
21.033333	1	1.308750
21.050000	1	1.245000
21.066667	1	1.180250
21.083333	1	1.115750
21.100000	1	1.052875
21.116667	1	0.992500
21.133333	1	0.935375
21.150000	1	0.881000
21.166667	1	0.831500
21.183333	1	0.786375
21.200000	1	0.745250
21.216667	1	0.707625
21.233333	1	0.674250
21.250000	1	0.643750
21.266667	1	0.616750
21.283333	1	0.592750
21.300000	1	0.571500
21.316667	1	0.553000
21.333333	1	0.536125
21.350000	1	0.521000
21.366667	1	0.507750
21.383333	1	0.496125
21.400000	1	0.485500
21.416667	1	0.475750
21.433333	1	0.467625
21.450000	1	0.459875
21.466667	1	0.452625
21.483333	1	0.446625
21.500000	1	0.440375
21.516667	1	0.435500
21.533333	1	0.431000
21.550000	1	0.427375
21.566667	1	0.423875
21.583333	1	0.420625
21.600000	1	0.417875
21.616667	1	0.416000
21.633333	1	0.414625
21.650000	1	0.413750
21.666667	1	0.412750
21.683333	1	0.412750
21.700000	1	0.413250
21.716667	1	0.415250
21.733333	1	0.416875
21.750000	1	0.419125
21.766667	1	0.421125
21.783333	1	0.423750
21.800000	1	0.426375
21.816667	1	0.430000
21.833333	1	0.433500
21.850000	1	0.437500
21.866667	1	0.440875
21.883333	1	0.444625
21.900000	1	0.448500
21.916667	1	0.453125
21.933333	1	0.458000
21.950000	1	0.463125
21.966667	1	0.468875
21.983333	1	0.474500
22.000000	1	0.480375
22.016667	1	0.486750
22.033333	1	0.492625
22.050000	1	0.499125
22.066667	1	0.506250
22.083333	1	0.512250
22.100000	1	0.517625
22.116667	1	0.523500
22.133333	1	0.528875
22.150000	1	0.532875
22.166667	1	0.535500
22.183333	1	0.537500
22.200000	1	0.538375
22.216667	1	0.537000
22.233333	1	0.534625
22.250000	1	0.530625
22.266667	1	0.526250
22.283333	1	0.520125
22.300000	1	0.512750
22.316667	1	0.504125
22.333333	1	0.494875
22.350000	1	0.485000
22.366667	1	0.474750
22.383333	1	0.463250
22.400000	1	0.452875
22.416667	1	0.441500
22.433333	1	0.431125
22.450000	1	0.420375
22.466667	1	0.409375
22.483333	1	0.399125
22.500000	1	0.389375
22.516667	1	0.380000
22.533333	1	0.371375
22.550000	1	0.363250
22.566667	1	0.354500
22.583333	1	0.347125
22.600000	1	0.340000
22.616667	1	0.332750
22.633333	1	0.325875
22.650000	1	0.319375
22.666667	1	0.313375
22.683333	1	0.308375
22.700000	1	0.303000
22.716667	1	0.298250
22.733333	1	0.293250
22.750000	1	0.288750
22.766667	1	0.284750
22.783333	1	0.280875
22.800000	1	0.276750
22.816667	1	0.273000
22.833333	1	0.269875
22.850000	1	0.267000
22.866667	1	0.264500
22.883333	1	0.262375
22.900000	1	0.260250
22.916667	1	0.259000
22.933333	1	0.257875
22.950000	1	0.257125
22.966667	1	0.256375
22.983333	1	0.255625
23.000000	1	0.255875
23.016667	1	0.255875
23.033333	1	0.256750
23.050000	1	0.257625
23.066667	1	0.259000
23.083333	1	0.260375
23.100000	1	0.262375
23.116667	1	0.264625
23.133333	1	0.266250
23.150000	1	0.268625
23.166667	1	0.271250
23.183333	1	0.273125
23.200000	1	0.275625
23.216667	1	0.279125
23.233333	1	0.281250
23.250000	1	0.283875
23.266667	1	0.287250
23.283333	1	0.291500
23.300000	1	0.296125
23.316667	1	0.302625
23.333333	1	0.310375
23.350000	1	0.320750
23.366667	1	0.334875
23.383333	1	0.353750
23.400000	1	0.377875
23.416667	1	0.408125
23.433333	1	0.447250
23.450000	1	0.496500
23.466667	1	0.558250
23.483333	1	0.633250
23.500000	1	0.724875
23.516667	1	0.835625
23.533333	1	0.967125
23.550000	1	1.120500
23.566667	1	1.298500
23.583333	1	1.498875
23.600000	1	1.724125
23.616667	1	1.972500
23.633333	1	2.241375
23.650000	1	2.528625
23.666667	1	2.831000
23.683333	1	3.142500
23.700000	1	3.459000
23.716667	1	3.774000
23.733333	1	4.080500
23.750000	1	4.371625
23.766667	1	4.640750
23.783333	1	4.881625
23.800000	1	5.088875
23.816667	1	5.258375
23.833333	1	5.385250
23.850000	1	5.469000
23.866667	1	5.508375
23.883333	1	5.503250
23.900000	1	5.455250
23.916667	1	5.367500
23.933333	1	5.244375
23.950000	1	5.090000
23.966667	1	4.908375
23.983333	1	4.704875
24.000000	1	4.484875
24.016667	1	4.254125
24.033333	1	4.016250
24.050000	1	3.776750
24.066667	1	3.537875
24.083333	1	3.303250
24.100000	1	3.075500
24.116667	1	2.855875
24.133333	1	2.645625
24.150000	1	2.447125
24.166667	1	2.259000
24.183333	1	2.083000
24.200000	1	1.919000
24.216667	1	1.766750
24.233333	1	1.626125
24.250000	1	1.495750
24.266667	1	1.377250
24.283333	1	1.267625
24.300000	1	1.167375
24.316667	1	1.076500
24.333333	1	0.993375
24.350000	1	0.918250
24.366667	1	0.851250
24.383333	1	0.790875
24.400000	1	0.737500
24.416667	1	0.689500
24.433333	1	0.648125
24.450000	1	0.611875
24.466667	1	0.580500
24.483333	1	0.553125
24.500000	1	0.529625
24.516667	1	0.509500
24.533333	1	0.492750
24.550000	1	0.478125
24.566667	1	0.465750
24.583333	1	0.454500
24.600000	1	0.445125
24.616667	1	0.436375
24.633333	1	0.427750
24.650000	1	0.420875
24.666667	1	0.413875
24.683333	1	0.408250
24.700000	1	0.402625
24.716667	1	0.396750
24.733333	1	0.391125
24.750000	1	0.386250
24.766667	1	0.380875
24.783333	1	0.375500
24.800000	1	0.371000
24.816667	1	0.365625
24.833333	1	0.361125
24.850000	1	0.356375
24.866667	1	0.352000
24.883333	1	0.348250
24.900000	1	0.345125
24.916667	1	0.342000
24.933333	1	0.339125
24.950000	1	0.336500
24.966667	1	0.334750
24.983333	1	0.333625
25.000000	1	0.332500
25.016667	1	0.331125
25.033333	1	0.330250
25.050000	1	0.329500
25.066667	1	0.328500
25.083333	1	0.328625
25.100000	1	0.328500
25.116667	1	0.329250
25.133333	1	0.329500
25.150000	1	0.328875
25.166667	1	0.329000
25.183333	1	0.329125
25.200000	1	0.330000
25.216667	1	0.330000
25.233333	1	0.329000
25.250000	1	0.328125
25.266667	1	0.327375
25.283333	1	0.326625
25.300000	1	0.325875
25.316667	1	0.324500
25.333333	1	0.323375
25.350000	1	0.322625
25.366667	1	0.321750
25.383333	1	0.320625
25.400000	1	0.319250
25.416667	1	0.317500
25.433333	1	0.315375
25.450000	1	0.313875
25.466667	1	0.312250
25.483333	1	0.311875
25.500000	1	0.311250
25.516667	1	0.309875
25.533333	1	0.308750
25.550000	1	0.307500
25.566667	1	0.305375
25.583333	1	0.303750
25.600000	1	0.302625
25.616667	1	0.301375
25.633333	1	0.299375
25.650000	1	0.298500
25.666667	1	0.297125
25.683333	1	0.295250
25.700000	1	0.294125
25.716667	1	0.291875
25.733333	1	0.290375
25.750000	1	0.288625
25.766667	1	0.286500
25.783333	1	0.284500
25.800000	1	0.282750
25.816667	1	0.280000
25.833333	1	0.278250
25.850000	1	0.277125
25.866667	1	0.276000
25.883333	1	0.275375
25.900000	1	0.274750
25.916667	1	0.274125
25.933333	1	0.273125
25.950000	1	0.272875
25.966667	1	0.273000
25.983333	1	0.274250
26.000000	1	0.276375
26.016667	1	0.278250
26.033333	1	0.280500
26.050000	1	0.284125
26.066667	1	0.287000
26.083333	1	0.291250
26.100000	1	0.295500
26.116667	1	0.300625
26.133333	1	0.305875
26.150000	1	0.311000
26.166667	1	0.317000
26.183333	1	0.322875
26.200000	1	0.328625
26.216667	1	0.334875
26.233333	1	0.339500
26.250000	1	0.345250
26.266667	1	0.351250
26.283333	1	0.356250
26.300000	1	0.361000
26.316667	1	0.364500
26.333333	1	0.367750
26.350000	1	0.370500
26.366667	1	0.372625
26.383333	1	0.373375
26.400000	1	0.373750
26.416667	1	0.373250
26.433333	1	0.372375
26.450000	1	0.370375
26.466667	1	0.368250
26.483333	1	0.365125
26.500000	1	0.361750
26.516667	1	0.357750
26.533333	1	0.352625
26.550000	1	0.346750
26.566667	1	0.340500
26.583333	1	0.334000
26.600000	1	0.326750
26.616667	1	0.320125
26.633333	1	0.313250
26.650000	1	0.307250
26.666667	1	0.300750
26.683333	1	0.294750
26.700000	1	0.288625
26.716667	1	0.282875
26.733333	1	0.277750
26.750000	1	0.272500
26.766667	1	0.267500
26.783333	1	0.263000
26.800000	1	0.258250
26.816667	1	0.254500
26.833333	1	0.251375
26.850000	1	0.248500
26.866667	1	0.245250
26.883333	1	0.243375
26.900000	1	0.241625
26.916667	1	0.239250
26.933333	1	0.237375
26.950000	1	0.235875
26.966667	1	0.235000
26.983333	1	0.234750
27.000000	1	0.234625
27.016667	1	0.234500
27.033333	1	0.234625
27.050000	1	0.235375
27.066667	1	0.237125
27.083333	1	0.237875
27.100000	1	0.239375
27.116667	1	0.241250
27.133333	1	0.243625
27.150000	1	0.245625
27.166667	1	0.249375
27.183333	1	0.252875
27.200000	1	0.257500
27.216667	1	0.263125
27.233333	1	0.270125
27.250000	1	0.278500
27.266667	1	0.288750
27.283333	1	0.300500
27.300000	1	0.316000
27.316667	1	0.334125
27.333333	1	0.355750
27.350000	1	0.381500
27.366667	1	0.411750
27.383333	1	0.448000
27.400000	1	0.491125
27.416667	1	0.541375
27.433333	1	0.600375
27.450000	1	0.668375
27.466667	1	0.746250
27.483333	1	0.834625
27.500000	1	0.933875
27.516667	1	1.045000
27.533333	1	1.167625
27.550000	1	1.302750
27.566667	1	1.449125
27.583333	1	1.606875
27.600000	1	1.774500
27.616667	1	1.951375
27.633333	1	2.136000
27.650000	1	2.327250
27.666667	1	2.522000
27.683333	1	2.718500
27.700000	1	2.913875
27.716667	1	3.105125
27.733333	1	3.290125
27.750000	1	3.464375
27.766667	1	3.626875
27.783333	1	3.771875
27.800000	1	3.899625
27.816667	1	4.007000
27.833333	1	4.091625
27.850000	1	4.152500
27.866667	1	4.188250
27.883333	1	4.199375
27.900000	1	4.184875
27.916667	1	4.145750
27.933333	1	4.082750
27.950000	1	3.997375
27.966667	1	3.892625
27.983333	1	3.770375
28.000000	1	3.633375
28.016667	1	3.483750
28.033333	1	3.325000
28.050000	1	3.159375
28.066667	1	2.989375
28.083333	1	2.816875
28.100000	1	2.645000
28.116667	1	2.475000
28.133333	1	2.309000
28.150000	1	2.149250
28.166667	1	1.995875
28.183333	1	1.850125
28.200000	1	1.712750
28.216667	1	1.583500
28.233333	1	1.462750
28.250000	1	1.351125
28.266667	1	1.247625
28.283333	1	1.151875
28.300000	1	1.064000
28.316667	1	0.983750
28.333333	1	0.911125
28.350000	1	0.845750
28.366667	1	0.786625
28.383333	1	0.734250
28.400000	1	0.687125
28.416667	1	0.645375
28.433333	1	0.609375
28.450000	1	0.577000
28.466667	1	0.549750
28.483333	1	0.525750
28.500000	1	0.506375
28.516667	1	0.490250
28.533333	1	0.477375
28.550000	1	0.466750
28.566667	1	0.459625
28.583333	1	0.454750
28.600000	1	0.452000
28.616667	1	0.451625
28.633333	1	0.452875
28.650000	1	0.455875
28.666667	1	0.460375
28.683333	1	0.465500
28.700000	1	0.471875
28.716667	1	0.478375
28.733333	1	0.485875
28.750000	1	0.493625
28.766667	1	0.500875
28.783333	1	0.508500
28.800000	1	0.515875
28.816667	1	0.523250
28.833333	1	0.529875
28.850000	1	0.536500
28.866667	1	0.542125
28.883333	1	0.547125
28.900000	1	0.551000
28.916667	1	0.553750
28.933333	1	0.554875
28.950000	1	0.555250
28.966667	1	0.554500
28.983333	1	0.552875
29.000000	1	0.549625
29.016667	1	0.544000
29.033333	1	0.536375
29.050000	1	0.528250
29.066667	1	0.519000
29.083333	1	0.506625
29.100000	1	0.493250
29.116667	1	0.477375
29.133333	1	0.460125
29.150000	1	0.440125
29.166667	1	0.417750
29.183333	1	0.392625
29.200000	1	0.366250
29.216667	1	0.336250
29.233333	1	0.304000
29.250000	1	0.269000
29.266667	1	0.230375
29.283333	1	0.189750
29.300000	1	0.146125
29.316667	1	0.099500
29.333333	1	0.049375
29.350000	1	-0.002250
29.366667	1	-0.057750
29.383333	1	-0.115500
29.400000	1	-0.176000
29.416667	1	-0.237750
29.433333	1	-0.301375
29.450000	1	-0.367000
29.466667	1	-0.434625
29.483333	1	-0.502125
29.500000	1	-0.570625
29.516667	1	-0.637750
29.533333	1	-0.704000
29.550000	1	-0.769000
29.566667	1	-0.832250
29.583333	1	-0.892500
29.600000	1	-0.950250
29.616667	1	-1.004375
29.633333	1	-1.054500
29.650000	1	-1.100125
29.666667	1	-1.140125
29.683333	1	-1.174125
29.700000	1	-1.202875
29.716667	1	-1.224875
29.733333	1	-1.241375
29.750000	1	-1.252125
29.766667	1	-1.256375
29.783333	1	-1.254625
29.800000	1	-1.246250
29.816667	1	-1.232625
29.833333	1	-1.213375
29.850000	1	-1.189125
29.866667	1	-1.160250
29.883333	1	-1.127000
29.900000	1	-1.090375
29.916667	1	-1.050875
29.933333	1	-1.007750
29.950000	1	-0.962750
29.966667	1	-0.915500
29.983333	1	-0.867500
30.000000	1	-0.818250
30.016667	1	-0.768500
30.033333	1	-0.718375
30.050000	1	-0.668625
30.066667	1	-0.619250
30.083333	1	-0.570875
30.100000	1	-0.523625
30.116667	1	-0.478000
30.133333	1	-0.434375
30.150000	1	-0.392500
30.166667	1	-0.351875
30.183333	1	-0.313375
30.200000	1	-0.276125
30.216667	1	-0.241875
30.233333	1	-0.210500
30.250000	1	-0.180625
30.266667	1	-0.153000
30.283333	1	-0.126625
30.300000	1	-0.103000
30.316667	1	-0.081125
30.333333	1	-0.061250
30.350000	1	-0.042875
30.366667	1	-0.026375
30.383333	1	-0.011750
30.400000	1	0.001625
30.416667	1	0.014000
30.433333	1	0.025375
30.450000	1	0.035125
30.466667	1	0.044750
30.483333	1	0.052625
30.500000	1	0.060625
30.516667	1	0.067375
30.533333	1	0.074750
30.550000	1	0.081375
30.566667	1	0.088000
30.583333	1	0.094000
30.600000	1	0.100000
30.616667	1	0.106875
30.633333	1	0.113875
30.650000	1	0.121625
30.666667	1	0.128750
30.683333	1	0.135875
30.700000	1	0.143500
30.716667	1	0.151625
30.733333	1	0.160125
30.750000	1	0.169625
30.766667	1	0.178625
30.783333	1	0.188750
30.800000	1	0.199375
30.816667	1	0.211000
30.833333	1	0.222125
30.850000	1	0.233875
30.866667	1	0.247250
30.883333	1	0.261875
30.900000	1	0.276750
30.916667	1	0.293375
30.933333	1	0.311000
30.950000	1	0.331500
30.966667	1	0.353875
30.983333	1	0.379250
31.000000	1	0.407750
31.016667	1	0.441000
31.033333	1	0.478750
31.050000	1	0.522625
31.066667	1	0.573250
31.083333	1	0.631625
31.100000	1	0.698875
31.116667	1	0.776125
31.133333	1	0.864125
31.150000	1	0.964375
31.166667	1	1.076750
31.183333	1	1.204000
31.200000	1	1.346625
31.216667	1	1.505000
31.233333	1	1.680875
31.250000	1	1.872750
31.266667	1	2.082375
31.283333	1	2.308125
31.300000	1	2.549375
31.316667	1	2.805875
31.333333	1	3.075375
31.350000	1	3.356375
31.366667	1	3.647375
31.383333	1	3.944750
31.400000	1	4.247250
31.416667	1	4.550875
31.433333	1	4.851500
31.450000	1	5.146750
31.466667	1	5.431500
31.483333	1	5.703125
31.500000	1	5.957125
31.516667	1	6.190875
31.533333	1	6.400500
31.550000	1	6.584375
31.566667	1	6.739250
31.583333	1	6.865125
31.600000	1	6.959250
31.616667	1	7.021000
31.633333	1	7.050125
31.650000	1	7.047750
31.666667	1	7.014125
31.683333	1	6.949750
31.700000	1	6.856500
31.716667	1	6.736375
31.733333	1	6.591875
31.750000	1	6.425500
31.766667	1	6.240875
31.783333	1	6.038625
31.800000	1	5.822625
31.816667	1	5.595375
31.833333	1	5.360750
31.850000	1	5.119750
31.866667	1	4.875500
31.883333	1	4.630000
31.900000	1	4.385625
31.916667	1	4.143250
31.933333	1	3.906500
31.950000	1	3.675125
31.966667	1	3.450125
31.983333	1	3.232375
32.000000	1	3.022125
32.016667	1	2.820750
32.033333	1	2.628750
32.050000	1	2.445625
32.066667	1	2.271875
32.083333	1	2.107500
32.100000	1	1.952750
32.116667	1	1.807750
32.133333	1	1.670750
32.150000	1	1.542500
32.166667	1	1.421750
32.183333	1	1.310000
32.200000	1	1.204500
32.216667	1	1.106500
32.233333	1	1.015125
32.250000	1	0.930750
32.266667	1	0.851875
32.283333	1	0.778000
32.300000	1	0.709875
32.316667	1	0.647750
32.333333	1	0.590250
32.350000	1	0.537125
32.366667	1	0.488000
32.383333	1	0.442875
32.400000	1	0.402000
32.416667	1	0.364375
32.433333	1	0.330125
32.450000	1	0.299000
32.466667	1	0.270750
32.483333	1	0.244750
32.500000	1	0.221500
32.516667	1	0.200875
32.533333	1	0.182125
32.550000	1	0.164375
32.566667	1	0.149375
32.583333	1	0.135750
32.600000	1	0.123750
32.616667	1	0.113000
32.633333	1	0.104375
32.650000	1	0.095375
32.666667	1	0.088000
32.683333	1	0.081500
32.700000	1	0.076375
32.716667	1	0.071625
32.733333	1	0.067875
32.750000	1	0.064500
32.766667	1	0.061500
32.783333	1	0.060125
32.800000	1	0.058875
32.816667	1	0.058125
32.833333	1	0.056875
32.850000	1	0.056250
32.866667	1	0.056250
32.883333	1	0.056875
32.900000	1	0.056625
32.916667	1	0.057250
32.933333	1	0.057375
32.950000	1	0.058625
32.966667	1	0.060000
32.983333	1	0.060875
33.000000	1	0.061875
33.016667	1	0.063000
33.033333	1	0.065000
33.050000	1	0.066250
33.066667	1	0.067750
33.083333	1	0.069000
33.100000	1	0.070500
33.116667	1	0.071375
33.133333	1	0.073625
33.150000	1	0.074625
33.166667	1	0.076000
33.183333	1	0.077375
33.200000	1	0.078625
33.216667	1	0.079375
33.233333	1	0.080250
33.250000	1	0.081250
33.266667	1	0.082375
33.283333	1	0.082875
33.300000	1	0.082875
33.316667	1	0.083625
33.333333	1	0.085125
33.350000	1	0.086250
33.366667	1	0.087375
33.383333	1	0.088625
33.400000	1	0.090500
33.416667	1	0.091125
33.433333	1	0.091625
33.450000	1	0.093125
33.466667	1	0.094000
33.483333	1	0.095750
33.500000	1	0.098000
33.516667	1	0.099750
33.533333	1	0.101625
33.550000	1	0.103875
33.566667	1	0.106125
33.583333	1	0.108000
33.600000	1	0.109875
33.616667	1	0.112125
33.633333	1	0.114125
33.650000	1	0.116250
33.666667	1	0.118000
33.683333	1	0.120250
33.700000	1	0.122375
33.716667	1	0.125125
33.733333	1	0.127000
33.750000	1	0.128750
33.766667	1	0.130125
33.783333	1	0.132125
33.800000	1	0.133000
33.816667	1	0.133875
33.833333	1	0.134875
33.850000	1	0.136000
33.866667	1	0.136375
33.883333	1	0.136375
33.900000	1	0.136625
33.916667	1	0.136500
33.933333	1	0.136375
33.950000	1	0.136625
33.966667	1	0.136125
33.983333	1	0.135500
34.000000	1	0.134750
34.016667	1	0.133250
34.033333	1	0.131750
34.050000	1	0.130125
34.066667	1	0.128125
34.083333	1	0.126375
34.100000	1	0.124375
34.116667	1	0.122875
34.133333	1	0.120500
34.150000	1	0.118125
34.166667	1	0.115875
34.183333	1	0.114000
34.200000	1	0.111750
34.216667	1	0.109875
34.233333	1	0.107125
34.250000	1	0.104875
34.266667	1	0.102500
34.283333	1	0.100000
34.300000	1	0.097625
34.316667	1	0.095625
34.333333	1	0.094375
34.350000	1	0.092500
34.366667	1	0.091000
34.383333	1	0.089750
34.400000	1	0.089125
34.416667	1	0.087375
34.433333	1	0.086375
34.450000	1	0.085875
34.466667	1	0.085500
34.483333	1	0.085375
34.500000	1	0.084875
34.516667	1	0.085750
34.533333	1	0.086625
34.550000	1	0.087375
34.566667	1	0.088750
34.583333	1	0.090250
34.600000	1	0.091875
34.616667	1	0.093625
34.633333	1	0.096250
34.650000	1	0.098500
34.666667	1	0.101250
34.683333	1	0.103875
34.700000	1	0.106625
34.716667	1	0.109375
34.733333	1	0.112250
34.750000	1	0.115000
34.766667	1	0.118000
34.783333	1	0.122000
34.800000	1	0.124750
34.816667	1	0.127250
34.833333	1	0.129375
34.850000	1	0.132250
34.866667	1	0.134375
34.883333	1	0.136875
34.900000	1	0.139375
34.916667	1	0.140875
34.933333	1	0.141875
34.950000	1	0.143500
34.966667	1	0.143875
34.983333	1	0.144500
35.000000	1	0.144750
35.016667	1	0.144375
35.033333	1	0.144500
35.050000	1	0.143500
35.066667	1	0.142875
35.083333	1	0.142250
35.100000	1	0.141375
35.116667	1	0.140250
35.133333	1	0.139000
35.150000	1	0.137625
35.166667	1	0.136625
35.183333	1	0.135500
35.200000	1	0.134875
35.216667	1	0.134250
35.233333	1	0.133625
35.250000	1	0.132875
35.266667	1	0.132500
35.283333	1	0.132000
35.300000	1	0.132500
35.316667	1	0.133375
35.333333	1	0.134375
35.350000	1	0.134500
35.366667	1	0.136000
35.383333	1	0.136875
35.400000	1	0.138125
35.416667	1	0.139125
35.433333	1	0.140125
35.450000	1	0.141250
35.466667	1	0.141875
35.483333	1	0.143000
35.500000	1	0.144875
35.516667	1	0.145750
35.533333	1	0.146625
35.550000	1	0.147375
35.566667	1	0.148125
35.583333	1	0.148000
35.600000	1	0.148500
35.616667	1	0.148375
35.633333	1	0.148250
35.650000	1	0.147500
35.666667	1	0.147500
35.683333	1	0.146750
35.700000	1	0.145625
35.716667	1	0.144625
35.733333	1	0.143250
35.750000	1	0.141875
35.766667	1	0.140375
35.783333	1	0.139500
35.800000	1	0.138125
35.816667	1	0.136500
35.833333	1	0.134125
35.850000	1	0.132500
35.866667	1	0.131125
35.883333	1	0.129375
35.900000	1	0.127625
35.916667	1	0.126000
35.933333	1	0.124000
35.950000	1	0.122875
35.966667	1	0.121250
35.983333	1	0.120250
36.000000	1	0.119500
36.016667	1	0.118500
36.033333	1	0.117750
36.050000	1	0.116875
36.066667	1	0.115625
36.083333	1	0.114375
36.100000	1	0.114125
36.116667	1	0.113500
36.133333	1	0.113500
36.150000	1	0.113125
36.166667	1	0.113125
36.183333	1	0.113250
36.200000	1	0.113500
36.216667	1	0.113000
36.233333	1	0.113375
36.250000	1	0.113500
36.266667	1	0.113625
36.283333	1	0.113750
36.300000	1	0.113750
36.316667	1	0.114500
36.333333	1	0.114875
36.350000	1	0.115500
36.366667	1	0.116000
36.383333	1	0.116625
36.400000	1	0.116625
36.416667	1	0.117375
36.433333	1	0.117750
36.450000	1	0.118125
36.466667	1	0.118125
36.483333	1	0.119000
36.500000	1	0.119875
36.516667	1	0.120375
36.533333	1	0.120625
36.550000	1	0.121125
36.566667	1	0.121125
36.583333	1	0.120500
36.600000	1	0.120625
36.616667	1	0.120000
36.633333	1	0.119375
36.650000	1	0.118750
36.666667	1	0.118250
36.683333	1	0.117000
36.700000	1	0.116125
36.716667	1	0.115000
36.733333	1	0.113750
36.750000	1	0.112375
36.766667	1	0.111500
36.783333	1	0.110125
36.800000	1	0.108750
36.816667	1	0.107375
36.833333	1	0.106000
36.850000	1	0.104250
36.866667	1	0.102250
36.883333	1	0.099875
36.900000	1	0.098375
36.916667	1	0.096375
36.933333	1	0.094500
36.950000	1	0.092625
36.966667	1	0.091250
36.983333	1	0.090000
37.000000	1	0.088625
37.016667	1	0.087250
37.033333	1	0.085625
37.050000	1	0.083750
37.066667	1	0.082125
37.083333	1	0.081375
37.100000	1	0.080000
37.116667	1	0.079375
37.133333	1	0.078875
37.150000	1	0.078125
37.166667	1	0.077500
37.183333	1	0.077750
37.200000	1	0.076750
37.216667	1	0.076625
37.233333	1	0.076125
37.250000	1	0.075125
37.266667	1	0.075125
37.283333	1	0.075625
37.300000	1	0.076000
37.316667	1	0.076375
37.333333	1	0.076750
37.350000	1	0.077500
37.366667	1	0.077500
37.383333	1	0.078250
37.400000	1	0.079250
37.416667	1	0.079750
37.433333	1	0.080375
37.450000	1	0.081375
37.466667	1	0.082500
37.483333	1	0.083000
37.500000	1	0.083750
37.516667	1	0.085500
37.533333	1	0.086625
37.550000	1	0.087500
37.566667	1	0.089000
37.583333	1	0.090250
37.600000	1	0.091250
37.616667	1	0.092625
37.633333	1	0.094625
37.650000	1	0.096250
37.666667	1	0.097625
37.683333	1	0.099000
37.700000	1	0.100625
37.716667	1	0.102500
37.733333	1	0.104250
37.750000	1	0.106000
37.766667	1	0.107750
37.783333	1	0.108500
37.800000	1	0.109375
37.816667	1	0.110625
37.833333	1	0.111375
37.850000	1	0.112000
37.866667	1	0.112750
37.883333	1	0.113375
37.900000	1	0.113750
37.916667	1	0.113125
37.933333	1	0.112750
37.950000	1	0.112500
37.966667	1	0.112000
37.983333	1	0.111250
38.000000	1	0.110250
38.016667	1	0.109125
38.033333	1	0.108250
38.050000	1	0.107375
38.066667	1	0.105875
38.083333	1	0.105125
38.100000	1	0.104375
38.116667	1	0.103250
38.133333	1	0.102375
38.150000	1	0.101375
38.166667	1	0.100125
38.183333	1	0.098500
38.200000	1	0.097375
38.216667	1	0.096500
38.233333	1	0.095250
38.250000	1	0.094375
38.266667	1	0.094125
38.283333	1	0.093375
38.300000	1	0.093375
38.316667	1	0.093625
38.333333	1	0.093625
38.350000	1	0.093750
38.366667	1	0.093375
38.383333	1	0.094000
38.400000	1	0.094500
38.416667	1	0.095750
38.433333	1	0.096250
38.450000	1	0.097125
38.466667	1	0.098750
38.483333	1	0.100500
38.500000	1	0.101875
38.516667	1	0.103500
38.533333	1	0.104875
38.550000	1	0.107375
38.566667	1	0.109375
38.583333	1	0.112125
38.600000	1	0.113500
38.616667	1	0.115625
38.633333	1	0.117500
38.650000	1	0.120500
38.666667	1	0.123375
38.683333	1	0.126125
38.700000	1	0.128875
38.716667	1	0.131625
38.733333	1	0.134250
38.750000	1	0.136250
38.766667	1	0.138500
38.783333	1	0.140000
38.800000	1	0.141875
38.816667	1	0.143250
38.833333	1	0.144500
38.850000	1	0.145500
38.866667	1	0.146250
38.883333	1	0.146750
38.900000	1	0.147375
38.916667	1	0.146875
38.933333	1	0.146750
38.950000	1	0.146000
38.966667	1	0.145125
38.983333	1	0.143750
39.000000	1	0.142875
39.016667	1	0.141750
39.033333	1	0.140250
39.050000	1	0.138500
39.066667	1	0.136375
39.083333	1	0.133875
39.100000	1	0.131625
39.116667	1	0.129500
39.133333	1	0.126000
39.150000	1	0.123000
39.166667	1	0.119625
39.183333	1	0.116750
39.200000	1	0.113750
39.216667	1	0.111125
39.233333	1	0.107875
39.250000	1	0.105000
39.266667	1	0.101875
39.283333	1	0.099375
39.300000	1	0.096375
39.316667	1	0.094250
39.333333	1	0.091375
39.350000	1	0.088625
39.366667	1	0.085625
39.383333	1	0.083125
39.400000	1	0.080375
39.416667	1	0.078625
39.433333	1	0.076750
39.450000	1	0.074375
39.466667	1	0.072125
39.483333	1	0.070125
39.500000	1	0.068125
39.516667	1	0.066500
39.533333	1	0.065000
39.550000	1	0.062875
39.566667	1	0.061000
39.583333	1	0.059250
39.600000	1	0.057375
39.616667	1	0.055500
39.633333	1	0.053625
39.650000	1	0.051125
39.666667	1	0.049875
39.683333	1	0.047500
39.700000	1	0.045500
39.716667	1	0.044000
39.733333	1	0.042750
39.750000	1	0.040250
39.766667	1	0.037875
39.783333	1	0.036000
39.800000	1	0.034000
39.816667	1	0.032750
39.833333	1	0.031125
39.850000	1	0.029250
39.866667	1	0.027750
39.883333	1	0.026375
39.900000	1	0.024750
39.916667	1	0.023875
39.933333	1	0.022500
39.950000	1	0.021750
39.966667	1	0.020875
39.983333	1	0.020125
40.000000	1	0.019375
