URL	chrom://7040-86g6c92/XVault/Ultimate_3000/20/20240517_CMO_FP23_FP25_MarkusDeplate.seq/172.smp/RI_1.channel/RI_1.chm
Channel	RI_1

Injection Information:
Data Vault	XVault
Sequence	20240517_CMO_FP23_FP25_MarkusDeplate
Name	FP25_25.3_s1
Number	62
Position	BF2
Comment	
Processing Method	
Instrument Method	run_25B_method
Type	Unknown
Status	Finished
Inject Time	29.05.2024 11:41:40 +02:00
Volume (µl)	20.0000
Dilution Factor	1.0000
Weight	1.0000

Chromatogram Data Information:
Time Min. (min)	0.000000
Time Max. (min)	40.000000
Data Points	2401
Detector	RI
Generating Data System	Chromeleon 7.3.2.11814
Exporting Data System	Chromeleon 7.3.2.0
Operator	Instrument Controller
Signal Quantity	Refractive 
Signal Unit	µRIU
Signal Min.	-1.485875
Signal Max.	68.955875
Channel	RI_1
Driver Name	RID520Driver.dll
Channel Type	Evaluation
Min. Step (s)	1
Max. Step (s)	1
Average Step (s)	1

Signal Parameter Information:
Signal Info	

Chromatogram Data:
Time (min)	Step (s)	Value (µRIU)
0.000000	n.a.	0.049125
0.016667	1	0.049250
0.033333	1	0.049000
0.050000	1	0.049250
0.066667	1	0.049500
0.083333	1	0.049875
0.100000	1	0.049875
0.116667	1	0.050375
0.133333	1	0.051125
0.150000	1	0.051375
0.166667	1	0.051375
0.183333	1	0.051500
0.200000	1	0.050625
0.216667	1	0.050500
0.233333	1	0.050625
0.250000	1	0.050875
0.266667	1	0.050250
0.283333	1	0.050125
0.300000	1	0.049000
0.316667	1	0.048500
0.333333	1	0.047125
0.350000	1	0.046250
0.366667	1	0.044500
0.383333	1	0.043000
0.400000	1	0.041750
0.416667	1	0.040375
0.433333	1	0.040250
0.450000	1	0.041000
0.466667	1	0.042250
0.483333	1	0.042125
0.500000	1	0.041625
0.516667	1	0.040625
0.533333	1	0.039750
0.550000	1	0.037500
0.566667	1	0.035125
0.583333	1	0.031750
0.600000	1	0.028500
0.616667	1	0.024750
0.633333	1	0.021750
0.650000	1	0.017875
0.666667	1	0.015250
0.683333	1	0.013500
0.700000	1	0.011875
0.716667	1	0.009625
0.733333	1	0.008500
0.750000	1	0.007625
0.766667	1	0.006125
0.783333	1	0.004625
0.800000	1	0.003375
0.816667	1	0.002125
0.833333	1	0.001625
0.850000	1	0.000875
0.866667	1	0.000375
0.883333	1	-0.000750
0.900000	1	-0.001125
0.916667	1	-0.002500
0.933333	1	-0.003125
0.950000	1	-0.004250
0.966667	1	-0.005375
0.983333	1	-0.006000
1.000000	1	-0.007125
1.016667	1	-0.008250
1.033333	1	-0.009000
1.050000	1	-0.009625
1.066667	1	-0.010875
1.083333	1	-0.011625
1.100000	1	-0.012000
1.116667	1	-0.012375
1.133333	1	-0.013375
1.150000	1	-0.013750
1.166667	1	-0.014500
1.183333	1	-0.015750
1.200000	1	-0.016125
1.216667	1	-0.017375
1.233333	1	-0.017750
1.250000	1	-0.018375
1.266667	1	-0.018500
1.283333	1	-0.019000
1.300000	1	-0.018625
1.316667	1	-0.019500
1.333333	1	-0.019125
1.350000	1	-0.019750
1.366667	1	-0.019875
1.383333	1	-0.020000
1.400000	1	-0.020000
1.416667	1	-0.019500
1.433333	1	-0.019000
1.450000	1	-0.018875
1.466667	1	-0.018125
1.483333	1	-0.017375
1.500000	1	-0.016000
1.516667	1	-0.014750
1.533333	1	-0.013625
1.550000	1	-0.012125
1.566667	1	-0.011000
1.583333	1	-0.009250
1.600000	1	-0.007375
1.616667	1	-0.006000
1.633333	1	-0.004125
1.650000	1	-0.001500
1.666667	1	0.000250
1.683333	1	0.002250
1.700000	1	0.004375
1.716667	1	0.006625
1.733333	1	0.008625
1.750000	1	0.010875
1.766667	1	0.013750
1.783333	1	0.015875
1.800000	1	0.018250
1.816667	1	0.020500
1.833333	1	0.022750
1.850000	1	0.024500
1.866667	1	0.026500
1.883333	1	0.028500
1.900000	1	0.030500
1.916667	1	0.031750
1.933333	1	0.033000
1.950000	1	0.034625
1.966667	1	0.035875
1.983333	1	0.036750
2.000000	1	0.037500
2.016667	1	0.037625
2.033333	1	0.037500
2.050000	1	0.037500
2.066667	1	0.037625
2.083333	1	0.037375
2.100000	1	0.036875
2.116667	1	0.036500
2.133333	1	0.035625
2.150000	1	0.035000
2.166667	1	0.033125
2.183333	1	0.031750
2.200000	1	0.030375
2.216667	1	0.029375
2.233333	1	0.028250
2.250000	1	0.027500
2.266667	1	0.025750
2.283333	1	0.024625
2.300000	1	0.023750
2.316667	1	0.023000
2.333333	1	0.021500
2.350000	1	0.021375
2.366667	1	0.020125
2.383333	1	0.019375
2.400000	1	0.018125
2.416667	1	0.017750
2.433333	1	0.017375
2.450000	1	0.017625
2.466667	1	0.017250
2.483333	1	0.017250
2.500000	1	0.017375
2.516667	1	0.017125
2.533333	1	0.017000
2.550000	1	0.017875
2.566667	1	0.018375
2.583333	1	0.018500
2.600000	1	0.019125
2.616667	1	0.019375
2.633333	1	0.020000
2.650000	1	0.020750
2.666667	1	0.021750
2.683333	1	0.021625
2.700000	1	0.023000
2.716667	1	0.023000
2.733333	1	0.023375
2.750000	1	0.024125
2.766667	1	0.024000
2.783333	1	0.025125
2.800000	1	0.025625
2.816667	1	0.026000
2.833333	1	0.026375
2.850000	1	0.026625
2.866667	1	0.026625
2.883333	1	0.027000
2.900000	1	0.026500
2.916667	1	0.026750
2.933333	1	0.027125
2.950000	1	0.026750
2.966667	1	0.026125
2.983333	1	0.025875
3.000000	1	0.025500
3.016667	1	0.024875
3.033333	1	0.023500
3.050000	1	0.022875
3.066667	1	0.021750
3.083333	1	0.020000
3.100000	1	0.018375
3.116667	1	0.017125
3.133333	1	0.015500
3.150000	1	0.013750
3.166667	1	0.011625
3.183333	1	0.009875
3.200000	1	0.008125
3.216667	1	0.006000
3.233333	1	0.003500
3.250000	1	0.001750
3.266667	1	-0.000125
3.283333	1	-0.001625
3.300000	1	-0.003250
3.316667	1	-0.005375
3.333333	1	-0.007500
3.350000	1	-0.009500
3.366667	1	-0.010125
3.383333	1	-0.011125
3.400000	1	-0.011750
3.416667	1	-0.013250
3.433333	1	-0.014375
3.450000	1	-0.015125
3.466667	1	-0.015125
3.483333	1	-0.015250
3.500000	1	-0.015875
3.516667	1	-0.016500
3.533333	1	-0.016625
3.550000	1	-0.015875
3.566667	1	-0.016375
3.583333	1	-0.015625
3.600000	1	-0.015500
3.616667	1	-0.015000
3.633333	1	-0.013875
3.650000	1	-0.013500
3.666667	1	-0.013750
3.683333	1	-0.013000
3.700000	1	-0.012250
3.716667	1	-0.012000
3.733333	1	-0.011250
3.750000	1	-0.010750
3.766667	1	-0.010375
3.783333	1	-0.009875
3.800000	1	-0.008875
3.816667	1	-0.008000
3.833333	1	-0.006750
3.850000	1	-0.006000
3.866667	1	-0.004750
3.883333	1	-0.004000
3.900000	1	-0.002750
3.916667	1	-0.001000
3.933333	1	-0.000625
3.950000	1	0.000750
3.966667	1	0.002500
3.983333	1	0.003875
4.000000	1	0.005250
4.016667	1	0.007125
4.033333	1	0.009125
4.050000	1	0.010750
4.066667	1	0.012750
4.083333	1	0.014125
4.100000	1	0.015625
4.116667	1	0.017625
4.133333	1	0.019500
4.150000	1	0.021000
4.166667	1	0.022625
4.183333	1	0.024875
4.200000	1	0.027125
4.216667	1	0.028000
4.233333	1	0.029750
4.250000	1	0.031000
4.266667	1	0.032125
4.283333	1	0.033000
4.300000	1	0.033750
4.316667	1	0.035750
4.333333	1	0.036625
4.350000	1	0.037125
4.366667	1	0.038000
4.383333	1	0.038750
4.400000	1	0.040000
4.416667	1	0.040750
4.433333	1	0.041125
4.450000	1	0.042000
4.466667	1	0.042875
4.483333	1	0.043375
4.500000	1	0.043750
4.516667	1	0.044750
4.533333	1	0.045125
4.550000	1	0.045750
4.566667	1	0.046375
4.583333	1	0.047375
4.600000	1	0.048500
4.616667	1	0.049500
4.633333	1	0.051000
4.650000	1	0.051875
4.666667	1	0.052750
4.683333	1	0.053875
4.700000	1	0.054750
4.716667	1	0.056125
4.733333	1	0.058125
4.750000	1	0.059250
4.766667	1	0.060375
4.783333	1	0.061250
4.800000	1	0.063000
4.816667	1	0.064625
4.833333	1	0.065875
4.850000	1	0.067000
4.866667	1	0.068750
4.883333	1	0.069750
4.900000	1	0.071750
4.916667	1	0.073125
4.933333	1	0.075125
4.950000	1	0.076750
4.966667	1	0.078125
4.983333	1	0.079125
5.000000	1	0.081125
5.016667	1	0.082375
5.033333	1	0.083625
5.050000	1	0.086500
5.066667	1	0.088625
5.083333	1	0.090500
5.100000	1	0.092000
5.116667	1	0.093875
5.133333	1	0.095375
5.150000	1	0.097500
5.166667	1	0.099500
5.183333	1	0.101250
5.200000	1	0.103375
5.216667	1	0.105875
5.233333	1	0.108250
5.250000	1	0.110750
5.266667	1	0.113750
5.283333	1	0.116125
5.300000	1	0.119250
5.316667	1	0.122625
5.333333	1	0.125125
5.350000	1	0.128125
5.366667	1	0.131625
5.383333	1	0.135000
5.400000	1	0.138500
5.416667	1	0.141750
5.433333	1	0.145125
5.450000	1	0.148500
5.466667	1	0.152500
5.483333	1	0.156375
5.500000	1	0.160500
5.516667	1	0.163375
5.533333	1	0.167625
5.550000	1	0.171250
5.566667	1	0.175375
5.583333	1	0.179000
5.600000	1	0.182875
5.616667	1	0.187000
5.633333	1	0.191375
5.650000	1	0.195500
5.666667	1	0.199250
5.683333	1	0.202500
5.700000	1	0.205875
5.716667	1	0.208500
5.733333	1	0.212000
5.750000	1	0.215000
5.766667	1	0.217750
5.783333	1	0.220500
5.800000	1	0.222875
5.816667	1	0.224375
5.833333	1	0.226875
5.850000	1	0.228750
5.866667	1	0.231375
5.883333	1	0.232625
5.900000	1	0.233625
5.916667	1	0.234875
5.933333	1	0.235500
5.950000	1	0.235625
5.966667	1	0.236125
5.983333	1	0.236625
6.000000	1	0.236125
6.016667	1	0.235500
6.033333	1	0.235750
6.050000	1	0.235375
6.066667	1	0.235375
6.083333	1	0.234875
6.100000	1	0.234250
6.116667	1	0.234125
6.133333	1	0.233875
6.150000	1	0.232625
6.166667	1	0.231875
6.183333	1	0.231125
6.200000	1	0.230250
6.216667	1	0.230250
6.233333	1	0.229875
6.250000	1	0.229125
6.266667	1	0.228375
6.283333	1	0.227375
6.300000	1	0.226000
6.316667	1	0.225125
6.333333	1	0.223875
6.350000	1	0.222625
6.366667	1	0.221250
6.383333	1	0.220750
6.400000	1	0.220000
6.416667	1	0.218375
6.433333	1	0.216375
6.450000	1	0.214125
6.466667	1	0.211875
6.483333	1	0.209875
6.500000	1	0.207625
6.516667	1	0.205000
6.533333	1	0.201375
6.550000	1	0.198750
6.566667	1	0.195125
6.583333	1	0.191375
6.600000	1	0.186875
6.616667	1	0.182875
6.633333	1	0.178625
6.650000	1	0.174750
6.666667	1	0.170375
6.683333	1	0.165875
6.700000	1	0.161750
6.716667	1	0.157500
6.733333	1	0.153375
6.750000	1	0.149000
6.766667	1	0.145125
6.783333	1	0.140500
6.800000	1	0.136125
6.816667	1	0.131500
6.833333	1	0.127375
6.850000	1	0.124375
6.866667	1	0.121125
6.883333	1	0.117500
6.900000	1	0.115000
6.916667	1	0.111375
6.933333	1	0.109250
6.950000	1	0.106250
6.966667	1	0.104000
6.983333	1	0.102125
7.000000	1	0.100375
7.016667	1	0.099375
7.033333	1	0.098250
7.050000	1	0.097125
7.066667	1	0.096375
7.083333	1	0.095250
7.100000	1	0.095125
7.116667	1	0.094625
7.133333	1	0.095125
7.150000	1	0.095500
7.166667	1	0.096125
7.183333	1	0.097250
7.200000	1	0.098250
7.216667	1	0.099500
7.233333	1	0.100875
7.250000	1	0.102625
7.266667	1	0.104125
7.283333	1	0.106250
7.300000	1	0.107875
7.316667	1	0.110125
7.333333	1	0.113500
7.350000	1	0.116500
7.366667	1	0.119125
7.383333	1	0.122125
7.400000	1	0.125125
7.416667	1	0.128125
7.433333	1	0.131000
7.450000	1	0.133625
7.466667	1	0.136750
7.483333	1	0.139625
7.500000	1	0.142625
7.516667	1	0.146125
7.533333	1	0.149125
7.550000	1	0.151500
7.566667	1	0.154750
7.583333	1	0.157250
7.600000	1	0.159750
7.616667	1	0.161625
7.633333	1	0.163000
7.650000	1	0.164375
7.666667	1	0.166125
7.683333	1	0.167750
7.700000	1	0.168750
7.716667	1	0.169500
7.733333	1	0.169500
7.750000	1	0.170250
7.766667	1	0.169875
7.783333	1	0.170125
7.800000	1	0.170000
7.816667	1	0.168750
7.833333	1	0.167500
7.850000	1	0.165625
7.866667	1	0.163875
7.883333	1	0.161500
7.900000	1	0.159250
7.916667	1	0.156875
7.933333	1	0.153875
7.950000	1	0.151000
7.966667	1	0.147125
7.983333	1	0.144500
8.000000	1	0.140750
8.016667	1	0.137500
8.033333	1	0.133625
8.050000	1	0.130500
8.066667	1	0.126625
8.083333	1	0.122250
8.100000	1	0.119000
8.116667	1	0.116250
8.133333	1	0.113000
8.150000	1	0.110000
8.166667	1	0.106375
8.183333	1	0.103625
8.200000	1	0.100375
8.216667	1	0.097250
8.233333	1	0.094250
8.250000	1	0.091250
8.266667	1	0.088125
8.283333	1	0.085375
8.300000	1	0.083500
8.316667	1	0.081375
8.333333	1	0.079375
8.350000	1	0.076875
8.366667	1	0.074750
8.383333	1	0.072625
8.400000	1	0.071250
8.416667	1	0.068875
8.433333	1	0.067125
8.450000	1	0.064625
8.466667	1	0.062000
8.483333	1	0.060375
8.500000	1	0.059375
8.516667	1	0.057750
8.533333	1	0.056000
8.550000	1	0.054500
8.566667	1	0.052250
8.583333	1	0.050125
8.600000	1	0.048125
8.616667	1	0.046125
8.633333	1	0.044375
8.650000	1	0.042625
8.666667	1	0.040125
8.683333	1	0.038500
8.700000	1	0.037000
8.716667	1	0.035125
8.733333	1	0.032750
8.750000	1	0.031000
8.766667	1	0.028875
8.783333	1	0.027500
8.800000	1	0.025625
8.816667	1	0.023875
8.833333	1	0.022375
8.850000	1	0.020000
8.866667	1	0.018125
8.883333	1	0.017125
8.900000	1	0.015375
8.916667	1	0.014500
8.933333	1	0.013875
8.950000	1	0.012625
8.966667	1	0.011375
8.983333	1	0.010375
9.000000	1	0.009375
9.016667	1	0.007500
9.033333	1	0.006750
9.050000	1	0.005500
9.066667	1	0.005125
9.083333	1	0.004125
9.100000	1	0.003500
9.116667	1	0.002625
9.133333	1	0.002500
9.150000	1	0.001750
9.166667	1	0.001375
9.183333	1	0.000875
9.200000	1	0.000000
9.216667	1	-0.000375
9.233333	1	-0.000750
9.250000	1	-0.000750
9.266667	1	-0.001625
9.283333	1	-0.001500
9.300000	1	-0.001125
9.316667	1	-0.001375
9.333333	1	-0.001750
9.350000	1	-0.001500
9.366667	1	-0.000750
9.383333	1	-0.000625
9.400000	1	-0.000375
9.416667	1	0.000375
9.433333	1	0.001000
9.450000	1	0.001875
9.466667	1	0.002250
9.483333	1	0.003500
9.500000	1	0.004250
9.516667	1	0.005125
9.533333	1	0.006125
9.550000	1	0.007875
9.566667	1	0.009250
9.583333	1	0.011125
9.600000	1	0.012500
9.616667	1	0.014500
9.633333	1	0.016500
9.650000	1	0.018125
9.666667	1	0.020125
9.683333	1	0.021625
9.700000	1	0.023750
9.716667	1	0.026375
9.733333	1	0.028500
9.750000	1	0.031250
9.766667	1	0.033375
9.783333	1	0.035250
9.800000	1	0.037875
9.816667	1	0.040125
9.833333	1	0.042750
9.850000	1	0.044500
9.866667	1	0.046625
9.883333	1	0.048125
9.900000	1	0.050250
9.916667	1	0.052250
9.933333	1	0.054000
9.950000	1	0.055500
9.966667	1	0.056875
9.983333	1	0.058375
10.000000	1	0.059000
10.016667	1	0.060125
10.033333	1	0.061375
10.050000	1	0.063375
10.066667	1	0.065250
10.083333	1	0.067875
10.100000	1	0.070500
10.116667	1	0.073875
10.133333	1	0.078250
10.150000	1	0.083625
10.166667	1	0.090500
10.183333	1	0.098125
10.200000	1	0.107000
10.216667	1	0.116875
10.233333	1	0.129375
10.250000	1	0.144000
10.266667	1	0.160625
10.283333	1	0.179625
10.300000	1	0.201625
10.316667	1	0.226125
10.333333	1	0.253250
10.350000	1	0.284000
10.366667	1	0.318000
10.383333	1	0.354875
10.400000	1	0.394875
10.416667	1	0.432750
10.433333	1	0.461875
10.450000	1	0.473375
10.466667	1	0.457875
10.483333	1	0.409625
10.500000	1	0.337750
10.516667	1	0.272500
10.533333	1	0.267375
10.550000	1	0.400250
10.566667	1	0.763000
10.583333	1	1.451000
10.600000	1	2.551750
10.616667	1	4.135750
10.633333	1	6.252625
10.650000	1	8.928375
10.666667	1	12.173500
10.683333	1	15.973500
10.700000	1	20.289250
10.716667	1	25.041500
10.733333	1	30.105625
10.750000	1	35.291000
10.766667	1	40.324000
10.783333	1	44.846875
10.800000	1	48.439875
10.816667	1	50.687250
10.833333	1	51.280375
10.850000	1	50.128375
10.866667	1	47.389125
10.883333	1	43.435625
10.900000	1	38.748000
10.916667	1	33.792875
10.933333	1	28.941500
10.950000	1	24.444000
10.966667	1	20.434750
10.983333	1	16.967125
11.000000	1	14.037125
11.016667	1	11.607375
11.033333	1	9.623500
11.050000	1	8.022125
11.066667	1	6.738875
11.083333	1	5.715500
11.100000	1	4.899625
11.116667	1	4.248875
11.133333	1	3.728250
11.150000	1	3.309000
11.166667	1	2.969250
11.183333	1	2.691500
11.200000	1	2.461625
11.216667	1	2.269375
11.233333	1	2.107750
11.250000	1	1.968750
11.266667	1	1.849500
11.283333	1	1.746875
11.300000	1	1.657000
11.316667	1	1.577875
11.333333	1	1.509375
11.350000	1	1.448625
11.366667	1	1.394750
11.383333	1	1.347125
11.400000	1	1.304250
11.416667	1	1.266625
11.433333	1	1.231625
11.450000	1	1.200875
11.466667	1	1.173625
11.483333	1	1.148625
11.500000	1	1.126250
11.516667	1	1.106250
11.533333	1	1.088000
11.550000	1	1.072250
11.566667	1	1.057500
11.583333	1	1.044375
11.600000	1	1.033875
11.616667	1	1.024875
11.633333	1	1.016625
11.650000	1	1.010625
11.666667	1	1.006250
11.683333	1	1.003625
11.700000	1	1.003250
11.716667	1	1.003875
11.733333	1	1.005625
11.750000	1	1.008750
11.766667	1	1.013500
11.783333	1	1.019000
11.800000	1	1.025625
11.816667	1	1.031500
11.833333	1	1.037625
11.850000	1	1.043500
11.866667	1	1.049250
11.883333	1	1.053625
11.900000	1	1.058125
11.916667	1	1.062125
11.933333	1	1.066375
11.950000	1	1.070375
11.966667	1	1.074500
11.983333	1	1.078875
12.000000	1	1.083000
12.016667	1	1.087625
12.033333	1	1.092750
12.050000	1	1.098625
12.066667	1	1.104625
12.083333	1	1.111000
12.100000	1	1.117875
12.116667	1	1.125125
12.133333	1	1.133000
12.150000	1	1.141625
12.166667	1	1.151125
12.183333	1	1.161000
12.200000	1	1.172875
12.216667	1	1.186375
12.233333	1	1.201875
12.250000	1	1.219625
12.266667	1	1.238750
12.283333	1	1.260625
12.300000	1	1.284625
12.316667	1	1.312000
12.333333	1	1.342750
12.350000	1	1.378375
12.366667	1	1.422000
12.383333	1	1.475250
12.400000	1	1.542500
12.416667	1	1.629000
12.433333	1	1.740375
12.450000	1	1.882875
12.466667	1	2.062875
12.483333	1	2.286250
12.500000	1	2.557625
12.516667	1	2.877125
12.533333	1	3.245625
12.550000	1	3.661250
12.566667	1	4.118625
12.583333	1	4.610875
12.600000	1	5.130000
12.616667	1	5.665500
12.633333	1	6.210250
12.650000	1	6.756250
12.666667	1	7.298000
12.683333	1	7.831250
12.700000	1	8.355625
12.716667	1	8.870875
12.733333	1	9.379375
12.750000	1	9.884250
12.766667	1	10.388750
12.783333	1	10.896000
12.800000	1	11.401875
12.816667	1	11.892250
12.833333	1	12.335625
12.850000	1	12.674750
12.866667	1	12.829750
12.883333	1	12.722375
12.900000	1	12.304875
12.916667	1	11.589500
12.933333	1	10.644625
12.950000	1	9.576750
12.966667	1	8.488500
12.983333	1	7.456250
13.000000	1	6.522875
13.016667	1	5.704500
13.033333	1	5.000750
13.050000	1	4.405000
13.066667	1	3.907750
13.083333	1	3.496500
13.100000	1	3.160375
13.116667	1	2.885500
13.133333	1	2.663250
13.150000	1	2.482250
13.166667	1	2.333750
13.183333	1	2.211250
13.200000	1	2.109125
13.216667	1	2.023250
13.233333	1	1.949875
13.250000	1	1.885625
13.266667	1	1.828375
13.283333	1	1.776500
13.300000	1	1.730125
13.316667	1	1.688125
13.333333	1	1.648500
13.350000	1	1.612625
13.366667	1	1.579500
13.383333	1	1.549750
13.400000	1	1.522375
13.416667	1	1.498000
13.433333	1	1.476125
13.450000	1	1.457750
13.466667	1	1.441625
13.483333	1	1.428500
13.500000	1	1.417375
13.516667	1	1.409000
13.533333	1	1.402000
13.550000	1	1.396500
13.566667	1	1.391375
13.583333	1	1.387375
13.600000	1	1.381750
13.616667	1	1.375500
13.633333	1	1.367750
13.650000	1	1.357500
13.666667	1	1.345125
13.683333	1	1.331250
13.700000	1	1.315750
13.716667	1	1.298625
13.733333	1	1.280750
13.750000	1	1.262000
13.766667	1	1.243125
13.783333	1	1.224250
13.800000	1	1.205625
13.816667	1	1.188375
13.833333	1	1.172000
13.850000	1	1.156000
13.866667	1	1.141125
13.883333	1	1.126750
13.900000	1	1.113875
13.916667	1	1.100250
13.933333	1	1.087875
13.950000	1	1.076375
13.966667	1	1.065750
13.983333	1	1.055125
14.000000	1	1.046000
14.016667	1	1.036375
14.033333	1	1.027500
14.050000	1	1.018625
14.066667	1	1.010375
14.083333	1	1.002625
14.100000	1	0.995250
14.116667	1	0.988000
14.133333	1	0.981625
14.150000	1	0.974625
14.166667	1	0.967750
14.183333	1	0.963125
14.200000	1	0.957875
14.216667	1	0.953125
14.233333	1	0.948875
14.250000	1	0.946000
14.266667	1	0.943875
14.283333	1	0.943125
14.300000	1	0.942375
14.316667	1	0.943000
14.333333	1	0.945250
14.350000	1	0.948875
14.366667	1	0.953500
14.383333	1	0.960250
14.400000	1	0.970125
14.416667	1	0.984500
14.433333	1	1.005000
14.450000	1	1.035875
14.466667	1	1.084375
14.483333	1	1.160500
14.500000	1	1.281125
14.516667	1	1.468375
14.533333	1	1.754625
14.550000	1	2.182875
14.566667	1	2.807875
14.583333	1	3.692750
14.600000	1	4.914125
14.616667	1	6.556250
14.633333	1	8.704250
14.650000	1	11.435125
14.666667	1	14.805500
14.683333	1	18.840500
14.700000	1	23.519125
14.716667	1	28.766250
14.733333	1	34.454625
14.750000	1	40.403125
14.766667	1	46.381250
14.783333	1	52.125500
14.800000	1	57.371625
14.816667	1	61.867750
14.833333	1	65.395625
14.850000	1	67.790375
14.866667	1	68.955875
14.883333	1	68.875250
14.900000	1	67.613375
14.916667	1	65.304125
14.933333	1	62.121500
14.950000	1	58.271875
14.966667	1	53.968875
14.983333	1	49.420000
15.000000	1	44.799375
15.016667	1	40.255625
15.033333	1	35.899625
15.050000	1	31.810875
15.066667	1	28.040125
15.083333	1	24.612875
15.100000	1	21.535875
15.116667	1	18.798875
15.133333	1	16.380250
15.150000	1	14.256750
15.166667	1	12.397500
15.183333	1	10.776250
15.200000	1	9.366250
15.216667	1	8.142750
15.233333	1	7.084250
15.250000	1	6.172250
15.266667	1	5.391250
15.283333	1	4.726875
15.300000	1	4.165375
15.316667	1	3.695000
15.333333	1	3.305250
15.350000	1	2.985750
15.366667	1	2.727000
15.383333	1	2.520500
15.400000	1	2.356500
15.416667	1	2.228000
15.433333	1	2.127375
15.450000	1	2.047750
15.466667	1	1.982625
15.483333	1	1.927250
15.500000	1	1.876875
15.516667	1	1.829250
15.533333	1	1.781375
15.550000	1	1.733625
15.566667	1	1.684375
15.583333	1	1.635500
15.600000	1	1.585250
15.616667	1	1.536000
15.633333	1	1.489000
15.650000	1	1.443375
15.666667	1	1.400750
15.683333	1	1.360625
15.700000	1	1.324125
15.716667	1	1.289625
15.733333	1	1.257750
15.750000	1	1.227875
15.766667	1	1.200750
15.783333	1	1.176000
15.800000	1	1.152750
15.816667	1	1.131625
15.833333	1	1.112500
15.850000	1	1.095875
15.866667	1	1.082750
15.883333	1	1.072000
15.900000	1	1.065000
15.916667	1	1.060750
15.933333	1	1.061000
15.950000	1	1.065000
15.966667	1	1.072125
15.983333	1	1.081750
16.000000	1	1.093250
16.016667	1	1.106250
16.033333	1	1.120000
16.050000	1	1.133250
16.066667	1	1.144625
16.083333	1	1.154500
16.100000	1	1.162875
16.116667	1	1.167750
16.133333	1	1.169625
16.150000	1	1.168875
16.166667	1	1.165625
16.183333	1	1.159875
16.200000	1	1.151625
16.216667	1	1.142125
16.233333	1	1.130500
16.250000	1	1.118375
16.266667	1	1.105875
16.283333	1	1.093500
16.300000	1	1.081625
16.316667	1	1.069875
16.333333	1	1.058500
16.350000	1	1.048875
16.366667	1	1.041500
16.383333	1	1.035625
16.400000	1	1.031750
16.416667	1	1.029750
16.433333	1	1.029375
16.450000	1	1.030375
16.466667	1	1.032375
16.483333	1	1.035125
16.500000	1	1.038750
16.516667	1	1.042500
16.533333	1	1.044250
16.550000	1	1.045500
16.566667	1	1.045875
16.583333	1	1.044875
16.600000	1	1.042500
16.616667	1	1.038000
16.633333	1	1.032750
16.650000	1	1.027875
16.666667	1	1.022875
16.683333	1	1.018375
16.700000	1	1.015750
16.716667	1	1.014500
16.733333	1	1.014125
16.750000	1	1.016625
16.766667	1	1.019750
16.783333	1	1.024375
16.800000	1	1.031000
16.816667	1	1.038750
16.833333	1	1.046125
16.850000	1	1.053500
16.866667	1	1.059250
16.883333	1	1.064500
16.900000	1	1.067750
16.916667	1	1.069625
16.933333	1	1.068750
16.950000	1	1.066875
16.966667	1	1.064000
16.983333	1	1.059500
17.000000	1	1.053875
17.016667	1	1.047750
17.033333	1	1.041375
17.050000	1	1.035125
17.066667	1	1.029375
17.083333	1	1.024500
17.100000	1	1.020125
17.116667	1	1.016750
17.133333	1	1.014250
17.150000	1	1.012000
17.166667	1	1.011000
17.183333	1	1.010375
17.200000	1	1.010750
17.216667	1	1.011125
17.233333	1	1.012500
17.250000	1	1.014250
17.266667	1	1.017125
17.283333	1	1.019500
17.300000	1	1.022125
17.316667	1	1.025250
17.333333	1	1.028750
17.350000	1	1.032250
17.366667	1	1.036250
17.383333	1	1.040125
17.400000	1	1.042750
17.416667	1	1.045125
17.433333	1	1.046625
17.450000	1	1.047250
17.466667	1	1.046625
17.483333	1	1.044000
17.500000	1	1.040875
17.516667	1	1.035875
17.533333	1	1.029125
17.550000	1	1.021750
17.566667	1	1.012875
17.583333	1	1.002875
17.600000	1	0.990875
17.616667	1	0.978375
17.633333	1	0.965625
17.650000	1	0.952250
17.666667	1	0.938250
17.683333	1	0.924125
17.700000	1	0.910375
17.716667	1	0.897000
17.733333	1	0.883750
17.750000	1	0.870875
17.766667	1	0.859125
17.783333	1	0.848750
17.800000	1	0.838875
17.816667	1	0.830000
17.833333	1	0.822375
17.850000	1	0.815375
17.866667	1	0.809250
17.883333	1	0.803625
17.900000	1	0.798500
17.916667	1	0.794500
17.933333	1	0.790750
17.950000	1	0.787000
17.966667	1	0.783125
17.983333	1	0.779500
18.000000	1	0.775500
18.016667	1	0.771125
18.033333	1	0.767375
18.050000	1	0.763000
18.066667	1	0.759250
18.083333	1	0.755875
18.100000	1	0.752500
18.116667	1	0.749375
18.133333	1	0.746500
18.150000	1	0.744500
18.166667	1	0.742375
18.183333	1	0.741375
18.200000	1	0.740875
18.216667	1	0.740250
18.233333	1	0.740750
18.250000	1	0.740500
18.266667	1	0.740625
18.283333	1	0.740375
18.300000	1	0.740125
18.316667	1	0.740125
18.333333	1	0.740125
18.350000	1	0.740625
18.366667	1	0.741500
18.383333	1	0.743125
18.400000	1	0.747000
18.416667	1	0.751625
18.433333	1	0.756375
18.450000	1	0.763500
18.466667	1	0.772250
18.483333	1	0.783000
18.500000	1	0.796375
18.516667	1	0.811000
18.533333	1	0.827875
18.550000	1	0.846500
18.566667	1	0.867125
18.583333	1	0.889500
18.600000	1	0.914625
18.616667	1	0.941125
18.633333	1	0.969500
18.650000	1	0.999125
18.666667	1	1.030000
18.683333	1	1.062000
18.700000	1	1.094000
18.716667	1	1.127625
18.733333	1	1.161750
18.750000	1	1.195625
18.766667	1	1.229625
18.783333	1	1.262250
18.800000	1	1.293375
18.816667	1	1.322250
18.833333	1	1.348000
18.850000	1	1.370250
18.866667	1	1.388000
18.883333	1	1.400500
18.900000	1	1.408250
18.916667	1	1.410125
18.933333	1	1.405500
18.950000	1	1.394000
18.966667	1	1.376625
18.983333	1	1.352875
19.000000	1	1.323625
19.016667	1	1.290000
19.033333	1	1.251250
19.050000	1	1.210000
19.066667	1	1.165875
19.083333	1	1.120750
19.100000	1	1.074375
19.116667	1	1.029000
19.133333	1	0.985500
19.150000	1	0.943625
19.166667	1	0.904625
19.183333	1	0.869875
19.200000	1	0.838750
19.216667	1	0.812125
19.233333	1	0.790625
19.250000	1	0.774750
19.266667	1	0.764375
19.283333	1	0.759375
19.300000	1	0.761000
19.316667	1	0.768375
19.333333	1	0.781000
19.350000	1	0.798875
19.366667	1	0.822125
19.383333	1	0.849250
19.400000	1	0.880625
19.416667	1	0.914625
19.433333	1	0.949875
19.450000	1	0.986250
19.466667	1	1.022125
19.483333	1	1.057250
19.500000	1	1.089625
19.516667	1	1.118875
19.533333	1	1.144625
19.550000	1	1.166125
19.566667	1	1.183375
19.583333	1	1.196375
19.600000	1	1.204750
19.616667	1	1.208500
19.633333	1	1.207625
19.650000	1	1.201750
19.666667	1	1.192375
19.683333	1	1.179250
19.700000	1	1.161625
19.716667	1	1.141625
19.733333	1	1.117750
19.750000	1	1.092500
19.766667	1	1.064625
19.783333	1	1.035000
19.800000	1	1.003875
19.816667	1	0.972375
19.833333	1	0.939750
19.850000	1	0.907375
19.866667	1	0.875000
19.883333	1	0.843250
19.900000	1	0.812375
19.916667	1	0.783125
19.933333	1	0.755750
19.950000	1	0.730125
19.966667	1	0.707625
19.983333	1	0.687750
20.000000	1	0.670500
20.016667	1	0.657250
20.033333	1	0.647875
20.050000	1	0.642000
20.066667	1	0.640000
20.083333	1	0.642250
20.100000	1	0.648875
20.116667	1	0.659125
20.133333	1	0.673875
20.150000	1	0.690625
20.166667	1	0.710250
20.183333	1	0.730875
20.200000	1	0.753000
20.216667	1	0.775250
20.233333	1	0.796000
20.250000	1	0.814375
20.266667	1	0.830500
20.283333	1	0.842875
20.300000	1	0.851125
20.316667	1	0.855625
20.333333	1	0.854250
20.350000	1	0.848875
20.366667	1	0.839250
20.383333	1	0.826125
20.400000	1	0.809375
20.416667	1	0.790000
20.433333	1	0.767750
20.450000	1	0.746250
20.466667	1	0.723875
20.483333	1	0.703125
20.500000	1	0.684000
20.516667	1	0.667750
20.533333	1	0.654500
20.550000	1	0.646500
20.566667	1	0.643875
20.583333	1	0.648375
20.600000	1	0.658375
20.616667	1	0.675500
20.633333	1	0.701125
20.650000	1	0.734875
20.666667	1	0.777875
20.683333	1	0.829750
20.700000	1	0.889875
20.716667	1	0.956875
20.733333	1	1.029750
20.750000	1	1.106875
20.766667	1	1.186500
20.783333	1	1.266750
20.800000	1	1.344250
20.816667	1	1.416750
20.833333	1	1.481000
20.850000	1	1.535750
20.866667	1	1.579625
20.883333	1	1.610500
20.900000	1	1.628125
20.916667	1	1.631250
20.933333	1	1.621375
20.950000	1	1.598000
20.966667	1	1.563500
20.983333	1	1.518875
21.000000	1	1.466000
21.016667	1	1.407000
21.033333	1	1.343625
21.050000	1	1.278375
21.066667	1	1.210875
21.083333	1	1.144375
21.100000	1	1.080250
21.116667	1	1.018875
21.133333	1	0.960250
21.150000	1	0.905125
21.166667	1	0.854375
21.183333	1	0.807500
21.200000	1	0.764000
21.216667	1	0.724500
21.233333	1	0.690000
21.250000	1	0.658750
21.266667	1	0.630250
21.283333	1	0.605875
21.300000	1	0.583125
21.316667	1	0.562750
21.333333	1	0.545000
21.350000	1	0.528875
21.366667	1	0.515125
21.383333	1	0.502375
21.400000	1	0.492125
21.416667	1	0.482250
21.433333	1	0.473750
21.450000	1	0.465000
21.466667	1	0.457750
21.483333	1	0.451000
21.500000	1	0.445250
21.516667	1	0.439250
21.533333	1	0.434375
21.550000	1	0.430250
21.566667	1	0.426250
21.583333	1	0.423125
21.600000	1	0.420000
21.616667	1	0.417000
21.633333	1	0.415500
21.650000	1	0.413750
21.666667	1	0.412250
21.683333	1	0.411375
21.700000	1	0.410625
21.716667	1	0.410500
21.733333	1	0.410250
21.750000	1	0.411125
21.766667	1	0.412625
21.783333	1	0.414125
21.800000	1	0.414875
21.816667	1	0.416500
21.833333	1	0.417625
21.850000	1	0.419750
21.866667	1	0.422000
21.883333	1	0.425375
21.900000	1	0.428000
21.916667	1	0.431375
21.933333	1	0.435625
21.950000	1	0.439625
21.966667	1	0.444500
21.983333	1	0.449625
22.000000	1	0.455375
22.016667	1	0.461375
22.033333	1	0.467625
22.050000	1	0.474625
22.066667	1	0.481000
22.083333	1	0.487375
22.100000	1	0.493375
22.116667	1	0.499250
22.133333	1	0.505000
22.150000	1	0.509125
22.166667	1	0.513375
22.183333	1	0.516250
22.200000	1	0.517375
22.216667	1	0.517000
22.233333	1	0.516250
22.250000	1	0.513625
22.266667	1	0.510500
22.283333	1	0.505625
22.300000	1	0.500000
22.316667	1	0.493625
22.333333	1	0.486750
22.350000	1	0.478500
22.366667	1	0.470375
22.383333	1	0.462625
22.400000	1	0.453750
22.416667	1	0.445000
22.433333	1	0.435875
22.450000	1	0.427750
22.466667	1	0.419250
22.483333	1	0.412000
22.500000	1	0.404750
22.516667	1	0.397875
22.533333	1	0.391000
22.550000	1	0.385125
22.566667	1	0.378250
22.583333	1	0.372750
22.600000	1	0.367500
22.616667	1	0.362125
22.633333	1	0.357375
22.650000	1	0.352875
22.666667	1	0.348750
22.683333	1	0.344625
22.700000	1	0.340625
22.716667	1	0.337250
22.733333	1	0.333250
22.750000	1	0.329750
22.766667	1	0.326375
22.783333	1	0.323125
22.800000	1	0.319875
22.816667	1	0.316875
22.833333	1	0.314000
22.850000	1	0.310875
22.866667	1	0.307625
22.883333	1	0.304125
22.900000	1	0.302875
22.916667	1	0.300750
22.933333	1	0.299000
22.950000	1	0.298000
22.966667	1	0.297250
22.983333	1	0.295625
23.000000	1	0.295250
23.016667	1	0.295000
23.033333	1	0.295375
23.050000	1	0.295500
23.066667	1	0.296750
23.083333	1	0.298250
23.100000	1	0.299625
23.116667	1	0.301625
23.133333	1	0.303625
23.150000	1	0.306250
23.166667	1	0.308875
23.183333	1	0.311625
23.200000	1	0.313125
23.216667	1	0.315500
23.233333	1	0.317375
23.250000	1	0.319875
23.266667	1	0.322125
23.283333	1	0.325750
23.300000	1	0.330000
23.316667	1	0.335500
23.333333	1	0.342750
23.350000	1	0.352000
23.366667	1	0.364375
23.383333	1	0.381625
23.400000	1	0.403375
23.416667	1	0.432750
23.433333	1	0.471000
23.450000	1	0.519500
23.466667	1	0.579750
23.483333	1	0.654250
23.500000	1	0.745875
23.516667	1	0.855875
23.533333	1	0.986375
23.550000	1	1.138250
23.566667	1	1.314250
23.583333	1	1.513750
23.600000	1	1.737500
23.616667	1	1.983375
23.633333	1	2.251125
23.650000	1	2.536000
23.666667	1	2.835125
23.683333	1	3.142875
23.700000	1	3.454750
23.716667	1	3.763625
23.733333	1	4.064125
23.750000	1	4.349250
23.766667	1	4.612125
23.783333	1	4.846000
23.800000	1	5.045875
23.816667	1	5.208375
23.833333	1	5.328875
23.850000	1	5.406750
23.866667	1	5.439750
23.883333	1	5.429750
23.900000	1	5.378125
23.916667	1	5.287875
23.933333	1	5.162375
23.950000	1	5.006000
23.966667	1	4.824000
23.983333	1	4.621375
24.000000	1	4.403625
24.016667	1	4.175625
24.033333	1	3.941375
24.050000	1	3.704250
24.066667	1	3.470500
24.083333	1	3.240875
24.100000	1	3.018750
24.116667	1	2.804000
24.133333	1	2.599000
24.150000	1	2.404375
24.166667	1	2.222750
24.183333	1	2.052250
24.200000	1	1.893250
24.216667	1	1.746250
24.233333	1	1.609250
24.250000	1	1.483500
24.266667	1	1.368750
24.283333	1	1.262625
24.300000	1	1.165250
24.316667	1	1.077750
24.333333	1	0.998375
24.350000	1	0.926375
24.366667	1	0.861750
24.383333	1	0.803875
24.400000	1	0.752375
24.416667	1	0.706375
24.433333	1	0.666125
24.450000	1	0.630750
24.466667	1	0.599875
24.483333	1	0.573000
24.500000	1	0.549875
24.516667	1	0.529875
24.533333	1	0.512250
24.550000	1	0.497375
24.566667	1	0.484500
24.583333	1	0.472625
24.600000	1	0.462500
24.616667	1	0.453875
24.633333	1	0.443875
24.650000	1	0.436125
24.666667	1	0.429000
24.683333	1	0.422375
24.700000	1	0.415500
24.716667	1	0.408500
24.733333	1	0.401875
24.750000	1	0.395250
24.766667	1	0.388750
24.783333	1	0.382625
24.800000	1	0.376250
24.816667	1	0.371000
24.833333	1	0.365625
24.850000	1	0.359875
24.866667	1	0.354875
24.883333	1	0.349750
24.900000	1	0.345500
24.916667	1	0.340750
24.933333	1	0.336750
24.950000	1	0.333375
24.966667	1	0.330375
24.983333	1	0.327125
25.000000	1	0.324000
25.016667	1	0.320625
25.033333	1	0.318000
25.050000	1	0.316000
25.066667	1	0.314000
25.083333	1	0.312125
25.100000	1	0.310000
25.116667	1	0.307625
25.133333	1	0.306000
25.150000	1	0.303750
25.166667	1	0.301750
25.183333	1	0.299875
25.200000	1	0.298375
25.216667	1	0.296125
25.233333	1	0.294125
25.250000	1	0.292125
25.266667	1	0.290375
25.283333	1	0.288875
25.300000	1	0.286750
25.316667	1	0.284750
25.333333	1	0.283750
25.350000	1	0.282000
25.366667	1	0.281000
25.383333	1	0.279750
25.400000	1	0.279375
25.416667	1	0.279500
25.433333	1	0.279000
25.450000	1	0.278625
25.466667	1	0.279500
25.483333	1	0.281125
25.500000	1	0.282250
25.516667	1	0.283125
25.533333	1	0.283625
25.550000	1	0.284625
25.566667	1	0.286125
25.583333	1	0.287250
25.600000	1	0.289250
25.616667	1	0.290000
25.633333	1	0.291625
25.650000	1	0.292750
25.666667	1	0.294125
25.683333	1	0.294875
25.700000	1	0.296250
25.716667	1	0.296750
25.733333	1	0.296875
25.750000	1	0.297500
25.766667	1	0.297625
25.783333	1	0.296875
25.800000	1	0.296000
25.816667	1	0.296250
25.833333	1	0.295750
25.850000	1	0.295000
25.866667	1	0.294250
25.883333	1	0.294125
25.900000	1	0.293875
25.916667	1	0.294375
25.933333	1	0.294625
25.950000	1	0.294500
25.966667	1	0.294625
25.983333	1	0.295125
26.000000	1	0.296750
26.016667	1	0.298625
26.033333	1	0.300250
26.050000	1	0.303000
26.066667	1	0.306250
26.083333	1	0.309875
26.100000	1	0.313375
26.116667	1	0.318250
26.133333	1	0.322750
26.150000	1	0.327250
26.166667	1	0.332500
26.183333	1	0.337125
26.200000	1	0.342250
26.216667	1	0.347250
26.233333	1	0.352625
26.250000	1	0.357750
26.266667	1	0.363125
26.283333	1	0.367125
26.300000	1	0.371250
26.316667	1	0.375125
26.333333	1	0.378500
26.350000	1	0.381000
26.366667	1	0.382875
26.383333	1	0.384250
26.400000	1	0.384875
26.416667	1	0.384875
26.433333	1	0.384375
26.450000	1	0.383500
26.466667	1	0.382250
26.483333	1	0.379625
26.500000	1	0.376625
26.516667	1	0.373375
26.533333	1	0.370000
26.550000	1	0.366625
26.566667	1	0.361625
26.583333	1	0.357375
26.600000	1	0.352750
26.616667	1	0.348250
26.633333	1	0.343375
26.650000	1	0.339000
26.666667	1	0.334875
26.683333	1	0.330625
26.700000	1	0.326375
26.716667	1	0.322125
26.733333	1	0.318625
26.750000	1	0.314875
26.766667	1	0.312500
26.783333	1	0.310500
26.800000	1	0.308125
26.816667	1	0.306125
26.833333	1	0.304000
26.850000	1	0.302625
26.866667	1	0.300875
26.883333	1	0.299750
26.900000	1	0.298500
26.916667	1	0.297750
26.933333	1	0.296125
26.950000	1	0.295000
26.966667	1	0.294250
26.983333	1	0.293625
27.000000	1	0.294000
27.016667	1	0.293750
27.033333	1	0.293875
27.050000	1	0.294125
27.066667	1	0.294500
27.083333	1	0.295375
27.100000	1	0.296250
27.116667	1	0.296375
27.133333	1	0.297000
27.150000	1	0.298375
27.166667	1	0.300500
27.183333	1	0.303125
27.200000	1	0.307000
27.216667	1	0.311875
27.233333	1	0.317375
27.250000	1	0.324250
27.266667	1	0.333625
27.283333	1	0.345500
27.300000	1	0.360250
27.316667	1	0.377500
27.333333	1	0.399125
27.350000	1	0.425125
27.366667	1	0.456000
27.383333	1	0.493000
27.400000	1	0.536750
27.416667	1	0.587875
27.433333	1	0.646750
27.450000	1	0.714875
27.466667	1	0.792375
27.483333	1	0.881250
27.500000	1	0.981625
27.516667	1	1.093000
27.533333	1	1.216500
27.550000	1	1.351625
27.566667	1	1.498750
27.583333	1	1.656375
27.600000	1	1.824500
27.616667	1	2.001625
27.633333	1	2.186875
27.650000	1	2.378000
27.666667	1	2.572875
27.683333	1	2.770000
27.700000	1	2.965375
27.716667	1	3.156500
27.733333	1	3.340125
27.750000	1	3.513125
27.766667	1	3.673250
27.783333	1	3.817375
27.800000	1	3.944125
27.816667	1	4.049375
27.833333	1	4.132000
27.850000	1	4.190500
27.866667	1	4.225000
27.883333	1	4.234125
27.900000	1	4.217375
27.916667	1	4.175750
27.933333	1	4.110625
27.950000	1	4.023500
27.966667	1	3.916625
27.983333	1	3.793375
28.000000	1	3.655500
28.016667	1	3.505625
28.033333	1	3.345375
28.050000	1	3.178500
28.066667	1	3.007125
28.083333	1	2.834125
28.100000	1	2.662250
28.116667	1	2.492250
28.133333	1	2.327000
28.150000	1	2.167750
28.166667	1	2.014750
28.183333	1	1.870250
28.200000	1	1.733125
28.216667	1	1.603500
28.233333	1	1.483000
28.250000	1	1.370875
28.266667	1	1.267125
28.283333	1	1.171500
28.300000	1	1.083500
28.316667	1	1.002750
28.333333	1	0.930500
28.350000	1	0.864750
28.366667	1	0.804750
28.383333	1	0.751250
28.400000	1	0.703250
28.416667	1	0.661000
28.433333	1	0.623875
28.450000	1	0.590875
28.466667	1	0.562375
28.483333	1	0.537625
28.500000	1	0.516500
28.516667	1	0.499125
28.533333	1	0.485375
28.550000	1	0.474625
28.566667	1	0.466500
28.583333	1	0.460750
28.600000	1	0.457625
28.616667	1	0.456375
28.633333	1	0.456750
28.650000	1	0.459125
28.666667	1	0.462000
28.683333	1	0.467125
28.700000	1	0.473750
28.716667	1	0.480875
28.733333	1	0.489000
28.750000	1	0.497625
28.766667	1	0.506500
28.783333	1	0.515250
28.800000	1	0.524375
28.816667	1	0.534375
28.833333	1	0.543125
28.850000	1	0.551250
28.866667	1	0.559875
28.883333	1	0.567500
28.900000	1	0.574375
28.916667	1	0.580125
28.933333	1	0.584375
28.950000	1	0.588500
28.966667	1	0.590500
28.983333	1	0.591000
29.000000	1	0.591000
29.016667	1	0.588750
29.033333	1	0.584875
29.050000	1	0.578250
29.066667	1	0.570500
29.083333	1	0.560125
29.100000	1	0.547375
29.116667	1	0.532125
29.133333	1	0.513750
29.150000	1	0.493250
29.166667	1	0.470125
29.183333	1	0.443500
29.200000	1	0.414250
29.216667	1	0.381250
29.233333	1	0.345000
29.250000	1	0.305375
29.266667	1	0.262000
29.283333	1	0.214625
29.300000	1	0.164375
29.316667	1	0.110000
29.333333	1	0.052500
29.350000	1	-0.008875
29.366667	1	-0.073250
29.383333	1	-0.140750
29.400000	1	-0.211250
29.416667	1	-0.284000
29.433333	1	-0.359750
29.450000	1	-0.437375
29.466667	1	-0.515750
29.483333	1	-0.595750
29.500000	1	-0.676250
29.516667	1	-0.756250
29.533333	1	-0.834875
29.550000	1	-0.911250
29.566667	1	-0.986375
29.583333	1	-1.057125
29.600000	1	-1.124125
29.616667	1	-1.187000
29.633333	1	-1.245750
29.650000	1	-1.299125
29.666667	1	-1.345625
29.683333	1	-1.386500
29.700000	1	-1.420500
29.716667	1	-1.447875
29.733333	1	-1.467250
29.750000	1	-1.480250
29.766667	1	-1.485875
29.783333	1	-1.483875
29.800000	1	-1.475125
29.816667	1	-1.459750
29.833333	1	-1.437625
29.850000	1	-1.410250
29.866667	1	-1.377000
29.883333	1	-1.338875
29.900000	1	-1.297000
29.916667	1	-1.251000
29.933333	1	-1.201750
29.950000	1	-1.149875
29.966667	1	-1.094875
29.983333	1	-1.038875
30.000000	1	-0.981625
30.016667	1	-0.923875
30.033333	1	-0.865875
30.050000	1	-0.807250
30.066667	1	-0.750500
30.083333	1	-0.693625
30.100000	1	-0.638375
30.116667	1	-0.584750
30.133333	1	-0.532750
30.150000	1	-0.483000
30.166667	1	-0.435875
30.183333	1	-0.390625
30.200000	1	-0.346750
30.216667	1	-0.305750
30.233333	1	-0.267125
30.250000	1	-0.231250
30.266667	1	-0.196875
30.283333	1	-0.165250
30.300000	1	-0.135875
30.316667	1	-0.108875
30.333333	1	-0.083875
30.350000	1	-0.060375
30.366667	1	-0.037750
30.383333	1	-0.018250
30.400000	1	-0.000875
30.416667	1	0.015625
30.433333	1	0.030625
30.450000	1	0.044000
30.466667	1	0.056375
30.483333	1	0.067500
30.500000	1	0.077750
30.516667	1	0.087750
30.533333	1	0.096625
30.550000	1	0.104500
30.566667	1	0.112375
30.583333	1	0.120500
30.600000	1	0.128250
30.616667	1	0.135125
30.633333	1	0.142625
30.650000	1	0.149500
30.666667	1	0.156875
30.683333	1	0.164000
30.700000	1	0.171750
30.716667	1	0.179750
30.733333	1	0.187250
30.750000	1	0.195625
30.766667	1	0.204000
30.783333	1	0.213250
30.800000	1	0.223000
30.816667	1	0.233250
30.833333	1	0.244250
30.850000	1	0.255875
30.866667	1	0.268125
30.883333	1	0.281625
30.900000	1	0.296750
30.916667	1	0.312875
30.933333	1	0.331125
30.950000	1	0.351750
30.966667	1	0.375375
30.983333	1	0.402375
31.000000	1	0.433500
31.016667	1	0.469375
31.033333	1	0.511000
31.050000	1	0.559250
31.066667	1	0.615500
31.083333	1	0.679750
31.100000	1	0.755750
31.116667	1	0.841625
31.133333	1	0.941000
31.150000	1	1.054125
31.166667	1	1.181875
31.183333	1	1.326250
31.200000	1	1.487875
31.216667	1	1.667875
31.233333	1	1.867375
31.250000	1	2.085125
31.266667	1	2.323250
31.283333	1	2.578750
31.300000	1	2.852875
31.316667	1	3.142250
31.333333	1	3.446875
31.350000	1	3.765000
31.366667	1	4.092875
31.383333	1	4.428500
31.400000	1	4.768625
31.416667	1	5.109500
31.433333	1	5.446250
31.450000	1	5.775750
31.466667	1	6.092875
31.483333	1	6.394000
31.500000	1	6.674750
31.516667	1	6.932250
31.533333	1	7.162500
31.550000	1	7.363500
31.566667	1	7.531000
31.583333	1	7.664875
31.600000	1	7.763500
31.616667	1	7.826375
31.633333	1	7.852000
31.650000	1	7.842125
31.666667	1	7.796875
31.683333	1	7.717750
31.700000	1	7.607250
31.716667	1	7.467750
31.733333	1	7.302375
31.750000	1	7.112250
31.766667	1	6.901750
31.783333	1	6.672625
31.800000	1	6.429375
31.816667	1	6.174875
31.833333	1	5.910375
31.850000	1	5.640125
31.866667	1	5.366875
31.883333	1	5.092875
31.900000	1	4.820875
31.916667	1	4.552875
31.933333	1	4.289750
31.950000	1	4.032625
31.966667	1	3.784250
31.983333	1	3.544000
32.000000	1	3.312250
32.016667	1	3.090125
32.033333	1	2.878000
32.050000	1	2.676500
32.066667	1	2.485750
32.083333	1	2.305250
32.100000	1	2.134375
32.116667	1	1.974250
32.133333	1	1.824125
32.150000	1	1.682750
32.166667	1	1.549250
32.183333	1	1.425125
32.200000	1	1.308625
32.216667	1	1.199875
32.233333	1	1.098750
32.250000	1	1.004375
32.266667	1	0.916875
32.283333	1	0.835625
32.300000	1	0.760000
32.316667	1	0.690375
32.333333	1	0.626250
32.350000	1	0.566750
32.366667	1	0.511625
32.383333	1	0.460625
32.400000	1	0.414375
32.416667	1	0.371125
32.433333	1	0.331625
32.450000	1	0.295375
32.466667	1	0.262250
32.483333	1	0.231875
32.500000	1	0.204750
32.516667	1	0.180250
32.533333	1	0.158375
32.550000	1	0.138250
32.566667	1	0.120250
32.583333	1	0.104250
32.600000	1	0.090250
32.616667	1	0.077000
32.633333	1	0.065750
32.650000	1	0.055500
32.666667	1	0.046750
32.683333	1	0.038875
32.700000	1	0.032375
32.716667	1	0.026750
32.733333	1	0.021250
32.750000	1	0.017625
32.766667	1	0.014750
32.783333	1	0.011750
32.800000	1	0.009625
32.816667	1	0.007500
32.833333	1	0.005500
32.850000	1	0.004250
32.866667	1	0.003375
32.883333	1	0.003125
32.900000	1	0.003000
32.916667	1	0.003125
32.933333	1	0.003875
32.950000	1	0.004500
32.966667	1	0.005375
32.983333	1	0.006250
33.000000	1	0.007250
33.016667	1	0.008500
33.033333	1	0.010250
33.050000	1	0.011375
33.066667	1	0.012750
33.083333	1	0.013500
33.100000	1	0.015250
33.116667	1	0.016875
33.133333	1	0.018750
33.150000	1	0.020875
33.166667	1	0.022750
33.183333	1	0.024500
33.200000	1	0.026375
33.216667	1	0.028125
33.233333	1	0.029500
33.250000	1	0.030875
33.266667	1	0.032000
33.283333	1	0.033625
33.300000	1	0.035125
33.316667	1	0.036125
33.333333	1	0.037125
33.350000	1	0.038125
33.366667	1	0.039375
33.383333	1	0.039750
33.400000	1	0.040625
33.416667	1	0.042000
33.433333	1	0.042000
33.450000	1	0.043000
33.466667	1	0.044125
33.483333	1	0.044750
33.500000	1	0.045500
33.516667	1	0.046875
33.533333	1	0.047250
33.550000	1	0.047875
33.566667	1	0.049000
33.583333	1	0.050625
33.600000	1	0.052125
33.616667	1	0.053750
33.633333	1	0.054625
33.650000	1	0.056000
33.666667	1	0.057375
33.683333	1	0.059625
33.700000	1	0.062000
33.716667	1	0.064625
33.733333	1	0.067250
33.750000	1	0.069000
33.766667	1	0.072125
33.783333	1	0.075000
33.800000	1	0.077375
33.816667	1	0.080000
33.833333	1	0.083375
33.850000	1	0.086250
33.866667	1	0.089375
33.883333	1	0.091750
33.900000	1	0.094375
33.916667	1	0.097000
33.933333	1	0.100000
33.950000	1	0.102500
33.966667	1	0.105125
33.983333	1	0.106625
34.000000	1	0.108250
34.016667	1	0.110250
34.033333	1	0.111625
34.050000	1	0.112375
34.066667	1	0.112750
34.083333	1	0.112875
34.100000	1	0.113500
34.116667	1	0.113625
34.133333	1	0.113250
34.150000	1	0.113500
34.166667	1	0.112500
34.183333	1	0.111375
34.200000	1	0.110250
34.216667	1	0.108625
34.233333	1	0.107500
34.250000	1	0.106375
34.266667	1	0.103625
34.283333	1	0.102375
34.300000	1	0.101125
34.316667	1	0.099875
34.333333	1	0.098875
34.350000	1	0.097000
34.366667	1	0.095750
34.383333	1	0.094500
34.400000	1	0.093625
34.416667	1	0.093125
34.433333	1	0.091875
34.450000	1	0.091125
34.466667	1	0.090500
34.483333	1	0.089750
34.500000	1	0.089875
34.516667	1	0.089750
34.533333	1	0.090125
34.550000	1	0.090000
34.566667	1	0.089750
34.583333	1	0.089625
34.600000	1	0.090250
34.616667	1	0.090250
34.633333	1	0.090500
34.650000	1	0.090875
34.666667	1	0.091625
34.683333	1	0.092000
34.700000	1	0.092625
34.716667	1	0.092875
34.733333	1	0.093750
34.750000	1	0.094000
34.766667	1	0.094500
34.783333	1	0.095000
34.800000	1	0.095375
34.816667	1	0.095625
34.833333	1	0.095500
34.850000	1	0.095750
34.866667	1	0.095500
34.883333	1	0.095500
34.900000	1	0.094625
34.916667	1	0.094500
34.933333	1	0.093500
34.950000	1	0.092625
34.966667	1	0.091750
34.983333	1	0.090500
35.000000	1	0.089875
35.016667	1	0.089000
35.033333	1	0.088000
35.050000	1	0.086875
35.066667	1	0.085625
35.083333	1	0.084375
35.100000	1	0.083250
35.116667	1	0.082250
35.133333	1	0.081875
35.150000	1	0.080750
35.166667	1	0.080000
35.183333	1	0.079000
35.200000	1	0.078750
35.216667	1	0.078000
35.233333	1	0.077750
35.250000	1	0.078750
35.266667	1	0.079625
35.283333	1	0.079375
35.300000	1	0.079750
35.316667	1	0.080500
35.333333	1	0.082625
35.350000	1	0.083625
35.366667	1	0.085875
35.383333	1	0.088500
35.400000	1	0.090625
35.416667	1	0.093000
35.433333	1	0.095375
35.450000	1	0.098125
35.466667	1	0.100625
35.483333	1	0.103750
35.500000	1	0.106625
35.516667	1	0.109250
35.533333	1	0.112375
35.550000	1	0.115875
35.566667	1	0.118875
35.583333	1	0.121500
35.600000	1	0.123875
35.616667	1	0.126625
35.633333	1	0.129000
35.650000	1	0.131125
35.666667	1	0.133375
35.683333	1	0.135500
35.700000	1	0.137875
35.716667	1	0.140250
35.733333	1	0.141750
35.750000	1	0.143625
35.766667	1	0.144625
35.783333	1	0.144625
35.800000	1	0.145125
35.816667	1	0.145250
35.833333	1	0.144625
35.850000	1	0.144500
35.866667	1	0.143875
35.883333	1	0.142625
35.900000	1	0.141625
35.916667	1	0.140250
35.933333	1	0.139125
35.950000	1	0.137125
35.966667	1	0.135000
35.983333	1	0.132875
36.000000	1	0.130625
36.016667	1	0.128125
36.033333	1	0.126000
36.050000	1	0.123500
36.066667	1	0.120500
36.083333	1	0.118625
36.100000	1	0.116625
36.116667	1	0.114750
36.133333	1	0.112500
36.150000	1	0.110125
36.166667	1	0.108875
36.183333	1	0.106750
36.200000	1	0.105375
36.216667	1	0.103000
36.233333	1	0.101625
36.250000	1	0.100625
36.266667	1	0.099875
36.283333	1	0.099250
36.300000	1	0.098750
36.316667	1	0.098500
36.333333	1	0.098625
36.350000	1	0.098875
36.366667	1	0.099250
36.383333	1	0.099250
36.400000	1	0.099375
36.416667	1	0.100500
36.433333	1	0.101250
36.450000	1	0.102500
36.466667	1	0.103875
36.483333	1	0.105375
36.500000	1	0.106250
36.516667	1	0.107375
36.533333	1	0.108500
36.550000	1	0.109625
36.566667	1	0.111125
36.583333	1	0.111875
36.600000	1	0.112625
36.616667	1	0.113625
36.633333	1	0.114250
36.650000	1	0.114375
36.666667	1	0.114875
36.683333	1	0.114625
36.700000	1	0.114625
36.716667	1	0.113875
36.733333	1	0.113750
36.750000	1	0.112750
36.766667	1	0.111625
36.783333	1	0.110375
36.800000	1	0.109375
36.816667	1	0.108000
36.833333	1	0.106750
36.850000	1	0.105125
36.866667	1	0.103000
36.883333	1	0.101375
36.900000	1	0.099875
36.916667	1	0.098375
36.933333	1	0.096625
36.950000	1	0.094750
36.966667	1	0.092750
36.983333	1	0.090875
37.000000	1	0.089250
37.016667	1	0.088625
37.033333	1	0.086875
37.050000	1	0.085750
37.066667	1	0.084125
37.083333	1	0.083500
37.100000	1	0.082625
37.116667	1	0.082250
37.133333	1	0.081500
37.150000	1	0.081375
37.166667	1	0.080250
37.183333	1	0.079750
37.200000	1	0.079750
37.216667	1	0.080125
37.233333	1	0.079250
37.250000	1	0.078625
37.266667	1	0.078375
37.283333	1	0.077375
37.300000	1	0.077500
37.316667	1	0.077125
37.333333	1	0.077250
37.350000	1	0.076625
37.366667	1	0.077250
37.383333	1	0.076125
37.400000	1	0.074750
37.416667	1	0.073750
37.433333	1	0.073250
37.450000	1	0.072375
37.466667	1	0.072000
37.483333	1	0.071375
37.500000	1	0.070750
37.516667	1	0.069625
37.533333	1	0.068125
37.550000	1	0.066875
37.566667	1	0.065750
37.583333	1	0.064375
37.600000	1	0.062375
37.616667	1	0.061125
37.633333	1	0.059750
37.650000	1	0.059125
37.666667	1	0.057625
37.683333	1	0.056125
37.700000	1	0.054875
37.716667	1	0.053375
37.733333	1	0.052000
37.750000	1	0.051000
37.766667	1	0.049750
37.783333	1	0.048125
37.800000	1	0.047875
37.816667	1	0.046750
37.833333	1	0.045750
37.850000	1	0.046000
37.866667	1	0.045375
37.883333	1	0.044625
37.900000	1	0.043375
37.916667	1	0.043000
37.933333	1	0.043000
37.950000	1	0.042625
37.966667	1	0.042500
37.983333	1	0.042250
38.000000	1	0.041500
38.016667	1	0.041625
38.033333	1	0.041625
38.050000	1	0.041875
38.066667	1	0.041000
38.083333	1	0.040125
38.100000	1	0.040125
38.116667	1	0.039750
38.133333	1	0.039500
38.150000	1	0.039000
38.166667	1	0.038000
38.183333	1	0.037000
38.200000	1	0.035875
38.216667	1	0.034000
38.233333	1	0.033500
38.250000	1	0.032375
38.266667	1	0.031750
38.283333	1	0.030500
38.300000	1	0.029250
38.316667	1	0.029000
38.333333	1	0.028375
38.350000	1	0.028750
38.366667	1	0.027250
38.383333	1	0.027000
38.400000	1	0.026000
38.416667	1	0.025625
38.433333	1	0.025875
38.450000	1	0.025875
38.466667	1	0.025625
38.483333	1	0.026000
38.500000	1	0.026125
38.516667	1	0.026625
38.533333	1	0.027250
38.550000	1	0.028000
38.566667	1	0.028625
38.583333	1	0.029750
38.600000	1	0.030000
38.616667	1	0.031000
38.633333	1	0.030750
38.650000	1	0.031625
38.666667	1	0.032125
38.683333	1	0.032625
38.700000	1	0.032625
38.716667	1	0.032500
38.733333	1	0.033125
38.750000	1	0.034000
38.766667	1	0.035000
38.783333	1	0.035000
38.800000	1	0.034750
38.816667	1	0.034000
38.833333	1	0.034125
38.850000	1	0.033625
38.866667	1	0.033625
38.883333	1	0.032625
38.900000	1	0.032625
38.916667	1	0.031375
38.933333	1	0.030750
38.950000	1	0.029375
38.966667	1	0.028125
38.983333	1	0.026750
39.000000	1	0.026375
39.016667	1	0.025625
39.033333	1	0.025125
39.050000	1	0.024500
39.066667	1	0.023500
39.083333	1	0.023125
39.100000	1	0.021750
39.116667	1	0.022500
39.133333	1	0.021000
39.150000	1	0.020375
39.166667	1	0.019875
39.183333	1	0.020250
39.200000	1	0.019750
39.216667	1	0.019250
39.233333	1	0.019375
39.250000	1	0.019375
39.266667	1	0.019000
39.283333	1	0.019625
39.300000	1	0.019125
39.316667	1	0.019875
39.333333	1	0.019875
39.350000	1	0.020375
39.366667	1	0.020500
39.383333	1	0.020625
39.400000	1	0.020375
39.416667	1	0.020750
39.433333	1	0.021000
39.450000	1	0.021625
39.466667	1	0.022000
39.483333	1	0.021500
39.500000	1	0.021250
39.516667	1	0.021250
39.533333	1	0.021125
39.550000	1	0.020875
39.566667	1	0.020750
39.583333	1	0.020000
39.600000	1	0.019750
39.616667	1	0.019375
39.633333	1	0.018625
39.650000	1	0.017750
39.666667	1	0.017125
39.683333	1	0.016625
39.700000	1	0.016000
39.716667	1	0.015000
39.733333	1	0.014625
39.750000	1	0.013375
39.766667	1	0.012375
39.783333	1	0.011750
39.800000	1	0.010750
39.816667	1	0.010250
39.833333	1	0.009500
39.850000	1	0.008250
39.866667	1	0.007500
39.883333	1	0.006750
39.900000	1	0.005750
39.916667	1	0.004875
39.933333	1	0.004000
39.950000	1	0.003750
39.966667	1	0.002625
39.983333	1	0.003000
40.000000	1	0.002375
